##NAMES=Meurigite-Na
##RRUFFID=R130084
##IDEAL CHEMISTRY=[Na(H_2_O)_2.5_][Fe^3+^_8_(PO_4_)_6_(OH)_7_]&#183;4H_2_O
##LOCALITY=Silver Coin mine, Valmy, Iron Point district, Humboldt County, Nevada, USA
##OWNER=Anthony R. Kampf 
##SOURCE=Anthony R. Kampf 
##DESCRIPTION=Radial sprays of cream-colored, flattened fibers.  Data from Kampf et al (2009)
##STATUS=The identification of this mineral has been confirmed by X-ray diffraction and chemical analysis
##URL=rruff.info/R130084
##MEASURED CHEMISTRY=[Na_0.86_K_0.09_Ca_0.05_(H_2_O)_1.90_(H_3_O)_0.60_][Fe^3+^_6.63_Al_1.32_Cu_0.04_Mg_0.01_(P_0.96_V_0.02_O_4_)_6_(OH)_7_(H_2_O)_4_]
649.9040, 94.29245
651.8325, 94.94652
653.7610, 95.61330
655.6895, 96.19350
657.6180, 96.50781
659.5465, 96.85059
661.4750, 97.06590
663.4035, 97.32504
665.3320, 97.64578
667.2605, 97.96784
669.1890, 98.02066
671.1175, 98.18689
673.0460, 98.64764
674.9745, 98.85538
676.9030, 98.70770
678.8315, 98.79494
680.7599, 98.87157
682.6885, 98.72713
684.6169, 98.66698
686.5455, 98.87544
688.4739, 99.05911
690.4025, 99.22057
692.3309, 99.13758
694.2595, 99.25060
696.1879, 99.29662
698.1165, 99.25537
700.0449, 99.23312
701.9734, 99.48880
703.9019, 99.77242
705.8304, 99.89618
707.7590, 99.87087
709.6874, 99.98562
711.6160, 100.0410
713.5444, 99.99464
715.4730, 99.94334
717.4014, 100.0160
719.3300, 100.0480
721.2584, 100.0725
723.1870, 100.0718
725.1154, 100.0787
727.0439, 99.90388
728.9724, 99.81071
730.9009, 99.79810
732.8294, 99.70238
734.7579, 99.49757
736.6864, 99.51493
738.6149, 99.36053
740.5434, 99.13498
742.4719, 99.01258
744.4004, 98.79189
746.3289, 98.57731
748.2574, 98.30433
750.1859, 98.07899
752.1144, 97.92426
754.0429, 97.53148
755.9714, 97.17054
757.8999, 96.74263
759.8284, 96.11272
761.7569, 95.55537
763.6854, 95.29105
765.6139, 94.93529
767.5424, 94.34290
769.4709, 93.65759
771.3994, 93.11166
773.3279, 92.63932
775.2564, 92.29602
777.1849, 92.04574
779.1134, 91.78902
781.0419, 91.53214
782.9704, 91.46897
784.8989, 91.35993
786.8274, 91.39767
788.7559, 91.31879
790.6844, 91.25884
792.6129, 91.31042
794.5414, 91.45820
796.4698, 91.37028
798.3984, 91.25577
800.3268, 90.94644
802.2554, 90.62292
804.1838, 90.39677
806.1124, 90.25726
808.0408, 89.77325
809.9694, 89.26611
811.8978, 88.86131
813.8264, 88.36583
815.7549, 87.87907
817.6833, 87.49098
819.6119, 87.10356
821.5403, 86.85126
823.4689, 86.79507
825.3973, 86.89081
827.3259, 86.93483
829.2543, 86.93118
831.1829, 87.09509
833.1113, 87.26996
835.0399, 87.51669
836.9683, 87.72700
838.8969, 87.80587
840.8253, 87.90337
842.7538, 88.09966
844.6823, 88.32684
846.6108, 88.47118
848.5393, 88.54005
850.4678, 88.78209
852.3963, 88.86450
854.3248, 88.80437
856.2533, 88.75031
858.1818, 88.70633
860.1103, 88.61073
862.0388, 88.49184
863.9673, 88.36470
865.8958, 88.20724
867.8243, 87.93792
869.7528, 87.68893
871.6813, 87.61574
873.6098, 87.50439
875.5383, 87.35321
877.4668, 87.26131
879.3953, 87.12589
881.3238, 87.02901
883.2523, 87.06848
885.1808, 87.09888
887.1093, 87.13158
889.0378, 87.01689
890.9663, 86.83793
892.8948, 86.55790
894.8233, 86.23014
896.7518, 85.70560
898.6803, 85.13693
900.6088, 84.34683
902.5373, 83.31055
904.4658, 82.08519
906.3943, 80.46599
908.3228, 78.55043
910.2513, 76.37469
912.1797, 73.97572
914.1083, 71.53900
916.0367, 69.08624
917.9653, 66.72639
919.8937, 64.73925
921.8223, 63.13727
923.7507, 61.93434
925.6793, 61.17880
927.6078, 60.59772
929.5363, 60.28687
931.4648, 60.34097
933.3932, 60.59470
935.3218, 60.94462
937.2502, 61.49699
939.1788, 62.08930
941.1072, 62.70556
943.0358, 63.23610
944.9642, 63.47768
946.8928, 63.44859
948.8212, 63.03128
950.7498, 62.03185
952.6782, 60.47307
954.6068, 58.29829
956.5352, 55.45272
958.4637, 52.14783
960.3922, 48.51812
962.3207, 44.80995
964.2492, 41.32779
966.1777, 38.21776
968.1062, 35.54515
970.0347, 33.26702
971.9632, 31.42098
973.8917, 29.99045
975.8202, 29.03884
977.7487, 28.57578
979.6772, 28.67178
981.6057, 29.38405
983.5342, 30.78022
985.4627, 32.79083
987.3912, 35.17233
989.3197, 37.53716
991.2482, 39.36036
993.1767, 40.46928
995.1052, 40.91574
997.0337, 40.56963
998.9622, 39.66653
1000.891, 38.40396
1002.819, 36.74593
1004.748, 34.91441
1006.676, 33.19208
1008.605, 31.48337
1010.533, 29.87513
1012.462, 28.34026
1014.390, 27.00572
1016.319, 25.85489
1018.247, 24.98515
1020.176, 24.41040
1022.104, 24.07635
1024.033, 24.00886
1025.961, 24.21770
1027.890, 24.52519
1029.818, 24.98794
1031.747, 25.58157
1033.675, 26.44315
1035.604, 27.41950
1037.532, 28.38111
1039.461, 29.25416
1041.389, 30.20835
1043.318, 31.15903
1045.246, 32.05465
1047.175, 32.84723
1049.103, 33.41272
1051.032, 33.72895
1052.960, 34.00444
1054.889, 34.22355
1056.817, 34.39420
1058.746, 34.41444
1060.674, 34.43580
1062.603, 34.47755
1064.531, 34.51009
1066.460, 34.49500
1068.388, 34.46568
1070.317, 34.50142
1072.245, 34.67194
1074.174, 34.93943
1076.102, 35.27415
1078.031, 35.74623
1079.959, 36.40770
1081.888, 37.16042
1083.816, 38.02838
1085.745, 38.92552
1087.673, 39.85153
1089.602, 40.75977
1091.530, 41.69714
1093.459, 42.69695
1095.387, 43.62754
1097.316, 44.49731
1099.244, 45.42226
1101.173, 46.22154
1103.101, 46.94053
1105.030, 47.69429
1106.958, 48.58259
1108.887, 49.46072
1110.815, 50.25373
1112.744, 51.04711
1114.672, 51.91807
1116.601, 52.69054
1118.529, 53.33212
1120.458, 53.98339
1122.386, 54.52545
1124.315, 55.04010
1126.243, 55.70844
1128.172, 56.61462
1130.100, 57.68093
1132.029, 58.82721
1133.957, 60.13111
1135.886, 61.63956
1137.814, 63.15274
1139.743, 64.52206
1141.671, 65.85552
1143.600, 67.14261
1145.528, 68.40776
1147.457, 69.50668
1149.385, 70.63963
1151.314, 71.76672
1153.242, 72.75261
1155.171, 73.69142
1157.099, 74.59932
1159.028, 75.34116
1160.956, 76.10139
1162.885, 76.87414
1164.813, 77.54499
1166.742, 78.24314
1168.670, 78.92874
1170.599, 79.45721
1172.527, 79.91158
1174.456, 80.37767
1176.384, 80.76039
1178.313, 81.07985
1180.241, 81.45527
1182.170, 81.84317
1184.098, 82.31255
1186.026, 82.82788
1187.955, 83.23972
1189.884, 83.63640
1191.812, 84.16392
1193.740, 84.73943
1195.669, 85.35988
1197.598, 86.10232
1199.526, 86.80595
1201.455, 87.47049
1203.383, 88.13010
1205.312, 88.89558
1207.240, 89.65813
1209.169, 90.25986
1211.097, 90.80599
1213.026, 91.29712
1214.954, 91.79332
1216.883, 92.29739
1218.811, 92.70664
1220.740, 93.13495
1222.668, 93.49940
1224.597, 93.72813
1226.525, 94.05645
1228.453, 94.39628
1230.382, 94.65173
1232.311, 94.92635
1234.239, 95.19154
1236.167, 95.39697
1238.096, 95.55772
1240.025, 95.75151
1241.953, 95.96732
1243.881, 96.11553
1245.810, 96.25090
1247.739, 96.40446
1249.667, 96.54926
1251.595, 96.76136
1253.524, 96.94556
1255.453, 97.04218
1257.381, 97.17104
1259.309, 97.40099
1261.238, 97.57246
1263.167, 97.75597
1265.095, 97.87239
1267.023, 97.92298
1268.952, 97.92949
1270.880, 97.96743
1272.809, 98.15863
1274.737, 98.30457
1276.666, 98.33295
1278.594, 98.41014
1280.523, 98.52513
1282.451, 98.66242
1284.380, 98.71152
1286.308, 98.75501
1288.237, 98.83672
1290.165, 98.94363
1292.094, 99.01426
1294.022, 99.07452
1295.951, 99.14327
1297.879, 99.22253
1299.808, 99.27853
1301.736, 99.37346
1303.665, 99.38271
1305.593, 99.44593
1307.522, 99.56255
1309.450, 99.60585
1311.379, 99.61102
1313.307, 99.65163
1315.236, 99.73431
1317.164, 99.78432
1319.093, 99.76682
1321.021, 99.73915
1322.950, 99.71582
1324.878, 99.78693
1326.807, 99.84423
1328.735, 99.83154
1330.664, 99.78196
1332.592, 99.86201
1334.521, 99.89401
1336.449, 99.84219
1338.378, 99.85291
1340.306, 99.93982
1342.235, 99.98270
1344.163, 99.99195
1346.092, 99.98363
1348.020, 99.94183
1349.949, 100.0085
1351.877, 100.0676
1353.806, 100.0824
1355.734, 100.1070
1357.663, 100.0314
1359.591, 100.0297
1361.520, 100.0842
1363.448, 100.1510
1365.377, 100.1415
1367.305, 100.1811
1369.234, 100.1917
1371.162, 100.2009
1373.091, 100.1700
1375.019, 100.1625
1376.948, 100.1801
1378.876, 100.1957
1380.805, 100.1861
1382.733, 100.2192
1384.662, 100.2668
1386.590, 100.2440
1388.519, 100.2520
1390.447, 100.3058
1392.376, 100.2922
1394.304, 100.1780
1396.233, 100.1616
1398.161, 100.1841
1400.090, 100.0920
1402.018, 99.96701
1403.947, 100.0047
1405.875, 100.1381
1407.804, 100.1319
1409.732, 100.1488
1411.661, 100.1132
1413.589, 100.0623
1415.518, 99.96790
1417.446, 99.79224
1419.375, 99.87735
1421.303, 100.0411
1423.232, 100.0142
1425.160, 99.97896
1427.089, 99.95425
1429.017, 99.99240
1430.946, 99.93981
1432.874, 99.92522
1434.803, 99.91440
1436.731, 100.0024
1438.660, 100.0756
1440.588, 99.97727
1442.517, 99.91877
1444.445, 99.96188
1446.374, 99.96809
1448.302, 99.95865
1450.231, 99.96120
1452.159, 100.0503
1454.088, 99.91130
1456.016, 99.79182
1457.945, 99.88536
1459.873, 99.90032
1461.802, 99.90047
1463.730, 99.93017
1465.659, 99.97711
1467.587, 99.94088
1469.516, 99.94054
1471.444, 100.0195
1473.373, 100.0742
1475.301, 99.95919
1477.230, 99.84489
1479.158, 99.83395
1481.087, 99.87888
1483.015, 99.94763
1484.944, 99.93028
1486.872, 99.78210
1488.801, 99.74741
1490.729, 99.97781
1492.658, 99.99337
1494.586, 99.90010
1496.515, 99.92075
1498.443, 99.85450
1500.372, 99.75234
1502.300, 99.76756
1504.229, 99.70667
1506.157, 99.66697
1508.086, 99.71521
1510.014, 99.58361
1511.943, 99.48785
1513.871, 99.44570
1515.800, 99.39874
1517.728, 99.40724
1519.657, 99.37582
1521.585, 99.51235
1523.514, 99.52709
1525.442, 99.47684
1527.371, 99.47427
1529.299, 99.32789
1531.228, 99.20667
1533.156, 99.15633
1535.085, 99.23017
1537.013, 99.12517
1538.942, 99.08070
1540.870, 99.03065
1542.799, 98.90186
1544.727, 98.89463
1546.656, 98.88121
1548.584, 98.75327
1550.513, 98.67787
1552.441, 98.65483
1554.370, 98.62643
1556.298, 98.44046
1558.227, 98.32444
1560.155, 98.44862
1562.084, 98.26569
1564.012, 98.15861
1565.941, 98.04577
1567.869, 97.85093
1569.798, 97.85659
1571.726, 97.73946
1573.655, 97.57147
1575.583, 97.74332
1577.512, 97.71255
1579.440, 97.34400
1581.369, 97.09485
1583.297, 96.98804
1585.226, 96.88426
1587.154, 96.65366
1589.083, 96.35865
1591.011, 96.11299
1592.940, 95.98239
1594.868, 95.87871
1596.797, 95.77764
1598.725, 95.50972
1600.654, 95.20079
1602.582, 94.94791
1604.511, 94.68064
1606.439, 94.36517
1608.368, 94.15062
1610.296, 93.97200
1612.225, 93.81075
1614.153, 93.68124
1616.082, 93.72512
1618.010, 93.83887
1619.939, 93.67881
1621.867, 93.50533
1623.796, 93.41150
1625.724, 93.37405
1627.653, 93.30057
1629.581, 93.21462
1631.510, 93.12888
1633.438, 93.06326
1635.367, 93.21808
1637.295, 93.37434
1639.224, 93.28884
1641.152, 93.27220
1643.081, 93.20339
1645.009, 93.19095
1646.938, 93.31418
1648.866, 93.40263
1650.795, 93.40080
1652.723, 93.60078
1654.652, 93.84253
1656.580, 93.81934
1658.509, 93.95467
1660.437, 94.12116
1662.366, 94.35412
1664.294, 94.60336
1666.223, 94.72059
1668.151, 94.89021
1670.080, 95.16592
1672.008, 95.40322
1673.937, 95.47375
1675.865, 95.68930
1677.794, 95.89031
1679.722, 96.03795
1681.651, 96.10517
1683.579, 96.35177
1685.508, 96.88080
1687.436, 96.89539
1689.365, 97.05124
1691.293, 97.27260
1693.222, 97.39629
1695.150, 97.78730
1697.079, 98.13630
1699.007, 98.12245
1700.936, 98.43568
1702.864, 98.44695
1704.793, 98.51502
1706.721, 98.67499
1708.650, 98.82598
1710.578, 98.95255
1712.507, 99.02351
1714.435, 99.07131
1716.364, 99.31561
1718.292, 99.62967
1720.221, 99.64030
1722.149, 99.55122
1724.078, 99.59075
1726.006, 99.64229
1727.935, 99.70884
1729.863, 99.69025
1731.792, 99.60764
1733.720, 99.74101
1735.649, 99.95425
1737.577, 99.82365
1739.506, 99.77981
1741.434, 99.83290
1743.363, 99.84814
1745.291, 99.86372
1747.220, 99.82233
1749.148, 99.76933
1751.077, 99.82940
1753.005, 99.91319
1754.934, 99.87688
1756.862, 99.93575
1758.791, 99.97062
1760.719, 99.95400
1762.648, 100.0894
1764.576, 100.1085
1766.505, 100.0534
1768.433, 99.99830
1770.362, 99.94638
1772.290, 99.97227
1774.219, 100.0875
1776.147, 100.1037
1778.076, 100.1751
1780.004, 100.1937
1781.932, 100.2164
1783.861, 100.1300
1785.790, 100.1436
1787.718, 100.1649
1789.646, 100.0790
1791.575, 100.0770
1793.504, 100.1675
1795.432, 100.1035
1797.360, 100.0713
1799.289, 100.0030
1801.218, 99.88721
1803.146, 99.93512
1805.075, 99.92385
1807.003, 99.95536
1808.932, 99.98349
1810.860, 99.93988
1812.789, 99.91727
1814.717, 100.0124
1816.646, 99.99486
1818.574, 99.88036
1820.503, 99.94456
1822.431, 100.0417
1824.359, 99.99213
1826.288, 99.91219
1828.217, 99.94835
1830.145, 99.89130
1832.073, 99.89412
1834.002, 99.98710
1835.931, 100.0268
1837.859, 99.99686
1839.787, 99.94815
1841.716, 99.78514
1843.645, 99.78386
1845.573, 99.92844
1847.501, 99.93671
1849.430, 99.98099
1851.359, 99.99699
1853.287, 100.0276
1855.215, 99.92101
1857.144, 99.85700
1859.073, 99.94567
1861.001, 100.0578
1862.929, 100.0473
1864.858, 99.96463
1866.786, 99.99020
1868.715, 100.0734
1870.643, 100.0356
1872.572, 100.0090
1874.500, 99.97305
1876.429, 99.88626
1878.357, 99.92641
1880.286, 99.96276
1882.214, 99.81163
1884.143, 99.80141
1886.071, 99.90527
1888.000, 99.91805
1889.928, 100.0775
1891.857, 100.0629
1893.785, 99.91439
1895.714, 99.82978
1897.642, 99.83083
1899.571, 99.85934
1901.499, 99.89179
1903.428, 99.92418
1905.356, 99.96561
1907.285, 99.88251
1909.213, 99.80730
1911.142, 99.75253
1913.070, 99.75739
1914.999, 99.82552
1916.927, 99.79602
1918.856, 99.78085
1920.784, 99.79602
1922.713, 99.80224
1924.641, 99.78298
1926.570, 99.85986
1928.498, 100.0146
1930.427, 100.1137
1932.355, 100.0328
1934.284, 99.98509
1936.212, 99.98308
1938.141, 99.98650
1940.069, 100.0889
1941.998, 99.97449
1943.926, 99.99022
1945.855, 100.0293
1947.783, 100.0575
1949.712, 99.99508
1951.640, 100.1350
1953.569, 100.1170
1955.497, 100.1615
1957.426, 100.2000
1959.354, 100.1747
1961.283, 100.1938
1963.211, 100.1794
1965.140, 100.1925
1967.068, 100.1498
1968.997, 100.1259
1970.925, 99.98621
1972.854, 99.95539
1974.782, 99.92867
1976.711, 100.0329
1978.639, 100.2127
1980.568, 100.3664
1982.496, 100.2980
1984.425, 100.0632
1986.353, 100.0345
1988.282, 100.0501
1990.210, 100.1876
1992.139, 100.2771
1994.067, 100.1713
1995.996, 100.2290
1997.924, 100.1569
1999.853, 99.95572
2001.781, 99.97229
2003.710, 99.86045
2005.638, 99.92487
2007.567, 99.98020
2009.495, 100.3027
2011.424, 100.4241
2013.352, 100.4042
2015.281, 100.3663
2017.209, 100.1691
2019.138, 100.2490
2021.066, 100.3159
2022.995, 100.3562
2024.923, 100.3479
2026.852, 99.90891
2028.780, 99.94579
2030.709, 100.4294
2032.637, 100.3071
2034.566, 100.2514
2036.494, 99.92811
2038.423, 99.79809
2040.351, 100.1769
2042.280, 100.5974
2044.208, 100.6251
2046.137, 100.3987
2048.065, 100.2736
2049.994, 100.2231
2051.922, 100.0563
2053.851, 100.2239
2055.779, 100.2503
2057.708, 100.2616
2059.636, 100.2592
2061.565, 100.2745
2063.493, 100.3208
2065.422, 100.3732
2067.350, 100.4718
2069.279, 100.2786
2071.207, 100.0434
2073.136, 100.0155
2075.064, 100.1335
2076.993, 100.1564
2078.921, 100.0822
2080.850, 99.98427
2082.778, 99.92551
2084.707, 99.90899
2086.635, 99.88432
2088.564, 99.90089
2090.492, 99.99680
2092.421, 99.94501
2094.349, 99.73236
2096.278, 99.71097
2098.206, 99.78493
2100.135, 99.90797
2102.063, 99.95901
2103.992, 99.84650
2105.920, 99.78557
2107.849, 99.69149
2109.777, 99.63383
2111.706, 99.63290
2113.634, 99.61954
2115.563, 99.66544
2117.491, 99.61800
2119.420, 99.50496
2121.348, 99.48415
2123.277, 99.49390
2125.205, 99.44127
2127.134, 99.32304
2129.062, 99.39423
2130.991, 99.47947
2132.919, 99.38777
2134.848, 99.31617
2136.776, 99.25437
2138.705, 99.26685
2140.633, 99.34431
2142.562, 99.28184
2144.490, 99.28228
2146.419, 99.55588
2148.347, 99.49592
2150.276, 99.23711
2152.204, 99.56947
2154.133, 99.89868
2156.061, 99.67527
2157.990, 99.63455
2159.918, 99.89561
2161.847, 99.94376
2163.775, 99.71459
2165.704, 99.90841
2167.632, 100.0771
2169.561, 99.96049
2171.489, 100.0188
2173.418, 100.0357
2175.346, 99.91329
2177.275, 99.76244
2179.203, 99.89968
2181.132, 100.0605
2183.060, 100.0594
2184.989, 100.0887
2186.917, 100.1839
2188.846, 100.2603
2190.774, 100.3165
2192.703, 100.1827
2194.631, 100.0166
2196.560, 99.93378
2198.488, 99.79146
2200.417, 99.85971
2202.345, 100.0412
2204.274, 100.1090
2206.202, 100.2417
2208.131, 100.1564
2210.059, 100.0275
2211.988, 100.0313
2213.916, 100.0162
2215.845, 100.0819
2217.773, 100.1693
2219.702, 100.1337
2221.630, 100.0109
2223.559, 100.0571
2225.487, 100.1194
2227.416, 100.0487
2229.344, 100.0385
2231.273, 99.98312
2233.201, 99.98404
2235.130, 100.1448
2237.058, 100.0726
2238.987, 99.90489
2240.915, 99.90988
2242.844, 100.0125
2244.772, 100.0985
2246.701, 99.89514
2248.629, 99.76052
2250.558, 99.99451
2252.486, 100.1842
2254.415, 100.1570
2256.343, 100.0526
2258.272, 99.99366
2260.200, 100.0159
2262.129, 100.0029
2264.057, 99.97404
2265.986, 99.82767
2267.914, 99.86049
2269.843, 100.0002
2271.771, 99.98947
2273.700, 100.0113
2275.628, 99.99983
2277.557, 100.0438
2279.485, 100.0576
2281.414, 100.0136
2283.342, 99.96107
2285.271, 99.92082
2287.199, 99.84122
2289.128, 99.89378
2291.056, 99.91981
2292.985, 99.96925
2294.913, 99.93456
2296.842, 99.90597
2298.770, 99.90758
2300.699, 99.87535
2302.627, 99.83270
2304.556, 99.90325
2306.484, 100.0218
2308.413, 100.0811
2310.341, 99.99605
2312.270, 99.84281
2314.198, 99.89200
2316.127, 99.98727
2318.055, 100.0117
2319.984, 100.0418
2321.912, 100.0875
2323.841, 100.0786
2325.769, 99.99833
2327.698, 99.91035
2329.626, 99.90515
2331.555, 99.92871
2333.483, 99.98399
2335.412, 100.0469
2337.340, 99.99585
2339.269, 99.95195
2341.197, 99.93972
2343.125, 99.92538
2345.054, 99.88243
2346.983, 99.73756
2348.911, 99.74937
2350.840, 99.82803
2352.768, 99.81422
2354.697, 99.85564
2356.625, 99.97016
2358.553, 99.94578
2360.482, 99.82685
2362.411, 99.82590
2364.339, 99.93839
2366.268, 99.82990
2368.196, 99.70451
2370.125, 99.77135
2372.053, 99.79184
2373.981, 99.73136
2375.910, 99.59354
2377.839, 99.56315
2379.767, 99.59711
2381.696, 99.60146
2383.624, 99.56719
2385.552, 99.56186
2387.481, 99.48287
2389.409, 99.41606
2391.338, 99.40913
2393.267, 99.37402
2395.195, 99.37379
2397.124, 99.36784
2399.052, 99.42545
2400.980, 99.38374
2402.909, 99.39719
2404.837, 99.43684
2406.766, 99.36131
2408.695, 99.46181
2410.623, 99.48590
2412.552, 99.43449
2414.480, 99.49273
2416.408, 99.58018
2418.337, 99.60402
2420.266, 99.53397
2422.194, 99.38952
2424.123, 99.38251
2426.051, 99.35504
2427.979, 99.39606
2429.908, 99.51149
2431.836, 99.42833
2433.765, 99.37192
2435.694, 99.32296
2437.622, 99.37423
2439.551, 99.39803
2441.479, 99.37907
2443.407, 99.42931
2445.336, 99.46304
2447.264, 99.46504
2449.193, 99.35472
2451.122, 99.17799
2453.050, 99.27093
2454.979, 99.43591
2456.907, 99.40005
2458.835, 99.32182
2460.764, 99.44190
2462.692, 99.53602
2464.621, 99.48760
2466.550, 99.51748
2468.478, 99.56002
2470.406, 99.52444
2472.335, 99.56183
2474.263, 99.55096
2476.192, 99.56723
2478.120, 99.52497
2480.049, 99.47575
2481.978, 99.54513
2483.906, 99.54514
2485.834, 99.48291
2487.763, 99.46059
2489.691, 99.47943
2491.620, 99.42520
2493.548, 99.48023
2495.477, 99.53538
2497.406, 99.56872
2499.334, 99.54118
2501.262, 99.51990
2503.191, 99.60885
2505.119, 99.72694
2507.048, 99.70907
2508.976, 99.61409
2510.905, 99.63521
2512.833, 99.73392
2514.762, 99.79611
2516.690, 99.80116
2518.619, 99.74263
2520.547, 99.81120
2522.476, 99.83427
2524.405, 99.80666
2526.333, 99.73553
2528.261, 99.58900
2530.190, 99.52067
2532.118, 99.58867
2534.047, 99.75372
2535.975, 99.86151
2537.904, 99.80289
2539.833, 99.71307
2541.761, 99.61772
2543.689, 99.67191
2545.618, 99.85550
2547.546, 99.92026
2549.475, 99.82771
2551.403, 99.75627
2553.332, 99.91961
2555.260, 99.96632
2557.189, 99.85637
2559.117, 99.85537
2561.046, 99.86291
2562.974, 99.97311
2564.903, 100.0283
2566.831, 100.0036
2568.760, 100.0252
2570.688, 100.0292
2572.617, 100.0311
2574.545, 100.0024
2576.474, 99.98643
2578.402, 100.0318
2580.331, 100.0104
2582.259, 99.91983
2584.188, 99.82728
2586.116, 99.91054
2588.045, 100.0203
2589.973, 99.99101
2591.902, 99.96510
2593.830, 100.0860
2595.759, 100.1471
2597.687, 100.1415
2599.616, 100.1501
2601.544, 100.0980
2603.473, 100.0721
2605.401, 100.0988
2607.330, 100.1353
2609.258, 100.0846
2611.187, 100.0315
2613.115, 100.0358
2615.044, 100.0522
2616.972, 99.97725
2618.901, 100.0186
2620.829, 100.2062
2622.758, 100.2733
2624.686, 100.1749
2626.615, 100.1158
2628.543, 100.0496
2630.472, 100.0908
2632.400, 100.1822
2634.329, 100.1180
2636.257, 100.1205
2638.186, 100.1826
2640.114, 100.1585
2642.043, 100.1038
2643.971, 100.1337
2645.900, 100.1807
2647.828, 100.1404
2649.757, 100.0848
2651.685, 100.1251
2653.614, 100.1176
2655.542, 100.1288
2657.471, 100.1486
2659.399, 100.1642
2661.328, 100.1576
2663.256, 100.0911
2665.185, 100.1045
2667.113, 100.1698
2669.042, 100.1799
2670.970, 100.1913
2672.899, 100.2616
2674.827, 100.2685
2676.756, 100.2398
2678.684, 100.2872
2680.613, 100.3008
2682.541, 100.1831
2684.470, 100.0833
2686.398, 100.0725
2688.327, 100.1604
2690.255, 100.1879
2692.184, 100.1553
2694.112, 100.2287
2696.041, 100.3100
2697.969, 100.2821
2699.898, 100.2638
2701.826, 100.2578
2703.755, 100.3481
2705.683, 100.3015
2707.612, 100.1704
2709.540, 100.1833
2711.469, 100.2776
2713.397, 100.3656
2715.326, 100.3924
2717.254, 100.2975
2719.183, 100.2039
2721.111, 100.2262
2723.040, 100.2240
2724.968, 100.1891
2726.897, 100.1948
2728.825, 100.2548
2730.754, 100.2710
2732.682, 100.1676
2734.611, 100.1042
2736.539, 100.2108
2738.468, 100.2560
2740.396, 100.2385
2742.325, 100.1887
2744.253, 100.1695
2746.182, 100.1038
2748.110, 100.0383
2750.039, 100.1722
2751.967, 100.2811
2753.896, 100.1565
2755.824, 100.0638
2757.753, 100.0295
2759.681, 100.1087
2761.610, 100.2275
2763.538, 100.1875
2765.467, 100.1469
2767.395, 100.1550
2769.324, 100.1342
2771.252, 100.1324
2773.181, 100.1343
2775.109, 100.1508
2777.038, 100.2161
2778.966, 100.1960
2780.895, 100.0532
2782.823, 100.0195
2784.752, 100.1294
2786.680, 100.1655
2788.609, 100.1151
2790.537, 99.97974
2792.466, 99.90305
2794.394, 99.98923
2796.323, 100.0529
2798.251, 99.94405
2800.180, 99.76084
2802.108, 99.65794
2804.037, 99.62639
2805.965, 99.55430
2807.894, 99.53214
2809.822, 99.41965
2811.751, 99.33294
2813.679, 99.33612
2815.608, 99.22414
2817.536, 99.08156
2819.465, 99.01128
2821.393, 98.89243
2823.322, 98.85103
2825.250, 98.85562
2827.179, 98.74883
2829.107, 98.55838
2831.036, 98.49933
2832.964, 98.50227
2834.893, 98.42603
2836.821, 98.30254
2838.750, 98.18121
2840.678, 98.12147
2842.607, 98.03888
2844.535, 97.93568
2846.464, 97.81501
2848.392, 97.69012
2850.321, 97.58981
2852.249, 97.52323
2854.178, 97.34513
2856.106, 97.27947
2858.035, 97.22680
2859.963, 97.18340
2861.892, 97.17218
2863.820, 97.03345
2865.749, 96.96232
2867.677, 96.90192
2869.606, 96.67918
2871.534, 96.61977
2873.463, 96.52288
2875.391, 96.38524
2877.320, 96.39819
2879.248, 96.36581
2881.177, 96.20982
2883.105, 96.03484
2885.034, 95.94583
2886.962, 95.84829
2888.891, 95.69650
2890.819, 95.63565
2892.748, 95.56136
2894.676, 95.45148
2896.604, 95.32719
2898.533, 95.13457
2900.462, 95.08123
2902.390, 95.04820
2904.319, 94.91888
2906.247, 94.74709
2908.176, 94.53137
2910.104, 94.42248
2912.033, 94.27544
2913.961, 94.10965
2915.890, 94.00849
2917.818, 93.84528
2919.747, 93.67805
2921.675, 93.54442
2923.604, 93.43044
2925.532, 93.33006
2927.461, 93.21346
2929.389, 93.10728
2931.318, 92.99891
2933.246, 92.88549
2935.175, 92.78232
2937.103, 92.60957
2939.031, 92.40421
2940.960, 92.23591
2942.889, 92.04573
2944.817, 91.93845
2946.746, 91.79919
2948.674, 91.61765
2950.603, 91.51758
2952.531, 91.39270
2954.459, 91.28146
2956.388, 91.20732
2958.317, 91.07185
2960.245, 90.92308
2962.174, 90.74474
2964.102, 90.49303
2966.031, 90.26484
2967.959, 90.11861
2969.887, 90.07374
2971.816, 89.95348
2973.745, 89.75700
2975.673, 89.60773
2977.602, 89.50628
2979.530, 89.27062
2981.458, 89.06779
2983.387, 88.91031
2985.315, 88.76648
2987.244, 88.59358
2989.173, 88.35226
2991.101, 88.16158
2993.030, 88.02925
2994.958, 87.87378
2996.886, 87.76806
2998.815, 87.60472
3000.743, 87.34358
3002.672, 87.05577
3004.601, 86.85242
3006.529, 86.71343
3008.458, 86.55287
3010.386, 86.29794
3012.314, 86.02726
3014.243, 85.89090
3016.172, 85.80551
3018.100, 85.69275
3020.029, 85.42265
3021.957, 85.11520
3023.885, 84.86959
3025.814, 84.68250
3027.742, 84.53585
3029.671, 84.34973
3031.600, 84.11346
3033.528, 83.79523
3035.457, 83.49633
3037.385, 83.24862
3039.313, 83.03059
3041.242, 82.92165
3043.170, 82.78537
3045.099, 82.49245
3047.028, 82.11919
3048.956, 81.84241
3050.885, 81.65160
3052.813, 81.52288
3054.741, 81.17488
3056.670, 80.88833
3058.598, 80.72130
3060.527, 80.48598
3062.456, 80.13444
3064.384, 79.78053
3066.313, 79.50043
3068.241, 79.27962
3070.169, 79.01603
3072.098, 78.75834
3074.026, 78.43137
3075.955, 78.15287
3077.884, 77.94896
3079.812, 77.65931
3081.740, 77.38609
3083.669, 77.07632
3085.597, 76.72289
3087.526, 76.47818
3089.454, 76.25366
3091.383, 75.98251
3093.312, 75.64458
3095.240, 75.35980
3097.168, 75.24149
3099.097, 75.02185
3101.025, 74.68971
3102.954, 74.42148
3104.882, 74.24576
3106.811, 74.00866
3108.740, 73.71964
3110.668, 73.47892
3112.596, 73.26148
3114.525, 72.99212
3116.453, 72.61954
3118.382, 72.36754
3120.311, 72.20256
3122.239, 72.07226
3124.167, 71.92887
3126.096, 71.70060
3128.024, 71.54458
3129.953, 71.37888
3131.881, 71.13324
3133.810, 70.95236
3135.739, 70.72958
3137.667, 70.49721
3139.595, 70.33788
3141.524, 70.25700
3143.452, 70.15885
3145.381, 70.00301
3147.309, 69.89416
3149.238, 69.71767
3151.167, 69.51585
3153.095, 69.37773
3155.023, 69.35752
3156.952, 69.41613
3158.880, 69.32518
3160.809, 69.08685
3162.737, 68.89189
3164.666, 68.73273
3166.594, 68.53837
3168.523, 68.46996
3170.451, 68.47752
3172.380, 68.33997
3174.308, 68.11262
3176.237, 67.93387
3178.165, 67.89697
3180.094, 67.88597
3182.022, 67.64882
3183.951, 67.27436
3185.879, 67.05084
3187.808, 66.86098
3189.736, 66.72324
3191.665, 66.54881
3193.593, 66.44164
3195.522, 66.31786
3197.450, 66.02161
3199.379, 65.82514
3201.307, 65.64622
3203.236, 65.39909
3205.164, 65.28099
3207.093, 65.17305
3209.021, 64.91843
3210.950, 64.71108
3212.878, 64.62710
3214.807, 64.47238
3216.735, 64.27515
3218.664, 64.15798
3220.592, 64.02853
3222.521, 63.92387
3224.449, 63.84216
3226.378, 63.72483
3228.306, 63.58273
3230.235, 63.36937
3232.163, 63.30167
3234.092, 63.26981
3236.020, 63.15171
3237.949, 63.12752
3239.877, 63.15279
3241.806, 63.13354
3243.734, 63.14347
3245.663, 63.14958
3247.591, 63.18588
3249.520, 63.18233
3251.448, 63.05958
3253.377, 63.01970
3255.305, 63.22249
3257.234, 63.44301
3259.162, 63.38902
3261.091, 63.39223
3263.019, 63.43831
3264.948, 63.50705
3266.876, 63.65637
3268.805, 63.81200
3270.733, 63.98120
3272.662, 64.08153
3274.590, 64.16621
3276.519, 64.25102
3278.447, 64.39070
3280.376, 64.52113
3282.304, 64.64378
3284.233, 64.77312
3286.161, 64.86217
3288.090, 65.01475
3290.018, 65.17535
3291.947, 65.35146
3293.875, 65.55363
3295.804, 65.65768
3297.732, 65.77496
3299.661, 65.94965
3301.589, 66.12841
3303.518, 66.21769
3305.446, 66.27844
3307.375, 66.37200
3309.303, 66.57076
3311.232, 66.69398
3313.160, 66.84178
3315.089, 66.95724
3317.017, 67.09515
3318.946, 67.20229
3320.874, 67.23741
3322.803, 67.36227
3324.731, 67.54171
3326.660, 67.55271
3328.588, 67.62355
3330.517, 67.73565
3332.445, 67.78186
3334.374, 67.93983
3336.302, 68.03240
3338.231, 67.94598
3340.159, 68.00459
3342.088, 68.10610
3344.016, 68.11296
3345.945, 68.14897
3347.873, 68.06828
3349.802, 67.92115
3351.730, 67.96067
3353.659, 68.02069
3355.587, 67.93565
3357.516, 67.88876
3359.444, 67.88440
3361.373, 67.76348
3363.301, 67.64752
3365.230, 67.64828
3367.158, 67.62943
3369.087, 67.45389
3371.015, 67.29921
3372.944, 67.21112
3374.872, 67.11324
3376.801, 67.02027
3378.729, 66.94473
3380.658, 66.94955
3382.586, 66.96696
3384.515, 66.92271
3386.443, 66.95358
3388.372, 66.89480
3390.300, 66.82671
3392.229, 66.83508
3394.157, 66.88466
3396.086, 66.87312
3398.014, 66.92304
3399.943, 67.03242
3401.871, 67.05562
3403.800, 67.10838
3405.728, 67.23757
3407.657, 67.32008
3409.585, 67.50661
3411.514, 67.69072
3413.442, 67.79015
3415.371, 67.98661
3417.299, 68.20354
3419.228, 68.38430
3421.156, 68.67062
3423.085, 68.97922
3425.013, 69.20169
3426.942, 69.42056
3428.870, 69.58611
3430.799, 69.86830
3432.727, 70.16118
3434.656, 70.43536
3436.584, 70.78827
3438.513, 71.09396
3440.441, 71.43074
3442.370, 71.80933
3444.298, 71.99989
3446.227, 72.21729
3448.155, 72.57595
3450.084, 72.81587
3452.012, 73.12608
3453.941, 73.45576
3455.869, 73.78049
3457.798, 74.08823
3459.726, 74.48331
3461.655, 74.83136
3463.583, 75.00040
3465.512, 75.29963
3467.440, 75.70170
3469.369, 75.90848
3471.297, 76.04600
3473.226, 76.22774
3475.154, 76.47848
3477.083, 76.80168
3479.011, 77.08767
3480.940, 77.37518
3482.868, 77.63570
3484.797, 77.83400
3486.725, 78.04451
3488.654, 78.29890
3490.582, 78.74060
3492.510, 79.01801
3494.439, 79.14314
3496.368, 79.31313
3498.296, 79.48080
3500.225, 79.71789
3502.153, 80.06826
3504.082, 80.37871
3506.010, 80.54741
3507.939, 80.72303
3509.867, 80.93099
3511.796, 81.18708
3513.724, 81.35097
3515.653, 81.53741
3517.581, 81.72368
3519.510, 81.86230
3521.438, 82.25098
3523.367, 82.54267
3525.295, 82.75215
3527.224, 82.93846
3529.152, 83.15792
3531.081, 83.38786
3533.009, 83.61549
3534.938, 83.87337
3536.866, 84.18426
3538.795, 84.31834
3540.723, 84.46974
3542.652, 84.75684
3544.580, 85.02412
3546.509, 85.16222
3548.437, 85.35167
3550.365, 85.65233
3552.294, 85.92963
3554.223, 85.98907
3556.151, 86.06921
3558.080, 86.22958
3560.008, 86.27121
3561.937, 86.13573
3563.865, 85.91769
3565.793, 85.60969
3567.722, 85.24541
3569.651, 84.86454
3571.579, 84.37981
3573.508, 83.82690
3575.436, 83.24150
3577.365, 82.72475
3579.293, 82.50578
3581.221, 82.53363
3583.150, 82.82826
3585.079, 83.48363
3587.007, 84.52546
3588.936, 85.63255
3590.864, 86.56998
3592.792, 87.43130
3594.721, 88.04246
3596.649, 88.54121
3598.578, 88.95026
3600.507, 89.16780
3602.435, 89.19429
3604.364, 89.04765
3606.292, 89.16650
3608.220, 89.33422
3610.149, 89.47731
3612.078, 89.86561
3614.006, 90.74415
3615.935, 91.50956
3617.863, 92.16203
3619.792, 92.96786
3621.720, 93.60484
3623.648, 93.94372
3625.577, 94.19224
3627.506, 94.30142
3629.434, 94.74715
3631.363, 95.00277
3633.291, 95.29704
3635.219, 95.88429
3637.148, 96.41576
3639.076, 96.63293
3641.005, 96.84438
3642.934, 97.28924
3644.862, 97.44318
3646.791, 97.43390
3648.719, 97.59785
3650.647, 98.16753
3652.576, 98.52372
3654.504, 98.40531
3656.433, 98.76691
3658.362, 98.90078
3660.290, 98.67919
3662.219, 98.66164
3664.147, 98.96072
3666.075, 99.10989
3668.004, 99.01005
3669.932, 99.31538
3671.861, 99.53587
3673.790, 99.09370
3675.718, 99.32381
3677.646, 99.49822
3679.575, 99.44993
3681.503, 99.43697
3683.432, 99.59183
3685.360, 99.55343
3687.289, 99.49877
3689.218, 99.76509
3691.146, 99.82115
3693.074, 99.90339
3695.003, 99.73028
3696.931, 99.64024
3698.860, 99.71410
3700.788, 99.94901
3702.717, 99.99052
3704.646, 99.95962
3706.574, 99.97982
3708.502, 99.80213
3710.431, 99.75591
3712.359, 100.0779
3714.288, 100.1507
3716.216, 100.1956
3718.145, 100.2544
3720.073, 100.1285
3722.002, 100.0682
3723.930, 100.1447
3725.859, 100.2088
3727.787, 100.3289
3729.716, 100.3820
3731.645, 100.4691
3733.573, 100.2300
3735.501, 100.2755
3737.430, 100.5930
3739.358, 100.4877
3741.287, 100.2099
3743.215, 100.2546
3745.144, 100.7016
3747.073, 100.2193
3749.001, 100.2269
3750.929, 100.5029
3752.858, 100.6282
3754.786, 100.2324
3756.715, 100.1527
3758.643, 100.1657
3760.572, 100.1349
3762.500, 100.0990
3764.429, 100.0553
3766.357, 100.0124
3768.286, 100.0768
3770.214, 100.2394
3772.143, 100.3632
3774.071, 100.4052
3776.000, 100.2988
3777.928, 100.0644
3779.857, 100.1208
3781.785, 100.2017
3783.714, 100.2233
3785.642, 100.1734
3787.571, 99.99564
3789.499, 99.85183
3791.428, 99.75053
3793.356, 99.74494
3795.285, 99.91300
3797.213, 100.0155
3799.142, 99.91596
3801.070, 100.2009
3802.999, 100.3712
3804.927, 100.1640
3806.856, 100.2577
3808.784, 100.3559
3810.713, 100.3494
3812.641, 100.2275
3814.570, 100.2480
3816.498, 100.5932
3818.427, 100.2175
3820.355, 100.1387
3822.284, 100.4404
3824.212, 100.1673
3826.141, 100.2704
3828.069, 100.3421
3829.998, 100.3112
3831.926, 100.3595
3833.855, 100.2178
3835.783, 100.1285
3837.712, 100.3033
3839.640, 100.2830
3841.569, 100.1325
3843.497, 100.1716
3845.426, 100.3951
3847.354, 100.3668
3849.283, 100.2030
3851.211, 100.1280
3853.140, 100.7027
3855.068, 100.8799
3856.997, 100.3932
3858.925, 100.3079
3860.854, 100.3374
3862.782, 100.3728
3864.711, 100.3912
3866.639, 100.2441
3868.568, 100.1877
3870.496, 100.5633
3872.425, 100.3201
3874.353, 100.3184
3876.282, 100.4153
3878.210, 100.3037
3880.139, 100.5362
3882.067, 100.5666
3883.996, 100.2525
3885.924, 100.3490
3887.853, 100.3320
3889.781, 100.2893
3891.710, 100.4975
3893.638, 100.4465
3895.567, 100.3344
3897.495, 100.3284
3899.424, 100.4097
3901.352, 100.3726
3903.281, 100.4070
3905.209, 100.5436
3907.138, 100.3413
3909.066, 100.2101
3910.995, 100.2117
3912.923, 100.2888
3914.852, 100.3690
3916.780, 100.3546
3918.709, 100.3809
3920.637, 100.3415
3922.566, 100.2794
3924.494, 100.3038
3926.423, 100.3930
3928.351, 100.3044
3930.280, 100.2444
3932.208, 100.1803
3934.137, 100.1704
3936.065, 100.2845
3937.994, 100.2090
3939.922, 100.1458
3941.851, 100.2583
3943.779, 100.3242
3945.708, 100.2539
3947.636, 100.1305
3949.565, 100.1238
3951.493, 100.2460
3953.422, 100.2920
3955.350, 100.2694
3957.279, 100.2500
3959.207, 99.99066
3961.136, 99.88271
3963.064, 99.93713
3964.993, 99.98762
3966.921, 100.0678
3968.850, 100.1304
3970.778, 100.1756
3972.707, 100.1535
3974.635, 100.1730
3976.564, 100.0270
3978.492, 99.90622
3980.421, 99.94326
3982.349, 99.91380
3984.278, 100.0304
3986.206, 99.97185
3988.135, 99.93516
3990.063, 99.98232
3991.992, 99.99915
##END=



