##NAMES=Zinnwaldite
##RRUFFID=R040138
##IDEAL CHEMISTRY=K(Al,Fe,Li)_3_(Si,Al)_4_O_10_(OH)F
##LOCALITY=TÃ¸rdal, Telemark, Norway
##OWNER=RRUFF
##SOURCE=University of Arizona Mineral Museum
##DESCRIPTION=Dark green mica book, polytype 1M
##STATUS=The identification of this mineral has been confirmed by X-ray diffraction and chemical analysis
##URL=rruff.info/R040138
##MEASURED CHEMISTRY=(K_0.96_Na_0.04_)(Al_0.35_Fe^2+^_0.29_Li_0.27_Mg_0.04_Mn_0.03_Ti_0.02_)_3_(Si_0.66_Al_0.34_)_4_O_10_((OH)_0.64_F_0.36_)_2_
399.1926, 0.317918
401.1211, 0.309533
403.0496, 0.311021
404.9780, 0.322221
406.9065, 0.330664
408.8350, 0.330583
410.7634, 0.332048
412.6919, 0.334375
414.6204, 0.334040
416.5488, 0.336217
418.4773, 0.342422
420.4058, 0.344422
422.3342, 0.344885
424.2627, 0.345586
426.1912, 0.347857
428.1196, 0.349294
430.0481, 0.350067
431.9766, 0.351355
433.9050, 0.350882
435.8335, 0.349590
437.7620, 0.349930
439.6904, 0.349774
441.6189, 0.346697
443.5474, 0.340050
445.4758, 0.334088
447.4043, 0.330169
449.3328, 0.323535
451.2612, 0.317350
453.1897, 0.310668
455.1182, 0.301842
457.0466, 0.292299
458.9751, 0.282845
460.9036, 0.272120
462.8320, 0.261362
464.7605, 0.249898
466.6890, 0.238207
468.6174, 0.226528
470.5459, 0.215776
472.4744, 0.206132
474.4028, 0.197157
476.3313, 0.190207
478.2598, 0.185817
480.1882, 0.183750
482.1167, 0.184338
484.0452, 0.185776
485.9736, 0.186542
487.9021, 0.186050
489.8306, 0.183981
491.7590, 0.181156
493.6875, 0.177525
495.6160, 0.173885
497.5444, 0.169533
499.4729, 0.165313
501.4014, 0.161725
503.3298, 0.159351
505.2583, 0.158460
507.1868, 0.159599
509.1152, 0.162125
511.0437, 0.165457
512.9722, 0.169494
514.9006, 0.174233
516.8291, 0.179586
518.7576, 0.185227
520.6860, 0.190786
522.6145, 0.196204
524.5430, 0.201219
526.4714, 0.207338
528.3999, 0.214313
530.3284, 0.220808
532.2568, 0.227577
534.1853, 0.234814
536.1138, 0.241787
538.0422, 0.248963
539.9707, 0.256921
541.8992, 0.264543
543.8276, 0.271840
545.7561, 0.279338
547.6846, 0.287107
549.6130, 0.294809
551.5415, 0.301510
553.4700, 0.307879
555.3984, 0.314233
557.3269, 0.319659
559.2554, 0.324394
561.1838, 0.328570
563.1123, 0.331734
565.0408, 0.334413
566.9692, 0.337865
568.8977, 0.340344
570.8262, 0.341784
572.7546, 0.343495
574.6831, 0.345341
576.6116, 0.346733
578.5400, 0.347195
580.4685, 0.347862
582.3970, 0.348527
584.3254, 0.348508
586.2539, 0.347857
588.1824, 0.347523
590.1108, 0.346568
592.0393, 0.344792
593.9678, 0.342674
595.8962, 0.341004
597.8247, 0.339357
599.7532, 0.337141
601.6816, 0.334628
603.6101, 0.331729
605.5386, 0.328345
607.4670, 0.324841
609.3955, 0.321010
611.3240, 0.316258
613.2524, 0.310891
615.1809, 0.305526
617.1094, 0.300224
619.0378, 0.295020
620.9663, 0.289853
622.8948, 0.285047
624.8232, 0.281663
626.7517, 0.280923
628.6802, 0.282857
630.6086, 0.287209
632.5371, 0.293160
634.4656, 0.298043
636.3940, 0.300428
638.3225, 0.300194
640.2510, 0.298360
642.1794, 0.295966
644.1079, 0.292581
646.0364, 0.288204
647.9648, 0.284489
649.8933, 0.280893
651.8218, 0.276524
653.7502, 0.272435
655.6787, 0.268826
657.6072, 0.265078
659.5356, 0.261258
661.4641, 0.257730
663.3926, 0.254123
665.3210, 0.250748
667.2495, 0.247736
669.1780, 0.244459
671.1064, 0.240938
673.0349, 0.237633
674.9634, 0.234828
676.8918, 0.231830
678.8203, 0.228918
680.7488, 0.226547
682.6772, 0.223928
684.6057, 0.220797
686.5342, 0.217797
688.4626, 0.215477
690.3911, 0.213386
692.3196, 0.211242
694.2480, 0.208964
696.1765, 0.206490
698.1050, 0.204281
700.0334, 0.202322
701.9619, 0.200286
703.8904, 0.198170
705.8188, 0.196146
707.7473, 0.194191
709.6758, 0.192218
711.6042, 0.190059
713.5327, 0.187917
715.4612, 0.185386
717.3896, 0.182897
719.3181, 0.180952
721.2466, 0.178942
723.1750, 0.176970
725.1035, 0.174907
727.0320, 0.172632
728.9604, 0.170695
730.8889, 0.168892
732.8174, 0.166910
734.7458, 0.164991
736.6743, 0.163216
738.6028, 0.161593
740.5313, 0.159920
742.4597, 0.158038
744.3882, 0.156440
746.3167, 0.154898
748.2451, 0.153161
750.1736, 0.151431
752.1021, 0.150005
754.0305, 0.148910
755.9590, 0.147723
757.8875, 0.146322
759.8159, 0.144951
761.7444, 0.143674
763.6729, 0.142651
765.6013, 0.141409
767.5298, 0.140133
769.4583, 0.138977
771.3867, 0.137975
773.3152, 0.136914
775.2437, 0.136039
777.1721, 0.134970
779.1006, 0.133574
781.0291, 0.131911
782.9575, 0.130053
784.8860, 0.128015
786.8145, 0.126441
788.7429, 0.125079
790.6714, 0.123956
792.5999, 0.123018
794.5283, 0.121892
796.4568, 0.120735
798.3853, 0.119501
800.3137, 0.117695
802.2422, 0.115499
804.1707, 0.113490
806.0991, 0.111739
808.0276, 0.110092
809.9561, 0.108504
811.8845, 0.107182
813.8130, 0.106104
815.7415, 0.104897
817.6699, 0.103622
819.5984, 0.102811
821.5269, 0.101924
823.4553, 0.100643
825.3838, 0.099566
827.3123, 0.098511
829.2407, 0.097128
831.1692, 0.095769
833.0977, 0.094611
835.0261, 0.093328
836.9546, 0.091965
838.8831, 0.090557
840.8115, 0.089203
842.7400, 0.087603
844.6685, 0.085695
846.5969, 0.084018
848.5254, 0.082422
850.4539, 0.080952
852.3823, 0.079286
854.3108, 0.077522
856.2393, 0.075910
858.1677, 0.074305
860.0962, 0.072671
862.0247, 0.071037
863.9531, 0.069150
865.8816, 0.067412
867.8101, 0.065937
869.7385, 0.064405
871.6670, 0.062808
873.5955, 0.061135
875.5239, 0.059579
877.4524, 0.058145
879.3809, 0.056749
881.3093, 0.055432
883.2378, 0.054291
885.1663, 0.053389
887.0947, 0.052630
889.0232, 0.051907
890.9517, 0.051236
892.8801, 0.050710
894.8085, 0.050471
896.7370, 0.050129
898.6655, 0.049892
900.5939, 0.049628
902.5224, 0.049723
904.4509, 0.049860
906.3793, 0.049758
908.3078, 0.049818
910.2363, 0.050103
912.1647, 0.050586
914.0932, 0.050980
916.0217, 0.051501
917.9501, 0.052175
919.8786, 0.052930
921.8071, 0.053848
923.7355, 0.054547
925.6640, 0.055310
927.5925, 0.056359
929.5209, 0.057553
931.4494, 0.058838
933.3779, 0.060171
935.3063, 0.061596
937.2348, 0.063259
939.1633, 0.064982
941.0917, 0.066714
943.0202, 0.068616
944.9487, 0.070545
946.8771, 0.072637
948.8056, 0.074922
950.7341, 0.077239
952.6625, 0.079777
954.5910, 0.082290
956.5195, 0.084796
958.4479, 0.087356
960.3764, 0.090077
962.3049, 0.092741
964.2333, 0.095114
966.1618, 0.097558
968.0903, 0.099872
970.0187, 0.101947
971.9472, 0.103599
973.8757, 0.104920
975.8041, 0.105808
977.7326, 0.106627
979.6611, 0.107619
981.5895, 0.108412
983.5180, 0.109034
985.4465, 0.109735
987.3749, 0.110536
989.3034, 0.111277
991.2319, 0.112194
993.1603, 0.113011
995.0888, 0.113705
997.0173, 0.114400
998.9457, 0.115052
1000.8740, 0.115505
1002.8030, 0.115864
1004.7310, 0.116078
1006.6600, 0.116068
1008.5880, 0.115723
1010.5170, 0.114796
1012.4450, 0.113474
1014.3730, 0.111839
1016.3020, 0.109427
1018.2300, 0.106375
1020.1590, 0.103015
1022.0870, 0.099424
1024.0160, 0.095613
1025.9440, 0.091999
1027.8730, 0.088497
1029.8010, 0.085317
1031.7300, 0.082733
1033.6580, 0.080367
1035.5870, 0.078258
1037.5150, 0.076533
1039.4440, 0.075277
1041.3720, 0.074113
1043.3010, 0.072741
1045.2290, 0.071917
1047.1570, 0.071549
1049.0860, 0.071211
1051.0140, 0.070975
1052.9430, 0.070720
1054.8710, 0.070501
1056.8000, 0.070486
1058.7280, 0.070515
1060.6570, 0.070457
1062.5850, 0.070296
1064.5140, 0.069957
1066.4420, 0.069462
1068.3710, 0.069172
1070.2990, 0.068932
1072.2280, 0.068810
1074.1560, 0.068855
1076.0840, 0.069037
1078.0130, 0.069233
1079.9410, 0.069478
1081.8700, 0.069586
1083.7980, 0.069318
1085.7270, 0.068963
1087.6550, 0.068671
1089.5840, 0.068216
1091.5120, 0.067403
1093.4410, 0.066554
1095.3690, 0.065583
1097.2980, 0.064697
1099.2260, 0.063879
1101.1550, 0.062772
1103.0830, 0.061471
1105.0110, 0.060163
1106.9400, 0.058823
1108.8680, 0.057445
1110.7970, 0.056163
1112.7250, 0.054838
1114.6540, 0.053652
1116.5820, 0.052461
1118.5110, 0.051247
1120.4390, 0.049903
1122.3680, 0.048618
1124.2960, 0.047409
1126.2250, 0.046149
1128.1530, 0.045015
1130.0820, 0.044105
1132.0100, 0.043180
1133.9380, 0.042202
1135.8670, 0.041351
1137.7950, 0.040613
1139.7240, 0.039833
1141.6520, 0.039019
1143.5810, 0.038273
1145.5090, 0.037552
1147.4380, 0.036785
1149.3660, 0.036209
1151.2950, 0.035676
1153.2230, 0.035135
1155.1520, 0.034518
1157.0800, 0.034039
1159.0090, 0.034080
1160.9370, 0.034359
1162.8650, 0.034305
1164.7940, 0.033956
1166.7220, 0.033490
1168.6510, 0.032843
1170.5790, 0.031960
1172.5080, 0.031258
1174.4360, 0.030685
1176.3650, 0.030126
1178.2930, 0.029618
1180.2220, 0.029163
1182.1500, 0.028621
1184.0790, 0.028169
1186.0070, 0.027764
1187.9360, 0.027335
1189.8640, 0.026804
1191.7920, 0.026466
1193.7210, 0.026012
1195.6490, 0.025253
1197.5780, 0.024497
1199.5060, 0.023873
1201.4350, 0.023214
1203.3630, 0.022452
1205.2920, 0.021644
1207.2200, 0.020913
1209.1490, 0.020144
1211.0770, 0.019280
1213.0060, 0.018514
1214.9340, 0.017695
1216.8630, 0.016828
1218.7910, 0.015973
1220.7190, 0.015127
1222.6480, 0.014424
1224.5760, 0.013897
1226.5050, 0.013259
1228.4330, 0.012741
1230.3620, 0.012439
1232.2900, 0.012044
1234.2190, 0.011723
1236.1470, 0.011334
1238.0760, 0.010914
1240.0040, 0.010645
1241.9330, 0.010258
1243.8610, 0.009838
1245.7900, 0.009654
1247.7180, 0.009521
1249.6460, 0.009300
1251.5750, 0.009061
1253.5030, 0.009008
1255.4320, 0.008865
1257.3600, 0.008683
1259.2890, 0.008478
1261.2170, 0.008292
1263.1460, 0.008064
1265.0740, 0.007712
1267.0030, 0.007564
1268.9310, 0.007423
1270.8600, 0.007257
1272.7880, 0.007194
1274.7170, 0.007057
1276.6450, 0.006926
1278.5730, 0.006907
1280.5020, 0.006872
1282.4300, 0.006894
1284.3590, 0.006860
1286.2870, 0.006718
1288.2160, 0.006659
1290.1440, 0.006529
1292.0730, 0.006418
1294.0010, 0.006299
1295.9300, 0.006230
1297.8580, 0.006286
1299.7870, 0.006336
1301.7150, 0.006208
1303.6440, 0.006157
1305.5720, 0.006134
1307.5000, 0.006095
1309.4290, 0.006011
1311.3570, 0.005927
1313.2860, 0.005899
1315.2140, 0.005875
1317.1430, 0.005969
1319.0710, 0.006042
1321.0000, 0.005968
1322.9280, 0.005996
1324.8570, 0.006059
1326.7850, 0.005925
1328.7140, 0.005864
1330.6420, 0.005914
1332.5710, 0.005870
1334.4990, 0.005858
1336.4270, 0.005914
1338.3560, 0.005932
1340.2840, 0.005911
1342.2130, 0.005965
1344.1410, 0.005994
1346.0700, 0.006032
1347.9980, 0.006069
1349.9270, 0.006257
1351.8550, 0.006404
1353.7840, 0.006374
1355.7120, 0.006374
1357.6410, 0.006377
1359.5690, 0.006430
1361.4980, 0.006491
1363.4260, 0.006565
1365.3540, 0.006548
1367.2830, 0.006573
1369.2110, 0.006911
1371.1400, 0.007410
1373.0680, 0.008188
1374.9970, 0.009244
1376.9250, 0.009739
1378.8540, 0.008961
1380.7820, 0.007834
1382.7110, 0.007191
1384.6390, 0.006827
1386.5680, 0.006766
1388.4960, 0.006762
1390.4240, 0.006682
1392.3530, 0.006763
1394.2810, 0.006855
1396.2100, 0.007022
1398.1380, 0.007033
1400.0670, 0.007025
1401.9950, 0.007090
1403.9240, 0.007212
1405.8520, 0.007491
1407.7810, 0.007765
1409.7090, 0.007862
1411.6380, 0.007902
1413.5660, 0.007899
1415.4950, 0.007992
1417.4230, 0.008125
1419.3510, 0.008189
1421.2800, 0.008002
1423.2080, 0.007969
1425.1370, 0.008087
1427.0650, 0.008130
1428.9940, 0.008136
1430.9220, 0.008185
1432.8510, 0.008399
1434.7790, 0.008677
1436.7080, 0.008913
1438.6360, 0.008938
1440.5650, 0.008933
1442.4930, 0.009039
1444.4220, 0.009230
1446.3500, 0.009469
1448.2780, 0.009756
1450.2070, 0.010151
1452.1350, 0.010296
1454.0640, 0.010246
1455.9920, 0.010389
1457.9210, 0.010554
1459.8490, 0.010526
1461.7780, 0.010258
1463.7060, 0.009898
1465.6350, 0.009637
1467.5630, 0.009181
1469.4920, 0.008553
1471.4200, 0.008131
1473.3490, 0.007919
1475.2770, 0.007476
1477.2050, 0.007134
1479.1340, 0.007037
1481.0620, 0.006960
1482.9910, 0.006923
1484.9190, 0.006815
1486.8480, 0.006647
1488.7760, 0.006623
1490.7050, 0.006644
1492.6330, 0.006443
1494.5620, 0.006396
1496.4900, 0.006527
1498.4190, 0.006629
1500.3470, 0.006715
1502.2760, 0.006728
1504.2040, 0.006803
1506.1320, 0.007023
1508.0610, 0.006894
1509.9890, 0.006521
1511.9180, 0.006455
1513.8460, 0.006448
1515.7750, 0.006363
1517.7030, 0.006450
1519.6320, 0.006826
1521.5600, 0.006872
1523.4890, 0.006704
1525.4170, 0.006577
1527.3460, 0.006517
1529.2740, 0.006476
1531.2030, 0.006610
1533.1310, 0.006679
1535.0590, 0.006741
1536.9880, 0.006817
1538.9160, 0.006911
1540.8450, 0.006856
1542.7730, 0.006890
1544.7020, 0.007134
1546.6300, 0.007097
1548.5590, 0.007058
1550.4870, 0.007187
1552.4160, 0.007083
1554.3440, 0.007093
1556.2730, 0.007391
1558.2010, 0.007798
1560.1300, 0.007768
1562.0580, 0.007456
1563.9860, 0.007458
1565.9150, 0.007486
1567.8430, 0.007535
1569.7720, 0.007480
1571.7000, 0.007299
1573.6290, 0.007405
1575.5570, 0.007591
1577.4860, 0.007602
1579.4140, 0.007494
1581.3430, 0.007370
1583.2710, 0.007309
1585.2000, 0.007229
1587.1280, 0.007216
1589.0570, 0.007348
1590.9850, 0.007227
1592.9130, 0.007103
1594.8420, 0.007191
1596.7700, 0.007401
1598.6990, 0.007331
1600.6270, 0.007077
1602.5560, 0.007051
1604.4840, 0.007148
1606.4130, 0.007176
1608.3410, 0.006998
1610.2700, 0.006848
1612.1980, 0.006837
1614.1270, 0.007097
1616.0550, 0.007291
1617.9840, 0.007142
1619.9120, 0.007159
1621.8400, 0.007194
1623.7690, 0.007187
1625.6970, 0.007205
1627.6260, 0.007215
1629.5540, 0.007231
1631.4830, 0.007241
1633.4110, 0.007158
1635.3400, 0.007169
1637.2680, 0.006935
1639.1970, 0.006761
1641.1250, 0.006944
1643.0540, 0.006961
1644.9820, 0.006871
1646.9110, 0.006802
1648.8390, 0.006706
1650.7670, 0.006722
1652.6960, 0.006974
1654.6240, 0.006704
1656.5530, 0.006268
1658.4810, 0.006160
1660.4100, 0.006063
1662.3380, 0.005900
1664.2670, 0.005884
1666.1950, 0.005869
1668.1240, 0.005846
1670.0520, 0.005786
1671.9810, 0.005764
1673.9090, 0.005685
1675.8380, 0.005479
1677.7660, 0.005292
1679.6940, 0.005189
1681.6230, 0.005200
1683.5510, 0.005383
1685.4800, 0.005260
1687.4080, 0.005126
1689.3370, 0.005038
1691.2650, 0.004802
1693.1940, 0.004658
1695.1220, 0.004926
1697.0510, 0.004985
1698.9790, 0.005048
1700.9080, 0.005057
1702.8360, 0.004906
1704.7650, 0.004888
1706.6930, 0.004843
1708.6210, 0.004756
1710.5500, 0.004681
1712.4780, 0.004570
1714.4070, 0.004768
1716.3350, 0.004908
1718.2640, 0.004867
1720.1920, 0.004620
1722.1210, 0.004404
1724.0490, 0.004451
1725.9780, 0.004690
1727.9060, 0.004742
1729.8350, 0.004573
1731.7630, 0.004692
1733.6920, 0.004869
1735.6200, 0.004690
1737.5480, 0.004743
1739.4770, 0.004986
1741.4050, 0.005000
1743.3340, 0.004712
1745.2620, 0.004496
1747.1910, 0.004319
1749.1190, 0.004233
1751.0480, 0.004341
1752.9760, 0.004176
1754.9050, 0.004045
1756.8330, 0.003999
1758.7620, 0.003952
1760.6900, 0.003924
1762.6190, 0.003843
1764.5470, 0.003749
1766.4750, 0.003848
1768.4040, 0.003817
1770.3320, 0.003881
1772.2610, 0.004149
1774.1890, 0.004106
1776.1180, 0.003950
1778.0460, 0.004116
1779.9750, 0.004300
1781.9030, 0.004451
1783.8320, 0.004388
1785.7600, 0.004148
1787.6890, 0.003921
1789.6170, 0.003846
1791.5460, 0.003982
1793.4740, 0.003947
1795.4020, 0.003672
1797.3310, 0.003634
1799.2590, 0.003543
1801.1880, 0.003783
1803.1160, 0.003715
1805.0450, 0.003403
1806.9730, 0.003556
1808.9020, 0.003702
1810.8300, 0.003554
1812.7590, 0.003369
1814.6870, 0.003307
1816.6160, 0.003517
1818.5440, 0.003662
1820.4730, 0.003713
1822.4010, 0.004035
1824.3290, 0.003846
1826.2580, 0.003474
1828.1860, 0.003511
1830.1150, 0.003859
1832.0430, 0.003677
1833.9720, 0.003590
1835.9000, 0.003723
1837.8290, 0.003658
1839.7570, 0.003606
1841.6860, 0.003368
1843.6140, 0.003337
1845.5430, 0.003515
1847.4710, 0.003590
1849.4000, 0.003903
1851.3280, 0.003727
1853.2560, 0.003546
1855.1850, 0.003480
1857.1130, 0.003453
1859.0420, 0.003435
1860.9700, 0.003664
1862.8990, 0.003574
1864.8270, 0.003512
1866.7560, 0.003573
1868.6840, 0.003364
1870.6130, 0.003388
1872.5410, 0.003450
1874.4700, 0.003479
1876.3980, 0.003740
1878.3270, 0.003424
1880.2550, 0.002892
1882.1830, 0.003088
1884.1120, 0.003312
1886.0400, 0.003397
1887.9690, 0.003147
1889.8970, 0.002727
1891.8260, 0.003120
1893.7540, 0.003609
1895.6830, 0.003159
1897.6110, 0.003137
1899.5400, 0.003490
1901.4680, 0.003662
1903.3970, 0.003123
1905.3250, 0.002642
1907.2540, 0.002873
1909.1820, 0.003281
1911.1100, 0.003113
1913.0390, 0.002775
1914.9670, 0.002284
1916.8960, 0.002110
1918.8240, 0.002239
1920.7530, 0.002353
1922.6810, 0.002184
1924.6100, 0.001819
1926.5380, 0.001481
1928.4670, 0.001375
1930.3950, 0.002179
1932.3240, 0.002751
1934.2520, 0.002963
1936.1810, 0.001625
1938.1090, 0.000744
1940.0370, 0.000424
1941.9660, -0.000076
1943.8940, 0.000470
1945.8230, 0.001709
1947.7510, 0.001753
1949.6800, 0.001664
1951.6080, 0.001285
1953.5370, 0.000584
1955.4650, 0.000477
1957.3940, -0.001116
1959.3220, -0.001376
1961.2510, -0.000137
1963.1790, 0.000149
1965.1080, 0.000107
1967.0360, -0.000873
1968.9640, -0.002049
1970.8930, -0.001091
1972.8210, -0.000029
1974.7500, -0.000712
1976.6780, -0.001387
1978.6070, -0.000044
1980.5350, 0.000875
1982.4640, 0.000207
1984.3920, 0.000459
1986.3210, 0.000415
1988.2490, 0.000660
1990.1780, 0.002556
1992.1060, 0.002822
1994.0350, 0.000980
1995.9630, -0.000222
1997.8910, 0.000310
1999.8200, 0.000999
2001.7480, 0.000679
2003.6770, -0.000473
2005.6050, 0.000410
2007.5340, 0.001206
2009.4620, 0.000510
2011.3910, -0.000362
2013.3190, -0.001235
2015.2480, -0.001634
2017.1760, -0.001238
2019.1050, 0.001273
2021.0330, 0.000765
2022.9620, -0.000480
2024.8900, 0.000417
2026.8180, 0.000637
2028.7470, -0.000729
2030.6750, 0.000043
2032.6040, 0.001698
2034.5320, 0.002246
2036.4610, 0.001886
2038.3890, 0.001310
2040.3180, 0.000848
2042.2460, 0.000745
2044.1750, 0.002691
2046.1030, 0.003428
2048.0320, 0.002233
2049.9600, 0.002690
2051.8890, 0.002194
2053.8170, 0.001552
2055.7460, 0.002350
2057.6740, 0.003750
2059.6030, 0.004001
2061.5310, 0.003431
2063.4590, 0.003613
2065.3880, 0.003320
2067.3160, 0.003167
2069.2450, 0.004033
2071.1730, 0.003996
2073.1020, 0.003168
2075.0300, 0.003163
2076.9590, 0.003430
2078.8870, 0.004282
2080.8160, 0.004778
2082.7440, 0.004771
2084.6730, 0.004474
2086.6010, 0.004159
2088.5300, 0.004261
2090.4580, 0.004822
2092.3860, 0.004207
2094.3150, 0.003508
2096.2430, 0.003054
2098.1720, 0.003134
2100.1000, 0.004166
2102.0290, 0.004405
2103.9570, 0.003553
2105.8860, 0.004015
2107.8140, 0.004857
2109.7430, 0.004423
2111.6710, 0.004062
2113.6000, 0.004537
2115.5280, 0.005024
2117.4570, 0.004365
2119.3850, 0.003875
2121.3130, 0.004323
2123.2420, 0.004310
2125.1700, 0.003320
2127.0990, 0.002779
2129.0270, 0.002698
2130.9560, 0.001695
2132.8840, 0.001066
2134.8130, 0.001422
2136.7410, 0.002035
2138.6700, 0.002003
2140.5980, 0.001862
2142.5270, 0.001699
2144.4550, 0.001341
2146.3840, 0.001570
2148.3120, 0.001296
2150.2400, 0.002146
2152.1690, 0.001369
2154.0970, -0.001365
2156.0260, -0.002051
2157.9540, -0.000393
2159.8830, 0.002649
2161.8110, 0.004391
2163.7400, 0.005197
2165.6680, 0.004777
2167.5970, 0.003975
2169.5250, 0.002888
2171.4540, 0.002853
2173.3820, 0.002659
2175.3110, 0.003672
2177.2390, 0.004186
2179.1670, 0.002979
2181.0960, 0.001942
2183.0240, 0.003009
2184.9530, 0.003902
2186.8810, 0.003644
2188.8100, 0.003473
2190.7380, 0.004611
2192.6670, 0.004751
2194.5950, 0.004931
2196.5240, 0.005013
2198.4520, 0.004871
2200.3810, 0.004627
2202.3090, 0.005071
2204.2380, 0.006076
2206.1660, 0.006322
2208.0940, 0.005675
2210.0230, 0.005312
2211.9510, 0.005042
2213.8800, 0.005181
2215.8080, 0.005571
2217.7370, 0.005641
2219.6650, 0.005655
2221.5940, 0.005770
2223.5220, 0.005920
2225.4510, 0.006031
2227.3790, 0.006249
2229.3080, 0.007226
2231.2360, 0.007363
2233.1650, 0.007210
2235.0930, 0.006956
2237.0210, 0.006083
2238.9500, 0.004882
2240.8780, 0.005430
2242.8070, 0.005635
2244.7350, 0.004803
2246.6640, 0.005266
2248.5920, 0.005394
2250.5210, 0.004508
2252.4490, 0.004515
2254.3780, 0.005481
2256.3060, 0.007012
2258.2350, 0.007063
2260.1630, 0.005971
2262.0920, 0.005707
2264.0200, 0.006057
2265.9480, 0.006177
2267.8770, 0.006795
2269.8050, 0.007423
2271.7340, 0.007511
2273.6620, 0.007119
2275.5910, 0.007000
2277.5190, 0.007487
2279.4480, 0.007618
2281.3760, 0.008070
2283.3050, 0.008528
2285.2330, 0.007446
2287.1620, 0.006717
2289.0900, 0.006817
2291.0190, 0.007348
2292.9470, 0.007766
2294.8750, 0.007722
2296.8040, 0.007720
2298.7320, 0.007683
2300.6610, 0.007576
2302.5890, 0.007541
2304.5180, 0.007507
2306.4460, 0.007559
2308.3750, 0.008257
2310.3030, 0.008467
2312.2320, 0.008137
2314.1600, 0.008076
2316.0890, 0.008602
2318.0170, 0.008735
2319.9460, 0.008912
2321.8740, 0.009809
2323.8020, 0.010012
2325.7310, 0.009081
2327.6590, 0.008863
2329.5880, 0.009292
2331.5160, 0.009189
2333.4450, 0.008836
2335.3730, 0.008578
2337.3020, 0.008629
2339.2300, 0.008540
2341.1590, 0.008451
2343.0870, 0.008029
2345.0160, 0.007671
2346.9440, 0.007786
2348.8730, 0.008140
2350.8010, 0.008205
2352.7290, 0.008102
2354.6580, 0.008427
2356.5860, 0.008753
2358.5150, 0.008673
2360.4430, 0.008800
2362.3720, 0.008746
2364.3000, 0.008282
2366.2290, 0.008571
2368.1570, 0.008651
2370.0860, 0.007893
2372.0140, 0.007543
2373.9420, 0.007417
2375.8710, 0.007133
2377.7990, 0.006868
2379.7280, 0.006663
2381.6560, 0.006525
2383.5850, 0.006798
2385.5130, 0.007403
2387.4420, 0.007319
2389.3700, 0.006629
2391.2990, 0.006816
2393.2270, 0.007241
2395.1560, 0.007005
2397.0840, 0.006959
2399.0120, 0.006863
2400.9410, 0.006996
2402.8690, 0.007045
2404.7980, 0.006803
2406.7260, 0.006920
2408.6550, 0.006866
2410.5830, 0.006974
2412.5120, 0.006996
2414.4400, 0.007038
2416.3690, 0.006966
2418.2970, 0.007257
2420.2260, 0.007645
2422.1540, 0.007804
2424.0830, 0.007799
2426.0110, 0.007219
2427.9390, 0.006745
2429.8680, 0.007024
2431.7960, 0.007071
2433.7250, 0.006637
2435.6530, 0.007143
2437.5820, 0.007489
2439.5100, 0.007303
2441.4390, 0.007434
2443.3670, 0.007740
2445.2960, 0.007962
2447.2240, 0.008381
2449.1530, 0.008782
2451.0810, 0.008605
2453.0100, 0.008225
2454.9380, 0.007849
2456.8660, 0.007745
2458.7950, 0.007352
2460.7230, 0.006980
2462.6520, 0.007170
2464.5800, 0.007536
2466.5090, 0.007373
2468.4370, 0.007336
2470.3660, 0.007555
2472.2940, 0.007896
2474.2230, 0.007795
2476.1510, 0.007691
2478.0800, 0.007998
2480.0080, 0.008162
2481.9370, 0.008045
2483.8650, 0.007991
2485.7930, 0.007704
2487.7220, 0.007388
2489.6500, 0.007873
2491.5790, 0.007890
2493.5070, 0.007777
2495.4360, 0.008062
2497.3640, 0.007954
2499.2930, 0.007661
2501.2210, 0.007486
2503.1500, 0.007502
2505.0780, 0.007922
2507.0070, 0.008129
2508.9350, 0.008062
2510.8640, 0.008055
2512.7920, 0.007847
2514.7200, 0.007796
2516.6490, 0.008001
2518.5770, 0.007800
2520.5060, 0.007811
2522.4340, 0.008154
2524.3630, 0.007932
2526.2910, 0.007754
2528.2200, 0.007517
2530.1480, 0.007342
2532.0770, 0.007818
2534.0050, 0.007711
2535.9340, 0.007386
2537.8620, 0.008132
2539.7910, 0.008268
2541.7190, 0.007986
2543.6470, 0.008299
2545.5760, 0.008360
2547.5040, 0.008642
2549.4330, 0.008891
2551.3610, 0.008628
2553.2900, 0.008453
2555.2180, 0.008625
2557.1470, 0.008508
2559.0750, 0.008041
2561.0040, 0.007767
2562.9320, 0.007933
2564.8610, 0.008502
2566.7890, 0.008970
2568.7180, 0.008766
2570.6460, 0.008989
2572.5740, 0.009213
2574.5030, 0.008877
2576.4310, 0.008747
2578.3600, 0.008642
2580.2880, 0.008909
2582.2170, 0.009527
2584.1450, 0.009285
2586.0740, 0.009256
2588.0020, 0.009213
2589.9310, 0.009348
2591.8590, 0.009879
2593.7880, 0.009607
2595.7160, 0.008798
2597.6450, 0.008550
2599.5730, 0.008816
2601.5010, 0.008701
2603.4300, 0.008644
2605.3580, 0.009136
2607.2870, 0.009526
2609.2150, 0.009663
2611.1440, 0.009596
2613.0720, 0.009006
2615.0010, 0.009135
2616.9290, 0.009289
2618.8580, 0.009589
2620.7860, 0.010005
2622.7150, 0.009840
2624.6430, 0.009399
2626.5720, 0.009945
2628.5000, 0.010218
2630.4280, 0.010075
2632.3570, 0.009918
2634.2850, 0.009841
2636.2140, 0.010171
2638.1420, 0.010330
2640.0710, 0.010002
2641.9990, 0.010073
2643.9280, 0.010149
2645.8560, 0.009815
2647.7850, 0.010001
2649.7130, 0.010218
2651.6420, 0.009728
2653.5700, 0.009711
2655.4990, 0.010099
2657.4270, 0.010330
2659.3550, 0.010343
2661.2840, 0.009984
2663.2120, 0.009719
2665.1410, 0.009801
2667.0690, 0.009844
2668.9980, 0.009970
2670.9260, 0.009711
2672.8550, 0.009783
2674.7830, 0.009948
2676.7120, 0.010381
2678.6400, 0.010535
2680.5690, 0.009905
2682.4970, 0.009399
2684.4260, 0.009785
2686.3540, 0.010109
2688.2820, 0.009805
2690.2110, 0.009518
2692.1390, 0.009256
2694.0680, 0.009539
2695.9960, 0.009948
2697.9250, 0.010005
2699.8530, 0.009895
2701.7820, 0.010161
2703.7100, 0.010356
2705.6390, 0.010507
2707.5670, 0.010743
2709.4960, 0.010851
2711.4240, 0.010549
2713.3530, 0.010393
2715.2810, 0.010705
2717.2090, 0.010693
2719.1380, 0.010300
2721.0660, 0.010040
2722.9950, 0.010158
2724.9230, 0.010593
2726.8520, 0.010762
2728.7800, 0.010774
2730.7090, 0.010904
2732.6370, 0.010812
2734.5660, 0.010525
2736.4940, 0.010185
2738.4230, 0.010346
2740.3510, 0.010748
2742.2800, 0.011178
2744.2080, 0.011323
2746.1360, 0.011183
2748.0650, 0.010945
2749.9930, 0.010685
2751.9220, 0.011074
2753.8500, 0.011425
2755.7790, 0.011178
2757.7070, 0.011104
2759.6360, 0.011237
2761.5640, 0.011281
2763.4930, 0.011439
2765.4210, 0.011699
2767.3500, 0.012136
2769.2780, 0.012364
2771.2070, 0.012322
2773.1350, 0.011804
2775.0630, 0.011669
2776.9920, 0.011890
2778.9200, 0.011629
2780.8490, 0.011879
2782.7770, 0.012159
2784.7060, 0.011938
2786.6340, 0.011775
2788.5630, 0.011849
2790.4910, 0.011670
2792.4200, 0.011591
2794.3480, 0.012083
2796.2770, 0.012508
2798.2050, 0.012385
2800.1340, 0.011936
2802.0620, 0.011903
2803.9900, 0.012354
2805.9190, 0.012532
2807.8470, 0.012048
2809.7760, 0.012025
2811.7040, 0.012335
2813.6330, 0.012607
2815.5610, 0.013241
2817.4900, 0.013522
2819.4180, 0.013033
2821.3470, 0.012815
2823.2750, 0.013017
2825.2040, 0.013229
2827.1320, 0.013471
2829.0610, 0.014009
2830.9890, 0.014764
2832.9170, 0.015703
2834.8460, 0.015911
2836.7740, 0.015608
2838.7030, 0.015980
2840.6310, 0.015856
2842.5600, 0.015683
2844.4880, 0.015662
2846.4170, 0.015430
2848.3450, 0.015405
2850.2740, 0.015888
2852.2020, 0.016237
2854.1310, 0.016407
2856.0590, 0.016534
2857.9880, 0.016636
2859.9160, 0.016309
2861.8440, 0.016346
2863.7730, 0.016991
2865.7010, 0.017331
2867.6300, 0.017377
2869.5580, 0.017454
2871.4870, 0.017059
2873.4150, 0.017089
2875.3440, 0.017228
2877.2720, 0.017027
2879.2010, 0.017409
2881.1290, 0.017835
2883.0580, 0.017808
2884.9860, 0.017519
2886.9150, 0.017567
2888.8430, 0.017112
2890.7710, 0.016696
2892.7000, 0.017080
2894.6280, 0.018124
2896.5570, 0.018328
2898.4850, 0.018757
2900.4140, 0.019764
2902.3420, 0.019912
2904.2710, 0.019245
2906.1990, 0.020011
2908.1280, 0.021257
2910.0560, 0.021999
2911.9850, 0.022703
2913.9130, 0.023708
2915.8420, 0.023830
2917.7700, 0.024503
2919.6980, 0.024942
2921.6270, 0.024459
2923.5550, 0.023800
2925.4840, 0.023674
2927.4120, 0.023414
2929.3410, 0.022730
2931.2690, 0.022303
2933.1980, 0.021817
2935.1260, 0.020753
2937.0550, 0.019642
2938.9830, 0.019562
2940.9120, 0.019540
2942.8400, 0.019771
2944.7690, 0.020274
2946.6970, 0.021068
2948.6250, 0.022120
2950.5540, 0.022776
2952.4820, 0.022936
2954.4110, 0.022325
2956.3390, 0.021514
2958.2680, 0.021705
2960.1960, 0.021496
2962.1250, 0.020626
2964.0530, 0.019632
2965.9820, 0.019247
2967.9100, 0.018748
2969.8390, 0.017631
2971.7670, 0.017291
2973.6960, 0.017091
2975.6240, 0.016417
2977.5520, 0.016123
2979.4810, 0.016344
2981.4090, 0.016252
2983.3380, 0.016010
2985.2660, 0.016086
2987.1950, 0.015901
2989.1230, 0.016124
2991.0520, 0.016174
2992.9800, 0.015754
2994.9090, 0.015430
2996.8370, 0.015566
2998.7660, 0.015051
3000.6940, 0.014711
3002.6230, 0.015559
3004.5510, 0.015530
3006.4790, 0.015803
3008.4080, 0.016214
3010.3360, 0.016363
3012.2650, 0.016122
3014.1930, 0.016153
3016.1220, 0.016188
3018.0500, 0.015429
3019.9790, 0.015135
3021.9070, 0.015561
3023.8360, 0.015976
3025.7640, 0.016209
3027.6930, 0.016345
3029.6210, 0.016657
3031.5500, 0.016695
3033.4780, 0.016873
3035.4060, 0.016427
3037.3350, 0.016128
3039.2630, 0.016638
3041.1920, 0.016670
3043.1200, 0.016431
3045.0490, 0.016267
3046.9770, 0.016462
3048.9060, 0.016748
3050.8340, 0.017312
3052.7630, 0.017429
3054.6910, 0.017823
3056.6200, 0.017849
3058.5480, 0.017619
3060.4770, 0.017378
3062.4050, 0.017749
3064.3330, 0.018414
3066.2620, 0.017982
3068.1900, 0.017835
3070.1190, 0.017963
3072.0470, 0.017458
3073.9760, 0.017336
3075.9040, 0.017671
3077.8330, 0.018046
3079.7610, 0.018140
3081.6900, 0.018410
3083.6180, 0.018574
3085.5470, 0.018592
3087.4750, 0.018480
3089.4040, 0.018761
3091.3320, 0.019236
3093.2600, 0.018792
3095.1890, 0.018124
3097.1170, 0.018105
3099.0460, 0.018232
3100.9740, 0.018670
3102.9030, 0.018794
3104.8310, 0.018682
3106.7600, 0.018644
3108.6880, 0.019133
3110.6170, 0.019703
3112.5450, 0.019789
3114.4740, 0.019927
3116.4020, 0.019366
3118.3310, 0.019266
3120.2590, 0.019985
3122.1880, 0.020673
3124.1160, 0.020611
3126.0440, 0.020137
3127.9730, 0.019671
3129.9010, 0.019024
3131.8300, 0.019370
3133.7580, 0.020947
3135.6870, 0.021606
3137.6150, 0.020675
3139.5440, 0.019728
3141.4720, 0.019869
3143.4010, 0.020754
3145.3290, 0.021477
3147.2580, 0.021472
3149.1860, 0.021405
3151.1150, 0.021474
3153.0430, 0.022020
3154.9710, 0.021552
3156.9000, 0.021135
3158.8280, 0.020677
3160.7570, 0.020694
3162.6850, 0.021426
3164.6140, 0.021823
3166.5420, 0.022016
3168.4710, 0.021999
3170.3990, 0.022017
3172.3280, 0.021999
3174.2560, 0.022676
3176.1850, 0.022652
3178.1130, 0.022509
3180.0420, 0.022608
3181.9700, 0.022849
3183.8980, 0.023119
3185.8270, 0.021965
3187.7550, 0.021301
3189.6840, 0.022410
3191.6120, 0.023473
3193.5410, 0.023351
3195.4690, 0.022733
3197.3980, 0.023043
3199.3260, 0.023114
3201.2550, 0.022887
3203.1830, 0.022888
3205.1120, 0.023444
3207.0400, 0.023409
3208.9690, 0.023124
3210.8970, 0.023478
3212.8250, 0.023066
3214.7540, 0.022957
3216.6820, 0.024220
3218.6110, 0.024470
3220.5390, 0.023932
3222.4680, 0.023280
3224.3960, 0.022447
3226.3250, 0.022209
3228.2530, 0.023623
3230.1820, 0.024454
3232.1100, 0.024676
3234.0390, 0.024276
3235.9670, 0.023608
3237.8960, 0.024222
3239.8240, 0.024859
3241.7520, 0.024690
3243.6810, 0.023793
3245.6090, 0.023651
3247.5380, 0.024298
3249.4660, 0.024600
3251.3950, 0.024236
3253.3230, 0.024297
3255.2520, 0.024552
3257.1800, 0.024468
3259.1090, 0.024807
3261.0370, 0.024608
3262.9660, 0.024972
3264.8940, 0.025120
3266.8230, 0.025229
3268.7510, 0.025703
3270.6790, 0.025795
3272.6080, 0.025444
3274.5360, 0.025681
3276.4650, 0.026732
3278.3930, 0.026756
3280.3220, 0.025762
3282.2500, 0.025413
3284.1790, 0.024937
3286.1070, 0.024839
3288.0360, 0.025406
3289.9640, 0.026309
3291.8930, 0.026441
3293.8210, 0.026482
3295.7500, 0.026095
3297.6780, 0.025274
3299.6060, 0.025571
3301.5350, 0.026450
3303.4630, 0.026795
3305.3920, 0.026941
3307.3200, 0.026035
3309.2490, 0.025829
3311.1770, 0.027057
3313.1060, 0.027004
3315.0340, 0.026432
3316.9630, 0.027125
3318.8910, 0.027363
3320.8200, 0.026740
3322.7480, 0.026417
3324.6770, 0.026946
3326.6050, 0.027353
3328.5330, 0.027360
3330.4620, 0.026893
3332.3900, 0.026948
3334.3190, 0.026901
3336.2470, 0.026696
3338.1760, 0.027356
3340.1040, 0.027780
3342.0330, 0.027599
3343.9610, 0.028121
3345.8900, 0.027828
3347.8180, 0.027406
3349.7470, 0.027302
3351.6750, 0.028036
3353.6040, 0.027994
3355.5320, 0.027467
3357.4600, 0.027454
3359.3890, 0.027897
3361.3170, 0.028242
3363.2460, 0.028193
3365.1740, 0.028268
3367.1030, 0.027757
3369.0310, 0.027196
3370.9600, 0.027253
3372.8880, 0.027817
3374.8170, 0.027928
3376.7450, 0.028376
3378.6740, 0.028765
3380.6020, 0.028953
3382.5310, 0.029291
3384.4590, 0.029373
3386.3870, 0.029212
3388.3160, 0.028588
3390.2440, 0.028233
3392.1730, 0.027860
3394.1010, 0.028659
3396.0300, 0.029312
3397.9580, 0.028762
3399.8870, 0.028156
3401.8150, 0.028363
3403.7440, 0.029015
3405.6720, 0.029101
3407.6010, 0.029227
3409.5290, 0.029385
3411.4580, 0.028467
3413.3860, 0.028830
3415.3140, 0.029943
3417.2430, 0.029393
3419.1710, 0.028217
3421.1000, 0.028901
3423.0280, 0.029635
3424.9570, 0.028997
3426.8850, 0.029422
3428.8140, 0.030378
3430.7420, 0.029914
3432.6710, 0.028954
3434.5990, 0.028767
3436.5280, 0.029412
3438.4560, 0.030377
3440.3850, 0.030175
3442.3130, 0.029839
3444.2410, 0.029645
3446.1700, 0.029078
3448.0980, 0.028270
3450.0270, 0.028030
3451.9550, 0.028979
3453.8840, 0.029402
3455.8120, 0.029304
3457.7410, 0.029331
3459.6690, 0.029183
3461.5980, 0.028580
3463.5260, 0.028245
3465.4550, 0.028922
3467.3830, 0.028874
3469.3120, 0.028085
3471.2400, 0.027413
3473.1680, 0.028003
3475.0970, 0.028348
3477.0250, 0.027968
3478.9540, 0.028052
3480.8820, 0.028646
3482.8110, 0.028412
3484.7390, 0.028987
3486.6680, 0.029187
3488.5960, 0.028130
3490.5250, 0.028075
3492.4530, 0.028280
3494.3820, 0.029112
3496.3100, 0.029220
3498.2390, 0.028246
3500.1670, 0.028348
3502.0950, 0.028689
3504.0240, 0.029181
3505.9520, 0.029365
3507.8810, 0.028908
3509.8090, 0.028433
3511.7380, 0.028480
3513.6660, 0.027970
3515.5950, 0.028319
3517.5230, 0.029181
3519.4520, 0.028538
3521.3800, 0.027751
3523.3090, 0.027919
3525.2370, 0.028005
3527.1660, 0.027165
3529.0940, 0.027632
3531.0220, 0.028215
3532.9510, 0.027706
3534.8790, 0.027316
3536.8080, 0.027472
3538.7360, 0.027457
3540.6650, 0.027175
3542.5930, 0.027551
3544.5220, 0.027763
3546.4500, 0.027026
3548.3790, 0.026943
3550.3070, 0.026837
3552.2360, 0.026591
3554.1640, 0.026439
3556.0930, 0.026342
3558.0210, 0.026707
3559.9490, 0.026958
3561.8780, 0.026582
3563.8060, 0.026844
3565.7350, 0.026636
3567.6630, 0.026963
3569.5920, 0.028043
3571.5200, 0.028032
3573.4490, 0.027271
3575.3770, 0.026534
3577.3060, 0.025969
3579.2340, 0.026017
3581.1630, 0.026518
3583.0910, 0.026080
3585.0200, 0.024899
3586.9480, 0.025568
3588.8760, 0.025801
3590.8050, 0.025951
3592.7330, 0.026544
3594.6620, 0.026636
3596.5900, 0.026544
3598.5190, 0.027224
3600.4470, 0.026559
3602.3760, 0.024712
3604.3040, 0.023772
3606.2330, 0.023756
3608.1610, 0.024700
3610.0900, 0.024257
3612.0180, 0.023482
3613.9470, 0.023775
3615.8750, 0.024216
3617.8030, 0.023751
3619.7320, 0.023242
3621.6600, 0.023227
3623.5890, 0.023726
3625.5170, 0.024242
3627.4460, 0.023758
3629.3740, 0.022921
3631.3030, 0.022259
3633.2310, 0.021187
3635.1600, 0.022565
3637.0880, 0.023648
3639.0170, 0.023370
3640.9450, 0.022247
3642.8740, 0.020481
3644.8020, 0.020203
3646.7300, 0.021180
3648.6590, 0.020535
3650.5870, 0.020268
3652.5160, 0.020681
3654.4440, 0.020957
3656.3730, 0.021739
3658.3010, 0.022157
3660.2300, 0.021163
3662.1580, 0.020246
3664.0870, 0.019645
3666.0150, 0.019620
3667.9440, 0.018453
3669.8720, 0.018375
3671.8010, 0.020248
3673.7290, 0.020789
3675.6570, 0.020459
3677.5860, 0.019114
3679.5140, 0.018341
3681.4430, 0.018237
3683.3710, 0.017377
3685.3000, 0.017434
3687.2280, 0.016887
3689.1570, 0.016225
3691.0850, 0.017435
3693.0140, 0.018768
3694.9420, 0.018495
3696.8710, 0.017685
3698.7990, 0.016433
3700.7280, 0.016049
3702.6560, 0.017315
3704.5840, 0.017266
3706.5130, 0.016163
3708.4410, 0.015618
3710.3700, 0.016567
3712.2980, 0.017431
3714.2270, 0.016195
3716.1550, 0.015978
3718.0840, 0.016815
3720.0120, 0.016158
3721.9410, 0.016189
3723.8690, 0.017186
3725.7980, 0.017441
3727.7260, 0.016695
3729.6550, 0.016539
3731.5830, 0.017185
3733.5110, 0.017708
3735.4400, 0.018095
3737.3680, 0.017475
3739.2970, 0.015824
3741.2250, 0.016106
3743.1540, 0.016592
3745.0820, 0.015521
3747.0110, 0.016273
3748.9390, 0.018406
3750.8680, 0.017937
3752.7960, 0.017094
3754.7250, 0.017420
3756.6530, 0.017611
3758.5820, 0.017268
3760.5100, 0.017980
3762.4380, 0.018543
3764.3670, 0.017525
3766.2950, 0.016403
3768.2240, 0.017260
3770.1520, 0.018360
3772.0810, 0.018752
3774.0090, 0.018142
3775.9380, 0.017010
3777.8660, 0.016424
3779.7950, 0.016194
3781.7230, 0.016984
3783.6520, 0.017601
3785.5800, 0.018199
3787.5090, 0.018494
3789.4370, 0.017596
3791.3650, 0.016405
3793.2940, 0.015739
3795.2220, 0.016100
3797.1510, 0.016196
3799.0790, 0.016985
3801.0080, 0.018094
3802.9360, 0.017722
3804.8650, 0.018242
3806.7930, 0.017886
3808.7220, 0.017512
3810.6500, 0.017615
3812.5790, 0.017500
3814.5070, 0.017363
3816.4360, 0.016879
3818.3640, 0.016542
3820.2920, 0.017986
3822.2210, 0.018948
3824.1490, 0.018786
3826.0780, 0.018422
3828.0060, 0.017102
3829.9350, 0.016614
3831.8630, 0.017033
3833.7920, 0.017358
3835.7200, 0.017345
3837.6490, 0.017769
3839.5770, 0.018827
3841.5060, 0.018752
3843.4340, 0.017833
3845.3630, 0.018221
3847.2910, 0.019458
3849.2190, 0.020785
3851.1480, 0.020000
3853.0760, 0.019501
3855.0050, 0.019477
3856.9330, 0.018659
3858.8620, 0.017409
3860.7900, 0.017371
3862.7190, 0.017712
3864.6470, 0.016622
3866.5760, 0.017061
3868.5040, 0.017852
3870.4330, 0.018101
3872.3610, 0.018354
3874.2900, 0.018282
3876.2180, 0.018071
3878.1460, 0.019281
3880.0750, 0.019942
3882.0030, 0.019898
3883.9320, 0.019961
3885.8600, 0.018998
3887.7890, 0.017273
3889.7170, 0.017165
3891.6460, 0.017546
3893.5740, 0.017728
3895.5030, 0.017377
3897.4310, 0.018455
3899.3600, 0.019063
3901.2880, 0.017744
3903.2170, 0.017540
3905.1450, 0.018396
3907.0730, 0.019120
3909.0020, 0.019631
3910.9300, 0.018882
3912.8590, 0.017932
3914.7870, 0.019759
3916.7160, 0.019833
3918.6440, 0.018733
3920.5730, 0.018836
3922.5010, 0.018525
3924.4300, 0.018444
3926.3580, 0.018229
3928.2870, 0.018132
3930.2150, 0.018765
3932.1440, 0.018581
3934.0720, 0.017825
3936.0000, 0.018642
3937.9290, 0.020055
3939.8570, 0.020700
3941.7860, 0.020462
3943.7140, 0.019542
3945.6430, 0.018887
3947.5710, 0.019349
3949.5000, 0.018728
3951.4280, 0.018320
3953.3570, 0.018579
3955.2850, 0.018332
3957.2140, 0.018507
3959.1420, 0.018033
3961.0710, 0.017053
3962.9990, 0.017637
3964.9270, 0.019507
3966.8560, 0.019596
3968.7840, 0.018004
3970.7130, 0.018484
3972.6410, 0.018557
3974.5700, 0.017637
3976.4980, 0.019120
3978.4270, 0.019933
3980.3550, 0.019351
3982.2840, 0.019981
3984.2120, 0.020447
3986.1410, 0.019918
3988.0690, 0.019875
3989.9980, 0.019733
3991.9260, 0.019193
3993.8540, 0.019100
3995.7830, 0.018900
3997.7110, 0.018879
3999.6400, 0.018888
##END=



