##NAMES=Adamite
##RRUFFID=R050020
##IDEAL CHEMISTRY=Zn^2+^_2_As^5+^O_4_(OH)
##LOCALITY=Mina Ojuela, Mapimi, Durango, Mexico
##OWNER=RRUFF
##SOURCE=Eugene Schlepp
##DESCRIPTION=Light green prismatic crystal
##STATUS=The identification of this mineral has been confirmed by X-ray diffraction and chemical analysis
##URL=rruff.info/R050020
##MEASURED CHEMISTRY=(Zn_1.97_Cu_0.03_)_Σ=2_((As_0.98_P_0.02_)_Σ=1_O_4_)(OH)
3.991926e+002, 0.000000e+000
4.011211e+002, 8.716977e-002
4.030496e+002, 8.747957e-002
4.049780e+002, 8.085896e-002
4.069065e+002, 7.243303e-002
4.088350e+002, 6.674480e-002
4.107634e+002, 6.231488e-002
4.126919e+002, 5.851322e-002
4.146204e+002, 5.223473e-002
4.165488e+002, 4.584406e-002
4.184773e+002, 4.158599e-002
4.204058e+002, 4.121392e-002
4.223342e+002, 4.057360e-002
4.242627e+002, 3.903068e-002
4.261912e+002, 3.782017e-002
4.281196e+002, 3.628028e-002
4.300481e+002, 3.571989e-002
4.319766e+002, 3.628911e-002
4.339050e+002, 3.684325e-002
4.358335e+002, 3.848178e-002
4.377620e+002, 4.058534e-002
4.396904e+002, 4.097421e-002
4.416189e+002, 4.188851e-002
4.435474e+002, 4.444613e-002
4.454758e+002, 4.843894e-002
4.474043e+002, 5.241014e-002
4.493328e+002, 5.581290e-002
4.512612e+002, 6.088363e-002
4.531897e+002, 6.644376e-002
4.551182e+002, 7.251646e-002
4.570466e+002, 7.966171e-002
4.589751e+002, 8.820684e-002
4.609036e+002, 9.724534e-002
4.628320e+002, 1.058843e-001
4.647605e+002, 1.136009e-001
4.666890e+002, 1.187463e-001
4.686174e+002, 1.204738e-001
4.705459e+002, 1.206193e-001
4.724744e+002, 1.197242e-001
4.744028e+002, 1.175493e-001
4.763313e+002, 1.138146e-001
4.782598e+002, 1.098052e-001
4.801882e+002, 1.065929e-001
4.821167e+002, 1.051628e-001
4.840452e+002, 1.052663e-001
4.859736e+002, 1.069284e-001
4.879021e+002, 1.107536e-001
4.898306e+002, 1.159104e-001
4.917590e+002, 1.211412e-001
4.936875e+002, 1.271708e-001
4.956160e+002, 1.337941e-001
4.975444e+002, 1.394944e-001
4.994729e+002, 1.438660e-001
5.014014e+002, 1.473602e-001
5.033298e+002, 1.495991e-001
5.052583e+002, 1.511481e-001
5.071868e+002, 1.523320e-001
5.091152e+002, 1.524712e-001
5.110437e+002, 1.516265e-001
5.129722e+002, 1.507962e-001
5.149006e+002, 1.504962e-001
5.168291e+002, 1.503626e-001
5.187576e+002, 1.499751e-001
5.206860e+002, 1.511250e-001
5.226145e+002, 1.533674e-001
5.245430e+002, 1.541809e-001
5.264714e+002, 1.541611e-001
5.283999e+002, 1.530138e-001
5.303284e+002, 1.493660e-001
5.322568e+002, 1.436582e-001
5.341853e+002, 1.373280e-001
5.361138e+002, 1.303618e-001
5.380422e+002, 1.233450e-001
5.399707e+002, 1.163025e-001
5.418992e+002, 1.090950e-001
5.438276e+002, 1.016781e-001
5.457561e+002, 9.429443e-002
5.476846e+002, 8.652826e-002
5.496130e+002, 7.915540e-002
5.515415e+002, 7.216763e-002
5.534700e+002, 6.479838e-002
5.553984e+002, 5.801968e-002
5.573269e+002, 5.205628e-002
5.592554e+002, 4.658127e-002
5.611838e+002, 4.220104e-002
5.631123e+002, 3.878776e-002
5.650408e+002, 3.551900e-002
5.669692e+002, 3.284793e-002
5.688977e+002, 3.046407e-002
5.708262e+002, 2.885759e-002
5.727546e+002, 2.791966e-002
5.746831e+002, 2.664722e-002
5.766116e+002, 2.540728e-002
5.785400e+002, 2.456167e-002
5.804685e+002, 2.356222e-002
5.823970e+002, 2.275367e-002
5.843254e+002, 2.188819e-002
5.862539e+002, 2.091464e-002
5.881824e+002, 2.008364e-002
5.901108e+002, 1.999534e-002
5.920393e+002, 1.984425e-002
5.939678e+002, 1.944670e-002
5.958962e+002, 1.926919e-002
5.978247e+002, 1.932908e-002
5.997532e+002, 1.903544e-002
6.016816e+002, 1.867040e-002
6.036101e+002, 1.893772e-002
6.055386e+002, 1.906271e-002
6.074670e+002, 1.927944e-002
6.093955e+002, 1.943770e-002
6.113240e+002, 1.920628e-002
6.132524e+002, 1.918089e-002
6.151809e+002, 1.943659e-002
6.171094e+002, 1.997996e-002
6.190378e+002, 2.076412e-002
6.209663e+002, 2.150027e-002
6.228948e+002, 2.233885e-002
6.248232e+002, 2.386023e-002
6.267517e+002, 2.512512e-002
6.286802e+002, 2.503297e-002
6.306086e+002, 2.377252e-002
6.325371e+002, 2.293607e-002
6.344656e+002, 2.275273e-002
6.363940e+002, 2.235661e-002
6.383225e+002, 2.208784e-002
6.402510e+002, 2.222140e-002
6.421794e+002, 2.271530e-002
6.441079e+002, 2.344088e-002
6.460364e+002, 2.398572e-002
6.479648e+002, 2.454636e-002
6.498933e+002, 2.517083e-002
6.518218e+002, 2.593428e-002
6.537502e+002, 2.680239e-002
6.556787e+002, 2.746164e-002
6.576072e+002, 2.803817e-002
6.595356e+002, 2.877974e-002
6.614641e+002, 2.985542e-002
6.633926e+002, 3.074957e-002
6.653210e+002, 3.180682e-002
6.672495e+002, 3.319515e-002
6.691780e+002, 3.430482e-002
6.711064e+002, 3.531099e-002
6.730349e+002, 3.634521e-002
6.749634e+002, 3.739801e-002
6.768918e+002, 3.854539e-002
6.788203e+002, 3.979465e-002
6.807488e+002, 4.098399e-002
6.826772e+002, 4.235088e-002
6.846057e+002, 4.406938e-002
6.865342e+002, 4.592663e-002
6.884626e+002, 4.775573e-002
6.903911e+002, 4.944843e-002
6.923196e+002, 5.118572e-002
6.942480e+002, 5.320624e-002
6.961765e+002, 5.553126e-002
6.981050e+002, 5.793343e-002
7.000334e+002, 6.038810e-002
7.019619e+002, 6.306912e-002
7.038904e+002, 6.615640e-002
7.058188e+002, 6.929072e-002
7.077473e+002, 7.280090e-002
7.096758e+002, 7.679019e-002
7.116042e+002, 8.091609e-002
7.135327e+002, 8.529291e-002
7.154612e+002, 9.048726e-002
7.173896e+002, 9.617712e-002
7.193181e+002, 1.017064e-001
7.212466e+002, 1.075927e-001
7.231750e+002, 1.144455e-001
7.251035e+002, 1.214892e-001
7.270320e+002, 1.277671e-001
7.289604e+002, 1.329275e-001
7.308889e+002, 1.367760e-001
7.328174e+002, 1.384129e-001
7.347458e+002, 1.377541e-001
7.366743e+002, 1.362354e-001
7.386028e+002, 1.364547e-001
7.405313e+002, 1.388857e-001
7.424597e+002, 1.432444e-001
7.443882e+002, 1.494805e-001
7.463167e+002, 1.568970e-001
7.482451e+002, 1.648270e-001
7.501736e+002, 1.733917e-001
7.521021e+002, 1.824085e-001
7.540305e+002, 1.918515e-001
7.559590e+002, 2.011438e-001
7.578875e+002, 2.102991e-001
7.598159e+002, 2.196856e-001
7.617444e+002, 2.290816e-001
7.636729e+002, 2.384431e-001
7.656013e+002, 2.479647e-001
7.675298e+002, 2.573628e-001
7.694583e+002, 2.665766e-001
7.713867e+002, 2.756191e-001
7.733152e+002, 2.845424e-001
7.752437e+002, 2.929881e-001
7.771721e+002, 3.012575e-001
7.791006e+002, 3.094923e-001
7.810291e+002, 3.167602e-001
7.829575e+002, 3.231942e-001
7.848860e+002, 3.289110e-001
7.868145e+002, 3.330143e-001
7.887429e+002, 3.356267e-001
7.906714e+002, 3.369888e-001
7.925999e+002, 3.363439e-001
7.945283e+002, 3.336523e-001
7.964568e+002, 3.303276e-001
7.983853e+002, 3.260750e-001
8.003137e+002, 3.209893e-001
8.022422e+002, 3.155563e-001
8.041707e+002, 3.106217e-001
8.060991e+002, 3.062521e-001
8.080276e+002, 3.028055e-001
8.099561e+002, 3.017519e-001
8.118845e+002, 3.031518e-001
8.138130e+002, 3.048056e-001
8.157415e+002, 3.042318e-001
8.176699e+002, 2.994032e-001
8.195984e+002, 2.902334e-001
8.215269e+002, 2.789449e-001
8.234553e+002, 2.672040e-001
8.253838e+002, 2.556057e-001
8.273123e+002, 2.444549e-001
8.292407e+002, 2.331977e-001
8.311692e+002, 2.221319e-001
8.330977e+002, 2.121142e-001
8.350261e+002, 2.035179e-001
8.369546e+002, 1.960292e-001
8.388831e+002, 1.888540e-001
8.408115e+002, 1.805632e-001
8.427400e+002, 1.713786e-001
8.446685e+002, 1.621336e-001
8.465969e+002, 1.530987e-001
8.485254e+002, 1.442707e-001
8.504539e+002, 1.356427e-001
8.523823e+002, 1.272745e-001
8.543108e+002, 1.191624e-001
8.562393e+002, 1.112715e-001
8.581677e+002, 1.039372e-001
8.600962e+002, 9.715092e-002
8.620247e+002, 9.143324e-002
8.639531e+002, 8.674157e-002
8.658816e+002, 8.311766e-002
8.678101e+002, 8.086930e-002
8.697385e+002, 8.002503e-002
8.716670e+002, 8.028691e-002
8.735955e+002, 8.118856e-002
8.755239e+002, 8.272164e-002
8.774524e+002, 8.437122e-002
8.793809e+002, 8.575315e-002
8.813093e+002, 8.666079e-002
8.832378e+002, 8.720896e-002
8.851663e+002, 8.734449e-002
8.870947e+002, 8.683156e-002
8.890232e+002, 8.560012e-002
8.909517e+002, 8.363756e-002
8.928801e+002, 8.101647e-002
8.948085e+002, 7.772227e-002
8.967370e+002, 7.400384e-002
8.986655e+002, 7.025834e-002
9.005939e+002, 6.623190e-002
9.025224e+002, 6.192143e-002
9.044509e+002, 5.783426e-002
9.063793e+002, 5.383375e-002
9.083078e+002, 4.979385e-002
9.102363e+002, 4.581379e-002
9.121647e+002, 4.210518e-002
9.140932e+002, 3.875376e-002
9.160217e+002, 3.541600e-002
9.179501e+002, 3.228902e-002
9.198786e+002, 2.961494e-002
9.218071e+002, 2.722732e-002
9.237355e+002, 2.532485e-002
9.256640e+002, 2.379303e-002
9.275925e+002, 2.215432e-002
9.295209e+002, 2.081906e-002
9.314494e+002, 1.974443e-002
9.333779e+002, 1.862329e-002
9.353063e+002, 1.780164e-002
9.372348e+002, 1.714971e-002
9.391633e+002, 1.650506e-002
9.410917e+002, 1.587607e-002
9.430202e+002, 1.534219e-002
9.449487e+002, 1.478890e-002
9.468771e+002, 1.431312e-002
9.488056e+002, 1.377222e-002
9.507341e+002, 1.331948e-002
9.526625e+002, 1.283871e-002
9.545910e+002, 1.256231e-002
9.565195e+002, 1.240913e-002
9.584479e+002, 1.206031e-002
9.603764e+002, 1.155127e-002
9.623049e+002, 1.122199e-002
9.642333e+002, 1.115083e-002
9.661618e+002, 1.106682e-002
9.680903e+002, 1.086281e-002
9.700187e+002, 1.070544e-002
9.719472e+002, 1.076338e-002
9.738757e+002, 1.071714e-002
9.758041e+002, 1.046376e-002
9.777326e+002, 1.043924e-002
9.796611e+002, 1.060954e-002
9.815895e+002, 1.044184e-002
9.835180e+002, 1.026803e-002
9.854465e+002, 1.038522e-002
9.873749e+002, 1.066504e-002
9.893034e+002, 1.071570e-002
9.912319e+002, 1.088333e-002
9.931603e+002, 1.112159e-002
9.950888e+002, 1.115507e-002
9.970173e+002, 1.142790e-002
9.989457e+002, 1.158722e-002
1.000874e+003, 1.169490e-002
1.002803e+003, 1.208693e-002
1.004731e+003, 1.262111e-002
1.006660e+003, 1.332345e-002
1.008588e+003, 1.403908e-002
1.010517e+003, 1.485805e-002
1.012445e+003, 1.610640e-002
1.014373e+003, 1.809475e-002
1.016302e+003, 2.023052e-002
1.018230e+003, 2.136078e-002
1.020159e+003, 2.100872e-002
1.022087e+003, 1.992933e-002
1.024016e+003, 1.897254e-002
1.025944e+003, 1.837074e-002
1.027873e+003, 1.804974e-002
1.029801e+003, 1.757698e-002
1.031730e+003, 1.694451e-002
1.033658e+003, 1.672146e-002
1.035587e+003, 1.713956e-002
1.037515e+003, 1.769129e-002
1.039444e+003, 1.772230e-002
1.041372e+003, 1.668323e-002
1.043301e+003, 1.535461e-002
1.045229e+003, 1.431539e-002
1.047157e+003, 1.347604e-002
1.049086e+003, 1.268564e-002
1.051014e+003, 1.197186e-002
1.052943e+003, 1.160710e-002
1.054871e+003, 1.145484e-002
1.056800e+003, 1.115814e-002
1.058728e+003, 1.073894e-002
1.060657e+003, 1.027763e-002
1.062585e+003, 1.001125e-002
1.064514e+003, 9.824138e-003
1.066442e+003, 9.516883e-003
1.068371e+003, 9.436821e-003
1.070299e+003, 9.440181e-003
1.072228e+003, 9.147528e-003
1.074156e+003, 8.953983e-003
1.076084e+003, 8.969429e-003
1.078013e+003, 8.917470e-003
1.079941e+003, 8.819572e-003
1.081870e+003, 8.756354e-003
1.083798e+003, 8.601179e-003
1.085727e+003, 8.245578e-003
1.087655e+003, 7.911823e-003
1.089584e+003, 7.816681e-003
1.091512e+003, 7.728601e-003
1.093441e+003, 7.432769e-003
1.095369e+003, 7.334549e-003
1.097298e+003, 7.165395e-003
1.099226e+003, 6.956091e-003
1.101155e+003, 6.841045e-003
1.103083e+003, 6.891671e-003
1.105011e+003, 6.659617e-003
1.106940e+003, 6.483975e-003
1.108868e+003, 6.550555e-003
1.110797e+003, 6.615501e-003
1.112725e+003, 6.636017e-003
1.114654e+003, 6.593142e-003
1.116582e+003, 6.545024e-003
1.118511e+003, 6.688355e-003
1.120439e+003, 6.785193e-003
1.122368e+003, 6.812693e-003
1.124296e+003, 6.879997e-003
1.126225e+003, 6.986589e-003
1.128153e+003, 6.833398e-003
1.130082e+003, 6.700907e-003
1.132010e+003, 6.669831e-003
1.133938e+003, 6.565770e-003
1.135867e+003, 6.625666e-003
1.137795e+003, 6.619110e-003
1.139724e+003, 6.462279e-003
1.141652e+003, 6.550075e-003
1.143581e+003, 6.604993e-003
1.145509e+003, 6.502309e-003
1.147438e+003, 6.419822e-003
1.149366e+003, 6.576229e-003
1.151295e+003, 6.819441e-003
1.153223e+003, 6.700363e-003
1.155152e+003, 6.469434e-003
1.157080e+003, 6.506753e-003
1.159009e+003, 6.532935e-003
1.160937e+003, 6.474490e-003
1.162865e+003, 6.603751e-003
1.164794e+003, 6.794071e-003
1.166722e+003, 6.736788e-003
1.168651e+003, 6.643894e-003
1.170579e+003, 6.755588e-003
1.172508e+003, 6.745200e-003
1.174436e+003, 6.642300e-003
1.176365e+003, 6.524993e-003
1.178293e+003, 6.652995e-003
1.180222e+003, 6.861755e-003
1.182150e+003, 6.754105e-003
1.184079e+003, 6.819956e-003
1.186007e+003, 6.826557e-003
1.187936e+003, 6.833293e-003
1.189864e+003, 7.023876e-003
1.191792e+003, 7.150245e-003
1.193721e+003, 7.157804e-003
1.195649e+003, 7.232234e-003
1.197578e+003, 7.178883e-003
1.199506e+003, 7.004605e-003
1.201435e+003, 7.026128e-003
1.203363e+003, 7.100901e-003
1.205292e+003, 7.283682e-003
1.207220e+003, 7.551649e-003
1.209149e+003, 7.550977e-003
1.211077e+003, 7.355126e-003
1.213006e+003, 7.435352e-003
1.214934e+003, 7.438984e-003
1.216863e+003, 7.390165e-003
1.218791e+003, 7.385417e-003
1.220719e+003, 7.353102e-003
1.222648e+003, 7.269497e-003
1.224576e+003, 7.244594e-003
1.226505e+003, 7.202055e-003
1.228433e+003, 7.300363e-003
1.230362e+003, 7.483874e-003
1.232290e+003, 7.383558e-003
1.234219e+003, 7.403425e-003
1.236147e+003, 7.504156e-003
1.238076e+003, 7.607676e-003
1.240004e+003, 7.874219e-003
1.241933e+003, 7.902569e-003
1.243861e+003, 7.696802e-003
1.245790e+003, 7.603092e-003
1.247718e+003, 7.596899e-003
1.249646e+003, 7.673502e-003
1.251575e+003, 7.824490e-003
1.253503e+003, 7.992586e-003
1.255432e+003, 7.991491e-003
1.257360e+003, 7.892517e-003
1.259289e+003, 7.823892e-003
1.261217e+003, 7.988464e-003
1.263146e+003, 8.086372e-003
1.265074e+003, 8.063412e-003
1.267003e+003, 7.965786e-003
1.268931e+003, 8.112923e-003
1.270860e+003, 8.151090e-003
1.272788e+003, 8.056708e-003
1.274717e+003, 8.023340e-003
1.276645e+003, 8.076611e-003
1.278573e+003, 8.306392e-003
1.280502e+003, 8.615132e-003
1.282430e+003, 8.688126e-003
1.284359e+003, 8.516318e-003
1.286287e+003, 8.504476e-003
1.288216e+003, 8.694897e-003
1.290144e+003, 8.723842e-003
1.292073e+003, 8.695319e-003
1.294001e+003, 8.645492e-003
1.295930e+003, 8.635993e-003
1.297858e+003, 8.655334e-003
1.299787e+003, 8.704066e-003
1.301715e+003, 8.784087e-003
1.303644e+003, 8.839841e-003
1.305572e+003, 8.986292e-003
1.307500e+003, 9.050647e-003
1.309429e+003, 8.953086e-003
1.311357e+003, 8.884098e-003
1.313286e+003, 9.177049e-003
1.315214e+003, 9.356906e-003
1.317143e+003, 9.249841e-003
1.319071e+003, 9.276729e-003
1.321000e+003, 9.390516e-003
1.322928e+003, 9.483640e-003
1.324857e+003, 9.486963e-003
1.326785e+003, 9.492983e-003
1.328714e+003, 9.511122e-003
1.330642e+003, 9.609746e-003
1.332571e+003, 9.870483e-003
1.334499e+003, 1.001812e-002
1.336427e+003, 9.844957e-003
1.338356e+003, 9.810523e-003
1.340284e+003, 9.936133e-003
1.342213e+003, 9.910508e-003
1.344141e+003, 1.002811e-002
1.346070e+003, 1.019969e-002
1.347998e+003, 1.028778e-002
1.349927e+003, 1.036781e-002
1.351855e+003, 1.045182e-002
1.353784e+003, 1.044253e-002
1.355712e+003, 1.069715e-002
1.357641e+003, 1.092856e-002
1.359569e+003, 1.081699e-002
1.361498e+003, 1.082293e-002
1.363426e+003, 1.125739e-002
1.365354e+003, 1.163262e-002
1.367283e+003, 1.162901e-002
1.369211e+003, 1.151332e-002
1.371140e+003, 1.140441e-002
1.373068e+003, 1.146987e-002
1.374997e+003, 1.182471e-002
1.376925e+003, 1.185127e-002
1.378854e+003, 1.215048e-002
1.380782e+003, 1.224805e-002
1.382711e+003, 1.237196e-002
1.384639e+003, 1.250199e-002
1.386568e+003, 1.239384e-002
1.388496e+003, 1.307476e-002
1.390424e+003, 1.302489e-002
1.392353e+003, 1.304278e-002
1.394281e+003, 1.318009e-002
1.396210e+003, 1.413684e-002
1.398138e+003, 1.432263e-002
1.400067e+003, 1.512312e-002
1.401995e+003, 1.523132e-002
1.403924e+003, 1.568413e-002
1.405852e+003, 1.668321e-002
1.407781e+003, 1.728595e-002
1.409709e+003, 1.769621e-002
1.411638e+003, 1.787491e-002
1.413566e+003, 1.822327e-002
1.415495e+003, 1.836236e-002
1.417423e+003, 1.812631e-002
1.419351e+003, 1.851653e-002
1.421280e+003, 1.927444e-002
1.423208e+003, 1.962572e-002
1.425137e+003, 2.031442e-002
1.427065e+003, 2.063155e-002
1.428994e+003, 2.087021e-002
1.430922e+003, 2.166792e-002
1.432851e+003, 2.190026e-002
1.434779e+003, 2.141782e-002
1.436708e+003, 2.172794e-002
1.438636e+003, 2.261031e-002
1.440565e+003, 2.293716e-002
1.442493e+003, 2.316105e-002
1.444422e+003, 2.315762e-002
1.446350e+003, 2.305568e-002
1.448278e+003, 2.329924e-002
1.450207e+003, 2.324083e-002
1.452135e+003, 2.325935e-002
1.454064e+003, 2.264299e-002
1.455992e+003, 2.118829e-002
1.457921e+003, 2.270728e-002
1.459849e+003, 2.296861e-002
1.461778e+003, 2.262312e-002
1.463706e+003, 2.192997e-002
1.465635e+003, 2.239293e-002
1.467563e+003, 2.178571e-002
1.469492e+003, 2.133414e-002
1.471420e+003, 2.019975e-002
1.473349e+003, 2.040898e-002
1.475277e+003, 2.011318e-002
1.477205e+003, 2.039186e-002
1.479134e+003, 1.984123e-002
1.481062e+003, 1.955522e-002
1.482991e+003, 1.921023e-002
1.484919e+003, 1.849826e-002
1.486848e+003, 1.784281e-002
1.488776e+003, 1.737448e-002
1.490705e+003, 1.757498e-002
1.492633e+003, 1.723126e-002
1.494562e+003, 1.622061e-002
1.496490e+003, 1.604367e-002
1.498419e+003, 1.578943e-002
1.500347e+003, 1.600758e-002
1.502276e+003, 1.546478e-002
1.504204e+003, 1.383862e-002
1.506132e+003, 1.324163e-002
1.508061e+003, 1.446194e-002
1.509989e+003, 1.452219e-002
1.511918e+003, 1.405252e-002
1.513846e+003, 1.387235e-002
1.515775e+003, 1.346820e-002
1.517703e+003, 1.384188e-002
1.519632e+003, 1.235081e-002
1.521560e+003, 1.291472e-002
1.523489e+003, 1.319820e-002
1.525417e+003, 1.324129e-002
1.527346e+003, 1.358450e-002
1.529274e+003, 1.372477e-002
1.531203e+003, 1.310162e-002
1.533131e+003, 1.279921e-002
1.535059e+003, 1.371376e-002
1.536988e+003, 1.239116e-002
1.538916e+003, 1.106631e-002
1.540845e+003, 1.223596e-002
1.542773e+003, 1.326824e-002
1.544702e+003, 1.334076e-002
1.546630e+003, 1.411661e-002
1.548559e+003, 1.367653e-002
1.550487e+003, 1.381680e-002
1.552416e+003, 1.309288e-002
1.554344e+003, 1.330000e-002
1.556273e+003, 1.251305e-002
1.558201e+003, 1.170583e-002
1.560130e+003, 1.332054e-002
1.562058e+003, 1.431380e-002
1.563986e+003, 1.457451e-002
1.565915e+003, 1.491502e-002
1.567843e+003, 1.403736e-002
1.569772e+003, 1.421279e-002
1.571700e+003, 1.451608e-002
1.573629e+003, 1.392757e-002
1.575557e+003, 1.269304e-002
1.577486e+003, 1.475772e-002
1.579414e+003, 1.513484e-002
1.581343e+003, 1.532045e-002
1.583271e+003, 1.528449e-002
1.585200e+003, 1.524145e-002
1.587128e+003, 1.539790e-002
1.589057e+003, 1.555226e-002
1.590985e+003, 1.564072e-002
1.592913e+003, 1.562917e-002
1.594842e+003, 1.567885e-002
1.596770e+003, 1.565735e-002
1.598699e+003, 1.567997e-002
1.600627e+003, 1.576867e-002
1.602556e+003, 1.582647e-002
1.604484e+003, 1.588713e-002
1.606413e+003, 1.583327e-002
1.608341e+003, 1.585463e-002
1.610270e+003, 1.603770e-002
1.612198e+003, 1.621686e-002
1.614127e+003, 1.574612e-002
1.616055e+003, 1.450557e-002
1.617984e+003, 1.614924e-002
1.619912e+003, 1.611428e-002
1.621840e+003, 1.578899e-002
1.623769e+003, 1.607455e-002
1.625697e+003, 1.590374e-002
1.627626e+003, 1.597512e-002
1.629554e+003, 1.609087e-002
1.631483e+003, 1.616592e-002
1.633411e+003, 1.526442e-002
1.635340e+003, 1.470972e-002
1.637268e+003, 1.571898e-002
1.639197e+003, 1.594250e-002
1.641125e+003, 1.589863e-002
1.643054e+003, 1.592160e-002
1.644982e+003, 1.437953e-002
1.646911e+003, 1.497234e-002
1.648839e+003, 1.557053e-002
1.650767e+003, 1.363618e-002
1.652696e+003, 1.235398e-002
1.654624e+003, 1.519557e-002
1.656553e+003, 1.549984e-002
1.658481e+003, 1.556302e-002
1.660410e+003, 1.534998e-002
1.662338e+003, 1.539487e-002
1.664267e+003, 1.599433e-002
1.666195e+003, 1.548970e-002
1.668124e+003, 1.491249e-002
1.670052e+003, 1.559032e-002
1.671981e+003, 1.530618e-002
1.673909e+003, 1.431661e-002
1.675838e+003, 1.523878e-002
1.677766e+003, 1.524360e-002
1.679694e+003, 1.501478e-002
1.681623e+003, 1.423270e-002
1.683551e+003, 1.252716e-002
1.685480e+003, 1.450824e-002
1.687408e+003, 1.448453e-002
1.689337e+003, 1.536954e-002
1.691265e+003, 1.581392e-002
1.693194e+003, 1.503737e-002
1.695122e+003, 1.298658e-002
1.697051e+003, 1.442922e-002
1.698979e+003, 1.278801e-002
1.700908e+003, 1.537896e-002
1.702836e+003, 1.519375e-002
1.704765e+003, 1.573100e-002
1.706693e+003, 1.606245e-002
1.708621e+003, 1.566435e-002
1.710550e+003, 1.571524e-002
1.712478e+003, 1.531511e-002
1.714407e+003, 1.487446e-002
1.716335e+003, 1.362208e-002
1.718264e+003, 1.481084e-002
1.720192e+003, 1.562305e-002
1.722121e+003, 1.541565e-002
1.724049e+003, 1.526322e-002
1.725978e+003, 1.528508e-002
1.727906e+003, 1.501275e-002
1.729835e+003, 1.469171e-002
1.731763e+003, 1.349721e-002
1.733692e+003, 1.267801e-002
1.735620e+003, 1.431968e-002
1.737548e+003, 1.375449e-002
1.739477e+003, 1.354503e-002
1.741405e+003, 1.399902e-002
1.743334e+003, 1.403410e-002
1.745262e+003, 1.448023e-002
1.747191e+003, 1.438335e-002
1.749119e+003, 1.392990e-002
1.751048e+003, 1.375936e-002
1.752976e+003, 1.472026e-002
1.754905e+003, 1.426190e-002
1.756833e+003, 1.435486e-002
1.758762e+003, 1.469116e-002
1.760690e+003, 1.450490e-002
1.762619e+003, 1.520403e-002
1.764547e+003, 1.481774e-002
1.766475e+003, 1.466235e-002
1.768404e+003, 1.484007e-002
1.770332e+003, 1.426878e-002
1.772261e+003, 1.447885e-002
1.774189e+003, 1.517340e-002
1.776118e+003, 1.503721e-002
1.778046e+003, 1.482923e-002
1.779975e+003, 1.483188e-002
1.781903e+003, 1.524178e-002
1.783832e+003, 1.500205e-002
1.785760e+003, 1.501663e-002
1.787689e+003, 1.476132e-002
1.789617e+003, 1.477489e-002
1.791546e+003, 1.478447e-002
1.793474e+003, 1.546189e-002
1.795402e+003, 1.511957e-002
1.797331e+003, 1.483993e-002
1.799259e+003, 1.474205e-002
1.801188e+003, 1.551350e-002
1.803116e+003, 1.595785e-002
1.805045e+003, 1.577032e-002
1.806973e+003, 1.591379e-002
1.808902e+003, 1.557433e-002
1.810830e+003, 1.522111e-002
1.812759e+003, 1.537981e-002
1.814687e+003, 1.569773e-002
1.816616e+003, 1.590928e-002
1.818544e+003, 1.621386e-002
1.820473e+003, 1.608177e-002
1.822401e+003, 1.603516e-002
1.824329e+003, 1.589118e-002
1.826258e+003, 1.638685e-002
1.828186e+003, 1.538415e-002
1.830115e+003, 1.577234e-002
1.832043e+003, 1.601272e-002
1.833972e+003, 1.592983e-002
1.835900e+003, 1.587007e-002
1.837829e+003, 1.618332e-002
1.839757e+003, 1.641078e-002
1.841686e+003, 1.621096e-002
1.843614e+003, 1.536978e-002
1.845543e+003, 1.636928e-002
1.847471e+003, 1.627596e-002
1.849400e+003, 1.663413e-002
1.851328e+003, 1.667189e-002
1.853256e+003, 1.688605e-002
1.855185e+003, 1.701448e-002
1.857113e+003, 1.679383e-002
1.859042e+003, 1.670457e-002
1.860970e+003, 1.718469e-002
1.862899e+003, 1.748290e-002
1.864827e+003, 1.744094e-002
1.866756e+003, 1.753011e-002
1.868684e+003, 1.737503e-002
1.870613e+003, 1.708197e-002
1.872541e+003, 1.658485e-002
1.874470e+003, 1.695684e-002
1.876398e+003, 1.729752e-002
1.878327e+003, 1.700157e-002
1.880255e+003, 1.713990e-002
1.882183e+003, 1.772843e-002
1.884112e+003, 1.812098e-002
1.886040e+003, 1.755323e-002
1.887969e+003, 1.720275e-002
1.889897e+003, 1.801596e-002
1.891826e+003, 1.839779e-002
1.893754e+003, 1.781287e-002
1.895683e+003, 1.749286e-002
1.897611e+003, 1.738644e-002
1.899540e+003, 1.764453e-002
1.901468e+003, 1.802319e-002
1.903397e+003, 1.795956e-002
1.905325e+003, 1.809452e-002
1.907254e+003, 1.855791e-002
1.909182e+003, 1.761504e-002
1.911110e+003, 1.717606e-002
1.913039e+003, 1.779537e-002
1.914967e+003, 1.852192e-002
1.916896e+003, 1.744668e-002
1.918824e+003, 1.749229e-002
1.920753e+003, 1.804381e-002
1.922681e+003, 1.898670e-002
1.924610e+003, 1.894604e-002
1.926538e+003, 1.945351e-002
1.928467e+003, 1.916613e-002
1.930395e+003, 1.771071e-002
1.932324e+003, 1.757064e-002
1.934252e+003, 1.845147e-002
1.936181e+003, 1.917427e-002
1.938109e+003, 2.026827e-002
1.940037e+003, 2.001998e-002
1.941966e+003, 1.848118e-002
1.943894e+003, 1.865617e-002
1.945823e+003, 1.811228e-002
1.947751e+003, 1.783635e-002
1.949680e+003, 1.848678e-002
1.951608e+003, 1.920583e-002
1.953537e+003, 1.992185e-002
1.955465e+003, 1.999608e-002
1.957394e+003, 2.059426e-002
1.959322e+003, 2.079940e-002
1.961251e+003, 2.190603e-002
1.963179e+003, 2.315330e-002
1.965108e+003, 2.304570e-002
1.967036e+003, 2.245316e-002
1.968964e+003, 2.190214e-002
1.970893e+003, 2.255146e-002
1.972821e+003, 2.344209e-002
1.974750e+003, 2.427182e-002
1.976678e+003, 2.413752e-002
1.978607e+003, 2.352817e-002
1.980535e+003, 2.280763e-002
1.982464e+003, 2.330668e-002
1.984392e+003, 2.422866e-002
1.986321e+003, 2.311616e-002
1.988249e+003, 2.155807e-002
1.990178e+003, 2.105453e-002
1.992106e+003, 2.296582e-002
1.994035e+003, 2.370821e-002
1.995963e+003, 2.219002e-002
1.997891e+003, 1.937780e-002
1.999820e+003, 1.926279e-002
2.001748e+003, 2.065279e-002
2.003677e+003, 2.167737e-002
2.005605e+003, 2.238559e-002
2.007534e+003, 2.278922e-002
2.009462e+003, 2.245850e-002
2.011391e+003, 2.240299e-002
2.013319e+003, 2.262344e-002
2.015248e+003, 2.263574e-002
2.017176e+003, 2.313491e-002
2.019105e+003, 2.321372e-002
2.021033e+003, 2.221783e-002
2.022962e+003, 2.025819e-002
2.024890e+003, 2.015061e-002
2.026818e+003, 2.293045e-002
2.028747e+003, 2.400896e-002
2.030675e+003, 2.347972e-002
2.032604e+003, 2.226696e-002
2.034532e+003, 2.148248e-002
2.036461e+003, 2.283417e-002
2.038389e+003, 2.491089e-002
2.040318e+003, 2.374404e-002
2.042246e+003, 2.281324e-002
2.044175e+003, 2.318761e-002
2.046103e+003, 2.255115e-002
2.048032e+003, 2.145285e-002
2.049960e+003, 2.189819e-002
2.051889e+003, 2.119832e-002
2.053817e+003, 2.080938e-002
2.055746e+003, 2.214469e-002
2.057674e+003, 2.194556e-002
2.059603e+003, 2.070779e-002
2.061531e+003, 2.130211e-002
2.063459e+003, 2.142267e-002
2.065388e+003, 2.039115e-002
2.067316e+003, 2.201736e-002
2.069245e+003, 2.257302e-002
2.071173e+003, 2.160751e-002
2.073102e+003, 2.231021e-002
2.075030e+003, 2.298479e-002
2.076959e+003, 2.260689e-002
2.078887e+003, 2.161362e-002
2.080816e+003, 2.096802e-002
2.082744e+003, 2.148506e-002
2.084673e+003, 2.147633e-002
2.086601e+003, 2.061606e-002
2.088530e+003, 2.022192e-002
2.090458e+003, 2.049609e-002
2.092386e+003, 1.998883e-002
2.094315e+003, 1.992988e-002
2.096243e+003, 1.994008e-002
2.098172e+003, 2.111245e-002
2.100100e+003, 2.202148e-002
2.102029e+003, 2.147246e-002
2.103957e+003, 2.033832e-002
2.105886e+003, 2.098727e-002
2.107814e+003, 2.168256e-002
2.109743e+003, 2.161464e-002
2.111671e+003, 2.200504e-002
2.113600e+003, 2.224459e-002
2.115528e+003, 2.210859e-002
2.117457e+003, 2.125590e-002
2.119385e+003, 2.117292e-002
2.121313e+003, 2.087697e-002
2.123242e+003, 2.086806e-002
2.125170e+003, 2.093786e-002
2.127099e+003, 2.072612e-002
2.129027e+003, 2.063293e-002
2.130956e+003, 2.094102e-002
2.132884e+003, 2.114467e-002
2.134813e+003, 2.149572e-002
2.136741e+003, 2.237975e-002
2.138670e+003, 2.262363e-002
2.140598e+003, 2.280052e-002
2.142527e+003, 2.263791e-002
2.144455e+003, 2.270910e-002
2.146384e+003, 2.342511e-002
2.148312e+003, 2.137084e-002
2.150240e+003, 1.947074e-002
2.152169e+003, 2.131018e-002
2.154097e+003, 2.172606e-002
2.156026e+003, 2.095679e-002
2.157954e+003, 2.428357e-002
2.159883e+003, 2.803085e-002
2.161811e+003, 2.715387e-002
2.163740e+003, 2.758341e-002
2.165668e+003, 2.781415e-002
2.167597e+003, 2.515507e-002
2.169525e+003, 2.505931e-002
2.171454e+003, 2.602793e-002
2.173382e+003, 2.534126e-002
2.175311e+003, 2.559631e-002
2.177239e+003, 2.639256e-002
2.179167e+003, 2.618776e-002
2.181096e+003, 2.685127e-002
2.183024e+003, 2.527160e-002
2.184953e+003, 2.579680e-002
2.186881e+003, 2.838075e-002
2.188810e+003, 2.763349e-002
2.190738e+003, 2.666447e-002
2.192667e+003, 2.749237e-002
2.194595e+003, 2.708442e-002
2.196524e+003, 2.578140e-002
2.198452e+003, 2.580032e-002
2.200381e+003, 2.497767e-002
2.202309e+003, 2.582447e-002
2.204238e+003, 2.521250e-002
2.206166e+003, 2.406872e-002
2.208094e+003, 2.423283e-002
2.210023e+003, 2.529166e-002
2.211951e+003, 2.607065e-002
2.213880e+003, 2.571259e-002
2.215808e+003, 2.487192e-002
2.217737e+003, 2.621006e-002
2.219665e+003, 2.673974e-002
2.221594e+003, 2.688829e-002
2.223522e+003, 2.674838e-002
2.225451e+003, 2.676027e-002
2.227379e+003, 2.646779e-002
2.229308e+003, 2.554406e-002
2.231236e+003, 2.586029e-002
2.233165e+003, 2.686925e-002
2.235093e+003, 2.554728e-002
2.237021e+003, 2.423525e-002
2.238950e+003, 2.512373e-002
2.240878e+003, 2.430759e-002
2.242807e+003, 2.333807e-002
2.244735e+003, 2.410145e-002
2.246664e+003, 2.458458e-002
2.248592e+003, 2.430967e-002
2.250521e+003, 2.477453e-002
2.252449e+003, 2.464519e-002
2.254378e+003, 2.517973e-002
2.256306e+003, 2.570565e-002
2.258235e+003, 2.535225e-002
2.260163e+003, 2.513430e-002
2.262092e+003, 2.461677e-002
2.264020e+003, 2.413788e-002
2.265948e+003, 2.377360e-002
2.267877e+003, 2.395893e-002
2.269805e+003, 2.385728e-002
2.271734e+003, 2.461919e-002
2.273662e+003, 2.550412e-002
2.275591e+003, 2.474845e-002
2.277519e+003, 2.495799e-002
2.279448e+003, 2.632474e-002
2.281376e+003, 2.610887e-002
2.283305e+003, 2.497540e-002
2.285233e+003, 2.486537e-002
2.287162e+003, 2.541143e-002
2.289090e+003, 2.601869e-002
2.291019e+003, 2.552035e-002
2.292947e+003, 2.474628e-002
2.294875e+003, 2.420273e-002
2.296804e+003, 2.393238e-002
2.298732e+003, 2.367729e-002
2.300661e+003, 2.353504e-002
2.302589e+003, 2.442002e-002
2.304518e+003, 2.559266e-002
2.306446e+003, 2.541008e-002
2.308375e+003, 2.475344e-002
2.310303e+003, 2.373769e-002
2.312232e+003, 2.389715e-002
2.314160e+003, 2.499527e-002
2.316089e+003, 2.559458e-002
2.318017e+003, 2.532124e-002
2.319946e+003, 2.535628e-002
2.321874e+003, 2.563993e-002
2.323802e+003, 2.558019e-002
2.325731e+003, 2.464879e-002
2.327659e+003, 2.431065e-002
2.329588e+003, 2.406099e-002
2.331516e+003, 2.391587e-002
2.333445e+003, 2.413253e-002
2.335373e+003, 2.413623e-002
2.337302e+003, 2.421693e-002
2.339230e+003, 2.453426e-002
2.341159e+003, 2.402074e-002
2.343087e+003, 2.366396e-002
2.345016e+003, 2.383909e-002
2.346944e+003, 2.392901e-002
2.348873e+003, 2.403591e-002
2.350801e+003, 2.380583e-002
2.352729e+003, 2.378231e-002
2.354658e+003, 2.430473e-002
2.356586e+003, 2.452995e-002
2.358515e+003, 2.446041e-002
2.360443e+003, 2.428108e-002
2.362372e+003, 2.385077e-002
2.364300e+003, 2.355180e-002
2.366229e+003, 2.350079e-002
2.368157e+003, 2.350494e-002
2.370086e+003, 2.348475e-002
2.372014e+003, 2.377664e-002
2.373942e+003, 2.386063e-002
2.375871e+003, 2.321019e-002
2.377799e+003, 2.325529e-002
2.379728e+003, 2.399582e-002
2.381656e+003, 2.451973e-002
2.383585e+003, 2.432485e-002
2.385513e+003, 2.365985e-002
2.387442e+003, 2.339396e-002
2.389370e+003, 2.411244e-002
2.391299e+003, 2.528881e-002
2.393227e+003, 2.551509e-002
2.395156e+003, 2.513500e-002
2.397084e+003, 2.492210e-002
2.399012e+003, 2.446732e-002
2.400941e+003, 2.500157e-002
2.402869e+003, 2.568751e-002
2.404798e+003, 2.547158e-002
2.406726e+003, 2.500718e-002
2.408655e+003, 2.517123e-002
2.410583e+003, 2.513083e-002
2.412512e+003, 2.466057e-002
2.414440e+003, 2.426467e-002
2.416369e+003, 2.538765e-002
2.418297e+003, 2.569018e-002
2.420226e+003, 2.538486e-002
2.422154e+003, 2.583301e-002
2.424083e+003, 2.554926e-002
2.426011e+003, 2.516954e-002
2.427939e+003, 2.536239e-002
2.429868e+003, 2.622720e-002
2.431796e+003, 2.624842e-002
2.433725e+003, 2.577584e-002
2.435653e+003, 2.571440e-002
2.437582e+003, 2.618776e-002
2.439510e+003, 2.623843e-002
2.441439e+003, 2.606564e-002
2.443367e+003, 2.601036e-002
2.445296e+003, 2.601067e-002
2.447224e+003, 2.675948e-002
2.449153e+003, 2.672221e-002
2.451081e+003, 2.683858e-002
2.453010e+003, 2.695752e-002
2.454938e+003, 2.635543e-002
2.456866e+003, 2.643558e-002
2.458795e+003, 2.658846e-002
2.460723e+003, 2.664137e-002
2.462652e+003, 2.631025e-002
2.464580e+003, 2.617324e-002
2.466509e+003, 2.632679e-002
2.468437e+003, 2.605983e-002
2.470366e+003, 2.611917e-002
2.472294e+003, 2.695673e-002
2.474223e+003, 2.699639e-002
2.476151e+003, 2.635336e-002
2.478080e+003, 2.554615e-002
2.480008e+003, 2.646438e-002
2.481937e+003, 2.790484e-002
2.483865e+003, 2.733189e-002
2.485793e+003, 2.659024e-002
2.487722e+003, 2.672008e-002
2.489650e+003, 2.576075e-002
2.491579e+003, 2.541497e-002
2.493507e+003, 2.594347e-002
2.495436e+003, 2.605180e-002
2.497364e+003, 2.689801e-002
2.499293e+003, 2.756373e-002
2.501221e+003, 2.747610e-002
2.503150e+003, 2.801068e-002
2.505078e+003, 2.736057e-002
2.507007e+003, 2.691987e-002
2.508935e+003, 2.769663e-002
2.510864e+003, 2.829842e-002
2.512792e+003, 2.750273e-002
2.514720e+003, 2.723314e-002
2.516649e+003, 2.665021e-002
2.518577e+003, 2.677851e-002
2.520506e+003, 2.721590e-002
2.522434e+003, 2.688633e-002
2.524363e+003, 2.739336e-002
2.526291e+003, 2.766663e-002
2.528220e+003, 2.664851e-002
2.530148e+003, 2.633437e-002
2.532077e+003, 2.727732e-002
2.534005e+003, 2.703225e-002
2.535934e+003, 2.678929e-002
2.537862e+003, 2.673340e-002
2.539791e+003, 2.770849e-002
2.541719e+003, 2.890964e-002
2.543647e+003, 2.880259e-002
2.545576e+003, 2.752007e-002
2.547504e+003, 2.728716e-002
2.549433e+003, 2.819084e-002
2.551361e+003, 2.850882e-002
2.553290e+003, 2.812105e-002
2.555218e+003, 2.757881e-002
2.557147e+003, 2.685834e-002
2.559075e+003, 2.721179e-002
2.561004e+003, 2.757851e-002
2.562932e+003, 2.762655e-002
2.564861e+003, 2.799584e-002
2.566789e+003, 2.763911e-002
2.568718e+003, 2.738291e-002
2.570646e+003, 2.762289e-002
2.572574e+003, 2.707861e-002
2.574503e+003, 2.698166e-002
2.576431e+003, 2.817540e-002
2.578360e+003, 2.852494e-002
2.580288e+003, 2.851203e-002
2.582217e+003, 2.867781e-002
2.584145e+003, 2.851286e-002
2.586074e+003, 2.864076e-002
2.588002e+003, 2.861734e-002
2.589931e+003, 2.825347e-002
2.591859e+003, 2.849463e-002
2.593788e+003, 2.882636e-002
2.595716e+003, 2.903301e-002
2.597645e+003, 2.906855e-002
2.599573e+003, 2.864695e-002
2.601501e+003, 2.794606e-002
2.603430e+003, 2.764112e-002
2.605358e+003, 2.829051e-002
2.607287e+003, 2.863153e-002
2.609215e+003, 2.833822e-002
2.611144e+003, 2.819194e-002
2.613072e+003, 2.816178e-002
2.615001e+003, 2.877040e-002
2.616929e+003, 2.917219e-002
2.618858e+003, 2.925400e-002
2.620786e+003, 2.943401e-002
2.622715e+003, 2.840839e-002
2.624643e+003, 2.865374e-002
2.626572e+003, 2.916910e-002
2.628500e+003, 2.867902e-002
2.630428e+003, 2.869317e-002
2.632357e+003, 2.912817e-002
2.634285e+003, 2.931154e-002
2.636214e+003, 2.900026e-002
2.638142e+003, 2.894602e-002
2.640071e+003, 2.954231e-002
2.641999e+003, 2.989838e-002
2.643928e+003, 2.924806e-002
2.645856e+003, 2.804619e-002
2.647785e+003, 2.798718e-002
2.649713e+003, 2.849835e-002
2.651642e+003, 2.896548e-002
2.653570e+003, 2.855219e-002
2.655499e+003, 2.762652e-002
2.657427e+003, 2.788281e-002
2.659355e+003, 2.856340e-002
2.661284e+003, 2.798235e-002
2.663212e+003, 2.789664e-002
2.665141e+003, 2.860195e-002
2.667069e+003, 2.856015e-002
2.668998e+003, 2.813217e-002
2.670926e+003, 2.778485e-002
2.672855e+003, 2.722221e-002
2.674783e+003, 2.727350e-002
2.676712e+003, 2.728082e-002
2.678640e+003, 2.765869e-002
2.680569e+003, 2.789007e-002
2.682497e+003, 2.741913e-002
2.684426e+003, 2.802898e-002
2.686354e+003, 2.920236e-002
2.688282e+003, 2.911700e-002
2.690211e+003, 2.837037e-002
2.692139e+003, 2.798278e-002
2.694068e+003, 2.813986e-002
2.695996e+003, 2.850839e-002
2.697925e+003, 2.847884e-002
2.699853e+003, 2.809879e-002
2.701782e+003, 2.844818e-002
2.703710e+003, 2.939519e-002
2.705639e+003, 2.943960e-002
2.707567e+003, 2.874329e-002
2.709496e+003, 2.823630e-002
2.711424e+003, 2.823431e-002
2.713353e+003, 2.835760e-002
2.715281e+003, 2.795266e-002
2.717209e+003, 2.816449e-002
2.719138e+003, 2.873787e-002
2.721066e+003, 2.904853e-002
2.722995e+003, 2.927837e-002
2.724923e+003, 2.941541e-002
2.726852e+003, 2.954262e-002
2.728780e+003, 2.907280e-002
2.730709e+003, 2.861784e-002
2.732637e+003, 2.852035e-002
2.734566e+003, 2.879619e-002
2.736494e+003, 2.892238e-002
2.738423e+003, 2.873912e-002
2.740351e+003, 2.823659e-002
2.742280e+003, 2.854504e-002
2.744208e+003, 2.970683e-002
2.746136e+003, 2.945448e-002
2.748065e+003, 2.915091e-002
2.749993e+003, 2.932812e-002
2.751922e+003, 2.927470e-002
2.753850e+003, 2.903355e-002
2.755779e+003, 2.916119e-002
2.757707e+003, 2.987973e-002
2.759636e+003, 3.011003e-002
2.761564e+003, 2.921413e-002
2.763493e+003, 2.917472e-002
2.765421e+003, 2.980059e-002
2.767350e+003, 2.980546e-002
2.769278e+003, 2.939502e-002
2.771207e+003, 2.958807e-002
2.773135e+003, 3.046088e-002
2.775063e+003, 3.073029e-002
2.776992e+003, 2.964855e-002
2.778920e+003, 2.953053e-002
2.780849e+003, 2.991100e-002
2.782777e+003, 3.042423e-002
2.784706e+003, 3.034828e-002
2.786634e+003, 2.992347e-002
2.788563e+003, 2.981138e-002
2.790491e+003, 2.995967e-002
2.792420e+003, 3.047786e-002
2.794348e+003, 3.087301e-002
2.796277e+003, 3.081071e-002
2.798205e+003, 3.028031e-002
2.800134e+003, 2.968488e-002
2.802062e+003, 3.044421e-002
2.803990e+003, 3.094758e-002
2.805919e+003, 3.008593e-002
2.807847e+003, 2.933962e-002
2.809776e+003, 3.007468e-002
2.811704e+003, 3.087375e-002
2.813633e+003, 3.093233e-002
2.815561e+003, 3.141529e-002
2.817490e+003, 3.127256e-002
2.819418e+003, 3.027855e-002
2.821347e+003, 2.911467e-002
2.823275e+003, 2.928917e-002
2.825204e+003, 3.033161e-002
2.827132e+003, 3.088301e-002
2.829061e+003, 3.032158e-002
2.830989e+003, 3.038551e-002
2.832917e+003, 3.158379e-002
2.834846e+003, 3.164931e-002
2.836774e+003, 3.092333e-002
2.838703e+003, 3.083422e-002
2.840631e+003, 3.061650e-002
2.842560e+003, 3.051419e-002
2.844488e+003, 3.045116e-002
2.846417e+003, 3.048301e-002
2.848345e+003, 3.003764e-002
2.850274e+003, 3.040652e-002
2.852202e+003, 3.124674e-002
2.854131e+003, 3.121123e-002
2.856059e+003, 3.154394e-002
2.857988e+003, 3.173220e-002
2.859916e+003, 3.117136e-002
2.861844e+003, 3.023695e-002
2.863773e+003, 3.001973e-002
2.865701e+003, 3.014873e-002
2.867630e+003, 3.071891e-002
2.869558e+003, 3.072852e-002
2.871487e+003, 3.044514e-002
2.873415e+003, 3.031548e-002
2.875344e+003, 3.048517e-002
2.877272e+003, 3.128545e-002
2.879201e+003, 3.168376e-002
2.881129e+003, 3.132585e-002
2.883058e+003, 3.087315e-002
2.884986e+003, 3.057250e-002
2.886915e+003, 3.123795e-002
2.888843e+003, 3.132109e-002
2.890771e+003, 3.098755e-002
2.892700e+003, 3.160492e-002
2.894628e+003, 3.202552e-002
2.896557e+003, 3.176012e-002
2.898485e+003, 3.200568e-002
2.900414e+003, 3.172241e-002
2.902342e+003, 3.132176e-002
2.904271e+003, 3.169867e-002
2.906199e+003, 3.263951e-002
2.908128e+003, 3.252222e-002
2.910056e+003, 3.232051e-002
2.911985e+003, 3.291697e-002
2.913913e+003, 3.168929e-002
2.915842e+003, 3.077505e-002
2.917770e+003, 3.129498e-002
2.919698e+003, 3.193193e-002
2.921627e+003, 3.160272e-002
2.923555e+003, 3.237515e-002
2.925484e+003, 3.314582e-002
2.927412e+003, 3.341527e-002
2.929341e+003, 3.223413e-002
2.931269e+003, 3.114804e-002
2.933198e+003, 3.104065e-002
2.935126e+003, 3.111911e-002
2.937055e+003, 3.124433e-002
2.938983e+003, 3.175159e-002
2.940912e+003, 3.201791e-002
2.942840e+003, 3.206914e-002
2.944769e+003, 3.166559e-002
2.946697e+003, 3.189967e-002
2.948625e+003, 3.238707e-002
2.950554e+003, 3.161173e-002
2.952482e+003, 3.160896e-002
2.954411e+003, 3.194475e-002
2.956339e+003, 3.251798e-002
2.958268e+003, 3.232889e-002
2.960196e+003, 3.157284e-002
2.962125e+003, 3.247229e-002
2.964053e+003, 3.286847e-002
2.965982e+003, 3.264899e-002
2.967910e+003, 3.204810e-002
2.969839e+003, 3.227554e-002
2.971767e+003, 3.334375e-002
2.973696e+003, 3.353879e-002
2.975624e+003, 3.343444e-002
2.977552e+003, 3.400678e-002
2.979481e+003, 3.402121e-002
2.981409e+003, 3.409703e-002
2.983338e+003, 3.377383e-002
2.985266e+003, 3.323624e-002
2.987195e+003, 3.296720e-002
2.989123e+003, 3.354204e-002
2.991052e+003, 3.377591e-002
2.992980e+003, 3.336614e-002
2.994909e+003, 3.301907e-002
2.996837e+003, 3.341175e-002
2.998766e+003, 3.444652e-002
3.000694e+003, 3.350834e-002
3.002623e+003, 3.330646e-002
3.004551e+003, 3.387388e-002
3.006479e+003, 3.330002e-002
3.008408e+003, 3.347500e-002
3.010336e+003, 3.524560e-002
3.012265e+003, 3.484261e-002
3.014193e+003, 3.401745e-002
3.016122e+003, 3.345853e-002
3.018050e+003, 3.355078e-002
3.019979e+003, 3.443195e-002
3.021907e+003, 3.360392e-002
3.023836e+003, 3.348918e-002
3.025764e+003, 3.416706e-002
3.027693e+003, 3.437112e-002
3.029621e+003, 3.410929e-002
3.031550e+003, 3.395561e-002
3.033478e+003, 3.366135e-002
3.035406e+003, 3.434930e-002
3.037335e+003, 3.383215e-002
3.039263e+003, 3.340111e-002
3.041192e+003, 3.357644e-002
3.043120e+003, 3.352484e-002
3.045049e+003, 3.367463e-002
3.046977e+003, 3.405571e-002
3.048906e+003, 3.514905e-002
3.050834e+003, 3.554114e-002
3.052763e+003, 3.398718e-002
3.054691e+003, 3.337319e-002
3.056620e+003, 3.379519e-002
3.058548e+003, 3.527766e-002
3.060477e+003, 3.605669e-002
3.062405e+003, 3.583648e-002
3.064333e+003, 3.541873e-002
3.066262e+003, 3.461938e-002
3.068190e+003, 3.609210e-002
3.070119e+003, 3.626636e-002
3.072047e+003, 3.461310e-002
3.073976e+003, 3.459262e-002
3.075904e+003, 3.619063e-002
3.077833e+003, 3.614113e-002
3.079761e+003, 3.552050e-002
3.081690e+003, 3.536125e-002
3.083618e+003, 3.492248e-002
3.085547e+003, 3.450366e-002
3.087475e+003, 3.479010e-002
3.089404e+003, 3.506343e-002
3.091332e+003, 3.612920e-002
3.093260e+003, 3.693101e-002
3.095189e+003, 3.644471e-002
3.097117e+003, 3.560144e-002
3.099046e+003, 3.560055e-002
3.100974e+003, 3.515293e-002
3.102903e+003, 3.429613e-002
3.104831e+003, 3.361413e-002
3.106760e+003, 3.426856e-002
3.108688e+003, 3.562495e-002
3.110617e+003, 3.515545e-002
3.112545e+003, 3.511416e-002
3.114474e+003, 3.609179e-002
3.116402e+003, 3.596376e-002
3.118331e+003, 3.440562e-002
3.120259e+003, 3.370113e-002
3.122188e+003, 3.413854e-002
3.124116e+003, 3.467698e-002
3.126044e+003, 3.523834e-002
3.127973e+003, 3.521781e-002
3.129901e+003, 3.586685e-002
3.131830e+003, 3.558911e-002
3.133758e+003, 3.519050e-002
3.135687e+003, 3.558065e-002
3.137615e+003, 3.612598e-002
3.139544e+003, 3.635263e-002
3.141472e+003, 3.630310e-002
3.143401e+003, 3.665441e-002
3.145329e+003, 3.748390e-002
3.147258e+003, 3.760542e-002
3.149186e+003, 3.675939e-002
3.151115e+003, 3.684825e-002
3.153043e+003, 3.684181e-002
3.154971e+003, 3.683916e-002
3.156900e+003, 3.732345e-002
3.158828e+003, 3.721045e-002
3.160757e+003, 3.740719e-002
3.162685e+003, 3.730691e-002
3.164614e+003, 3.767204e-002
3.166542e+003, 3.827323e-002
3.168471e+003, 3.806672e-002
3.170399e+003, 3.734748e-002
3.172328e+003, 3.724689e-002
3.174256e+003, 3.741424e-002
3.176185e+003, 3.609860e-002
3.178113e+003, 3.554946e-002
3.180042e+003, 3.643806e-002
3.181970e+003, 3.599489e-002
3.183898e+003, 3.571387e-002
3.185827e+003, 3.747725e-002
3.187755e+003, 3.765289e-002
3.189684e+003, 3.679127e-002
3.191612e+003, 3.679218e-002
3.193541e+003, 3.732329e-002
3.195469e+003, 3.747521e-002
3.197398e+003, 3.739114e-002
3.199326e+003, 3.687213e-002
3.201255e+003, 3.718324e-002
3.203183e+003, 3.713520e-002
3.205112e+003, 3.688037e-002
3.207040e+003, 3.647414e-002
3.208969e+003, 3.712248e-002
3.210897e+003, 3.848721e-002
3.212825e+003, 3.815722e-002
3.214754e+003, 3.689805e-002
3.216682e+003, 3.554884e-002
3.218611e+003, 3.629949e-002
3.220539e+003, 3.836741e-002
3.222468e+003, 3.747603e-002
3.224396e+003, 3.659341e-002
3.226325e+003, 3.842477e-002
3.228253e+003, 3.987225e-002
3.230182e+003, 3.876067e-002
3.232110e+003, 3.816259e-002
3.234039e+003, 3.791158e-002
3.235967e+003, 3.853387e-002
3.237896e+003, 4.110014e-002
3.239824e+003, 4.158249e-002
3.241752e+003, 3.996547e-002
3.243681e+003, 3.729071e-002
3.245609e+003, 3.676650e-002
3.247538e+003, 3.892367e-002
3.249466e+003, 4.002135e-002
3.251395e+003, 4.012227e-002
3.253323e+003, 3.819985e-002
3.255252e+003, 3.752640e-002
3.257180e+003, 3.901441e-002
3.259109e+003, 3.888378e-002
3.261037e+003, 3.966928e-002
3.262966e+003, 4.046016e-002
3.264894e+003, 3.903595e-002
3.266823e+003, 3.759371e-002
3.268751e+003, 3.814511e-002
3.270679e+003, 3.752730e-002
3.272608e+003, 3.770502e-002
3.274536e+003, 3.920306e-002
3.276465e+003, 3.818630e-002
3.278393e+003, 3.780659e-002
3.280322e+003, 3.904977e-002
3.282250e+003, 3.897629e-002
3.284179e+003, 3.792561e-002
3.286107e+003, 3.654480e-002
3.288036e+003, 3.703521e-002
3.289964e+003, 4.056136e-002
3.291893e+003, 4.109785e-002
3.293821e+003, 3.923209e-002
3.295750e+003, 3.937104e-002
3.297678e+003, 3.959628e-002
3.299606e+003, 3.966903e-002
3.301535e+003, 3.955166e-002
3.303463e+003, 4.063496e-002
3.305392e+003, 4.199123e-002
3.307320e+003, 4.090955e-002
3.309249e+003, 3.913987e-002
3.311177e+003, 3.985364e-002
3.313106e+003, 4.209933e-002
3.315034e+003, 4.074133e-002
3.316963e+003, 3.852443e-002
3.318891e+003, 3.952133e-002
3.320820e+003, 3.998917e-002
3.322748e+003, 3.987137e-002
3.324677e+003, 4.076193e-002
3.326605e+003, 4.240949e-002
3.328533e+003, 4.187397e-002
3.330462e+003, 3.937895e-002
3.332390e+003, 3.907293e-002
3.334319e+003, 4.062219e-002
3.336247e+003, 3.919945e-002
3.338176e+003, 3.819668e-002
3.340104e+003, 4.031385e-002
3.342033e+003, 4.183225e-002
3.343961e+003, 4.156884e-002
3.345890e+003, 4.036104e-002
3.347818e+003, 3.919825e-002
3.349747e+003, 3.885025e-002
3.351675e+003, 4.069040e-002
3.353604e+003, 4.240461e-002
3.355532e+003, 4.148658e-002
3.357460e+003, 4.154560e-002
3.359389e+003, 4.123307e-002
3.361317e+003, 4.041015e-002
3.363246e+003, 4.069411e-002
3.365174e+003, 4.060150e-002
3.367103e+003, 4.129437e-002
3.369031e+003, 4.190198e-002
3.370960e+003, 4.220232e-002
3.372888e+003, 4.234142e-002
3.374817e+003, 4.083810e-002
3.376745e+003, 4.109926e-002
3.378674e+003, 4.112469e-002
3.380602e+003, 4.103251e-002
3.382531e+003, 4.079361e-002
3.384459e+003, 4.072341e-002
3.386387e+003, 4.145110e-002
3.388316e+003, 4.268233e-002
3.390244e+003, 4.237469e-002
3.392173e+003, 4.109690e-002
3.394101e+003, 4.067874e-002
3.396030e+003, 4.054397e-002
3.397958e+003, 4.105145e-002
3.399887e+003, 4.267365e-002
3.401815e+003, 4.377849e-002
3.403744e+003, 4.380625e-002
3.405672e+003, 4.232306e-002
3.407601e+003, 4.119304e-002
3.409529e+003, 4.103232e-002
3.411458e+003, 4.073023e-002
3.413386e+003, 4.107537e-002
3.415314e+003, 4.056039e-002
3.417243e+003, 4.119828e-002
3.419171e+003, 4.306784e-002
3.421100e+003, 4.363922e-002
3.423028e+003, 4.259859e-002
3.424957e+003, 4.388586e-002
3.426885e+003, 4.370235e-002
3.428814e+003, 4.262795e-002
3.430742e+003, 4.129886e-002
3.432671e+003, 4.366452e-002
3.434599e+003, 4.559690e-002
3.436528e+003, 4.509211e-002
3.438456e+003, 4.445154e-002
3.440385e+003, 4.415675e-002
3.442313e+003, 4.208170e-002
3.444241e+003, 4.154336e-002
3.446170e+003, 4.380092e-002
3.448098e+003, 4.508665e-002
3.450027e+003, 4.563990e-002
3.451955e+003, 4.404153e-002
3.453884e+003, 4.313762e-002
3.455812e+003, 4.454254e-002
3.457741e+003, 4.530217e-002
3.459669e+003, 4.602996e-002
3.461598e+003, 4.558769e-002
3.463526e+003, 4.601729e-002
3.465455e+003, 4.526488e-002
3.467383e+003, 4.472480e-002
3.469312e+003, 4.376550e-002
3.471240e+003, 4.196322e-002
3.473168e+003, 4.265137e-002
3.475097e+003, 4.418889e-002
3.477025e+003, 4.449788e-002
3.478954e+003, 4.387389e-002
3.480882e+003, 4.453934e-002
3.482811e+003, 4.489877e-002
3.484739e+003, 4.279547e-002
3.486668e+003, 4.219851e-002
3.488596e+003, 4.424359e-002
3.490525e+003, 4.571455e-002
3.492453e+003, 4.554298e-002
3.494382e+003, 4.628080e-002
3.496310e+003, 4.724799e-002
3.498239e+003, 4.763167e-002
3.500167e+003, 4.767896e-002
3.502095e+003, 4.703051e-002
3.504024e+003, 4.439575e-002
3.505952e+003, 4.643417e-002
3.507881e+003, 4.942750e-002
3.509809e+003, 5.132496e-002
3.511738e+003, 5.211953e-002
3.513666e+003, 5.240723e-002
3.515595e+003, 5.263516e-002
3.517523e+003, 5.281537e-002
3.519452e+003, 5.307280e-002
3.521380e+003, 5.523219e-002
3.523309e+003, 5.748317e-002
3.525237e+003, 5.929931e-002
3.527166e+003, 6.097884e-002
3.529094e+003, 6.527039e-002
3.531022e+003, 6.888451e-002
3.532951e+003, 7.001129e-002
3.534879e+003, 7.234992e-002
3.536808e+003, 8.071806e-002
3.538736e+003, 8.853100e-002
3.540665e+003, 9.532776e-002
3.542593e+003, 1.039585e-001
3.544522e+003, 1.125360e-001
3.546450e+003, 1.138839e-001
3.548379e+003, 1.100573e-001
3.550307e+003, 1.013682e-001
3.552236e+003, 8.759892e-002
3.554164e+003, 7.333309e-002
3.556093e+003, 6.327992e-002
3.558021e+003, 5.387073e-002
3.559949e+003, 4.746597e-002
3.561878e+003, 4.521030e-002
3.563806e+003, 4.362538e-002
3.565735e+003, 4.075469e-002
3.567663e+003, 3.846825e-002
3.569592e+003, 3.735977e-002
3.571520e+003, 3.655846e-002
3.573449e+003, 3.624078e-002
3.575377e+003, 3.627115e-002
3.577306e+003, 3.722400e-002
3.579234e+003, 3.804828e-002
3.581163e+003, 3.695762e-002
3.583091e+003, 3.551433e-002
3.585020e+003, 3.733892e-002
3.586948e+003, 3.814294e-002
3.588876e+003, 3.764328e-002
3.590805e+003, 3.664599e-002
3.592733e+003, 3.849881e-002
3.594662e+003, 3.954481e-002
3.596590e+003, 3.743169e-002
3.598519e+003, 3.641727e-002
3.600447e+003, 3.744865e-002
3.602376e+003, 3.923744e-002
3.604304e+003, 3.902768e-002
3.606233e+003, 3.730860e-002
3.608161e+003, 3.692817e-002
3.610090e+003, 3.570063e-002
3.612018e+003, 3.274145e-002
3.613947e+003, 3.534197e-002
3.615875e+003, 3.791726e-002
3.617803e+003, 3.622447e-002
3.619732e+003, 3.402708e-002
3.621660e+003, 3.316446e-002
3.623589e+003, 3.501873e-002
3.625517e+003, 3.756422e-002
3.627446e+003, 3.618714e-002
3.629374e+003, 3.788981e-002
3.631303e+003, 3.764334e-002
3.633231e+003, 3.652612e-002
3.635160e+003, 3.695722e-002
3.637088e+003, 3.907163e-002
3.639017e+003, 4.030523e-002
3.640945e+003, 3.877142e-002
3.642874e+003, 3.865679e-002
3.644802e+003, 4.035184e-002
3.646730e+003, 3.862592e-002
3.648659e+003, 3.418522e-002
3.650587e+003, 3.402494e-002
3.652516e+003, 3.553158e-002
3.654444e+003, 3.465484e-002
3.656373e+003, 3.500663e-002
3.658301e+003, 3.865458e-002
3.660230e+003, 4.011753e-002
3.662158e+003, 3.780019e-002
3.664087e+003, 3.831487e-002
3.666015e+003, 3.828672e-002
3.667944e+003, 3.582667e-002
3.669872e+003, 3.577292e-002
3.671801e+003, 4.156158e-002
3.673729e+003, 3.896823e-002
3.675657e+003, 3.952674e-002
3.677586e+003, 4.107641e-002
3.679514e+003, 3.843619e-002
3.681443e+003, 3.674790e-002
3.683371e+003, 4.135550e-002
3.685300e+003, 4.098605e-002
3.687228e+003, 3.307179e-002
3.689157e+003, 3.483875e-002
3.691085e+003, 3.552840e-002
3.693014e+003, 3.724286e-002
3.694942e+003, 3.956228e-002
3.696871e+003, 4.151951e-002
3.698799e+003, 4.350735e-002
3.700728e+003, 4.098449e-002
3.702656e+003, 3.686400e-002
3.704584e+003, 3.701611e-002
3.706513e+003, 4.023514e-002
3.708441e+003, 4.046159e-002
3.710370e+003, 4.092559e-002
3.712298e+003, 4.207894e-002
3.714227e+003, 4.027968e-002
3.716155e+003, 3.949501e-002
3.718084e+003, 4.031581e-002
3.720012e+003, 3.971196e-002
3.721941e+003, 3.947669e-002
3.723869e+003, 3.948229e-002
3.725798e+003, 3.925427e-002
3.727726e+003, 3.895671e-002
3.729655e+003, 3.805568e-002
3.731583e+003, 3.816806e-002
3.733511e+003, 3.828668e-002
3.735440e+003, 3.541160e-002
3.737368e+003, 3.782202e-002
3.739297e+003, 4.009758e-002
3.741225e+003, 3.900279e-002
3.743154e+003, 3.439410e-002
3.745082e+003, 3.920162e-002
3.747011e+003, 3.865824e-002
3.748939e+003, 3.877757e-002
3.750868e+003, 3.826968e-002
3.752796e+003, 3.904311e-002
3.754725e+003, 3.944932e-002
3.756653e+003, 3.912808e-002
3.758582e+003, 4.036941e-002
3.760510e+003, 4.139477e-002
3.762438e+003, 4.135903e-002
3.764367e+003, 4.129904e-002
3.766295e+003, 4.337978e-002
3.768224e+003, 3.974295e-002
3.770152e+003, 3.843132e-002
3.772081e+003, 4.010705e-002
3.774009e+003, 4.214408e-002
3.775938e+003, 4.199804e-002
3.777866e+003, 4.096904e-002
3.779795e+003, 4.278226e-002
3.781723e+003, 4.556781e-002
3.783652e+003, 4.274102e-002
3.785580e+003, 4.122116e-002
3.787509e+003, 4.329656e-002
3.789437e+003, 4.403327e-002
3.791365e+003, 4.524902e-002
3.793294e+003, 4.559135e-002
3.795222e+003, 4.266515e-002
3.797151e+003, 4.182487e-002
3.799079e+003, 4.190960e-002
3.801008e+003, 4.361703e-002
3.802936e+003, 4.552476e-002
3.804865e+003, 4.255359e-002
3.806793e+003, 3.894851e-002
3.808722e+003, 4.010653e-002
3.810650e+003, 4.216331e-002
3.812579e+003, 4.200909e-002
3.814507e+003, 3.839895e-002
3.816436e+003, 4.077298e-002
3.818364e+003, 4.087713e-002
3.820292e+003, 3.724222e-002
3.822221e+003, 3.908524e-002
3.824149e+003, 4.131363e-002
3.826078e+003, 4.250994e-002
3.828006e+003, 4.206040e-002
3.829935e+003, 3.975523e-002
3.831863e+003, 4.075571e-002
3.833792e+003, 3.942003e-002
3.835720e+003, 4.215632e-002
3.837649e+003, 4.342674e-002
3.839577e+003, 4.152333e-002
3.841506e+003, 3.820404e-002
3.843434e+003, 3.820105e-002
3.845363e+003, 4.179009e-002
3.847291e+003, 4.286676e-002
3.849219e+003, 4.160481e-002
3.851148e+003, 3.998579e-002
3.853076e+003, 3.714018e-002
3.855005e+003, 4.269812e-002
3.856933e+003, 4.342856e-002
3.858862e+003, 4.455786e-002
3.860790e+003, 4.362619e-002
3.862719e+003, 3.925051e-002
3.864647e+003, 3.822853e-002
3.866576e+003, 4.073802e-002
3.868504e+003, 4.109874e-002
3.870433e+003, 4.167577e-002
3.872361e+003, 3.853813e-002
3.874290e+003, 3.884004e-002
3.876218e+003, 4.236337e-002
3.878146e+003, 4.669908e-002
3.880075e+003, 4.649058e-002
3.882003e+003, 4.257105e-002
3.883932e+003, 4.326938e-002
3.885860e+003, 4.729328e-002
3.887789e+003, 4.720730e-002
3.889717e+003, 4.309790e-002
3.891646e+003, 4.289611e-002
3.893574e+003, 4.285369e-002
3.895503e+003, 4.017749e-002
3.897431e+003, 3.708743e-002
3.899360e+003, 4.043428e-002
3.901288e+003, 4.351397e-002
3.903217e+003, 4.169429e-002
3.905145e+003, 4.209976e-002
3.907073e+003, 4.295303e-002
3.909002e+003, 4.088720e-002
3.910930e+003, 4.006676e-002
3.912859e+003, 4.001770e-002
3.914787e+003, 4.138363e-002
3.916716e+003, 4.348553e-002
3.918644e+003, 4.626324e-002
3.920573e+003, 4.885778e-002
3.922501e+003, 4.545801e-002
3.924430e+003, 4.400332e-002
3.926358e+003, 4.324651e-002
3.928287e+003, 4.406177e-002
3.930215e+003, 4.572111e-002
3.932144e+003, 4.624616e-002
3.934072e+003, 4.810598e-002
3.936000e+003, 4.754551e-002
3.937929e+003, 4.640930e-002
3.939857e+003, 4.690869e-002
3.941786e+003, 4.517350e-002
3.943714e+003, 4.465906e-002
3.945643e+003, 4.573190e-002
3.947571e+003, 4.596280e-002
3.949500e+003, 4.432453e-002
3.951428e+003, 4.257832e-002
3.953357e+003, 4.634032e-002
3.955285e+003, 4.363844e-002
3.957214e+003, 4.055937e-002
3.959142e+003, 4.155402e-002
3.961071e+003, 4.445837e-002
3.962999e+003, 4.698473e-002
3.964927e+003, 4.882940e-002
3.966856e+003, 4.740453e-002
3.968784e+003, 4.582999e-002
3.970713e+003, 4.707872e-002
3.972641e+003, 4.822347e-002
3.974570e+003, 4.649937e-002
3.976498e+003, 4.774811e-002
3.978427e+003, 4.791188e-002
3.980355e+003, 4.585342e-002
3.982284e+003, 4.393872e-002
3.984212e+003, 4.675040e-002
3.986141e+003, 4.964889e-002
3.988069e+003, 4.691611e-002
3.989998e+003, 4.410389e-002
3.991926e+003, 4.316406e-002
3.993854e+003, 4.561291e-002
3.995783e+003, 4.886658e-002
3.997711e+003, 4.894064e-002
3.999640e+003, 4.895806e-002
4.001568e+003, 0.000000e+000
##END=



