##NAMES=Alabandite
##RRUFFID=R070174
##IDEAL CHEMISTRY=Mn^2+^S^2-^
##LOCALITY=Mina Preciosa, Sangue de Cristo, Puebla, Mexico
##OWNER=Michael Scott
##SOURCE=Michael Scott
##DESCRIPTION=Dull dark gray semi-metallic coarse crystals associated with pyrite and calcite
##STATUS=The identification of this mineral has been confirmed by X-ray diffraction and chemical analysis
##URL=rruff.info/R070174
##MEASURED CHEMISTRY=Mn^2+^_1.00_S_1.00_
3.991926e+002, 2.505772e-002
4.011211e+002, 2.729063e-002
4.030495e+002, 2.881881e-002
4.049780e+002, 2.921284e-002
4.069065e+002, 2.823611e-002
4.088349e+002, 2.885004e-002
4.107634e+002, 3.113083e-002
4.126919e+002, 3.193094e-002
4.146203e+002, 3.209407e-002
4.165488e+002, 3.263345e-002
4.184773e+002, 3.212020e-002
4.204057e+002, 3.243801e-002
4.223342e+002, 3.448562e-002
4.242627e+002, 3.505863e-002
4.261911e+002, 3.640813e-002
4.281196e+002, 3.791287e-002
4.300481e+002, 3.863285e-002
4.319765e+002, 3.896506e-002
4.339050e+002, 4.014432e-002
4.358335e+002, 4.076333e-002
4.377619e+002, 4.138011e-002
4.396904e+002, 4.227505e-002
4.416189e+002, 4.350063e-002
4.435473e+002, 4.565736e-002
4.454758e+002, 4.777911e-002
4.474043e+002, 5.026651e-002
4.493327e+002, 5.175007e-002
4.512612e+002, 5.287050e-002
4.531897e+002, 5.399727e-002
4.551181e+002, 5.622019e-002
4.570466e+002, 5.826090e-002
4.589751e+002, 6.028257e-002
4.609035e+002, 6.129134e-002
4.628320e+002, 6.251277e-002
4.647605e+002, 6.428143e-002
4.666889e+002, 6.606680e-002
4.686174e+002, 6.751182e-002
4.705459e+002, 6.859349e-002
4.724743e+002, 6.976893e-002
4.744028e+002, 7.162732e-002
4.763313e+002, 7.378956e-002
4.782597e+002, 7.530474e-002
4.801882e+002, 7.684322e-002
4.821167e+002, 7.844434e-002
4.840451e+002, 8.017044e-002
4.859736e+002, 8.181594e-002
4.879021e+002, 8.319578e-002
4.898305e+002, 8.466605e-002
4.917590e+002, 8.639525e-002
4.936875e+002, 8.854326e-002
4.956159e+002, 8.965834e-002
4.975444e+002, 9.104479e-002
4.994729e+002, 9.248711e-002
5.014013e+002, 9.397130e-002
5.033298e+002, 9.596401e-002
5.052583e+002, 9.775093e-002
5.071867e+002, 9.923843e-002
5.091152e+002, 1.001172e-001
5.110437e+002, 1.019356e-001
5.129721e+002, 1.037056e-001
5.149006e+002, 1.051339e-001
5.168290e+002, 1.068276e-001
5.187575e+002, 1.081549e-001
5.206860e+002, 1.093445e-001
5.226144e+002, 1.101491e-001
5.245429e+002, 1.114418e-001
5.264714e+002, 1.128674e-001
5.283998e+002, 1.140238e-001
5.303283e+002, 1.154265e-001
5.322568e+002, 1.166030e-001
5.341852e+002, 1.175889e-001
5.361137e+002, 1.188267e-001
5.380422e+002, 1.200294e-001
5.399706e+002, 1.209532e-001
5.418991e+002, 1.227940e-001
5.438276e+002, 1.240447e-001
5.457560e+002, 1.245258e-001
5.476845e+002, 1.259204e-001
5.496130e+002, 1.271410e-001
5.515414e+002, 1.280843e-001
5.534699e+002, 1.292729e-001
5.553984e+002, 1.303704e-001
5.573268e+002, 1.313938e-001
5.592553e+002, 1.324242e-001
5.611838e+002, 1.331726e-001
5.631122e+002, 1.341158e-001
5.650407e+002, 1.351914e-001
5.669692e+002, 1.361073e-001
5.688976e+002, 1.369461e-001
5.708261e+002, 1.382388e-001
5.727546e+002, 1.391119e-001
5.746830e+002, 1.404574e-001
5.766115e+002, 1.411825e-001
5.785400e+002, 1.421180e-001
5.804684e+002, 1.436123e-001
5.823969e+002, 1.448987e-001
5.843254e+002, 1.454069e-001
5.862538e+002, 1.466211e-001
5.881823e+002, 1.481033e-001
5.901108e+002, 1.490550e-001
5.920392e+002, 1.499114e-001
5.939677e+002, 1.509650e-001
5.958962e+002, 1.520032e-001
5.978246e+002, 1.525137e-001
5.997531e+002, 1.534870e-001
6.016816e+002, 1.547449e-001
6.036100e+002, 1.557839e-001
6.055385e+002, 1.568900e-001
6.074670e+002, 1.577658e-001
6.093954e+002, 1.579289e-001
6.113239e+002, 1.587393e-001
6.132524e+002, 1.599403e-001
6.151808e+002, 1.612012e-001
6.171093e+002, 1.621319e-001
6.190378e+002, 1.627255e-001
6.209662e+002, 1.632008e-001
6.228947e+002, 1.637122e-001
6.248232e+002, 1.642037e-001
6.267516e+002, 1.647616e-001
6.286801e+002, 1.655659e-001
6.306086e+002, 1.665889e-001
6.325370e+002, 1.672802e-001
6.344655e+002, 1.680225e-001
6.363940e+002, 1.688071e-001
6.383224e+002, 1.693389e-001
6.402509e+002, 1.698108e-001
6.421794e+002, 1.701978e-001
6.441078e+002, 1.710334e-001
6.460363e+002, 1.718737e-001
6.479648e+002, 1.723525e-001
6.498932e+002, 1.727009e-001
6.518217e+002, 1.731243e-001
6.537502e+002, 1.735759e-001
6.556786e+002, 1.741905e-001
6.576071e+002, 1.746761e-001
6.595356e+002, 1.750473e-001
6.614641e+002, 1.758089e-001
6.633925e+002, 1.764946e-001
6.653210e+002, 1.769232e-001
6.672495e+002, 1.774643e-001
6.691779e+002, 1.776551e-001
6.711064e+002, 1.777309e-001
6.730349e+002, 1.781425e-001
6.749633e+002, 1.788038e-001
6.768918e+002, 1.792653e-001
6.788203e+002, 1.797191e-001
6.807487e+002, 1.804247e-001
6.826772e+002, 1.810479e-001
6.846057e+002, 1.814865e-001
6.865341e+002, 1.817710e-001
6.884626e+002, 1.821615e-001
6.903911e+002, 1.828508e-001
6.923195e+002, 1.835879e-001
6.942480e+002, 1.841674e-001
6.961765e+002, 1.847854e-001
6.981049e+002, 1.851338e-001
7.000334e+002, 1.856604e-001
7.019619e+002, 1.859537e-001
7.038903e+002, 1.864321e-001
7.058188e+002, 1.870966e-001
7.077473e+002, 1.877040e-001
7.096757e+002, 1.880867e-001
7.116042e+002, 1.887406e-001
7.135327e+002, 1.893151e-001
7.154611e+002, 1.895989e-001
7.173896e+002, 1.900057e-001
7.193181e+002, 1.906266e-001
7.212465e+002, 1.912218e-001
7.231750e+002, 1.921453e-001
7.251035e+002, 1.931282e-001
7.270319e+002, 1.930983e-001
7.289604e+002, 1.931006e-001
7.308889e+002, 1.933776e-001
7.328173e+002, 1.935890e-001
7.347458e+002, 1.939068e-001
7.366743e+002, 1.945666e-001
7.386027e+002, 1.952384e-001
7.405312e+002, 1.957625e-001
7.424597e+002, 1.960779e-001
7.443881e+002, 1.965259e-001
7.463166e+002, 1.971205e-001
7.482451e+002, 1.976907e-001
7.501735e+002, 1.981007e-001
7.521020e+002, 1.986366e-001
7.540305e+002, 1.990202e-001
7.559589e+002, 1.992419e-001
7.578874e+002, 1.995936e-001
7.598159e+002, 2.001560e-001
7.617443e+002, 2.008289e-001
7.636728e+002, 2.013016e-001
7.656013e+002, 2.015654e-001
7.675297e+002, 2.019809e-001
7.694582e+002, 2.023117e-001
7.713867e+002, 2.026200e-001
7.733151e+002, 2.029550e-001
7.752436e+002, 2.036549e-001
7.771721e+002, 2.042449e-001
7.791005e+002, 2.046069e-001
7.810290e+002, 2.048794e-001
7.829575e+002, 2.053946e-001
7.848859e+002, 2.057750e-001
7.868144e+002, 2.061422e-001
7.887429e+002, 2.066699e-001
7.906713e+002, 2.074991e-001
7.925998e+002, 2.079030e-001
7.945283e+002, 2.080805e-001
7.964567e+002, 2.085768e-001
7.983852e+002, 2.090692e-001
8.003137e+002, 2.093296e-001
8.022421e+002, 2.093669e-001
8.041706e+002, 2.098757e-001
8.060991e+002, 2.106331e-001
8.080275e+002, 2.111013e-001
8.099560e+002, 2.118210e-001
8.118845e+002, 2.124998e-001
8.138129e+002, 2.127081e-001
8.157414e+002, 2.130584e-001
8.176699e+002, 2.134392e-001
8.195983e+002, 2.137373e-001
8.215268e+002, 2.143788e-001
8.234553e+002, 2.146149e-001
8.253837e+002, 2.149713e-001
8.273122e+002, 2.157855e-001
8.292407e+002, 2.163437e-001
8.311691e+002, 2.167807e-001
8.330976e+002, 2.170198e-001
8.350261e+002, 2.174878e-001
8.369545e+002, 2.176404e-001
8.388830e+002, 2.180237e-001
8.408115e+002, 2.186365e-001
8.427399e+002, 2.192321e-001
8.446684e+002, 2.197449e-001
8.465969e+002, 2.201060e-001
8.485253e+002, 2.205330e-001
8.504538e+002, 2.209761e-001
8.523823e+002, 2.214712e-001
8.543107e+002, 2.220946e-001
8.562392e+002, 2.224919e-001
8.581677e+002, 2.233408e-001
8.600961e+002, 2.239646e-001
8.620246e+002, 2.242268e-001
8.639531e+002, 2.242800e-001
8.658815e+002, 2.244917e-001
8.678100e+002, 2.246601e-001
8.697385e+002, 2.245574e-001
8.716669e+002, 2.243803e-001
8.735954e+002, 2.245161e-001
8.755239e+002, 2.249110e-001
8.774523e+002, 2.251117e-001
8.793808e+002, 2.251067e-001
8.813093e+002, 2.253396e-001
8.832377e+002, 2.257260e-001
8.851662e+002, 2.263271e-001
8.870947e+002, 2.269265e-001
8.890231e+002, 2.272281e-001
8.909516e+002, 2.275383e-001
8.928801e+002, 2.279887e-001
8.948085e+002, 2.284596e-001
8.967370e+002, 2.287173e-001
8.986655e+002, 2.290585e-001
9.005939e+002, 2.293943e-001
9.025224e+002, 2.295759e-001
9.044509e+002, 2.298733e-001
9.063793e+002, 2.302316e-001
9.083078e+002, 2.305734e-001
9.102363e+002, 2.310244e-001
9.121647e+002, 2.312928e-001
9.140932e+002, 2.317533e-001
9.160217e+002, 2.322104e-001
9.179501e+002, 2.324031e-001
9.198786e+002, 2.324535e-001
9.218071e+002, 2.329215e-001
9.237355e+002, 2.334758e-001
9.256640e+002, 2.337232e-001
9.275925e+002, 2.340793e-001
9.295209e+002, 2.344578e-001
9.314494e+002, 2.346373e-001
9.333779e+002, 2.348895e-001
9.353063e+002, 2.352147e-001
9.372348e+002, 2.355985e-001
9.391633e+002, 2.358765e-001
9.410917e+002, 2.360916e-001
9.430202e+002, 2.363205e-001
9.449487e+002, 2.365736e-001
9.468771e+002, 2.369083e-001
9.488056e+002, 2.374205e-001
9.507341e+002, 2.378374e-001
9.526625e+002, 2.380698e-001
9.545910e+002, 2.382780e-001
9.565195e+002, 2.384904e-001
9.584479e+002, 2.389024e-001
9.603764e+002, 2.395506e-001
9.623049e+002, 2.400684e-001
9.642333e+002, 2.401403e-001
9.661618e+002, 2.404684e-001
9.680903e+002, 2.410698e-001
9.700187e+002, 2.414608e-001
9.719472e+002, 2.419254e-001
9.738757e+002, 2.423876e-001
9.758041e+002, 2.426365e-001
9.777326e+002, 2.431778e-001
9.796611e+002, 2.437564e-001
9.815895e+002, 2.440618e-001
9.835180e+002, 2.443907e-001
9.854465e+002, 2.448762e-001
9.873749e+002, 2.452721e-001
9.893034e+002, 2.454568e-001
9.912319e+002, 2.457223e-001
9.931603e+002, 2.460857e-001
9.950888e+002, 2.465411e-001
9.970173e+002, 2.469492e-001
9.989457e+002, 2.470332e-001
1.000874e+003, 2.471057e-001
1.002803e+003, 2.472316e-001
1.004731e+003, 2.474753e-001
1.006660e+003, 2.478873e-001
1.008588e+003, 2.483467e-001
1.010517e+003, 2.485031e-001
1.012445e+003, 2.485538e-001
1.014373e+003, 2.488969e-001
1.016302e+003, 2.492601e-001
1.018230e+003, 2.493896e-001
1.020159e+003, 2.494667e-001
1.022087e+003, 2.496003e-001
1.024016e+003, 2.498118e-001
1.025944e+003, 2.502025e-001
1.027873e+003, 2.506447e-001
1.029801e+003, 2.510343e-001
1.031730e+003, 2.513652e-001
1.033658e+003, 2.516010e-001
1.035587e+003, 2.519538e-001
1.037515e+003, 2.523725e-001
1.039443e+003, 2.526440e-001
1.041372e+003, 2.530515e-001
1.043300e+003, 2.534341e-001
1.045229e+003, 2.536757e-001
1.047157e+003, 2.539770e-001
1.049086e+003, 2.543249e-001
1.051014e+003, 2.546368e-001
1.052943e+003, 2.550274e-001
1.054871e+003, 2.553390e-001
1.056800e+003, 2.557481e-001
1.058728e+003, 2.561371e-001
1.060657e+003, 2.564701e-001
1.062585e+003, 2.568110e-001
1.064514e+003, 2.570296e-001
1.066442e+003, 2.573510e-001
1.068370e+003, 2.577952e-001
1.070299e+003, 2.583116e-001
1.072227e+003, 2.588837e-001
1.074156e+003, 2.591575e-001
1.076084e+003, 2.593566e-001
1.078013e+003, 2.596727e-001
1.079941e+003, 2.600090e-001
1.081870e+003, 2.602730e-001
1.083798e+003, 2.606699e-001
1.085727e+003, 2.610731e-001
1.087655e+003, 2.614287e-001
1.089584e+003, 2.616054e-001
1.091512e+003, 2.618995e-001
1.093441e+003, 2.623288e-001
1.095369e+003, 2.627805e-001
1.097297e+003, 2.630659e-001
1.099226e+003, 2.634232e-001
1.101154e+003, 2.636844e-001
1.103083e+003, 2.639289e-001
1.105011e+003, 2.642742e-001
1.106940e+003, 2.644593e-001
1.108868e+003, 2.645662e-001
1.110797e+003, 2.647361e-001
1.112725e+003, 2.651259e-001
1.114654e+003, 2.654956e-001
1.116582e+003, 2.657332e-001
1.118511e+003, 2.660847e-001
1.120439e+003, 2.665212e-001
1.122368e+003, 2.667866e-001
1.124296e+003, 2.669649e-001
1.126224e+003, 2.673038e-001
1.128153e+003, 2.678444e-001
1.130081e+003, 2.682022e-001
1.132010e+003, 2.685323e-001
1.133938e+003, 2.690581e-001
1.135867e+003, 2.694377e-001
1.137795e+003, 2.698247e-001
1.139724e+003, 2.704367e-001
1.141652e+003, 2.708911e-001
1.143581e+003, 2.712675e-001
1.145509e+003, 2.716684e-001
1.147438e+003, 2.718706e-001
1.149366e+003, 2.717354e-001
1.151295e+003, 2.714862e-001
1.153223e+003, 2.714745e-001
1.155151e+003, 2.716197e-001
1.157080e+003, 2.717758e-001
1.159008e+003, 2.718783e-001
1.160937e+003, 2.718446e-001
1.162865e+003, 2.717429e-001
1.164794e+003, 2.716433e-001
1.166722e+003, 2.717690e-001
1.168651e+003, 2.720031e-001
1.170579e+003, 2.721305e-001
1.172508e+003, 2.721792e-001
1.174436e+003, 2.722303e-001
1.176365e+003, 2.723462e-001
1.178293e+003, 2.725802e-001
1.180222e+003, 2.728288e-001
1.182150e+003, 2.729746e-001
1.184078e+003, 2.730659e-001
1.186007e+003, 2.733443e-001
1.187935e+003, 2.737177e-001
1.189864e+003, 2.739704e-001
1.191792e+003, 2.742067e-001
1.193721e+003, 2.744197e-001
1.195649e+003, 2.747321e-001
1.197578e+003, 2.748225e-001
1.199506e+003, 2.749516e-001
1.201435e+003, 2.750666e-001
1.203363e+003, 2.751812e-001
1.205292e+003, 2.752604e-001
1.207220e+003, 2.753440e-001
1.209149e+003, 2.754243e-001
1.211077e+003, 2.756734e-001
1.213005e+003, 2.757866e-001
1.214934e+003, 2.758268e-001
1.216862e+003, 2.760578e-001
1.218791e+003, 2.763036e-001
1.220719e+003, 2.765091e-001
1.222648e+003, 2.767722e-001
1.224576e+003, 2.770640e-001
1.226505e+003, 2.773991e-001
1.228433e+003, 2.777141e-001
1.230362e+003, 2.780557e-001
1.232290e+003, 2.785003e-001
1.234219e+003, 2.788369e-001
1.236147e+003, 2.790184e-001
1.238076e+003, 2.793119e-001
1.240004e+003, 2.795096e-001
1.241932e+003, 2.796198e-001
1.243861e+003, 2.798888e-001
1.245789e+003, 2.800764e-001
1.247718e+003, 2.801340e-001
1.249646e+003, 2.802882e-001
1.251575e+003, 2.806428e-001
1.253503e+003, 2.808724e-001
1.255432e+003, 2.809303e-001
1.257360e+003, 2.810870e-001
1.259289e+003, 2.813341e-001
1.261217e+003, 2.815464e-001
1.263146e+003, 2.817159e-001
1.265074e+003, 2.819705e-001
1.267003e+003, 2.821909e-001
1.268931e+003, 2.824548e-001
1.270859e+003, 2.829098e-001
1.272788e+003, 2.833108e-001
1.274716e+003, 2.835093e-001
1.276645e+003, 2.835677e-001
1.278573e+003, 2.836535e-001
1.280502e+003, 2.838976e-001
1.282430e+003, 2.841930e-001
1.284359e+003, 2.843635e-001
1.286287e+003, 2.847201e-001
1.288216e+003, 2.850958e-001
1.290144e+003, 2.852134e-001
1.292073e+003, 2.854590e-001
1.294001e+003, 2.859481e-001
1.295930e+003, 2.862628e-001
1.297858e+003, 2.863695e-001
1.299786e+003, 2.866395e-001
1.301715e+003, 2.871195e-001
1.303643e+003, 2.874593e-001
1.305572e+003, 2.877447e-001
1.307500e+003, 2.880779e-001
1.309429e+003, 2.882762e-001
1.311357e+003, 2.885380e-001
1.313286e+003, 2.888530e-001
1.315214e+003, 2.890141e-001
1.317143e+003, 2.893185e-001
1.319071e+003, 2.896789e-001
1.321000e+003, 2.899256e-001
1.322928e+003, 2.902308e-001
1.324857e+003, 2.904721e-001
1.326785e+003, 2.907986e-001
1.328714e+003, 2.910944e-001
1.330642e+003, 2.913800e-001
1.332570e+003, 2.917588e-001
1.334499e+003, 2.922305e-001
1.336427e+003, 2.927070e-001
1.338356e+003, 2.929476e-001
1.340284e+003, 2.932666e-001
1.342213e+003, 2.935860e-001
1.344141e+003, 2.937954e-001
1.346070e+003, 2.941661e-001
1.347998e+003, 2.946116e-001
1.349927e+003, 2.949456e-001
1.351855e+003, 2.953075e-001
1.353784e+003, 2.955908e-001
1.355712e+003, 2.959793e-001
1.357641e+003, 2.964251e-001
1.359569e+003, 2.967827e-001
1.361497e+003, 2.971588e-001
1.363426e+003, 2.976000e-001
1.365354e+003, 2.978661e-001
1.367283e+003, 2.981287e-001
1.369211e+003, 2.984765e-001
1.371140e+003, 2.988555e-001
1.373068e+003, 2.992742e-001
1.374997e+003, 2.996942e-001
1.376925e+003, 3.000242e-001
1.378854e+003, 3.003981e-001
1.380782e+003, 3.007850e-001
1.382711e+003, 3.011327e-001
1.384639e+003, 3.015741e-001
1.386568e+003, 3.018267e-001
1.388496e+003, 3.020766e-001
1.390424e+003, 3.025311e-001
1.392353e+003, 3.030860e-001
1.394281e+003, 3.034724e-001
1.396210e+003, 3.036335e-001
1.398138e+003, 3.037440e-001
1.400067e+003, 3.037907e-001
1.401995e+003, 3.041700e-001
1.403924e+003, 3.048061e-001
1.405852e+003, 3.048718e-001
1.407781e+003, 3.048416e-001
1.409709e+003, 3.049789e-001
1.411638e+003, 3.051799e-001
1.413566e+003, 3.054839e-001
1.415495e+003, 3.056644e-001
1.417423e+003, 3.058845e-001
1.419351e+003, 3.060944e-001
1.421280e+003, 3.061570e-001
1.423208e+003, 3.063395e-001
1.425137e+003, 3.063632e-001
1.427065e+003, 3.063057e-001
1.428994e+003, 3.065243e-001
1.430922e+003, 3.069102e-001
1.432851e+003, 3.071039e-001
1.434779e+003, 3.072456e-001
1.436708e+003, 3.074726e-001
1.438636e+003, 3.074946e-001
1.440565e+003, 3.075221e-001
1.442493e+003, 3.078133e-001
1.444422e+003, 3.080262e-001
1.446350e+003, 3.079651e-001
1.448278e+003, 3.079995e-001
1.450207e+003, 3.080758e-001
1.452135e+003, 3.081624e-001
1.454064e+003, 3.083640e-001
1.455992e+003, 3.086960e-001
1.457921e+003, 3.088641e-001
1.459849e+003, 3.087385e-001
1.461778e+003, 3.085256e-001
1.463706e+003, 3.084719e-001
1.465635e+003, 3.085746e-001
1.467563e+003, 3.085697e-001
1.469492e+003, 3.087547e-001
1.471420e+003, 3.088718e-001
1.473349e+003, 3.090752e-001
1.475277e+003, 3.092110e-001
1.477205e+003, 3.092618e-001
1.479134e+003, 3.092927e-001
1.481062e+003, 3.093952e-001
1.482991e+003, 3.096203e-001
1.484919e+003, 3.096867e-001
1.486848e+003, 3.097076e-001
1.488776e+003, 3.099881e-001
1.490705e+003, 3.100815e-001
1.492633e+003, 3.100801e-001
1.494562e+003, 3.102115e-001
1.496490e+003, 3.102553e-001
1.498419e+003, 3.102545e-001
1.500347e+003, 3.102158e-001
1.502276e+003, 3.102486e-001
1.504204e+003, 3.105931e-001
1.506132e+003, 3.110229e-001
1.508061e+003, 3.109753e-001
1.509989e+003, 3.108460e-001
1.511918e+003, 3.108538e-001
1.513846e+003, 3.108730e-001
1.515775e+003, 3.110597e-001
1.517703e+003, 3.111569e-001
1.519632e+003, 3.114105e-001
1.521560e+003, 3.116392e-001
1.523489e+003, 3.116372e-001
1.525417e+003, 3.116114e-001
1.527346e+003, 3.116548e-001
1.529274e+003, 3.118091e-001
1.531203e+003, 3.119546e-001
1.533131e+003, 3.120757e-001
1.535059e+003, 3.120783e-001
1.536988e+003, 3.122360e-001
1.538916e+003, 3.127154e-001
1.540845e+003, 3.129126e-001
1.542773e+003, 3.128567e-001
1.544702e+003, 3.129052e-001
1.546630e+003, 3.131119e-001
1.548559e+003, 3.132774e-001
1.550487e+003, 3.132645e-001
1.552416e+003, 3.133750e-001
1.554344e+003, 3.137286e-001
1.556273e+003, 3.142259e-001
1.558201e+003, 3.148387e-001
1.560130e+003, 3.149412e-001
1.562058e+003, 3.148712e-001
1.563986e+003, 3.149956e-001
1.565915e+003, 3.149984e-001
1.567843e+003, 3.151265e-001
1.569772e+003, 3.154812e-001
1.571700e+003, 3.156535e-001
1.573629e+003, 3.159743e-001
1.575557e+003, 3.164513e-001
1.577486e+003, 3.166775e-001
1.579414e+003, 3.166090e-001
1.581343e+003, 3.165898e-001
1.583271e+003, 3.166522e-001
1.585200e+003, 3.169235e-001
1.587128e+003, 3.170809e-001
1.589057e+003, 3.169347e-001
1.590985e+003, 3.170099e-001
1.592913e+003, 3.173337e-001
1.594842e+003, 3.176073e-001
1.596770e+003, 3.176654e-001
1.598699e+003, 3.176602e-001
1.600627e+003, 3.177477e-001
1.602556e+003, 3.178965e-001
1.604484e+003, 3.179575e-001
1.606413e+003, 3.181007e-001
1.608341e+003, 3.182129e-001
1.610270e+003, 3.181852e-001
1.612198e+003, 3.183072e-001
1.614127e+003, 3.185995e-001
1.616055e+003, 3.190605e-001
1.617984e+003, 3.189203e-001
1.619912e+003, 3.187746e-001
1.621840e+003, 3.190135e-001
1.623769e+003, 3.192392e-001
1.625697e+003, 3.193752e-001
1.627626e+003, 3.195439e-001
1.629554e+003, 3.196553e-001
1.631483e+003, 3.196624e-001
1.633411e+003, 3.199718e-001
1.635340e+003, 3.204056e-001
1.637268e+003, 3.202789e-001
1.639197e+003, 3.203599e-001
1.641125e+003, 3.205948e-001
1.643054e+003, 3.205063e-001
1.644982e+003, 3.209339e-001
1.646911e+003, 3.213896e-001
1.648839e+003, 3.211646e-001
1.650767e+003, 3.213896e-001
1.652696e+003, 3.221651e-001
1.654624e+003, 3.219201e-001
1.656553e+003, 3.215412e-001
1.658481e+003, 3.216142e-001
1.660410e+003, 3.216863e-001
1.662338e+003, 3.218333e-001
1.664267e+003, 3.219901e-001
1.666195e+003, 3.221265e-001
1.668124e+003, 3.223706e-001
1.670052e+003, 3.227096e-001
1.671981e+003, 3.227136e-001
1.673909e+003, 3.229329e-001
1.675838e+003, 3.232867e-001
1.677766e+003, 3.233963e-001
1.679694e+003, 3.236172e-001
1.681623e+003, 3.240078e-001
1.683551e+003, 3.248239e-001
1.685480e+003, 3.251643e-001
1.687408e+003, 3.247674e-001
1.689337e+003, 3.247316e-001
1.691265e+003, 3.249625e-001
1.693194e+003, 3.252788e-001
1.695122e+003, 3.258664e-001
1.697051e+003, 3.260994e-001
1.698979e+003, 3.264175e-001
1.700908e+003, 3.266137e-001
1.702836e+003, 3.263943e-001
1.704765e+003, 3.268079e-001
1.706693e+003, 3.270318e-001
1.708621e+003, 3.270530e-001
1.710550e+003, 3.274801e-001
1.712478e+003, 3.279615e-001
1.714407e+003, 3.281178e-001
1.716335e+003, 3.287782e-001
1.718264e+003, 3.293179e-001
1.720192e+003, 3.292808e-001
1.722121e+003, 3.295886e-001
1.724049e+003, 3.299248e-001
1.725978e+003, 3.300126e-001
1.727906e+003, 3.301720e-001
1.729835e+003, 3.304763e-001
1.731763e+003, 3.307963e-001
1.733692e+003, 3.309880e-001
1.735620e+003, 3.308631e-001
1.737548e+003, 3.306752e-001
1.739477e+003, 3.306461e-001
1.741405e+003, 3.303631e-001
1.743334e+003, 3.298739e-001
1.745262e+003, 3.295117e-001
1.747191e+003, 3.294663e-001
1.749119e+003, 3.295755e-001
1.751048e+003, 3.296382e-001
1.752976e+003, 3.297849e-001
1.754905e+003, 3.301080e-001
1.756833e+003, 3.303383e-001
1.758762e+003, 3.303937e-001
1.760690e+003, 3.306739e-001
1.762619e+003, 3.309759e-001
1.764547e+003, 3.311483e-001
1.766475e+003, 3.313899e-001
1.768404e+003, 3.316101e-001
1.770332e+003, 3.318852e-001
1.772261e+003, 3.321657e-001
1.774189e+003, 3.322540e-001
1.776118e+003, 3.324078e-001
1.778046e+003, 3.324736e-001
1.779975e+003, 3.327179e-001
1.781903e+003, 3.329960e-001
1.783832e+003, 3.333285e-001
1.785760e+003, 3.333921e-001
1.787689e+003, 3.332525e-001
1.789617e+003, 3.335162e-001
1.791546e+003, 3.338554e-001
1.793474e+003, 3.339969e-001
1.795402e+003, 3.341030e-001
1.797331e+003, 3.342651e-001
1.799259e+003, 3.342491e-001
1.801188e+003, 3.344821e-001
1.803116e+003, 3.345508e-001
1.805045e+003, 3.344429e-001
1.806973e+003, 3.345197e-001
1.808902e+003, 3.346692e-001
1.810830e+003, 3.347108e-001
1.812759e+003, 3.347323e-001
1.814687e+003, 3.347099e-001
1.816616e+003, 3.348410e-001
1.818544e+003, 3.351703e-001
1.820473e+003, 3.355967e-001
1.822401e+003, 3.358116e-001
1.824329e+003, 3.359626e-001
1.826258e+003, 3.360521e-001
1.828186e+003, 3.363069e-001
1.830115e+003, 3.367554e-001
1.832043e+003, 3.368137e-001
1.833972e+003, 3.370605e-001
1.835900e+003, 3.370353e-001
1.837829e+003, 3.369612e-001
1.839757e+003, 3.372093e-001
1.841686e+003, 3.376201e-001
1.843614e+003, 3.378657e-001
1.845543e+003, 3.381257e-001
1.847471e+003, 3.381960e-001
1.849400e+003, 3.379183e-001
1.851328e+003, 3.381206e-001
1.853256e+003, 3.386447e-001
1.855185e+003, 3.385684e-001
1.857113e+003, 3.382596e-001
1.859042e+003, 3.387693e-001
1.860970e+003, 3.392277e-001
1.862899e+003, 3.393055e-001
1.864827e+003, 3.392768e-001
1.866756e+003, 3.392721e-001
1.868684e+003, 3.394346e-001
1.870613e+003, 3.396658e-001
1.872541e+003, 3.396804e-001
1.874470e+003, 3.399350e-001
1.876398e+003, 3.401037e-001
1.878327e+003, 3.398337e-001
1.880255e+003, 3.398953e-001
1.882183e+003, 3.399221e-001
1.884112e+003, 3.394027e-001
1.886040e+003, 3.397861e-001
1.887969e+003, 3.410200e-001
1.889897e+003, 3.415102e-001
1.891826e+003, 3.415823e-001
1.893754e+003, 3.419656e-001
1.895683e+003, 3.420213e-001
1.897611e+003, 3.420678e-001
1.899540e+003, 3.418734e-001
1.901468e+003, 3.414957e-001
1.903397e+003, 3.415218e-001
1.905325e+003, 3.425669e-001
1.907254e+003, 3.434249e-001
1.909182e+003, 3.434521e-001
1.911110e+003, 3.431501e-001
1.913039e+003, 3.433840e-001
1.914967e+003, 3.438722e-001
1.916896e+003, 3.438206e-001
1.918824e+003, 3.433723e-001
1.920753e+003, 3.430797e-001
1.922681e+003, 3.431734e-001
1.924610e+003, 3.430276e-001
1.926538e+003, 3.434118e-001
1.928467e+003, 3.441693e-001
1.930395e+003, 3.442071e-001
1.932324e+003, 3.438191e-001
1.934252e+003, 3.441390e-001
1.936181e+003, 3.444049e-001
1.938109e+003, 3.445620e-001
1.940037e+003, 3.448350e-001
1.941966e+003, 3.453527e-001
1.943894e+003, 3.461486e-001
1.945823e+003, 3.460667e-001
1.947751e+003, 3.456621e-001
1.949680e+003, 3.465099e-001
1.951608e+003, 3.471079e-001
1.953537e+003, 3.463587e-001
1.955465e+003, 3.451683e-001
1.957394e+003, 3.458866e-001
1.959322e+003, 3.477549e-001
1.961251e+003, 3.482074e-001
1.963179e+003, 3.480375e-001
1.965108e+003, 3.473788e-001
1.967036e+003, 3.462982e-001
1.968964e+003, 3.456661e-001
1.970893e+003, 3.467543e-001
1.972821e+003, 3.478339e-001
1.974750e+003, 3.477121e-001
1.976678e+003, 3.485511e-001
1.978607e+003, 3.495637e-001
1.980535e+003, 3.485660e-001
1.982464e+003, 3.486938e-001
1.984392e+003, 3.500142e-001
1.986321e+003, 3.501612e-001
1.988249e+003, 3.493637e-001
1.990178e+003, 3.493954e-001
1.992106e+003, 3.497986e-001
1.994035e+003, 3.497205e-001
1.995963e+003, 3.501638e-001
1.997891e+003, 3.517701e-001
1.999820e+003, 3.523032e-001
2.001748e+003, 3.515699e-001
2.003677e+003, 3.510550e-001
2.005605e+003, 3.505543e-001
2.007534e+003, 3.512933e-001
2.009462e+003, 3.528718e-001
2.011391e+003, 3.530258e-001
2.013319e+003, 3.517689e-001
2.015248e+003, 3.514106e-001
2.017176e+003, 3.526190e-001
2.019105e+003, 3.529021e-001
2.021033e+003, 3.524623e-001
2.022962e+003, 3.522615e-001
2.024890e+003, 3.527750e-001
2.026818e+003, 3.521674e-001
2.028747e+003, 3.520421e-001
2.030675e+003, 3.526148e-001
2.032604e+003, 3.530909e-001
2.034532e+003, 3.529835e-001
2.036461e+003, 3.524477e-001
2.038389e+003, 3.534572e-001
2.040318e+003, 3.552223e-001
2.042246e+003, 3.549661e-001
2.044175e+003, 3.543739e-001
2.046103e+003, 3.539185e-001
2.048031e+003, 3.540252e-001
2.049960e+003, 3.554795e-001
2.051888e+003, 3.560410e-001
2.053817e+003, 3.548344e-001
2.055745e+003, 3.550149e-001
2.057674e+003, 3.565944e-001
2.059602e+003, 3.568856e-001
2.061531e+003, 3.562053e-001
2.063459e+003, 3.564207e-001
2.065388e+003, 3.559796e-001
2.067316e+003, 3.565321e-001
2.069245e+003, 3.581432e-001
2.071173e+003, 3.587899e-001
2.073102e+003, 3.581268e-001
2.075030e+003, 3.579832e-001
2.076958e+003, 3.574487e-001
2.078887e+003, 3.573791e-001
2.080815e+003, 3.581657e-001
2.082744e+003, 3.584540e-001
2.084672e+003, 3.586188e-001
2.086601e+003, 3.581370e-001
2.088529e+003, 3.581165e-001
2.090458e+003, 3.577448e-001
2.092386e+003, 3.577974e-001
2.094315e+003, 3.587438e-001
2.096243e+003, 3.599645e-001
2.098172e+003, 3.605058e-001
2.100100e+003, 3.601056e-001
2.102029e+003, 3.601479e-001
2.103957e+003, 3.600819e-001
2.105885e+003, 3.603487e-001
2.107814e+003, 3.607996e-001
2.109742e+003, 3.602118e-001
2.111671e+003, 3.602016e-001
2.113599e+003, 3.610630e-001
2.115528e+003, 3.617810e-001
2.117456e+003, 3.613145e-001
2.119385e+003, 3.609722e-001
2.121313e+003, 3.604383e-001
2.123242e+003, 3.609743e-001
2.125170e+003, 3.613966e-001
2.127099e+003, 3.613984e-001
2.129027e+003, 3.618914e-001
2.130956e+003, 3.617104e-001
2.132884e+003, 3.613715e-001
2.134813e+003, 3.608708e-001
2.136741e+003, 3.612682e-001
2.138669e+003, 3.615179e-001
2.140598e+003, 3.614793e-001
2.142526e+003, 3.618218e-001
2.144455e+003, 3.618732e-001
2.146383e+003, 3.610738e-001
2.148312e+003, 3.614719e-001
2.150240e+003, 3.622589e-001
2.152169e+003, 3.627980e-001
2.154097e+003, 3.630489e-001
2.156026e+003, 3.628314e-001
2.157954e+003, 3.642467e-001
2.159883e+003, 3.673674e-001
2.161811e+003, 3.673163e-001
2.163740e+003, 3.653904e-001
2.165668e+003, 3.663023e-001
2.167596e+003, 3.665030e-001
2.169525e+003, 3.662203e-001
2.171453e+003, 3.650684e-001
2.173382e+003, 3.648654e-001
2.175310e+003, 3.643716e-001
2.177239e+003, 3.655606e-001
2.179167e+003, 3.664550e-001
2.181096e+003, 3.664640e-001
2.183024e+003, 3.667591e-001
2.184953e+003, 3.681191e-001
2.186881e+003, 3.674155e-001
2.188810e+003, 3.657430e-001
2.190738e+003, 3.651165e-001
2.192667e+003, 3.653554e-001
2.194595e+003, 3.678357e-001
2.196523e+003, 3.686337e-001
2.198452e+003, 3.670409e-001
2.200380e+003, 3.671096e-001
2.202309e+003, 3.678945e-001
2.204237e+003, 3.684056e-001
2.206166e+003, 3.680046e-001
2.208094e+003, 3.676943e-001
2.210023e+003, 3.682636e-001
2.211951e+003, 3.684098e-001
2.213880e+003, 3.683475e-001
2.215808e+003, 3.678816e-001
2.217737e+003, 3.684061e-001
2.219665e+003, 3.694034e-001
2.221594e+003, 3.687568e-001
2.223522e+003, 3.682400e-001
2.225450e+003, 3.690289e-001
2.227379e+003, 3.692873e-001
2.229307e+003, 3.692226e-001
2.231236e+003, 3.699801e-001
2.233164e+003, 3.707070e-001
2.235093e+003, 3.710781e-001
2.237021e+003, 3.711214e-001
2.238950e+003, 3.716678e-001
2.240878e+003, 3.723062e-001
2.242807e+003, 3.713781e-001
2.244735e+003, 3.706268e-001
2.246664e+003, 3.707569e-001
2.248592e+003, 3.719645e-001
2.250521e+003, 3.727155e-001
2.252449e+003, 3.721642e-001
2.254377e+003, 3.716810e-001
2.256306e+003, 3.714313e-001
2.258234e+003, 3.714733e-001
2.260163e+003, 3.717864e-001
2.262091e+003, 3.719157e-001
2.264020e+003, 3.722231e-001
2.265948e+003, 3.720653e-001
2.267877e+003, 3.719255e-001
2.269805e+003, 3.730351e-001
2.271734e+003, 3.742254e-001
2.273662e+003, 3.748136e-001
2.275591e+003, 3.745723e-001
2.277519e+003, 3.739728e-001
2.279448e+003, 3.743379e-001
2.281376e+003, 3.755841e-001
2.283304e+003, 3.758297e-001
2.285233e+003, 3.755713e-001
2.287161e+003, 3.754139e-001
2.289090e+003, 3.753529e-001
2.291018e+003, 3.755209e-001
2.292947e+003, 3.756655e-001
2.294875e+003, 3.756775e-001
2.296804e+003, 3.756430e-001
2.298732e+003, 3.758907e-001
2.300661e+003, 3.762987e-001
2.302589e+003, 3.763904e-001
2.304518e+003, 3.766480e-001
2.306446e+003, 3.765898e-001
2.308375e+003, 3.763350e-001
2.310303e+003, 3.763115e-001
2.312231e+003, 3.767107e-001
2.314160e+003, 3.774521e-001
2.316088e+003, 3.779067e-001
2.318017e+003, 3.780257e-001
2.319945e+003, 3.782099e-001
2.321874e+003, 3.785320e-001
2.323802e+003, 3.788457e-001
2.325731e+003, 3.782431e-001
2.327659e+003, 3.777952e-001
2.329588e+003, 3.781073e-001
2.331516e+003, 3.782521e-001
2.333445e+003, 3.782430e-001
2.335373e+003, 3.782615e-001
2.337302e+003, 3.784364e-001
2.339230e+003, 3.785487e-001
2.341158e+003, 3.786743e-001
2.343087e+003, 3.790157e-001
2.345015e+003, 3.793842e-001
2.346944e+003, 3.796480e-001
2.348872e+003, 3.790771e-001
2.350801e+003, 3.791114e-001
2.352729e+003, 3.795967e-001
2.354658e+003, 3.799382e-001
2.356586e+003, 3.798493e-001
2.358515e+003, 3.795471e-001
2.360443e+003, 3.799178e-001
2.362372e+003, 3.806491e-001
2.364300e+003, 3.808374e-001
2.366229e+003, 3.807787e-001
2.368157e+003, 3.810763e-001
2.370085e+003, 3.812855e-001
2.372014e+003, 3.811779e-001
2.373942e+003, 3.810585e-001
2.375871e+003, 3.810618e-001
2.377799e+003, 3.808207e-001
2.379728e+003, 3.808436e-001
2.381656e+003, 3.817050e-001
2.383585e+003, 3.819742e-001
2.385513e+003, 3.820197e-001
2.387442e+003, 3.823893e-001
2.389370e+003, 3.825261e-001
2.391299e+003, 3.822671e-001
2.393227e+003, 3.822199e-001
2.395156e+003, 3.827164e-001
2.397084e+003, 3.822031e-001
2.399012e+003, 3.819480e-001
2.400941e+003, 3.822176e-001
2.402869e+003, 3.819823e-001
2.404798e+003, 3.820282e-001
2.406726e+003, 3.830356e-001
2.408655e+003, 3.835383e-001
2.410583e+003, 3.834977e-001
2.412512e+003, 3.836130e-001
2.414440e+003, 3.839337e-001
2.416369e+003, 3.842930e-001
2.418297e+003, 3.843823e-001
2.420226e+003, 3.839263e-001
2.422154e+003, 3.837281e-001
2.424083e+003, 3.839239e-001
2.426011e+003, 3.841253e-001
2.427939e+003, 3.842646e-001
2.429868e+003, 3.847788e-001
2.431796e+003, 3.850602e-001
2.433725e+003, 3.850135e-001
2.435653e+003, 3.855756e-001
2.437582e+003, 3.858197e-001
2.439510e+003, 3.860426e-001
2.441439e+003, 3.858124e-001
2.443367e+003, 3.855797e-001
2.445296e+003, 3.861940e-001
2.447224e+003, 3.869235e-001
2.449153e+003, 3.868007e-001
2.451081e+003, 3.871571e-001
2.453010e+003, 3.875376e-001
2.454938e+003, 3.875053e-001
2.456866e+003, 3.872510e-001
2.458795e+003, 3.875034e-001
2.460723e+003, 3.878233e-001
2.462652e+003, 3.878548e-001
2.464580e+003, 3.878137e-001
2.466509e+003, 3.875359e-001
2.468437e+003, 3.872853e-001
2.470366e+003, 3.874230e-001
2.472294e+003, 3.883915e-001
2.474223e+003, 3.888437e-001
2.476151e+003, 3.885910e-001
2.478080e+003, 3.884794e-001
2.480008e+003, 3.890009e-001
2.481937e+003, 3.895310e-001
2.483865e+003, 3.898865e-001
2.485793e+003, 3.896816e-001
2.487722e+003, 3.895851e-001
2.489650e+003, 3.892780e-001
2.491579e+003, 3.894461e-001
2.493507e+003, 3.898025e-001
2.495436e+003, 3.901956e-001
2.497364e+003, 3.904165e-001
2.499293e+003, 3.904195e-001
2.501221e+003, 3.903913e-001
2.503150e+003, 3.906759e-001
2.505078e+003, 3.911118e-001
2.507007e+003, 3.915882e-001
2.508935e+003, 3.916021e-001
2.510864e+003, 3.914092e-001
2.512792e+003, 3.911225e-001
2.514720e+003, 3.912983e-001
2.516649e+003, 3.917590e-001
2.518577e+003, 3.920109e-001
2.520506e+003, 3.922274e-001
2.522434e+003, 3.920969e-001
2.524363e+003, 3.915096e-001
2.526291e+003, 3.919772e-001
2.528220e+003, 3.928781e-001
2.530148e+003, 3.927899e-001
2.532077e+003, 3.929446e-001
2.534005e+003, 3.932777e-001
2.535934e+003, 3.931428e-001
2.537862e+003, 3.932923e-001
2.539791e+003, 3.935585e-001
2.541719e+003, 3.936993e-001
2.543647e+003, 3.940925e-001
2.545576e+003, 3.943503e-001
2.547504e+003, 3.944677e-001
2.549433e+003, 3.942045e-001
2.551361e+003, 3.938636e-001
2.553290e+003, 3.944281e-001
2.555218e+003, 3.948585e-001
2.557147e+003, 3.954170e-001
2.559075e+003, 3.956253e-001
2.561004e+003, 3.955650e-001
2.562932e+003, 3.955935e-001
2.564861e+003, 3.952098e-001
2.566789e+003, 3.951895e-001
2.568718e+003, 3.960185e-001
2.570646e+003, 3.964714e-001
2.572574e+003, 3.965155e-001
2.574503e+003, 3.967985e-001
2.576431e+003, 3.970961e-001
2.578360e+003, 3.972474e-001
2.580288e+003, 3.975358e-001
2.582217e+003, 3.979748e-001
2.584145e+003, 3.979766e-001
2.586074e+003, 3.980410e-001
2.588002e+003, 3.984421e-001
2.589931e+003, 3.987522e-001
2.591859e+003, 3.989947e-001
2.593788e+003, 3.987556e-001
2.595716e+003, 3.986935e-001
2.597645e+003, 3.992247e-001
2.599573e+003, 3.993050e-001
2.601501e+003, 3.991145e-001
2.603430e+003, 3.991544e-001
2.605358e+003, 3.995219e-001
2.607287e+003, 3.996946e-001
2.609215e+003, 4.000640e-001
2.611144e+003, 4.004686e-001
2.613072e+003, 4.009578e-001
2.615001e+003, 4.011276e-001
2.616929e+003, 4.007438e-001
2.618858e+003, 4.006828e-001
2.620786e+003, 4.012748e-001
2.622715e+003, 4.017977e-001
2.624643e+003, 4.015337e-001
2.626572e+003, 4.016238e-001
2.628500e+003, 4.019473e-001
2.630428e+003, 4.021245e-001
2.632357e+003, 4.020894e-001
2.634285e+003, 4.022330e-001
2.636214e+003, 4.027204e-001
2.638142e+003, 4.030055e-001
2.640071e+003, 4.032700e-001
2.641999e+003, 4.037139e-001
2.643928e+003, 4.037013e-001
2.645856e+003, 4.037589e-001
2.647785e+003, 4.040506e-001
2.649713e+003, 4.042488e-001
2.651642e+003, 4.044746e-001
2.653570e+003, 4.046466e-001
2.655499e+003, 4.047066e-001
2.657427e+003, 4.049247e-001
2.659355e+003, 4.050395e-001
2.661284e+003, 4.051308e-001
2.663212e+003, 4.050822e-001
2.665141e+003, 4.050839e-001
2.667069e+003, 4.051399e-001
2.668998e+003, 4.051496e-001
2.670926e+003, 4.051031e-001
2.672855e+003, 4.053077e-001
2.674783e+003, 4.056440e-001
2.676712e+003, 4.058900e-001
2.678640e+003, 4.059264e-001
2.680569e+003, 4.060985e-001
2.682497e+003, 4.063779e-001
2.684426e+003, 4.064583e-001
2.686354e+003, 4.065089e-001
2.688282e+003, 4.064994e-001
2.690211e+003, 4.065503e-001
2.692139e+003, 4.066579e-001
2.694068e+003, 4.071578e-001
2.695996e+003, 4.077426e-001
2.697925e+003, 4.078821e-001
2.699853e+003, 4.079247e-001
2.701782e+003, 4.079562e-001
2.703710e+003, 4.080526e-001
2.705639e+003, 4.082643e-001
2.707567e+003, 4.084066e-001
2.709496e+003, 4.082434e-001
2.711424e+003, 4.084608e-001
2.713353e+003, 4.089717e-001
2.715281e+003, 4.089879e-001
2.717209e+003, 4.089313e-001
2.719138e+003, 4.091110e-001
2.721066e+003, 4.090508e-001
2.722995e+003, 4.089792e-001
2.724923e+003, 4.093413e-001
2.726852e+003, 4.097589e-001
2.728780e+003, 4.100986e-001
2.730709e+003, 4.103092e-001
2.732637e+003, 4.102759e-001
2.734566e+003, 4.103627e-001
2.736494e+003, 4.104667e-001
2.738423e+003, 4.104012e-001
2.740351e+003, 4.103229e-001
2.742280e+003, 4.103748e-001
2.744208e+003, 4.104121e-001
2.746136e+003, 4.108448e-001
2.748065e+003, 4.113320e-001
2.749993e+003, 4.113921e-001
2.751922e+003, 4.113514e-001
2.753850e+003, 4.115845e-001
2.755779e+003, 4.117269e-001
2.757707e+003, 4.119659e-001
2.759636e+003, 4.125509e-001
2.761564e+003, 4.128292e-001
2.763493e+003, 4.124829e-001
2.765421e+003, 4.121894e-001
2.767350e+003, 4.124050e-001
2.769278e+003, 4.128335e-001
2.771207e+003, 4.128922e-001
2.773135e+003, 4.128097e-001
2.775063e+003, 4.129431e-001
2.776992e+003, 4.132713e-001
2.778920e+003, 4.133211e-001
2.780849e+003, 4.134470e-001
2.782777e+003, 4.137517e-001
2.784706e+003, 4.139359e-001
2.786634e+003, 4.140004e-001
2.788563e+003, 4.141134e-001
2.790491e+003, 4.142719e-001
2.792420e+003, 4.144039e-001
2.794348e+003, 4.144074e-001
2.796277e+003, 4.146848e-001
2.798205e+003, 4.152460e-001
2.800134e+003, 4.152986e-001
2.802062e+003, 4.152019e-001
2.803990e+003, 4.154895e-001
2.805919e+003, 4.156971e-001
2.807847e+003, 4.157252e-001
2.809776e+003, 4.157049e-001
2.811704e+003, 4.158748e-001
2.813633e+003, 4.159080e-001
2.815561e+003, 4.159495e-001
2.817490e+003, 4.164743e-001
2.819418e+003, 4.169207e-001
2.821347e+003, 4.167961e-001
2.823275e+003, 4.167911e-001
2.825204e+003, 4.171050e-001
2.827132e+003, 4.173514e-001
2.829061e+003, 4.169390e-001
2.830989e+003, 4.169588e-001
2.832917e+003, 4.173373e-001
2.834846e+003, 4.177620e-001
2.836774e+003, 4.180846e-001
2.838703e+003, 4.177682e-001
2.840631e+003, 4.177347e-001
2.842560e+003, 4.177742e-001
2.844488e+003, 4.173448e-001
2.846417e+003, 4.169535e-001
2.848345e+003, 4.166762e-001
2.850274e+003, 4.163670e-001
2.852202e+003, 4.166653e-001
2.854131e+003, 4.169098e-001
2.856059e+003, 4.171380e-001
2.857988e+003, 4.177588e-001
2.859916e+003, 4.184906e-001
2.861844e+003, 4.187373e-001
2.863773e+003, 4.184130e-001
2.865701e+003, 4.183054e-001
2.867630e+003, 4.187146e-001
2.869558e+003, 4.191127e-001
2.871487e+003, 4.194121e-001
2.873415e+003, 4.196210e-001
2.875344e+003, 4.196899e-001
2.877272e+003, 4.198442e-001
2.879201e+003, 4.200887e-001
2.881129e+003, 4.204130e-001
2.883058e+003, 4.205027e-001
2.884986e+003, 4.207939e-001
2.886915e+003, 4.208897e-001
2.888843e+003, 4.208815e-001
2.890771e+003, 4.209132e-001
2.892700e+003, 4.213134e-001
2.894628e+003, 4.213138e-001
2.896557e+003, 4.207658e-001
2.898485e+003, 4.205366e-001
2.900414e+003, 4.209313e-001
2.902342e+003, 4.213496e-001
2.904271e+003, 4.215782e-001
2.906199e+003, 4.216362e-001
2.908128e+003, 4.215854e-001
2.910056e+003, 4.210427e-001
2.911985e+003, 4.206587e-001
2.913913e+003, 4.201409e-001
2.915842e+003, 4.198388e-001
2.917770e+003, 4.198605e-001
2.919698e+003, 4.194899e-001
2.921627e+003, 4.196802e-001
2.923555e+003, 4.199152e-001
2.925484e+003, 4.198110e-001
2.927412e+003, 4.200110e-001
2.929341e+003, 4.206624e-001
2.931269e+003, 4.215964e-001
2.933198e+003, 4.218735e-001
2.935126e+003, 4.213508e-001
2.937055e+003, 4.215496e-001
2.938983e+003, 4.221305e-001
2.940912e+003, 4.225383e-001
2.942840e+003, 4.225929e-001
2.944769e+003, 4.227392e-001
2.946697e+003, 4.234950e-001
2.948625e+003, 4.238113e-001
2.950554e+003, 4.237562e-001
2.952482e+003, 4.243638e-001
2.954411e+003, 4.246181e-001
2.956339e+003, 4.244647e-001
2.958268e+003, 4.248028e-001
2.960196e+003, 4.248674e-001
2.962125e+003, 4.248943e-001
2.964053e+003, 4.246385e-001
2.965982e+003, 4.243157e-001
2.967910e+003, 4.244341e-001
2.969839e+003, 4.241962e-001
2.971767e+003, 4.245694e-001
2.973696e+003, 4.251835e-001
2.975624e+003, 4.251682e-001
2.977552e+003, 4.247960e-001
2.979481e+003, 4.248007e-001
2.981409e+003, 4.253182e-001
2.983338e+003, 4.260216e-001
2.985266e+003, 4.257984e-001
2.987195e+003, 4.257422e-001
2.989123e+003, 4.262735e-001
2.991052e+003, 4.259901e-001
2.992980e+003, 4.257260e-001
2.994909e+003, 4.260477e-001
2.996837e+003, 4.265522e-001
2.998766e+003, 4.268501e-001
3.000694e+003, 4.269614e-001
3.002623e+003, 4.272771e-001
3.004551e+003, 4.273852e-001
3.006479e+003, 4.275009e-001
3.008408e+003, 4.278026e-001
3.010336e+003, 4.280856e-001
3.012265e+003, 4.282514e-001
3.014193e+003, 4.282911e-001
3.016122e+003, 4.286055e-001
3.018050e+003, 4.287438e-001
3.019979e+003, 4.286594e-001
3.021907e+003, 4.286590e-001
3.023836e+003, 4.286397e-001
3.025764e+003, 4.290387e-001
3.027693e+003, 4.295747e-001
3.029621e+003, 4.295251e-001
3.031550e+003, 4.292623e-001
3.033478e+003, 4.293796e-001
3.035406e+003, 4.295292e-001
3.037335e+003, 4.293648e-001
3.039263e+003, 4.294688e-001
3.041192e+003, 4.299574e-001
3.043120e+003, 4.306140e-001
3.045049e+003, 4.312764e-001
3.046977e+003, 4.312828e-001
3.048906e+003, 4.305064e-001
3.050834e+003, 4.305227e-001
3.052763e+003, 4.310592e-001
3.054691e+003, 4.307493e-001
3.056620e+003, 4.309670e-001
3.058548e+003, 4.314061e-001
3.060477e+003, 4.315569e-001
3.062405e+003, 4.314763e-001
3.064333e+003, 4.320290e-001
3.066262e+003, 4.325297e-001
3.068190e+003, 4.324692e-001
3.070119e+003, 4.323179e-001
3.072047e+003, 4.322983e-001
3.073976e+003, 4.321529e-001
3.075904e+003, 4.322587e-001
3.077833e+003, 4.331306e-001
3.079761e+003, 4.336352e-001
3.081690e+003, 4.336370e-001
3.083618e+003, 4.331621e-001
3.085547e+003, 4.332027e-001
3.087475e+003, 4.333108e-001
3.089404e+003, 4.328830e-001
3.091332e+003, 4.329433e-001
3.093260e+003, 4.336790e-001
3.095189e+003, 4.341687e-001
3.097117e+003, 4.344926e-001
3.099046e+003, 4.347078e-001
3.100974e+003, 4.345652e-001
3.102903e+003, 4.347755e-001
3.104831e+003, 4.353552e-001
3.106760e+003, 4.349480e-001
3.108688e+003, 4.346448e-001
3.110617e+003, 4.352508e-001
3.112545e+003, 4.362632e-001
3.114474e+003, 4.359320e-001
3.116402e+003, 4.355437e-001
3.118331e+003, 4.360213e-001
3.120259e+003, 4.362326e-001
3.122188e+003, 4.363527e-001
3.124116e+003, 4.367192e-001
3.126044e+003, 4.367636e-001
3.127973e+003, 4.360814e-001
3.129901e+003, 4.362012e-001
3.131830e+003, 4.369583e-001
3.133758e+003, 4.370508e-001
3.135687e+003, 4.371707e-001
3.137615e+003, 4.374313e-001
3.139544e+003, 4.377637e-001
3.141472e+003, 4.377869e-001
3.143401e+003, 4.378038e-001
3.145329e+003, 4.380926e-001
3.147258e+003, 4.383462e-001
3.149186e+003, 4.384882e-001
3.151115e+003, 4.383433e-001
3.153043e+003, 4.383852e-001
3.154971e+003, 4.382026e-001
3.156900e+003, 4.382812e-001
3.158828e+003, 4.391263e-001
3.160757e+003, 4.395802e-001
3.162685e+003, 4.398919e-001
3.164614e+003, 4.401057e-001
3.166542e+003, 4.399379e-001
3.168471e+003, 4.400473e-001
3.170399e+003, 4.403892e-001
3.172328e+003, 4.409588e-001
3.174256e+003, 4.407785e-001
3.176185e+003, 4.405069e-001
3.178113e+003, 4.407417e-001
3.180042e+003, 4.410945e-001
3.181970e+003, 4.408111e-001
3.183898e+003, 4.404504e-001
3.185827e+003, 4.409596e-001
3.187755e+003, 4.414018e-001
3.189684e+003, 4.417266e-001
3.191612e+003, 4.418470e-001
3.193541e+003, 4.420725e-001
3.195469e+003, 4.421986e-001
3.197398e+003, 4.423463e-001
3.199326e+003, 4.422166e-001
3.201255e+003, 4.422824e-001
3.203183e+003, 4.422583e-001
3.205112e+003, 4.428933e-001
3.207040e+003, 4.437211e-001
3.208969e+003, 4.433628e-001
3.210897e+003, 4.433723e-001
3.212825e+003, 4.434352e-001
3.214754e+003, 4.434234e-001
3.216682e+003, 4.437509e-001
3.218611e+003, 4.441493e-001
3.220539e+003, 4.440471e-001
3.222468e+003, 4.442197e-001
3.224396e+003, 4.442506e-001
3.226325e+003, 4.441982e-001
3.228253e+003, 4.447708e-001
3.230182e+003, 4.446244e-001
3.232110e+003, 4.446184e-001
3.234039e+003, 4.447276e-001
3.235967e+003, 4.448757e-001
3.237896e+003, 4.453279e-001
3.239824e+003, 4.454218e-001
3.241752e+003, 4.452986e-001
3.243681e+003, 4.453790e-001
3.245609e+003, 4.456859e-001
3.247538e+003, 4.458118e-001
3.249466e+003, 4.457097e-001
3.251395e+003, 4.461404e-001
3.253323e+003, 4.464156e-001
3.255252e+003, 4.469469e-001
3.257180e+003, 4.470083e-001
3.259109e+003, 4.469026e-001
3.261037e+003, 4.470561e-001
3.262966e+003, 4.469583e-001
3.264894e+003, 4.473400e-001
3.266823e+003, 4.475784e-001
3.268751e+003, 4.474332e-001
3.270679e+003, 4.471940e-001
3.272608e+003, 4.475148e-001
3.274536e+003, 4.485385e-001
3.276465e+003, 4.492069e-001
3.278393e+003, 4.491633e-001
3.280322e+003, 4.491800e-001
3.282250e+003, 4.494329e-001
3.284179e+003, 4.489959e-001
3.286107e+003, 4.486837e-001
3.288036e+003, 4.494354e-001
3.289964e+003, 4.499095e-001
3.291893e+003, 4.493976e-001
3.293821e+003, 4.499861e-001
3.295750e+003, 4.507062e-001
3.297678e+003, 4.506426e-001
3.299606e+003, 4.502390e-001
3.301535e+003, 4.499768e-001
3.303463e+003, 4.502193e-001
3.305392e+003, 4.502826e-001
3.307320e+003, 4.505108e-001
3.309249e+003, 4.506294e-001
3.311177e+003, 4.507334e-001
3.313106e+003, 4.511871e-001
3.315034e+003, 4.509574e-001
3.316963e+003, 4.510210e-001
3.318891e+003, 4.514173e-001
3.320820e+003, 4.514028e-001
3.322748e+003, 4.511935e-001
3.324677e+003, 4.513149e-001
3.326605e+003, 4.516759e-001
3.328533e+003, 4.522630e-001
3.330462e+003, 4.521833e-001
3.332390e+003, 4.523843e-001
3.334319e+003, 4.530588e-001
3.336247e+003, 4.529647e-001
3.338176e+003, 4.529439e-001
3.340104e+003, 4.536321e-001
3.342033e+003, 4.542234e-001
3.343961e+003, 4.544187e-001
3.345890e+003, 4.543255e-001
3.347818e+003, 4.539298e-001
3.349747e+003, 4.536637e-001
3.351675e+003, 4.538212e-001
3.353604e+003, 4.533615e-001
3.355532e+003, 4.531237e-001
3.357460e+003, 4.534631e-001
3.359389e+003, 4.537924e-001
3.361317e+003, 4.538408e-001
3.363246e+003, 4.541170e-001
3.365174e+003, 4.539560e-001
3.367103e+003, 4.537913e-001
3.369031e+003, 4.541304e-001
3.370960e+003, 4.546382e-001
3.372888e+003, 4.542293e-001
3.374817e+003, 4.542501e-001
3.376745e+003, 4.550850e-001
3.378674e+003, 4.554505e-001
3.380602e+003, 4.552177e-001
3.382531e+003, 4.543914e-001
3.384459e+003, 4.544028e-001
3.386387e+003, 4.554048e-001
3.388316e+003, 4.558089e-001
3.390244e+003, 4.558322e-001
3.392173e+003, 4.563485e-001
3.394101e+003, 4.565853e-001
3.396030e+003, 4.564873e-001
3.397958e+003, 4.566597e-001
3.399887e+003, 4.569937e-001
3.401815e+003, 4.571246e-001
3.403744e+003, 4.571396e-001
3.405672e+003, 4.574932e-001
3.407601e+003, 4.577225e-001
3.409529e+003, 4.571496e-001
3.411458e+003, 4.569052e-001
3.413386e+003, 4.575024e-001
3.415314e+003, 4.575877e-001
3.417243e+003, 4.573319e-001
3.419171e+003, 4.582264e-001
3.421100e+003, 4.587526e-001
3.423028e+003, 4.583987e-001
3.424957e+003, 4.579861e-001
3.426885e+003, 4.580952e-001
3.428814e+003, 4.590243e-001
3.430742e+003, 4.592215e-001
3.432671e+003, 4.590447e-001
3.434599e+003, 4.592401e-001
3.436528e+003, 4.592079e-001
3.438456e+003, 4.587782e-001
3.440385e+003, 4.594195e-001
3.442313e+003, 4.598714e-001
3.444241e+003, 4.592940e-001
3.446170e+003, 4.585687e-001
3.448098e+003, 4.590863e-001
3.450027e+003, 4.598341e-001
3.451955e+003, 4.598279e-001
3.453884e+003, 4.598045e-001
3.455812e+003, 4.605776e-001
3.457741e+003, 4.608541e-001
3.459669e+003, 4.606084e-001
3.461598e+003, 4.606019e-001
3.463526e+003, 4.605476e-001
3.465455e+003, 4.607231e-001
3.467383e+003, 4.609436e-001
3.469312e+003, 4.611452e-001
3.471240e+003, 4.616950e-001
3.473168e+003, 4.615746e-001
3.475097e+003, 4.614377e-001
3.477025e+003, 4.618451e-001
3.478954e+003, 4.620457e-001
3.480882e+003, 4.620373e-001
3.482811e+003, 4.620134e-001
3.484739e+003, 4.623765e-001
3.486668e+003, 4.620593e-001
3.488596e+003, 4.623118e-001
3.490525e+003, 4.629061e-001
3.492453e+003, 4.627108e-001
3.494382e+003, 4.623494e-001
3.496310e+003, 4.624324e-001
3.498239e+003, 4.630630e-001
3.500167e+003, 4.635611e-001
3.502095e+003, 4.639226e-001
3.504024e+003, 4.644900e-001
3.505952e+003, 4.644678e-001
3.507881e+003, 4.639639e-001
3.509809e+003, 4.633383e-001
3.511738e+003, 4.632200e-001
3.513666e+003, 4.640446e-001
3.515595e+003, 4.640752e-001
3.517523e+003, 4.638813e-001
3.519452e+003, 4.641773e-001
3.521380e+003, 4.644179e-001
3.523309e+003, 4.642577e-001
3.525237e+003, 4.647748e-001
3.527166e+003, 4.646635e-001
3.529094e+003, 4.638884e-001
3.531022e+003, 4.642542e-001
3.532951e+003, 4.652745e-001
3.534879e+003, 4.649344e-001
3.536808e+003, 4.644967e-001
3.538736e+003, 4.641280e-001
3.540665e+003, 4.644818e-001
3.542593e+003, 4.656830e-001
3.544522e+003, 4.668979e-001
3.546450e+003, 4.666137e-001
3.548379e+003, 4.655681e-001
3.550307e+003, 4.650531e-001
3.552236e+003, 4.649092e-001
3.554164e+003, 4.647916e-001
3.556093e+003, 4.646947e-001
3.558021e+003, 4.650065e-001
3.559949e+003, 4.656965e-001
3.561878e+003, 4.655332e-001
3.563806e+003, 4.660155e-001
3.565735e+003, 4.660519e-001
3.567663e+003, 4.659525e-001
3.569592e+003, 4.661230e-001
3.571520e+003, 4.663373e-001
3.573449e+003, 4.664672e-001
3.575377e+003, 4.666083e-001
3.577306e+003, 4.674398e-001
3.579234e+003, 4.676045e-001
3.581163e+003, 4.674876e-001
3.583091e+003, 4.670871e-001
3.585020e+003, 4.670018e-001
3.586948e+003, 4.671092e-001
3.588876e+003, 4.667949e-001
3.590805e+003, 4.662251e-001
3.592733e+003, 4.661866e-001
3.594662e+003, 4.667590e-001
3.596590e+003, 4.674376e-001
3.598519e+003, 4.676192e-001
3.600447e+003, 4.675462e-001
3.602376e+003, 4.672425e-001
3.604304e+003, 4.674942e-001
3.606233e+003, 4.682129e-001
3.608161e+003, 4.688216e-001
3.610090e+003, 4.687709e-001
3.612018e+003, 4.685288e-001
3.613947e+003, 4.684995e-001
3.615875e+003, 4.686415e-001
3.617803e+003, 4.684340e-001
3.619732e+003, 4.692233e-001
3.621660e+003, 4.698428e-001
3.623589e+003, 4.698005e-001
3.625517e+003, 4.694923e-001
3.627446e+003, 4.699680e-001
3.629374e+003, 4.711668e-001
3.631303e+003, 4.706925e-001
3.633231e+003, 4.699575e-001
3.635160e+003, 4.705445e-001
3.637088e+003, 4.701490e-001
3.639017e+003, 4.698893e-001
3.640945e+003, 4.705680e-001
3.642874e+003, 4.709001e-001
3.644802e+003, 4.710618e-001
3.646730e+003, 4.711694e-001
3.648659e+003, 4.712816e-001
3.650587e+003, 4.715179e-001
3.652516e+003, 4.717479e-001
3.654444e+003, 4.724522e-001
3.656373e+003, 4.720868e-001
3.658301e+003, 4.712254e-001
3.660230e+003, 4.721246e-001
3.662158e+003, 4.728393e-001
3.664087e+003, 4.723972e-001
3.666015e+003, 4.720762e-001
3.667944e+003, 4.723689e-001
3.669872e+003, 4.733138e-001
3.671801e+003, 4.733303e-001
3.673729e+003, 4.736483e-001
3.675657e+003, 4.742906e-001
3.677586e+003, 4.735986e-001
3.679514e+003, 4.736351e-001
3.681443e+003, 4.735013e-001
3.683371e+003, 4.735795e-001
3.685300e+003, 4.743581e-001
3.687228e+003, 4.748683e-001
3.689157e+003, 4.752598e-001
3.691085e+003, 4.750308e-001
3.693014e+003, 4.750404e-001
3.694942e+003, 4.757466e-001
3.696871e+003, 4.755273e-001
3.698799e+003, 4.751652e-001
3.700728e+003, 4.756519e-001
3.702656e+003, 4.753938e-001
3.704584e+003, 4.756657e-001
3.706513e+003, 4.754408e-001
3.708441e+003, 4.759915e-001
3.710370e+003, 4.775463e-001
3.712298e+003, 4.775641e-001
3.714227e+003, 4.765314e-001
3.716155e+003, 4.756759e-001
3.718084e+003, 4.757416e-001
3.720012e+003, 4.763315e-001
3.721941e+003, 4.763534e-001
3.723869e+003, 4.767521e-001
3.725798e+003, 4.779388e-001
3.727726e+003, 4.780898e-001
3.729655e+003, 4.781347e-001
3.731583e+003, 4.789437e-001
3.733511e+003, 4.788598e-001
3.735440e+003, 4.784796e-001
3.737368e+003, 4.786452e-001
3.739297e+003, 4.791156e-001
3.741225e+003, 4.794226e-001
3.743154e+003, 4.799705e-001
3.745082e+003, 4.802458e-001
3.747011e+003, 4.801728e-001
3.748939e+003, 4.801574e-001
3.750868e+003, 4.799117e-001
3.752796e+003, 4.799428e-001
3.754725e+003, 4.791279e-001
3.756653e+003, 4.795007e-001
3.758582e+003, 4.799813e-001
3.760510e+003, 4.801132e-001
3.762438e+003, 4.800294e-001
3.764367e+003, 4.806367e-001
3.766295e+003, 4.811068e-001
3.768224e+003, 4.807359e-001
3.770152e+003, 4.800529e-001
3.772081e+003, 4.801208e-001
3.774009e+003, 4.800458e-001
3.775938e+003, 4.798169e-001
3.777866e+003, 4.806333e-001
3.779795e+003, 4.818158e-001
3.781723e+003, 4.817179e-001
3.783652e+003, 4.821119e-001
3.785580e+003, 4.831633e-001
3.787509e+003, 4.830702e-001
3.789437e+003, 4.823644e-001
3.791365e+003, 4.816914e-001
3.793294e+003, 4.815507e-001
3.795222e+003, 4.826246e-001
3.797151e+003, 4.826162e-001
3.799079e+003, 4.832832e-001
3.801008e+003, 4.845920e-001
3.802936e+003, 4.843805e-001
3.804865e+003, 4.836755e-001
3.806793e+003, 4.831846e-001
3.808722e+003, 4.828950e-001
3.810650e+003, 4.836648e-001
3.812579e+003, 4.835806e-001
3.814507e+003, 4.839503e-001
3.816436e+003, 4.842775e-001
3.818364e+003, 4.843670e-001
3.820292e+003, 4.853888e-001
3.822221e+003, 4.855462e-001
3.824149e+003, 4.851762e-001
3.826078e+003, 4.847480e-001
3.828006e+003, 4.851957e-001
3.829935e+003, 4.853674e-001
3.831863e+003, 4.854276e-001
3.833792e+003, 4.863945e-001
3.835720e+003, 4.866329e-001
3.837649e+003, 4.871260e-001
3.839577e+003, 4.874497e-001
3.841506e+003, 4.867887e-001
3.843434e+003, 4.863989e-001
3.845363e+003, 4.863753e-001
3.847291e+003, 4.864962e-001
3.849219e+003, 4.866893e-001
3.851148e+003, 4.874193e-001
3.853076e+003, 4.888431e-001
3.855005e+003, 4.880191e-001
3.856933e+003, 4.866590e-001
3.858862e+003, 4.872198e-001
3.860790e+003, 4.882500e-001
3.862719e+003, 4.888701e-001
3.864647e+003, 4.888951e-001
3.866576e+003, 4.885409e-001
3.868504e+003, 4.891657e-001
3.870433e+003, 4.895803e-001
3.872361e+003, 4.886648e-001
3.874290e+003, 4.886061e-001
3.876218e+003, 4.887765e-001
3.878146e+003, 4.886277e-001
3.880075e+003, 4.881632e-001
3.882003e+003, 4.883655e-001
3.883932e+003, 4.898348e-001
3.885860e+003, 4.904923e-001
3.887789e+003, 4.899323e-001
3.889717e+003, 4.901568e-001
3.891646e+003, 4.907624e-001
3.893574e+003, 4.903041e-001
3.895503e+003, 4.897535e-001
3.897431e+003, 4.898118e-001
3.899360e+003, 4.901437e-001
3.901288e+003, 4.899963e-001
3.903217e+003, 4.899203e-001
3.905145e+003, 4.906050e-001
3.907073e+003, 4.905885e-001
3.909002e+003, 4.902595e-001
3.910930e+003, 4.909050e-001
3.912859e+003, 4.911245e-001
3.914787e+003, 4.909558e-001
3.916716e+003, 4.912911e-001
3.918644e+003, 4.916852e-001
3.920573e+003, 4.916688e-001
3.922501e+003, 4.918298e-001
3.924430e+003, 4.921690e-001
3.926358e+003, 4.923244e-001
3.928287e+003, 4.923323e-001
3.930215e+003, 4.931091e-001
3.932144e+003, 4.936711e-001
3.934072e+003, 4.928280e-001
3.936000e+003, 4.911786e-001
3.937929e+003, 4.915948e-001
3.939857e+003, 4.932292e-001
3.941786e+003, 4.934387e-001
3.943714e+003, 4.931769e-001
3.945643e+003, 4.932919e-001
3.947571e+003, 4.938477e-001
3.949500e+003, 4.935837e-001
3.951428e+003, 4.937986e-001
3.953357e+003, 4.939953e-001
3.955285e+003, 4.937482e-001
3.957214e+003, 4.945238e-001
3.959142e+003, 4.948916e-001
3.961071e+003, 4.947861e-001
3.962999e+003, 4.942102e-001
3.964927e+003, 4.934672e-001
3.966856e+003, 4.934976e-001
3.968784e+003, 4.940692e-001
3.970713e+003, 4.944699e-001
3.972641e+003, 4.946824e-001
3.974570e+003, 4.949110e-001
3.976498e+003, 4.949818e-001
3.978427e+003, 4.961116e-001
3.980355e+003, 4.965578e-001
3.982284e+003, 4.960915e-001
3.984212e+003, 4.961690e-001
3.986141e+003, 4.958732e-001
3.988069e+003, 4.957112e-001
3.989998e+003, 4.962790e-001
3.991926e+003, 4.963608e-001
3.993854e+003, 4.963900e-001
3.995783e+003, 4.962639e-001
3.997711e+003, 4.970320e-001
3.999640e+003, 4.980294e-001
4.001568e+003, 0.000000e+000
##END=



