##NAMES=Andradite
##RRUFFID=R040001
##IDEAL CHEMISTRY=Ca_3_Fe^3+^_2_(SiO_4_)_3_
##LOCALITY=Stanley Butte, Graham County, Arizona, USA
##OWNER=RRUFF
##SOURCE=University of Arizona Mineral Museum
##DESCRIPTION=Brownish-orange dodecahedra
##STATUS=The identification of this mineral has been confirmed by X-ray diffraction and chemical analysis
##URL=rruff.info/R040001
##MEASURED CHEMISTRY=Ca_3.00_(Fe_1.96_Al_0.04_)_Î£=2_(SiO_4_)_3_ ; trace amounts of Mn
3.741225e+002, 2.888231e-001
3.760510e+002, 2.646647e-001
3.779795e+002, 2.453272e-001
3.799079e+002, 2.585681e-001
3.818364e+002, 2.576306e-001
3.837649e+002, 2.454442e-001
3.856933e+002, 2.454045e-001
3.876218e+002, 2.354420e-001
3.895503e+002, 2.148830e-001
3.914787e+002, 1.961721e-001
3.934072e+002, 1.910114e-001
3.953357e+002, 1.895794e-001
3.972641e+002, 1.788880e-001
3.991926e+002, 1.616381e-001
4.011211e+002, 1.534388e-001
4.030495e+002, 1.474908e-001
4.049780e+002, 1.346867e-001
4.069065e+002, 1.227733e-001
4.088349e+002, 1.165768e-001
4.107634e+002, 1.099041e-001
4.126919e+002, 1.015952e-001
4.146203e+002, 9.375355e-002
4.165488e+002, 9.014448e-002
4.184773e+002, 9.216351e-002
4.204057e+002, 9.942573e-002
4.223342e+002, 1.133263e-001
4.242627e+002, 1.341619e-001
4.261911e+002, 1.588632e-001
4.281196e+002, 1.819554e-001
4.300481e+002, 1.971410e-001
4.319765e+002, 2.030849e-001
4.339050e+002, 1.978895e-001
4.358335e+002, 1.852065e-001
4.377619e+002, 1.695479e-001
4.396904e+002, 1.538075e-001
4.416189e+002, 1.403205e-001
4.435473e+002, 1.293455e-001
4.454758e+002, 1.186999e-001
4.474043e+002, 1.075017e-001
4.493327e+002, 9.617242e-002
4.512612e+002, 8.669989e-002
4.531897e+002, 7.892855e-002
4.551181e+002, 7.303677e-002
4.570466e+002, 6.854225e-002
4.589751e+002, 6.539815e-002
4.609035e+002, 6.456538e-002
4.628320e+002, 6.529067e-002
4.647605e+002, 6.798776e-002
4.666889e+002, 7.344490e-002
4.686174e+002, 8.058356e-002
4.705459e+002, 9.201600e-002
4.724743e+002, 1.078261e-001
4.744028e+002, 1.247092e-001
4.763313e+002, 1.359933e-001
4.782597e+002, 1.350979e-001
4.801882e+002, 1.222360e-001
4.821167e+002, 1.041979e-001
4.840451e+002, 8.822709e-002
4.859736e+002, 7.755148e-002
4.879021e+002, 7.294620e-002
4.898305e+002, 7.438801e-002
4.917590e+002, 8.055896e-002
4.936875e+002, 9.051512e-002
4.956159e+002, 1.040761e-001
4.975444e+002, 1.209687e-001
4.994729e+002, 1.396267e-001
5.014013e+002, 1.572916e-001
5.033298e+002, 1.709620e-001
5.052583e+002, 1.783277e-001
5.071867e+002, 1.783485e-001
5.091152e+002, 1.710311e-001
5.110437e+002, 1.595951e-001
5.129721e+002, 1.462510e-001
5.149006e+002, 1.326426e-001
5.168290e+002, 1.191014e-001
5.187575e+002, 1.056626e-001
5.206860e+002, 9.341333e-002
5.226144e+002, 8.257408e-002
5.245429e+002, 7.186715e-002
5.264714e+002, 6.201538e-002
5.283998e+002, 5.382354e-002
5.303283e+002, 4.660242e-002
5.322568e+002, 4.090859e-002
5.341852e+002, 3.692232e-002
5.361137e+002, 3.375515e-002
5.380422e+002, 3.095441e-002
5.399706e+002, 2.881998e-002
5.418991e+002, 2.679107e-002
5.438276e+002, 2.517328e-002
5.457560e+002, 2.411064e-002
5.476845e+002, 2.316488e-002
5.496130e+002, 2.215957e-002
5.515414e+002, 2.127586e-002
5.534699e+002, 2.086903e-002
5.553984e+002, 2.091573e-002
5.573268e+002, 2.045899e-002
5.592553e+002, 1.985844e-002
5.611838e+002, 1.980852e-002
5.631122e+002, 2.001781e-002
5.650407e+002, 2.033778e-002
5.669692e+002, 2.063635e-002
5.688976e+002, 2.084551e-002
5.708261e+002, 2.138064e-002
5.727546e+002, 2.208670e-002
5.746830e+002, 2.269332e-002
5.766115e+002, 2.370195e-002
5.785400e+002, 2.510618e-002
5.804684e+002, 2.692536e-002
5.823969e+002, 2.949745e-002
5.843254e+002, 3.300306e-002
5.862538e+002, 3.768701e-002
5.881823e+002, 4.193885e-002
5.901108e+002, 4.297714e-002
5.920392e+002, 4.008824e-002
5.939677e+002, 3.553065e-002
5.958962e+002, 3.179458e-002
5.978246e+002, 2.974757e-002
5.997531e+002, 2.904249e-002
6.016816e+002, 2.853342e-002
6.036100e+002, 2.790555e-002
6.055385e+002, 2.756441e-002
6.074670e+002, 2.741263e-002
6.093954e+002, 2.727406e-002
6.113239e+002, 2.726204e-002
6.132524e+002, 2.764823e-002
6.151808e+002, 2.807338e-002
6.171093e+002, 2.852799e-002
6.190378e+002, 2.902059e-002
6.209662e+002, 2.946160e-002
6.228947e+002, 3.006805e-002
6.248232e+002, 3.084479e-002
6.267516e+002, 3.157160e-002
6.286801e+002, 3.224932e-002
6.306086e+002, 3.296418e-002
6.325370e+002, 3.379322e-002
6.344655e+002, 3.485180e-002
6.363940e+002, 3.607005e-002
6.383224e+002, 3.708789e-002
6.402509e+002, 3.820255e-002
6.421794e+002, 3.947719e-002
6.441078e+002, 4.107506e-002
6.460363e+002, 4.266010e-002
6.479648e+002, 4.416217e-002
6.498932e+002, 4.581319e-002
6.518217e+002, 4.768533e-002
6.537502e+002, 4.959499e-002
6.556786e+002, 5.181466e-002
6.576071e+002, 5.399949e-002
6.595356e+002, 5.591015e-002
6.614641e+002, 5.774494e-002
6.633925e+002, 5.979338e-002
6.653210e+002, 6.228536e-002
6.672495e+002, 6.488300e-002
6.691779e+002, 6.734894e-002
6.711064e+002, 6.985985e-002
6.730349e+002, 7.224113e-002
6.749633e+002, 7.483038e-002
6.768918e+002, 7.774217e-002
6.788203e+002, 8.054853e-002
6.807487e+002, 8.339796e-002
6.826772e+002, 8.647600e-002
6.846057e+002, 8.959937e-002
6.865341e+002, 9.266823e-002
6.884626e+002, 9.582881e-002
6.903911e+002, 9.917217e-002
6.923195e+002, 1.025964e-001
6.942480e+002, 1.060850e-001
6.961765e+002, 1.096448e-001
6.981049e+002, 1.131544e-001
7.000334e+002, 1.166273e-001
7.019619e+002, 1.201830e-001
7.038903e+002, 1.238131e-001
7.058188e+002, 1.274785e-001
7.077473e+002, 1.311487e-001
7.096757e+002, 1.346925e-001
7.116042e+002, 1.383786e-001
7.135327e+002, 1.420733e-001
7.154611e+002, 1.457039e-001
7.173896e+002, 1.494754e-001
7.193181e+002, 1.534018e-001
7.212465e+002, 1.572693e-001
7.231750e+002, 1.610028e-001
7.251035e+002, 1.646386e-001
7.270319e+002, 1.683381e-001
7.289604e+002, 1.718114e-001
7.308889e+002, 1.754483e-001
7.328173e+002, 1.793029e-001
7.347458e+002, 1.830927e-001
7.366743e+002, 1.867381e-001
7.386027e+002, 1.904174e-001
7.405312e+002, 1.938247e-001
7.424597e+002, 1.971534e-001
7.443881e+002, 2.008522e-001
7.463166e+002, 2.044689e-001
7.482451e+002, 2.078599e-001
7.501735e+002, 2.115913e-001
7.521020e+002, 2.150800e-001
7.540305e+002, 2.186204e-001
7.559589e+002, 2.222867e-001
7.578874e+002, 2.259546e-001
7.598159e+002, 2.296473e-001
7.617443e+002, 2.331427e-001
7.636728e+002, 2.366404e-001
7.656013e+002, 2.396655e-001
7.675297e+002, 2.425313e-001
7.694582e+002, 2.453242e-001
7.713867e+002, 2.479022e-001
7.733151e+002, 2.506827e-001
7.752436e+002, 2.535765e-001
7.771721e+002, 2.564699e-001
7.791005e+002, 2.592842e-001
7.810290e+002, 2.621308e-001
7.829575e+002, 2.648081e-001
7.848859e+002, 2.675248e-001
7.868144e+002, 2.700129e-001
7.887429e+002, 2.720665e-001
7.906713e+002, 2.738789e-001
7.925998e+002, 2.756077e-001
7.945283e+002, 2.768004e-001
7.964567e+002, 2.773892e-001
7.983852e+002, 2.776844e-001
8.003137e+002, 2.777020e-001
8.022421e+002, 2.772708e-001
8.041706e+002, 2.764045e-001
8.060991e+002, 2.752331e-001
8.080275e+002, 2.741451e-001
8.099560e+002, 2.726199e-001
8.118845e+002, 2.698499e-001
8.138129e+002, 2.655610e-001
8.157414e+002, 2.601172e-001
8.176699e+002, 2.548403e-001
8.195983e+002, 2.521041e-001
8.215268e+002, 2.528765e-001
8.234553e+002, 2.553683e-001
8.253837e+002, 2.569132e-001
8.273122e+002, 2.569235e-001
8.292407e+002, 2.549803e-001
8.311691e+002, 2.510873e-001
8.330976e+002, 2.457534e-001
8.350261e+002, 2.390193e-001
8.369545e+002, 2.312969e-001
8.388830e+002, 2.230084e-001
8.408115e+002, 2.144902e-001
8.427399e+002, 2.055049e-001
8.446684e+002, 1.961670e-001
8.465969e+002, 1.866566e-001
8.485253e+002, 1.770675e-001
8.504538e+002, 1.671170e-001
8.523823e+002, 1.571286e-001
8.543107e+002, 1.479332e-001
8.562392e+002, 1.402220e-001
8.581677e+002, 1.350990e-001
8.600961e+002, 1.333567e-001
8.620246e+002, 1.352979e-001
8.639531e+002, 1.412836e-001
8.658815e+002, 1.513523e-001
8.678100e+002, 1.652142e-001
8.697385e+002, 1.814527e-001
8.716669e+002, 1.980141e-001
8.735954e+002, 2.130918e-001
8.755239e+002, 2.255310e-001
8.774523e+002, 2.346213e-001
8.793808e+002, 2.405297e-001
8.813093e+002, 2.436945e-001
8.832377e+002, 2.442253e-001
8.851662e+002, 2.422654e-001
8.870947e+002, 2.381931e-001
8.890231e+002, 2.324974e-001
8.909516e+002, 2.260159e-001
8.928801e+002, 2.189813e-001
8.948085e+002, 2.114669e-001
8.967370e+002, 2.039557e-001
8.986655e+002, 1.965771e-001
9.005939e+002, 1.896155e-001
9.025224e+002, 1.830655e-001
9.044509e+002, 1.766166e-001
9.063793e+002, 1.704427e-001
9.083078e+002, 1.645617e-001
9.102363e+002, 1.588781e-001
9.121647e+002, 1.533078e-001
9.140932e+002, 1.478512e-001
9.160217e+002, 1.426482e-001
9.179501e+002, 1.374302e-001
9.198786e+002, 1.322540e-001
9.218071e+002, 1.274808e-001
9.237355e+002, 1.227814e-001
9.256640e+002, 1.180721e-001
9.275925e+002, 1.137049e-001
9.295209e+002, 1.093614e-001
9.314494e+002, 1.049632e-001
9.333779e+002, 1.002545e-001
9.353063e+002, 9.533873e-002
9.372348e+002, 9.052594e-002
9.391633e+002, 8.569526e-002
9.410917e+002, 8.106165e-002
9.430202e+002, 7.638185e-002
9.449487e+002, 7.186104e-002
9.468771e+002, 6.774024e-002
9.488056e+002, 6.372107e-002
9.507341e+002, 5.973532e-002
9.526625e+002, 5.607308e-002
9.545910e+002, 5.243160e-002
9.565195e+002, 4.865023e-002
9.584479e+002, 4.500500e-002
9.603764e+002, 4.141057e-002
9.623049e+002, 3.788136e-002
9.642333e+002, 3.467004e-002
9.661618e+002, 3.167183e-002
9.680903e+002, 2.896840e-002
9.700187e+002, 2.647556e-002
9.719472e+002, 2.410659e-002
9.738757e+002, 2.225499e-002
9.758041e+002, 2.064098e-002
9.777326e+002, 1.914638e-002
9.796611e+002, 1.796797e-002
9.815895e+002, 1.704300e-002
9.835180e+002, 1.618329e-002
9.854465e+002, 1.533853e-002
9.873749e+002, 1.456538e-002
9.893034e+002, 1.380582e-002
9.912319e+002, 1.322599e-002
9.931603e+002, 1.277918e-002
9.950888e+002, 1.217281e-002
9.970173e+002, 1.163303e-002
9.989457e+002, 1.124184e-002
1.000874e+003, 1.078845e-002
1.002803e+003, 1.038167e-002
1.004731e+003, 1.019500e-002
1.006660e+003, 9.981846e-003
1.008588e+003, 9.770379e-003
1.010517e+003, 9.633171e-003
1.012445e+003, 9.492989e-003
1.014373e+003, 9.467559e-003
1.016302e+003, 9.389060e-003
1.018230e+003, 9.255470e-003
1.020159e+003, 9.130018e-003
1.022087e+003, 9.061445e-003
1.024016e+003, 9.034981e-003
1.025944e+003, 8.833042e-003
1.027873e+003, 8.566054e-003
1.029801e+003, 8.497019e-003
1.031730e+003, 8.360806e-003
1.033658e+003, 8.132729e-003
1.035587e+003, 8.011794e-003
1.037515e+003, 7.927514e-003
1.039443e+003, 7.869030e-003
1.041372e+003, 7.770725e-003
1.043300e+003, 7.591452e-003
1.045229e+003, 7.513787e-003
1.047157e+003, 7.420954e-003
1.049086e+003, 7.227409e-003
1.051014e+003, 7.228418e-003
1.052943e+003, 7.126711e-003
1.054871e+003, 6.815966e-003
1.056800e+003, 6.621234e-003
1.058728e+003, 6.470238e-003
1.060657e+003, 6.515956e-003
1.062585e+003, 6.508270e-003
1.064514e+003, 6.378909e-003
1.066442e+003, 6.315880e-003
1.068370e+003, 6.171728e-003
1.070299e+003, 6.200406e-003
1.072227e+003, 6.163010e-003
1.074156e+003, 6.037716e-003
1.076084e+003, 5.948371e-003
1.078013e+003, 5.865199e-003
1.079941e+003, 5.778703e-003
1.081870e+003, 5.702076e-003
1.083798e+003, 5.696611e-003
1.085727e+003, 5.717781e-003
1.087655e+003, 5.586679e-003
1.089584e+003, 5.480647e-003
1.091512e+003, 5.454346e-003
1.093441e+003, 5.483150e-003
1.095369e+003, 5.377365e-003
1.097297e+003, 5.245026e-003
1.099226e+003, 5.217384e-003
1.101154e+003, 5.163834e-003
1.103083e+003, 5.229076e-003
1.105011e+003, 5.240772e-003
1.106940e+003, 5.074413e-003
1.108868e+003, 4.942287e-003
1.110797e+003, 5.008708e-003
1.112725e+003, 4.991773e-003
1.114654e+003, 4.828128e-003
1.116582e+003, 4.798965e-003
1.118511e+003, 4.824209e-003
1.120439e+003, 4.676234e-003
1.122368e+003, 4.638966e-003
1.124296e+003, 4.746159e-003
1.126224e+003, 4.737230e-003
1.128153e+003, 4.678615e-003
1.130081e+003, 4.714135e-003
1.132010e+003, 4.850992e-003
1.133938e+003, 4.827384e-003
1.135867e+003, 4.701866e-003
1.137795e+003, 4.709012e-003
1.139724e+003, 4.847093e-003
1.141652e+003, 4.927345e-003
1.143581e+003, 4.891315e-003
1.145509e+003, 4.833370e-003
1.147438e+003, 4.873296e-003
1.149366e+003, 4.859950e-003
1.151295e+003, 4.930473e-003
1.153223e+003, 4.923103e-003
1.155151e+003, 4.880780e-003
1.157080e+003, 4.881999e-003
1.159008e+003, 4.916117e-003
1.160937e+003, 4.875279e-003
1.162865e+003, 4.785774e-003
1.164794e+003, 4.935123e-003
1.166722e+003, 5.036524e-003
1.168651e+003, 4.908650e-003
1.170579e+003, 4.786707e-003
1.172508e+003, 4.928969e-003
1.174436e+003, 5.043098e-003
1.176365e+003, 4.991114e-003
1.178293e+003, 4.932712e-003
1.180222e+003, 5.031844e-003
1.182150e+003, 5.113328e-003
1.184078e+003, 5.070673e-003
1.186007e+003, 5.039128e-003
1.187935e+003, 4.930913e-003
1.189864e+003, 4.888051e-003
1.191792e+003, 4.890990e-003
1.193721e+003, 4.791069e-003
1.195649e+003, 4.798369e-003
1.197578e+003, 4.893382e-003
1.199506e+003, 4.969030e-003
1.201435e+003, 4.815199e-003
1.203363e+003, 4.769369e-003
1.205292e+003, 4.974854e-003
1.207220e+003, 5.039796e-003
1.209149e+003, 4.951946e-003
1.211077e+003, 4.872313e-003
1.213005e+003, 4.802150e-003
1.214934e+003, 4.860649e-003
1.216862e+003, 4.966239e-003
1.218791e+003, 5.015365e-003
1.220719e+003, 5.103951e-003
1.222648e+003, 5.144492e-003
1.224576e+003, 5.223940e-003
1.226505e+003, 5.351442e-003
1.228433e+003, 5.432716e-003
1.230362e+003, 5.502035e-003
1.232290e+003, 5.497294e-003
1.234219e+003, 5.442355e-003
1.236147e+003, 5.413539e-003
1.238076e+003, 5.341559e-003
1.240004e+003, 5.275149e-003
1.241932e+003, 5.357867e-003
1.243861e+003, 5.318278e-003
1.245789e+003, 5.270916e-003
1.247718e+003, 5.342033e-003
1.249646e+003, 5.475125e-003
1.251575e+003, 5.621117e-003
1.253503e+003, 5.757368e-003
1.255432e+003, 5.675301e-003
1.257360e+003, 5.600125e-003
1.259289e+003, 5.675577e-003
1.261217e+003, 5.874145e-003
1.263146e+003, 5.987375e-003
1.265074e+003, 6.034656e-003
1.267003e+003, 5.997933e-003
1.268931e+003, 5.929537e-003
1.270859e+003, 6.061743e-003
1.272788e+003, 6.183732e-003
1.274716e+003, 6.143387e-003
1.276645e+003, 6.107002e-003
1.278573e+003, 6.276576e-003
1.280502e+003, 6.485140e-003
1.282430e+003, 6.558365e-003
1.284359e+003, 6.585279e-003
1.286287e+003, 6.647697e-003
1.288216e+003, 6.635074e-003
1.290144e+003, 6.535748e-003
1.292073e+003, 6.643069e-003
1.294001e+003, 6.774782e-003
1.295930e+003, 6.804435e-003
1.297858e+003, 6.829273e-003
1.299786e+003, 6.969166e-003
1.301715e+003, 7.183554e-003
1.303643e+003, 7.371094e-003
1.305572e+003, 7.390939e-003
1.307500e+003, 7.342299e-003
1.309429e+003, 7.328955e-003
1.311357e+003, 7.325534e-003
1.313286e+003, 7.421471e-003
1.315214e+003, 7.540368e-003
1.317143e+003, 7.674242e-003
1.319071e+003, 7.848114e-003
1.321000e+003, 7.852665e-003
1.322928e+003, 7.814272e-003
1.324857e+003, 7.993271e-003
1.326785e+003, 8.100530e-003
1.328714e+003, 8.072300e-003
1.330642e+003, 8.166692e-003
1.332570e+003, 8.337525e-003
1.334499e+003, 8.404815e-003
1.336427e+003, 8.536572e-003
1.338356e+003, 8.666447e-003
1.340284e+003, 8.819274e-003
1.342213e+003, 8.973351e-003
1.344141e+003, 9.065850e-003
1.346070e+003, 9.153695e-003
1.347998e+003, 9.344142e-003
1.349927e+003, 9.640720e-003
1.351855e+003, 9.936331e-003
1.353784e+003, 1.027122e-002
1.355712e+003, 1.035616e-002
1.357641e+003, 1.031866e-002
1.359569e+003, 1.057753e-002
1.361497e+003, 1.083177e-002
1.363426e+003, 1.079977e-002
1.365354e+003, 1.056456e-002
1.367283e+003, 1.022093e-002
1.369211e+003, 1.011263e-002
1.371140e+003, 1.026136e-002
1.373068e+003, 1.039444e-002
1.374997e+003, 1.046444e-002
1.376925e+003, 1.037080e-002
1.378854e+003, 1.027860e-002
1.380782e+003, 1.034832e-002
1.382711e+003, 1.059677e-002
1.384639e+003, 1.067889e-002
1.386568e+003, 1.076667e-002
1.388496e+003, 1.078830e-002
1.390424e+003, 1.066484e-002
1.392353e+003, 1.068842e-002
1.394281e+003, 1.075377e-002
1.396210e+003, 1.082600e-002
1.398138e+003, 1.083539e-002
1.400067e+003, 1.081917e-002
1.401995e+003, 1.096536e-002
1.403924e+003, 1.117196e-002
1.405852e+003, 1.119656e-002
1.407781e+003, 1.122037e-002
1.409709e+003, 1.136720e-002
1.411638e+003, 1.144513e-002
1.413566e+003, 1.148539e-002
1.415495e+003, 1.147865e-002
1.417423e+003, 1.160818e-002
1.419351e+003, 1.175530e-002
1.421280e+003, 1.170633e-002
1.423208e+003, 1.177057e-002
1.425137e+003, 1.198041e-002
1.427065e+003, 1.203003e-002
1.428994e+003, 1.208717e-002
1.430922e+003, 1.220265e-002
1.432851e+003, 1.217959e-002
1.434779e+003, 1.228592e-002
1.436708e+003, 1.243164e-002
1.438636e+003, 1.227884e-002
1.440565e+003, 1.213643e-002
1.442493e+003, 1.213523e-002
1.444422e+003, 1.225652e-002
1.446350e+003, 1.227068e-002
1.448278e+003, 1.213121e-002
1.450207e+003, 1.203573e-002
1.452135e+003, 1.212270e-002
1.454064e+003, 1.224043e-002
1.455992e+003, 1.264329e-002
1.457921e+003, 1.266669e-002
1.459849e+003, 1.221915e-002
1.461778e+003, 1.199695e-002
1.463706e+003, 1.216502e-002
1.465635e+003, 1.236873e-002
1.467563e+003, 1.227267e-002
1.469492e+003, 1.219221e-002
1.471420e+003, 1.232306e-002
1.473349e+003, 1.242492e-002
1.475277e+003, 1.224185e-002
1.477205e+003, 1.197299e-002
1.479134e+003, 1.172788e-002
1.481062e+003, 1.172913e-002
1.482991e+003, 1.173969e-002
1.484919e+003, 1.176428e-002
1.486848e+003, 1.188448e-002
1.488776e+003, 1.194205e-002
1.490705e+003, 1.185217e-002
1.492633e+003, 1.176641e-002
1.494562e+003, 1.190689e-002
1.496490e+003, 1.212475e-002
1.498419e+003, 1.206941e-002
1.500347e+003, 1.194129e-002
1.502276e+003, 1.195856e-002
1.504204e+003, 1.228694e-002
1.506132e+003, 1.275548e-002
1.508061e+003, 1.263232e-002
1.509989e+003, 1.236647e-002
1.511918e+003, 1.239870e-002
1.513846e+003, 1.252468e-002
1.515775e+003, 1.269632e-002
1.517703e+003, 1.284347e-002
1.519632e+003, 1.309349e-002
1.521560e+003, 1.328164e-002
1.523489e+003, 1.307014e-002
1.525417e+003, 1.312406e-002
1.527346e+003, 1.338925e-002
1.529274e+003, 1.365396e-002
1.531203e+003, 1.389578e-002
1.533131e+003, 1.414726e-002
1.535059e+003, 1.425442e-002
1.536988e+003, 1.472231e-002
1.538916e+003, 1.558443e-002
1.540845e+003, 1.574220e-002
1.542773e+003, 1.551665e-002
1.544702e+003, 1.550949e-002
1.546630e+003, 1.536157e-002
1.548559e+003, 1.536141e-002
1.550487e+003, 1.549576e-002
1.552416e+003, 1.572930e-002
1.554344e+003, 1.604074e-002
1.556273e+003, 1.645844e-002
1.558201e+003, 1.716903e-002
1.560130e+003, 1.722824e-002
1.562058e+003, 1.674569e-002
1.563986e+003, 1.665721e-002
1.565915e+003, 1.685458e-002
1.567843e+003, 1.705407e-002
1.569772e+003, 1.733627e-002
1.571700e+003, 1.749860e-002
1.573629e+003, 1.775041e-002
1.575557e+003, 1.827496e-002
1.577486e+003, 1.836616e-002
1.579414e+003, 1.822291e-002
1.581343e+003, 1.834799e-002
1.583271e+003, 1.841379e-002
1.585200e+003, 1.857116e-002
1.587128e+003, 1.869695e-002
1.589057e+003, 1.891040e-002
1.590985e+003, 1.920609e-002
1.592913e+003, 1.935495e-002
1.594842e+003, 1.944703e-002
1.596770e+003, 1.956496e-002
1.598699e+003, 1.963991e-002
1.600627e+003, 1.978817e-002
1.602556e+003, 1.986359e-002
1.604484e+003, 1.989591e-002
1.606413e+003, 2.007078e-002
1.608341e+003, 2.021117e-002
1.610270e+003, 2.018130e-002
1.612198e+003, 2.024149e-002
1.614127e+003, 2.046672e-002
1.616055e+003, 2.075939e-002
1.617984e+003, 2.054968e-002
1.619912e+003, 2.031568e-002
1.621840e+003, 2.037616e-002
1.623769e+003, 2.038117e-002
1.625697e+003, 2.030353e-002
1.627626e+003, 2.014298e-002
1.629554e+003, 1.982754e-002
1.631483e+003, 1.970692e-002
1.633411e+003, 1.989879e-002
1.635340e+003, 2.018024e-002
1.637268e+003, 1.987906e-002
1.639197e+003, 1.947052e-002
1.641125e+003, 1.934311e-002
1.643054e+003, 1.933351e-002
1.644982e+003, 1.969941e-002
1.646911e+003, 1.969339e-002
1.648839e+003, 1.939811e-002
1.650767e+003, 1.975762e-002
1.652696e+003, 2.034478e-002
1.654624e+003, 1.990895e-002
1.656553e+003, 1.937890e-002
1.658481e+003, 1.914543e-002
1.660410e+003, 1.901313e-002
1.662338e+003, 1.902323e-002
1.664267e+003, 1.879249e-002
1.666195e+003, 1.862527e-002
1.668124e+003, 1.870689e-002
1.670052e+003, 1.859117e-002
1.671981e+003, 1.837271e-002
1.673909e+003, 1.833047e-002
1.675838e+003, 1.814018e-002
1.677766e+003, 1.781849e-002
1.679694e+003, 1.779078e-002
1.681623e+003, 1.791918e-002
1.683551e+003, 1.845923e-002
1.685480e+003, 1.844183e-002
1.687408e+003, 1.791528e-002
1.689337e+003, 1.771937e-002
1.691265e+003, 1.749818e-002
1.693194e+003, 1.759139e-002
1.695122e+003, 1.814350e-002
1.697051e+003, 1.808582e-002
1.698979e+003, 1.806414e-002
1.700908e+003, 1.811324e-002
1.702836e+003, 1.757773e-002
1.704765e+003, 1.751689e-002
1.706693e+003, 1.740238e-002
1.708621e+003, 1.733303e-002
1.710550e+003, 1.727816e-002
1.712478e+003, 1.736675e-002
1.714407e+003, 1.753443e-002
1.716335e+003, 1.791470e-002
1.718264e+003, 1.777605e-002
1.720192e+003, 1.733291e-002
1.722121e+003, 1.726580e-002
1.724049e+003, 1.722271e-002
1.725978e+003, 1.706181e-002
1.727906e+003, 1.713734e-002
1.729835e+003, 1.728408e-002
1.731763e+003, 1.761977e-002
1.733692e+003, 1.793960e-002
1.735620e+003, 1.752710e-002
1.737548e+003, 1.705758e-002
1.739477e+003, 1.697612e-002
1.741405e+003, 1.682471e-002
1.743334e+003, 1.660075e-002
1.745262e+003, 1.635713e-002
1.747191e+003, 1.626199e-002
1.749119e+003, 1.655580e-002
1.751048e+003, 1.691129e-002
1.752976e+003, 1.681126e-002
1.754905e+003, 1.682245e-002
1.756833e+003, 1.694229e-002
1.758762e+003, 1.688939e-002
1.760690e+003, 1.696391e-002
1.762619e+003, 1.688039e-002
1.764547e+003, 1.690239e-002
1.766475e+003, 1.703001e-002
1.768404e+003, 1.694185e-002
1.770332e+003, 1.698353e-002
1.772261e+003, 1.736009e-002
1.774189e+003, 1.738163e-002
1.776118e+003, 1.714733e-002
1.778046e+003, 1.716300e-002
1.779975e+003, 1.729668e-002
1.781903e+003, 1.729139e-002
1.783832e+003, 1.746902e-002
1.785760e+003, 1.775454e-002
1.787689e+003, 1.761634e-002
1.789617e+003, 1.748256e-002
1.791546e+003, 1.779633e-002
1.793474e+003, 1.783993e-002
1.795402e+003, 1.775151e-002
1.797331e+003, 1.779464e-002
1.799259e+003, 1.798587e-002
1.801188e+003, 1.818563e-002
1.803116e+003, 1.799208e-002
1.805045e+003, 1.784604e-002
1.806973e+003, 1.783455e-002
1.808902e+003, 1.796027e-002
1.810830e+003, 1.804431e-002
1.812759e+003, 1.813820e-002
1.814687e+003, 1.786849e-002
1.816616e+003, 1.762522e-002
1.818544e+003, 1.790819e-002
1.820473e+003, 1.808985e-002
1.822401e+003, 1.811648e-002
1.824329e+003, 1.804771e-002
1.826258e+003, 1.803695e-002
1.828186e+003, 1.818664e-002
1.830115e+003, 1.817189e-002
1.832043e+003, 1.806255e-002
1.833972e+003, 1.790026e-002
1.835900e+003, 1.797084e-002
1.837829e+003, 1.826343e-002
1.839757e+003, 1.827998e-002
1.841686e+003, 1.820968e-002
1.843614e+003, 1.825399e-002
1.845543e+003, 1.842318e-002
1.847471e+003, 1.849198e-002
1.849400e+003, 1.840206e-002
1.851328e+003, 1.842124e-002
1.853256e+003, 1.842190e-002
1.855185e+003, 1.815816e-002
1.857113e+003, 1.806590e-002
1.859042e+003, 1.823832e-002
1.860970e+003, 1.832214e-002
1.862899e+003, 1.858652e-002
1.864827e+003, 1.896850e-002
1.866756e+003, 1.885263e-002
1.868684e+003, 1.880931e-002
1.870613e+003, 1.891709e-002
1.872541e+003, 1.874831e-002
1.874470e+003, 1.848281e-002
1.876398e+003, 1.873756e-002
1.878327e+003, 1.905708e-002
1.880255e+003, 1.909648e-002
1.882183e+003, 1.918246e-002
1.884112e+003, 1.930010e-002
1.886040e+003, 1.949391e-002
1.887969e+003, 1.937349e-002
1.889897e+003, 1.930185e-002
1.891826e+003, 1.944208e-002
1.893754e+003, 1.937343e-002
1.895683e+003, 1.950088e-002
1.897611e+003, 1.994891e-002
1.899540e+003, 1.980967e-002
1.901468e+003, 1.979487e-002
1.903397e+003, 1.982024e-002
1.905325e+003, 1.982519e-002
1.907254e+003, 2.010738e-002
1.909182e+003, 2.030882e-002
1.911110e+003, 2.011879e-002
1.913039e+003, 2.027593e-002
1.914967e+003, 2.047838e-002
1.916896e+003, 2.072192e-002
1.918824e+003, 2.149830e-002
1.920753e+003, 2.162714e-002
1.922681e+003, 2.112801e-002
1.924610e+003, 2.055136e-002
1.926538e+003, 2.015440e-002
1.928467e+003, 2.050493e-002
1.930395e+003, 2.102773e-002
1.932324e+003, 2.139808e-002
1.934252e+003, 2.166766e-002
1.936181e+003, 2.197482e-002
1.938109e+003, 2.220167e-002
1.940037e+003, 2.179685e-002
1.941966e+003, 2.173460e-002
1.943894e+003, 2.196148e-002
1.945823e+003, 2.199041e-002
1.947751e+003, 2.230616e-002
1.949680e+003, 2.236944e-002
1.951608e+003, 2.196747e-002
1.953537e+003, 2.191272e-002
1.955465e+003, 2.171989e-002
1.957394e+003, 2.160472e-002
1.959322e+003, 2.238942e-002
1.961251e+003, 2.347364e-002
1.963179e+003, 2.402867e-002
1.965108e+003, 2.354390e-002
1.967036e+003, 2.283703e-002
1.968964e+003, 2.316523e-002
1.970893e+003, 2.355522e-002
1.972821e+003, 2.389379e-002
1.974750e+003, 2.379934e-002
1.976678e+003, 2.376158e-002
1.978607e+003, 2.572940e-002
1.980535e+003, 2.761537e-002
1.982464e+003, 2.668442e-002
1.984392e+003, 2.541747e-002
1.986321e+003, 2.503291e-002
1.988249e+003, 2.371031e-002
1.990178e+003, 2.361084e-002
1.992106e+003, 2.455235e-002
1.994035e+003, 2.547395e-002
1.995963e+003, 2.603259e-002
1.997891e+003, 2.530550e-002
1.999820e+003, 2.444348e-002
2.001748e+003, 2.425375e-002
2.003677e+003, 2.412995e-002
2.005605e+003, 2.384311e-002
2.007534e+003, 2.489654e-002
2.009462e+003, 2.478489e-002
2.011391e+003, 2.422380e-002
2.013319e+003, 2.429922e-002
2.015248e+003, 2.394347e-002
2.017176e+003, 2.457059e-002
2.019105e+003, 2.588717e-002
2.021033e+003, 2.546418e-002
2.022962e+003, 2.477784e-002
2.024890e+003, 2.517089e-002
2.026818e+003, 2.562342e-002
2.028747e+003, 2.538534e-002
2.030675e+003, 2.538011e-002
2.032604e+003, 2.539333e-002
2.034532e+003, 2.560373e-002
2.036461e+003, 2.628582e-002
2.038389e+003, 2.666521e-002
2.040318e+003, 2.640852e-002
2.042246e+003, 2.602790e-002
2.044175e+003, 2.519464e-002
2.046103e+003, 2.464980e-002
2.048031e+003, 2.517313e-002
2.049960e+003, 2.627620e-002
2.051888e+003, 2.526425e-002
2.053817e+003, 2.426870e-002
2.055745e+003, 2.410056e-002
2.057674e+003, 2.389170e-002
2.059602e+003, 2.383328e-002
2.061531e+003, 2.368655e-002
2.063459e+003, 2.346162e-002
2.065388e+003, 2.365266e-002
2.067316e+003, 2.435642e-002
2.069245e+003, 2.478085e-002
2.071173e+003, 2.468473e-002
2.073102e+003, 2.448316e-002
2.075030e+003, 2.455567e-002
2.076958e+003, 2.496230e-002
2.078887e+003, 2.514327e-002
2.080815e+003, 2.496627e-002
2.082744e+003, 2.414424e-002
2.084672e+003, 2.393010e-002
2.086601e+003, 2.423411e-002
2.088529e+003, 2.442946e-002
2.090458e+003, 2.436101e-002
2.092386e+003, 2.444743e-002
2.094315e+003, 2.437758e-002
2.096243e+003, 2.455850e-002
2.098172e+003, 2.458302e-002
2.100100e+003, 2.486730e-002
2.102029e+003, 2.538685e-002
2.103957e+003, 2.556863e-002
2.105885e+003, 2.570717e-002
2.107814e+003, 2.571060e-002
2.109742e+003, 2.572449e-002
2.111671e+003, 2.581507e-002
2.113599e+003, 2.588331e-002
2.115528e+003, 2.554174e-002
2.117456e+003, 2.478749e-002
2.119385e+003, 2.438063e-002
2.121313e+003, 2.443399e-002
2.123242e+003, 2.446567e-002
2.125170e+003, 2.443193e-002
2.127099e+003, 2.406447e-002
2.129027e+003, 2.395401e-002
2.130956e+003, 2.381399e-002
2.132884e+003, 2.327134e-002
2.134813e+003, 2.314247e-002
2.136741e+003, 2.411731e-002
2.138669e+003, 2.544758e-002
2.140598e+003, 2.589204e-002
2.142526e+003, 2.558476e-002
2.144455e+003, 2.503157e-002
2.146383e+003, 2.500762e-002
2.148312e+003, 2.530322e-002
2.150240e+003, 2.435955e-002
2.152169e+003, 2.444969e-002
2.154097e+003, 2.499765e-002
2.156026e+003, 2.536809e-002
2.157954e+003, 2.731682e-002
2.159883e+003, 2.987224e-002
2.161811e+003, 2.990017e-002
2.163740e+003, 2.977594e-002
2.165668e+003, 2.931258e-002
2.167596e+003, 2.968988e-002
2.169525e+003, 2.948226e-002
2.171453e+003, 2.791537e-002
2.173382e+003, 2.649320e-002
2.175310e+003, 2.706668e-002
2.177239e+003, 2.845473e-002
2.179167e+003, 2.788038e-002
2.181096e+003, 2.782482e-002
2.183024e+003, 2.842122e-002
2.184953e+003, 2.851936e-002
2.186881e+003, 2.842574e-002
2.188810e+003, 2.697832e-002
2.190738e+003, 2.676016e-002
2.192667e+003, 2.807007e-002
2.194595e+003, 2.836388e-002
2.196523e+003, 2.839188e-002
2.198452e+003, 2.834132e-002
2.200380e+003, 2.822394e-002
2.202309e+003, 2.820516e-002
2.204237e+003, 2.812448e-002
2.206166e+003, 2.804739e-002
2.208094e+003, 2.792758e-002
2.210023e+003, 2.804545e-002
2.211951e+003, 2.822917e-002
2.213880e+003, 2.861947e-002
2.215808e+003, 2.911475e-002
2.217737e+003, 2.887020e-002
2.219665e+003, 2.809565e-002
2.221594e+003, 2.798214e-002
2.223522e+003, 2.865965e-002
2.225450e+003, 2.926197e-002
2.227379e+003, 2.917232e-002
2.229307e+003, 2.867769e-002
2.231236e+003, 2.855393e-002
2.233164e+003, 2.895896e-002
2.235093e+003, 2.882092e-002
2.237021e+003, 2.869782e-002
2.238950e+003, 2.839413e-002
2.240878e+003, 2.871327e-002
2.242807e+003, 2.898699e-002
2.244735e+003, 2.841520e-002
2.246664e+003, 2.827883e-002
2.248592e+003, 2.871535e-002
2.250521e+003, 2.914162e-002
2.252449e+003, 2.872902e-002
2.254377e+003, 2.840122e-002
2.256306e+003, 2.857075e-002
2.258234e+003, 2.874780e-002
2.260163e+003, 2.868806e-002
2.262091e+003, 2.849933e-002
2.264020e+003, 2.839274e-002
2.265948e+003, 2.869602e-002
2.267877e+003, 2.889012e-002
2.269805e+003, 2.853256e-002
2.271734e+003, 2.825436e-002
2.273662e+003, 2.816051e-002
2.275591e+003, 2.847506e-002
2.277519e+003, 2.882453e-002
2.279448e+003, 2.895609e-002
2.281376e+003, 2.919521e-002
2.283304e+003, 2.934760e-002
2.285233e+003, 2.933526e-002
2.287161e+003, 2.888921e-002
2.289090e+003, 2.891646e-002
2.291018e+003, 2.934737e-002
2.292947e+003, 2.918367e-002
2.294875e+003, 2.888489e-002
2.296804e+003, 2.895107e-002
2.298732e+003, 2.901035e-002
2.300661e+003, 2.872946e-002
2.302589e+003, 2.828347e-002
2.304518e+003, 2.839977e-002
2.306446e+003, 2.871118e-002
2.308375e+003, 2.882830e-002
2.310303e+003, 2.900776e-002
2.312231e+003, 2.893995e-002
2.314160e+003, 2.883411e-002
2.316088e+003, 2.892819e-002
2.318017e+003, 2.935811e-002
2.319945e+003, 2.965427e-002
2.321874e+003, 3.019167e-002
2.323802e+003, 3.069455e-002
2.325731e+003, 2.998411e-002
2.327659e+003, 2.919297e-002
2.329588e+003, 2.913652e-002
2.331516e+003, 2.960170e-002
2.333445e+003, 2.977498e-002
2.335373e+003, 2.962055e-002
2.337302e+003, 2.971359e-002
2.339230e+003, 2.956014e-002
2.341158e+003, 2.952837e-002
2.343087e+003, 2.961791e-002
2.345015e+003, 2.937314e-002
2.346944e+003, 2.880862e-002
2.348872e+003, 2.876497e-002
2.350801e+003, 2.919142e-002
2.352729e+003, 2.957897e-002
2.354658e+003, 2.990515e-002
2.356586e+003, 3.002999e-002
2.358515e+003, 3.022067e-002
2.360443e+003, 3.028832e-002
2.362372e+003, 3.021270e-002
2.364300e+003, 3.022114e-002
2.366229e+003, 3.007164e-002
2.368157e+003, 2.969289e-002
2.370085e+003, 2.938370e-002
2.372014e+003, 2.927111e-002
2.373942e+003, 2.898226e-002
2.375871e+003, 2.885238e-002
2.377799e+003, 2.860709e-002
2.379728e+003, 2.857647e-002
2.381656e+003, 2.870517e-002
2.383585e+003, 2.887044e-002
2.385513e+003, 2.868267e-002
2.387442e+003, 2.887885e-002
2.389370e+003, 2.900280e-002
2.391299e+003, 2.886081e-002
2.393227e+003, 2.881381e-002
2.395156e+003, 2.866913e-002
2.397084e+003, 2.874226e-002
2.399012e+003, 2.918965e-002
2.400941e+003, 2.918112e-002
2.402869e+003, 2.897141e-002
2.404798e+003, 2.938108e-002
2.406726e+003, 2.992806e-002
2.408655e+003, 2.985374e-002
2.410583e+003, 2.942556e-002
2.412512e+003, 2.928181e-002
2.414440e+003, 2.932734e-002
2.416369e+003, 2.916767e-002
2.418297e+003, 2.902223e-002
2.420226e+003, 2.922792e-002
2.422154e+003, 2.951926e-002
2.424083e+003, 2.960753e-002
2.426011e+003, 2.980893e-002
2.427939e+003, 3.020278e-002
2.429868e+003, 3.012304e-002
2.431796e+003, 3.030772e-002
2.433725e+003, 3.030620e-002
2.435653e+003, 2.978421e-002
2.437582e+003, 2.969158e-002
2.439510e+003, 2.999700e-002
2.441439e+003, 3.017843e-002
2.443367e+003, 3.033555e-002
2.445296e+003, 3.031088e-002
2.447224e+003, 3.013673e-002
2.449153e+003, 3.011298e-002
2.451081e+003, 3.012625e-002
2.453010e+003, 3.010279e-002
2.454938e+003, 2.981373e-002
2.456866e+003, 3.005232e-002
2.458795e+003, 3.034242e-002
2.460723e+003, 3.032889e-002
2.462652e+003, 3.013031e-002
2.464580e+003, 2.991530e-002
2.466509e+003, 2.996165e-002
2.468437e+003, 2.976078e-002
2.470366e+003, 2.993965e-002
2.472294e+003, 2.992967e-002
2.474223e+003, 3.001000e-002
2.476151e+003, 3.035758e-002
2.478080e+003, 3.039052e-002
2.480008e+003, 3.029406e-002
2.481937e+003, 3.009020e-002
2.483865e+003, 2.970168e-002
2.485793e+003, 2.950582e-002
2.487722e+003, 2.999117e-002
2.489650e+003, 3.049695e-002
2.491579e+003, 3.062052e-002
2.493507e+003, 3.053918e-002
2.495436e+003, 3.034578e-002
2.497364e+003, 3.019768e-002
2.499293e+003, 3.018916e-002
2.501221e+003, 3.044536e-002
2.503150e+003, 3.109373e-002
2.505078e+003, 3.100811e-002
2.507007e+003, 3.066000e-002
2.508935e+003, 3.087043e-002
2.510864e+003, 3.116096e-002
2.512792e+003, 3.045144e-002
2.514720e+003, 2.997275e-002
2.516649e+003, 3.045291e-002
2.518577e+003, 3.081206e-002
2.520506e+003, 3.117003e-002
2.522434e+003, 3.121117e-002
2.524363e+003, 3.077341e-002
2.526291e+003, 3.058637e-002
2.528220e+003, 3.055778e-002
2.530148e+003, 3.057859e-002
2.532077e+003, 3.097298e-002
2.534005e+003, 3.126285e-002
2.535934e+003, 3.116165e-002
2.537862e+003, 3.150251e-002
2.539791e+003, 3.137951e-002
2.541719e+003, 3.088279e-002
2.543647e+003, 3.091723e-002
2.545576e+003, 3.117671e-002
2.547504e+003, 3.107636e-002
2.549433e+003, 3.095090e-002
2.551361e+003, 3.075273e-002
2.553290e+003, 3.126310e-002
2.555218e+003, 3.145019e-002
2.557147e+003, 3.157512e-002
2.559075e+003, 3.137092e-002
2.561004e+003, 3.124539e-002
2.562932e+003, 3.168797e-002
2.564861e+003, 3.194783e-002
2.566789e+003, 3.168114e-002
2.568718e+003, 3.153298e-002
2.570646e+003, 3.177809e-002
2.572574e+003, 3.205559e-002
2.574503e+003, 3.178109e-002
2.576431e+003, 3.180938e-002
2.578360e+003, 3.184971e-002
2.580288e+003, 3.186465e-002
2.582217e+003, 3.181153e-002
2.584145e+003, 3.184427e-002
2.586074e+003, 3.182952e-002
2.588002e+003, 3.182335e-002
2.589931e+003, 3.190859e-002
2.591859e+003, 3.167864e-002
2.593788e+003, 3.143847e-002
2.595716e+003, 3.157284e-002
2.597645e+003, 3.159117e-002
2.599573e+003, 3.173191e-002
2.601501e+003, 3.194314e-002
2.603430e+003, 3.204190e-002
2.605358e+003, 3.202052e-002
2.607287e+003, 3.177364e-002
2.609215e+003, 3.170592e-002
2.611144e+003, 3.196952e-002
2.613072e+003, 3.241534e-002
2.615001e+003, 3.226105e-002
2.616929e+003, 3.229314e-002
2.618858e+003, 3.228569e-002
2.620786e+003, 3.207248e-002
2.622715e+003, 3.195334e-002
2.624643e+003, 3.212308e-002
2.626572e+003, 3.241338e-002
2.628500e+003, 3.245169e-002
2.630428e+003, 3.259370e-002
2.632357e+003, 3.287887e-002
2.634285e+003, 3.261894e-002
2.636214e+003, 3.233181e-002
2.638142e+003, 3.218607e-002
2.640071e+003, 3.235437e-002
2.641999e+003, 3.275545e-002
2.643928e+003, 3.297462e-002
2.645856e+003, 3.293046e-002
2.647785e+003, 3.278312e-002
2.649713e+003, 3.271739e-002
2.651642e+003, 3.247565e-002
2.653570e+003, 3.213939e-002
2.655499e+003, 3.216772e-002
2.657427e+003, 3.234709e-002
2.659355e+003, 3.218354e-002
2.661284e+003, 3.204885e-002
2.663212e+003, 3.205466e-002
2.665141e+003, 3.194242e-002
2.667069e+003, 3.190022e-002
2.668998e+003, 3.215839e-002
2.670926e+003, 3.222575e-002
2.672855e+003, 3.198143e-002
2.674783e+003, 3.196388e-002
2.676712e+003, 3.212441e-002
2.678640e+003, 3.232503e-002
2.680569e+003, 3.235232e-002
2.682497e+003, 3.196479e-002
2.684426e+003, 3.205506e-002
2.686354e+003, 3.240302e-002
2.688282e+003, 3.224102e-002
2.690211e+003, 3.211077e-002
2.692139e+003, 3.234267e-002
2.694068e+003, 3.253324e-002
2.695996e+003, 3.278249e-002
2.697925e+003, 3.277726e-002
2.699853e+003, 3.267199e-002
2.701782e+003, 3.281215e-002
2.703710e+003, 3.285427e-002
2.705639e+003, 3.282138e-002
2.707567e+003, 3.257523e-002
2.709496e+003, 3.219978e-002
2.711424e+003, 3.248541e-002
2.713353e+003, 3.273496e-002
2.715281e+003, 3.276470e-002
2.717209e+003, 3.257148e-002
2.719138e+003, 3.251485e-002
2.721066e+003, 3.253791e-002
2.722995e+003, 3.254780e-002
2.724923e+003, 3.260074e-002
2.726852e+003, 3.265706e-002
2.728780e+003, 3.275154e-002
2.730709e+003, 3.282649e-002
2.732637e+003, 3.288691e-002
2.734566e+003, 3.303337e-002
2.736494e+003, 3.305610e-002
2.738423e+003, 3.318436e-002
2.740351e+003, 3.311129e-002
2.742280e+003, 3.306396e-002
2.744208e+003, 3.317313e-002
2.746136e+003, 3.331124e-002
2.748065e+003, 3.304000e-002
2.749993e+003, 3.292484e-002
2.751922e+003, 3.315959e-002
2.753850e+003, 3.326238e-002
2.755779e+003, 3.339834e-002
2.757707e+003, 3.341758e-002
2.759636e+003, 3.313372e-002
2.761564e+003, 3.319657e-002
2.763493e+003, 3.316045e-002
2.765421e+003, 3.319602e-002
2.767350e+003, 3.333540e-002
2.769278e+003, 3.336533e-002
2.771207e+003, 3.344285e-002
2.773135e+003, 3.357231e-002
2.775063e+003, 3.348863e-002
2.776992e+003, 3.350784e-002
2.778920e+003, 3.350536e-002
2.780849e+003, 3.345292e-002
2.782777e+003, 3.354589e-002
2.784706e+003, 3.365386e-002
2.786634e+003, 3.362903e-002
2.788563e+003, 3.375291e-002
2.790491e+003, 3.409070e-002
2.792420e+003, 3.430660e-002
2.794348e+003, 3.405241e-002
2.796277e+003, 3.378779e-002
2.798205e+003, 3.379612e-002
2.800134e+003, 3.396939e-002
2.802062e+003, 3.421525e-002
2.803990e+003, 3.432557e-002
2.805919e+003, 3.426216e-002
2.807847e+003, 3.421528e-002
2.809776e+003, 3.403715e-002
2.811704e+003, 3.390294e-002
2.813633e+003, 3.419364e-002
2.815561e+003, 3.438153e-002
2.817490e+003, 3.421690e-002
2.819418e+003, 3.424935e-002
2.821347e+003, 3.430008e-002
2.823275e+003, 3.404794e-002
2.825204e+003, 3.410026e-002
2.827132e+003, 3.471495e-002
2.829061e+003, 3.500595e-002
2.830989e+003, 3.485331e-002
2.832917e+003, 3.489366e-002
2.834846e+003, 3.487731e-002
2.836774e+003, 3.488518e-002
2.838703e+003, 3.497024e-002
2.840631e+003, 3.517043e-002
2.842560e+003, 3.532117e-002
2.844488e+003, 3.535134e-002
2.846417e+003, 3.542510e-002
2.848345e+003, 3.541656e-002
2.850274e+003, 3.535298e-002
2.852202e+003, 3.515919e-002
2.854131e+003, 3.487011e-002
2.856059e+003, 3.483206e-002
2.857988e+003, 3.496594e-002
2.859916e+003, 3.499079e-002
2.861844e+003, 3.484070e-002
2.863773e+003, 3.500588e-002
2.865701e+003, 3.520115e-002
2.867630e+003, 3.526980e-002
2.869558e+003, 3.538684e-002
2.871487e+003, 3.508656e-002
2.873415e+003, 3.487650e-002
2.875344e+003, 3.505942e-002
2.877272e+003, 3.548471e-002
2.879201e+003, 3.586698e-002
2.881129e+003, 3.576369e-002
2.883058e+003, 3.517519e-002
2.884986e+003, 3.499650e-002
2.886915e+003, 3.546251e-002
2.888843e+003, 3.586387e-002
2.890771e+003, 3.605893e-002
2.892700e+003, 3.577733e-002
2.894628e+003, 3.561213e-002
2.896557e+003, 3.534127e-002
2.898485e+003, 3.551208e-002
2.900414e+003, 3.577139e-002
2.902342e+003, 3.572721e-002
2.904271e+003, 3.598540e-002
2.906199e+003, 3.596659e-002
2.908128e+003, 3.602863e-002
2.910056e+003, 3.617952e-002
2.911985e+003, 3.632949e-002
2.913913e+003, 3.679013e-002
2.915842e+003, 3.709828e-002
2.917770e+003, 3.711495e-002
2.919698e+003, 3.686805e-002
2.921627e+003, 3.647998e-002
2.923555e+003, 3.604913e-002
2.925484e+003, 3.594587e-002
2.927412e+003, 3.618760e-002
2.929341e+003, 3.625348e-002
2.931269e+003, 3.603304e-002
2.933198e+003, 3.626852e-002
2.935126e+003, 3.626935e-002
2.937055e+003, 3.589815e-002
2.938983e+003, 3.555829e-002
2.940912e+003, 3.558192e-002
2.942840e+003, 3.589845e-002
2.944769e+003, 3.573594e-002
2.946697e+003, 3.573786e-002
2.948625e+003, 3.573382e-002
2.950554e+003, 3.575418e-002
2.952482e+003, 3.598579e-002
2.954411e+003, 3.608652e-002
2.956339e+003, 3.646829e-002
2.958268e+003, 3.690550e-002
2.960196e+003, 3.675898e-002
2.962125e+003, 3.673637e-002
2.964053e+003, 3.681830e-002
2.965982e+003, 3.644104e-002
2.967910e+003, 3.595772e-002
2.969839e+003, 3.565368e-002
2.971767e+003, 3.579740e-002
2.973696e+003, 3.592549e-002
2.975624e+003, 3.586718e-002
2.977552e+003, 3.621079e-002
2.979481e+003, 3.621242e-002
2.981409e+003, 3.592940e-002
2.983338e+003, 3.576839e-002
2.985266e+003, 3.552432e-002
2.987195e+003, 3.568003e-002
2.989123e+003, 3.609547e-002
2.991052e+003, 3.598599e-002
2.992980e+003, 3.574077e-002
2.994909e+003, 3.551229e-002
2.996837e+003, 3.542679e-002
2.998766e+003, 3.577054e-002
3.000694e+003, 3.577085e-002
3.002623e+003, 3.559558e-002
3.004551e+003, 3.577560e-002
3.006479e+003, 3.620909e-002
3.008408e+003, 3.649460e-002
3.010336e+003, 3.620632e-002
3.012265e+003, 3.578816e-002
3.014193e+003, 3.605856e-002
3.016122e+003, 3.706387e-002
3.018050e+003, 3.707676e-002
3.019979e+003, 3.629595e-002
3.021907e+003, 3.621671e-002
3.023836e+003, 3.603849e-002
3.025764e+003, 3.560187e-002
3.027693e+003, 3.588258e-002
3.029621e+003, 3.607958e-002
3.031550e+003, 3.618659e-002
3.033478e+003, 3.638545e-002
3.035406e+003, 3.648954e-002
3.037335e+003, 3.641723e-002
3.039263e+003, 3.646727e-002
3.041192e+003, 3.643448e-002
3.043120e+003, 3.604946e-002
3.045049e+003, 3.605468e-002
3.046977e+003, 3.594534e-002
3.048906e+003, 3.591619e-002
3.050834e+003, 3.627319e-002
3.052763e+003, 3.658162e-002
3.054691e+003, 3.651785e-002
3.056620e+003, 3.669041e-002
3.058548e+003, 3.682723e-002
3.060477e+003, 3.660817e-002
3.062405e+003, 3.642203e-002
3.064333e+003, 3.656905e-002
3.066262e+003, 3.683905e-002
3.068190e+003, 3.675354e-002
3.070119e+003, 3.666057e-002
3.072047e+003, 3.678519e-002
3.073976e+003, 3.666192e-002
3.075904e+003, 3.630273e-002
3.077833e+003, 3.625402e-002
3.079761e+003, 3.694711e-002
3.081690e+003, 3.739564e-002
3.083618e+003, 3.711985e-002
3.085547e+003, 3.703533e-002
3.087475e+003, 3.677529e-002
3.089404e+003, 3.657670e-002
3.091332e+003, 3.660112e-002
3.093260e+003, 3.652463e-002
3.095189e+003, 3.709550e-002
3.097117e+003, 3.735388e-002
3.099046e+003, 3.732699e-002
3.100974e+003, 3.748301e-002
3.102903e+003, 3.748941e-002
3.104831e+003, 3.718008e-002
3.106760e+003, 3.713968e-002
3.108688e+003, 3.772125e-002
3.110617e+003, 3.786654e-002
3.112545e+003, 3.721467e-002
3.114474e+003, 3.679536e-002
3.116402e+003, 3.698846e-002
3.118331e+003, 3.715418e-002
3.120259e+003, 3.760004e-002
3.122188e+003, 3.763008e-002
3.124116e+003, 3.694991e-002
3.126044e+003, 3.690280e-002
3.127973e+003, 3.730560e-002
3.129901e+003, 3.771623e-002
3.131830e+003, 3.795937e-002
3.133758e+003, 3.761784e-002
3.135687e+003, 3.772452e-002
3.137615e+003, 3.789384e-002
3.139544e+003, 3.817108e-002
3.141472e+003, 3.806447e-002
3.143401e+003, 3.791060e-002
3.145329e+003, 3.797597e-002
3.147258e+003, 3.811259e-002
3.149186e+003, 3.795666e-002
3.151115e+003, 3.737342e-002
3.153043e+003, 3.721539e-002
3.154971e+003, 3.802402e-002
3.156900e+003, 3.842017e-002
3.158828e+003, 3.760410e-002
3.160757e+003, 3.708929e-002
3.162685e+003, 3.761534e-002
3.164614e+003, 3.803599e-002
3.166542e+003, 3.830761e-002
3.168471e+003, 3.815251e-002
3.170399e+003, 3.795737e-002
3.172328e+003, 3.813757e-002
3.174256e+003, 3.817881e-002
3.176185e+003, 3.815029e-002
3.178113e+003, 3.841110e-002
3.180042e+003, 3.807075e-002
3.181970e+003, 3.806945e-002
3.183898e+003, 3.841984e-002
3.185827e+003, 3.851301e-002
3.187755e+003, 3.849353e-002
3.189684e+003, 3.809199e-002
3.191612e+003, 3.770692e-002
3.193541e+003, 3.851313e-002
3.195469e+003, 3.857558e-002
3.197398e+003, 3.826362e-002
3.199326e+003, 3.801561e-002
3.201255e+003, 3.783261e-002
3.203183e+003, 3.803558e-002
3.205112e+003, 3.856969e-002
3.207040e+003, 3.839757e-002
3.208969e+003, 3.817946e-002
3.210897e+003, 3.832466e-002
3.212825e+003, 3.860539e-002
3.214754e+003, 3.873369e-002
3.216682e+003, 3.864878e-002
3.218611e+003, 3.857371e-002
3.220539e+003, 3.841957e-002
3.222468e+003, 3.840702e-002
3.224396e+003, 3.881889e-002
3.226325e+003, 3.889146e-002
3.228253e+003, 3.853578e-002
3.230182e+003, 3.843658e-002
3.232110e+003, 3.855595e-002
3.234039e+003, 3.862345e-002
3.235967e+003, 3.840228e-002
3.237896e+003, 3.829849e-002
3.239824e+003, 3.892616e-002
3.241752e+003, 3.859204e-002
3.243681e+003, 3.766003e-002
3.245609e+003, 3.824188e-002
3.247538e+003, 3.854269e-002
3.249466e+003, 3.852475e-002
3.251395e+003, 3.867106e-002
3.253323e+003, 3.871594e-002
3.255252e+003, 3.902847e-002
3.257180e+003, 3.907678e-002
3.259109e+003, 3.934694e-002
3.261037e+003, 3.918481e-002
3.262966e+003, 3.877735e-002
3.264894e+003, 3.851923e-002
3.266823e+003, 3.812095e-002
3.268751e+003, 3.824593e-002
3.270679e+003, 3.857947e-002
3.272608e+003, 3.841181e-002
3.274536e+003, 3.811434e-002
3.276465e+003, 3.867393e-002
3.278393e+003, 3.934635e-002
3.280322e+003, 3.927218e-002
3.282250e+003, 3.877351e-002
3.284179e+003, 3.858273e-002
3.286107e+003, 3.881940e-002
3.288036e+003, 3.847649e-002
3.289964e+003, 3.838159e-002
3.291893e+003, 3.901552e-002
3.293821e+003, 3.910400e-002
3.295750e+003, 3.860860e-002
3.297678e+003, 3.863726e-002
3.299606e+003, 3.882598e-002
3.301535e+003, 3.883192e-002
3.303463e+003, 3.870313e-002
3.305392e+003, 3.870029e-002
3.307320e+003, 3.885539e-002
3.309249e+003, 3.799296e-002
3.311177e+003, 3.796384e-002
3.313106e+003, 3.850814e-002
3.315034e+003, 3.859576e-002
3.316963e+003, 3.923123e-002
3.318891e+003, 3.947758e-002
3.320820e+003, 3.937646e-002
3.322748e+003, 3.886856e-002
3.324677e+003, 3.866005e-002
3.326605e+003, 3.897969e-002
3.328533e+003, 3.897906e-002
3.330462e+003, 3.876371e-002
3.332390e+003, 3.848574e-002
3.334319e+003, 3.828521e-002
3.336247e+003, 3.857025e-002
3.338176e+003, 3.863775e-002
3.340104e+003, 3.804155e-002
3.342033e+003, 3.801418e-002
3.343961e+003, 3.834950e-002
3.345890e+003, 3.859588e-002
3.347818e+003, 3.858612e-002
3.349747e+003, 3.844867e-002
3.351675e+003, 3.886951e-002
3.353604e+003, 3.913498e-002
3.355532e+003, 3.944018e-002
3.357460e+003, 3.923495e-002
3.359389e+003, 3.813791e-002
3.361317e+003, 3.811521e-002
3.363246e+003, 3.901491e-002
3.365174e+003, 3.895380e-002
3.367103e+003, 3.872167e-002
3.369031e+003, 3.883474e-002
3.370960e+003, 3.897718e-002
3.372888e+003, 3.928908e-002
3.374817e+003, 3.911376e-002
3.376745e+003, 3.879441e-002
3.378674e+003, 3.947791e-002
3.380602e+003, 3.961482e-002
3.382531e+003, 3.869402e-002
3.384459e+003, 3.839638e-002
3.386387e+003, 3.850753e-002
3.388316e+003, 3.884642e-002
3.390244e+003, 3.870764e-002
3.392173e+003, 3.873762e-002
3.394101e+003, 3.936014e-002
3.396030e+003, 3.942400e-002
3.397958e+003, 3.899465e-002
3.399887e+003, 3.869225e-002
3.401815e+003, 3.868654e-002
3.403744e+003, 3.871705e-002
3.405672e+003, 3.894414e-002
3.407601e+003, 3.888795e-002
3.409529e+003, 3.874690e-002
3.411458e+003, 3.859513e-002
3.413386e+003, 3.875590e-002
3.415314e+003, 3.906277e-002
3.417243e+003, 3.867755e-002
3.419171e+003, 3.799336e-002
3.421100e+003, 3.819191e-002
3.423028e+003, 3.856842e-002
3.424957e+003, 3.908020e-002
3.426885e+003, 3.905698e-002
3.428814e+003, 3.865657e-002
3.430742e+003, 3.887922e-002
3.432671e+003, 3.904060e-002
3.434599e+003, 3.849769e-002
3.436528e+003, 3.832536e-002
3.438456e+003, 3.800534e-002
3.440385e+003, 3.838217e-002
3.442313e+003, 3.872262e-002
3.444241e+003, 3.830940e-002
3.446170e+003, 3.837888e-002
3.448098e+003, 3.897706e-002
3.450027e+003, 3.926217e-002
3.451955e+003, 3.897664e-002
3.453884e+003, 3.877832e-002
3.455812e+003, 3.870104e-002
3.457741e+003, 3.866538e-002
3.459669e+003, 3.872588e-002
3.461598e+003, 3.899040e-002
3.463526e+003, 3.913485e-002
3.465455e+003, 3.903124e-002
3.467383e+003, 3.910391e-002
3.469312e+003, 3.901913e-002
3.471240e+003, 3.844026e-002
3.473168e+003, 3.837379e-002
3.475097e+003, 3.885521e-002
3.477025e+003, 3.906628e-002
3.478954e+003, 3.917146e-002
3.480882e+003, 3.914050e-002
3.482811e+003, 3.885171e-002
3.484739e+003, 3.883981e-002
3.486668e+003, 3.882314e-002
3.488596e+003, 3.844405e-002
3.490525e+003, 3.842415e-002
3.492453e+003, 3.862757e-002
3.494382e+003, 3.864748e-002
3.496310e+003, 3.883043e-002
3.498239e+003, 3.924645e-002
3.500167e+003, 3.931736e-002
3.502095e+003, 3.884683e-002
3.504024e+003, 3.866766e-002
3.505952e+003, 3.825837e-002
3.507881e+003, 3.819765e-002
3.509809e+003, 3.873783e-002
3.511738e+003, 3.902302e-002
3.513666e+003, 3.925993e-002
3.515595e+003, 3.886345e-002
3.517523e+003, 3.896045e-002
3.519452e+003, 3.866747e-002
3.521380e+003, 3.848727e-002
3.523309e+003, 3.895699e-002
3.525237e+003, 3.910880e-002
3.527166e+003, 3.860839e-002
3.529094e+003, 3.865204e-002
3.531022e+003, 3.884151e-002
3.532951e+003, 3.857868e-002
3.534879e+003, 3.897464e-002
3.536808e+003, 3.934357e-002
3.538736e+003, 3.962163e-002
3.540665e+003, 3.980622e-002
3.542593e+003, 3.922392e-002
3.544522e+003, 3.929780e-002
3.546450e+003, 4.013152e-002
3.548379e+003, 4.020897e-002
3.550307e+003, 4.026777e-002
3.552236e+003, 3.971456e-002
3.554164e+003, 3.911781e-002
3.556093e+003, 3.977835e-002
3.558021e+003, 3.980476e-002
3.559949e+003, 3.995065e-002
3.561878e+003, 4.000584e-002
3.563806e+003, 3.991662e-002
3.565735e+003, 3.988342e-002
3.567663e+003, 4.005832e-002
3.569592e+003, 4.051467e-002
3.571520e+003, 4.020837e-002
3.573449e+003, 3.986110e-002
3.575377e+003, 3.966359e-002
3.577306e+003, 3.941129e-002
3.579234e+003, 3.963447e-002
3.581163e+003, 3.999584e-002
3.583091e+003, 4.003943e-002
3.585020e+003, 4.012460e-002
3.586948e+003, 4.045720e-002
3.588876e+003, 4.012506e-002
3.590805e+003, 3.996168e-002
3.592733e+003, 3.988642e-002
3.594662e+003, 3.884331e-002
3.596590e+003, 3.798562e-002
3.598519e+003, 3.842141e-002
3.600447e+003, 3.844775e-002
3.602376e+003, 3.893670e-002
3.604304e+003, 3.977452e-002
3.606233e+003, 3.989373e-002
3.608161e+003, 4.054984e-002
3.610090e+003, 4.040286e-002
3.612018e+003, 3.985068e-002
3.613947e+003, 3.978045e-002
3.615875e+003, 3.964231e-002
3.617803e+003, 3.958564e-002
3.619732e+003, 3.942238e-002
3.621660e+003, 3.846951e-002
3.623589e+003, 3.840363e-002
3.625517e+003, 3.901109e-002
3.627446e+003, 3.984645e-002
3.629374e+003, 3.996915e-002
3.631303e+003, 3.898331e-002
3.633231e+003, 3.857280e-002
3.635160e+003, 3.872189e-002
3.637088e+003, 3.868390e-002
3.639017e+003, 3.918787e-002
3.640945e+003, 3.861440e-002
3.642874e+003, 3.776137e-002
3.644802e+003, 3.770591e-002
3.646730e+003, 3.860357e-002
3.648659e+003, 3.902267e-002
3.650587e+003, 3.841425e-002
3.652516e+003, 3.754281e-002
3.654444e+003, 3.700665e-002
3.656373e+003, 3.709153e-002
3.658301e+003, 3.743758e-002
3.660230e+003, 3.757627e-002
3.662158e+003, 3.708401e-002
3.664087e+003, 3.636481e-002
3.666015e+003, 3.666844e-002
3.667944e+003, 3.825949e-002
3.669872e+003, 3.968905e-002
3.671801e+003, 3.891383e-002
3.673729e+003, 3.822770e-002
3.675657e+003, 3.826161e-002
3.677586e+003, 3.715206e-002
3.679514e+003, 3.659925e-002
3.681443e+003, 3.738144e-002
3.683371e+003, 3.785359e-002
3.685300e+003, 3.732860e-002
3.687228e+003, 3.781078e-002
3.689157e+003, 3.858681e-002
3.691085e+003, 3.868879e-002
3.693014e+003, 3.808650e-002
3.694942e+003, 3.755924e-002
3.696871e+003, 3.759188e-002
3.698799e+003, 3.762341e-002
3.700728e+003, 3.768922e-002
3.702656e+003, 3.731492e-002
3.704584e+003, 3.766869e-002
3.706513e+003, 3.867802e-002
3.708441e+003, 3.911721e-002
3.710370e+003, 3.883917e-002
3.712298e+003, 3.885533e-002
3.714227e+003, 3.824831e-002
3.716155e+003, 3.807237e-002
3.718084e+003, 3.814321e-002
3.720012e+003, 3.756199e-002
3.721941e+003, 3.740678e-002
3.723869e+003, 3.744864e-002
3.725798e+003, 3.722863e-002
3.727726e+003, 3.703836e-002
3.729655e+003, 3.805176e-002
3.731583e+003, 3.929201e-002
3.733511e+003, 3.974913e-002
3.735440e+003, 3.985719e-002
3.737368e+003, 3.898808e-002
3.739297e+003, 3.841247e-002
3.741225e+003, 3.852532e-002
3.743154e+003, 3.908985e-002
3.745082e+003, 3.934453e-002
3.747011e+003, 3.927982e-002
3.748939e+003, 3.989849e-002
3.750868e+003, 4.033453e-002
3.752796e+003, 3.949576e-002
3.754725e+003, 3.789836e-002
3.756653e+003, 3.725090e-002
3.758582e+003, 3.790288e-002
3.760510e+003, 3.841108e-002
3.762438e+003, 3.784799e-002
3.764367e+003, 3.758684e-002
3.766295e+003, 3.757251e-002
3.768224e+003, 3.777470e-002
3.770152e+003, 3.791562e-002
3.772081e+003, 3.840324e-002
3.774009e+003, 3.832648e-002
3.775938e+003, 3.732283e-002
3.777866e+003, 3.744306e-002
3.779795e+003, 3.825370e-002
3.781723e+003, 3.779463e-002
3.783652e+003, 3.732264e-002
3.785580e+003, 3.693816e-002
3.787509e+003, 3.686932e-002
3.789437e+003, 3.719219e-002
3.791365e+003, 3.778289e-002
3.793294e+003, 3.821317e-002
3.795222e+003, 3.784731e-002
3.797151e+003, 3.764899e-002
3.799079e+003, 3.821993e-002
3.801008e+003, 3.889025e-002
3.802936e+003, 3.795325e-002
3.804865e+003, 3.772226e-002
3.806793e+003, 3.859898e-002
3.808722e+003, 3.840644e-002
3.810650e+003, 3.823890e-002
3.812579e+003, 3.812200e-002
3.814507e+003, 3.873542e-002
3.816436e+003, 3.943279e-002
3.818364e+003, 3.910966e-002
3.820292e+003, 3.924762e-002
3.822221e+003, 3.890282e-002
3.824149e+003, 3.799421e-002
3.826078e+003, 3.728937e-002
3.828006e+003, 3.740157e-002
3.829935e+003, 3.819751e-002
3.831863e+003, 3.884889e-002
3.833792e+003, 3.869747e-002
3.835720e+003, 3.952727e-002
3.837649e+003, 4.034097e-002
3.839577e+003, 3.898036e-002
3.841506e+003, 3.766755e-002
3.843434e+003, 3.752664e-002
3.845363e+003, 3.799915e-002
3.847291e+003, 3.808875e-002
3.849219e+003, 3.782238e-002
3.851148e+003, 3.834823e-002
3.853076e+003, 3.909062e-002
3.855005e+003, 3.864556e-002
3.856933e+003, 3.756016e-002
3.858862e+003, 3.740805e-002
3.860790e+003, 3.785586e-002
3.862719e+003, 3.832398e-002
3.864647e+003, 3.932559e-002
3.866576e+003, 3.924724e-002
3.868504e+003, 3.888635e-002
3.870433e+003, 3.904683e-002
3.872361e+003, 3.899866e-002
3.874290e+003, 3.878135e-002
3.876218e+003, 3.810842e-002
3.878146e+003, 3.763626e-002
3.880075e+003, 3.730110e-002
3.882003e+003, 3.754861e-002
3.883932e+003, 3.876949e-002
3.885860e+003, 3.996486e-002
3.887789e+003, 3.923367e-002
3.889717e+003, 3.815953e-002
3.891646e+003, 3.844767e-002
3.893574e+003, 3.870601e-002
3.895503e+003, 3.821748e-002
3.897431e+003, 3.816613e-002
3.899360e+003, 3.863372e-002
3.901288e+003, 3.894657e-002
3.903217e+003, 3.861398e-002
3.905145e+003, 3.851644e-002
3.907073e+003, 3.852910e-002
3.909002e+003, 3.820711e-002
3.910930e+003, 3.865556e-002
3.912859e+003, 3.901565e-002
3.914787e+003, 3.795736e-002
3.916716e+003, 3.776374e-002
3.918644e+003, 3.857494e-002
3.920573e+003, 3.854116e-002
3.922501e+003, 3.792477e-002
3.924430e+003, 3.746643e-002
3.926358e+003, 3.786283e-002
3.928287e+003, 3.805710e-002
3.930215e+003, 3.807792e-002
3.932144e+003, 3.821718e-002
3.934072e+003, 3.801532e-002
3.936000e+003, 3.761635e-002
3.937929e+003, 3.778818e-002
3.939857e+003, 3.752591e-002
3.941786e+003, 3.749995e-002
3.943714e+003, 3.805706e-002
3.945643e+003, 3.827832e-002
3.947571e+003, 3.790759e-002
3.949500e+003, 3.840099e-002
3.951428e+003, 3.833057e-002
3.953357e+003, 3.717481e-002
3.955285e+003, 3.656884e-002
3.957214e+003, 3.761764e-002
3.959142e+003, 3.796827e-002
3.961071e+003, 3.769737e-002
3.962999e+003, 3.845960e-002
3.964927e+003, 3.914075e-002
3.966856e+003, 3.897894e-002
3.968784e+003, 3.875660e-002
3.970713e+003, 3.880449e-002
3.972641e+003, 3.854617e-002
3.974570e+003, 3.808257e-002
3.976498e+003, 3.834419e-002
3.978427e+003, 3.814364e-002
3.980355e+003, 3.788265e-002
3.982284e+003, 3.790937e-002
3.984212e+003, 3.802070e-002
3.986141e+003, 3.770431e-002
3.988069e+003, 3.820367e-002
3.989998e+003, 3.880827e-002
3.991926e+003, 3.871638e-002
3.993854e+003, 3.835771e-002
3.995783e+003, 3.874120e-002
3.997711e+003, 3.895550e-002
3.999640e+003, 3.855487e-002
##END=



