##NAMES=Augelite
##RRUFFID=R050100
##IDEAL CHEMISTRY=Al_2_PO_4_(OH)_3_
##LOCALITY=Rapid Creek, Yukon Territory, Canada
##OWNER=RRUFF
##SOURCE=Rock Currier
##DESCRIPTION=Pale green thick tabular crystals
##STATUS=The identification of this mineral has been confirmed by X-ray diffraction and chemical analysis
##URL=rruff.info/R050100
##MEASURED CHEMISTRY=Al_2.00_(P_1.00_O_4_)(OH_0.98_F_0.02_)_3_
3.991926e+002, 0.000000e+000
4.011211e+002, 1.558746e-001
4.030496e+002, 1.566295e-001
4.049780e+002, 1.544134e-001
4.069065e+002, 1.496718e-001
4.088350e+002, 1.441237e-001
4.107634e+002, 1.406610e-001
4.126919e+002, 1.375801e-001
4.146204e+002, 1.356488e-001
4.165488e+002, 1.350981e-001
4.184773e+002, 1.343905e-001
4.204058e+002, 1.334591e-001
4.223342e+002, 1.344090e-001
4.242627e+002, 1.397845e-001
4.261912e+002, 1.430838e-001
4.281196e+002, 1.433731e-001
4.300481e+002, 1.446459e-001
4.319766e+002, 1.428703e-001
4.339050e+002, 1.392084e-001
4.358335e+002, 1.365442e-001
4.377620e+002, 1.319570e-001
4.396904e+002, 1.253869e-001
4.416189e+002, 1.189438e-001
4.435474e+002, 1.121304e-001
4.454758e+002, 1.056354e-001
4.474043e+002, 1.001885e-001
4.493328e+002, 9.498808e-002
4.512612e+002, 8.997600e-002
4.531897e+002, 8.555668e-002
4.551182e+002, 8.180726e-002
4.570466e+002, 7.824370e-002
4.589751e+002, 7.452901e-002
4.609036e+002, 7.002685e-002
4.628320e+002, 6.698650e-002
4.647605e+002, 6.557921e-002
4.666890e+002, 6.402723e-002
4.686174e+002, 6.308339e-002
4.705459e+002, 6.279681e-002
4.724744e+002, 6.299216e-002
4.744028e+002, 6.352973e-002
4.763313e+002, 6.501823e-002
4.782598e+002, 6.655674e-002
4.801882e+002, 6.699377e-002
4.821167e+002, 6.784131e-002
4.840452e+002, 6.963288e-002
4.859736e+002, 7.108135e-002
4.879021e+002, 7.296524e-002
4.898306e+002, 7.542790e-002
4.917590e+002, 7.685510e-002
4.936875e+002, 7.780454e-002
4.956160e+002, 7.853067e-002
4.975444e+002, 7.924693e-002
4.994729e+002, 8.090621e-002
5.014014e+002, 8.303104e-002
5.033298e+002, 8.548522e-002
5.052583e+002, 8.815967e-002
5.071868e+002, 9.125081e-002
5.091152e+002, 9.478150e-002
5.110437e+002, 9.802348e-002
5.129722e+002, 1.014635e-001
5.149006e+002, 1.053173e-001
5.168291e+002, 1.096154e-001
5.187576e+002, 1.143271e-001
5.206860e+002, 1.189271e-001
5.226145e+002, 1.235493e-001
5.245430e+002, 1.280284e-001
5.264714e+002, 1.324998e-001
5.283999e+002, 1.374698e-001
5.303284e+002, 1.427529e-001
5.322568e+002, 1.466677e-001
5.341853e+002, 1.497178e-001
5.361138e+002, 1.519211e-001
5.380422e+002, 1.539521e-001
5.399707e+002, 1.564686e-001
5.418992e+002, 1.585847e-001
5.438276e+002, 1.597642e-001
5.457561e+002, 1.608057e-001
5.476846e+002, 1.617867e-001
5.496130e+002, 1.624748e-001
5.515415e+002, 1.617243e-001
5.534700e+002, 1.598255e-001
5.553984e+002, 1.568836e-001
5.573269e+002, 1.533278e-001
5.592554e+002, 1.494863e-001
5.611838e+002, 1.452653e-001
5.631123e+002, 1.406403e-001
5.650408e+002, 1.361124e-001
5.669692e+002, 1.323334e-001
5.688977e+002, 1.293066e-001
5.708262e+002, 1.265224e-001
5.727546e+002, 1.233706e-001
5.746831e+002, 1.201365e-001
5.766116e+002, 1.172969e-001
5.785400e+002, 1.146588e-001
5.804685e+002, 1.123365e-001
5.823970e+002, 1.106533e-001
5.843254e+002, 1.097002e-001
5.862539e+002, 1.091245e-001
5.881824e+002, 1.092774e-001
5.901108e+002, 1.098103e-001
5.920393e+002, 1.103808e-001
5.939678e+002, 1.119004e-001
5.958962e+002, 1.139509e-001
5.978247e+002, 1.164404e-001
5.997532e+002, 1.192456e-001
6.016816e+002, 1.223626e-001
6.036101e+002, 1.258069e-001
6.055386e+002, 1.282746e-001
6.074670e+002, 1.291191e-001
6.093955e+002, 1.284378e-001
6.113240e+002, 1.255286e-001
6.132524e+002, 1.211876e-001
6.151809e+002, 1.176741e-001
6.171094e+002, 1.155019e-001
6.190378e+002, 1.144264e-001
6.209663e+002, 1.148013e-001
6.228948e+002, 1.162155e-001
6.248232e+002, 1.176978e-001
6.267517e+002, 1.190439e-001
6.286802e+002, 1.200939e-001
6.306086e+002, 1.208336e-001
6.325371e+002, 1.209769e-001
6.344656e+002, 1.205423e-001
6.363940e+002, 1.199703e-001
6.383225e+002, 1.189092e-001
6.402510e+002, 1.168668e-001
6.421794e+002, 1.145062e-001
6.441079e+002, 1.120520e-001
6.460364e+002, 1.098300e-001
6.479648e+002, 1.076406e-001
6.498933e+002, 1.051903e-001
6.518218e+002, 1.022451e-001
6.537502e+002, 9.910335e-002
6.556787e+002, 9.538919e-002
6.576072e+002, 9.139298e-002
6.595356e+002, 8.707753e-002
6.614641e+002, 8.300482e-002
6.633926e+002, 7.881904e-002
6.653210e+002, 7.468550e-002
6.672495e+002, 7.102516e-002
6.691780e+002, 6.736147e-002
6.711064e+002, 6.373637e-002
6.730349e+002, 6.092527e-002
6.749634e+002, 5.857173e-002
6.768918e+002, 5.639634e-002
6.788203e+002, 5.467152e-002
6.807488e+002, 5.360704e-002
6.826772e+002, 5.306377e-002
6.846057e+002, 5.288691e-002
6.865342e+002, 5.322291e-002
6.884626e+002, 5.440913e-002
6.903911e+002, 5.635168e-002
6.923196e+002, 5.872919e-002
6.942480e+002, 6.157529e-002
6.961765e+002, 6.525643e-002
6.981050e+002, 6.979331e-002
7.000334e+002, 7.520749e-002
7.019619e+002, 8.137242e-002
7.038904e+002, 8.813414e-002
7.058188e+002, 9.521297e-002
7.077473e+002, 1.016306e-001
7.096758e+002, 1.069801e-001
7.116042e+002, 1.104408e-001
7.135327e+002, 1.119037e-001
7.154612e+002, 1.112055e-001
7.173896e+002, 1.083119e-001
7.193181e+002, 1.038356e-001
7.212466e+002, 9.791504e-002
7.231750e+002, 9.052649e-002
7.251035e+002, 8.201829e-002
7.270320e+002, 7.340016e-002
7.289604e+002, 6.508551e-002
7.308889e+002, 5.718051e-002
7.328174e+002, 5.016580e-002
7.347458e+002, 4.449374e-002
7.366743e+002, 3.985308e-002
7.386028e+002, 3.601330e-002
7.405313e+002, 3.315327e-002
7.424597e+002, 3.125985e-002
7.443882e+002, 2.990880e-002
7.463167e+002, 2.871564e-002
7.482451e+002, 2.753999e-002
7.501736e+002, 2.675762e-002
7.521021e+002, 2.673943e-002
7.540305e+002, 2.654577e-002
7.559590e+002, 2.612853e-002
7.578875e+002, 2.599179e-002
7.598159e+002, 2.642411e-002
7.617444e+002, 2.701667e-002
7.636729e+002, 2.769742e-002
7.656013e+002, 2.829228e-002
7.675298e+002, 2.872370e-002
7.694583e+002, 2.938690e-002
7.713867e+002, 3.026153e-002
7.733152e+002, 3.124750e-002
7.752437e+002, 3.249229e-002
7.771721e+002, 3.386727e-002
7.791006e+002, 3.507412e-002
7.810291e+002, 3.640870e-002
7.829575e+002, 3.806704e-002
7.848860e+002, 3.983502e-002
7.868145e+002, 4.162573e-002
7.887429e+002, 4.349303e-002
7.906714e+002, 4.541893e-002
7.925999e+002, 4.713723e-002
7.945283e+002, 4.939472e-002
7.964568e+002, 5.177384e-002
7.983853e+002, 5.417798e-002
8.003137e+002, 5.662325e-002
8.022422e+002, 5.890269e-002
8.041707e+002, 6.131772e-002
8.060991e+002, 6.380622e-002
8.080276e+002, 6.629497e-002
8.099561e+002, 6.910206e-002
8.118845e+002, 7.209864e-002
8.138130e+002, 7.487761e-002
8.157415e+002, 7.762398e-002
8.176699e+002, 8.038341e-002
8.195984e+002, 8.306202e-002
8.215269e+002, 8.564228e-002
8.234553e+002, 8.775343e-002
8.253838e+002, 8.939979e-002
8.273123e+002, 9.044156e-002
8.292407e+002, 9.123076e-002
8.311692e+002, 9.171958e-002
8.330977e+002, 9.125375e-002
8.350261e+002, 9.031612e-002
8.369546e+002, 8.910879e-002
8.388831e+002, 8.727237e-002
8.408115e+002, 8.465460e-002
8.427400e+002, 8.216991e-002
8.446685e+002, 7.951645e-002
8.465969e+002, 7.640575e-002
8.485254e+002, 7.353730e-002
8.504539e+002, 7.084075e-002
8.523823e+002, 6.809966e-002
8.543108e+002, 6.577354e-002
8.562393e+002, 6.371418e-002
8.581677e+002, 6.190980e-002
8.600962e+002, 6.061472e-002
8.620247e+002, 5.968303e-002
8.639531e+002, 5.923791e-002
8.658816e+002, 5.903740e-002
8.678101e+002, 5.899606e-002
8.697385e+002, 5.929779e-002
8.716670e+002, 5.994143e-002
8.735955e+002, 6.113843e-002
8.755239e+002, 6.291320e-002
8.774524e+002, 6.466307e-002
8.793809e+002, 6.657036e-002
8.813093e+002, 6.877315e-002
8.832378e+002, 7.142198e-002
8.851663e+002, 7.415148e-002
8.870947e+002, 7.684585e-002
8.890232e+002, 7.975069e-002
8.909517e+002, 8.303657e-002
8.928801e+002, 8.656708e-002
8.948085e+002, 9.004033e-002
8.967370e+002, 9.345409e-002
8.986655e+002, 9.721714e-002
9.005939e+002, 1.010877e-001
9.025224e+002, 1.051345e-001
9.044509e+002, 1.095702e-001
9.063793e+002, 1.140213e-001
9.083078e+002, 1.183603e-001
9.102363e+002, 1.227482e-001
9.121647e+002, 1.266211e-001
9.140932e+002, 1.301858e-001
9.160217e+002, 1.335556e-001
9.179501e+002, 1.359604e-001
9.198786e+002, 1.374815e-001
9.218071e+002, 1.382176e-001
9.237355e+002, 1.381322e-001
9.256640e+002, 1.373326e-001
9.275925e+002, 1.354974e-001
9.295209e+002, 1.328142e-001
9.314494e+002, 1.294026e-001
9.333779e+002, 1.252262e-001
9.353063e+002, 1.205337e-001
9.372348e+002, 1.157115e-001
9.391633e+002, 1.108754e-001
9.410917e+002, 1.060867e-001
9.430202e+002, 1.014580e-001
9.449487e+002, 9.736279e-002
9.468771e+002, 9.421001e-002
9.488056e+002, 9.167559e-002
9.507341e+002, 8.956631e-002
9.526625e+002, 8.809643e-002
9.545910e+002, 8.726189e-002
9.565195e+002, 8.668330e-002
9.584479e+002, 8.674867e-002
9.603764e+002, 8.752096e-002
9.623049e+002, 8.889171e-002
9.642333e+002, 9.092786e-002
9.661618e+002, 9.321992e-002
9.680903e+002, 9.581637e-002
9.700187e+002, 9.904315e-002
9.719472e+002, 1.025969e-001
9.738757e+002, 1.064678e-001
9.758041e+002, 1.106162e-001
9.777326e+002, 1.153944e-001
9.796611e+002, 1.207202e-001
9.815895e+002, 1.262233e-001
9.835180e+002, 1.321069e-001
9.854465e+002, 1.387879e-001
9.873749e+002, 1.462320e-001
9.893034e+002, 1.538197e-001
9.912319e+002, 1.615481e-001
9.931603e+002, 1.694387e-001
9.950888e+002, 1.769549e-001
9.970173e+002, 1.841328e-001
9.989457e+002, 1.902981e-001
1.000874e+003, 1.945932e-001
1.002803e+003, 1.976958e-001
1.004731e+003, 1.999449e-001
1.006660e+003, 2.009772e-001
1.008588e+003, 2.014555e-001
1.010517e+003, 2.015821e-001
1.012445e+003, 2.010999e-001
1.014373e+003, 1.996743e-001
1.016302e+003, 1.964301e-001
1.018230e+003, 1.913602e-001
1.020159e+003, 1.855204e-001
1.022087e+003, 1.791924e-001
1.024016e+003, 1.723166e-001
1.025944e+003, 1.651275e-001
1.027873e+003, 1.579276e-001
1.029801e+003, 1.510352e-001
1.031730e+003, 1.443247e-001
1.033658e+003, 1.379618e-001
1.035587e+003, 1.324127e-001
1.037515e+003, 1.275118e-001
1.039444e+003, 1.229818e-001
1.041372e+003, 1.189719e-001
1.043301e+003, 1.155136e-001
1.045229e+003, 1.126502e-001
1.047157e+003, 1.104122e-001
1.049086e+003, 1.092938e-001
1.051014e+003, 1.093082e-001
1.052943e+003, 1.098676e-001
1.054871e+003, 1.115774e-001
1.056800e+003, 1.145092e-001
1.058728e+003, 1.180550e-001
1.060657e+003, 1.220575e-001
1.062585e+003, 1.259806e-001
1.064514e+003, 1.289420e-001
1.066442e+003, 1.311615e-001
1.068371e+003, 1.328607e-001
1.070299e+003, 1.334357e-001
1.072228e+003, 1.329472e-001
1.074156e+003, 1.319778e-001
1.076084e+003, 1.306120e-001
1.078013e+003, 1.289827e-001
1.079941e+003, 1.266745e-001
1.081870e+003, 1.241424e-001
1.083798e+003, 1.214606e-001
1.085727e+003, 1.184081e-001
1.087655e+003, 1.153598e-001
1.089584e+003, 1.123119e-001
1.091512e+003, 1.093486e-001
1.093441e+003, 1.066407e-001
1.095369e+003, 1.048619e-001
1.097298e+003, 1.040799e-001
1.099226e+003, 1.040443e-001
1.101155e+003, 1.042460e-001
1.103083e+003, 1.037764e-001
1.105011e+003, 1.027446e-001
1.106940e+003, 1.015410e-001
1.108868e+003, 1.002864e-001
1.110797e+003, 9.895383e-002
1.112725e+003, 9.774665e-002
1.114654e+003, 9.715710e-002
1.116582e+003, 9.705850e-002
1.118511e+003, 9.741671e-002
1.120439e+003, 9.839135e-002
1.122368e+003, 1.000524e-001
1.124296e+003, 1.023129e-001
1.126225e+003, 1.048117e-001
1.128153e+003, 1.079293e-001
1.130082e+003, 1.116617e-001
1.132010e+003, 1.158606e-001
1.133938e+003, 1.204873e-001
1.135867e+003, 1.253284e-001
1.137795e+003, 1.298283e-001
1.139724e+003, 1.339838e-001
1.141652e+003, 1.374590e-001
1.143581e+003, 1.395139e-001
1.145509e+003, 1.405090e-001
1.147438e+003, 1.407722e-001
1.149366e+003, 1.401989e-001
1.151295e+003, 1.389437e-001
1.153223e+003, 1.371906e-001
1.155152e+003, 1.350152e-001
1.157080e+003, 1.326334e-001
1.159009e+003, 1.302999e-001
1.160937e+003, 1.281406e-001
1.162865e+003, 1.260871e-001
1.164794e+003, 1.237914e-001
1.166722e+003, 1.216351e-001
1.168651e+003, 1.197823e-001
1.170579e+003, 1.179888e-001
1.172508e+003, 1.161385e-001
1.174436e+003, 1.143492e-001
1.176365e+003, 1.126300e-001
1.178293e+003, 1.107004e-001
1.180222e+003, 1.086119e-001
1.182150e+003, 1.066448e-001
1.184079e+003, 1.048985e-001
1.186007e+003, 1.029326e-001
1.187936e+003, 1.009947e-001
1.189864e+003, 9.930936e-002
1.191792e+003, 9.734718e-002
1.193721e+003, 9.530711e-002
1.195649e+003, 9.311002e-002
1.197578e+003, 9.083158e-002
1.199506e+003, 8.841872e-002
1.201435e+003, 8.577655e-002
1.203363e+003, 8.303837e-002
1.205292e+003, 8.027120e-002
1.207220e+003, 7.747587e-002
1.209149e+003, 7.449879e-002
1.211077e+003, 7.147572e-002
1.213006e+003, 6.833739e-002
1.214934e+003, 6.495537e-002
1.216863e+003, 6.137794e-002
1.218791e+003, 5.778254e-002
1.220719e+003, 5.432536e-002
1.222648e+003, 5.083772e-002
1.224576e+003, 4.706227e-002
1.226505e+003, 4.322168e-002
1.228433e+003, 3.968116e-002
1.230362e+003, 3.603771e-002
1.232290e+003, 3.207484e-002
1.234219e+003, 2.840281e-002
1.236147e+003, 2.505809e-002
1.238076e+003, 2.203492e-002
1.240004e+003, 1.926694e-002
1.241933e+003, 1.692506e-002
1.243861e+003, 1.488617e-002
1.245790e+003, 1.316539e-002
1.247718e+003, 1.172510e-002
1.249646e+003, 1.055198e-002
1.251575e+003, 9.566386e-003
1.253503e+003, 8.747090e-003
1.255432e+003, 8.089182e-003
1.257360e+003, 7.756894e-003
1.259289e+003, 7.381817e-003
1.261217e+003, 6.892790e-003
1.263146e+003, 6.552009e-003
1.265074e+003, 6.296081e-003
1.267003e+003, 6.017283e-003
1.268931e+003, 5.736585e-003
1.270860e+003, 5.373536e-003
1.272788e+003, 5.091834e-003
1.274717e+003, 4.759951e-003
1.276645e+003, 4.431167e-003
1.278573e+003, 4.364172e-003
1.280502e+003, 4.261434e-003
1.282430e+003, 4.069271e-003
1.284359e+003, 4.091629e-003
1.286287e+003, 3.909220e-003
1.288216e+003, 3.665763e-003
1.290144e+003, 3.646672e-003
1.292073e+003, 3.731783e-003
1.294001e+003, 3.583454e-003
1.295930e+003, 3.326352e-003
1.297858e+003, 3.256499e-003
1.299787e+003, 3.333207e-003
1.301715e+003, 3.345710e-003
1.303644e+003, 3.142921e-003
1.305572e+003, 3.025335e-003
1.307500e+003, 2.843233e-003
1.309429e+003, 2.802512e-003
1.311357e+003, 2.777147e-003
1.313286e+003, 2.653043e-003
1.315214e+003, 2.599223e-003
1.317143e+003, 2.600077e-003
1.319071e+003, 2.517842e-003
1.321000e+003, 2.430263e-003
1.322928e+003, 2.371927e-003
1.324857e+003, 2.463941e-003
1.326785e+003, 2.528419e-003
1.328714e+003, 2.382757e-003
1.330642e+003, 2.365380e-003
1.332571e+003, 2.478941e-003
1.334499e+003, 2.449710e-003
1.336427e+003, 2.491565e-003
1.338356e+003, 2.523051e-003
1.340284e+003, 2.411066e-003
1.342213e+003, 2.282638e-003
1.344141e+003, 2.421712e-003
1.346070e+003, 2.442291e-003
1.347998e+003, 2.233978e-003
1.349927e+003, 1.998781e-003
1.351855e+003, 2.035293e-003
1.353784e+003, 2.033779e-003
1.355712e+003, 2.049478e-003
1.357641e+003, 2.148529e-003
1.359569e+003, 2.120333e-003
1.361498e+003, 2.071209e-003
1.363426e+003, 2.059867e-003
1.365354e+003, 2.073040e-003
1.367283e+003, 1.883361e-003
1.369211e+003, 1.665959e-003
1.371140e+003, 1.757780e-003
1.373068e+003, 1.857183e-003
1.374997e+003, 1.924291e-003
1.376925e+003, 1.869204e-003
1.378854e+003, 1.766350e-003
1.380782e+003, 1.654745e-003
1.382711e+003, 1.616707e-003
1.384639e+003, 1.612321e-003
1.386568e+003, 1.684843e-003
1.388496e+003, 1.690920e-003
1.390424e+003, 1.732046e-003
1.392353e+003, 1.639986e-003
1.394281e+003, 1.506852e-003
1.396210e+003, 1.514839e-003
1.398138e+003, 1.595592e-003
1.400067e+003, 1.649980e-003
1.401995e+003, 1.602621e-003
1.403924e+003, 1.591673e-003
1.405852e+003, 1.589054e-003
1.407781e+003, 1.714195e-003
1.409709e+003, 1.769369e-003
1.411638e+003, 1.725623e-003
1.413566e+003, 1.639694e-003
1.415495e+003, 1.544840e-003
1.417423e+003, 1.592282e-003
1.419351e+003, 1.609336e-003
1.421280e+003, 1.667673e-003
1.423208e+003, 1.742268e-003
1.425137e+003, 1.832832e-003
1.427065e+003, 1.656511e-003
1.428994e+003, 1.508661e-003
1.430922e+003, 1.574466e-003
1.432851e+003, 1.695423e-003
1.434779e+003, 1.699065e-003
1.436708e+003, 1.546736e-003
1.438636e+003, 1.554703e-003
1.440565e+003, 1.669196e-003
1.442493e+003, 1.681829e-003
1.444422e+003, 1.650043e-003
1.446350e+003, 1.707642e-003
1.448278e+003, 1.745461e-003
1.450207e+003, 1.726485e-003
1.452135e+003, 1.763820e-003
1.454064e+003, 1.782722e-003
1.455992e+003, 1.696252e-003
1.457921e+003, 1.517255e-003
1.459849e+003, 1.685252e-003
1.461778e+003, 1.672343e-003
1.463706e+003, 1.760627e-003
1.465635e+003, 1.831807e-003
1.467563e+003, 1.699879e-003
1.469492e+003, 1.516156e-003
1.471420e+003, 1.579857e-003
1.473349e+003, 1.634593e-003
1.475277e+003, 1.774614e-003
1.477205e+003, 1.783300e-003
1.479134e+003, 1.869810e-003
1.481062e+003, 1.870002e-003
1.482991e+003, 1.807471e-003
1.484919e+003, 1.762900e-003
1.486848e+003, 1.749437e-003
1.488776e+003, 1.731401e-003
1.490705e+003, 1.814263e-003
1.492633e+003, 2.011928e-003
1.494562e+003, 2.011020e-003
1.496490e+003, 1.811758e-003
1.498419e+003, 1.731355e-003
1.500347e+003, 1.947092e-003
1.502276e+003, 2.186827e-003
1.504204e+003, 2.240003e-003
1.506132e+003, 2.322707e-003
1.508061e+003, 2.445449e-003
1.509989e+003, 2.312772e-003
1.511918e+003, 2.181480e-003
1.513846e+003, 2.278477e-003
1.515775e+003, 2.336136e-003
1.517703e+003, 2.228982e-003
1.519632e+003, 2.340363e-003
1.521560e+003, 2.519772e-003
1.523489e+003, 2.487562e-003
1.525417e+003, 2.420513e-003
1.527346e+003, 2.497281e-003
1.529274e+003, 2.595965e-003
1.531203e+003, 2.543524e-003
1.533131e+003, 2.547026e-003
1.535059e+003, 2.656899e-003
1.536988e+003, 2.911782e-003
1.538916e+003, 2.904075e-003
1.540845e+003, 2.609386e-003
1.542773e+003, 2.599783e-003
1.544702e+003, 2.795138e-003
1.546630e+003, 2.825487e-003
1.548559e+003, 2.852824e-003
1.550487e+003, 2.846540e-003
1.552416e+003, 2.792508e-003
1.554344e+003, 2.628217e-003
1.556273e+003, 2.773720e-003
1.558201e+003, 2.858643e-003
1.560130e+003, 2.779905e-003
1.562058e+003, 2.920587e-003
1.563986e+003, 3.015280e-003
1.565915e+003, 3.009405e-003
1.567843e+003, 2.917320e-003
1.569772e+003, 2.705798e-003
1.571700e+003, 2.747294e-003
1.573629e+003, 2.860909e-003
1.575557e+003, 2.801415e-003
1.577486e+003, 2.813397e-003
1.579414e+003, 2.925367e-003
1.581343e+003, 2.984998e-003
1.583271e+003, 2.914430e-003
1.585200e+003, 2.937875e-003
1.587128e+003, 2.985081e-003
1.589057e+003, 2.917073e-003
1.590985e+003, 3.067517e-003
1.592913e+003, 3.099310e-003
1.594842e+003, 3.095100e-003
1.596770e+003, 3.238530e-003
1.598699e+003, 3.214584e-003
1.600627e+003, 3.226182e-003
1.602556e+003, 3.252834e-003
1.604484e+003, 3.031919e-003
1.606413e+003, 3.069768e-003
1.608341e+003, 3.313661e-003
1.610270e+003, 3.231600e-003
1.612198e+003, 3.244677e-003
1.614127e+003, 3.359037e-003
1.616055e+003, 3.485158e-003
1.617984e+003, 3.511889e-003
1.619912e+003, 3.560948e-003
1.621840e+003, 3.437130e-003
1.623769e+003, 3.488582e-003
1.625697e+003, 3.691146e-003
1.627626e+003, 3.564720e-003
1.629554e+003, 3.384128e-003
1.631483e+003, 3.443171e-003
1.633411e+003, 3.628685e-003
1.635340e+003, 3.602349e-003
1.637268e+003, 3.474625e-003
1.639197e+003, 3.384257e-003
1.641125e+003, 3.541144e-003
1.643054e+003, 3.677252e-003
1.644982e+003, 3.607599e-003
1.646911e+003, 3.639241e-003
1.648839e+003, 3.765541e-003
1.650767e+003, 3.929105e-003
1.652696e+003, 3.794137e-003
1.654624e+003, 3.625833e-003
1.656553e+003, 3.493542e-003
1.658481e+003, 3.174414e-003
1.660410e+003, 3.306397e-003
1.662338e+003, 3.345814e-003
1.664267e+003, 3.061870e-003
1.666195e+003, 3.076285e-003
1.668124e+003, 3.131843e-003
1.670052e+003, 3.038505e-003
1.671981e+003, 3.042988e-003
1.673909e+003, 3.017569e-003
1.675838e+003, 2.782976e-003
1.677766e+003, 2.648921e-003
1.679694e+003, 2.729582e-003
1.681623e+003, 2.801533e-003
1.683551e+003, 3.044203e-003
1.685480e+003, 2.771046e-003
1.687408e+003, 2.580182e-003
1.689337e+003, 2.661996e-003
1.691265e+003, 2.753130e-003
1.693194e+003, 2.866764e-003
1.695122e+003, 3.076969e-003
1.697051e+003, 2.894498e-003
1.698979e+003, 2.742844e-003
1.700908e+003, 2.535010e-003
1.702836e+003, 2.711960e-003
1.704765e+003, 2.812678e-003
1.706693e+003, 2.912505e-003
1.708621e+003, 2.820516e-003
1.710550e+003, 2.377692e-003
1.712478e+003, 2.246700e-003
1.714407e+003, 2.639009e-003
1.716335e+003, 2.841859e-003
1.718264e+003, 2.527217e-003
1.720192e+003, 2.405116e-003
1.722121e+003, 2.413298e-003
1.724049e+003, 2.444559e-003
1.725978e+003, 2.662114e-003
1.727906e+003, 2.621371e-003
1.729835e+003, 2.653544e-003
1.731763e+003, 2.752822e-003
1.733692e+003, 2.529486e-003
1.735620e+003, 2.158965e-003
1.737548e+003, 2.283476e-003
1.739477e+003, 2.262686e-003
1.741405e+003, 2.271668e-003
1.743334e+003, 2.237819e-003
1.745262e+003, 1.920952e-003
1.747191e+003, 1.900645e-003
1.749119e+003, 2.160561e-003
1.751048e+003, 2.376818e-003
1.752976e+003, 2.237188e-003
1.754905e+003, 2.184314e-003
1.756833e+003, 2.388042e-003
1.758762e+003, 2.616856e-003
1.760690e+003, 2.629932e-003
1.762619e+003, 2.792664e-003
1.764547e+003, 2.915505e-003
1.766475e+003, 2.822147e-003
1.768404e+003, 2.926019e-003
1.770332e+003, 3.087663e-003
1.772261e+003, 3.196919e-003
1.774189e+003, 3.075856e-003
1.776118e+003, 3.056216e-003
1.778046e+003, 3.237537e-003
1.779975e+003, 3.318207e-003
1.781903e+003, 3.186587e-003
1.783832e+003, 3.109666e-003
1.785760e+003, 3.138677e-003
1.787689e+003, 3.288931e-003
1.789617e+003, 3.255469e-003
1.791546e+003, 3.222122e-003
1.793474e+003, 3.037637e-003
1.795402e+003, 2.697585e-003
1.797331e+003, 2.592427e-003
1.799259e+003, 2.660175e-003
1.801188e+003, 2.689098e-003
1.803116e+003, 2.477634e-003
1.805045e+003, 2.102804e-003
1.806973e+003, 2.007737e-003
1.808902e+003, 1.796478e-003
1.810830e+003, 1.730129e-003
1.812759e+003, 1.880100e-003
1.814687e+003, 1.889939e-003
1.816616e+003, 2.092091e-003
1.818544e+003, 2.153646e-003
1.820473e+003, 2.227469e-003
1.822401e+003, 2.498275e-003
1.824329e+003, 2.407191e-003
1.826258e+003, 1.939814e-003
1.828186e+003, 1.519904e-003
1.830115e+003, 1.565645e-003
1.832043e+003, 1.723372e-003
1.833972e+003, 1.991662e-003
1.835900e+003, 2.207231e-003
1.837829e+003, 2.134888e-003
1.839757e+003, 2.043818e-003
1.841686e+003, 2.111315e-003
1.843614e+003, 2.121564e-003
1.845543e+003, 2.298130e-003
1.847471e+003, 2.070026e-003
1.849400e+003, 1.562822e-003
1.851328e+003, 1.226676e-003
1.853256e+003, 1.322933e-003
1.855185e+003, 1.347882e-003
1.857113e+003, 1.281440e-003
1.859042e+003, 1.462490e-003
1.860970e+003, 1.533857e-003
1.862899e+003, 1.524832e-003
1.864827e+003, 1.332227e-003
1.866756e+003, 1.454214e-003
1.868684e+003, 1.776130e-003
1.870613e+003, 1.652286e-003
1.872541e+003, 1.343949e-003
1.874470e+003, 1.549582e-003
1.876398e+003, 1.875802e-003
1.878327e+003, 2.241833e-003
1.880255e+003, 2.396399e-003
1.882183e+003, 1.924233e-003
1.884112e+003, 1.842335e-003
1.886040e+003, 1.870451e-003
1.887969e+003, 1.578366e-003
1.889897e+003, 1.742390e-003
1.891826e+003, 2.118794e-003
1.893754e+003, 2.079336e-003
1.895683e+003, 2.130234e-003
1.897611e+003, 2.376859e-003
1.899540e+003, 2.245225e-003
1.901468e+003, 2.001526e-003
1.903397e+003, 1.868710e-003
1.905325e+003, 2.001696e-003
1.907254e+003, 2.000906e-003
1.909182e+003, 2.076325e-003
1.911110e+003, 1.950211e-003
1.913039e+003, 2.729862e-003
1.914967e+003, 3.307760e-003
1.916896e+003, 2.840862e-003
1.918824e+003, 2.497655e-003
1.920753e+003, 2.749406e-003
1.922681e+003, 2.631116e-003
1.924610e+003, 1.155520e-003
1.926538e+003, 9.572167e-004
1.928467e+003, 2.292576e-003
1.930395e+003, 1.978148e-003
1.932324e+003, 1.298024e-003
1.934252e+003, 1.693919e-003
1.936181e+003, 2.161893e-003
1.938109e+003, 1.669486e-003
1.940037e+003, 9.638704e-004
1.941966e+003, 8.019615e-004
1.943894e+003, 1.087526e-003
1.945823e+003, 1.786242e-003
1.947751e+003, 2.057832e-003
1.949680e+003, 7.151067e-004
1.951608e+003, 4.914727e-004
1.953537e+003, 7.207524e-004
1.955465e+003, 8.864326e-004
1.957394e+003, 2.003078e-003
1.959322e+003, 3.206487e-003
1.961251e+003, 2.214701e-003
1.963179e+003, -2.229359e-004
1.965108e+003, -2.137939e-004
1.967036e+003, 3.089616e-004
1.968964e+003, -5.575901e-005
1.970893e+003, 2.496632e-004
1.972821e+003, 1.174902e-004
1.974750e+003, 2.863768e-004
1.976678e+003, 2.105284e-003
1.978607e+003, 4.212552e-003
1.980535e+003, 4.662662e-003
1.982464e+003, 3.865557e-003
1.984392e+003, 3.395087e-003
1.986321e+003, 3.258734e-003
1.988249e+003, 3.529451e-003
1.990178e+003, 3.929347e-003
1.992106e+003, 2.924263e-003
1.994035e+003, 2.063281e-003
1.995963e+003, 1.544504e-003
1.997891e+003, 1.817459e-003
1.999820e+003, 1.292894e-003
2.001748e+003, -8.371626e-004
2.003677e+003, -9.476524e-004
2.005605e+003, 1.092731e-003
2.007534e+003, 2.126565e-003
2.009462e+003, 2.421290e-003
2.011391e+003, 1.844431e-003
2.013319e+003, -5.178560e-004
2.015248e+003, -1.071852e-003
2.017176e+003, -2.160826e-004
2.019105e+003, -8.216983e-005
2.021033e+003, 4.009506e-004
2.022962e+003, 3.763707e-004
2.024890e+003, -3.456686e-004
2.026818e+003, 9.210281e-005
2.028747e+003, 4.610521e-004
2.030675e+003, 5.663288e-004
2.032604e+003, -5.792154e-004
2.034532e+003, -9.415661e-004
2.036461e+003, 1.848228e-003
2.038389e+003, 2.282365e-003
2.040318e+003, 6.498551e-004
2.042246e+003, -7.122745e-005
2.044175e+003, -9.348647e-004
2.046103e+003, -5.290555e-004
2.048032e+003, 6.981989e-004
2.049960e+003, 1.576924e-003
2.051889e+003, 9.331464e-004
2.053817e+003, 1.449484e-003
2.055746e+003, 2.203510e-003
2.057674e+003, 1.784110e-003
2.059603e+003, 1.810405e-003
2.061531e+003, 1.993937e-003
2.063459e+003, 1.356432e-003
2.065388e+003, 1.392214e-003
2.067316e+003, 1.843858e-003
2.069245e+003, 1.503255e-003
2.071173e+003, 9.628609e-004
2.073102e+003, 5.145642e-004
2.075030e+003, 8.797231e-004
2.076959e+003, 1.554906e-003
2.078887e+003, 1.029887e-003
2.080816e+003, 6.143037e-004
2.082744e+003, 1.551908e-003
2.084673e+003, 1.751326e-003
2.086601e+003, 1.885472e-003
2.088530e+003, 1.919877e-003
2.090458e+003, 1.719335e-003
2.092386e+003, 1.791356e-003
2.094315e+003, 2.208129e-003
2.096243e+003, 2.942784e-003
2.098172e+003, 2.964671e-003
2.100100e+003, 2.606261e-003
2.102029e+003, 2.891792e-003
2.103957e+003, 2.577698e-003
2.105886e+003, 2.634152e-003
2.107814e+003, 2.235870e-003
2.109743e+003, 1.927953e-003
2.111671e+003, 2.451526e-003
2.113600e+003, 3.051881e-003
2.115528e+003, 2.344187e-003
2.117457e+003, 1.445225e-003
2.119385e+003, 1.340131e-003
2.121313e+003, 1.379080e-003
2.123242e+003, 5.704298e-004
2.125170e+003, -4.151681e-004
2.127099e+003, -3.269880e-004
2.129027e+003, -1.296619e-003
2.130956e+003, -2.537913e-003
2.132884e+003, -1.812029e-003
2.134813e+003, -5.129232e-004
2.136741e+003, -9.667065e-004
2.138670e+003, -2.289266e-003
2.140598e+003, -2.702453e-003
2.142527e+003, -1.500555e-003
2.144455e+003, -1.677697e-004
2.146384e+003, -7.599738e-004
2.148312e+003, -3.604644e-003
2.150240e+003, -5.321694e-003
2.152169e+003, -5.159541e-003
2.154097e+003, -5.613085e-003
2.156026e+003, -5.945981e-003
2.157954e+003, -3.698316e-003
2.159883e+003, -3.633700e-004
2.161811e+003, -6.029588e-004
2.163740e+003, -7.747911e-004
2.165668e+003, -6.133579e-004
2.167597e+003, 4.710214e-004
2.169525e+003, 1.130759e-003
2.171454e+003, -2.106756e-004
2.173382e+003, 1.733920e-004
2.175311e+003, 1.026110e-003
2.177239e+003, 1.313196e-003
2.179167e+003, 5.517733e-004
2.181096e+003, 5.272390e-005
2.183024e+003, 1.348773e-003
2.184953e+003, 1.977149e-003
2.186881e+003, 1.418932e-003
2.188810e+003, 4.362988e-004
2.190738e+003, 3.480675e-005
2.192667e+003, 8.391756e-004
2.194595e+003, 2.016331e-003
2.196524e+003, 1.077060e-003
2.198452e+003, 1.321098e-004
2.200381e+003, -7.760947e-005
2.202309e+003, -5.324692e-004
2.204238e+003, 5.115205e-004
2.206166e+003, 2.482128e-003
2.208094e+003, 2.512415e-003
2.210023e+003, 8.905670e-004
2.211951e+003, 5.660152e-004
2.213880e+003, 1.701139e-003
2.215808e+003, 2.123117e-003
2.217737e+003, 2.086148e-003
2.219665e+003, 7.627742e-004
2.221594e+003, 8.495573e-004
2.223522e+003, 1.119582e-003
2.225451e+003, 6.516208e-004
2.227379e+003, 1.092884e-004
2.229308e+003, 4.227636e-004
2.231236e+003, 9.263192e-004
2.233165e+003, 1.720111e-003
2.235093e+003, 1.991990e-003
2.237021e+003, 1.962665e-003
2.238950e+003, 1.687751e-003
2.240878e+003, 1.146909e-003
2.242807e+003, 2.457731e-004
2.244735e+003, 5.497269e-004
2.246664e+003, 7.396861e-004
2.248592e+003, 2.446120e-004
2.250521e+003, -4.739570e-005
2.252449e+003, -2.212213e-004
2.254378e+003, 7.739146e-004
2.256306e+003, 1.328683e-003
2.258235e+003, 1.911783e-003
2.260163e+003, 2.343385e-003
2.262092e+003, 1.719443e-003
2.264020e+003, 8.332129e-004
2.265948e+003, 4.553931e-004
2.267877e+003, 3.854003e-004
2.269805e+003, 1.356296e-003
2.271734e+003, 1.383820e-003
2.273662e+003, 1.719338e-003
2.275591e+003, 1.514864e-003
2.277519e+003, 1.718910e-003
2.279448e+003, 1.705595e-003
2.281376e+003, 1.054586e-003
2.283305e+003, 1.080084e-003
2.285233e+003, 1.423878e-003
2.287162e+003, 1.608208e-003
2.289090e+003, 1.964102e-003
2.291019e+003, 2.061786e-003
2.292947e+003, 1.637183e-003
2.294875e+003, 1.519552e-003
2.296804e+003, 1.751706e-003
2.298732e+003, 1.730021e-003
2.300661e+003, 2.012774e-003
2.302589e+003, 1.839856e-003
2.304518e+003, 1.561344e-003
2.306446e+003, 1.532063e-003
2.308375e+003, 1.531765e-003
2.310303e+003, 1.741392e-003
2.312232e+003, 1.910398e-003
2.314160e+003, 2.019122e-003
2.316089e+003, 1.969227e-003
2.318017e+003, 2.055356e-003
2.319946e+003, 2.956409e-003
2.321874e+003, 3.419130e-003
2.323802e+003, 3.347657e-003
2.325731e+003, 2.939868e-003
2.327659e+003, 2.382997e-003
2.329588e+003, 2.095541e-003
2.331516e+003, 2.146170e-003
2.333445e+003, 1.995953e-003
2.335373e+003, 1.915433e-003
2.337302e+003, 2.010670e-003
2.339230e+003, 1.921979e-003
2.341159e+003, 1.431028e-003
2.343087e+003, 1.097177e-003
2.345016e+003, 1.456126e-003
2.346944e+003, 1.441508e-003
2.348873e+003, 1.140656e-003
2.350801e+003, 1.502114e-003
2.352729e+003, 1.696472e-003
2.354658e+003, 1.762206e-003
2.356586e+003, 2.090072e-003
2.358515e+003, 2.306952e-003
2.360443e+003, 1.731412e-003
2.362372e+003, 1.545705e-003
2.364300e+003, 1.650274e-003
2.366229e+003, 1.076825e-003
2.368157e+003, 1.041684e-003
2.370086e+003, 1.196829e-003
2.372014e+003, 1.646372e-003
2.373942e+003, 1.432430e-003
2.375871e+003, 9.648483e-004
2.377799e+003, 1.083205e-003
2.379728e+003, 1.503190e-003
2.381656e+003, 1.210207e-003
2.383585e+003, 9.280573e-004
2.385513e+003, 1.161256e-003
2.387442e+003, 1.248465e-003
2.389370e+003, 1.018797e-003
2.391299e+003, 8.365682e-004
2.393227e+003, 4.221865e-004
2.395156e+003, 3.575172e-004
2.397084e+003, 3.449201e-004
2.399012e+003, 3.742009e-004
2.400941e+003, 1.147676e-003
2.402869e+003, 1.927058e-003
2.404798e+003, 1.630576e-003
2.406726e+003, 9.149839e-004
2.408655e+003, 1.496038e-003
2.410583e+003, 1.984792e-003
2.412512e+003, 1.691298e-003
2.414440e+003, 1.374745e-003
2.416369e+003, 1.251510e-003
2.418297e+003, 1.872503e-003
2.420226e+003, 2.621944e-003
2.422154e+003, 2.505690e-003
2.424083e+003, 2.390227e-003
2.426011e+003, 1.874054e-003
2.427939e+003, 1.586264e-003
2.429868e+003, 1.677435e-003
2.431796e+003, 1.561754e-003
2.433725e+003, 2.012997e-003
2.435653e+003, 2.490626e-003
2.437582e+003, 2.473980e-003
2.439510e+003, 2.787426e-003
2.441439e+003, 3.289862e-003
2.443367e+003, 3.205327e-003
2.445296e+003, 3.073938e-003
2.447224e+003, 3.835530e-003
2.449153e+003, 3.815668e-003
2.451081e+003, 3.402992e-003
2.453010e+003, 3.226546e-003
2.454938e+003, 3.096999e-003
2.456866e+003, 2.900081e-003
2.458795e+003, 2.977436e-003
2.460723e+003, 3.574427e-003
2.462652e+003, 3.628074e-003
2.464580e+003, 3.053973e-003
2.466509e+003, 3.163164e-003
2.468437e+003, 3.573905e-003
2.470366e+003, 3.419191e-003
2.472294e+003, 2.798880e-003
2.474223e+003, 3.066424e-003
2.476151e+003, 3.505974e-003
2.478080e+003, 3.427898e-003
2.480008e+003, 3.405342e-003
2.481937e+003, 3.158466e-003
2.483865e+003, 2.832949e-003
2.485793e+003, 3.056408e-003
2.487722e+003, 1.961336e-003
2.489650e+003, 2.034595e-003
2.491579e+003, 2.951103e-003
2.493507e+003, 3.428781e-003
2.495436e+003, 3.594187e-003
2.497364e+003, 3.403623e-003
2.499293e+003, 3.316041e-003
2.501221e+003, 3.194995e-003
2.503150e+003, 3.293708e-003
2.505078e+003, 3.584516e-003
2.507007e+003, 3.556858e-003
2.508935e+003, 3.095888e-003
2.510864e+003, 3.501237e-003
2.512792e+003, 4.147777e-003
2.514720e+003, 3.553180e-003
2.516649e+003, 3.272591e-003
2.518577e+003, 3.968449e-003
2.520506e+003, 4.317463e-003
2.522434e+003, 4.280073e-003
2.524363e+003, 3.937864e-003
2.526291e+003, 4.154022e-003
2.528220e+003, 3.931274e-003
2.530148e+003, 3.738257e-003
2.532077e+003, 3.642869e-003
2.534005e+003, 3.696865e-003
2.535934e+003, 3.879273e-003
2.537862e+003, 3.580499e-003
2.539791e+003, 3.432276e-003
2.541719e+003, 3.234599e-003
2.543647e+003, 3.065221e-003
2.545576e+003, 3.158558e-003
2.547504e+003, 3.965428e-003
2.549433e+003, 4.195488e-003
2.551361e+003, 3.657400e-003
2.553290e+003, 3.997619e-003
2.555218e+003, 3.838527e-003
2.557147e+003, 3.531903e-003
2.559075e+003, 3.944476e-003
2.561004e+003, 3.844158e-003
2.562932e+003, 3.849867e-003
2.564861e+003, 4.366348e-003
2.566789e+003, 4.196234e-003
2.568718e+003, 4.009999e-003
2.570646e+003, 3.776334e-003
2.572574e+003, 3.504997e-003
2.574503e+003, 3.916307e-003
2.576431e+003, 4.848692e-003
2.578360e+003, 4.703293e-003
2.580288e+003, 4.123576e-003
2.582217e+003, 4.131897e-003
2.584145e+003, 3.883468e-003
2.586074e+003, 4.202663e-003
2.588002e+003, 4.647008e-003
2.589931e+003, 4.368213e-003
2.591859e+003, 4.020893e-003
2.593788e+003, 4.102032e-003
2.595716e+003, 4.367874e-003
2.597645e+003, 4.181046e-003
2.599573e+003, 4.100726e-003
2.601501e+003, 4.061207e-003
2.603430e+003, 3.811540e-003
2.605358e+003, 4.034309e-003
2.607287e+003, 4.184001e-003
2.609215e+003, 4.466197e-003
2.611144e+003, 4.256367e-003
2.613072e+003, 4.317567e-003
2.615001e+003, 4.116206e-003
2.616929e+003, 3.861158e-003
2.618858e+003, 4.004630e-003
2.620786e+003, 4.517834e-003
2.622715e+003, 5.226422e-003
2.624643e+003, 5.340789e-003
2.626572e+003, 4.870638e-003
2.628500e+003, 4.232223e-003
2.630428e+003, 4.671241e-003
2.632357e+003, 5.018463e-003
2.634285e+003, 4.773190e-003
2.636214e+003, 4.321716e-003
2.638142e+003, 4.164935e-003
2.640071e+003, 4.175181e-003
2.641999e+003, 4.437183e-003
2.643928e+003, 4.456870e-003
2.645856e+003, 4.556497e-003
2.647785e+003, 4.493761e-003
2.649713e+003, 4.436926e-003
2.651642e+003, 4.563553e-003
2.653570e+003, 5.044794e-003
2.655499e+003, 4.432485e-003
2.657427e+003, 3.870763e-003
2.659355e+003, 4.256636e-003
2.661284e+003, 4.245652e-003
2.663212e+003, 4.138823e-003
2.665141e+003, 3.865437e-003
2.667069e+003, 3.967457e-003
2.668998e+003, 3.873518e-003
2.670926e+003, 3.555369e-003
2.672855e+003, 3.525336e-003
2.674783e+003, 3.734138e-003
2.676712e+003, 3.501070e-003
2.678640e+003, 3.043351e-003
2.680569e+003, 3.019719e-003
2.682497e+003, 2.949268e-003
2.684426e+003, 3.078467e-003
2.686354e+003, 3.692796e-003
2.688282e+003, 3.803932e-003
2.690211e+003, 3.417534e-003
2.692139e+003, 3.708450e-003
2.694068e+003, 3.798601e-003
2.695996e+003, 3.940420e-003
2.697925e+003, 4.054108e-003
2.699853e+003, 3.963384e-003
2.701782e+003, 3.916724e-003
2.703710e+003, 4.412733e-003
2.705639e+003, 4.559868e-003
2.707567e+003, 4.535292e-003
2.709496e+003, 4.259713e-003
2.711424e+003, 3.959466e-003
2.713353e+003, 4.064855e-003
2.715281e+003, 4.079661e-003
2.717209e+003, 4.170470e-003
2.719138e+003, 3.827372e-003
2.721066e+003, 3.312810e-003
2.722995e+003, 3.413060e-003
2.724923e+003, 3.735522e-003
2.726852e+003, 4.072124e-003
2.728780e+003, 4.442326e-003
2.730709e+003, 4.653734e-003
2.732637e+003, 4.185256e-003
2.734566e+003, 3.767928e-003
2.736494e+003, 4.146218e-003
2.738423e+003, 4.442639e-003
2.740351e+003, 4.376324e-003
2.742280e+003, 4.634695e-003
2.744208e+003, 4.541566e-003
2.746136e+003, 4.469682e-003
2.748065e+003, 4.660292e-003
2.749993e+003, 4.867936e-003
2.751922e+003, 4.596352e-003
2.753850e+003, 4.045535e-003
2.755779e+003, 4.034810e-003
2.757707e+003, 4.197082e-003
2.759636e+003, 4.239109e-003
2.761564e+003, 4.388086e-003
2.763493e+003, 4.325719e-003
2.765421e+003, 4.355500e-003
2.767350e+003, 4.508276e-003
2.769278e+003, 4.574787e-003
2.771207e+003, 4.734676e-003
2.773135e+003, 4.690283e-003
2.775063e+003, 4.804782e-003
2.776992e+003, 4.604440e-003
2.778920e+003, 4.612814e-003
2.780849e+003, 4.848292e-003
2.782777e+003, 4.709838e-003
2.784706e+003, 4.448120e-003
2.786634e+003, 4.520153e-003
2.788563e+003, 5.246611e-003
2.790491e+003, 5.320447e-003
2.792420e+003, 4.596875e-003
2.794348e+003, 4.220637e-003
2.796277e+003, 4.475075e-003
2.798205e+003, 4.987206e-003
2.800134e+003, 5.029586e-003
2.802062e+003, 4.613409e-003
2.803990e+003, 4.733260e-003
2.805919e+003, 5.241371e-003
2.807847e+003, 5.503541e-003
2.809776e+003, 5.159756e-003
2.811704e+003, 4.765460e-003
2.813633e+003, 5.010783e-003
2.815561e+003, 5.237653e-003
2.817490e+003, 5.382541e-003
2.819418e+003, 5.463170e-003
2.821347e+003, 5.607673e-003
2.823275e+003, 5.338445e-003
2.825204e+003, 5.197124e-003
2.827132e+003, 5.154579e-003
2.829061e+003, 5.415011e-003
2.830989e+003, 5.351530e-003
2.832917e+003, 5.242239e-003
2.834846e+003, 5.978509e-003
2.836774e+003, 6.448502e-003
2.838703e+003, 6.013490e-003
2.840631e+003, 5.232228e-003
2.842560e+003, 5.271440e-003
2.844488e+003, 5.848654e-003
2.846417e+003, 5.992211e-003
2.848345e+003, 5.719856e-003
2.850274e+003, 5.489307e-003
2.852202e+003, 5.295594e-003
2.854131e+003, 5.506332e-003
2.856059e+003, 5.170471e-003
2.857988e+003, 5.021540e-003
2.859916e+003, 5.508551e-003
2.861844e+003, 5.685341e-003
2.863773e+003, 5.712433e-003
2.865701e+003, 5.528187e-003
2.867630e+003, 5.397251e-003
2.869558e+003, 5.649571e-003
2.871487e+003, 6.095776e-003
2.873415e+003, 5.941254e-003
2.875344e+003, 5.567754e-003
2.877272e+003, 5.440111e-003
2.879201e+003, 5.670096e-003
2.881129e+003, 5.463130e-003
2.883058e+003, 4.759006e-003
2.884986e+003, 5.240717e-003
2.886915e+003, 5.675685e-003
2.888843e+003, 5.528045e-003
2.890771e+003, 5.743600e-003
2.892700e+003, 5.786430e-003
2.894628e+003, 5.917675e-003
2.896557e+003, 6.381085e-003
2.898485e+003, 6.527238e-003
2.900414e+003, 6.312121e-003
2.902342e+003, 6.294960e-003
2.904271e+003, 6.748260e-003
2.906199e+003, 6.525546e-003
2.908128e+003, 6.446487e-003
2.910056e+003, 6.913717e-003
2.911985e+003, 6.583932e-003
2.913913e+003, 6.467855e-003
2.915842e+003, 6.730862e-003
2.917770e+003, 7.074564e-003
2.919698e+003, 7.605070e-003
2.921627e+003, 7.844918e-003
2.923555e+003, 6.792792e-003
2.925484e+003, 5.783384e-003
2.927412e+003, 5.654199e-003
2.929341e+003, 5.846590e-003
2.931269e+003, 5.629848e-003
2.933198e+003, 5.540818e-003
2.935126e+003, 5.959949e-003
2.937055e+003, 6.027225e-003
2.938983e+003, 5.849407e-003
2.940912e+003, 5.765343e-003
2.942840e+003, 5.932613e-003
2.944769e+003, 6.130315e-003
2.946697e+003, 6.358619e-003
2.948625e+003, 6.556814e-003
2.950554e+003, 6.146391e-003
2.952482e+003, 6.095167e-003
2.954411e+003, 6.143018e-003
2.956339e+003, 6.440667e-003
2.958268e+003, 6.658463e-003
2.960196e+003, 6.601087e-003
2.962125e+003, 6.957035e-003
2.964053e+003, 7.386631e-003
2.965982e+003, 6.970346e-003
2.967910e+003, 6.461931e-003
2.969839e+003, 5.937928e-003
2.971767e+003, 5.818733e-003
2.973696e+003, 6.309169e-003
2.975624e+003, 6.600619e-003
2.977552e+003, 5.998555e-003
2.979481e+003, 5.710483e-003
2.981409e+003, 6.289407e-003
2.983338e+003, 6.582465e-003
2.985266e+003, 6.899628e-003
2.987195e+003, 6.836821e-003
2.989123e+003, 6.691698e-003
2.991052e+003, 6.966508e-003
2.992980e+003, 6.594975e-003
2.994909e+003, 6.601919e-003
2.996837e+003, 6.615453e-003
2.998766e+003, 6.240470e-003
3.000694e+003, 6.611579e-003
3.002623e+003, 6.987265e-003
3.004551e+003, 6.676415e-003
3.006479e+003, 6.848126e-003
3.008408e+003, 7.053046e-003
3.010336e+003, 6.892411e-003
3.012265e+003, 7.372106e-003
3.014193e+003, 8.043096e-003
3.016122e+003, 8.064734e-003
3.018050e+003, 7.894123e-003
3.019979e+003, 8.187215e-003
3.021907e+003, 8.425813e-003
3.023836e+003, 8.469914e-003
3.025764e+003, 8.268479e-003
3.027693e+003, 8.393386e-003
3.029621e+003, 8.093365e-003
3.031550e+003, 7.552967e-003
3.033478e+003, 8.361279e-003
3.035406e+003, 9.035703e-003
3.037335e+003, 8.807490e-003
3.039263e+003, 8.778513e-003
3.041192e+003, 8.355169e-003
3.043120e+003, 8.410695e-003
3.045049e+003, 9.354989e-003
3.046977e+003, 9.331733e-003
3.048906e+003, 8.410829e-003
3.050834e+003, 7.771742e-003
3.052763e+003, 7.999904e-003
3.054691e+003, 9.094957e-003
3.056620e+003, 9.947059e-003
3.058548e+003, 9.882068e-003
3.060477e+003, 9.213885e-003
3.062405e+003, 8.628838e-003
3.064333e+003, 9.051702e-003
3.066262e+003, 9.743441e-003
3.068190e+003, 9.357916e-003
3.070119e+003, 9.341364e-003
3.072047e+003, 9.359023e-003
3.073976e+003, 8.961549e-003
3.075904e+003, 8.609030e-003
3.077833e+003, 9.102987e-003
3.079761e+003, 9.519211e-003
3.081690e+003, 9.403006e-003
3.083618e+003, 9.780697e-003
3.085547e+003, 1.027186e-002
3.087475e+003, 9.748415e-003
3.089404e+003, 9.300891e-003
3.091332e+003, 9.814146e-003
3.093260e+003, 1.030261e-002
3.095189e+003, 9.833730e-003
3.097117e+003, 9.429319e-003
3.099046e+003, 9.470661e-003
3.100974e+003, 9.887720e-003
3.102903e+003, 1.077243e-002
3.104831e+003, 1.054187e-002
3.106760e+003, 1.039717e-002
3.108688e+003, 1.067280e-002
3.110617e+003, 1.029230e-002
3.112545e+003, 1.061817e-002
3.114474e+003, 1.108029e-002
3.116402e+003, 1.031197e-002
3.118331e+003, 1.074320e-002
3.120259e+003, 1.152716e-002
3.122188e+003, 1.147994e-002
3.124116e+003, 1.162964e-002
3.126044e+003, 1.165625e-002
3.127973e+003, 1.182078e-002
3.129901e+003, 1.210396e-002
3.131830e+003, 1.251760e-002
3.133758e+003, 1.219619e-002
3.135687e+003, 1.156206e-002
3.137615e+003, 1.186907e-002
3.139544e+003, 1.215952e-002
3.141472e+003, 1.125990e-002
3.143401e+003, 1.132982e-002
3.145329e+003, 1.265982e-002
3.147258e+003, 1.245046e-002
3.149186e+003, 1.223856e-002
3.151115e+003, 1.277817e-002
3.153043e+003, 1.314637e-002
3.154971e+003, 1.355702e-002
3.156900e+003, 1.347235e-002
3.158828e+003, 1.348449e-002
3.160757e+003, 1.407740e-002
3.162685e+003, 1.380567e-002
3.164614e+003, 1.302366e-002
3.166542e+003, 1.298488e-002
3.168471e+003, 1.423598e-002
3.170399e+003, 1.457372e-002
3.172328e+003, 1.421231e-002
3.174256e+003, 1.408887e-002
3.176185e+003, 1.428574e-002
3.178113e+003, 1.449137e-002
3.180042e+003, 1.467886e-002
3.181970e+003, 1.423624e-002
3.183898e+003, 1.353570e-002
3.185827e+003, 1.426363e-002
3.187755e+003, 1.468415e-002
3.189684e+003, 1.437786e-002
3.191612e+003, 1.392331e-002
3.193541e+003, 1.404428e-002
3.195469e+003, 1.423492e-002
3.197398e+003, 1.484829e-002
3.199326e+003, 1.483764e-002
3.201255e+003, 1.419415e-002
3.203183e+003, 1.477443e-002
3.205112e+003, 1.546613e-002
3.207040e+003, 1.504828e-002
3.208969e+003, 1.512870e-002
3.210897e+003, 1.600450e-002
3.212825e+003, 1.616304e-002
3.214754e+003, 1.690700e-002
3.216682e+003, 1.816706e-002
3.218611e+003, 1.741236e-002
3.220539e+003, 1.706035e-002
3.222468e+003, 1.737680e-002
3.224396e+003, 1.766945e-002
3.226325e+003, 1.744425e-002
3.228253e+003, 1.738786e-002
3.230182e+003, 1.775318e-002
3.232110e+003, 1.830097e-002
3.234039e+003, 1.851698e-002
3.235967e+003, 1.840602e-002
3.237896e+003, 1.900017e-002
3.239824e+003, 1.874853e-002
3.241752e+003, 1.849095e-002
3.243681e+003, 1.840297e-002
3.245609e+003, 1.889372e-002
3.247538e+003, 1.897136e-002
3.249466e+003, 1.914087e-002
3.251395e+003, 2.000275e-002
3.253323e+003, 1.954445e-002
3.255252e+003, 1.913341e-002
3.257180e+003, 2.013238e-002
3.259109e+003, 2.080024e-002
3.261037e+003, 2.118387e-002
3.262966e+003, 2.088520e-002
3.264894e+003, 2.171305e-002
3.266823e+003, 2.300387e-002
3.268751e+003, 2.268692e-002
3.270679e+003, 2.103863e-002
3.272608e+003, 2.064500e-002
3.274536e+003, 2.167296e-002
3.276465e+003, 2.258593e-002
3.278393e+003, 2.235755e-002
3.280322e+003, 2.240504e-002
3.282250e+003, 2.350817e-002
3.284179e+003, 2.395659e-002
3.286107e+003, 2.434009e-002
3.288036e+003, 2.469840e-002
3.289964e+003, 2.518379e-002
3.291893e+003, 2.455948e-002
3.293821e+003, 2.371676e-002
3.295750e+003, 2.459203e-002
3.297678e+003, 2.651140e-002
3.299606e+003, 2.693181e-002
3.301535e+003, 2.658276e-002
3.303463e+003, 2.717578e-002
3.305392e+003, 2.829003e-002
3.307320e+003, 2.882645e-002
3.309249e+003, 2.854392e-002
3.311177e+003, 2.801183e-002
3.313106e+003, 2.751334e-002
3.315034e+003, 2.743945e-002
3.316963e+003, 2.788126e-002
3.318891e+003, 2.810412e-002
3.320820e+003, 2.811630e-002
3.322748e+003, 2.883939e-002
3.324677e+003, 2.985366e-002
3.326605e+003, 3.037102e-002
3.328533e+003, 3.088970e-002
3.330462e+003, 3.176126e-002
3.332390e+003, 3.119207e-002
3.334319e+003, 3.108234e-002
3.336247e+003, 3.184830e-002
3.338176e+003, 3.321701e-002
3.340104e+003, 3.232447e-002
3.342033e+003, 3.211115e-002
3.343961e+003, 3.369126e-002
3.345890e+003, 3.427166e-002
3.347818e+003, 3.454675e-002
3.349747e+003, 3.414719e-002
3.351675e+003, 3.470923e-002
3.353604e+003, 3.572834e-002
3.355532e+003, 3.661592e-002
3.357460e+003, 3.768701e-002
3.359389e+003, 3.761722e-002
3.361317e+003, 3.761274e-002
3.363246e+003, 3.847473e-002
3.365174e+003, 4.025259e-002
3.367103e+003, 4.112595e-002
3.369031e+003, 4.122610e-002
3.370960e+003, 4.131693e-002
3.372888e+003, 4.220830e-002
3.374817e+003, 4.373679e-002
3.376745e+003, 4.441958e-002
3.378674e+003, 4.523790e-002
3.380602e+003, 4.668218e-002
3.382531e+003, 4.762803e-002
3.384459e+003, 4.710373e-002
3.386387e+003, 4.788603e-002
3.388316e+003, 4.963928e-002
3.390244e+003, 5.082767e-002
3.392173e+003, 5.058983e-002
3.394101e+003, 5.069865e-002
3.396030e+003, 5.311877e-002
3.397958e+003, 5.504556e-002
3.399887e+003, 5.565650e-002
3.401815e+003, 5.676994e-002
3.403744e+003, 5.773424e-002
3.405672e+003, 5.872373e-002
3.407601e+003, 6.010578e-002
3.409529e+003, 6.187132e-002
3.411458e+003, 6.333471e-002
3.413386e+003, 6.459034e-002
3.415314e+003, 6.687047e-002
3.417243e+003, 6.887142e-002
3.419171e+003, 6.992812e-002
3.421100e+003, 7.066604e-002
3.423028e+003, 7.190330e-002
3.424957e+003, 7.228076e-002
3.426885e+003, 7.383042e-002
3.428814e+003, 7.623199e-002
3.430742e+003, 7.791682e-002
3.432671e+003, 7.826809e-002
3.434599e+003, 7.850364e-002
3.436528e+003, 7.975791e-002
3.438456e+003, 8.176831e-002
3.440385e+003, 8.339433e-002
3.442313e+003, 8.411844e-002
3.444241e+003, 8.569982e-002
3.446170e+003, 8.850908e-002
3.448098e+003, 9.070782e-002
3.450027e+003, 9.372090e-002
3.451955e+003, 9.721481e-002
3.453884e+003, 1.002735e-001
3.455812e+003, 1.030171e-001
3.457741e+003, 1.074947e-001
3.459669e+003, 1.120743e-001
3.461598e+003, 1.156929e-001
3.463526e+003, 1.183721e-001
3.465455e+003, 1.206430e-001
3.467383e+003, 1.221080e-001
3.469312e+003, 1.222799e-001
3.471240e+003, 1.207759e-001
3.473168e+003, 1.175921e-001
3.475097e+003, 1.142326e-001
3.477025e+003, 1.102795e-001
3.478954e+003, 1.068720e-001
3.480882e+003, 1.039732e-001
3.482811e+003, 1.000370e-001
3.484739e+003, 9.482579e-002
3.486668e+003, 9.093907e-002
3.488596e+003, 8.765677e-002
3.490525e+003, 8.436103e-002
3.492453e+003, 8.179197e-002
3.494382e+003, 7.978731e-002
3.496310e+003, 7.780822e-002
3.498239e+003, 7.641052e-002
3.500167e+003, 7.597689e-002
3.502095e+003, 7.557297e-002
3.504024e+003, 7.464866e-002
3.505952e+003, 7.470328e-002
3.507881e+003, 7.461731e-002
3.509809e+003, 7.527163e-002
3.511738e+003, 7.615230e-002
3.513666e+003, 7.676791e-002
3.515595e+003, 7.856359e-002
3.517523e+003, 7.977980e-002
3.519452e+003, 8.077735e-002
3.521380e+003, 8.300538e-002
3.523309e+003, 8.589589e-002
3.525237e+003, 8.922474e-002
3.527166e+003, 9.120067e-002
3.529094e+003, 9.181686e-002
3.531022e+003, 9.287624e-002
3.532951e+003, 9.551372e-002
3.534879e+003, 9.940979e-002
3.536808e+003, 1.005669e-001
3.538736e+003, 1.019576e-001
3.540665e+003, 1.032505e-001
3.542593e+003, 1.035271e-001
3.544522e+003, 1.038123e-001
3.546450e+003, 1.011614e-001
3.548379e+003, 9.784704e-002
3.550307e+003, 9.519313e-002
3.552236e+003, 9.119163e-002
3.554164e+003, 8.546166e-002
3.556093e+003, 7.932511e-002
3.558021e+003, 7.382572e-002
3.559949e+003, 6.746236e-002
3.561878e+003, 6.034026e-002
3.563806e+003, 5.417769e-002
3.565735e+003, 4.938864e-002
3.567663e+003, 4.456967e-002
3.569592e+003, 3.982108e-002
3.571520e+003, 3.585514e-002
3.573449e+003, 3.163353e-002
3.575377e+003, 2.891501e-002
3.577306e+003, 2.739741e-002
3.579234e+003, 2.603820e-002
3.581163e+003, 2.423603e-002
3.583091e+003, 2.144200e-002
3.585020e+003, 2.027337e-002
3.586948e+003, 2.125599e-002
3.588876e+003, 1.997905e-002
3.590805e+003, 1.825762e-002
3.592733e+003, 1.702603e-002
3.594662e+003, 1.687766e-002
3.596590e+003, 1.799477e-002
3.598519e+003, 1.822360e-002
3.600447e+003, 1.829267e-002
3.602376e+003, 1.786166e-002
3.604304e+003, 1.618296e-002
3.606233e+003, 1.510071e-002
3.608161e+003, 1.466661e-002
3.610090e+003, 1.337774e-002
3.612018e+003, 1.150202e-002
3.613947e+003, 9.110766e-003
3.615875e+003, 7.225946e-003
3.617803e+003, 6.637619e-003
3.619732e+003, 4.779746e-003
3.621660e+003, 2.865427e-003
3.623589e+003, 3.657983e-003
3.625517e+003, 4.589252e-003
3.627446e+003, 3.454237e-003
3.629374e+003, 2.045479e-003
3.631303e+003, -2.804837e-004
3.633231e+003, -3.875855e-004
3.635160e+003, -2.617718e-004
3.637088e+003, -1.133234e-004
3.639017e+003, 1.079327e-003
3.640945e+003, 2.101408e-003
3.642874e+003, 2.350217e-003
3.644802e+003, 8.975592e-004
3.646730e+003, -6.662329e-004
3.648659e+003, -1.301767e-003
3.650587e+003, -1.304874e-003
3.652516e+003, -5.926256e-004
3.654444e+003, -7.276741e-004
3.656373e+003, -3.024818e-004
3.658301e+003, -7.377579e-004
3.660230e+003, -1.755740e-003
3.662158e+003, -1.771814e-003
3.664087e+003, -1.979064e-003
3.666015e+003, -2.519567e-003
3.667944e+003, -1.828246e-003
3.669872e+003, -1.579114e-003
3.671801e+003, -3.314125e-003
3.673729e+003, -3.248088e-003
3.675657e+003, -1.082188e-003
3.677586e+003, -1.969199e-003
3.679514e+003, -2.692885e-003
3.681443e+003, -2.712840e-003
3.683371e+003, -3.175513e-003
3.685300e+003, -3.022798e-003
3.687228e+003, -3.405258e-003
3.689157e+003, -3.887197e-003
3.691085e+003, -4.140242e-003
3.693014e+003, -3.570961e-003
3.694942e+003, -4.242521e-003
3.696871e+003, -4.273085e-003
3.698799e+003, -2.593450e-003
3.700728e+003, -2.612354e-003
3.702656e+003, -2.648934e-003
3.704584e+003, -3.247686e-003
3.706513e+003, -4.874069e-003
3.708441e+003, -4.204880e-003
3.710370e+003, -2.534214e-003
3.712298e+003, -2.335630e-003
3.714227e+003, -2.685363e-003
3.716155e+003, -1.947585e-003
3.718084e+003, -2.848345e-003
3.720012e+003, -3.986864e-003
3.721941e+003, -4.677864e-003
3.723869e+003, -4.295186e-003
3.725798e+003, -3.781651e-003
3.727726e+003, -3.192658e-003
3.729655e+003, -2.633897e-003
3.731583e+003, -2.854001e-003
3.733511e+003, -3.380853e-003
3.735440e+003, -3.366755e-003
3.737368e+003, -3.273901e-003
3.739297e+003, -3.905431e-003
3.741225e+003, -3.927262e-003
3.743154e+003, -2.985814e-003
3.745082e+003, -2.476864e-003
3.747011e+003, -5.035585e-003
3.748939e+003, -4.977572e-003
3.750868e+003, -4.888984e-003
3.752796e+003, -4.893623e-003
3.754725e+003, -4.475850e-003
3.756653e+003, -3.991983e-003
3.758582e+003, -4.125753e-003
3.760510e+003, -5.304986e-003
3.762438e+003, -5.391141e-003
3.764367e+003, -4.894588e-003
3.766295e+003, -3.668057e-003
3.768224e+003, -2.233949e-003
3.770152e+003, -2.874255e-003
3.772081e+003, -4.508368e-003
3.774009e+003, -4.636594e-003
3.775938e+003, -6.391268e-003
3.777866e+003, -8.141143e-003
3.779795e+003, -6.145395e-003
3.781723e+003, -4.537643e-003
3.783652e+003, -4.825903e-003
3.785580e+003, -5.781948e-003
3.787509e+003, -6.206810e-003
3.789437e+003, -5.405092e-003
3.791365e+003, -4.140019e-003
3.793294e+003, -3.786444e-003
3.795222e+003, -3.385296e-003
3.797151e+003, -2.259604e-003
3.799079e+003, -3.824250e-003
3.801008e+003, -5.662758e-003
3.802936e+003, -5.536825e-003
3.804865e+003, -4.177743e-003
3.806793e+003, -2.934436e-003
3.808722e+003, -3.526916e-003
3.810650e+003, -4.766166e-003
3.812579e+003, -4.189705e-003
3.814507e+003, -4.228805e-003
3.816436e+003, -4.441469e-003
3.818364e+003, -4.613759e-003
3.820292e+003, -4.100450e-003
3.822221e+003, -3.967387e-003
3.824149e+003, -4.028148e-003
3.826078e+003, -3.858975e-003
3.828006e+003, -4.261158e-003
3.829935e+003, -4.279146e-003
3.831863e+003, -4.111937e-003
3.833792e+003, -4.356565e-003
3.835720e+003, -4.171462e-003
3.837649e+003, -4.502005e-003
3.839577e+003, -4.534299e-003
3.841506e+003, -4.210544e-003
3.843434e+003, -5.301338e-003
3.845363e+003, -6.303641e-003
3.847291e+003, -6.111530e-003
3.849219e+003, -4.504121e-003
3.851148e+003, -3.677662e-003
3.853076e+003, -2.500150e-003
3.855005e+003, -2.263432e-003
3.856933e+003, -4.397987e-003
3.858862e+003, -3.477396e-003
3.860790e+003, -2.789824e-003
3.862719e+003, -3.300243e-003
3.864647e+003, -3.579846e-003
3.866576e+003, -2.588084e-003
3.868504e+003, -2.539748e-003
3.870433e+003, -2.531698e-003
3.872361e+003, -3.465306e-003
3.874290e+003, -4.612217e-003
3.876218e+003, -5.556255e-003
3.878146e+003, -5.429858e-003
3.880075e+003, -5.011416e-003
3.882003e+003, -4.954539e-003
3.883932e+003, -4.752601e-003
3.885860e+003, -4.097965e-003
3.887789e+003, -3.506603e-003
3.889717e+003, -4.054789e-003
3.891646e+003, -3.823654e-003
3.893574e+003, -3.817688e-003
3.895503e+003, -4.235468e-003
3.897431e+003, -4.232361e-003
3.899360e+003, -3.635759e-003
3.901288e+003, -3.256732e-003
3.903217e+003, -4.147728e-003
3.905145e+003, -4.870817e-003
3.907073e+003, -4.565789e-003
3.909002e+003, -3.800326e-003
3.910930e+003, -4.071164e-003
3.912859e+003, -4.216409e-003
3.914787e+003, -5.130926e-003
3.916716e+003, -5.926316e-003
3.918644e+003, -4.701660e-003
3.920573e+003, -3.342578e-003
3.922501e+003, -2.885327e-003
3.924430e+003, -2.997825e-003
3.926358e+003, -4.322396e-003
3.928287e+003, -5.014088e-003
3.930215e+003, -4.917587e-003
3.932144e+003, -4.774725e-003
3.934072e+003, -3.514483e-003
3.936000e+003, -3.482928e-003
3.937929e+003, -3.583605e-003
3.939857e+003, -3.666098e-003
3.941786e+003, -3.142574e-003
3.943714e+003, -2.987593e-003
3.945643e+003, -2.486644e-003
3.947571e+003, -1.942487e-003
3.949500e+003, -3.136997e-003
3.951428e+003, -4.356123e-003
3.953357e+003, -4.920888e-003
3.955285e+003, -3.478968e-003
3.957214e+003, -3.426666e-003
3.959142e+003, -5.030161e-003
3.961071e+003, -5.916181e-003
3.962999e+003, -5.524255e-003
3.964927e+003, -5.714273e-003
3.966856e+003, -6.682518e-003
3.968784e+003, -5.624293e-003
3.970713e+003, -4.086171e-003
3.972641e+003, -3.026171e-003
3.974570e+003, -2.661334e-003
3.976498e+003, -3.169408e-003
3.978427e+003, -3.366412e-003
3.980355e+003, -3.465744e-003
3.982284e+003, -3.500766e-003
3.984212e+003, -4.762778e-003
3.986141e+003, -5.987482e-003
3.988069e+003, -5.362561e-003
3.989998e+003, -3.971590e-003
3.991926e+003, -4.515911e-003
3.993854e+003, -4.814194e-003
3.995783e+003, -4.319224e-003
3.997711e+003, -3.169198e-003
3.999640e+003, -3.172170e-003
##END=



