##NAMES=Augelite
##RRUFFID=R050316
##IDEAL CHEMISTRY=Al_2_PO_4_(OH)_3_
##LOCALITY=Rapid Creek, Yukon Territory, Canada
##OWNER=RRUFF
##SOURCE=Eugene Schlepp
##DESCRIPTION=Pale green thick prismatic crystals
##STATUS=The identification of this mineral has been confirmed by X-ray diffraction and chemical analysis
##URL=rruff.info/R050316
##MEASURED CHEMISTRY=Al_2.00_(P_1.00_O_4_)(OH)_3_
3.991926e+002, 1.855189e-001
4.011211e+002, 1.744581e-001
4.030496e+002, 1.752968e-001
4.049780e+002, 1.733145e-001
4.069065e+002, 1.672882e-001
4.088350e+002, 1.669763e-001
4.107634e+002, 1.671284e-001
4.126919e+002, 1.640365e-001
4.146204e+002, 1.628637e-001
4.165488e+002, 1.625120e-001
4.184773e+002, 1.623967e-001
4.204058e+002, 1.666027e-001
4.223342e+002, 1.690797e-001
4.242627e+002, 1.701860e-001
4.261912e+002, 1.735181e-001
4.281196e+002, 1.760532e-001
4.300481e+002, 1.738436e-001
4.319766e+002, 1.754115e-001
4.339050e+002, 1.731952e-001
4.358335e+002, 1.654279e-001
4.377620e+002, 1.580834e-001
4.396904e+002, 1.477298e-001
4.416189e+002, 1.394485e-001
4.435474e+002, 1.334540e-001
4.454758e+002, 1.261216e-001
4.474043e+002, 1.185771e-001
4.493328e+002, 1.129036e-001
4.512612e+002, 1.083348e-001
4.531897e+002, 1.028184e-001
4.551182e+002, 9.789362e-002
4.570466e+002, 9.420456e-002
4.589751e+002, 9.023457e-002
4.609036e+002, 8.601747e-002
4.628320e+002, 8.347087e-002
4.647605e+002, 8.036941e-002
4.666890e+002, 7.702729e-002
4.686174e+002, 7.589570e-002
4.705459e+002, 7.601241e-002
4.724744e+002, 7.708372e-002
4.744028e+002, 7.886793e-002
4.763313e+002, 8.074484e-002
4.782598e+002, 8.310482e-002
4.801882e+002, 8.517864e-002
4.821167e+002, 8.766489e-002
4.840452e+002, 9.010921e-002
4.859736e+002, 9.204584e-002
4.879021e+002, 9.392826e-002
4.898306e+002, 9.546904e-002
4.917590e+002, 9.800964e-002
4.936875e+002, 1.012742e-001
4.956160e+002, 1.033574e-001
4.975444e+002, 1.049151e-001
4.994729e+002, 1.073942e-001
5.014014e+002, 1.100246e-001
5.033298e+002, 1.128881e-001
5.052583e+002, 1.164877e-001
5.071868e+002, 1.212353e-001
5.091152e+002, 1.258489e-001
5.110437e+002, 1.305486e-001
5.129722e+002, 1.349173e-001
5.149006e+002, 1.396651e-001
5.168291e+002, 1.457047e-001
5.187576e+002, 1.532591e-001
5.206860e+002, 1.607478e-001
5.226145e+002, 1.683045e-001
5.245430e+002, 1.758162e-001
5.264714e+002, 1.828102e-001
5.283999e+002, 1.889181e-001
5.303284e+002, 1.942781e-001
5.322568e+002, 1.997319e-001
5.341853e+002, 2.043003e-001
5.361138e+002, 2.071567e-001
5.380422e+002, 2.095256e-001
5.399707e+002, 2.109012e-001
5.418992e+002, 2.119363e-001
5.438276e+002, 2.139395e-001
5.457561e+002, 2.155566e-001
5.476846e+002, 2.144453e-001
5.496130e+002, 2.125316e-001
5.515415e+002, 2.107429e-001
5.534700e+002, 2.066924e-001
5.553984e+002, 2.015456e-001
5.573269e+002, 1.953339e-001
5.592554e+002, 1.890567e-001
5.611838e+002, 1.831209e-001
5.631123e+002, 1.773092e-001
5.650408e+002, 1.716277e-001
5.669692e+002, 1.665061e-001
5.688977e+002, 1.612488e-001
5.708262e+002, 1.562465e-001
5.727546e+002, 1.518209e-001
5.746831e+002, 1.487246e-001
5.766116e+002, 1.460593e-001
5.785400e+002, 1.429494e-001
5.804685e+002, 1.396940e-001
5.823970e+002, 1.385110e-001
5.843254e+002, 1.377789e-001
5.862539e+002, 1.365258e-001
5.881824e+002, 1.361736e-001
5.901108e+002, 1.375852e-001
5.920393e+002, 1.395564e-001
5.939678e+002, 1.416135e-001
5.958962e+002, 1.442962e-001
5.978247e+002, 1.476307e-001
5.997532e+002, 1.516008e-001
6.016816e+002, 1.563385e-001
6.036101e+002, 1.610042e-001
6.055386e+002, 1.646393e-001
6.074670e+002, 1.658526e-001
6.093955e+002, 1.645389e-001
6.113240e+002, 1.605576e-001
6.132524e+002, 1.555523e-001
6.151809e+002, 1.516193e-001
6.171094e+002, 1.490416e-001
6.190378e+002, 1.485343e-001
6.209663e+002, 1.501651e-001
6.228948e+002, 1.526841e-001
6.248232e+002, 1.555342e-001
6.267517e+002, 1.586178e-001
6.286802e+002, 1.604968e-001
6.306086e+002, 1.614311e-001
6.325371e+002, 1.614663e-001
6.344656e+002, 1.604671e-001
6.363940e+002, 1.578920e-001
6.383225e+002, 1.547271e-001
6.402510e+002, 1.523078e-001
6.421794e+002, 1.493548e-001
6.441079e+002, 1.455160e-001
6.460364e+002, 1.422131e-001
6.479648e+002, 1.392449e-001
6.498933e+002, 1.354313e-001
6.518218e+002, 1.312246e-001
6.537502e+002, 1.265570e-001
6.556787e+002, 1.214849e-001
6.576072e+002, 1.162446e-001
6.595356e+002, 1.110465e-001
6.614641e+002, 1.055619e-001
6.633926e+002, 9.988253e-002
6.653210e+002, 9.498007e-002
6.672495e+002, 9.052539e-002
6.691780e+002, 8.600248e-002
6.711064e+002, 8.195348e-002
6.730349e+002, 7.835053e-002
6.749634e+002, 7.455718e-002
6.768918e+002, 7.147831e-002
6.788203e+002, 6.989924e-002
6.807488e+002, 6.844026e-002
6.826772e+002, 6.791278e-002
6.846057e+002, 6.827521e-002
6.865342e+002, 6.912547e-002
6.884626e+002, 7.063674e-002
6.903911e+002, 7.256871e-002
6.923196e+002, 7.525257e-002
6.942480e+002, 7.933421e-002
6.961765e+002, 8.442041e-002
6.981050e+002, 9.074736e-002
7.000334e+002, 9.871837e-002
7.019619e+002, 1.076061e-001
7.038904e+002, 1.172210e-001
7.058188e+002, 1.273494e-001
7.077473e+002, 1.365636e-001
7.096758e+002, 1.434902e-001
7.116042e+002, 1.473668e-001
7.135327e+002, 1.484186e-001
7.154612e+002, 1.459602e-001
7.173896e+002, 1.404823e-001
7.193181e+002, 1.339210e-001
7.212466e+002, 1.253740e-001
7.231750e+002, 1.145707e-001
7.251035e+002, 1.033597e-001
7.270320e+002, 9.256337e-002
7.289604e+002, 8.193383e-002
7.308889e+002, 7.223572e-002
7.328174e+002, 6.357493e-002
7.347458e+002, 5.609735e-002
7.366743e+002, 5.037162e-002
7.386028e+002, 4.609492e-002
7.405313e+002, 4.268299e-002
7.424597e+002, 4.022364e-002
7.443882e+002, 3.843596e-002
7.463167e+002, 3.707676e-002
7.482451e+002, 3.586094e-002
7.501736e+002, 3.490596e-002
7.521021e+002, 3.414962e-002
7.540305e+002, 3.397021e-002
7.559590e+002, 3.406520e-002
7.578875e+002, 3.420236e-002
7.598159e+002, 3.443146e-002
7.617444e+002, 3.455950e-002
7.636729e+002, 3.457664e-002
7.656013e+002, 3.523968e-002
7.675298e+002, 3.616932e-002
7.694583e+002, 3.731358e-002
7.713867e+002, 3.847530e-002
7.733152e+002, 3.933924e-002
7.752437e+002, 4.036830e-002
7.771721e+002, 4.183237e-002
7.791006e+002, 4.303689e-002
7.810291e+002, 4.419868e-002
7.829575e+002, 4.624696e-002
7.848860e+002, 4.854622e-002
7.868145e+002, 5.057628e-002
7.887429e+002, 5.311078e-002
7.906714e+002, 5.547823e-002
7.925999e+002, 5.777492e-002
7.945283e+002, 6.050039e-002
7.964568e+002, 6.336344e-002
7.983853e+002, 6.673326e-002
8.003137e+002, 7.040659e-002
8.022422e+002, 7.408578e-002
8.041707e+002, 7.774132e-002
8.060991e+002, 8.139436e-002
8.080276e+002, 8.548165e-002
8.099561e+002, 8.974722e-002
8.118845e+002, 9.417028e-002
8.138130e+002, 9.831329e-002
8.157415e+002, 1.023452e-001
8.176699e+002, 1.066624e-001
8.195984e+002, 1.110801e-001
8.215269e+002, 1.145847e-001
8.234553e+002, 1.179871e-001
8.253838e+002, 1.212994e-001
8.273123e+002, 1.236310e-001
8.292407e+002, 1.247841e-001
8.311692e+002, 1.250348e-001
8.330977e+002, 1.245275e-001
8.350261e+002, 1.234689e-001
8.369546e+002, 1.216630e-001
8.388831e+002, 1.184814e-001
8.408115e+002, 1.145288e-001
8.427400e+002, 1.102677e-001
8.446685e+002, 1.057860e-001
8.465969e+002, 1.012615e-001
8.485254e+002, 9.680733e-002
8.504539e+002, 9.246615e-002
8.523823e+002, 8.857549e-002
8.543108e+002, 8.491884e-002
8.562393e+002, 8.141387e-002
8.581677e+002, 7.843980e-002
8.600962e+002, 7.626633e-002
8.620247e+002, 7.450884e-002
8.639531e+002, 7.287164e-002
8.658816e+002, 7.178894e-002
8.678101e+002, 7.164352e-002
8.697385e+002, 7.207624e-002
8.716670e+002, 7.279336e-002
8.735955e+002, 7.403746e-002
8.755239e+002, 7.584151e-002
8.774524e+002, 7.799150e-002
8.793809e+002, 8.035704e-002
8.813093e+002, 8.319718e-002
8.832378e+002, 8.645449e-002
8.851663e+002, 8.995693e-002
8.870947e+002, 9.403857e-002
8.890232e+002, 9.846314e-002
8.909517e+002, 1.033606e-001
8.928801e+002, 1.088013e-001
8.948085e+002, 1.143242e-001
8.967370e+002, 1.199597e-001
8.986655e+002, 1.256427e-001
9.005939e+002, 1.314338e-001
9.025224e+002, 1.382524e-001
9.044509e+002, 1.455875e-001
9.063793e+002, 1.527044e-001
9.083078e+002, 1.599215e-001
9.102363e+002, 1.671634e-001
9.121647e+002, 1.738534e-001
9.140932e+002, 1.799657e-001
9.160217e+002, 1.849694e-001
9.179501e+002, 1.886439e-001
9.198786e+002, 1.910909e-001
9.218071e+002, 1.914976e-001
9.237355e+002, 1.905596e-001
9.256640e+002, 1.883161e-001
9.275925e+002, 1.845763e-001
9.295209e+002, 1.794003e-001
9.314494e+002, 1.734809e-001
9.333779e+002, 1.667962e-001
9.353063e+002, 1.594744e-001
9.372348e+002, 1.515397e-001
9.391633e+002, 1.437231e-001
9.410917e+002, 1.361300e-001
9.430202e+002, 1.292746e-001
9.449487e+002, 1.232152e-001
9.468771e+002, 1.178080e-001
9.488056e+002, 1.136832e-001
9.507341e+002, 1.105767e-001
9.526625e+002, 1.081537e-001
9.545910e+002, 1.064834e-001
9.565195e+002, 1.056943e-001
9.584479e+002, 1.060653e-001
9.603764e+002, 1.070560e-001
9.623049e+002, 1.089722e-001
9.642333e+002, 1.120188e-001
9.661618e+002, 1.156411e-001
9.680903e+002, 1.195972e-001
9.700187e+002, 1.244333e-001
9.719472e+002, 1.302181e-001
9.738757e+002, 1.366009e-001
9.758041e+002, 1.438883e-001
9.777326e+002, 1.515970e-001
9.796611e+002, 1.599171e-001
9.815895e+002, 1.687184e-001
9.835180e+002, 1.783083e-001
9.854465e+002, 1.889704e-001
9.873749e+002, 2.003181e-001
9.893034e+002, 2.125062e-001
9.912319e+002, 2.252278e-001
9.931603e+002, 2.377299e-001
9.950888e+002, 2.491916e-001
9.970173e+002, 2.592013e-001
9.989457e+002, 2.672666e-001
1.000874e+003, 2.733428e-001
1.002803e+003, 2.767858e-001
1.004731e+003, 2.775151e-001
1.006660e+003, 2.770157e-001
1.008588e+003, 2.756591e-001
1.010517e+003, 2.734074e-001
1.012445e+003, 2.696677e-001
1.014373e+003, 2.646200e-001
1.016302e+003, 2.582146e-001
1.018230e+003, 2.500348e-001
1.020159e+003, 2.405735e-001
1.022087e+003, 2.308564e-001
1.024016e+003, 2.206627e-001
1.025944e+003, 2.104379e-001
1.027873e+003, 2.003329e-001
1.029801e+003, 1.901263e-001
1.031730e+003, 1.808402e-001
1.033658e+003, 1.723702e-001
1.035587e+003, 1.647300e-001
1.037515e+003, 1.579592e-001
1.039444e+003, 1.517264e-001
1.041372e+003, 1.463981e-001
1.043301e+003, 1.421425e-001
1.045229e+003, 1.387214e-001
1.047157e+003, 1.361517e-001
1.049086e+003, 1.352184e-001
1.051014e+003, 1.359320e-001
1.052943e+003, 1.382577e-001
1.054871e+003, 1.421431e-001
1.056800e+003, 1.473089e-001
1.058728e+003, 1.538658e-001
1.060657e+003, 1.610778e-001
1.062585e+003, 1.681969e-001
1.064514e+003, 1.737912e-001
1.066442e+003, 1.777653e-001
1.068371e+003, 1.804637e-001
1.070299e+003, 1.814628e-001
1.072228e+003, 1.811763e-001
1.074156e+003, 1.802303e-001
1.076084e+003, 1.783129e-001
1.078013e+003, 1.754635e-001
1.079941e+003, 1.722882e-001
1.081870e+003, 1.683498e-001
1.083798e+003, 1.640324e-001
1.085727e+003, 1.597256e-001
1.087655e+003, 1.548221e-001
1.089584e+003, 1.497886e-001
1.091512e+003, 1.452931e-001
1.093441e+003, 1.413637e-001
1.095369e+003, 1.384517e-001
1.097298e+003, 1.371783e-001
1.099226e+003, 1.369026e-001
1.101155e+003, 1.369569e-001
1.103083e+003, 1.366820e-001
1.105011e+003, 1.351483e-001
1.106940e+003, 1.331035e-001
1.108868e+003, 1.308467e-001
1.110797e+003, 1.284328e-001
1.112725e+003, 1.267782e-001
1.114654e+003, 1.257528e-001
1.116582e+003, 1.247972e-001
1.118511e+003, 1.242512e-001
1.120439e+003, 1.245834e-001
1.122368e+003, 1.260756e-001
1.124296e+003, 1.285300e-001
1.126225e+003, 1.318175e-001
1.128153e+003, 1.359935e-001
1.130082e+003, 1.409051e-001
1.132010e+003, 1.467850e-001
1.133938e+003, 1.536852e-001
1.135867e+003, 1.609215e-001
1.137795e+003, 1.682670e-001
1.139724e+003, 1.745541e-001
1.141652e+003, 1.795790e-001
1.143581e+003, 1.834358e-001
1.145509e+003, 1.853627e-001
1.147438e+003, 1.854430e-001
1.149366e+003, 1.843025e-001
1.151295e+003, 1.823848e-001
1.153223e+003, 1.792610e-001
1.155152e+003, 1.761976e-001
1.157080e+003, 1.728142e-001
1.159009e+003, 1.691168e-001
1.160937e+003, 1.653738e-001
1.162865e+003, 1.615064e-001
1.164794e+003, 1.577919e-001
1.166722e+003, 1.544691e-001
1.168651e+003, 1.515830e-001
1.170579e+003, 1.485655e-001
1.172508e+003, 1.454570e-001
1.174436e+003, 1.425988e-001
1.176365e+003, 1.395518e-001
1.178293e+003, 1.366688e-001
1.180222e+003, 1.339031e-001
1.182150e+003, 1.314951e-001
1.184079e+003, 1.288951e-001
1.186007e+003, 1.265468e-001
1.187936e+003, 1.246724e-001
1.189864e+003, 1.227157e-001
1.191792e+003, 1.208461e-001
1.193721e+003, 1.188270e-001
1.195649e+003, 1.165143e-001
1.197578e+003, 1.141528e-001
1.199506e+003, 1.115068e-001
1.201435e+003, 1.088129e-001
1.203363e+003, 1.059123e-001
1.205292e+003, 1.024244e-001
1.207220e+003, 9.871683e-002
1.209149e+003, 9.486008e-002
1.211077e+003, 9.081732e-002
1.213006e+003, 8.667358e-002
1.214934e+003, 8.273315e-002
1.216863e+003, 7.840497e-002
1.218791e+003, 7.369423e-002
1.220719e+003, 6.872281e-002
1.222648e+003, 6.368013e-002
1.224576e+003, 5.880355e-002
1.226505e+003, 5.412798e-002
1.228433e+003, 4.916539e-002
1.230362e+003, 4.428349e-002
1.232290e+003, 3.981121e-002
1.234219e+003, 3.568032e-002
1.236147e+003, 3.150303e-002
1.238076e+003, 2.766347e-002
1.240004e+003, 2.437028e-002
1.241933e+003, 2.113461e-002
1.243861e+003, 1.862055e-002
1.245790e+003, 1.685263e-002
1.247718e+003, 1.504446e-002
1.249646e+003, 1.349375e-002
1.251575e+003, 1.241814e-002
1.253503e+003, 1.125342e-002
1.255432e+003, 1.026173e-002
1.257360e+003, 9.627126e-003
1.259289e+003, 9.172444e-003
1.261217e+003, 8.853254e-003
1.263146e+003, 8.427707e-003
1.265074e+003, 8.179875e-003
1.267003e+003, 7.699137e-003
1.268931e+003, 7.349622e-003
1.270860e+003, 7.187306e-003
1.272788e+003, 6.975530e-003
1.274717e+003, 6.675954e-003
1.276645e+003, 6.504598e-003
1.278573e+003, 6.334293e-003
1.280502e+003, 6.280938e-003
1.282430e+003, 6.174420e-003
1.284359e+003, 6.096919e-003
1.286287e+003, 6.072122e-003
1.288216e+003, 5.761012e-003
1.290144e+003, 5.568147e-003
1.292073e+003, 5.299894e-003
1.294001e+003, 5.262793e-003
1.295930e+003, 5.477032e-003
1.297858e+003, 5.306435e-003
1.299787e+003, 4.765372e-003
1.301715e+003, 4.677889e-003
1.303644e+003, 4.791797e-003
1.305572e+003, 4.732882e-003
1.307500e+003, 4.397698e-003
1.309429e+003, 4.326492e-003
1.311357e+003, 4.412246e-003
1.313286e+003, 4.305211e-003
1.315214e+003, 4.115120e-003
1.317143e+003, 4.062737e-003
1.319071e+003, 3.989900e-003
1.321000e+003, 4.052549e-003
1.322928e+003, 4.075461e-003
1.324857e+003, 4.195475e-003
1.326785e+003, 4.129228e-003
1.328714e+003, 4.042385e-003
1.330642e+003, 4.198164e-003
1.332571e+003, 4.343028e-003
1.334499e+003, 4.105228e-003
1.336427e+003, 3.864954e-003
1.338356e+003, 3.691056e-003
1.340284e+003, 3.663616e-003
1.342213e+003, 3.568513e-003
1.344141e+003, 3.643683e-003
1.346070e+003, 3.799098e-003
1.347998e+003, 3.694770e-003
1.349927e+003, 3.507752e-003
1.351855e+003, 3.517855e-003
1.353784e+003, 3.421349e-003
1.355712e+003, 3.583975e-003
1.357641e+003, 3.564182e-003
1.359569e+003, 3.323156e-003
1.361498e+003, 3.103530e-003
1.363426e+003, 2.803188e-003
1.365354e+003, 2.825244e-003
1.367283e+003, 3.036068e-003
1.369211e+003, 3.180177e-003
1.371140e+003, 3.178535e-003
1.373068e+003, 2.974930e-003
1.374997e+003, 2.754565e-003
1.376925e+003, 2.438272e-003
1.378854e+003, 2.847486e-003
1.380782e+003, 3.268965e-003
1.382711e+003, 3.145161e-003
1.384639e+003, 3.083231e-003
1.386568e+003, 3.046474e-003
1.388496e+003, 3.003455e-003
1.390424e+003, 2.898831e-003
1.392353e+003, 3.208880e-003
1.394281e+003, 3.338458e-003
1.396210e+003, 3.161822e-003
1.398138e+003, 3.127958e-003
1.400067e+003, 2.927930e-003
1.401995e+003, 2.878612e-003
1.403924e+003, 3.015089e-003
1.405852e+003, 3.137912e-003
1.407781e+003, 3.134433e-003
1.409709e+003, 3.050421e-003
1.411638e+003, 3.191117e-003
1.413566e+003, 3.238040e-003
1.415495e+003, 2.933520e-003
1.417423e+003, 2.980413e-003
1.419351e+003, 3.042550e-003
1.421280e+003, 2.880735e-003
1.423208e+003, 2.816329e-003
1.425137e+003, 2.922521e-003
1.427065e+003, 2.954839e-003
1.428994e+003, 3.029627e-003
1.430922e+003, 3.020280e-003
1.432851e+003, 2.872612e-003
1.434779e+003, 2.697165e-003
1.436708e+003, 2.491798e-003
1.438636e+003, 2.537499e-003
1.440565e+003, 2.804597e-003
1.442493e+003, 2.813536e-003
1.444422e+003, 2.581198e-003
1.446350e+003, 2.466904e-003
1.448278e+003, 2.232440e-003
1.450207e+003, 2.116653e-003
1.452135e+003, 2.186576e-003
1.454064e+003, 2.041509e-003
1.455992e+003, 2.235519e-003
1.457921e+003, 2.261023e-003
1.459849e+003, 1.904794e-003
1.461778e+003, 1.803503e-003
1.463706e+003, 1.880738e-003
1.465635e+003, 1.983023e-003
1.467563e+003, 2.092270e-003
1.469492e+003, 2.527198e-003
1.471420e+003, 2.784260e-003
1.473349e+003, 2.919326e-003
1.475277e+003, 3.192891e-003
1.477205e+003, 3.524953e-003
1.479134e+003, 3.753619e-003
1.481062e+003, 3.774407e-003
1.482991e+003, 3.548393e-003
1.484919e+003, 3.407918e-003
1.486848e+003, 3.593537e-003
1.488776e+003, 3.746036e-003
1.490705e+003, 3.642594e-003
1.492633e+003, 3.721069e-003
1.494562e+003, 3.903111e-003
1.496490e+003, 3.795470e-003
1.498419e+003, 3.568683e-003
1.500347e+003, 3.725100e-003
1.502276e+003, 4.275690e-003
1.504204e+003, 4.346251e-003
1.506132e+003, 4.149699e-003
1.508061e+003, 4.065257e-003
1.509989e+003, 4.154233e-003
1.511918e+003, 4.218122e-003
1.513846e+003, 4.417740e-003
1.515775e+003, 4.639861e-003
1.517703e+003, 4.664857e-003
1.519632e+003, 4.400712e-003
1.521560e+003, 4.264965e-003
1.523489e+003, 4.316656e-003
1.525417e+003, 4.666424e-003
1.527346e+003, 4.638688e-003
1.529274e+003, 4.510409e-003
1.531203e+003, 4.502356e-003
1.533131e+003, 4.424105e-003
1.535059e+003, 4.262209e-003
1.536988e+003, 4.498398e-003
1.538916e+003, 4.825786e-003
1.540845e+003, 4.967505e-003
1.542773e+003, 4.721938e-003
1.544702e+003, 4.272654e-003
1.546630e+003, 4.243383e-003
1.548559e+003, 4.585213e-003
1.550487e+003, 4.794027e-003
1.552416e+003, 4.940864e-003
1.554344e+003, 5.019482e-003
1.556273e+003, 5.142921e-003
1.558201e+003, 5.488783e-003
1.560130e+003, 5.139050e-003
1.562058e+003, 4.515811e-003
1.563986e+003, 4.389728e-003
1.565915e+003, 4.400886e-003
1.567843e+003, 4.762468e-003
1.569772e+003, 5.182027e-003
1.571700e+003, 5.004497e-003
1.573629e+003, 4.967778e-003
1.575557e+003, 5.050593e-003
1.577486e+003, 4.832498e-003
1.579414e+003, 4.578156e-003
1.581343e+003, 4.677326e-003
1.583271e+003, 4.840025e-003
1.585200e+003, 4.867713e-003
1.587128e+003, 5.053780e-003
1.589057e+003, 5.150199e-003
1.590985e+003, 5.017632e-003
1.592913e+003, 5.158126e-003
1.594842e+003, 4.952671e-003
1.596770e+003, 4.637787e-003
1.598699e+003, 5.055566e-003
1.600627e+003, 5.344169e-003
1.602556e+003, 5.126387e-003
1.604484e+003, 5.100048e-003
1.606413e+003, 5.253161e-003
1.608341e+003, 5.129111e-003
1.610270e+003, 4.836755e-003
1.612198e+003, 4.991237e-003
1.614127e+003, 5.400881e-003
1.616055e+003, 5.570584e-003
1.617984e+003, 5.685423e-003
1.619912e+003, 5.545143e-003
1.621840e+003, 5.494387e-003
1.623769e+003, 5.671094e-003
1.625697e+003, 5.232160e-003
1.627626e+003, 5.289929e-003
1.629554e+003, 5.519649e-003
1.631483e+003, 5.172634e-003
1.633411e+003, 5.367024e-003
1.635340e+003, 5.690804e-003
1.637268e+003, 5.647698e-003
1.639197e+003, 5.560904e-003
1.641125e+003, 5.502617e-003
1.643054e+003, 5.530150e-003
1.644982e+003, 5.627884e-003
1.646911e+003, 5.673038e-003
1.648839e+003, 5.740919e-003
1.650767e+003, 5.523813e-003
1.652696e+003, 5.455992e-003
1.654624e+003, 5.435787e-003
1.656553e+003, 5.346506e-003
1.658481e+003, 5.316691e-003
1.660410e+003, 5.179173e-003
1.662338e+003, 4.802332e-003
1.664267e+003, 4.718646e-003
1.666195e+003, 4.651099e-003
1.668124e+003, 4.617321e-003
1.670052e+003, 4.750478e-003
1.671981e+003, 4.657045e-003
1.673909e+003, 4.955588e-003
1.675838e+003, 5.072561e-003
1.677766e+003, 4.903034e-003
1.679694e+003, 4.741997e-003
1.681623e+003, 4.363602e-003
1.683551e+003, 4.341334e-003
1.685480e+003, 4.489185e-003
1.687408e+003, 4.570493e-003
1.689337e+003, 4.425233e-003
1.691265e+003, 4.105566e-003
1.693194e+003, 4.218406e-003
1.695122e+003, 4.602748e-003
1.697051e+003, 4.597913e-003
1.698979e+003, 4.360334e-003
1.700908e+003, 4.329002e-003
1.702836e+003, 3.961701e-003
1.704765e+003, 3.615484e-003
1.706693e+003, 3.573546e-003
1.708621e+003, 3.063048e-003
1.710550e+003, 2.673120e-003
1.712478e+003, 2.903041e-003
1.714407e+003, 3.357534e-003
1.716335e+003, 3.235072e-003
1.718264e+003, 2.795403e-003
1.720192e+003, 2.777773e-003
1.722121e+003, 2.766626e-003
1.724049e+003, 2.524193e-003
1.725978e+003, 2.529197e-003
1.727906e+003, 2.565399e-003
1.729835e+003, 2.171012e-003
1.731763e+003, 1.677144e-003
1.733692e+003, 1.061225e-003
1.735620e+003, 4.431727e-004
1.737548e+003, 2.978787e-004
1.739477e+003, 9.158900e-005
1.741405e+003, 2.266211e-004
1.743334e+003, 2.440910e-004
1.745262e+003, -1.490071e-004
1.747191e+003, 6.437806e-005
1.749119e+003, 2.632790e-004
1.751048e+003, 9.465934e-004
1.752976e+003, 1.465047e-003
1.754905e+003, 2.042126e-003
1.756833e+003, 2.562146e-003
1.758762e+003, 2.770862e-003
1.760690e+003, 2.989866e-003
1.762619e+003, 3.680669e-003
1.764547e+003, 4.534374e-003
1.766475e+003, 4.647143e-003
1.768404e+003, 4.583660e-003
1.770332e+003, 4.997821e-003
1.772261e+003, 5.151574e-003
1.774189e+003, 4.859557e-003
1.776118e+003, 4.579973e-003
1.778046e+003, 4.950400e-003
1.779975e+003, 5.379279e-003
1.781903e+003, 5.309367e-003
1.783832e+003, 5.378020e-003
1.785760e+003, 5.211245e-003
1.787689e+003, 4.832694e-003
1.789617e+003, 5.036149e-003
1.791546e+003, 5.650696e-003
1.793474e+003, 5.310576e-003
1.795402e+003, 4.886113e-003
1.797331e+003, 5.027766e-003
1.799259e+003, 4.935725e-003
1.801188e+003, 4.989423e-003
1.803116e+003, 5.215402e-003
1.805045e+003, 5.455224e-003
1.806973e+003, 5.002015e-003
1.808902e+003, 4.199126e-003
1.810830e+003, 3.875039e-003
1.812759e+003, 3.703596e-003
1.814687e+003, 3.565219e-003
1.816616e+003, 3.746311e-003
1.818544e+003, 3.781286e-003
1.820473e+003, 3.383984e-003
1.822401e+003, 3.487574e-003
1.824329e+003, 2.831635e-003
1.826258e+003, 2.066670e-003
1.828186e+003, 3.120902e-003
1.830115e+003, 4.113589e-003
1.832043e+003, 3.602916e-003
1.833972e+003, 2.685497e-003
1.835900e+003, 2.452939e-003
1.837829e+003, 2.646237e-003
1.839757e+003, 3.658380e-003
1.841686e+003, 3.485499e-003
1.843614e+003, 2.700413e-003
1.845543e+003, 2.587711e-003
1.847471e+003, 2.363652e-003
1.849400e+003, 2.047211e-003
1.851328e+003, 1.749597e-003
1.853256e+003, 1.722557e-003
1.855185e+003, 2.062859e-003
1.857113e+003, 2.419560e-003
1.859042e+003, 3.149644e-003
1.860970e+003, 2.999965e-003
1.862899e+003, 2.873289e-003
1.864827e+003, 3.111560e-003
1.866756e+003, 2.566325e-003
1.868684e+003, 1.861564e-003
1.870613e+003, 2.545202e-003
1.872541e+003, 3.045085e-003
1.874470e+003, 2.931277e-003
1.876398e+003, 2.856737e-003
1.878327e+003, 3.066987e-003
1.880255e+003, 2.898245e-003
1.882183e+003, 2.905536e-003
1.884112e+003, 3.040340e-003
1.886040e+003, 2.929050e-003
1.887969e+003, 3.312204e-003
1.889897e+003, 3.353815e-003
1.891826e+003, 3.353462e-003
1.893754e+003, 3.399157e-003
1.895683e+003, 4.426973e-003
1.897611e+003, 4.696262e-003
1.899540e+003, 3.932055e-003
1.901468e+003, 4.172080e-003
1.903397e+003, 4.432306e-003
1.905325e+003, 4.290637e-003
1.907254e+003, 4.744085e-003
1.909182e+003, 4.803854e-003
1.911110e+003, 3.577396e-003
1.913039e+003, 3.527532e-003
1.914967e+003, 3.690915e-003
1.916896e+003, 4.102969e-003
1.918824e+003, 4.992798e-003
1.920753e+003, 4.725756e-003
1.922681e+003, 3.791277e-003
1.924610e+003, 2.692113e-003
1.926538e+003, 2.586654e-003
1.928467e+003, 3.224224e-003
1.930395e+003, 3.659618e-003
1.932324e+003, 2.388994e-003
1.934252e+003, 2.093979e-003
1.936181e+003, 2.654623e-003
1.938109e+003, 2.292211e-003
1.940037e+003, 1.903589e-003
1.941966e+003, 1.551502e-003
1.943894e+003, 1.571239e-003
1.945823e+003, 2.259960e-003
1.947751e+003, 3.335768e-003
1.949680e+003, 1.532812e-003
1.951608e+003, 5.435515e-004
1.953537e+003, 7.809211e-004
1.955465e+003, -4.036475e-005
1.957394e+003, -1.000339e-003
1.959322e+003, -6.363700e-004
1.961251e+003, -3.768998e-005
1.963179e+003, -1.978027e-003
1.965108e+003, -2.994967e-003
1.967036e+003, -1.032023e-003
1.968964e+003, 7.052061e-004
1.970893e+003, -2.001044e-003
1.972821e+003, -3.429824e-003
1.974750e+003, -2.480775e-003
1.976678e+003, -1.001691e-003
1.978607e+003, -1.348544e-003
1.980535e+003, -2.086514e-003
1.982464e+003, -3.315243e-004
1.984392e+003, 1.303248e-003
1.986321e+003, 8.684029e-004
1.988249e+003, 2.586786e-004
1.990178e+003, -1.277090e-003
1.992106e+003, -1.204374e-003
1.994035e+003, 9.375180e-004
1.995963e+003, 2.039003e-003
1.997891e+003, -3.767185e-004
1.999820e+003, 4.099942e-004
2.001748e+003, 2.246244e-003
2.003677e+003, -5.215356e-004
2.005605e+003, -3.851376e-003
2.007534e+003, -4.223009e-003
2.009462e+003, -1.627667e-003
2.011391e+003, -8.208866e-004
2.013319e+003, -1.133192e-003
2.015248e+003, 4.354034e-004
2.017176e+003, 1.765545e-003
2.019105e+003, 8.310377e-004
2.021033e+003, -2.421125e-003
2.022962e+003, -5.336752e-003
2.024890e+003, -6.222061e-003
2.026818e+003, -4.608430e-003
2.028747e+003, -2.941363e-003
2.030675e+003, -3.532885e-003
2.032604e+003, -4.215423e-003
2.034532e+003, -2.745208e-003
2.036461e+003, -2.393848e-003
2.038389e+003, -2.522200e-003
2.040318e+003, -1.980474e-003
2.042246e+003, -2.755751e-003
2.044175e+003, -1.421973e-003
2.046103e+003, -1.949291e-003
2.048032e+003, -2.025336e-003
2.049960e+003, 6.998868e-004
2.051889e+003, 3.693159e-004
2.053817e+003, 2.729273e-004
2.055746e+003, -4.228269e-004
2.057674e+003, -4.003259e-004
2.059603e+003, 1.737651e-003
2.061531e+003, 2.806546e-003
2.063459e+003, 2.112066e-003
2.065388e+003, 1.224173e-003
2.067316e+003, 1.108100e-003
2.069245e+003, 2.784752e-004
2.071173e+003, -1.391489e-003
2.073102e+003, -1.744346e-003
2.075030e+003, -1.155703e-003
2.076959e+003, -2.449889e-005
2.078887e+003, 8.619865e-004
2.080816e+003, 2.094794e-003
2.082744e+003, 2.960318e-003
2.084673e+003, 3.208831e-003
2.086601e+003, 3.590363e-003
2.088530e+003, 1.885968e-003
2.090458e+003, 1.658201e-003
2.092386e+003, 1.532010e-003
2.094315e+003, -4.213268e-004
2.096243e+003, -4.407369e-004
2.098172e+003, 7.519703e-004
2.100100e+003, 1.377706e-003
2.102029e+003, 2.444597e-003
2.103957e+003, 2.504438e-003
2.105886e+003, 1.919471e-003
2.107814e+003, 1.391720e-003
2.109743e+003, 2.177308e-003
2.111671e+003, 2.422628e-003
2.113600e+003, 5.398260e-004
2.115528e+003, 9.168222e-004
2.117457e+003, 2.746718e-003
2.119385e+003, 1.847827e-003
2.121313e+003, -3.073168e-004
2.123242e+003, -1.665476e-003
2.125170e+003, -1.568087e-003
2.127099e+003, -2.255263e-003
2.129027e+003, -2.555071e-003
2.130956e+003, -3.558249e-003
2.132884e+003, -3.401083e-003
2.134813e+003, -2.080808e-003
2.136741e+003, -3.544423e-003
2.138670e+003, -2.612010e-003
2.140598e+003, -3.688378e-003
2.142527e+003, -4.254096e-003
2.144455e+003, -1.719067e-003
2.146384e+003, -2.416312e-003
2.148312e+003, -3.820208e-003
2.150240e+003, -3.775387e-003
2.152169e+003, -4.714024e-003
2.154097e+003, -7.308407e-003
2.156026e+003, -8.429542e-003
2.157954e+003, -7.398393e-003
2.159883e+003, -4.486012e-003
2.161811e+003, -4.403470e-003
2.163740e+003, -4.306420e-003
2.165668e+003, -3.607490e-003
2.167597e+003, -2.675700e-003
2.169525e+003, -1.641791e-003
2.171454e+003, -9.082787e-004
2.173382e+003, -4.208401e-003
2.175311e+003, -6.581207e-003
2.177239e+003, -6.808598e-003
2.179167e+003, -5.802230e-003
2.181096e+003, -3.672928e-003
2.183024e+003, -7.527539e-004
2.184953e+003, -1.305059e-003
2.186881e+003, -3.190132e-003
2.188810e+003, -2.316496e-003
2.190738e+003, -2.725289e-004
2.192667e+003, -3.544753e-004
2.194595e+003, -4.086541e-005
2.196524e+003, 7.765843e-004
2.198452e+003, -1.342001e-003
2.200381e+003, -1.179207e-003
2.202309e+003, 2.308680e-003
2.204238e+003, 3.058706e-003
2.206166e+003, 1.117168e-003
2.208094e+003, 1.298060e-003
2.210023e+003, 7.993857e-004
2.211951e+003, 1.803125e-004
2.213880e+003, 1.681000e-003
2.215808e+003, 1.725564e-003
2.217737e+003, 1.353765e-003
2.219665e+003, 2.096883e-003
2.221594e+003, 2.246774e-003
2.223522e+003, 2.565058e-003
2.225451e+003, 3.883766e-003
2.227379e+003, 3.580187e-003
2.229308e+003, 9.642832e-004
2.231236e+003, -4.265659e-005
2.233165e+003, 2.050584e-004
2.235093e+003, 2.575327e-004
2.237021e+003, 1.037144e-003
2.238950e+003, 1.191778e-003
2.240878e+003, 8.399741e-004
2.242807e+003, -1.709055e-004
2.244735e+003, 5.426580e-004
2.246664e+003, 7.295250e-006
2.248592e+003, -4.618215e-004
2.250521e+003, 2.589373e-004
2.252449e+003, 7.628201e-004
2.254378e+003, 3.882007e-004
2.256306e+003, 2.594257e-003
2.258235e+003, 4.435356e-003
2.260163e+003, 6.044839e-003
2.262092e+003, 5.416035e-003
2.264020e+003, 2.881988e-003
2.265948e+003, 2.212917e-003
2.267877e+003, 1.967127e-003
2.269805e+003, 1.835576e-003
2.271734e+003, 1.782538e-003
2.273662e+003, 2.510962e-003
2.275591e+003, 3.019080e-003
2.277519e+003, 2.826744e-003
2.279448e+003, 2.324891e-003
2.281376e+003, 1.626848e-003
2.283305e+003, 2.842423e-003
2.285233e+003, 3.168365e-003
2.287162e+003, 2.649263e-003
2.289090e+003, 2.955360e-003
2.291019e+003, 2.166267e-003
2.292947e+003, 2.497984e-003
2.294875e+003, 2.978159e-003
2.296804e+003, 3.295649e-003
2.298732e+003, 3.604137e-003
2.300661e+003, 3.712897e-003
2.302589e+003, 3.993950e-003
2.304518e+003, 4.106547e-003
2.306446e+003, 4.120189e-003
2.308375e+003, 4.352297e-003
2.310303e+003, 4.597527e-003
2.312232e+003, 4.540179e-003
2.314160e+003, 4.529178e-003
2.316089e+003, 4.420795e-003
2.318017e+003, 5.108200e-003
2.319946e+003, 6.000329e-003
2.321874e+003, 6.536137e-003
2.323802e+003, 7.307999e-003
2.325731e+003, 6.198259e-003
2.327659e+003, 4.449929e-003
2.329588e+003, 4.721050e-003
2.331516e+003, 5.769792e-003
2.333445e+003, 5.767177e-003
2.335373e+003, 5.527145e-003
2.337302e+003, 5.729200e-003
2.339230e+003, 5.746789e-003
2.341159e+003, 5.529762e-003
2.343087e+003, 6.130396e-003
2.345016e+003, 6.097531e-003
2.346944e+003, 5.405435e-003
2.348873e+003, 4.300468e-003
2.350801e+003, 4.037927e-003
2.352729e+003, 4.624554e-003
2.354658e+003, 4.570507e-003
2.356586e+003, 4.678806e-003
2.358515e+003, 5.604623e-003
2.360443e+003, 6.133554e-003
2.362372e+003, 5.818361e-003
2.364300e+003, 5.843753e-003
2.366229e+003, 5.637774e-003
2.368157e+003, 4.353742e-003
2.370086e+003, 3.228736e-003
2.372014e+003, 4.079020e-003
2.373942e+003, 5.382692e-003
2.375871e+003, 4.609547e-003
2.377799e+003, 3.840075e-003
2.379728e+003, 4.094659e-003
2.381656e+003, 4.169443e-003
2.383585e+003, 4.165048e-003
2.385513e+003, 3.911084e-003
2.387442e+003, 3.755289e-003
2.389370e+003, 3.788120e-003
2.391299e+003, 3.920570e-003
2.393227e+003, 4.381914e-003
2.395156e+003, 4.910059e-003
2.397084e+003, 4.281703e-003
2.399012e+003, 2.958564e-003
2.400941e+003, 1.956448e-003
2.402869e+003, 3.174766e-003
2.404798e+003, 4.102278e-003
2.406726e+003, 3.273052e-003
2.408655e+003, 2.620679e-003
2.410583e+003, 3.789766e-003
2.412512e+003, 4.380218e-003
2.414440e+003, 2.766452e-003
2.416369e+003, 2.850786e-003
2.418297e+003, 4.350652e-003
2.420226e+003, 5.439430e-003
2.422154e+003, 5.011128e-003
2.424083e+003, 4.773924e-003
2.426011e+003, 4.990839e-003
2.427939e+003, 5.020996e-003
2.429868e+003, 5.021990e-003
2.431796e+003, 3.825299e-003
2.433725e+003, 3.409432e-003
2.435653e+003, 3.669792e-003
2.437582e+003, 3.598785e-003
2.439510e+003, 4.204746e-003
2.441439e+003, 5.345954e-003
2.443367e+003, 5.539699e-003
2.445296e+003, 4.617695e-003
2.447224e+003, 4.304664e-003
2.449153e+003, 3.872230e-003
2.451081e+003, 4.532455e-003
2.453010e+003, 5.700221e-003
2.454938e+003, 6.050680e-003
2.456866e+003, 6.631458e-003
2.458795e+003, 5.687864e-003
2.460723e+003, 5.301568e-003
2.462652e+003, 5.573087e-003
2.464580e+003, 5.782691e-003
2.466509e+003, 6.351120e-003
2.468437e+003, 6.422896e-003
2.470366e+003, 6.305556e-003
2.472294e+003, 6.241100e-003
2.474223e+003, 6.907656e-003
2.476151e+003, 6.934841e-003
2.478080e+003, 7.249360e-003
2.480008e+003, 8.393278e-003
2.481937e+003, 8.627584e-003
2.483865e+003, 8.047326e-003
2.485793e+003, 7.060083e-003
2.487722e+003, 6.255173e-003
2.489650e+003, 6.352124e-003
2.491579e+003, 6.645074e-003
2.493507e+003, 6.733516e-003
2.495436e+003, 5.924006e-003
2.497364e+003, 5.740150e-003
2.499293e+003, 7.535792e-003
2.501221e+003, 8.061810e-003
2.503150e+003, 6.488937e-003
2.505078e+003, 5.930539e-003
2.507007e+003, 7.228867e-003
2.508935e+003, 7.501499e-003
2.510864e+003, 6.894828e-003
2.512792e+003, 7.139195e-003
2.514720e+003, 7.249766e-003
2.516649e+003, 7.108605e-003
2.518577e+003, 6.721866e-003
2.520506e+003, 6.102684e-003
2.522434e+003, 5.413105e-003
2.524363e+003, 5.834663e-003
2.526291e+003, 6.220737e-003
2.528220e+003, 7.182605e-003
2.530148e+003, 8.326257e-003
2.532077e+003, 8.532295e-003
2.534005e+003, 9.109929e-003
2.535934e+003, 8.753710e-003
2.537862e+003, 7.330704e-003
2.539791e+003, 7.289344e-003
2.541719e+003, 7.501835e-003
2.543647e+003, 8.640342e-003
2.545576e+003, 9.365269e-003
2.547504e+003, 9.336356e-003
2.549433e+003, 8.015615e-003
2.551361e+003, 6.730432e-003
2.553290e+003, 6.793996e-003
2.555218e+003, 7.941705e-003
2.557147e+003, 8.204252e-003
2.559075e+003, 7.957451e-003
2.561004e+003, 7.183415e-003
2.562932e+003, 7.060370e-003
2.564861e+003, 7.490480e-003
2.566789e+003, 8.037203e-003
2.568718e+003, 7.937887e-003
2.570646e+003, 7.763800e-003
2.572574e+003, 7.546390e-003
2.574503e+003, 7.776909e-003
2.576431e+003, 8.397284e-003
2.578360e+003, 7.753375e-003
2.580288e+003, 7.981737e-003
2.582217e+003, 9.335017e-003
2.584145e+003, 9.235365e-003
2.586074e+003, 8.581184e-003
2.588002e+003, 8.240965e-003
2.589931e+003, 7.552724e-003
2.591859e+003, 8.288370e-003
2.593788e+003, 9.428412e-003
2.595716e+003, 9.141187e-003
2.597645e+003, 8.265600e-003
2.599573e+003, 8.464464e-003
2.601501e+003, 9.280620e-003
2.603430e+003, 9.645193e-003
2.605358e+003, 9.114573e-003
2.607287e+003, 8.781464e-003
2.609215e+003, 8.822201e-003
2.611144e+003, 9.009401e-003
2.613072e+003, 9.307232e-003
2.615001e+003, 8.917124e-003
2.616929e+003, 7.799421e-003
2.618858e+003, 7.526840e-003
2.620786e+003, 7.314131e-003
2.622715e+003, 7.713944e-003
2.624643e+003, 8.354136e-003
2.626572e+003, 8.233162e-003
2.628500e+003, 8.154381e-003
2.630428e+003, 8.522519e-003
2.632357e+003, 8.832675e-003
2.634285e+003, 9.695156e-003
2.636214e+003, 9.435982e-003
2.638142e+003, 8.976566e-003
2.640071e+003, 8.694779e-003
2.641999e+003, 8.728474e-003
2.643928e+003, 9.236610e-003
2.645856e+003, 9.378836e-003
2.647785e+003, 9.111861e-003
2.649713e+003, 8.775457e-003
2.651642e+003, 9.199525e-003
2.653570e+003, 8.997425e-003
2.655499e+003, 8.274738e-003
2.657427e+003, 8.464075e-003
2.659355e+003, 9.194668e-003
2.661284e+003, 8.711510e-003
2.663212e+003, 7.814400e-003
2.665141e+003, 7.383081e-003
2.667069e+003, 7.870025e-003
2.668998e+003, 8.801719e-003
2.670926e+003, 9.553896e-003
2.672855e+003, 9.603745e-003
2.674783e+003, 8.760343e-003
2.676712e+003, 7.718294e-003
2.678640e+003, 7.866548e-003
2.680569e+003, 8.758798e-003
2.682497e+003, 8.908214e-003
2.684426e+003, 8.690389e-003
2.686354e+003, 8.397155e-003
2.688282e+003, 8.190571e-003
2.690211e+003, 7.661211e-003
2.692139e+003, 7.815221e-003
2.694068e+003, 8.165769e-003
2.695996e+003, 8.278666e-003
2.697925e+003, 8.017867e-003
2.699853e+003, 7.431078e-003
2.701782e+003, 8.134071e-003
2.703710e+003, 9.087278e-003
2.705639e+003, 8.722520e-003
2.707567e+003, 8.281298e-003
2.709496e+003, 8.265258e-003
2.711424e+003, 8.590730e-003
2.713353e+003, 9.639538e-003
2.715281e+003, 9.737791e-003
2.717209e+003, 8.866143e-003
2.719138e+003, 7.920532e-003
2.721066e+003, 8.546759e-003
2.722995e+003, 9.802301e-003
2.724923e+003, 9.625084e-003
2.726852e+003, 8.500436e-003
2.728780e+003, 8.510678e-003
2.730709e+003, 8.113689e-003
2.732637e+003, 8.688295e-003
2.734566e+003, 9.087502e-003
2.736494e+003, 9.152950e-003
2.738423e+003, 9.637471e-003
2.740351e+003, 9.614018e-003
2.742280e+003, 8.221565e-003
2.744208e+003, 8.664353e-003
2.746136e+003, 1.014422e-002
2.748065e+003, 1.064645e-002
2.749993e+003, 1.074781e-002
2.751922e+003, 1.051509e-002
2.753850e+003, 1.086908e-002
2.755779e+003, 1.028498e-002
2.757707e+003, 9.826331e-003
2.759636e+003, 9.876880e-003
2.761564e+003, 8.928666e-003
2.763493e+003, 8.766239e-003
2.765421e+003, 8.500715e-003
2.767350e+003, 8.080193e-003
2.769278e+003, 8.546282e-003
2.771207e+003, 8.975942e-003
2.773135e+003, 9.106590e-003
2.775063e+003, 9.536810e-003
2.776992e+003, 9.294599e-003
2.778920e+003, 9.611128e-003
2.780849e+003, 1.104949e-002
2.782777e+003, 1.060896e-002
2.784706e+003, 1.020334e-002
2.786634e+003, 1.061301e-002
2.788563e+003, 1.002936e-002
2.790491e+003, 9.374835e-003
2.792420e+003, 8.780551e-003
2.794348e+003, 8.807985e-003
2.796277e+003, 9.286110e-003
2.798205e+003, 9.290082e-003
2.800134e+003, 8.836596e-003
2.802062e+003, 8.622683e-003
2.803990e+003, 9.658981e-003
2.805919e+003, 1.067392e-002
2.807847e+003, 1.096632e-002
2.809776e+003, 1.099483e-002
2.811704e+003, 1.110628e-002
2.813633e+003, 1.113589e-002
2.815561e+003, 1.068576e-002
2.817490e+003, 1.014162e-002
2.819418e+003, 1.082368e-002
2.821347e+003, 1.095750e-002
2.823275e+003, 1.090267e-002
2.825204e+003, 1.146295e-002
2.827132e+003, 1.093276e-002
2.829061e+003, 1.031077e-002
2.830989e+003, 1.079956e-002
2.832917e+003, 1.161971e-002
2.834846e+003, 1.124078e-002
2.836774e+003, 1.012557e-002
2.838703e+003, 1.057370e-002
2.840631e+003, 1.012595e-002
2.842560e+003, 1.006466e-002
2.844488e+003, 1.051446e-002
2.846417e+003, 1.037858e-002
2.848345e+003, 1.101403e-002
2.850274e+003, 1.086235e-002
2.852202e+003, 1.046338e-002
2.854131e+003, 1.054386e-002
2.856059e+003, 1.088320e-002
2.857988e+003, 1.138026e-002
2.859916e+003, 1.124293e-002
2.861844e+003, 1.126693e-002
2.863773e+003, 1.166227e-002
2.865701e+003, 1.107735e-002
2.867630e+003, 9.014333e-003
2.869558e+003, 7.835932e-003
2.871487e+003, 9.464760e-003
2.873415e+003, 1.091402e-002
2.875344e+003, 1.134523e-002
2.877272e+003, 1.145698e-002
2.879201e+003, 1.084246e-002
2.881129e+003, 1.147964e-002
2.883058e+003, 1.151776e-002
2.884986e+003, 1.101317e-002
2.886915e+003, 1.134294e-002
2.888843e+003, 1.228462e-002
2.890771e+003, 1.176869e-002
2.892700e+003, 1.174235e-002
2.894628e+003, 1.225705e-002
2.896557e+003, 1.217531e-002
2.898485e+003, 1.177938e-002
2.900414e+003, 1.130703e-002
2.902342e+003, 1.104576e-002
2.904271e+003, 1.108924e-002
2.906199e+003, 1.183918e-002
2.908128e+003, 1.226549e-002
2.910056e+003, 1.300503e-002
2.911985e+003, 1.413149e-002
2.913913e+003, 1.459519e-002
2.915842e+003, 1.455962e-002
2.917770e+003, 1.420677e-002
2.919698e+003, 1.404519e-002
2.921627e+003, 1.302270e-002
2.923555e+003, 1.136923e-002
2.925484e+003, 1.099394e-002
2.927412e+003, 1.094220e-002
2.929341e+003, 1.195621e-002
2.931269e+003, 1.253193e-002
2.933198e+003, 1.280401e-002
2.935126e+003, 1.247539e-002
2.937055e+003, 1.212772e-002
2.938983e+003, 1.222112e-002
2.940912e+003, 1.243403e-002
2.942840e+003, 1.258644e-002
2.944769e+003, 1.268208e-002
2.946697e+003, 1.148234e-002
2.948625e+003, 1.113487e-002
2.950554e+003, 1.150049e-002
2.952482e+003, 1.018602e-002
2.954411e+003, 1.013069e-002
2.956339e+003, 1.212240e-002
2.958268e+003, 1.363829e-002
2.960196e+003, 1.319980e-002
2.962125e+003, 1.235049e-002
2.964053e+003, 1.252218e-002
2.965982e+003, 1.223192e-002
2.967910e+003, 1.326585e-002
2.969839e+003, 1.447124e-002
2.971767e+003, 1.304360e-002
2.973696e+003, 1.115334e-002
2.975624e+003, 1.081521e-002
2.977552e+003, 1.249529e-002
2.979481e+003, 1.518147e-002
2.981409e+003, 1.527256e-002
2.983338e+003, 1.607275e-002
2.985266e+003, 1.695092e-002
2.987195e+003, 1.632446e-002
2.989123e+003, 1.652817e-002
2.991052e+003, 1.636060e-002
2.992980e+003, 1.559343e-002
2.994909e+003, 1.328303e-002
2.996837e+003, 1.135223e-002
2.998766e+003, 1.310162e-002
3.000694e+003, 1.482774e-002
3.002623e+003, 1.561518e-002
3.004551e+003, 1.567396e-002
3.006479e+003, 1.467473e-002
3.008408e+003, 1.452409e-002
3.010336e+003, 1.492071e-002
3.012265e+003, 1.483897e-002
3.014193e+003, 1.518629e-002
3.016122e+003, 1.473405e-002
3.018050e+003, 1.473210e-002
3.019979e+003, 1.530245e-002
3.021907e+003, 1.712701e-002
3.023836e+003, 1.686024e-002
3.025764e+003, 1.560309e-002
3.027693e+003, 1.508309e-002
3.029621e+003, 1.482044e-002
3.031550e+003, 1.385984e-002
3.033478e+003, 1.410714e-002
3.035406e+003, 1.461124e-002
3.037335e+003, 1.497733e-002
3.039263e+003, 1.556699e-002
3.041192e+003, 1.616657e-002
3.043120e+003, 1.642879e-002
3.045049e+003, 1.535924e-002
3.046977e+003, 1.485101e-002
3.048906e+003, 1.457568e-002
3.050834e+003, 1.514436e-002
3.052763e+003, 1.584568e-002
3.054691e+003, 1.575637e-002
3.056620e+003, 1.532077e-002
3.058548e+003, 1.619017e-002
3.060477e+003, 1.621940e-002
3.062405e+003, 1.509915e-002
3.064333e+003, 1.341272e-002
3.066262e+003, 1.198684e-002
3.068190e+003, 1.434610e-002
3.070119e+003, 1.499439e-002
3.072047e+003, 1.467255e-002
3.073976e+003, 1.609256e-002
3.075904e+003, 1.677131e-002
3.077833e+003, 1.668997e-002
3.079761e+003, 1.658487e-002
3.081690e+003, 1.641622e-002
3.083618e+003, 1.677866e-002
3.085547e+003, 1.872023e-002
3.087475e+003, 2.015519e-002
3.089404e+003, 1.787353e-002
3.091332e+003, 1.571908e-002
3.093260e+003, 1.605591e-002
3.095189e+003, 1.826530e-002
3.097117e+003, 1.786550e-002
3.099046e+003, 1.667597e-002
3.100974e+003, 1.641807e-002
3.102903e+003, 1.646352e-002
3.104831e+003, 1.660099e-002
3.106760e+003, 1.713569e-002
3.108688e+003, 1.776897e-002
3.110617e+003, 1.815586e-002
3.112545e+003, 1.774555e-002
3.114474e+003, 1.715076e-002
3.116402e+003, 1.867338e-002
3.118331e+003, 1.818421e-002
3.120259e+003, 1.760755e-002
3.122188e+003, 1.700031e-002
3.124116e+003, 1.721241e-002
3.126044e+003, 1.797866e-002
3.127973e+003, 1.763622e-002
3.129901e+003, 1.719565e-002
3.131830e+003, 1.798904e-002
3.133758e+003, 1.883269e-002
3.135687e+003, 1.974971e-002
3.137615e+003, 2.013382e-002
3.139544e+003, 2.078360e-002
3.141472e+003, 2.038980e-002
3.143401e+003, 1.914020e-002
3.145329e+003, 1.941182e-002
3.147258e+003, 2.000075e-002
3.149186e+003, 1.801046e-002
3.151115e+003, 1.745466e-002
3.153043e+003, 1.759360e-002
3.154971e+003, 1.753638e-002
3.156900e+003, 1.839028e-002
3.158828e+003, 1.911996e-002
3.160757e+003, 1.975016e-002
3.162685e+003, 2.028260e-002
3.164614e+003, 2.117425e-002
3.166542e+003, 2.171371e-002
3.168471e+003, 2.223930e-002
3.170399e+003, 2.179726e-002
3.172328e+003, 2.064604e-002
3.174256e+003, 2.035360e-002
3.176185e+003, 2.191198e-002
3.178113e+003, 2.285824e-002
3.180042e+003, 2.237973e-002
3.181970e+003, 2.009869e-002
3.183898e+003, 2.023729e-002
3.185827e+003, 2.112056e-002
3.187755e+003, 2.304862e-002
3.189684e+003, 2.284303e-002
3.191612e+003, 2.151449e-002
3.193541e+003, 2.205763e-002
3.195469e+003, 2.295680e-002
3.197398e+003, 2.275676e-002
3.199326e+003, 2.286672e-002
3.201255e+003, 2.099905e-002
3.203183e+003, 2.147036e-002
3.205112e+003, 2.441980e-002
3.207040e+003, 2.599792e-002
3.208969e+003, 2.520576e-002
3.210897e+003, 2.461709e-002
3.212825e+003, 2.337580e-002
3.214754e+003, 2.150540e-002
3.216682e+003, 2.301602e-002
3.218611e+003, 2.464833e-002
3.220539e+003, 2.494953e-002
3.222468e+003, 2.429800e-002
3.224396e+003, 2.368913e-002
3.226325e+003, 2.434210e-002
3.228253e+003, 2.515499e-002
3.230182e+003, 2.474533e-002
3.232110e+003, 2.286829e-002
3.234039e+003, 2.374940e-002
3.235967e+003, 2.462739e-002
3.237896e+003, 2.300813e-002
3.239824e+003, 2.494715e-002
3.241752e+003, 2.632069e-002
3.243681e+003, 2.551661e-002
3.245609e+003, 2.550507e-002
3.247538e+003, 2.542588e-002
3.249466e+003, 2.419880e-002
3.251395e+003, 2.352748e-002
3.253323e+003, 2.706498e-002
3.255252e+003, 2.772248e-002
3.257180e+003, 2.609126e-002
3.259109e+003, 2.666242e-002
3.261037e+003, 2.716109e-002
3.262966e+003, 2.854639e-002
3.264894e+003, 3.115238e-002
3.266823e+003, 3.095460e-002
3.268751e+003, 2.939356e-002
3.270679e+003, 2.787851e-002
3.272608e+003, 2.812177e-002
3.274536e+003, 2.838582e-002
3.276465e+003, 2.862837e-002
3.278393e+003, 3.036530e-002
3.280322e+003, 3.086246e-002
3.282250e+003, 3.031792e-002
3.284179e+003, 3.295389e-002
3.286107e+003, 3.280188e-002
3.288036e+003, 3.280429e-002
3.289964e+003, 3.540049e-002
3.291893e+003, 3.637967e-002
3.293821e+003, 3.412281e-002
3.295750e+003, 3.304742e-002
3.297678e+003, 3.423226e-002
3.299606e+003, 3.328817e-002
3.301535e+003, 3.206883e-002
3.303463e+003, 3.365884e-002
3.305392e+003, 3.509034e-002
3.307320e+003, 3.462734e-002
3.309249e+003, 3.448354e-002
3.311177e+003, 3.711270e-002
3.313106e+003, 3.834826e-002
3.315034e+003, 3.805678e-002
3.316963e+003, 3.808299e-002
3.318891e+003, 3.853336e-002
3.320820e+003, 3.872494e-002
3.322748e+003, 3.853777e-002
3.324677e+003, 3.851941e-002
3.326605e+003, 3.787683e-002
3.328533e+003, 3.988916e-002
3.330462e+003, 4.243077e-002
3.332390e+003, 4.124980e-002
3.334319e+003, 4.115909e-002
3.336247e+003, 4.383433e-002
3.338176e+003, 4.683425e-002
3.340104e+003, 4.713406e-002
3.342033e+003, 4.583539e-002
3.343961e+003, 4.457467e-002
3.345890e+003, 4.630884e-002
3.347818e+003, 4.860431e-002
3.349747e+003, 4.750577e-002
3.351675e+003, 4.853125e-002
3.353604e+003, 5.001768e-002
3.355532e+003, 4.892268e-002
3.357460e+003, 4.996411e-002
3.359389e+003, 4.996240e-002
3.361317e+003, 5.073754e-002
3.363246e+003, 5.192297e-002
3.365174e+003, 5.193911e-002
3.367103e+003, 5.395812e-002
3.369031e+003, 5.642084e-002
3.370960e+003, 5.728918e-002
3.372888e+003, 5.768343e-002
3.374817e+003, 5.743985e-002
3.376745e+003, 5.719053e-002
3.378674e+003, 5.764882e-002
3.380602e+003, 5.897360e-002
3.382531e+003, 6.070577e-002
3.384459e+003, 6.441932e-002
3.386387e+003, 6.686547e-002
3.388316e+003, 6.655017e-002
3.390244e+003, 6.612236e-002
3.392173e+003, 6.700075e-002
3.394101e+003, 7.068253e-002
3.396030e+003, 7.286901e-002
3.397958e+003, 7.254256e-002
3.399887e+003, 7.149078e-002
3.401815e+003, 7.319520e-002
3.403744e+003, 7.862070e-002
3.405672e+003, 8.141391e-002
3.407601e+003, 8.153863e-002
3.409529e+003, 8.132158e-002
3.411458e+003, 8.173638e-002
3.413386e+003, 8.451900e-002
3.415314e+003, 8.886369e-002
3.417243e+003, 9.178132e-002
3.419171e+003, 9.350263e-002
3.421100e+003, 9.426828e-002
3.423028e+003, 9.621257e-002
3.424957e+003, 9.952712e-002
3.426885e+003, 1.005220e-001
3.428814e+003, 9.969544e-002
3.430742e+003, 1.013298e-001
3.432671e+003, 1.053949e-001
3.434599e+003, 1.085595e-001
3.436528e+003, 1.087840e-001
3.438456e+003, 1.118091e-001
3.440385e+003, 1.152766e-001
3.442313e+003, 1.166339e-001
3.444241e+003, 1.197633e-001
3.446170e+003, 1.234474e-001
3.448098e+003, 1.276825e-001
3.450027e+003, 1.307410e-001
3.451955e+003, 1.358066e-001
3.453884e+003, 1.391757e-001
3.455812e+003, 1.423913e-001
3.457741e+003, 1.496727e-001
3.459669e+003, 1.557644e-001
3.461598e+003, 1.605349e-001
3.463526e+003, 1.663828e-001
3.465455e+003, 1.696518e-001
3.467383e+003, 1.725578e-001
3.469312e+003, 1.721022e-001
3.471240e+003, 1.693399e-001
3.473168e+003, 1.652598e-001
3.475097e+003, 1.600776e-001
3.477025e+003, 1.541127e-001
3.478954e+003, 1.490259e-001
3.480882e+003, 1.443097e-001
3.482811e+003, 1.362310e-001
3.484739e+003, 1.286345e-001
3.486668e+003, 1.236071e-001
3.488596e+003, 1.213960e-001
3.490525e+003, 1.169342e-001
3.492453e+003, 1.124875e-001
3.494382e+003, 1.110922e-001
3.496310e+003, 1.083104e-001
3.498239e+003, 1.041466e-001
3.500167e+003, 1.029908e-001
3.502095e+003, 1.012289e-001
3.504024e+003, 9.694817e-002
3.505952e+003, 9.626864e-002
3.507881e+003, 9.939522e-002
3.509809e+003, 9.988091e-002
3.511738e+003, 1.000645e-001
3.513666e+003, 1.019093e-001
3.515595e+003, 1.046153e-001
3.517523e+003, 1.055313e-001
3.519452e+003, 1.062740e-001
3.521380e+003, 1.094746e-001
3.523309e+003, 1.134839e-001
3.525237e+003, 1.179247e-001
3.527166e+003, 1.210780e-001
3.529094e+003, 1.225526e-001
3.531022e+003, 1.274361e-001
3.532951e+003, 1.332320e-001
3.534879e+003, 1.354134e-001
3.536808e+003, 1.364850e-001
3.538736e+003, 1.383154e-001
3.540665e+003, 1.423191e-001
3.542593e+003, 1.455130e-001
3.544522e+003, 1.468479e-001
3.546450e+003, 1.462518e-001
3.548379e+003, 1.414653e-001
3.550307e+003, 1.351261e-001
3.552236e+003, 1.289150e-001
3.554164e+003, 1.227353e-001
3.556093e+003, 1.157761e-001
3.558021e+003, 1.076801e-001
3.559949e+003, 1.008589e-001
3.561878e+003, 9.214307e-002
3.563806e+003, 8.245949e-002
3.565735e+003, 7.423848e-002
3.567663e+003, 6.628240e-002
3.569592e+003, 5.834782e-002
3.571520e+003, 5.282600e-002
3.573449e+003, 4.895154e-002
3.575377e+003, 4.366093e-002
3.577306e+003, 4.083304e-002
3.579234e+003, 3.851624e-002
3.581163e+003, 3.476043e-002
3.583091e+003, 3.046552e-002
3.585020e+003, 2.803607e-002
3.586948e+003, 2.983586e-002
3.588876e+003, 3.083779e-002
3.590805e+003, 2.797363e-002
3.592733e+003, 2.395596e-002
3.594662e+003, 2.035652e-002
3.596590e+003, 2.068489e-002
3.598519e+003, 2.258522e-002
3.600447e+003, 2.045903e-002
3.602376e+003, 1.829434e-002
3.604304e+003, 2.032813e-002
3.606233e+003, 2.130760e-002
3.608161e+003, 2.132686e-002
3.610090e+003, 2.109068e-002
3.612018e+003, 2.040595e-002
3.613947e+003, 1.910443e-002
3.615875e+003, 1.675116e-002
3.617803e+003, 1.565443e-002
3.619732e+003, 1.708812e-002
3.621660e+003, 1.459740e-002
3.623589e+003, 1.149129e-002
3.625517e+003, 1.331261e-002
3.627446e+003, 1.210827e-002
3.629374e+003, 7.500133e-003
3.631303e+003, 8.379390e-003
3.633231e+003, 1.288524e-002
3.635160e+003, 1.211594e-002
3.637088e+003, 7.000573e-003
3.639017e+003, 4.092677e-003
3.640945e+003, 6.691398e-003
3.642874e+003, 8.679263e-003
3.644802e+003, 9.833745e-003
3.646730e+003, 8.420578e-003
3.648659e+003, 5.809113e-003
3.650587e+003, 6.586802e-003
3.652516e+003, 2.682191e-003
3.654444e+003, 2.194239e-004
3.656373e+003, 2.273560e-003
3.658301e+003, 3.167333e-003
3.660230e+003, 4.487680e-003
3.662158e+003, 5.862270e-003
3.664087e+003, 5.343785e-003
3.666015e+003, 6.055600e-003
3.667944e+003, 7.815778e-003
3.669872e+003, 4.984415e-003
3.671801e+003, 1.885409e-003
3.673729e+003, 2.657288e-003
3.675657e+003, 3.879562e-003
3.677586e+003, 5.045131e-003
3.679514e+003, 4.025407e-003
3.681443e+003, 2.391519e-003
3.683371e+003, 5.766444e-004
3.685300e+003, 5.832982e-004
3.687228e+003, 2.757980e-003
3.689157e+003, 6.476213e-003
3.691085e+003, 6.900843e-003
3.693014e+003, 5.281494e-003
3.694942e+003, 3.254138e-003
3.696871e+003, 2.797096e-003
3.698799e+003, 2.082844e-003
3.700728e+003, -9.711216e-005
3.702656e+003, 1.104159e-005
3.704584e+003, 2.176932e-003
3.706513e+003, 6.112263e-003
3.708441e+003, 8.327394e-003
3.710370e+003, 6.699113e-003
3.712298e+003, 5.763160e-003
3.714227e+003, 5.226761e-003
3.716155e+003, 4.675286e-003
3.718084e+003, 5.132450e-003
3.720012e+003, 3.890545e-003
3.721941e+003, 2.072290e-003
3.723869e+003, 2.072128e-003
3.725798e+003, 8.704382e-004
3.727726e+003, 2.637703e-003
3.729655e+003, 4.597585e-003
3.731583e+003, 2.222017e-003
3.733511e+003, 1.758697e-003
3.735440e+003, 5.589054e-003
3.737368e+003, 7.599133e-003
3.739297e+003, 4.766655e-003
3.741225e+003, 1.707356e-003
3.743154e+003, 3.991640e-004
3.745082e+003, 3.483327e-003
3.747011e+003, 6.471695e-003
3.748939e+003, 5.162581e-003
3.750868e+003, 4.502718e-003
3.752796e+003, 6.423762e-003
3.754725e+003, 3.739422e-003
3.756653e+003, 1.576965e-003
3.758582e+003, 2.253058e-003
3.760510e+003, 3.208757e-003
3.762438e+003, 2.184090e-003
3.764367e+003, 5.048948e-003
3.766295e+003, 6.527429e-003
3.768224e+003, 4.926754e-003
3.770152e+003, 4.755372e-003
3.772081e+003, 3.686431e-003
3.774009e+003, 4.438587e-003
3.775938e+003, 3.942763e-003
3.777866e+003, 1.311492e-003
3.779795e+003, 5.531524e-004
3.781723e+003, 4.721585e-003
3.783652e+003, 6.145215e-003
3.785580e+003, 4.543257e-003
3.787509e+003, 4.070080e-003
3.789437e+003, 4.153089e-003
3.791365e+003, 8.298251e-004
3.793294e+003, 1.542254e-004
3.795222e+003, 3.032004e-003
3.797151e+003, 5.146430e-003
3.799079e+003, 5.765242e-003
3.801008e+003, 4.979723e-003
3.802936e+003, 4.068595e-003
3.804865e+003, 5.038519e-003
3.806793e+003, 3.904684e-003
3.808722e+003, 3.371035e-003
3.810650e+003, 5.124577e-003
3.812579e+003, 6.612210e-003
3.814507e+003, 6.593474e-003
3.816436e+003, 4.850909e-003
3.818364e+003, 3.277011e-003
3.820292e+003, 3.505204e-003
3.822221e+003, 4.583929e-003
3.824149e+003, 3.953223e-003
3.826078e+003, 3.947592e-003
3.828006e+003, 5.830905e-003
3.829935e+003, 4.900395e-003
3.831863e+003, 4.613318e-003
3.833792e+003, 4.645574e-003
3.835720e+003, 3.457335e-003
3.837649e+003, 2.107939e-003
3.839577e+003, 3.095989e-003
3.841506e+003, 5.251747e-003
3.843434e+003, 6.393152e-003
3.845363e+003, 5.122436e-003
3.847291e+003, 3.112171e-003
3.849219e+003, 6.228663e-003
3.851148e+003, 8.609366e-003
3.853076e+003, 8.648453e-003
3.855005e+003, 7.374597e-003
3.856933e+003, 4.999412e-003
3.858862e+003, 4.654541e-003
3.860790e+003, 4.901000e-003
3.862719e+003, 4.828743e-003
3.864647e+003, 5.487382e-003
3.866576e+003, 4.861575e-003
3.868504e+003, 6.796972e-003
3.870433e+003, 6.953853e-003
3.872361e+003, 3.485090e-003
3.874290e+003, 2.664649e-003
3.876218e+003, 3.116913e-003
3.878146e+003, 6.241036e-003
3.880075e+003, 6.529599e-003
3.882003e+003, 6.285845e-003
3.883932e+003, 2.987101e-003
3.885860e+003, 1.285016e-004
3.887789e+003, 9.831687e-004
3.889717e+003, 2.539079e-003
3.891646e+003, 3.957985e-003
3.893574e+003, 4.617627e-003
3.895503e+003, 6.659484e-003
3.897431e+003, 7.502712e-003
3.899360e+003, 6.703824e-003
3.901288e+003, 7.232953e-003
3.903217e+003, 3.681863e-003
3.905145e+003, 3.338913e-003
3.907073e+003, 5.042721e-003
3.909002e+003, 3.354020e-003
3.910930e+003, 3.061999e-003
3.912859e+003, 3.171315e-003
3.914787e+003, 3.610103e-003
3.916716e+003, 3.163650e-003
3.918644e+003, 6.167420e-003
3.920573e+003, 7.387429e-003
3.922501e+003, 7.806732e-003
3.924430e+003, 5.679769e-003
3.926358e+003, 2.959391e-003
3.928287e+003, 5.797012e-003
3.930215e+003, 9.040603e-003
3.932144e+003, 6.141593e-003
3.934072e+003, 2.855915e-003
3.936000e+003, 4.373731e-003
3.937929e+003, 1.293149e-003
3.939857e+003, -9.669227e-004
3.941786e+003, -9.124406e-004
3.943714e+003, 3.013543e-004
3.945643e+003, 1.315307e-003
3.947571e+003, 4.762853e-003
3.949500e+003, 7.124162e-003
3.951428e+003, 6.037035e-003
3.953357e+003, 4.788355e-003
3.955285e+003, 5.199194e-003
3.957214e+003, 5.386256e-003
3.959142e+003, 5.278477e-003
3.961071e+003, 4.503173e-003
3.962999e+003, 6.682858e-003
3.964927e+003, 7.904764e-003
3.966856e+003, 1.021231e-002
3.968784e+003, 9.754612e-003
3.970713e+003, 8.524921e-003
3.972641e+003, 9.985969e-003
3.974570e+003, 8.870850e-003
3.976498e+003, 4.062509e-003
3.978427e+003, 3.566150e-003
3.980355e+003, 7.559683e-003
3.982284e+003, 5.347713e-003
3.984212e+003, 1.879566e-003
3.986141e+003, 7.092380e-003
3.988069e+003, 1.048294e-002
3.989998e+003, 6.334387e-003
3.991926e+003, 4.791831e-003
3.993854e+003, 5.449005e-003
3.995783e+003, 6.797687e-003
3.997711e+003, 8.052763e-003
3.999640e+003, 8.056647e-003
4.001568e+003, 0.000000e+000
##END=



