##NAMES=Baddeleyite
##RRUFFID=R060016
##IDEAL CHEMISTRY=Zr^4+^O_2_
##LOCALITY=Wet Loo, Myanmar
##OWNER=RRUFF
##SOURCE=American Museum of Natural History
##DESCRIPTION=Brown crystal fragment
##STATUS=The identification of this mineral has been confirmed by X-ray diffraction and chemical analysis
##URL=rruff.info/R060016
##MEASURED CHEMISTRY=(Zr_0.99_Ti_0.01_)_Î£=1_O_2_
3.991926e+002, 3.345744e-001
4.011211e+002, 3.108325e-001
4.030496e+002, 3.184600e-001
4.049780e+002, 3.242953e-001
4.069065e+002, 2.976502e-001
4.088350e+002, 3.015066e-001
4.107634e+002, 2.994841e-001
4.126919e+002, 2.884894e-001
4.146204e+002, 2.846224e-001
4.165488e+002, 2.837713e-001
4.184773e+002, 2.707869e-001
4.204058e+002, 2.616073e-001
4.223342e+002, 2.677200e-001
4.242627e+002, 2.560459e-001
4.261912e+002, 2.467151e-001
4.281196e+002, 2.474355e-001
4.300481e+002, 2.421937e-001
4.319766e+002, 2.440291e-001
4.339050e+002, 2.459244e-001
4.358335e+002, 2.454915e-001
4.377620e+002, 2.558838e-001
4.396904e+002, 2.549813e-001
4.416189e+002, 2.503611e-001
4.435474e+002, 2.524646e-001
4.454758e+002, 2.566949e-001
4.474043e+002, 2.614965e-001
4.493328e+002, 2.626453e-001
4.512612e+002, 2.592138e-001
4.531897e+002, 2.609605e-001
4.551182e+002, 2.569444e-001
4.570466e+002, 2.503767e-001
4.589751e+002, 2.549131e-001
4.609036e+002, 2.646818e-001
4.628320e+002, 2.674402e-001
4.647605e+002, 2.761393e-001
4.666890e+002, 2.940993e-001
4.686174e+002, 3.035420e-001
4.705459e+002, 3.075602e-001
4.724744e+002, 3.198921e-001
4.744028e+002, 3.293412e-001
4.763313e+002, 3.287742e-001
4.782598e+002, 3.278054e-001
4.801882e+002, 3.250321e-001
4.821167e+002, 3.250066e-001
4.840452e+002, 3.251352e-001
4.859736e+002, 3.246222e-001
4.879021e+002, 3.199846e-001
4.898306e+002, 3.159887e-001
4.917590e+002, 3.078540e-001
4.936875e+002, 2.992312e-001
4.956160e+002, 2.953481e-001
4.975444e+002, 2.909243e-001
4.994729e+002, 2.880997e-001
5.014014e+002, 2.813223e-001
5.033298e+002, 2.731945e-001
5.052583e+002, 2.672919e-001
5.071868e+002, 2.607738e-001
5.091152e+002, 2.534806e-001
5.110437e+002, 2.470788e-001
5.129722e+002, 2.403623e-001
5.149006e+002, 2.344327e-001
5.168291e+002, 2.284421e-001
5.187576e+002, 2.233694e-001
5.206860e+002, 2.174812e-001
5.226145e+002, 2.129904e-001
5.245430e+002, 2.078958e-001
5.264714e+002, 1.998652e-001
5.283999e+002, 1.936470e-001
5.303284e+002, 1.901923e-001
5.322568e+002, 1.868641e-001
5.341853e+002, 1.838946e-001
5.361138e+002, 1.813464e-001
5.380422e+002, 1.772216e-001
5.399707e+002, 1.719478e-001
5.418992e+002, 1.680966e-001
5.438276e+002, 1.651893e-001
5.457561e+002, 1.609729e-001
5.476846e+002, 1.583876e-001
5.496130e+002, 1.586028e-001
5.515415e+002, 1.599155e-001
5.534700e+002, 1.617205e-001
5.553984e+002, 1.650709e-001
5.573269e+002, 1.682352e-001
5.592554e+002, 1.721148e-001
5.611838e+002, 1.755891e-001
5.631123e+002, 1.787379e-001
5.650408e+002, 1.829163e-001
5.669692e+002, 1.877061e-001
5.688977e+002, 1.896578e-001
5.708262e+002, 1.892765e-001
5.727546e+002, 1.890136e-001
5.746831e+002, 1.885175e-001
5.766116e+002, 1.867577e-001
5.785400e+002, 1.823117e-001
5.804685e+002, 1.765636e-001
5.823970e+002, 1.733326e-001
5.843254e+002, 1.707390e-001
5.862539e+002, 1.662413e-001
5.881824e+002, 1.617672e-001
5.901108e+002, 1.559476e-001
5.920393e+002, 1.522166e-001
5.939678e+002, 1.495267e-001
5.958962e+002, 1.460938e-001
5.978247e+002, 1.430498e-001
5.997532e+002, 1.387614e-001
6.016816e+002, 1.355058e-001
6.036101e+002, 1.331801e-001
6.055386e+002, 1.306019e-001
6.074670e+002, 1.269893e-001
6.093955e+002, 1.246379e-001
6.113240e+002, 1.221001e-001
6.132524e+002, 1.188543e-001
6.151809e+002, 1.160076e-001
6.171094e+002, 1.141173e-001
6.190378e+002, 1.121647e-001
6.209663e+002, 1.104355e-001
6.228948e+002, 1.088009e-001
6.248232e+002, 1.074560e-001
6.267517e+002, 1.062489e-001
6.286802e+002, 1.054944e-001
6.306086e+002, 1.044855e-001
6.325371e+002, 1.037986e-001
6.344656e+002, 1.034710e-001
6.363940e+002, 1.031734e-001
6.383225e+002, 1.028647e-001
6.402510e+002, 1.025428e-001
6.421794e+002, 1.022571e-001
6.441079e+002, 1.022542e-001
6.460364e+002, 1.024012e-001
6.479648e+002, 1.030391e-001
6.498933e+002, 1.031909e-001
6.518218e+002, 1.032775e-001
6.537502e+002, 1.039433e-001
6.556787e+002, 1.039372e-001
6.576072e+002, 1.036254e-001
6.595356e+002, 1.044291e-001
6.614641e+002, 1.046474e-001
6.633926e+002, 1.038944e-001
6.653210e+002, 1.040459e-001
6.672495e+002, 1.041778e-001
6.691780e+002, 1.043614e-001
6.711064e+002, 1.046522e-001
6.730349e+002, 1.048107e-001
6.749634e+002, 1.043106e-001
6.768918e+002, 1.036665e-001
6.788203e+002, 1.040061e-001
6.807488e+002, 1.048744e-001
6.826772e+002, 1.042047e-001
6.846057e+002, 1.034027e-001
6.865342e+002, 1.036772e-001
6.884626e+002, 1.039387e-001
6.903911e+002, 1.040029e-001
6.923196e+002, 1.044554e-001
6.942480e+002, 1.043896e-001
6.961765e+002, 1.044405e-001
6.981050e+002, 1.048490e-001
7.000334e+002, 1.049191e-001
7.019619e+002, 1.053852e-001
7.038904e+002, 1.059161e-001
7.058188e+002, 1.067480e-001
7.077473e+002, 1.076789e-001
7.096758e+002, 1.083363e-001
7.116042e+002, 1.092160e-001
7.135327e+002, 1.108035e-001
7.154612e+002, 1.121891e-001
7.173896e+002, 1.131379e-001
7.193181e+002, 1.133183e-001
7.212466e+002, 1.134017e-001
7.231750e+002, 1.132340e-001
7.251035e+002, 1.127393e-001
7.270320e+002, 1.117005e-001
7.289604e+002, 1.104387e-001
7.308889e+002, 1.089205e-001
7.328174e+002, 1.069039e-001
7.347458e+002, 1.051069e-001
7.366743e+002, 1.031317e-001
7.386028e+002, 1.004584e-001
7.405313e+002, 9.811931e-002
7.424597e+002, 9.647919e-002
7.443882e+002, 9.384389e-002
7.463167e+002, 9.157541e-002
7.482451e+002, 8.938666e-002
7.501736e+002, 8.673435e-002
7.521021e+002, 8.464079e-002
7.540305e+002, 8.235078e-002
7.559590e+002, 7.962839e-002
7.578875e+002, 7.694986e-002
7.598159e+002, 7.437412e-002
7.617444e+002, 7.165971e-002
7.636729e+002, 6.895830e-002
7.656013e+002, 6.652610e-002
7.675298e+002, 6.457328e-002
7.694583e+002, 6.215012e-002
7.713867e+002, 5.962109e-002
7.733152e+002, 5.757219e-002
7.752437e+002, 5.521285e-002
7.771721e+002, 5.256432e-002
7.791006e+002, 5.047290e-002
7.810291e+002, 4.843150e-002
7.829575e+002, 4.622945e-002
7.848860e+002, 4.408908e-002
7.868145e+002, 4.222344e-002
7.887429e+002, 4.052929e-002
7.906714e+002, 3.840196e-002
7.925999e+002, 3.623230e-002
7.945283e+002, 3.434304e-002
7.964568e+002, 3.266136e-002
7.983853e+002, 3.052740e-002
8.003137e+002, 2.814563e-002
8.022422e+002, 2.593017e-002
8.041707e+002, 2.354044e-002
8.060991e+002, 2.109229e-002
8.080276e+002, 1.868122e-002
8.099561e+002, 1.655340e-002
8.118845e+002, 1.449068e-002
8.138130e+002, 1.220339e-002
8.157415e+002, 1.039031e-002
8.176699e+002, 9.775246e-003
8.195984e+002, 9.265549e-003
8.215269e+002, 8.197127e-003
8.234553e+002, 7.574462e-003
8.253838e+002, 6.745283e-003
8.273123e+002, 6.248533e-003
8.292407e+002, 6.115329e-003
8.311692e+002, 5.690620e-003
8.330977e+002, 5.333924e-003
8.350261e+002, 5.067952e-003
8.369546e+002, 4.507685e-003
8.388831e+002, 4.040133e-003
8.408115e+002, 3.651821e-003
8.427400e+002, 3.746006e-003
8.446685e+002, 3.661968e-003
8.465969e+002, 3.389419e-003
8.485254e+002, 3.137340e-003
8.504539e+002, 2.905686e-003
8.523823e+002, 2.318398e-003
8.543108e+002, 2.304961e-003
8.562393e+002, 2.497982e-003
8.581677e+002, 1.929897e-003
8.600962e+002, 1.310937e-003
8.620247e+002, 1.663597e-003
8.639531e+002, 1.647994e-003
8.658816e+002, 1.280420e-003
8.678101e+002, 1.083200e-003
8.697385e+002, 7.422697e-004
8.716670e+002, 1.060169e-003
8.735955e+002, 1.486367e-003
8.755239e+002, 1.219935e-003
8.774524e+002, 9.137820e-004
8.793809e+002, 6.021168e-004
8.813093e+002, 3.358601e-004
8.832378e+002, 6.125122e-004
8.851663e+002, 5.477369e-004
8.870947e+002, 3.095046e-004
8.890232e+002, 4.882161e-004
8.909517e+002, 4.398739e-004
8.928801e+002, 1.534820e-004
8.948086e+002, 7.605180e-005
8.967371e+002, 2.081040e-005
8.986655e+002, -2.334407e-004
9.005940e+002, -3.891168e-004
9.025225e+002, -1.485236e-004
9.044509e+002, -1.595998e-004
9.063794e+002, -4.907055e-004
9.083079e+002, -1.995265e-004
9.102363e+002, 4.288042e-004
9.121648e+002, 4.128842e-004
9.140933e+002, 3.075805e-004
9.160217e+002, 5.005803e-004
9.179502e+002, 1.549460e-004
9.198787e+002, -9.567291e-005
9.218071e+002, -1.846813e-005
9.237356e+002, 2.413411e-004
9.256641e+002, 1.971554e-004
9.275925e+002, 3.922917e-005
9.295210e+002, -1.266748e-004
9.314495e+002, -1.168437e-005
9.333779e+002, 3.667502e-004
9.353064e+002, 2.300590e-004
9.372349e+002, 7.405877e-006
9.391633e+002, 6.583706e-005
9.410918e+002, 6.875768e-005
9.430203e+002, -2.365541e-004
9.449487e+002, -2.498692e-004
9.468772e+002, 2.161264e-004
9.488057e+002, 3.352733e-004
9.507341e+002, 5.550385e-004
9.526626e+002, 4.284382e-004
9.545911e+002, 2.155071e-004
9.565195e+002, 2.799686e-004
9.584480e+002, 1.992499e-004
9.603765e+002, 8.009374e-008
9.623049e+002, 1.744907e-004
9.642334e+002, 2.126070e-004
9.661619e+002, -5.444977e-005
9.680903e+002, 1.080101e-004
9.700188e+002, 1.776209e-004
9.719473e+002, -8.190144e-005
9.738757e+002, -1.011929e-004
9.758042e+002, -3.997982e-005
9.777327e+002, -2.636574e-004
9.796611e+002, 1.085326e-004
9.815896e+002, 4.580626e-004
9.835181e+002, 2.604639e-004
9.854465e+002, 9.971391e-005
9.873750e+002, -1.567779e-004
9.893035e+002, -3.602328e-004
9.912319e+002, -4.423223e-005
9.931604e+002, 2.301084e-004
9.950889e+002, 4.148381e-004
9.970173e+002, 1.342166e-004
9.989458e+002, -3.471775e-004
1.000874e+003, -1.789806e-004
1.002803e+003, -2.333699e-004
1.004731e+003, -9.495765e-005
1.006660e+003, 3.217068e-005
1.008588e+003, -1.528608e-004
1.010517e+003, -4.022950e-004
1.012445e+003, -6.681029e-005
1.014374e+003, 6.548502e-005
1.016302e+003, -3.106715e-004
1.018230e+003, -6.061532e-004
1.020159e+003, -4.067300e-004
1.022087e+003, -4.147682e-004
1.024016e+003, -6.676177e-004
1.025944e+003, -6.047152e-004
1.027873e+003, -2.244860e-004
1.029801e+003, 7.244572e-005
1.031730e+003, -2.097953e-004
1.033658e+003, -5.587284e-004
1.035587e+003, -2.640039e-004
1.037515e+003, 1.520663e-005
1.039444e+003, -1.363419e-004
1.041372e+003, -2.201945e-004
1.043301e+003, -4.054066e-004
1.045229e+003, -5.003717e-004
1.047157e+003, -9.937771e-005
1.049086e+003, 3.248546e-004
1.051014e+003, 4.183259e-004
1.052943e+003, 3.313776e-004
1.054871e+003, 6.189961e-004
1.056800e+003, 5.248059e-004
1.058728e+003, 1.366399e-004
1.060657e+003, -1.064744e-004
1.062585e+003, 1.861621e-004
1.064514e+003, 3.374889e-004
1.066442e+003, 2.554897e-004
1.068371e+003, 9.858981e-005
1.070299e+003, -6.730109e-005
1.072228e+003, -2.770629e-004
1.074156e+003, -1.654234e-004
1.076084e+003, 1.029521e-004
1.078013e+003, 1.459699e-004
1.079941e+003, 5.631149e-005
1.081870e+003, 1.904462e-004
1.083798e+003, 1.038536e-004
1.085727e+003, -1.120251e-004
1.087655e+003, -2.636444e-004
1.089584e+003, -4.992709e-004
1.091512e+003, -4.083402e-004
1.093441e+003, -1.218524e-004
1.095369e+003, -5.591474e-005
1.097298e+003, -1.976397e-004
1.099226e+003, -5.574711e-005
1.101155e+003, 4.068296e-004
1.103083e+003, 2.187174e-004
1.105011e+003, 2.414789e-004
1.106940e+003, 2.092663e-004
1.108868e+003, -1.245383e-004
1.110797e+003, -2.489500e-004
1.112725e+003, -1.001097e-004
1.114654e+003, -4.448090e-004
1.116582e+003, -6.053243e-004
1.118511e+003, -2.320968e-004
1.120439e+003, -2.037548e-005
1.122368e+003, 3.725290e-006
1.124296e+003, -2.109352e-004
1.126225e+003, -4.189573e-004
1.128153e+003, -1.482815e-004
1.130082e+003, 6.641448e-005
1.132010e+003, 8.724444e-005
1.133938e+003, 5.588681e-005
1.135867e+003, 1.856759e-004
1.137795e+003, 4.364736e-005
1.139724e+003, -1.147352e-004
1.141652e+003, -2.067219e-004
1.143581e+003, 2.243370e-005
1.145509e+003, 8.598343e-005
1.147438e+003, 6.340444e-006
1.149366e+003, -1.547709e-004
1.151295e+003, -1.844950e-004
1.153223e+003, -1.927316e-004
1.155152e+003, -6.296672e-005
1.157080e+003, -1.654439e-004
1.159009e+003, -3.643632e-004
1.160937e+003, -2.729315e-004
1.162865e+003, -3.361870e-004
1.164794e+003, -4.795566e-004
1.166722e+003, -6.123688e-004
1.168651e+003, -5.236957e-004
1.170579e+003, -2.642106e-004
1.172508e+003, -3.427584e-004
1.174436e+003, -4.094299e-004
1.176365e+003, -2.094973e-004
1.178293e+003, -1.451503e-004
1.180222e+003, -8.528307e-005
1.182150e+003, -7.653609e-006
1.184079e+003, -1.778658e-004
1.186007e+003, -2.295021e-004
1.187936e+003, 6.178021e-005
1.189864e+003, -1.109242e-004
1.191792e+003, -1.790393e-004
1.193721e+003, 9.517185e-005
1.195649e+003, 1.722071e-004
1.197578e+003, -5.664490e-005
1.199506e+003, -2.264418e-005
1.201435e+003, 5.541462e-004
1.203363e+003, 6.189123e-004
1.205292e+003, 4.577041e-004
1.207220e+003, 4.370082e-004
1.209149e+003, 2.132021e-004
1.211077e+003, -1.412183e-004
1.213006e+003, -2.908129e-004
1.214934e+003, -3.305264e-005
1.216863e+003, 1.900457e-004
1.218791e+003, 1.776945e-004
1.220719e+003, 2.222694e-005
1.222648e+003, -7.394701e-007
1.224576e+003, 1.471471e-004
1.226505e+003, -3.294833e-005
1.228433e+003, -3.209598e-004
1.230362e+003, -1.464691e-004
1.232290e+003, 3.884602e-004
1.234219e+003, 4.448611e-004
1.236147e+003, 3.518332e-004
1.238076e+003, 5.614851e-004
1.240004e+003, 6.767251e-004
1.241933e+003, 1.555271e-004
1.243861e+003, -2.918728e-004
1.245790e+003, -2.427753e-004
1.247718e+003, 9.369850e-005
1.249646e+003, 7.766671e-005
1.251575e+003, -1.086537e-004
1.253503e+003, -1.104083e-004
1.255432e+003, -1.341701e-004
1.257360e+003, -3.043078e-004
1.259289e+003, -3.080405e-004
1.261217e+003, -2.222322e-004
1.263146e+003, 2.728142e-004
1.265074e+003, 3.524460e-004
1.267003e+003, -2.124719e-005
1.268931e+003, -2.081543e-004
1.270860e+003, -1.026914e-004
1.272788e+003, 1.819618e-005
1.274717e+003, 1.090486e-004
1.276645e+003, 2.763513e-004
1.278573e+003, 5.522836e-004
1.280502e+003, 7.486995e-004
1.282430e+003, 3.934782e-004
1.284359e+003, -2.574548e-005
1.286287e+003, -8.705258e-005
1.288216e+003, -4.118495e-005
1.290144e+003, -1.602806e-005
1.292073e+003, -1.369007e-004
1.294001e+003, -1.795404e-005
1.295930e+003, 2.304818e-004
1.297858e+003, 3.662053e-004
1.299787e+003, 1.618732e-004
1.301715e+003, 1.252666e-004
1.303644e+003, -7.167831e-005
1.305572e+003, -4.269816e-004
1.307500e+003, -3.448781e-004
1.309429e+003, -2.116878e-004
1.311357e+003, -1.656730e-004
1.313286e+003, -1.137741e-004
1.315214e+003, -8.607097e-005
1.317143e+003, 7.008947e-005
1.319071e+003, 3.270786e-004
1.321000e+003, 3.131609e-004
1.322928e+003, 3.372207e-004
1.324857e+003, 4.379097e-004
1.326785e+003, 8.668751e-006
1.328714e+003, -5.517900e-005
1.330642e+003, 1.007579e-004
1.332571e+003, -1.538321e-004
1.334499e+003, -1.680143e-004
1.336427e+003, 5.241111e-005
1.338356e+003, -2.474803e-004
1.340284e+003, -2.954230e-004
1.342213e+003, -2.309177e-004
1.344141e+003, -4.195627e-004
1.346070e+003, -3.426075e-004
1.347998e+003, 3.777817e-005
1.349927e+003, 7.214770e-005
1.351855e+003, -2.412498e-005
1.353784e+003, 3.080890e-004
1.355712e+003, 5.786493e-004
1.357641e+003, 2.743565e-004
1.359569e+003, -2.136417e-004
1.361498e+003, -5.366318e-004
1.363426e+003, -5.267859e-004
1.365354e+003, -3.075674e-004
1.367283e+003, -1.898408e-004
1.369211e+003, -8.022785e-005
1.371140e+003, -2.422594e-004
1.373068e+003, -7.010177e-004
1.374997e+003, -5.325861e-004
1.376925e+003, -1.361407e-004
1.378854e+003, -2.706796e-004
1.380782e+003, -3.125630e-004
1.382711e+003, -4.678294e-004
1.384639e+003, -7.097758e-004
1.386568e+003, -8.941256e-004
1.388496e+003, -8.764826e-004
1.390425e+003, -7.862337e-004
1.392353e+003, -5.584247e-004
1.394281e+003, -5.215891e-004
1.396210e+003, -3.268197e-004
1.398138e+003, -5.325302e-005
1.400067e+003, -1.999065e-004
1.401995e+003, -3.510602e-004
1.403924e+003, -6.698817e-005
1.405852e+003, -9.825826e-005
1.407781e+003, -2.563782e-004
1.409709e+003, -7.643551e-005
1.411638e+003, 1.460575e-004
1.413566e+003, -5.111098e-006
1.415495e+003, -1.898445e-004
1.417423e+003, -3.889836e-004
1.419352e+003, -7.092729e-004
1.421280e+003, -6.550550e-004
1.423208e+003, -1.374483e-004
1.425137e+003, -1.807734e-004
1.427065e+003, -8.567087e-004
1.428994e+003, -7.990450e-004
1.430922e+003, -1.197793e-004
1.432851e+003, -2.128221e-004
1.434779e+003, -3.752746e-004
1.436708e+003, -4.274361e-004
1.438636e+003, -4.243255e-004
1.440565e+003, -4.966296e-004
1.442493e+003, -3.950894e-004
1.444422e+003, -6.267056e-005
1.446350e+003, -3.684685e-005
1.448279e+003, 1.163706e-004
1.450207e+003, -2.216995e-004
1.452135e+003, -4.722811e-004
1.454064e+003, -1.674928e-004
1.455992e+003, -2.496019e-004
1.457921e+003, -7.844344e-005
1.459849e+003, 2.557859e-004
1.461778e+003, 3.661700e-004
1.463706e+003, 3.060475e-004
1.465635e+003, 1.987256e-004
1.467563e+003, 1.714528e-004
1.469492e+003, 2.392307e-004
1.471420e+003, 4.060231e-004
1.473349e+003, 3.666915e-004
1.475277e+003, 3.621913e-004
1.477206e+003, 5.411729e-005
1.479134e+003, 2.329908e-004
1.481063e+003, 1.219027e-004
1.482991e+003, -2.010167e-005
1.484919e+003, 1.018308e-004
1.486848e+003, 2.584122e-004
1.488776e+003, 2.481006e-004
1.490705e+003, 3.821589e-004
1.492633e+003, 2.839305e-004
1.494562e+003, 2.842844e-004
1.496490e+003, 1.346096e-004
1.498419e+003, 3.647916e-004
1.500347e+003, 7.327609e-004
1.502276e+003, 4.578196e-004
1.504204e+003, 7.958338e-005
1.506133e+003, 3.543161e-004
1.508061e+003, 2.612136e-004
1.509990e+003, -2.603047e-004
1.511918e+003, -7.044375e-004
1.513846e+003, -4.504025e-004
1.515775e+003, -1.253672e-004
1.517703e+003, -2.556965e-004
1.519632e+003, -5.214848e-004
1.521560e+003, -4.318953e-004
1.523489e+003, -5.172044e-004
1.525417e+003, -7.160455e-004
1.527346e+003, -7.669739e-004
1.529274e+003, -3.457479e-004
1.531203e+003, 3.159046e-005
1.533131e+003, -1.350306e-004
1.535060e+003, -3.566369e-004
1.536988e+003, -4.199818e-004
1.538917e+003, -9.192899e-005
1.540845e+003, -6.649643e-005
1.542773e+003, -1.318194e-004
1.544702e+003, -3.828108e-005
1.546630e+003, 7.420033e-005
1.548559e+003, -2.785549e-004
1.550487e+003, -4.379563e-004
1.552416e+003, -1.851469e-006
1.554344e+003, 2.208054e-004
1.556273e+003, -4.874915e-005
1.558201e+003, -4.859194e-004
1.560130e+003, -4.187301e-004
1.562058e+003, -6.332248e-005
1.563987e+003, 1.132116e-005
1.565915e+003, 2.858974e-004
1.567844e+003, 7.701665e-004
1.569772e+003, 4.150383e-004
1.571700e+003, -4.284121e-004
1.573629e+003, -4.463233e-004
1.575557e+003, -3.657229e-004
1.577486e+003, -5.356148e-004
1.579414e+003, -3.662370e-004
1.581343e+003, -6.761402e-005
1.583271e+003, 1.258329e-004
1.585200e+003, 2.904125e-004
1.587128e+003, -7.361919e-005
1.589057e+003, -6.843768e-004
1.590985e+003, -7.717386e-004
1.592914e+003, -2.648644e-004
1.594842e+003, 6.430224e-005
1.596771e+003, -4.227646e-004
1.598699e+003, -4.578345e-004
1.600627e+003, -2.193823e-005
1.602556e+003, 9.928644e-005
1.604484e+003, -1.122169e-004
1.606413e+003, 1.113974e-004
1.608341e+003, 2.606586e-004
1.610270e+003, -1.714751e-005
1.612198e+003, -2.007782e-004
1.614127e+003, 1.748279e-005
1.616055e+003, 2.439693e-004
1.617984e+003, 2.285838e-004
1.619912e+003, 2.955049e-004
1.621841e+003, 2.608858e-004
1.623769e+003, -3.111362e-004
1.625698e+003, -2.546012e-004
1.627626e+003, 9.094179e-005
1.629554e+003, 4.646927e-005
1.631483e+003, -7.795431e-004
1.633411e+003, -8.501299e-004
1.635340e+003, -5.128309e-004
1.637268e+003, -1.443811e-004
1.639197e+003, 1.957789e-004
1.641125e+003, 9.755418e-005
1.643054e+003, 5.086884e-005
1.644982e+003, -3.636256e-005
1.646911e+003, -4.439317e-004
1.648839e+003, -3.688037e-004
1.650768e+003, -2.223998e-006
1.652696e+003, -1.432374e-004
1.654625e+003, 1.130998e-005
1.656553e+003, 3.265738e-004
1.658481e+003, 6.118342e-004
1.660410e+003, 3.982596e-004
1.662338e+003, -3.438145e-004
1.664267e+003, -4.139766e-004
1.666195e+003, 1.894422e-004
1.668124e+003, 4.867464e-005
1.670052e+003, -2.725869e-004
1.671981e+003, 2.067685e-004
1.673909e+003, 7.174537e-004
1.675838e+003, 4.639179e-004
1.677766e+003, 3.231354e-004
1.679695e+003, 4.166588e-004
1.681623e+003, 9.969994e-005
1.683552e+003, -9.007007e-005
1.685480e+003, 7.686764e-005
1.687408e+003, 4.795231e-004
1.689337e+003, 9.377673e-004
1.691265e+003, 1.075611e-003
1.693194e+003, 8.325987e-004
1.695122e+003, 4.318729e-005
1.697051e+003, -2.778471e-004
1.698979e+003, -6.087609e-004
1.700908e+003, -5.289949e-004
1.702836e+003, 5.898997e-005
1.704765e+003, 2.240203e-004
1.706693e+003, 2.178028e-004
1.708622e+003, -1.128949e-004
1.710550e+003, -2.486110e-004
1.712479e+003, -8.247793e-005
1.714407e+003, -5.511940e-005
1.716335e+003, -1.071841e-004
1.718264e+003, -5.671754e-005
1.720192e+003, 1.835525e-004
1.722121e+003, 1.130551e-004
1.724049e+003, 2.003014e-004
1.725978e+003, 4.799664e-004
1.727906e+003, 5.262792e-004
1.729835e+003, 5.573034e-004
1.731763e+003, 3.244728e-004
1.733692e+003, 6.858036e-004
1.735620e+003, 8.640587e-004
1.737549e+003, 6.124154e-004
1.739477e+003, 3.483891e-004
1.741406e+003, -3.580004e-004
1.743334e+003, -6.556883e-004
1.745262e+003, -2.484769e-004
1.747191e+003, -4.044250e-004
1.749119e+003, -3.525540e-004
1.751048e+003, -1.062378e-004
1.752976e+003, -2.539381e-004
1.754905e+003, 2.228916e-004
1.756833e+003, 9.650439e-004
1.758762e+003, 5.428344e-004
1.760690e+003, -2.532527e-004
1.762619e+003, -3.315732e-004
1.764547e+003, 2.616644e-005
1.766476e+003, 2.496913e-004
1.768404e+003, 5.393922e-004
1.770333e+003, 5.594939e-004
1.772261e+003, 3.856942e-004
1.774189e+003, -5.216151e-005
1.776118e+003, 1.610741e-004
1.778046e+003, 3.155023e-004
1.779975e+003, -4.295632e-004
1.781903e+003, -9.161457e-004
1.783832e+003, -3.372878e-004
1.785760e+003, 9.779856e-004
1.787689e+003, 2.160802e-003
1.789617e+003, 1.647562e-003
1.791546e+003, 4.555956e-004
1.793474e+003, -8.738041e-005
1.795403e+003, -1.026392e-004
1.797331e+003, 1.857355e-004
1.799260e+003, 7.843301e-004
1.801188e+003, 4.229620e-004
1.803116e+003, -3.943667e-004
1.805045e+003, -7.138252e-004
1.806973e+003, 2.733395e-004
1.808902e+003, 1.900569e-004
1.810830e+003, -4.801080e-004
1.812759e+003, -1.268603e-003
1.814687e+003, -1.764566e-003
1.816616e+003, -1.115583e-003
1.818544e+003, -4.854202e-004
1.820473e+003, 4.874095e-004
1.822401e+003, 1.149535e-003
1.824330e+003, 2.509803e-004
1.826258e+003, -4.670694e-004
1.828187e+003, 2.940744e-005
1.830115e+003, 1.355395e-003
1.832043e+003, 1.607090e-003
1.833972e+003, 1.106463e-003
1.835900e+003, 8.989573e-004
1.837829e+003, 2.517775e-004
1.839757e+003, 4.308671e-005
1.841686e+003, 1.118332e-004
1.843614e+003, 1.608625e-003
1.845543e+003, 1.735322e-003
1.847471e+003, 8.126944e-004
1.849400e+003, 1.263618e-004
1.851328e+003, -6.991774e-004
1.853257e+003, -8.904114e-004
1.855185e+003, 2.988875e-004
1.857114e+003, 1.037739e-003
1.859042e+003, 6.028637e-004
1.860970e+003, 3.215671e-004
1.862899e+003, -2.843142e-005
1.864827e+003, 2.791807e-004
1.866756e+003, 6.020442e-004
1.868684e+003, 9.986088e-004
1.870613e+003, 1.398526e-003
1.872541e+003, 1.827769e-003
1.874470e+003, 1.421988e-003
1.876398e+003, 3.927425e-004
1.878327e+003, 2.299175e-004
1.880255e+003, 2.138913e-004
1.882184e+003, 6.373599e-004
1.884112e+003, 9.622574e-004
1.886041e+003, -1.431853e-004
1.887969e+003, -1.049750e-003
1.889897e+003, 7.480383e-006
1.891826e+003, -8.502603e-005
1.893754e+003, -2.183989e-003
1.895683e+003, -1.406670e-003
1.897611e+003, 2.635829e-003
1.899540e+003, 4.103117e-003
1.901468e+003, 2.165779e-003
1.903397e+003, 1.413241e-003
1.905325e+003, 1.862183e-003
1.907254e+003, 9.244755e-004
1.909182e+003, 1.325458e-004
1.911111e+003, 5.065277e-004
1.913039e+003, 2.813339e-005
1.914968e+003, -3.314763e-005
1.916896e+003, -6.786361e-004
1.918824e+003, -2.122760e-003
1.920753e+003, -2.473012e-003
1.922681e+003, -4.454106e-004
1.924610e+003, 4.298314e-004
1.926538e+003, 5.786493e-004
1.928467e+003, 5.746037e-004
1.930395e+003, 1.267977e-003
1.932324e+003, 1.577616e-003
1.934252e+003, 7.479489e-004
1.936181e+003, 2.917796e-004
1.938109e+003, 1.358055e-003
1.940038e+003, 1.639977e-003
1.941966e+003, -1.802824e-003
1.943895e+003, -2.417535e-003
1.945823e+003, 7.668138e-004
1.947751e+003, 6.131828e-004
1.949680e+003, 1.028799e-003
1.951608e+003, 1.887158e-003
1.953537e+003, 2.470762e-003
1.955465e+003, 9.219199e-004
1.957394e+003, -1.078464e-003
1.959322e+003, -2.216026e-004
1.961251e+003, -6.328151e-004
1.963179e+003, -1.646161e-003
1.965108e+003, -2.389267e-003
1.967036e+003, 1.169816e-003
1.968965e+003, 2.175368e-003
1.970893e+003, 5.053952e-004
1.972822e+003, 1.752004e-003
1.974750e+003, 2.281159e-003
1.976678e+003, 3.607944e-003
1.978607e+003, 5.812228e-003
1.980535e+003, 5.034387e-003
1.982464e+003, 3.769338e-003
1.984392e+003, 4.386939e-003
1.986321e+003, 1.953170e-003
1.988249e+003, -2.737567e-003
1.990178e+003, -1.998298e-003
1.992106e+003, 9.392202e-004
1.994035e+003, 1.795352e-003
1.995963e+003, 6.853938e-004
1.997892e+003, 9.542555e-004
1.999820e+003, -8.355826e-004
2.001749e+003, -1.099423e-003
2.003677e+003, 9.523630e-004
2.005605e+003, 1.149833e-003
2.007534e+003, 5.237311e-004
2.009462e+003, -2.435595e-004
2.011391e+003, -2.441064e-003
2.013319e+003, -4.502550e-003
2.015248e+003, 6.915703e-004
2.017176e+003, 4.562266e-003
2.019105e+003, 5.058348e-004
2.021033e+003, -3.613055e-003
2.022962e+003, -9.709373e-004
2.024890e+003, 1.583740e-003
2.026819e+003, -4.883260e-004
2.028747e+003, -2.462864e-003
2.030676e+003, -2.685815e-003
2.032604e+003, -9.848028e-004
2.034532e+003, 1.921177e-003
2.036461e+003, 2.341248e-003
2.038389e+003, 4.041478e-003
2.040318e+003, 5.895697e-003
2.042246e+003, 5.638972e-003
2.044175e+003, 6.524839e-003
2.046103e+003, 5.749129e-003
2.048032e+003, 3.758684e-003
2.049960e+003, 1.929320e-003
2.051889e+003, -1.203716e-004
2.053817e+003, -9.351224e-005
2.055746e+003, -2.722070e-004
2.057674e+003, -3.012195e-004
2.059603e+003, 9.655729e-004
2.061531e+003, 2.247609e-003
2.063459e+003, 8.021891e-004
2.065388e+003, 3.494397e-004
2.067316e+003, 3.072001e-003
2.069245e+003, 2.178453e-003
2.071173e+003, 1.777411e-004
2.073102e+003, 4.002452e-005
2.075030e+003, 2.367072e-003
2.076959e+003, 3.804579e-003
2.078887e+003, 1.611531e-003
2.080816e+003, 1.318455e-004
2.082744e+003, 6.938502e-004
2.084673e+003, 2.727501e-003
2.086601e+003, 1.016483e-003
2.088530e+003, -1.837611e-003
2.090458e+003, -2.104327e-003
2.092386e+003, -1.511738e-003
2.094315e+003, -2.584174e-003
2.096243e+003, -1.075163e-003
2.098172e+003, 1.608230e-003
2.100100e+003, 7.504448e-004
2.102029e+003, -3.181994e-004
2.103957e+003, -1.565382e-003
2.105886e+003, -1.990870e-003
2.107814e+003, -6.422997e-004
2.109743e+003, -1.830198e-003
2.111671e+003, -3.131330e-003
2.113600e+003, -1.861699e-003
2.115528e+003, -9.692237e-004
2.117457e+003, 6.359220e-004
2.119385e+003, -1.011342e-004
2.121313e+003, -2.904356e-003
2.123242e+003, -2.142347e-003
2.125170e+003, -5.932152e-005
2.127099e+003, -2.027005e-003
2.129027e+003, -2.973765e-003
2.130956e+003, -4.856244e-003
2.132884e+003, -6.361090e-003
2.134813e+003, -6.290063e-003
2.136741e+003, -4.378527e-003
2.138670e+003, -3.947727e-003
2.140598e+003, -4.176788e-003
2.142527e+003, -2.178654e-003
2.144455e+003, -2.910875e-003
2.146384e+003, -2.157934e-003
2.148312e+003, -2.947874e-003
2.150240e+003, -3.094956e-003
2.152169e+003, -3.687739e-003
2.154097e+003, -3.621668e-003
2.156026e+003, -3.074832e-003
2.157954e+003, 9.071231e-004
2.159883e+003, 7.411934e-003
2.161811e+003, 6.838411e-003
2.163740e+003, 5.713053e-003
2.165668e+003, 4.584834e-003
2.167597e+003, 2.705581e-003
2.169525e+003, -3.339499e-004
2.171454e+003, -3.807299e-003
2.173382e+003, -3.750719e-003
2.175311e+003, 1.402333e-003
2.177239e+003, 4.071407e-003
2.179167e+003, 3.282249e-003
2.181096e+003, 1.759931e-003
2.183024e+003, 2.275355e-003
2.184953e+003, 6.484091e-004
2.186881e+003, 1.367442e-003
2.188810e+003, 3.386997e-003
2.190738e+003, 1.700968e-003
2.192667e+003, 1.504540e-003
2.194595e+003, 1.644135e-003
2.196524e+003, -1.433194e-004
2.198452e+003, -1.582757e-003
2.200381e+003, -1.563780e-003
2.202309e+003, -2.066299e-003
2.204238e+003, -1.517817e-003
2.206166e+003, 1.089022e-003
2.208094e+003, 7.854104e-004
2.210023e+003, -1.250446e-003
2.211951e+003, -2.043776e-003
2.213880e+003, 7.204935e-004
2.215808e+003, 3.840826e-003
2.217737e+003, 2.635822e-003
2.219665e+003, -5.927235e-004
2.221594e+003, -2.936177e-003
2.223522e+003, -2.358064e-003
2.225451e+003, 1.484074e-003
2.227379e+003, 2.960227e-003
2.229308e+003, 1.080759e-003
2.231236e+003, 4.387125e-004
2.233165e+003, 7.715300e-004
2.235093e+003, 1.065284e-003
2.237021e+003, 5.424917e-004
2.238950e+003, -1.024589e-003
2.240878e+003, -2.773181e-004
2.242807e+003, 1.051024e-003
2.244735e+003, 1.370624e-003
2.246664e+003, 2.635092e-003
2.248592e+003, 3.212281e-003
2.250521e+003, 2.011329e-003
2.252449e+003, 9.240657e-004
2.254378e+003, 1.440495e-004
2.256306e+003, 1.730435e-003
2.258235e+003, 1.359046e-003
2.260163e+003, -1.352049e-003
2.262092e+003, -1.645550e-003
2.264020e+003, -7.126778e-004
2.265948e+003, 9.242296e-004
2.267877e+003, 1.594201e-004
2.269805e+003, -1.767494e-003
2.271734e+003, -1.763761e-003
2.273662e+003, -1.205787e-003
2.275591e+003, -2.150781e-003
2.277519e+003, -2.057798e-003
2.279448e+003, -7.917508e-004
2.281376e+003, 1.330733e-003
2.283305e+003, 2.392001e-003
2.285233e+003, 1.175486e-003
2.287162e+003, 2.149157e-003
2.289090e+003, 1.890145e-003
2.291019e+003, 3.333315e-004
2.292947e+003, -9.263828e-004
2.294875e+003, -1.411654e-003
2.296804e+003, -5.808994e-004
2.298732e+003, -3.598258e-004
2.300661e+003, -1.474440e-003
2.302589e+003, -9.711981e-004
2.304518e+003, 5.817264e-004
2.306446e+003, 2.490878e-004
2.308375e+003, -4.545152e-004
2.310303e+003, -1.456775e-003
2.312232e+003, -7.444620e-004
2.314160e+003, -6.841868e-004
2.316089e+003, -5.817115e-004
2.318017e+003, 2.148077e-004
2.319946e+003, 8.336380e-004
2.321874e+003, 1.424588e-003
2.323802e+003, 1.991481e-003
2.325731e+003, 1.355492e-003
2.327659e+003, 7.429719e-005
2.329588e+003, -8.834675e-004
2.331516e+003, -8.797199e-004
2.333445e+003, -3.465265e-004
2.335373e+003, -2.347380e-004
2.337302e+003, -7.712319e-004
2.339230e+003, -6.483719e-004
2.341159e+003, -4.887581e-006
2.343087e+003, 2.504140e-004
2.345016e+003, -4.607216e-004
2.346944e+003, -1.483895e-003
2.348873e+003, -1.306459e-003
2.350801e+003, 2.047718e-004
2.352729e+003, 5.354285e-004
2.354658e+003, -6.616190e-004
2.356586e+003, 1.478344e-004
2.358515e+003, 7.896274e-004
2.360443e+003, 7.807091e-004
2.362372e+003, 1.005419e-003
2.364300e+003, 3.817454e-004
2.366229e+003, 1.399070e-004
2.368157e+003, -1.098514e-004
2.370086e+003, -5.986542e-004
2.372014e+003, -8.060262e-004
2.373943e+003, 2.411157e-004
2.375871e+003, 4.026294e-004
2.377800e+003, -3.006309e-005
2.379728e+003, 8.154660e-005
2.381656e+003, 8.240640e-004
2.383585e+003, 9.310618e-004
2.385513e+003, 1.070447e-003
2.387442e+003, 9.905547e-004
2.389370e+003, -3.017485e-005
2.391299e+003, -3.306493e-004
2.393227e+003, -1.360402e-004
2.395156e+003, 1.689419e-004
2.397084e+003, 7.101521e-004
2.399013e+003, 1.221173e-003
2.400941e+003, 1.837596e-003
2.402870e+003, 1.126871e-003
2.404798e+003, -1.096837e-003
2.406727e+003, -5.087554e-004
2.408655e+003, 8.549616e-004
2.410583e+003, 9.037554e-004
2.412512e+003, 1.058914e-003
2.414440e+003, 1.244672e-003
2.416369e+003, 1.809448e-003
2.418297e+003, -4.387647e-005
2.420226e+003, -1.336522e-003
2.422154e+003, 5.406886e-005
2.424083e+003, 1.083694e-003
2.426011e+003, -1.855791e-004
2.427940e+003, -9.964854e-004
2.429868e+003, 1.650527e-004
2.431797e+003, 6.741881e-004
2.433725e+003, 2.118617e-003
2.435654e+003, 9.907559e-004
2.437582e+003, 1.724213e-004
2.439510e+003, 1.194313e-003
2.441439e+003, 1.125880e-003
2.443367e+003, 1.054384e-003
2.445296e+003, 9.793490e-004
2.447224e+003, 7.769167e-004
2.449153e+003, 8.479580e-004
2.451081e+003, 1.466423e-004
2.453010e+003, -1.658738e-003
2.454938e+003, -1.321435e-003
2.456867e+003, -3.729165e-004
2.458795e+003, -1.346767e-004
2.460724e+003, -9.691045e-004
2.462652e+003, -1.224093e-003
2.464581e+003, -1.495324e-003
2.466509e+003, -1.209781e-003
2.468438e+003, 1.222789e-004
2.470366e+003, 2.103001e-004
2.472294e+003, -5.267560e-005
2.474223e+003, 4.128888e-004
2.476151e+003, 1.085356e-003
2.478080e+003, 8.314848e-004
2.480008e+003, -1.662225e-004
2.481937e+003, -9.803101e-004
2.483865e+003, 3.973097e-004
2.485794e+003, -1.642182e-004
2.487722e+003, -7.748529e-004
2.489651e+003, 6.620660e-004
2.491579e+003, 1.125239e-003
2.493508e+003, -1.326725e-004
2.495436e+003, -1.018167e-003
2.497365e+003, -7.302836e-004
2.499293e+003, 3.082082e-004
2.501221e+003, 7.558092e-004
2.503150e+003, -3.878921e-004
2.505078e+003, -1.553424e-003
2.507007e+003, -7.021800e-004
2.508935e+003, 4.476979e-004
2.510864e+003, 4.458651e-004
2.512792e+003, -9.212494e-004
2.514721e+003, -7.871985e-004
2.516649e+003, 3.857240e-004
2.518578e+003, 1.202822e-004
2.520506e+003, -6.347895e-006
2.522435e+003, -2.633780e-004
2.524363e+003, -9.001940e-004
2.526292e+003, -6.906241e-004
2.528220e+003, -1.892656e-003
2.530148e+003, -1.941919e-003
2.532077e+003, 4.966184e-004
2.534005e+003, 1.058601e-003
2.535934e+003, -3.220513e-004
2.537862e+003, -5.283579e-004
2.539791e+003, 1.097389e-003
2.541719e+003, 7.592365e-004
2.543648e+003, -3.561005e-004
2.545576e+003, -1.260884e-003
2.547505e+003, -1.921356e-003
2.549433e+003, -1.420431e-003
2.551362e+003, -5.825683e-004
2.553290e+003, -1.072951e-003
2.555219e+003, -9.077564e-004
2.557147e+003, 8.500293e-004
2.559075e+003, 1.060791e-003
2.561004e+003, 1.077153e-003
2.562932e+003, 6.554797e-004
2.564861e+003, -8.155331e-004
2.566789e+003, -1.231715e-003
2.568718e+003, -1.453921e-003
2.570646e+003, -1.049280e-003
2.572575e+003, 1.812652e-004
2.574503e+003, 1.229569e-003
2.576432e+003, -1.381934e-004
2.578360e+003, -1.541488e-003
2.580289e+003, -8.235201e-004
2.582217e+003, 3.699735e-004
2.584146e+003, 5.589724e-004
2.586074e+003, -7.885993e-004
2.588002e+003, -1.104549e-003
2.589931e+003, -1.000822e-003
2.591859e+003, -1.920998e-003
2.593788e+003, -1.572847e-003
2.595716e+003, 3.716871e-004
2.597645e+003, -1.696572e-004
2.599573e+003, -7.872060e-004
2.601502e+003, 9.728894e-004
2.603430e+003, 5.186424e-004
2.605359e+003, -1.121834e-004
2.607287e+003, -5.247667e-004
2.609216e+003, 4.448742e-004
2.611144e+003, 8.660480e-004
2.613073e+003, 2.789944e-004
2.615001e+003, 4.064590e-004
2.616929e+003, -3.803596e-004
2.618858e+003, -1.923636e-003
2.620786e+003, -2.171546e-004
2.622715e+003, 9.620711e-004
2.624643e+003, 2.458021e-004
2.626572e+003, -4.637241e-004
2.628500e+003, -4.360601e-004
2.630429e+003, -5.470440e-004
2.632357e+003, 3.033876e-005
2.634286e+003, -4.326999e-004
2.636214e+003, -7.433072e-004
2.638143e+003, 1.521856e-004
2.640071e+003, -7.844716e-004
2.642000e+003, -1.304872e-003
2.643928e+003, -1.001380e-003
2.645856e+003, -7.142574e-004
2.647785e+003, -7.544756e-004
2.649713e+003, -4.744753e-004
2.651642e+003, 1.512617e-004
2.653570e+003, -2.150983e-004
2.655499e+003, -8.269325e-004
2.657427e+003, -7.625520e-004
2.659356e+003, -5.354658e-004
2.661284e+003, -5.927831e-004
2.663213e+003, -6.961524e-004
2.665141e+003, -1.575761e-003
2.667070e+003, -8.225814e-004
2.668998e+003, 3.574491e-004
2.670927e+003, 5.651191e-004
2.672855e+003, 4.495084e-004
2.674783e+003, 5.073845e-004
2.676712e+003, 5.728006e-004
2.678640e+003, 2.380684e-004
2.680569e+003, 5.609170e-004
2.682497e+003, 1.353964e-003
2.684426e+003, 5.901307e-004
2.686354e+003, -6.258190e-004
2.688283e+003, -4.825890e-004
2.690211e+003, 3.623664e-004
2.692140e+003, 1.239792e-003
2.694068e+003, 4.712790e-004
2.695997e+003, -2.894029e-004
2.697925e+003, -4.576966e-004
2.699854e+003, -2.710000e-004
2.701782e+003, -4.101545e-004
2.703710e+003, -3.982931e-004
2.705639e+003, -3.746077e-004
2.707567e+003, -4.345104e-004
2.709496e+003, -1.649112e-004
2.711424e+003, -1.013391e-003
2.713353e+003, -7.754266e-004
2.715281e+003, -4.247576e-005
2.717210e+003, 3.649741e-004
2.719138e+003, 6.433129e-004
2.721067e+003, -1.151338e-004
2.722995e+003, -1.056075e-003
2.724924e+003, -1.124606e-003
2.726852e+003, -7.326528e-004
2.728781e+003, -1.175173e-003
2.730709e+003, -7.673129e-004
2.732637e+003, 6.242543e-004
2.734566e+003, 7.139072e-004
2.736494e+003, -2.555028e-004
2.738423e+003, -6.242469e-004
2.740351e+003, -1.255050e-004
2.742280e+003, 2.398640e-004
2.744208e+003, -4.059970e-004
2.746137e+003, -5.540177e-004
2.748065e+003, -3.733858e-004
2.749994e+003, 1.247972e-005
2.751922e+003, 5.634800e-004
2.753851e+003, -4.047304e-004
2.755779e+003, -1.380183e-003
2.757708e+003, -5.420819e-004
2.759636e+003, 8.026510e-005
2.761564e+003, -5.398095e-004
2.763493e+003, -1.105033e-003
2.765421e+003, -7.930398e-004
2.767350e+003, -4.362389e-004
2.769278e+003, -7.484853e-005
2.771207e+003, 5.878136e-004
2.773135e+003, 2.884269e-004
2.775064e+003, -7.406920e-004
2.776992e+003, -1.267776e-003
2.778921e+003, -3.742129e-004
2.780849e+003, 2.271682e-004
2.782778e+003, -6.284267e-004
2.784706e+003, -6.078035e-004
2.786635e+003, -8.401275e-004
2.788563e+003, -5.228892e-004
2.790491e+003, -1.475662e-004
2.792420e+003, -9.609312e-004
2.794348e+003, -8.273870e-004
2.796277e+003, -9.274483e-004
2.798205e+003, -7.420480e-004
2.800134e+003, -1.059696e-003
2.802062e+003, -7.404089e-004
2.803991e+003, -1.419038e-004
2.805919e+003, 1.426935e-004
2.807848e+003, 1.612604e-004
2.809776e+003, 4.160404e-004
2.811705e+003, 9.330362e-004
2.813633e+003, 5.751401e-004
2.815562e+003, 2.081394e-004
2.817490e+003, 2.839118e-004
2.819418e+003, 4.955083e-004
2.821347e+003, 5.892515e-004
2.823275e+003, -2.698898e-004
2.825204e+003, -1.178786e-003
2.827132e+003, -6.338209e-004
2.829061e+003, 8.495450e-004
2.830989e+003, 9.973645e-004
2.832918e+003, 8.765459e-004
2.834846e+003, -3.818572e-004
2.836775e+003, -1.169354e-003
2.838703e+003, -7.525980e-004
2.840632e+003, -1.599789e-004
2.842560e+003, -1.133934e-003
2.844489e+003, -1.303077e-003
2.846417e+003, -1.018494e-003
2.848345e+003, -1.364827e-003
2.850274e+003, -3.186762e-004
2.852202e+003, -2.359599e-004
2.854131e+003, -3.801733e-004
2.856059e+003, 4.544854e-004
2.857988e+003, -1.327246e-004
2.859916e+003, 2.168864e-004
2.861845e+003, -4.238635e-004
2.863773e+003, -1.708269e-004
2.865702e+003, 1.180083e-003
2.867630e+003, 2.150387e-003
2.869559e+003, 2.362967e-003
2.871487e+003, 1.560718e-003
2.873416e+003, -3.656149e-004
2.875344e+003, -9.670407e-004
2.877272e+003, 6.343424e-005
2.879201e+003, 1.171470e-003
2.881129e+003, 7.175356e-004
2.883058e+003, 5.180091e-004
2.884986e+003, -7.167608e-004
2.886915e+003, -1.651600e-003
2.888843e+003, -7.158518e-004
2.890772e+003, -2.026558e-004
2.892700e+003, 1.017138e-003
2.894629e+003, 7.553548e-004
2.896557e+003, 2.652407e-006
2.898486e+003, -3.323853e-004
2.900414e+003, -8.182973e-004
2.902343e+003, 1.953989e-004
2.904271e+003, 1.009762e-003
2.906199e+003, -4.800111e-004
2.908128e+003, -1.003891e-003
2.910056e+003, 1.355410e-004
2.911985e+003, 6.761253e-004
2.913913e+003, 3.239363e-004
2.915842e+003, -6.196201e-004
2.917770e+003, -1.173377e-003
2.919699e+003, -1.659244e-004
2.921627e+003, 6.826371e-004
2.923556e+003, 4.694015e-004
2.925484e+003, 1.180857e-003
2.927413e+003, -2.825260e-004
2.929341e+003, -9.729564e-004
2.931270e+003, -1.004800e-003
2.933198e+003, -1.095206e-003
2.935126e+003, 2.361089e-004
2.937055e+003, 1.098186e-003
2.938983e+003, -1.946092e-004
2.940912e+003, -1.988292e-003
2.942840e+003, -1.504362e-003
2.944769e+003, -1.977503e-003
2.946697e+003, -2.029628e-003
2.948626e+003, -1.026392e-003
2.950554e+003, -1.210988e-003
2.952483e+003, -1.828372e-003
2.954411e+003, -5.700141e-004
2.956340e+003, -4.788339e-004
2.958268e+003, -7.212758e-004
2.960197e+003, 6.054491e-004
2.962125e+003, 5.552173e-004
2.964053e+003, -7.030070e-004
2.965982e+003, -2.953708e-004
2.967910e+003, 2.395958e-004
2.969839e+003, -3.121793e-004
2.971767e+003, -7.819980e-004
2.973696e+003, 6.675720e-006
2.975624e+003, -1.611859e-004
2.977553e+003, 6.511807e-004
2.979481e+003, -1.820624e-004
2.981410e+003, -2.326027e-003
2.983338e+003, -8.113831e-004
2.985267e+003, 8.768439e-004
2.987195e+003, -7.543415e-004
2.989124e+003, -1.921684e-003
2.991052e+003, 2.883971e-004
2.992980e+003, 3.974885e-004
2.994909e+003, 6.845593e-005
2.996837e+003, 1.021475e-004
2.998766e+003, -1.707673e-004
3.000694e+003, -1.051426e-004
3.002623e+003, -5.262941e-004
3.004551e+003, -1.267001e-003
3.006480e+003, -4.211962e-004
3.008408e+003, -6.147623e-004
3.010337e+003, -2.440661e-004
3.012265e+003, 2.352893e-004
3.014194e+003, -5.984306e-005
3.016122e+003, -6.252229e-004
3.018051e+003, -1.087174e-003
3.019979e+003, -4.050285e-004
3.021907e+003, -2.647191e-004
3.023836e+003, -2.273917e-005
3.025764e+003, 6.352961e-004
3.027693e+003, -2.450943e-004
3.029621e+003, -1.144662e-003
3.031550e+003, -1.060233e-003
3.033478e+003, -2.391785e-004
3.035407e+003, -4.274994e-004
3.037335e+003, 4.015416e-004
3.039264e+003, 3.094673e-004
3.041192e+003, 2.353787e-004
3.043121e+003, 7.206798e-004
3.045049e+003, -6.783754e-004
3.046978e+003, -4.535317e-004
3.048906e+003, 8.931160e-004
3.050834e+003, 1.052439e-003
3.052763e+003, 5.272031e-005
3.054691e+003, -4.892051e-005
3.056620e+003, 1.691729e-004
3.058548e+003, 4.790127e-004
3.060477e+003, 1.185000e-003
3.062405e+003, -4.713982e-004
3.064334e+003, -2.308518e-003
3.066262e+003, -2.126902e-003
3.068191e+003, -7.389486e-004
3.070119e+003, -6.201416e-004
3.072048e+003, -8.967519e-004
3.073976e+003, -8.976161e-004
3.075905e+003, -1.589403e-003
3.077833e+003, -2.458841e-004
3.079761e+003, 1.247376e-003
3.081690e+003, 1.767635e-003
3.083618e+003, 1.026154e-003
3.085547e+003, 4.428327e-004
3.087475e+003, 5.975217e-004
3.089404e+003, -7.171929e-004
3.091332e+003, -2.804399e-003
3.093261e+003, -1.875430e-003
3.095189e+003, -3.157556e-005
3.097118e+003, -3.197938e-004
3.099046e+003, -2.176285e-003
3.100975e+003, -2.704978e-003
3.102903e+003, -1.668647e-003
3.104832e+003, -2.265245e-003
3.106760e+003, -1.591831e-003
3.108688e+003, 3.834367e-004
3.110617e+003, 1.896635e-003
3.112545e+003, 1.386657e-003
3.114474e+003, -8.580089e-005
3.116402e+003, -1.785457e-003
3.118331e+003, -1.308903e-003
3.120259e+003, 1.132488e-005
3.122188e+003, 1.525432e-003
3.124116e+003, 1.687825e-003
3.126045e+003, 5.937070e-004
3.127973e+003, -3.656149e-004
3.129902e+003, 5.591959e-004
3.131830e+003, 1.601577e-003
3.133759e+003, 2.579972e-003
3.135687e+003, 1.871422e-003
3.137615e+003, 1.170382e-003
3.139544e+003, 1.911968e-004
3.141472e+003, 6.280541e-004
3.143401e+003, 3.310293e-004
3.145329e+003, -1.554266e-003
3.147258e+003, -3.618062e-003
3.149186e+003, -3.174305e-003
3.151115e+003, 1.903921e-004
3.153043e+003, 1.717776e-003
3.154972e+003, -6.238371e-004
3.156900e+003, -1.199812e-003
3.158829e+003, 1.286492e-003
3.160757e+003, 2.284944e-003
3.162686e+003, 2.208829e-003
3.164614e+003, 1.371264e-003
3.166542e+003, 3.446043e-004
3.168471e+003, 8.457452e-004
3.170399e+003, 8.250177e-004
3.172328e+003, -1.330525e-003
3.174256e+003, -3.156707e-003
3.176185e+003, -2.315417e-003
3.178113e+003, -4.359931e-004
3.180042e+003, -6.830692e-005
3.181970e+003, -7.065535e-004
3.183899e+003, -1.775324e-004
3.185827e+003, 9.741336e-004
3.187756e+003, -4.997104e-004
3.189684e+003, -2.776980e-004
3.191613e+003, -2.286881e-004
3.193541e+003, -8.988082e-004
3.195469e+003, 1.297742e-004
3.197398e+003, 3.318042e-004
3.199326e+003, 7.797778e-005
3.201255e+003, 2.479404e-004
3.203183e+003, 6.556511e-004
3.205112e+003, 1.956746e-003
3.207040e+003, 2.312362e-003
3.208969e+003, 1.143098e-003
3.210897e+003, -1.191095e-003
3.212826e+003, -3.667161e-003
3.214754e+003, -2.054825e-003
3.216683e+003, -2.042219e-003
3.218611e+003, -1.250178e-003
3.220540e+003, 3.841370e-004
3.222468e+003, 5.460680e-004
3.224396e+003, -6.446689e-004
3.226325e+003, -6.606579e-004
3.228253e+003, -6.583482e-004
3.230182e+003, -4.483014e-004
3.232110e+003, 2.794564e-004
3.234039e+003, 8.416921e-004
3.235967e+003, -7.025152e-004
3.237896e+003, -1.935318e-003
3.239824e+003, -2.183408e-003
3.241753e+003, -2.437949e-003
3.243681e+003, -1.639962e-003
3.245610e+003, -1.718089e-003
3.247538e+003, 7.525086e-006
3.249467e+003, 2.777502e-003
3.251395e+003, 1.367867e-003
3.253323e+003, -2.561480e-003
3.255252e+003, -1.440912e-003
3.257180e+003, -9.811521e-004
3.259109e+003, -2.872586e-003
3.261037e+003, -1.808360e-003
3.262966e+003, -9.715855e-004
3.264894e+003, -1.525626e-003
3.266823e+003, -1.317456e-003
3.268751e+003, -6.270558e-004
3.270680e+003, -1.812279e-004
3.272608e+003, -5.661100e-004
3.274537e+003, -6.894022e-004
3.276465e+003, -4.343688e-004
3.278394e+003, -9.060204e-004
3.280322e+003, -1.273811e-003
3.282250e+003, -2.028510e-003
3.284179e+003, -4.023314e-004
3.286107e+003, 2.576187e-003
3.288036e+003, 1.976222e-003
3.289964e+003, -1.878828e-003
3.291893e+003, -3.432527e-003
3.293821e+003, -1.832202e-003
3.295750e+003, 3.010780e-004
3.297678e+003, 1.918882e-003
3.299607e+003, -6.163418e-004
3.301535e+003, -9.524524e-004
3.303464e+003, 4.979521e-004
3.305392e+003, -1.044288e-003
3.307321e+003, -1.696199e-004
3.309249e+003, -2.957687e-003
3.311177e+003, -2.117470e-003
3.313106e+003, -9.998679e-005
3.315034e+003, 1.049533e-003
3.316963e+003, 1.203611e-003
3.318891e+003, 1.882717e-003
3.320820e+003, 3.071815e-003
3.322748e+003, 2.086878e-003
3.324677e+003, -2.861470e-004
3.326605e+003, -9.529591e-004
3.328534e+003, -1.046062e-003
3.330462e+003, -8.875579e-004
3.332391e+003, -1.108527e-003
3.334319e+003, -1.840293e-005
3.336248e+003, 1.622036e-003
3.338176e+003, 6.927401e-004
3.340104e+003, 3.780425e-004
3.342033e+003, 1.844749e-003
3.343961e+003, 1.079008e-003
3.345890e+003, 1.546681e-003
3.347818e+003, 1.660138e-004
3.349747e+003, -9.402931e-004
3.351675e+003, -7.494837e-004
3.353604e+003, -3.202707e-004
3.355532e+003, -1.055434e-003
3.357461e+003, -1.035869e-003
3.359389e+003, 1.323819e-004
3.361318e+003, 1.579300e-003
3.363246e+003, 2.170414e-003
3.365175e+003, -5.582273e-004
3.367103e+003, -2.510786e-003
3.369031e+003, -1.123652e-003
3.370960e+003, -7.911772e-004
3.372888e+003, -6.362945e-004
3.374817e+003, -2.680719e-004
3.376745e+003, -2.627343e-003
3.378674e+003, -1.388848e-003
3.380602e+003, -9.729862e-004
3.382531e+003, -1.470000e-003
3.384459e+003, -3.985763e-004
3.386388e+003, 4.986674e-004
3.388316e+003, 2.445087e-003
3.390245e+003, 1.779869e-003
3.392173e+003, 5.722940e-004
3.394102e+003, -8.895248e-004
3.396030e+003, -3.472418e-003
3.397958e+003, -3.247127e-003
3.399887e+003, -1.338124e-005
3.401815e+003, 4.407912e-004
3.403744e+003, -1.066238e-003
3.405672e+003, -7.206351e-004
3.407601e+003, -1.328737e-004
3.409529e+003, 1.306683e-004
3.411458e+003, 1.342461e-003
3.413386e+003, 3.423393e-004
3.415315e+003, 7.804036e-004
3.417243e+003, 1.553178e-003
3.419172e+003, -1.879185e-004
3.421100e+003, -4.454851e-004
3.423029e+003, -7.431209e-005
3.424957e+003, -1.504868e-004
3.426885e+003, 3.715456e-004
3.428814e+003, 3.637820e-004
3.430742e+003, -2.141446e-004
3.432671e+003, -1.127109e-003
3.434599e+003, -2.490431e-003
3.436528e+003, -2.292752e-003
3.438456e+003, -1.152545e-003
3.440385e+003, -5.339384e-004
3.442313e+003, -3.997982e-005
3.444242e+003, -3.513843e-004
3.446170e+003, -1.168072e-003
3.448099e+003, 6.335527e-004
3.450027e+003, 2.137452e-003
3.451956e+003, 1.803130e-003
3.453884e+003, 3.549159e-004
3.455813e+003, -1.620084e-003
3.457741e+003, -2.713203e-003
3.459669e+003, -2.553746e-003
3.461598e+003, -2.817214e-003
3.463526e+003, -2.169907e-003
3.465455e+003, 1.653135e-004
3.467383e+003, 2.169296e-003
3.469312e+003, -2.823770e-004
3.471240e+003, -1.747996e-003
3.473169e+003, -1.763850e-004
3.475097e+003, -1.268193e-003
3.477026e+003, -1.760125e-003
3.478954e+003, -1.793370e-003
3.480883e+003, -2.039403e-003
3.482811e+003, 1.950130e-003
3.484740e+003, 4.758224e-003
3.486668e+003, 2.786621e-003
3.488596e+003, 7.957071e-004
3.490525e+003, -1.463324e-003
3.492453e+003, -1.251265e-003
3.494382e+003, -1.833439e-003
3.496310e+003, -1.690567e-003
3.498239e+003, 1.212507e-004
3.500167e+003, -4.893094e-004
3.502096e+003, -4.200041e-004
3.504024e+003, 2.520829e-004
3.505953e+003, 6.175935e-004
3.507881e+003, -9.522438e-004
3.509810e+003, -1.073495e-003
3.511738e+003, -1.127526e-003
3.513667e+003, -3.094077e-003
3.515595e+003, -1.366943e-003
3.517523e+003, 3.120452e-004
3.519452e+003, 1.545072e-003
3.521380e+003, 2.312854e-003
3.523309e+003, 1.482248e-003
3.525237e+003, -1.520514e-004
3.527166e+003, 4.109591e-004
3.529094e+003, 1.404583e-003
3.531023e+003, 6.530881e-004
3.532951e+003, 2.282381e-003
3.534880e+003, 4.948527e-004
3.536808e+003, -1.955912e-003
3.538737e+003, -1.860544e-003
3.540665e+003, -1.452565e-004
3.542594e+003, 3.722310e-005
3.544522e+003, -1.430467e-003
3.546450e+003, -1.142427e-003
3.548379e+003, -1.334578e-003
3.550307e+003, -1.804888e-003
3.552236e+003, -2.376556e-003
3.554164e+003, 8.837432e-004
3.556093e+003, 4.311189e-003
3.558021e+003, 2.062723e-003
3.559950e+003, 4.369020e-004
3.561878e+003, 1.746625e-003
3.563807e+003, 1.888230e-003
3.565735e+003, -9.029657e-004
3.567664e+003, -3.052890e-003
3.569592e+003, -5.180672e-003
3.571521e+003, -3.131181e-003
3.573449e+003, -7.941127e-004
3.575377e+003, -2.282187e-003
3.577306e+003, -1.773328e-003
3.579234e+003, -9.774566e-004
3.581163e+003, -5.236417e-004
3.583091e+003, 6.195456e-004
3.585020e+003, 2.858490e-004
3.586948e+003, -2.488196e-003
3.588877e+003, -8.792430e-004
3.590805e+003, 3.111064e-004
3.592734e+003, -8.358359e-004
3.594662e+003, -1.213253e-003
3.596591e+003, -1.707003e-003
3.598519e+003, -3.116250e-003
3.600448e+003, -1.554236e-003
3.602376e+003, -1.655668e-004
3.604304e+003, 2.652019e-003
3.606233e+003, 2.220824e-003
3.608161e+003, -1.466721e-004
3.610090e+003, 1.967534e-003
3.612018e+003, 3.047794e-003
3.613947e+003, 2.201021e-003
3.615875e+003, 2.835274e-003
3.617804e+003, 3.364086e-004
3.619732e+003, -4.657492e-003
3.621661e+003, -4.379094e-003
3.623589e+003, -3.019989e-003
3.625518e+003, -2.145380e-003
3.627446e+003, 1.652956e-003
3.629375e+003, 4.055291e-003
3.631303e+003, 1.847297e-004
3.633231e+003, -5.658567e-004
3.635160e+003, 1.635030e-003
3.637088e+003, 2.867565e-003
3.639017e+003, 1.493424e-003
3.640945e+003, 1.227707e-004
3.642874e+003, -1.408786e-003
3.644802e+003, -3.672361e-003
3.646731e+003, -4.927278e-003
3.648659e+003, -2.765164e-003
3.650588e+003, 2.988920e-003
3.652516e+003, 9.594113e-004
3.654445e+003, -3.470540e-003
3.656373e+003, -3.266528e-003
3.658302e+003, -1.122683e-003
3.660230e+003, 2.525270e-003
3.662158e+003, 3.326386e-003
3.664087e+003, 2.265543e-003
3.666015e+003, -5.827993e-004
3.667944e+003, 1.998976e-003
3.669872e+003, 3.420085e-003
3.671801e+003, 1.387998e-003
3.673729e+003, 2.320856e-004
3.675658e+003, -3.514975e-003
3.677586e+003, -8.096606e-003
3.679515e+003, -7.692218e-003
3.681443e+003, -5.202830e-003
3.683372e+003, -2.817512e-004
3.685300e+003, 7.272214e-004
3.687229e+003, 1.478046e-004
3.689157e+003, 6.998926e-004
3.691085e+003, 5.014241e-004
3.693014e+003, -2.513006e-003
3.694942e+003, -2.093196e-003
3.696871e+003, 2.435148e-004
3.698799e+003, 5.517751e-004
3.700728e+003, 6.763041e-004
3.702656e+003, 1.103476e-003
3.704585e+003, 4.564226e-004
3.706513e+003, -6.477982e-004
3.708442e+003, -1.475081e-003
3.710370e+003, 4.745871e-004
3.712299e+003, 2.743348e-003
3.714227e+003, 1.864791e-003
3.716156e+003, -4.487336e-004
3.718084e+003, -1.955718e-003
3.720012e+003, -1.151398e-003
3.721941e+003, 6.407499e-004
3.723869e+003, 5.895793e-004
3.725798e+003, -5.366206e-004
3.727726e+003, 5.505234e-004
3.729655e+003, 4.034430e-003
3.731583e+003, 2.987385e-003
3.733512e+003, -1.468420e-003
3.735440e+003, -2.460614e-003
3.737369e+003, -4.098833e-003
3.739297e+003, -4.571959e-003
3.741226e+003, -4.950166e-005
3.743154e+003, 3.733084e-003
3.745083e+003, 2.128512e-003
3.747011e+003, -2.268672e-003
3.748939e+003, -1.240268e-003
3.750868e+003, 2.875909e-003
3.752796e+003, 2.074093e-004
3.754725e+003, -3.825516e-003
3.756653e+003, -5.129486e-003
3.758582e+003, -1.852527e-003
3.760510e+003, 1.623854e-003
3.762439e+003, 3.213510e-003
3.764367e+003, 3.200769e-004
3.766296e+003, 5.409420e-004
3.768224e+003, 2.043545e-004
3.770153e+003, -1.669198e-003
3.772081e+003, -1.043081e-006
3.774010e+003, -2.022669e-003
3.775938e+003, -2.261460e-003
3.777866e+003, -1.461267e-003
3.779795e+003, -8.080155e-004
3.781723e+003, -9.113550e-005
3.783652e+003, 1.787201e-003
3.785580e+003, 3.485218e-003
3.787509e+003, 2.954170e-003
3.789437e+003, 4.202262e-003
3.791366e+003, 2.500027e-003
3.793294e+003, -2.464458e-003
3.795223e+003, -3.498331e-003
3.797151e+003, -3.774166e-004
3.799080e+003, 1.694560e-004
3.801008e+003, -1.040682e-003
3.802937e+003, 1.409262e-003
3.804865e+003, -6.991178e-004
3.806793e+003, -2.130464e-003
3.808722e+003, 3.929436e-004
3.810650e+003, 6.132871e-004
3.812579e+003, -1.541227e-003
3.814507e+003, 1.147836e-003
3.816436e+003, 2.797663e-003
3.818364e+003, 9.464324e-004
3.820293e+003, -1.956075e-003
3.822221e+003, -3.270596e-003
3.824150e+003, -3.192142e-003
3.826078e+003, 2.167821e-004
3.828007e+003, 1.186267e-003
3.829935e+003, -1.648903e-003
3.831864e+003, -4.397780e-004
3.833792e+003, 1.536757e-004
3.835720e+003, -2.619445e-003
3.837649e+003, -3.524259e-003
3.839577e+003, 9.408593e-004
3.841506e+003, 4.099563e-003
3.843434e+003, 3.449485e-003
3.845363e+003, 4.297912e-003
3.847291e+003, 1.799867e-003
3.849220e+003, -1.013726e-003
3.851148e+003, -1.635402e-003
3.853077e+003, -1.864731e-004
3.855005e+003, 3.108382e-004
3.856934e+003, -1.862943e-004
3.858862e+003, 5.006790e-004
3.860791e+003, -1.175687e-003
3.862719e+003, -8.522868e-004
3.864647e+003, 3.982782e-004
3.866576e+003, 7.781833e-004
3.868504e+003, -9.228438e-004
3.870433e+003, -2.277732e-003
3.872361e+003, -4.475012e-003
3.874290e+003, -2.934605e-003
3.876218e+003, -1.750335e-003
3.878147e+003, 1.404315e-003
3.880075e+003, 2.987146e-003
3.882004e+003, 4.847795e-004
3.883932e+003, 4.580617e-004
3.885861e+003, 6.771535e-004
3.887789e+003, -1.168400e-003
3.889718e+003, -2.761617e-003
3.891646e+003, -2.237633e-003
3.893574e+003, -4.582942e-003
3.895503e+003, -5.167305e-003
3.897431e+003, 1.887158e-003
3.899360e+003, 4.748017e-003
3.901288e+003, 4.201233e-004
3.903217e+003, -2.048686e-003
3.905145e+003, -2.399042e-003
3.907074e+003, -2.991214e-003
3.909002e+003, -2.386346e-003
3.910931e+003, 2.390593e-004
3.912859e+003, -1.749948e-003
3.914788e+003, -1.852199e-003
3.916716e+003, 6.741285e-004
3.918645e+003, -4.377812e-004
3.920573e+003, -2.259344e-003
3.922501e+003, -1.273438e-003
3.924430e+003, -2.186671e-003
3.926358e+003, 5.386770e-005
3.928287e+003, 3.025383e-004
3.930215e+003, -4.172325e-007
3.932144e+003, 1.165077e-003
3.934072e+003, 6.617010e-004
3.936001e+003, 1.081988e-003
3.937929e+003, 1.439765e-003
3.939858e+003, -1.909465e-003
3.941786e+003, -4.559994e-003
3.943715e+003, -2.091780e-003
3.945643e+003, 2.938911e-003
3.947572e+003, 8.431822e-004
3.949500e+003, -3.812283e-003
3.951428e+003, -3.137186e-003
3.953357e+003, -3.249049e-004
3.955285e+003, 2.373591e-003
3.957214e+003, 4.098371e-003
3.959142e+003, 5.638599e-003
3.961071e+003, 3.359452e-003
3.962999e+003, -3.858805e-004
3.964928e+003, -2.303168e-003
3.966856e+003, -9.441078e-004
3.968785e+003, 5.421937e-004
3.970713e+003, -6.551445e-004
3.972642e+003, -8.694082e-004
3.974570e+003, -3.146842e-003
3.976499e+003, -1.759484e-003
3.978427e+003, 7.794946e-004
3.980355e+003, -2.064362e-003
3.982284e+003, -1.978189e-003
3.984212e+003, 1.412600e-003
3.986141e+003, 3.331125e-003
3.988069e+003, 2.062082e-003
3.989998e+003, -5.036294e-004
3.991926e+003, -2.863899e-003
3.993855e+003, -2.171129e-003
3.995783e+003, 3.990829e-004
3.997712e+003, 1.219466e-003
3.999640e+003, 1.399010e-003
4.001569e+003, 0.000000e+000
##END=



