##NAMES=Bakerite
##RRUFFID=R050423
##IDEAL CHEMISTRY=Ca_4_B_5_(SiO_4_)_3_(O_3_(OH)_5_)
##LOCALITY=Corkscrew Canyon, Death Valley, California, USA
##OWNER=RRUFF
##SOURCE=Marcus Origlieri
##DESCRIPTION=White fine-grained aggregate
##STATUS=The identification of this mineral has been confirmed by X-ray diffraction and chemical analysis
##URL=rruff.info/R050423
##MEASURED CHEMISTRY=Ca_4.00_(B_4.99_S_0.01_)_Σ=5_(Si_2.97_Al_0.03_)_Σ=3_O_15_(OH)_5_
3.991926e+002, 7.533269e-002
4.011211e+002, 9.007581e-002
4.030496e+002, 9.050885e-002
4.049780e+002, 9.192643e-002
4.069065e+002, 9.656825e-002
4.088350e+002, 1.035534e-001
4.107634e+002, 1.096538e-001
4.126919e+002, 1.154351e-001
4.146204e+002, 1.185770e-001
4.165488e+002, 1.219552e-001
4.184773e+002, 1.243965e-001
4.204058e+002, 1.281772e-001
4.223342e+002, 1.304878e-001
4.242627e+002, 1.286123e-001
4.261912e+002, 1.245047e-001
4.281196e+002, 1.230298e-001
4.300481e+002, 1.182744e-001
4.319766e+002, 1.142685e-001
4.339050e+002, 1.137418e-001
4.358335e+002, 1.130035e-001
4.377620e+002, 1.116016e-001
4.396904e+002, 1.131952e-001
4.416189e+002, 1.153053e-001
4.435474e+002, 1.163584e-001
4.454758e+002, 1.179008e-001
4.474043e+002, 1.201914e-001
4.493328e+002, 1.221121e-001
4.512612e+002, 1.240227e-001
4.531897e+002, 1.256450e-001
4.551182e+002, 1.291438e-001
4.570466e+002, 1.346101e-001
4.589751e+002, 1.396104e-001
4.609036e+002, 1.436978e-001
4.628320e+002, 1.477452e-001
4.647605e+002, 1.516258e-001
4.666890e+002, 1.552097e-001
4.686174e+002, 1.604327e-001
4.705459e+002, 1.656681e-001
4.724744e+002, 1.717297e-001
4.744028e+002, 1.787584e-001
4.763313e+002, 1.862956e-001
4.782598e+002, 1.949929e-001
4.801882e+002, 2.042973e-001
4.821167e+002, 2.147823e-001
4.840452e+002, 2.252251e-001
4.859736e+002, 2.323124e-001
4.879021e+002, 2.352634e-001
4.898306e+002, 2.351507e-001
4.917590e+002, 2.320728e-001
4.936875e+002, 2.275852e-001
4.956160e+002, 2.237336e-001
4.975444e+002, 2.195433e-001
4.994729e+002, 2.145638e-001
5.014014e+002, 2.101298e-001
5.033298e+002, 2.041038e-001
5.052583e+002, 1.980318e-001
5.071868e+002, 1.909032e-001
5.091152e+002, 1.823176e-001
5.110437e+002, 1.743040e-001
5.129722e+002, 1.674547e-001
5.149006e+002, 1.603934e-001
5.168291e+002, 1.550340e-001
5.187576e+002, 1.509844e-001
5.206860e+002, 1.479080e-001
5.226145e+002, 1.464365e-001
5.245430e+002, 1.464090e-001
5.264714e+002, 1.453019e-001
5.283999e+002, 1.441606e-001
5.303284e+002, 1.439598e-001
5.322568e+002, 1.417364e-001
5.341853e+002, 1.369806e-001
5.361138e+002, 1.316068e-001
5.380422e+002, 1.255462e-001
5.399707e+002, 1.211789e-001
5.418992e+002, 1.170322e-001
5.438276e+002, 1.124579e-001
5.457561e+002, 1.101562e-001
5.476846e+002, 1.078137e-001
5.496130e+002, 1.042886e-001
5.515415e+002, 1.001055e-001
5.534700e+002, 9.639752e-002
5.553984e+002, 9.284616e-002
5.573269e+002, 8.992098e-002
5.592554e+002, 8.877502e-002
5.611838e+002, 8.906152e-002
5.631123e+002, 9.025533e-002
5.650408e+002, 9.334093e-002
5.669692e+002, 9.704959e-002
5.688977e+002, 1.000162e-001
5.708262e+002, 1.016716e-001
5.727546e+002, 1.011070e-001
5.746831e+002, 9.760116e-002
5.766116e+002, 9.227524e-002
5.785400e+002, 8.688529e-002
5.804685e+002, 8.165208e-002
5.823970e+002, 7.775886e-002
5.843254e+002, 7.601383e-002
5.862539e+002, 7.476342e-002
5.881824e+002, 7.397490e-002
5.901108e+002, 7.284471e-002
5.920393e+002, 7.185029e-002
5.939678e+002, 7.166659e-002
5.958962e+002, 7.164615e-002
5.978247e+002, 6.986218e-002
5.997532e+002, 6.774360e-002
6.016816e+002, 6.564454e-002
6.036101e+002, 6.319695e-002
6.055386e+002, 6.015547e-002
6.074670e+002, 5.701491e-002
6.093955e+002, 5.468759e-002
6.113240e+002, 5.281876e-002
6.132524e+002, 5.154706e-002
6.151809e+002, 5.040415e-002
6.171094e+002, 4.955387e-002
6.190378e+002, 4.922489e-002
6.209663e+002, 4.905060e-002
6.228948e+002, 4.922839e-002
6.248232e+002, 4.897451e-002
6.267517e+002, 4.910069e-002
6.286802e+002, 4.964228e-002
6.306086e+002, 5.023761e-002
6.325371e+002, 5.103752e-002
6.344656e+002, 5.145803e-002
6.363940e+002, 5.128857e-002
6.383225e+002, 5.153413e-002
6.402510e+002, 5.200248e-002
6.421794e+002, 5.250632e-002
6.441079e+002, 5.330318e-002
6.460364e+002, 5.409778e-002
6.479648e+002, 5.427714e-002
6.498933e+002, 5.462917e-002
6.518218e+002, 5.473139e-002
6.537502e+002, 5.448836e-002
6.556787e+002, 5.480812e-002
6.576072e+002, 5.566676e-002
6.595356e+002, 5.651499e-002
6.614641e+002, 5.742845e-002
6.633926e+002, 5.863755e-002
6.653210e+002, 6.023975e-002
6.672495e+002, 6.230362e-002
6.691780e+002, 6.464744e-002
6.711064e+002, 6.733738e-002
6.730349e+002, 6.984642e-002
6.749634e+002, 7.332393e-002
6.768918e+002, 7.759564e-002
6.788203e+002, 8.218025e-002
6.807488e+002, 8.723924e-002
6.826772e+002, 9.306614e-002
6.846057e+002, 9.933670e-002
6.865342e+002, 1.057841e-001
6.884626e+002, 1.121840e-001
6.903911e+002, 1.178041e-001
6.923196e+002, 1.231131e-001
6.942480e+002, 1.271722e-001
6.961765e+002, 1.274906e-001
6.981050e+002, 1.241416e-001
7.000334e+002, 1.184145e-001
7.019619e+002, 1.123424e-001
7.038904e+002, 1.079456e-001
7.058188e+002, 1.054466e-001
7.077473e+002, 1.048585e-001
7.096758e+002, 1.055565e-001
7.116042e+002, 1.075310e-001
7.135327e+002, 1.102754e-001
7.154612e+002, 1.124465e-001
7.173896e+002, 1.136701e-001
7.193181e+002, 1.144138e-001
7.212466e+002, 1.140036e-001
7.231750e+002, 1.133935e-001
7.251035e+002, 1.137045e-001
7.270320e+002, 1.152391e-001
7.289604e+002, 1.175495e-001
7.308889e+002, 1.195652e-001
7.328174e+002, 1.219635e-001
7.347458e+002, 1.247730e-001
7.366743e+002, 1.276286e-001
7.386028e+002, 1.306791e-001
7.405313e+002, 1.336080e-001
7.424597e+002, 1.365464e-001
7.443882e+002, 1.387252e-001
7.463167e+002, 1.398124e-001
7.482451e+002, 1.399654e-001
7.501736e+002, 1.404891e-001
7.521021e+002, 1.419885e-001
7.540305e+002, 1.445616e-001
7.559590e+002, 1.482875e-001
7.578875e+002, 1.537532e-001
7.598159e+002, 1.597815e-001
7.617444e+002, 1.661589e-001
7.636729e+002, 1.734732e-001
7.656013e+002, 1.814087e-001
7.675298e+002, 1.898829e-001
7.694583e+002, 1.984579e-001
7.713867e+002, 2.072893e-001
7.733152e+002, 2.163477e-001
7.752437e+002, 2.260631e-001
7.771721e+002, 2.366726e-001
7.791006e+002, 2.463781e-001
7.810291e+002, 2.542088e-001
7.829575e+002, 2.600800e-001
7.848860e+002, 2.633826e-001
7.868145e+002, 2.626541e-001
7.887429e+002, 2.566122e-001
7.906714e+002, 2.455317e-001
7.925999e+002, 2.308527e-001
7.945283e+002, 2.153898e-001
7.964568e+002, 2.013067e-001
7.983853e+002, 1.893561e-001
8.003137e+002, 1.802499e-001
8.022422e+002, 1.744857e-001
8.041707e+002, 1.714120e-001
8.060991e+002, 1.710361e-001
8.080276e+002, 1.730547e-001
8.099561e+002, 1.764061e-001
8.118845e+002, 1.816945e-001
8.138130e+002, 1.882703e-001
8.157415e+002, 1.957469e-001
8.176699e+002, 2.038298e-001
8.195984e+002, 2.125239e-001
8.215269e+002, 2.218228e-001
8.234553e+002, 2.313469e-001
8.253838e+002, 2.406592e-001
8.273123e+002, 2.502096e-001
8.292407e+002, 2.603526e-001
8.311692e+002, 2.707829e-001
8.330977e+002, 2.803908e-001
8.350261e+002, 2.904752e-001
8.369546e+002, 3.008979e-001
8.388831e+002, 3.107024e-001
8.408115e+002, 3.198276e-001
8.427400e+002, 3.292131e-001
8.446685e+002, 3.383789e-001
8.465969e+002, 3.474215e-001
8.485254e+002, 3.546645e-001
8.504539e+002, 3.591973e-001
8.523823e+002, 3.624392e-001
8.543108e+002, 3.651239e-001
8.562393e+002, 3.674764e-001
8.581677e+002, 3.704373e-001
8.600962e+002, 3.737692e-001
8.620247e+002, 3.769176e-001
8.639531e+002, 3.809492e-001
8.658816e+002, 3.848902e-001
8.678101e+002, 3.893806e-001
8.697385e+002, 3.947597e-001
8.716670e+002, 3.996090e-001
8.735955e+002, 4.041051e-001
8.755239e+002, 4.082668e-001
8.774524e+002, 4.113758e-001
8.793809e+002, 4.133331e-001
8.813093e+002, 4.144904e-001
8.832378e+002, 4.153340e-001
8.851663e+002, 4.160500e-001
8.870947e+002, 4.159851e-001
8.890232e+002, 4.162048e-001
8.909517e+002, 4.165709e-001
8.928801e+002, 4.165978e-001
8.948085e+002, 4.170808e-001
8.967370e+002, 4.166844e-001
8.986655e+002, 4.148064e-001
9.005939e+002, 4.130065e-001
9.025224e+002, 4.107370e-001
9.044509e+002, 4.081737e-001
9.063793e+002, 4.048891e-001
9.083078e+002, 4.006529e-001
9.102363e+002, 3.965934e-001
9.121647e+002, 3.923373e-001
9.140932e+002, 3.879243e-001
9.160217e+002, 3.836527e-001
9.179501e+002, 3.789587e-001
9.198786e+002, 3.748538e-001
9.218071e+002, 3.713505e-001
9.237355e+002, 3.683292e-001
9.256640e+002, 3.657070e-001
9.275925e+002, 3.633798e-001
9.295209e+002, 3.617708e-001
9.314494e+002, 3.608895e-001
9.333779e+002, 3.595744e-001
9.353063e+002, 3.581130e-001
9.372348e+002, 3.566041e-001
9.391633e+002, 3.543338e-001
9.410917e+002, 3.511999e-001
9.430202e+002, 3.476394e-001
9.449487e+002, 3.435232e-001
9.468771e+002, 3.385783e-001
9.488056e+002, 3.332772e-001
9.507341e+002, 3.283613e-001
9.526625e+002, 3.228944e-001
9.545910e+002, 3.175211e-001
9.565195e+002, 3.123655e-001
9.584479e+002, 3.075027e-001
9.603764e+002, 3.031903e-001
9.623049e+002, 2.996189e-001
9.642333e+002, 2.971339e-001
9.661618e+002, 2.957042e-001
9.680903e+002, 2.942053e-001
9.700187e+002, 2.932710e-001
9.719472e+002, 2.931548e-001
9.738757e+002, 2.934764e-001
9.758041e+002, 2.945227e-001
9.777326e+002, 2.960099e-001
9.796611e+002, 2.970414e-001
9.815895e+002, 2.981510e-001
9.835180e+002, 2.996412e-001
9.854465e+002, 3.011769e-001
9.873749e+002, 3.017989e-001
9.893034e+002, 3.015310e-001
9.912319e+002, 3.007903e-001
9.931603e+002, 2.986809e-001
9.950888e+002, 2.960177e-001
9.970173e+002, 2.929513e-001
9.989457e+002, 2.892085e-001
1.000874e+003, 2.859511e-001
1.002803e+003, 2.826644e-001
1.004731e+003, 2.788934e-001
1.006660e+003, 2.754737e-001
1.008588e+003, 2.717873e-001
1.010517e+003, 2.677927e-001
1.012445e+003, 2.638121e-001
1.014373e+003, 2.598433e-001
1.016302e+003, 2.555326e-001
1.018230e+003, 2.510097e-001
1.020159e+003, 2.470497e-001
1.022087e+003, 2.437706e-001
1.024016e+003, 2.418384e-001
1.025944e+003, 2.411910e-001
1.027873e+003, 2.413400e-001
1.029801e+003, 2.424094e-001
1.031730e+003, 2.446217e-001
1.033658e+003, 2.473621e-001
1.035587e+003, 2.495404e-001
1.037515e+003, 2.504177e-001
1.039444e+003, 2.498256e-001
1.041372e+003, 2.482176e-001
1.043301e+003, 2.455033e-001
1.045229e+003, 2.412977e-001
1.047157e+003, 2.364383e-001
1.049086e+003, 2.312966e-001
1.051014e+003, 2.256512e-001
1.052943e+003, 2.198364e-001
1.054871e+003, 2.141301e-001
1.056800e+003, 2.084488e-001
1.058728e+003, 2.029106e-001
1.060657e+003, 1.977545e-001
1.062585e+003, 1.930578e-001
1.064514e+003, 1.884771e-001
1.066442e+003, 1.848640e-001
1.068371e+003, 1.817703e-001
1.070299e+003, 1.785219e-001
1.072228e+003, 1.756437e-001
1.074156e+003, 1.726637e-001
1.076084e+003, 1.696543e-001
1.078013e+003, 1.670548e-001
1.079941e+003, 1.645764e-001
1.081870e+003, 1.626381e-001
1.083798e+003, 1.608108e-001
1.085727e+003, 1.595970e-001
1.087655e+003, 1.585732e-001
1.089584e+003, 1.574543e-001
1.091512e+003, 1.566431e-001
1.093441e+003, 1.558473e-001
1.095369e+003, 1.549098e-001
1.097298e+003, 1.535864e-001
1.099226e+003, 1.517304e-001
1.101155e+003, 1.494491e-001
1.103083e+003, 1.465455e-001
1.105011e+003, 1.432406e-001
1.106940e+003, 1.394271e-001
1.108868e+003, 1.351590e-001
1.110797e+003, 1.307461e-001
1.112725e+003, 1.259498e-001
1.114654e+003, 1.209104e-001
1.116582e+003, 1.161762e-001
1.118511e+003, 1.119339e-001
1.120439e+003, 1.076523e-001
1.122368e+003, 1.030381e-001
1.124296e+003, 9.859597e-002
1.126225e+003, 9.502438e-002
1.128153e+003, 9.143703e-002
1.130082e+003, 8.804558e-002
1.132010e+003, 8.534247e-002
1.133938e+003, 8.299798e-002
1.135867e+003, 8.078088e-002
1.137795e+003, 7.908323e-002
1.139724e+003, 7.794216e-002
1.141652e+003, 7.695646e-002
1.143581e+003, 7.668056e-002
1.145509e+003, 7.718968e-002
1.147438e+003, 7.782459e-002
1.149366e+003, 7.901422e-002
1.151295e+003, 8.072594e-002
1.153223e+003, 8.211082e-002
1.155152e+003, 8.346833e-002
1.157080e+003, 8.476892e-002
1.159009e+003, 8.588825e-002
1.160937e+003, 8.648252e-002
1.162865e+003, 8.666354e-002
1.164794e+003, 8.639101e-002
1.166722e+003, 8.588827e-002
1.168651e+003, 8.549978e-002
1.170579e+003, 8.490618e-002
1.172508e+003, 8.395759e-002
1.174436e+003, 8.300459e-002
1.176365e+003, 8.186614e-002
1.178293e+003, 8.079915e-002
1.180222e+003, 7.953648e-002
1.182150e+003, 7.766259e-002
1.184079e+003, 7.514074e-002
1.186007e+003, 7.228702e-002
1.187936e+003, 6.871583e-002
1.189864e+003, 6.479734e-002
1.191792e+003, 6.071205e-002
1.193721e+003, 5.648307e-002
1.195649e+003, 5.234618e-002
1.197578e+003, 4.848574e-002
1.199506e+003, 4.497131e-002
1.201435e+003, 4.163495e-002
1.203363e+003, 3.868892e-002
1.205292e+003, 3.590034e-002
1.207220e+003, 3.348646e-002
1.209149e+003, 3.199186e-002
1.211077e+003, 3.050084e-002
1.213006e+003, 2.892760e-002
1.214934e+003, 2.736606e-002
1.216863e+003, 2.635036e-002
1.218791e+003, 2.528889e-002
1.220719e+003, 2.423458e-002
1.222648e+003, 2.366405e-002
1.224576e+003, 2.313120e-002
1.226505e+003, 2.253442e-002
1.228433e+003, 2.199892e-002
1.230362e+003, 2.140558e-002
1.232290e+003, 2.072146e-002
1.234219e+003, 2.025132e-002
1.236147e+003, 1.973220e-002
1.238076e+003, 1.907287e-002
1.240004e+003, 1.863873e-002
1.241933e+003, 1.833661e-002
1.243861e+003, 1.815521e-002
1.245790e+003, 1.765555e-002
1.247718e+003, 1.731610e-002
1.249646e+003, 1.721236e-002
1.251575e+003, 1.667862e-002
1.253503e+003, 1.613167e-002
1.255432e+003, 1.554795e-002
1.257360e+003, 1.511271e-002
1.259289e+003, 1.470641e-002
1.261217e+003, 1.441050e-002
1.263146e+003, 1.432362e-002
1.265074e+003, 1.421509e-002
1.267003e+003, 1.398079e-002
1.268931e+003, 1.357760e-002
1.270860e+003, 1.309458e-002
1.272788e+003, 1.275467e-002
1.274717e+003, 1.241493e-002
1.276645e+003, 1.199364e-002
1.278573e+003, 1.171797e-002
1.280502e+003, 1.164838e-002
1.282430e+003, 1.142771e-002
1.284359e+003, 1.096741e-002
1.286287e+003, 1.073609e-002
1.288216e+003, 1.065290e-002
1.290144e+003, 1.042352e-002
1.292073e+003, 1.036164e-002
1.294001e+003, 1.022697e-002
1.295930e+003, 9.982618e-003
1.297858e+003, 9.980534e-003
1.299787e+003, 9.987736e-003
1.301715e+003, 9.980693e-003
1.303644e+003, 9.772403e-003
1.305572e+003, 9.734662e-003
1.307500e+003, 9.932020e-003
1.309429e+003, 9.954660e-003
1.311357e+003, 1.023252e-002
1.313286e+003, 1.054071e-002
1.315214e+003, 1.050998e-002
1.317143e+003, 1.056722e-002
1.319071e+003, 1.066440e-002
1.321000e+003, 1.068886e-002
1.322928e+003, 1.084851e-002
1.324857e+003, 1.120078e-002
1.326785e+003, 1.175062e-002
1.328714e+003, 1.217336e-002
1.330642e+003, 1.244785e-002
1.332571e+003, 1.328765e-002
1.334499e+003, 1.370385e-002
1.336427e+003, 1.383874e-002
1.338356e+003, 1.435231e-002
1.340284e+003, 1.507883e-002
1.342213e+003, 1.585856e-002
1.344141e+003, 1.667600e-002
1.346070e+003, 1.731094e-002
1.347998e+003, 1.828292e-002
1.349927e+003, 1.923354e-002
1.351855e+003, 1.970248e-002
1.353784e+003, 2.026191e-002
1.355712e+003, 2.084353e-002
1.357641e+003, 2.123285e-002
1.359569e+003, 2.181377e-002
1.361498e+003, 2.231871e-002
1.363426e+003, 2.268082e-002
1.365354e+003, 2.298499e-002
1.367283e+003, 2.299989e-002
1.369211e+003, 2.298244e-002
1.371140e+003, 2.273678e-002
1.373068e+003, 2.228476e-002
1.374997e+003, 2.190040e-002
1.376925e+003, 2.149359e-002
1.378854e+003, 2.092500e-002
1.380782e+003, 2.017829e-002
1.382711e+003, 1.911170e-002
1.384639e+003, 1.827925e-002
1.386568e+003, 1.775325e-002
1.388496e+003, 1.660470e-002
1.390424e+003, 1.563433e-002
1.392353e+003, 1.503399e-002
1.394281e+003, 1.447298e-002
1.396210e+003, 1.380290e-002
1.398138e+003, 1.311282e-002
1.400067e+003, 1.245234e-002
1.401995e+003, 1.201448e-002
1.403924e+003, 1.181398e-002
1.405852e+003, 1.164283e-002
1.407781e+003, 1.116327e-002
1.409709e+003, 1.056593e-002
1.411638e+003, 1.035562e-002
1.413566e+003, 1.016978e-002
1.415495e+003, 9.843471e-003
1.417423e+003, 9.775375e-003
1.419351e+003, 9.600014e-003
1.421280e+003, 9.438735e-003
1.423208e+003, 9.332324e-003
1.425137e+003, 9.374597e-003
1.427065e+003, 9.334910e-003
1.428994e+003, 9.095609e-003
1.430922e+003, 8.819999e-003
1.432851e+003, 8.606224e-003
1.434779e+003, 8.512255e-003
1.436708e+003, 8.442530e-003
1.438636e+003, 8.181267e-003
1.440565e+003, 8.077581e-003
1.442493e+003, 7.837210e-003
1.444422e+003, 7.631731e-003
1.446350e+003, 7.653757e-003
1.448278e+003, 7.596105e-003
1.450207e+003, 7.287157e-003
1.452135e+003, 7.184758e-003
1.454064e+003, 7.384039e-003
1.455992e+003, 7.233999e-003
1.457921e+003, 6.753482e-003
1.459849e+003, 6.575538e-003
1.461778e+003, 6.655436e-003
1.463706e+003, 6.634468e-003
1.465635e+003, 6.450631e-003
1.467563e+003, 6.183753e-003
1.469492e+003, 6.296560e-003
1.471420e+003, 6.476389e-003
1.473349e+003, 6.322355e-003
1.475277e+003, 6.322831e-003
1.477205e+003, 6.309347e-003
1.479134e+003, 6.309812e-003
1.481062e+003, 6.364576e-003
1.482991e+003, 6.129940e-003
1.484919e+003, 6.092016e-003
1.486848e+003, 6.349286e-003
1.488776e+003, 6.335304e-003
1.490705e+003, 5.921867e-003
1.492633e+003, 5.824123e-003
1.494562e+003, 5.873322e-003
1.496490e+003, 5.629172e-003
1.498419e+003, 5.405195e-003
1.500347e+003, 5.544801e-003
1.502276e+003, 5.902832e-003
1.504204e+003, 5.924190e-003
1.506132e+003, 5.765069e-003
1.508061e+003, 5.653291e-003
1.509989e+003, 5.424988e-003
1.511918e+003, 5.127652e-003
1.513846e+003, 5.208661e-003
1.515775e+003, 5.432658e-003
1.517703e+003, 5.324481e-003
1.519632e+003, 5.305055e-003
1.521560e+003, 5.394887e-003
1.523489e+003, 5.200879e-003
1.525417e+003, 5.129578e-003
1.527346e+003, 5.112806e-003
1.529274e+003, 4.837657e-003
1.531203e+003, 4.808547e-003
1.533131e+003, 5.231493e-003
1.535059e+003, 5.436494e-003
1.536988e+003, 5.348191e-003
1.538916e+003, 5.495857e-003
1.540845e+003, 5.471190e-003
1.542773e+003, 5.329831e-003
1.544702e+003, 5.403358e-003
1.546630e+003, 5.440946e-003
1.548559e+003, 5.549641e-003
1.550487e+003, 5.645031e-003
1.552416e+003, 5.903465e-003
1.554344e+003, 6.031552e-003
1.556273e+003, 5.830278e-003
1.558201e+003, 5.836722e-003
1.560130e+003, 5.766363e-003
1.562058e+003, 5.562898e-003
1.563986e+003, 5.662617e-003
1.565915e+003, 5.966525e-003
1.567843e+003, 6.019206e-003
1.569772e+003, 5.799065e-003
1.571700e+003, 5.586526e-003
1.573629e+003, 5.473113e-003
1.575557e+003, 5.638238e-003
1.577486e+003, 5.659421e-003
1.579414e+003, 5.713620e-003
1.581343e+003, 5.892964e-003
1.583271e+003, 6.049327e-003
1.585200e+003, 6.173384e-003
1.587128e+003, 5.900575e-003
1.589057e+003, 5.838181e-003
1.590985e+003, 6.013762e-003
1.592913e+003, 5.953917e-003
1.594842e+003, 5.911451e-003
1.596770e+003, 6.132076e-003
1.598699e+003, 6.324148e-003
1.600627e+003, 6.238069e-003
1.602556e+003, 6.023807e-003
1.604484e+003, 6.000759e-003
1.606413e+003, 5.904685e-003
1.608341e+003, 5.953588e-003
1.610270e+003, 5.836002e-003
1.612198e+003, 5.871379e-003
1.614127e+003, 5.962920e-003
1.616055e+003, 5.774199e-003
1.617984e+003, 5.570693e-003
1.619912e+003, 5.616827e-003
1.621840e+003, 5.816057e-003
1.623769e+003, 5.973906e-003
1.625697e+003, 5.808543e-003
1.627626e+003, 5.454746e-003
1.629554e+003, 5.290919e-003
1.631483e+003, 5.602077e-003
1.633411e+003, 5.777446e-003
1.635340e+003, 5.826004e-003
1.637268e+003, 5.917276e-003
1.639197e+003, 5.806013e-003
1.641125e+003, 5.536154e-003
1.643054e+003, 5.567679e-003
1.644982e+003, 5.603932e-003
1.646911e+003, 5.361292e-003
1.648839e+003, 5.022309e-003
1.650767e+003, 4.972773e-003
1.652696e+003, 5.566522e-003
1.654624e+003, 5.802623e-003
1.656553e+003, 5.349990e-003
1.658481e+003, 4.732002e-003
1.660410e+003, 4.894298e-003
1.662338e+003, 5.275733e-003
1.664267e+003, 5.051142e-003
1.666195e+003, 4.540702e-003
1.668124e+003, 4.399415e-003
1.670052e+003, 4.646105e-003
1.671981e+003, 4.663402e-003
1.673909e+003, 4.645113e-003
1.675838e+003, 4.537477e-003
1.677766e+003, 4.287047e-003
1.679694e+003, 4.059065e-003
1.681623e+003, 3.998229e-003
1.683551e+003, 4.104903e-003
1.685480e+003, 3.678022e-003
1.687408e+003, 3.633681e-003
1.689337e+003, 3.717211e-003
1.691265e+003, 3.656855e-003
1.693194e+003, 3.654879e-003
1.695122e+003, 4.026766e-003
1.697051e+003, 4.233501e-003
1.698979e+003, 3.856181e-003
1.700908e+003, 3.691977e-003
1.702836e+003, 3.396256e-003
1.704765e+003, 3.398343e-003
1.706693e+003, 3.788084e-003
1.708621e+003, 3.525989e-003
1.710550e+003, 3.226615e-003
1.712478e+003, 3.066714e-003
1.714407e+003, 2.994537e-003
1.716335e+003, 3.249751e-003
1.718264e+003, 3.103373e-003
1.720192e+003, 2.738013e-003
1.722121e+003, 2.659477e-003
1.724049e+003, 2.875173e-003
1.725978e+003, 3.030767e-003
1.727906e+003, 2.503645e-003
1.729835e+003, 2.117613e-003
1.731763e+003, 1.939256e-003
1.733692e+003, 1.817313e-003
1.735620e+003, 1.926797e-003
1.737548e+003, 1.539663e-003
1.739477e+003, 7.725430e-004
1.741405e+003, 4.134166e-004
1.743334e+003, 6.110976e-004
1.745262e+003, 5.830685e-004
1.747191e+003, 6.493571e-004
1.749119e+003, 8.599650e-004
1.751048e+003, 1.053547e-003
1.752976e+003, 1.287864e-003
1.754905e+003, 1.314909e-003
1.756833e+003, 1.552435e-003
1.758762e+003, 1.652831e-003
1.760690e+003, 1.717496e-003
1.762619e+003, 2.040738e-003
1.764547e+003, 2.760671e-003
1.766475e+003, 2.731088e-003
1.768404e+003, 2.164241e-003
1.770332e+003, 1.913818e-003
1.772261e+003, 1.583662e-003
1.774189e+003, 1.821403e-003
1.776118e+003, 2.487770e-003
1.778046e+003, 2.238965e-003
1.779975e+003, 2.319947e-003
1.781903e+003, 2.706414e-003
1.783832e+003, 2.652939e-003
1.785760e+003, 2.197350e-003
1.787689e+003, 1.736292e-003
1.789617e+003, 2.090190e-003
1.791546e+003, 2.142799e-003
1.793474e+003, 1.887902e-003
1.795402e+003, 2.230572e-003
1.797331e+003, 2.133953e-003
1.799259e+003, 2.001212e-003
1.801188e+003, 2.238718e-003
1.803116e+003, 1.906916e-003
1.805045e+003, 1.293167e-003
1.806973e+003, 1.544729e-003
1.808902e+003, 2.148833e-003
1.810830e+003, 1.838511e-003
1.812759e+003, 1.770996e-003
1.814687e+003, 1.670800e-003
1.816616e+003, 1.488442e-003
1.818544e+003, 2.200407e-003
1.820473e+003, 2.451567e-003
1.822401e+003, 1.934514e-003
1.824329e+003, 1.875907e-003
1.826258e+003, 2.937994e-003
1.828186e+003, 2.988643e-003
1.830115e+003, 2.416804e-003
1.832043e+003, 2.181071e-003
1.833972e+003, 2.000160e-003
1.835900e+003, 2.431522e-003
1.837829e+003, 2.723712e-003
1.839757e+003, 1.854560e-003
1.841686e+003, 1.133624e-003
1.843614e+003, 1.663399e-003
1.845543e+003, 2.530230e-003
1.847471e+003, 2.403007e-003
1.849400e+003, 1.923614e-003
1.851328e+003, 1.247805e-003
1.853256e+003, 7.770365e-004
1.855185e+003, 6.171469e-004
1.857113e+003, 1.065852e-003
1.859042e+003, 1.152327e-003
1.860970e+003, 1.293027e-003
1.862899e+003, 1.228217e-003
1.864827e+003, 1.750836e-003
1.866756e+003, 2.330944e-003
1.868684e+003, 1.936349e-003
1.870613e+003, 9.152924e-004
1.872541e+003, 6.230448e-004
1.874470e+003, 8.553762e-004
1.876398e+003, 1.231513e-003
1.878327e+003, 1.589887e-003
1.880255e+003, 1.568112e-003
1.882183e+003, 1.333002e-003
1.884112e+003, 1.192686e-003
1.886040e+003, 7.549404e-004
1.887969e+003, 1.663534e-004
1.889897e+003, -7.532832e-005
1.891826e+003, -1.199681e-004
1.893754e+003, -1.254945e-005
1.895683e+003, -1.656804e-004
1.897611e+003, -5.715187e-005
1.899540e+003, -4.021731e-005
1.901468e+003, -1.016811e-004
1.903397e+003, 7.403622e-004
1.905325e+003, 5.484755e-004
1.907254e+003, -1.380064e-004
1.909182e+003, 1.529742e-004
1.911110e+003, -1.406914e-004
1.913039e+003, -6.357444e-005
1.914967e+003, -6.568350e-004
1.916896e+003, -1.121863e-003
1.918824e+003, -1.037462e-003
1.920753e+003, -3.860286e-004
1.922681e+003, -6.891440e-004
1.924610e+003, -1.467528e-003
1.926538e+003, -1.028372e-003
1.928467e+003, -8.463471e-004
1.930395e+003, -1.374179e-003
1.932324e+003, -1.847028e-003
1.934252e+003, -1.273200e-003
1.936181e+003, -6.169301e-004
1.938109e+003, -1.193789e-003
1.940037e+003, -3.085950e-003
1.941966e+003, -4.239326e-003
1.943894e+003, -3.385372e-003
1.945823e+003, -3.304604e-003
1.947751e+003, -4.210602e-003
1.949680e+003, -4.393964e-003
1.951608e+003, -3.219159e-003
1.953537e+003, -2.403008e-003
1.955465e+003, -5.148709e-003
1.957394e+003, -7.018112e-003
1.959322e+003, -6.126618e-003
1.961251e+003, -4.567103e-003
1.963179e+003, -4.589580e-003
1.965108e+003, -5.958770e-003
1.967036e+003, -7.788423e-003
1.968964e+003, -6.960532e-003
1.970893e+003, -3.882690e-003
1.972821e+003, -3.792195e-003
1.974750e+003, -5.349185e-003
1.976678e+003, -5.104304e-003
1.978607e+003, -4.622974e-003
1.980535e+003, -4.715003e-003
1.982464e+003, -3.803209e-003
1.984392e+003, -3.342468e-003
1.986321e+003, -4.650947e-003
1.988249e+003, -5.611983e-003
1.990178e+003, -3.354906e-003
1.992106e+003, -2.298789e-003
1.994035e+003, -3.686075e-003
1.995963e+003, -4.890633e-003
1.997891e+003, -3.677253e-003
1.999820e+003, -4.214366e-003
2.001748e+003, -5.644617e-003
2.003677e+003, -4.065699e-003
2.005605e+003, -3.671003e-003
2.007534e+003, -6.815172e-003
2.009462e+003, -7.853412e-003
2.011391e+003, -5.507381e-003
2.013319e+003, -4.699434e-003
2.015248e+003, -3.799688e-003
2.017176e+003, -3.703164e-003
2.019105e+003, -4.478344e-003
2.021033e+003, -4.234279e-003
2.022962e+003, -3.526608e-003
2.024890e+003, -5.711006e-003
2.026818e+003, -5.618158e-003
2.028747e+003, -4.219533e-003
2.030675e+003, -4.472009e-003
2.032604e+003, -2.544724e-003
2.034532e+003, -2.246487e-003
2.036461e+003, -2.660695e-003
2.038389e+003, -3.598707e-003
2.040318e+003, -3.865130e-003
2.042246e+003, -2.850794e-003
2.044175e+003, -3.830423e-003
2.046103e+003, -5.062903e-003
2.048032e+003, -4.484575e-003
2.049960e+003, -3.088956e-003
2.051889e+003, -3.754771e-003
2.053817e+003, -3.078695e-003
2.055746e+003, -3.077717e-003
2.057674e+003, -3.789188e-003
2.059603e+003, -3.316117e-003
2.061531e+003, -2.977185e-003
2.063459e+003, -1.287112e-003
2.065388e+003, -1.663130e-003
2.067316e+003, -3.729797e-003
2.069245e+003, -3.216261e-003
2.071173e+003, -2.233141e-003
2.073102e+003, -2.323491e-004
2.075030e+003, 3.514022e-004
2.076959e+003, -1.609524e-003
2.078887e+003, -2.795168e-003
2.080816e+003, -1.457029e-003
2.082744e+003, 1.478309e-004
2.084673e+003, 3.302321e-004
2.086601e+003, -9.838458e-004
2.088530e+003, -2.340277e-003
2.090458e+003, -2.797813e-003
2.092386e+003, -2.237409e-003
2.094315e+003, -2.606968e-003
2.096243e+003, -2.644620e-003
2.098172e+003, -1.529566e-003
2.100100e+003, -1.343597e-003
2.102029e+003, -1.953713e-003
2.103957e+003, -7.022240e-004
2.105886e+003, -2.812258e-004
2.107814e+003, -1.601227e-003
2.109743e+003, -5.990238e-004
2.111671e+003, 9.421858e-004
2.113600e+003, -7.002942e-005
2.115528e+003, -3.979188e-004
2.117457e+003, -7.544705e-004
2.119385e+003, -4.380220e-004
2.121313e+003, -5.788481e-004
2.123242e+003, -2.225909e-003
2.125170e+003, -3.007680e-003
2.127099e+003, -2.976828e-003
2.129027e+003, -3.785494e-003
2.130956e+003, -3.621900e-003
2.132884e+003, -3.965546e-003
2.134813e+003, -5.113943e-003
2.136741e+003, -3.469095e-003
2.138670e+003, -3.132727e-003
2.140598e+003, -4.487110e-003
2.142527e+003, -4.747925e-003
2.144455e+003, -6.425337e-003
2.146384e+003, -7.262617e-003
2.148312e+003, -7.370986e-003
2.150240e+003, -6.883238e-003
2.152169e+003, -7.293372e-003
2.154097e+003, -9.357350e-003
2.156026e+003, -1.072785e-002
2.157954e+003, -8.059599e-003
2.159883e+003, -6.226185e-003
2.161811e+003, -3.744122e-003
2.163740e+003, -9.730929e-004
2.165668e+003, 3.226046e-004
2.167597e+003, -1.296342e-003
2.169525e+003, -3.056911e-003
2.171454e+003, -4.209753e-003
2.173382e+003, -7.274153e-003
2.175311e+003, -6.829401e-003
2.177239e+003, -4.023229e-003
2.179167e+003, -1.769020e-003
2.181096e+003, -9.466058e-004
2.183024e+003, -1.968796e-003
2.184953e+003, -4.116057e-003
2.186881e+003, -3.716161e-003
2.188810e+003, -2.596079e-003
2.190738e+003, -2.638542e-003
2.192667e+003, -3.343522e-003
2.194595e+003, -2.601708e-003
2.196524e+003, -2.243415e-003
2.198452e+003, -1.180211e-003
2.200381e+003, -1.242992e-004
2.202309e+003, -1.194380e-003
2.204238e+003, -2.004909e-003
2.206166e+003, -1.618364e-003
2.208094e+003, -8.952446e-004
2.210023e+003, -2.535355e-003
2.211951e+003, -3.853080e-003
2.213880e+003, -3.567365e-003
2.215808e+003, -1.311905e-003
2.217737e+003, 1.438098e-003
2.219665e+003, 1.328576e-003
2.221594e+003, -3.898354e-004
2.223522e+003, -1.506642e-003
2.225451e+003, -5.981264e-004
2.227379e+003, 7.579770e-005
2.229308e+003, 3.156808e-004
2.231236e+003, 2.141303e-003
2.233165e+003, 2.333089e-003
2.235093e+003, 7.142526e-004
2.237021e+003, 9.831268e-004
2.238950e+003, 1.488186e-003
2.240878e+003, -4.722144e-005
2.242807e+003, 4.759440e-004
2.244735e+003, 1.961662e-003
2.246664e+003, 1.886894e-003
2.248592e+003, 9.230308e-004
2.250521e+003, 1.646972e-003
2.252449e+003, 2.799820e-003
2.254378e+003, 1.991345e-003
2.256306e+003, 1.816495e-003
2.258235e+003, 2.819468e-003
2.260163e+003, 2.859203e-003
2.262092e+003, 2.219367e-003
2.264020e+003, 1.187923e-003
2.265948e+003, 1.986594e-003
2.267877e+003, 2.969953e-003
2.269805e+003, 2.907154e-003
2.271734e+003, 2.264512e-003
2.273662e+003, 1.588599e-003
2.275591e+003, 1.949491e-003
2.277519e+003, 2.942768e-003
2.279448e+003, 3.224977e-003
2.281376e+003, 3.540585e-003
2.283305e+003, 4.591531e-003
2.285233e+003, 5.240391e-003
2.287162e+003, 6.005650e-003
2.289090e+003, 4.814105e-003
2.291019e+003, 3.616650e-003
2.292947e+003, 3.105513e-003
2.294875e+003, 2.969236e-003
2.296804e+003, 3.651600e-003
2.298732e+003, 3.968142e-003
2.300661e+003, 4.217634e-003
2.302589e+003, 3.670906e-003
2.304518e+003, 3.771316e-003
2.306446e+003, 3.919158e-003
2.308375e+003, 3.947929e-003
2.310303e+003, 3.840028e-003
2.312232e+003, 4.008521e-003
2.314160e+003, 3.849287e-003
2.316089e+003, 3.694815e-003
2.318017e+003, 4.529319e-003
2.319946e+003, 4.996643e-003
2.321874e+003, 4.446288e-003
2.323802e+003, 5.151750e-003
2.325731e+003, 5.216365e-003
2.327659e+003, 4.850968e-003
2.329588e+003, 3.905091e-003
2.331516e+003, 3.503277e-003
2.333445e+003, 3.656622e-003
2.335373e+003, 3.372032e-003
2.337302e+003, 4.270262e-003
2.339230e+003, 4.658129e-003
2.341159e+003, 4.394787e-003
2.343087e+003, 4.250973e-003
2.345016e+003, 4.382363e-003
2.346944e+003, 5.122160e-003
2.348873e+003, 3.887026e-003
2.350801e+003, 2.905434e-003
2.352729e+003, 3.319584e-003
2.354658e+003, 3.648130e-003
2.356586e+003, 4.302124e-003
2.358515e+003, 3.855054e-003
2.360443e+003, 4.127516e-003
2.362372e+003, 4.377536e-003
2.364300e+003, 4.366791e-003
2.366229e+003, 4.530831e-003
2.368157e+003, 4.040797e-003
2.370086e+003, 4.289624e-003
2.372014e+003, 3.810931e-003
2.373942e+003, 2.628175e-003
2.375871e+003, 2.056698e-003
2.377799e+003, 2.309358e-003
2.379728e+003, 2.694186e-003
2.381656e+003, 2.691305e-003
2.383585e+003, 3.067378e-003
2.385513e+003, 3.424047e-003
2.387442e+003, 3.063138e-003
2.389370e+003, 2.638825e-003
2.391299e+003, 2.641591e-003
2.393227e+003, 3.116372e-003
2.395156e+003, 3.095003e-003
2.397084e+003, 2.561908e-003
2.399012e+003, 2.523729e-003
2.400941e+003, 3.616692e-003
2.402869e+003, 3.421321e-003
2.404798e+003, 3.531755e-003
2.406726e+003, 4.070262e-003
2.408655e+003, 4.080574e-003
2.410583e+003, 4.103567e-003
2.412512e+003, 3.414760e-003
2.414440e+003, 3.087748e-003
2.416369e+003, 3.528102e-003
2.418297e+003, 3.709577e-003
2.420226e+003, 4.225853e-003
2.422154e+003, 4.985324e-003
2.424083e+003, 4.694371e-003
2.426011e+003, 3.753516e-003
2.427939e+003, 4.186983e-003
2.429868e+003, 4.375753e-003
2.431796e+003, 4.675318e-003
2.433725e+003, 5.114473e-003
2.435653e+003, 4.525972e-003
2.437582e+003, 3.882307e-003
2.439510e+003, 3.689068e-003
2.441439e+003, 3.141829e-003
2.443367e+003, 3.212601e-003
2.445296e+003, 4.508901e-003
2.447224e+003, 5.417545e-003
2.449153e+003, 4.781722e-003
2.451081e+003, 4.624542e-003
2.453010e+003, 4.162816e-003
2.454938e+003, 3.655751e-003
2.456866e+003, 4.639708e-003
2.458795e+003, 5.185250e-003
2.460723e+003, 4.879746e-003
2.462652e+003, 4.967349e-003
2.464580e+003, 4.676995e-003
2.466509e+003, 4.054460e-003
2.468437e+003, 3.243595e-003
2.470366e+003, 3.689896e-003
2.472294e+003, 3.858256e-003
2.474223e+003, 3.174315e-003
2.476151e+003, 3.432487e-003
2.478080e+003, 4.122851e-003
2.480008e+003, 4.605339e-003
2.481937e+003, 4.930405e-003
2.483865e+003, 5.388150e-003
2.485793e+003, 5.043899e-003
2.487722e+003, 5.180985e-003
2.489650e+003, 4.670137e-003
2.491579e+003, 4.230258e-003
2.493507e+003, 4.702431e-003
2.495436e+003, 5.134908e-003
2.497364e+003, 5.634508e-003
2.499293e+003, 5.493360e-003
2.501221e+003, 5.020001e-003
2.503150e+003, 4.131008e-003
2.505078e+003, 4.378677e-003
2.507007e+003, 4.461784e-003
2.508935e+003, 3.493362e-003
2.510864e+003, 3.381626e-003
2.512792e+003, 4.151435e-003
2.514720e+003, 4.026742e-003
2.516649e+003, 3.834253e-003
2.518577e+003, 3.999917e-003
2.520506e+003, 4.776917e-003
2.522434e+003, 6.085671e-003
2.524363e+003, 6.572538e-003
2.526291e+003, 5.866050e-003
2.528220e+003, 4.499033e-003
2.530148e+003, 5.126234e-003
2.532077e+003, 6.489064e-003
2.534005e+003, 6.275534e-003
2.535934e+003, 6.254451e-003
2.537862e+003, 5.919379e-003
2.539791e+003, 4.958260e-003
2.541719e+003, 4.966424e-003
2.543647e+003, 5.843227e-003
2.545576e+003, 6.104692e-003
2.547504e+003, 6.380531e-003
2.549433e+003, 6.202709e-003
2.551361e+003, 6.749654e-003
2.553290e+003, 6.805062e-003
2.555218e+003, 6.614462e-003
2.557147e+003, 6.478313e-003
2.559075e+003, 6.127859e-003
2.561004e+003, 5.525977e-003
2.562932e+003, 5.011713e-003
2.564861e+003, 5.766204e-003
2.566789e+003, 6.160953e-003
2.568718e+003, 5.793441e-003
2.570646e+003, 6.193764e-003
2.572574e+003, 6.050392e-003
2.574503e+003, 5.641265e-003
2.576431e+003, 5.098225e-003
2.578360e+003, 5.816047e-003
2.580288e+003, 5.086704e-003
2.582217e+003, 5.186256e-003
2.584145e+003, 7.169734e-003
2.586074e+003, 7.722732e-003
2.588002e+003, 6.624625e-003
2.589931e+003, 6.051696e-003
2.591859e+003, 7.207471e-003
2.593788e+003, 7.033545e-003
2.595716e+003, 6.991695e-003
2.597645e+003, 7.366844e-003
2.599573e+003, 6.351464e-003
2.601501e+003, 6.178140e-003
2.603430e+003, 6.542208e-003
2.605358e+003, 6.560511e-003
2.607287e+003, 6.255639e-003
2.609215e+003, 6.403540e-003
2.611144e+003, 6.526784e-003
2.613072e+003, 5.900353e-003
2.615001e+003, 6.301243e-003
2.616929e+003, 7.610244e-003
2.618858e+003, 8.028949e-003
2.620786e+003, 7.839683e-003
2.622715e+003, 6.861045e-003
2.624643e+003, 7.177599e-003
2.626572e+003, 7.989933e-003
2.628500e+003, 7.480649e-003
2.630428e+003, 7.448150e-003
2.632357e+003, 8.683787e-003
2.634285e+003, 9.069277e-003
2.636214e+003, 8.488024e-003
2.638142e+003, 8.010254e-003
2.640071e+003, 8.361034e-003
2.641999e+003, 9.033805e-003
2.643928e+003, 8.571288e-003
2.645856e+003, 7.621821e-003
2.647785e+003, 8.416218e-003
2.649713e+003, 8.831989e-003
2.651642e+003, 8.077784e-003
2.653570e+003, 7.877375e-003
2.655499e+003, 8.037435e-003
2.657427e+003, 7.964007e-003
2.659355e+003, 7.559593e-003
2.661284e+003, 7.721744e-003
2.663212e+003, 8.030215e-003
2.665141e+003, 8.760616e-003
2.667069e+003, 9.121398e-003
2.668998e+003, 8.659868e-003
2.670926e+003, 9.123350e-003
2.672855e+003, 9.593654e-003
2.674783e+003, 9.452960e-003
2.676712e+003, 9.650335e-003
2.678640e+003, 9.561175e-003
2.680569e+003, 9.253419e-003
2.682497e+003, 9.469111e-003
2.684426e+003, 9.252747e-003
2.686354e+003, 9.348758e-003
2.688282e+003, 8.997798e-003
2.690211e+003, 8.435247e-003
2.692139e+003, 8.802357e-003
2.694068e+003, 9.454520e-003
2.695996e+003, 9.310547e-003
2.697925e+003, 8.982328e-003
2.699853e+003, 8.689053e-003
2.701782e+003, 9.207813e-003
2.703710e+003, 9.373912e-003
2.705639e+003, 9.389292e-003
2.707567e+003, 9.060794e-003
2.709496e+003, 8.600983e-003
2.711424e+003, 8.384469e-003
2.713353e+003, 8.516687e-003
2.715281e+003, 9.219105e-003
2.717209e+003, 9.940412e-003
2.719138e+003, 9.688335e-003
2.721066e+003, 8.775657e-003
2.722995e+003, 8.773020e-003
2.724923e+003, 8.529747e-003
2.726852e+003, 8.486283e-003
2.728780e+003, 9.127100e-003
2.730709e+003, 9.169812e-003
2.732637e+003, 8.900962e-003
2.734566e+003, 9.050095e-003
2.736494e+003, 8.883308e-003
2.738423e+003, 8.060093e-003
2.740351e+003, 7.949143e-003
2.742280e+003, 8.916166e-003
2.744208e+003, 8.365853e-003
2.746136e+003, 6.973283e-003
2.748065e+003, 7.059527e-003
2.749993e+003, 7.931476e-003
2.751922e+003, 7.931715e-003
2.753850e+003, 8.078432e-003
2.755779e+003, 7.388737e-003
2.757707e+003, 7.679596e-003
2.759636e+003, 8.201747e-003
2.761564e+003, 7.924635e-003
2.763493e+003, 7.580456e-003
2.765421e+003, 8.402012e-003
2.767350e+003, 8.390916e-003
2.769278e+003, 7.888145e-003
2.771207e+003, 7.988176e-003
2.773135e+003, 8.383084e-003
2.775063e+003, 8.340228e-003
2.776992e+003, 8.742458e-003
2.778920e+003, 9.281307e-003
2.780849e+003, 9.298572e-003
2.782777e+003, 8.079033e-003
2.784706e+003, 7.279628e-003
2.786634e+003, 8.195654e-003
2.788563e+003, 8.461758e-003
2.790491e+003, 7.916887e-003
2.792420e+003, 7.916301e-003
2.794348e+003, 8.803044e-003
2.796277e+003, 8.705734e-003
2.798205e+003, 8.830394e-003
2.800134e+003, 9.512587e-003
2.802062e+003, 9.594845e-003
2.803990e+003, 8.773950e-003
2.805919e+003, 8.189738e-003
2.807847e+003, 9.294961e-003
2.809776e+003, 1.012973e-002
2.811704e+003, 1.047648e-002
2.813633e+003, 1.013187e-002
2.815561e+003, 9.296065e-003
2.817490e+003, 8.828916e-003
2.819418e+003, 9.237331e-003
2.821347e+003, 1.012592e-002
2.823275e+003, 1.048734e-002
2.825204e+003, 1.015159e-002
2.827132e+003, 8.853424e-003
2.829061e+003, 8.370426e-003
2.830989e+003, 9.032606e-003
2.832917e+003, 1.059166e-002
2.834846e+003, 1.087703e-002
2.836774e+003, 1.083509e-002
2.838703e+003, 1.111948e-002
2.840631e+003, 1.055925e-002
2.842560e+003, 9.693980e-003
2.844488e+003, 9.380151e-003
2.846417e+003, 1.011941e-002
2.848345e+003, 1.066960e-002
2.850274e+003, 1.079966e-002
2.852202e+003, 1.094125e-002
2.854131e+003, 1.204725e-002
2.856059e+003, 1.184841e-002
2.857988e+003, 1.099636e-002
2.859916e+003, 1.134532e-002
2.861844e+003, 1.199256e-002
2.863773e+003, 1.223534e-002
2.865701e+003, 1.212539e-002
2.867630e+003, 1.031758e-002
2.869558e+003, 8.659919e-003
2.871487e+003, 9.495071e-003
2.873415e+003, 1.163149e-002
2.875344e+003, 1.341035e-002
2.877272e+003, 1.313482e-002
2.879201e+003, 1.212344e-002
2.881129e+003, 1.211292e-002
2.883058e+003, 1.208644e-002
2.884986e+003, 1.173464e-002
2.886915e+003, 1.154473e-002
2.888843e+003, 1.240795e-002
2.890771e+003, 1.290361e-002
2.892700e+003, 1.296301e-002
2.894628e+003, 1.199889e-002
2.896557e+003, 1.152217e-002
2.898485e+003, 1.225572e-002
2.900414e+003, 1.252978e-002
2.902342e+003, 1.138487e-002
2.904271e+003, 1.208630e-002
2.906199e+003, 1.366306e-002
2.908128e+003, 1.344684e-002
2.910056e+003, 1.280308e-002
2.911985e+003, 1.284184e-002
2.913913e+003, 1.339884e-002
2.915842e+003, 1.326263e-002
2.917770e+003, 1.200343e-002
2.919698e+003, 1.248249e-002
2.921627e+003, 1.366536e-002
2.923555e+003, 1.320393e-002
2.925484e+003, 1.313900e-002
2.927412e+003, 1.250048e-002
2.929341e+003, 1.190113e-002
2.931269e+003, 1.277432e-002
2.933198e+003, 1.242943e-002
2.935126e+003, 1.270409e-002
2.937055e+003, 1.261602e-002
2.938983e+003, 1.205316e-002
2.940912e+003, 1.203958e-002
2.942840e+003, 1.267464e-002
2.944769e+003, 1.265085e-002
2.946697e+003, 1.261037e-002
2.948625e+003, 1.320338e-002
2.950554e+003, 1.387016e-002
2.952482e+003, 1.463608e-002
2.954411e+003, 1.411750e-002
2.956339e+003, 1.391965e-002
2.958268e+003, 1.478182e-002
2.960196e+003, 1.441785e-002
2.962125e+003, 1.423835e-002
2.964053e+003, 1.493955e-002
2.965982e+003, 1.515387e-002
2.967910e+003, 1.579412e-002
2.969839e+003, 1.576607e-002
2.971767e+003, 1.536404e-002
2.973696e+003, 1.524367e-002
2.975624e+003, 1.548963e-002
2.977552e+003, 1.580584e-002
2.979481e+003, 1.602662e-002
2.981409e+003, 1.610367e-002
2.983338e+003, 1.535703e-002
2.985266e+003, 1.554749e-002
2.987195e+003, 1.709410e-002
2.989123e+003, 1.781003e-002
2.991052e+003, 1.711981e-002
2.992980e+003, 1.778724e-002
2.994909e+003, 1.797989e-002
2.996837e+003, 1.717862e-002
2.998766e+003, 1.752010e-002
3.000694e+003, 1.746134e-002
3.002623e+003, 1.732828e-002
3.004551e+003, 1.759242e-002
3.006479e+003, 1.818739e-002
3.008408e+003, 1.829469e-002
3.010336e+003, 1.844893e-002
3.012265e+003, 1.867953e-002
3.014193e+003, 1.878903e-002
3.016122e+003, 1.923666e-002
3.018050e+003, 1.931453e-002
3.019979e+003, 1.868256e-002
3.021907e+003, 1.825684e-002
3.023836e+003, 1.848636e-002
3.025764e+003, 1.923612e-002
3.027693e+003, 1.931437e-002
3.029621e+003, 1.975984e-002
3.031550e+003, 1.952899e-002
3.033478e+003, 1.852551e-002
3.035406e+003, 1.840828e-002
3.037335e+003, 1.860218e-002
3.039263e+003, 1.865827e-002
3.041192e+003, 1.935294e-002
3.043120e+003, 2.011792e-002
3.045049e+003, 2.016479e-002
3.046977e+003, 2.033909e-002
3.048906e+003, 2.020267e-002
3.050834e+003, 1.980273e-002
3.052763e+003, 2.057052e-002
3.054691e+003, 2.119119e-002
3.056620e+003, 2.155810e-002
3.058548e+003, 1.986165e-002
3.060477e+003, 1.940989e-002
3.062405e+003, 2.017541e-002
3.064333e+003, 2.020108e-002
3.066262e+003, 2.103912e-002
3.068190e+003, 2.207677e-002
3.070119e+003, 2.133703e-002
3.072047e+003, 2.053985e-002
3.073976e+003, 2.083833e-002
3.075904e+003, 2.235640e-002
3.077833e+003, 2.385551e-002
3.079761e+003, 2.339678e-002
3.081690e+003, 2.180239e-002
3.083618e+003, 2.012067e-002
3.085547e+003, 2.126648e-002
3.087475e+003, 2.327819e-002
3.089404e+003, 2.265551e-002
3.091332e+003, 2.284046e-002
3.093260e+003, 2.320499e-002
3.095189e+003, 2.125178e-002
3.097117e+003, 1.937505e-002
3.099046e+003, 2.028131e-002
3.100974e+003, 2.236031e-002
3.102903e+003, 2.413067e-002
3.104831e+003, 2.371421e-002
3.106760e+003, 2.292565e-002
3.108688e+003, 2.194391e-002
3.110617e+003, 2.258186e-002
3.112545e+003, 2.425907e-002
3.114474e+003, 2.425000e-002
3.116402e+003, 2.299675e-002
3.118331e+003, 2.276598e-002
3.120259e+003, 2.430581e-002
3.122188e+003, 2.443421e-002
3.124116e+003, 2.403428e-002
3.126044e+003, 2.437988e-002
3.127973e+003, 2.449240e-002
3.129901e+003, 2.434448e-002
3.131830e+003, 2.392511e-002
3.133758e+003, 2.181612e-002
3.135687e+003, 2.229795e-002
3.137615e+003, 2.326343e-002
3.139544e+003, 2.351785e-002
3.141472e+003, 2.413880e-002
3.143401e+003, 2.290978e-002
3.145329e+003, 2.168549e-002
3.147258e+003, 2.220336e-002
3.149186e+003, 2.255609e-002
3.151115e+003, 2.217541e-002
3.153043e+003, 2.307576e-002
3.154971e+003, 2.296985e-002
3.156900e+003, 2.277149e-002
3.158828e+003, 2.348336e-002
3.160757e+003, 2.348566e-002
3.162685e+003, 2.324076e-002
3.164614e+003, 2.189715e-002
3.166542e+003, 2.172586e-002
3.168471e+003, 2.136382e-002
3.170399e+003, 2.169032e-002
3.172328e+003, 2.298057e-002
3.174256e+003, 2.355707e-002
3.176185e+003, 2.311381e-002
3.178113e+003, 2.306210e-002
3.180042e+003, 2.271999e-002
3.181970e+003, 2.184757e-002
3.183898e+003, 2.156557e-002
3.185827e+003, 2.263675e-002
3.187755e+003, 2.314646e-002
3.189684e+003, 2.277997e-002
3.191612e+003, 2.258853e-002
3.193541e+003, 2.147752e-002
3.195469e+003, 2.186980e-002
3.197398e+003, 2.217921e-002
3.199326e+003, 2.120844e-002
3.201255e+003, 2.148436e-002
3.203183e+003, 2.116515e-002
3.205112e+003, 2.093778e-002
3.207040e+003, 2.199357e-002
3.208969e+003, 2.285489e-002
3.210897e+003, 2.417482e-002
3.212825e+003, 2.418619e-002
3.214754e+003, 2.273759e-002
3.216682e+003, 2.289705e-002
3.218611e+003, 2.476546e-002
3.220539e+003, 2.435165e-002
3.222468e+003, 2.209005e-002
3.224396e+003, 2.179354e-002
3.226325e+003, 2.397470e-002
3.228253e+003, 2.467678e-002
3.230182e+003, 2.349881e-002
3.232110e+003, 2.274062e-002
3.234039e+003, 2.253682e-002
3.235967e+003, 2.236734e-002
3.237896e+003, 2.316660e-002
3.239824e+003, 2.345816e-002
3.241752e+003, 2.204646e-002
3.243681e+003, 2.026854e-002
3.245609e+003, 1.968078e-002
3.247538e+003, 2.106464e-002
3.249466e+003, 2.259411e-002
3.251395e+003, 2.324051e-002
3.253323e+003, 2.196091e-002
3.255252e+003, 2.286934e-002
3.257180e+003, 2.448408e-002
3.259109e+003, 2.458714e-002
3.261037e+003, 2.236772e-002
3.262966e+003, 2.202655e-002
3.264894e+003, 2.259531e-002
3.266823e+003, 2.257896e-002
3.268751e+003, 2.274394e-002
3.270679e+003, 2.295449e-002
3.272608e+003, 2.301850e-002
3.274536e+003, 2.219888e-002
3.276465e+003, 2.052428e-002
3.278393e+003, 2.108396e-002
3.280322e+003, 2.180573e-002
3.282250e+003, 2.087125e-002
3.284179e+003, 2.246421e-002
3.286107e+003, 2.330280e-002
3.288036e+003, 2.270610e-002
3.289964e+003, 2.272174e-002
3.291893e+003, 2.427221e-002
3.293821e+003, 2.491065e-002
3.295750e+003, 2.480923e-002
3.297678e+003, 2.347237e-002
3.299606e+003, 2.332307e-002
3.301535e+003, 2.303575e-002
3.303463e+003, 2.411162e-002
3.305392e+003, 2.522719e-002
3.307320e+003, 2.423885e-002
3.309249e+003, 2.291286e-002
3.311177e+003, 2.356087e-002
3.313106e+003, 2.441668e-002
3.315034e+003, 2.380852e-002
3.316963e+003, 2.417483e-002
3.318891e+003, 2.506589e-002
3.320820e+003, 2.541627e-002
3.322748e+003, 2.577889e-002
3.324677e+003, 2.573251e-002
3.326605e+003, 2.546829e-002
3.328533e+003, 2.676551e-002
3.330462e+003, 2.769332e-002
3.332390e+003, 2.771161e-002
3.334319e+003, 2.704401e-002
3.336247e+003, 2.570076e-002
3.338176e+003, 2.612898e-002
3.340104e+003, 2.594385e-002
3.342033e+003, 2.659490e-002
3.343961e+003, 2.767456e-002
3.345890e+003, 2.770273e-002
3.347818e+003, 2.777161e-002
3.349747e+003, 2.926596e-002
3.351675e+003, 3.144333e-002
3.353604e+003, 3.265743e-002
3.355532e+003, 3.221180e-002
3.357460e+003, 3.052839e-002
3.359389e+003, 3.056593e-002
3.361317e+003, 3.002425e-002
3.363246e+003, 2.959142e-002
3.365174e+003, 3.096703e-002
3.367103e+003, 3.160243e-002
3.369031e+003, 3.118326e-002
3.370960e+003, 3.250276e-002
3.372888e+003, 3.437799e-002
3.374817e+003, 3.484325e-002
3.376745e+003, 3.574579e-002
3.378674e+003, 3.816747e-002
3.380602e+003, 3.937491e-002
3.382531e+003, 3.906424e-002
3.384459e+003, 3.805029e-002
3.386387e+003, 3.695662e-002
3.388316e+003, 4.075263e-002
3.390244e+003, 4.460562e-002
3.392173e+003, 4.470618e-002
3.394101e+003, 4.273532e-002
3.396030e+003, 4.319162e-002
3.397958e+003, 4.587330e-002
3.399887e+003, 4.642818e-002
3.401815e+003, 4.622481e-002
3.403744e+003, 4.707336e-002
3.405672e+003, 4.891789e-002
3.407601e+003, 5.177977e-002
3.409529e+003, 5.127370e-002
3.411458e+003, 5.158743e-002
3.413386e+003, 5.124201e-002
3.415314e+003, 5.233067e-002
3.417243e+003, 5.424397e-002
3.419171e+003, 5.287818e-002
3.421100e+003, 5.080172e-002
3.423028e+003, 4.939299e-002
3.424957e+003, 4.969161e-002
3.426885e+003, 5.149215e-002
3.428814e+003, 5.249255e-002
3.430742e+003, 5.025164e-002
3.432671e+003, 4.635742e-002
3.434599e+003, 4.463223e-002
3.436528e+003, 4.384410e-002
3.438456e+003, 4.269660e-002
3.440385e+003, 4.415065e-002
3.442313e+003, 4.727440e-002
3.444241e+003, 4.758773e-002
3.446170e+003, 4.287875e-002
3.448098e+003, 4.287312e-002
3.450027e+003, 4.199700e-002
3.451955e+003, 3.972471e-002
3.453884e+003, 4.015568e-002
3.455812e+003, 3.968903e-002
3.457741e+003, 3.810732e-002
3.459669e+003, 3.903785e-002
3.461598e+003, 4.106907e-002
3.463526e+003, 4.342789e-002
3.465455e+003, 4.675882e-002
3.467383e+003, 4.978884e-002
3.469312e+003, 4.936011e-002
3.471240e+003, 5.085411e-002
3.473168e+003, 5.477067e-002
3.475097e+003, 5.632745e-002
3.477025e+003, 6.104514e-002
3.478954e+003, 6.744398e-002
3.480882e+003, 7.623635e-002
3.482811e+003, 8.381941e-002
3.484739e+003, 8.849427e-002
3.486668e+003, 9.256324e-002
3.488596e+003, 9.382735e-002
3.490525e+003, 9.317140e-002
3.492453e+003, 9.012972e-002
3.494382e+003, 7.920201e-002
3.496310e+003, 6.849677e-002
3.498239e+003, 6.138438e-002
3.500167e+003, 5.347283e-002
3.502095e+003, 4.651160e-002
3.504024e+003, 3.867480e-002
3.505952e+003, 3.370162e-002
3.507881e+003, 2.943364e-002
3.509809e+003, 2.545972e-002
3.511738e+003, 2.415397e-002
3.513666e+003, 2.451395e-002
3.515595e+003, 2.129891e-002
3.517523e+003, 1.679237e-002
3.519452e+003, 1.680087e-002
3.521380e+003, 1.810177e-002
3.523309e+003, 1.816768e-002
3.525237e+003, 1.809205e-002
3.527166e+003, 1.740450e-002
3.529094e+003, 1.763697e-002
3.531022e+003, 1.602546e-002
3.532951e+003, 1.747330e-002
3.534879e+003, 1.801236e-002
3.536808e+003, 1.898992e-002
3.538736e+003, 1.909334e-002
3.540665e+003, 1.694958e-002
3.542593e+003, 1.619541e-002
3.544522e+003, 1.672060e-002
3.546450e+003, 1.814182e-002
3.548379e+003, 1.806604e-002
3.550307e+003, 1.680973e-002
3.552236e+003, 1.649595e-002
3.554164e+003, 1.690883e-002
3.556093e+003, 1.577113e-002
3.558021e+003, 1.264002e-002
3.559949e+003, 9.793660e-003
3.561878e+003, 1.181508e-002
3.563806e+003, 1.468318e-002
3.565735e+003, 1.315851e-002
3.567663e+003, 1.206442e-002
3.569592e+003, 1.229482e-002
3.571520e+003, 1.137600e-002
3.573449e+003, 1.092193e-002
3.575377e+003, 1.162423e-002
3.577306e+003, 1.081781e-002
3.579234e+003, 9.050387e-003
3.581163e+003, 1.140049e-002
3.583091e+003, 1.468138e-002
3.585020e+003, 1.512282e-002
3.586948e+003, 1.418209e-002
3.588876e+003, 1.097447e-002
3.590805e+003, 8.199701e-003
3.592733e+003, 8.290149e-003
3.594662e+003, 1.032887e-002
3.596590e+003, 1.098006e-002
3.598519e+003, 1.122491e-002
3.600447e+003, 1.145924e-002
3.602376e+003, 1.001296e-002
3.604304e+003, 8.109638e-003
3.606233e+003, 8.963382e-003
3.608161e+003, 8.783619e-003
3.610090e+003, 7.248045e-003
3.612018e+003, 9.672798e-003
3.613947e+003, 1.148049e-002
3.615875e+003, 9.890847e-003
3.617803e+003, 8.561920e-003
3.619732e+003, 5.107020e-003
3.621660e+003, 5.691456e-003
3.623589e+003, 8.969209e-003
3.625517e+003, 9.145306e-003
3.627446e+003, 8.279143e-003
3.629374e+003, 6.735469e-003
3.631303e+003, 6.731677e-003
3.633231e+003, 6.912500e-003
3.635160e+003, 5.278756e-003
3.637088e+003, 6.486814e-003
3.639017e+003, 8.875829e-003
3.640945e+003, 7.777646e-003
3.642874e+003, 6.066810e-003
3.644802e+003, 4.319929e-003
3.646730e+003, 6.509835e-003
3.648659e+003, 9.099109e-003
3.650587e+003, 8.818177e-003
3.652516e+003, 4.345697e-003
3.654444e+003, 3.016345e-003
3.656373e+003, 7.029539e-003
3.658301e+003, 4.504764e-003
3.660230e+003, 3.808936e-003
3.662158e+003, 5.050746e-003
3.664087e+003, 7.111806e-003
3.666015e+003, 7.468209e-003
3.667944e+003, 7.435995e-003
3.669872e+003, 7.086026e-003
3.671801e+003, 6.759834e-003
3.673729e+003, 5.900341e-003
3.675657e+003, 6.764733e-003
3.677586e+003, 6.215385e-003
3.679514e+003, 5.274909e-003
3.681443e+003, 6.392249e-003
3.683371e+003, 6.453557e-003
3.685300e+003, 7.901845e-003
3.687228e+003, 8.038831e-003
3.689157e+003, 7.836781e-003
3.691085e+003, 7.103892e-003
3.693014e+003, 5.174198e-003
3.694942e+003, 5.900250e-003
3.696871e+003, 5.005602e-003
3.698799e+003, 3.745513e-003
3.700728e+003, 5.106400e-003
3.702656e+003, 8.119692e-003
3.704584e+003, 5.955195e-003
3.706513e+003, 4.094958e-003
3.708441e+003, 2.772247e-003
3.710370e+003, 4.695996e-003
3.712298e+003, 7.879512e-003
3.714227e+003, 7.140642e-003
3.716155e+003, 4.093513e-003
3.718084e+003, 3.432042e-003
3.720012e+003, 6.007089e-003
3.721941e+003, 8.562257e-003
3.723869e+003, 6.539380e-003
3.725798e+003, 5.101859e-003
3.727726e+003, 6.970960e-003
3.729655e+003, 8.016695e-003
3.731583e+003, 6.384223e-003
3.733511e+003, 7.377531e-003
3.735440e+003, 9.052888e-003
3.737368e+003, 6.748729e-003
3.739297e+003, 3.439704e-003
3.741225e+003, 4.701357e-003
3.743154e+003, 5.638555e-003
3.745082e+003, 6.227560e-003
3.747011e+003, 1.108561e-002
3.748939e+003, 1.022308e-002
3.750868e+003, 6.288707e-003
3.752796e+003, 9.209993e-003
3.754725e+003, 1.125273e-002
3.756653e+003, 1.154230e-002
3.758582e+003, 1.034876e-002
3.760510e+003, 7.674479e-003
3.762438e+003, 6.749184e-003
3.764367e+003, 6.464606e-003
3.766295e+003, 7.157016e-003
3.768224e+003, 7.809022e-003
3.770152e+003, 7.764569e-003
3.772081e+003, 4.204112e-003
3.774009e+003, 1.948283e-003
3.775938e+003, 3.482060e-003
3.777866e+003, 5.134733e-003
3.779795e+003, 7.407846e-003
3.781723e+003, 5.043444e-003
3.783652e+003, 1.846323e-003
3.785580e+003, 2.074692e-003
3.787509e+003, 4.233637e-003
3.789437e+003, 7.251184e-003
3.791365e+003, 8.184311e-003
3.793294e+003, 1.000776e-002
3.795222e+003, 1.296106e-002
3.797151e+003, 9.813772e-003
3.799079e+003, 6.985560e-003
3.801008e+003, 7.042986e-003
3.802936e+003, 1.099126e-002
3.804865e+003, 1.463179e-002
3.806793e+003, 1.415354e-002
3.808722e+003, 9.303331e-003
3.810650e+003, 8.677988e-003
3.812579e+003, 1.124309e-002
3.814507e+003, 9.962509e-003
3.816436e+003, 5.604799e-003
3.818364e+003, 7.910895e-003
3.820292e+003, 1.190114e-002
3.822221e+003, 9.304211e-003
3.824149e+003, 6.059647e-003
3.826078e+003, 7.278641e-003
3.828006e+003, 9.635288e-003
3.829935e+003, 7.331991e-003
3.831863e+003, 6.599638e-003
3.833792e+003, 7.859130e-003
3.835720e+003, 6.466567e-003
3.837649e+003, 5.026451e-003
3.839577e+003, 8.998000e-003
3.841506e+003, 9.613448e-003
3.843434e+003, 6.143376e-003
3.845363e+003, 4.962306e-003
3.847291e+003, 6.261534e-004
3.849219e+003, 2.707319e-003
3.851148e+003, 1.068941e-002
3.853076e+003, 1.330868e-002
3.855005e+003, 1.185529e-002
3.856933e+003, 6.117367e-003
3.858862e+003, 4.138810e-003
3.860790e+003, 8.925918e-003
3.862719e+003, 9.092637e-003
3.864647e+003, 5.881191e-003
3.866576e+003, 5.667123e-003
3.868504e+003, 6.361899e-003
3.870433e+003, 5.577300e-003
3.872361e+003, 6.134883e-003
3.874290e+003, 7.181479e-003
3.876218e+003, 1.044351e-002
3.878146e+003, 1.029135e-002
3.880075e+003, 5.483621e-003
3.882003e+003, 3.205329e-003
3.883932e+003, 6.776917e-003
3.885860e+003, 7.471256e-003
3.887789e+003, 7.062650e-003
3.889717e+003, 6.618928e-003
3.891646e+003, 6.521888e-003
3.893574e+003, 6.592724e-003
3.895503e+003, 6.807733e-003
3.897431e+003, 8.611199e-003
3.899360e+003, 8.118946e-003
3.901288e+003, 8.128287e-003
3.903217e+003, 8.192733e-003
3.905145e+003, 7.202809e-003
3.907073e+003, 9.263560e-003
3.909002e+003, 6.369994e-003
3.910930e+003, 3.354246e-003
3.912859e+003, 4.024784e-003
3.914787e+003, 6.359370e-003
3.916716e+003, 8.380822e-003
3.918644e+003, 8.831907e-003
3.920573e+003, 8.376150e-003
3.922501e+003, 6.128619e-003
3.924430e+003, 7.705809e-003
3.926358e+003, 1.107742e-002
3.928287e+003, 1.130454e-002
3.930215e+003, 9.118762e-003
3.932144e+003, 8.967239e-003
3.934072e+003, 8.029602e-003
3.936000e+003, 6.613240e-003
3.937929e+003, 8.230850e-003
3.939857e+003, 7.752362e-003
3.941786e+003, 8.393122e-003
3.943714e+003, 7.641030e-003
3.945643e+003, 8.747681e-003
3.947571e+003, 9.978337e-003
3.949500e+003, 9.450207e-003
3.951428e+003, 5.773097e-003
3.953357e+003, 2.543889e-003
3.955285e+003, 6.935762e-003
3.957214e+003, 1.104359e-002
3.959142e+003, 9.632102e-003
3.961071e+003, 6.544033e-003
3.962999e+003, 7.383365e-003
3.964927e+003, 1.090064e-002
3.966856e+003, 1.036768e-002
3.968784e+003, 1.246704e-002
3.970713e+003, 1.469916e-002
3.972641e+003, 1.207879e-002
3.974570e+003, 1.250710e-002
3.976498e+003, 9.929139e-003
3.978427e+003, 3.913195e-003
3.980355e+003, 7.471200e-003
3.982284e+003, 1.195319e-002
3.984212e+003, 1.035075e-002
3.986141e+003, 1.153099e-002
3.988069e+003, 1.483591e-002
3.989998e+003, 1.164450e-002
3.991926e+003, 7.919393e-003
3.993854e+003, 7.863662e-003
3.995783e+003, 1.078430e-002
3.997711e+003, 1.010175e-002
3.999640e+003, 1.010662e-002
4.001568e+003, 0.000000e+000
##END=



