##NAMES=Boleite
##RRUFFID=R050022
##IDEAL CHEMISTRY=KAg^1+^_9_Pb^2+^_26_Cu^2+^_24_Cl_62_(OH)_48_
##LOCALITY=Amelia mine, Boleo, Baja California, Mexico
##OWNER=RRUFF
##SOURCE=Eugene Schlepp
##DESCRIPTION=Dark blue colored interpenetrating cubes
##STATUS=The identification of this mineral has been confirmed by X-ray diffraction.
##URL=rruff.info/R050022
3.991926e+002, 0.000000e+000
4.011211e+002, 4.499385e-002
4.030496e+002, 4.505876e-002
4.049780e+002, 4.776076e-002
4.069065e+002, 5.117356e-002
4.088350e+002, 5.328957e-002
4.107634e+002, 5.551971e-002
4.126919e+002, 5.993861e-002
4.146204e+002, 6.324568e-002
4.165488e+002, 6.621373e-002
4.184773e+002, 7.075457e-002
4.204058e+002, 7.651510e-002
4.223342e+002, 8.244017e-002
4.242627e+002, 9.033034e-002
4.261912e+002, 9.846492e-002
4.281196e+002, 1.065602e-001
4.300481e+002, 1.162752e-001
4.319766e+002, 1.254975e-001
4.339050e+002, 1.353365e-001
4.358335e+002, 1.460781e-001
4.377620e+002, 1.557852e-001
4.396904e+002, 1.608789e-001
4.416189e+002, 1.621374e-001
4.435474e+002, 1.608218e-001
4.454758e+002, 1.537970e-001
4.474043e+002, 1.407930e-001
4.493328e+002, 1.266160e-001
4.512612e+002, 1.173910e-001
4.531897e+002, 1.144109e-001
4.551182e+002, 1.190039e-001
4.570466e+002, 1.291983e-001
4.589751e+002, 1.377991e-001
4.609036e+002, 1.381420e-001
4.628320e+002, 1.329203e-001
4.647605e+002, 1.260087e-001
4.666890e+002, 1.191513e-001
4.686174e+002, 1.139757e-001
4.705459e+002, 1.113344e-001
4.724744e+002, 1.096464e-001
4.744028e+002, 1.066456e-001
4.763313e+002, 1.009276e-001
4.782598e+002, 9.389272e-002
4.801882e+002, 8.668989e-002
4.821167e+002, 8.074353e-002
4.840452e+002, 7.592292e-002
4.859736e+002, 7.195664e-002
4.879021e+002, 6.927924e-002
4.898306e+002, 6.775617e-002
4.917590e+002, 6.647928e-002
4.936875e+002, 6.632477e-002
4.956160e+002, 6.719457e-002
4.975444e+002, 6.852556e-002
4.994729e+002, 7.116962e-002
5.014014e+002, 7.536115e-002
5.033298e+002, 7.987821e-002
5.052583e+002, 8.615518e-002
5.071868e+002, 9.372617e-002
5.091152e+002, 1.012651e-001
5.110437e+002, 1.072263e-001
5.129722e+002, 1.106126e-001
5.149006e+002, 1.104782e-001
5.168291e+002, 1.060160e-001
5.187576e+002, 9.849250e-002
5.206860e+002, 8.992141e-002
5.226145e+002, 8.138388e-002
5.245430e+002, 7.330883e-002
5.264714e+002, 6.524541e-002
5.283999e+002, 5.835955e-002
5.303284e+002, 5.266933e-002
5.322568e+002, 4.795602e-002
5.341853e+002, 4.418259e-002
5.361138e+002, 4.116725e-002
5.380422e+002, 3.880911e-002
5.399707e+002, 3.716909e-002
5.418992e+002, 3.550639e-002
5.438276e+002, 3.386217e-002
5.457561e+002, 3.300588e-002
5.476846e+002, 3.250699e-002
5.496130e+002, 3.203588e-002
5.515415e+002, 3.157975e-002
5.534700e+002, 3.101146e-002
5.553984e+002, 3.051263e-002
5.573269e+002, 2.978880e-002
5.592554e+002, 2.878390e-002
5.611838e+002, 2.768364e-002
5.631123e+002, 2.701381e-002
5.650408e+002, 2.655215e-002
5.669692e+002, 2.628455e-002
5.688977e+002, 2.585076e-002
5.708262e+002, 2.530587e-002
5.727546e+002, 2.536795e-002
5.746831e+002, 2.578239e-002
5.766116e+002, 2.598386e-002
5.785400e+002, 2.602118e-002
5.804685e+002, 2.589204e-002
5.823970e+002, 2.583641e-002
5.843254e+002, 2.634875e-002
5.862539e+002, 2.672896e-002
5.881824e+002, 2.664994e-002
5.901108e+002, 2.697494e-002
5.920393e+002, 2.729753e-002
5.939678e+002, 2.775209e-002
5.958962e+002, 2.837975e-002
5.978247e+002, 2.892105e-002
5.997532e+002, 2.921977e-002
6.016816e+002, 2.942947e-002
6.036101e+002, 2.968264e-002
6.055386e+002, 2.980977e-002
6.074670e+002, 3.015456e-002
6.093955e+002, 3.060969e-002
6.113240e+002, 3.063579e-002
6.132524e+002, 3.086577e-002
6.151809e+002, 3.166630e-002
6.171094e+002, 3.224416e-002
6.190378e+002, 3.204729e-002
6.209663e+002, 3.236686e-002
6.228948e+002, 3.292696e-002
6.248232e+002, 3.368919e-002
6.267517e+002, 3.421904e-002
6.286802e+002, 3.454908e-002
6.306086e+002, 3.507100e-002
6.325371e+002, 3.587218e-002
6.344656e+002, 3.672527e-002
6.363940e+002, 3.740492e-002
6.383225e+002, 3.794611e-002
6.402510e+002, 3.861132e-002
6.421794e+002, 3.955861e-002
6.441079e+002, 4.038712e-002
6.460364e+002, 4.124011e-002
6.479648e+002, 4.233047e-002
6.498933e+002, 4.340566e-002
6.518218e+002, 4.456709e-002
6.537502e+002, 4.573629e-002
6.556787e+002, 4.698494e-002
6.576072e+002, 4.825351e-002
6.595356e+002, 4.942803e-002
6.614641e+002, 5.077565e-002
6.633926e+002, 5.247403e-002
6.653210e+002, 5.444600e-002
6.672495e+002, 5.642037e-002
6.691780e+002, 5.803454e-002
6.711064e+002, 5.957686e-002
6.730349e+002, 6.140274e-002
6.749634e+002, 6.324357e-002
6.768918e+002, 6.527279e-002
6.788203e+002, 6.766815e-002
6.807488e+002, 7.005588e-002
6.826772e+002, 7.266176e-002
6.846057e+002, 7.546826e-002
6.865342e+002, 7.862916e-002
6.884626e+002, 8.201282e-002
6.903911e+002, 8.600683e-002
6.923196e+002, 9.041961e-002
6.942480e+002, 9.511673e-002
6.961765e+002, 1.005969e-001
6.981050e+002, 1.065474e-001
7.000334e+002, 1.130017e-001
7.019619e+002, 1.200041e-001
7.038904e+002, 1.275125e-001
7.058188e+002, 1.351553e-001
7.077473e+002, 1.428992e-001
7.096758e+002, 1.495731e-001
7.116042e+002, 1.534337e-001
7.135327e+002, 1.532791e-001
7.154612e+002, 1.489523e-001
7.173896e+002, 1.407992e-001
7.193181e+002, 1.299265e-001
7.212466e+002, 1.190304e-001
7.231750e+002, 1.098531e-001
7.251035e+002, 1.024926e-001
7.270320e+002, 9.624808e-002
7.289604e+002, 9.014099e-002
7.308889e+002, 8.461995e-002
7.328174e+002, 8.015118e-002
7.347458e+002, 7.635256e-002
7.366743e+002, 7.331500e-002
7.386028e+002, 7.095565e-002
7.405313e+002, 6.903280e-002
7.424597e+002, 6.768137e-002
7.443882e+002, 6.663860e-002
7.463167e+002, 6.551821e-002
7.482451e+002, 6.463759e-002
7.501736e+002, 6.368209e-002
7.521021e+002, 6.269313e-002
7.540305e+002, 6.213617e-002
7.559590e+002, 6.138604e-002
7.578875e+002, 6.065184e-002
7.598159e+002, 6.047413e-002
7.617444e+002, 6.023903e-002
7.636729e+002, 5.975174e-002
7.656013e+002, 5.945013e-002
7.675298e+002, 5.926273e-002
7.694583e+002, 5.888943e-002
7.713867e+002, 5.867723e-002
7.733152e+002, 5.834742e-002
7.752437e+002, 5.795012e-002
7.771721e+002, 5.786540e-002
7.791006e+002, 5.768889e-002
7.810291e+002, 5.765467e-002
7.829575e+002, 5.774790e-002
7.848860e+002, 5.812022e-002
7.868145e+002, 5.847949e-002
7.887429e+002, 5.875703e-002
7.906714e+002, 5.920368e-002
7.925999e+002, 5.956536e-002
7.945283e+002, 5.978321e-002
7.964568e+002, 6.014051e-002
7.983853e+002, 6.075710e-002
8.003137e+002, 6.121209e-002
8.022422e+002, 6.178925e-002
8.041707e+002, 6.298187e-002
8.060991e+002, 6.400196e-002
8.080276e+002, 6.446856e-002
8.099561e+002, 6.484304e-002
8.118845e+002, 6.535541e-002
8.138130e+002, 6.549575e-002
8.157415e+002, 6.545465e-002
8.176699e+002, 6.557672e-002
8.195984e+002, 6.569740e-002
8.215269e+002, 6.543671e-002
8.234553e+002, 6.522121e-002
8.253838e+002, 6.516251e-002
8.273123e+002, 6.519947e-002
8.292407e+002, 6.477205e-002
8.311692e+002, 6.403483e-002
8.330977e+002, 6.357424e-002
8.350261e+002, 6.317250e-002
8.369546e+002, 6.272291e-002
8.388831e+002, 6.229603e-002
8.408115e+002, 6.196001e-002
8.427400e+002, 6.185316e-002
8.446685e+002, 6.197199e-002
8.465969e+002, 6.208793e-002
8.485254e+002, 6.207377e-002
8.504539e+002, 6.254151e-002
8.523823e+002, 6.334208e-002
8.543108e+002, 6.404783e-002
8.562393e+002, 6.464384e-002
8.581677e+002, 6.543779e-002
8.600962e+002, 6.652987e-002
8.620247e+002, 6.800967e-002
8.639531e+002, 6.958319e-002
8.658816e+002, 7.124259e-002
8.678101e+002, 7.363744e-002
8.697385e+002, 7.669964e-002
8.716670e+002, 8.059641e-002
8.735955e+002, 8.569209e-002
8.755239e+002, 9.175401e-002
8.774524e+002, 9.899648e-002
8.793809e+002, 1.071825e-001
8.813093e+002, 1.151106e-001
8.832378e+002, 1.212883e-001
8.851663e+002, 1.239253e-001
8.870947e+002, 1.217973e-001
8.890232e+002, 1.151161e-001
8.909517e+002, 1.054853e-001
8.928801e+002, 9.552331e-002
8.948085e+002, 8.669016e-002
8.967370e+002, 7.926709e-002
8.986655e+002, 7.325722e-002
9.005939e+002, 6.824391e-002
9.025224e+002, 6.396193e-002
9.044509e+002, 6.018675e-002
9.063793e+002, 5.682842e-002
9.083078e+002, 5.395941e-002
9.102363e+002, 5.138011e-002
9.121647e+002, 4.949469e-002
9.140932e+002, 4.838325e-002
9.160217e+002, 4.750675e-002
9.179501e+002, 4.704951e-002
9.198786e+002, 4.692806e-002
9.218071e+002, 4.682196e-002
9.237355e+002, 4.706782e-002
9.256640e+002, 4.758425e-002
9.275925e+002, 4.796144e-002
9.295209e+002, 4.830099e-002
9.314494e+002, 4.876830e-002
9.333779e+002, 4.937464e-002
9.353063e+002, 5.029189e-002
9.372348e+002, 5.119509e-002
9.391633e+002, 5.212301e-002
9.410917e+002, 5.309815e-002
9.430202e+002, 5.419378e-002
9.449487e+002, 5.558519e-002
9.468771e+002, 5.721898e-002
9.488056e+002, 5.907637e-002
9.507341e+002, 6.121622e-002
9.526625e+002, 6.382795e-002
9.545910e+002, 6.712434e-002
9.565195e+002, 7.105363e-002
9.584479e+002, 7.555085e-002
9.603764e+002, 8.105237e-002
9.623049e+002, 8.804908e-002
9.642333e+002, 9.637891e-002
9.661618e+002, 1.059183e-001
9.680903e+002, 1.164168e-001
9.700187e+002, 1.266096e-001
9.719472e+002, 1.338524e-001
9.738757e+002, 1.352494e-001
9.758041e+002, 1.292832e-001
9.777326e+002, 1.175843e-001
9.796611e+002, 1.035867e-001
9.815895e+002, 8.997604e-002
9.835180e+002, 7.892970e-002
9.854465e+002, 7.082831e-002
9.873749e+002, 6.532434e-002
9.893034e+002, 6.163262e-002
9.912319e+002, 5.907562e-002
9.931603e+002, 5.753389e-002
9.950888e+002, 5.658303e-002
9.970173e+002, 5.628309e-002
9.989457e+002, 5.634388e-002
1.000874e+003, 5.668543e-002
1.002803e+003, 5.728170e-002
1.004731e+003, 5.777781e-002
1.006660e+003, 5.790296e-002
1.008588e+003, 5.808383e-002
1.010517e+003, 5.848503e-002
1.012445e+003, 5.912490e-002
1.014373e+003, 5.993801e-002
1.016302e+003, 5.991430e-002
1.018230e+003, 5.919262e-002
1.020159e+003, 5.868698e-002
1.022087e+003, 5.824284e-002
1.024016e+003, 5.750415e-002
1.025944e+003, 5.680338e-002
1.027873e+003, 5.619620e-002
1.029801e+003, 5.575204e-002
1.031730e+003, 5.545845e-002
1.033658e+003, 5.515458e-002
1.035587e+003, 5.512156e-002
1.037515e+003, 5.515676e-002
1.039444e+003, 5.514129e-002
1.041372e+003, 5.515078e-002
1.043301e+003, 5.518693e-002
1.045229e+003, 5.531547e-002
1.047157e+003, 5.539813e-002
1.049086e+003, 5.529125e-002
1.051014e+003, 5.504536e-002
1.052943e+003, 5.471262e-002
1.054871e+003, 5.428929e-002
1.056800e+003, 5.373604e-002
1.058728e+003, 5.293388e-002
1.060657e+003, 5.198818e-002
1.062585e+003, 5.118739e-002
1.064514e+003, 5.069347e-002
1.066442e+003, 5.038897e-002
1.068371e+003, 5.020745e-002
1.070299e+003, 5.009866e-002
1.072228e+003, 5.001131e-002
1.074156e+003, 5.041454e-002
1.076084e+003, 5.084425e-002
1.078013e+003, 5.125165e-002
1.079941e+003, 5.153885e-002
1.081870e+003, 5.133394e-002
1.083798e+003, 5.092035e-002
1.085727e+003, 5.054824e-002
1.087655e+003, 5.047856e-002
1.089584e+003, 5.066171e-002
1.091512e+003, 5.082929e-002
1.093441e+003, 5.107410e-002
1.095369e+003, 5.145027e-002
1.097298e+003, 5.163762e-002
1.099226e+003, 5.175699e-002
1.101155e+003, 5.169059e-002
1.103083e+003, 5.165136e-002
1.105011e+003, 5.156215e-002
1.106940e+003, 5.143441e-002
1.108868e+003, 5.140647e-002
1.110797e+003, 5.152876e-002
1.112725e+003, 5.178029e-002
1.114654e+003, 5.197357e-002
1.116582e+003, 5.225719e-002
1.118511e+003, 5.292408e-002
1.120439e+003, 5.346884e-002
1.122368e+003, 5.393317e-002
1.124296e+003, 5.441374e-002
1.126225e+003, 5.493811e-002
1.128153e+003, 5.522173e-002
1.130082e+003, 5.522076e-002
1.132010e+003, 5.518864e-002
1.133938e+003, 5.500454e-002
1.135867e+003, 5.474795e-002
1.137795e+003, 5.447791e-002
1.139724e+003, 5.414563e-002
1.141652e+003, 5.403839e-002
1.143581e+003, 5.393654e-002
1.145509e+003, 5.410750e-002
1.147438e+003, 5.424900e-002
1.149366e+003, 5.444753e-002
1.151295e+003, 5.466311e-002
1.153223e+003, 5.491221e-002
1.155152e+003, 5.514463e-002
1.157080e+003, 5.522535e-002
1.159009e+003, 5.521630e-002
1.160937e+003, 5.498973e-002
1.162865e+003, 5.475499e-002
1.164794e+003, 5.454616e-002
1.166722e+003, 5.406084e-002
1.168651e+003, 5.345643e-002
1.170579e+003, 5.331671e-002
1.172508e+003, 5.337948e-002
1.174436e+003, 5.367082e-002
1.176365e+003, 5.415697e-002
1.178293e+003, 5.473770e-002
1.180222e+003, 5.546094e-002
1.182150e+003, 5.596052e-002
1.184079e+003, 5.637714e-002
1.186007e+003, 5.659810e-002
1.187936e+003, 5.657500e-002
1.189864e+003, 5.653078e-002
1.191792e+003, 5.660870e-002
1.193721e+003, 5.643080e-002
1.195649e+003, 5.615212e-002
1.197578e+003, 5.580232e-002
1.199506e+003, 5.528766e-002
1.201435e+003, 5.488862e-002
1.203363e+003, 5.473654e-002
1.205292e+003, 5.486177e-002
1.207220e+003, 5.520257e-002
1.209149e+003, 5.573376e-002
1.211077e+003, 5.616099e-002
1.213006e+003, 5.662803e-002
1.214934e+003, 5.711841e-002
1.216863e+003, 5.743054e-002
1.218791e+003, 5.765060e-002
1.220719e+003, 5.782554e-002
1.222648e+003, 5.796132e-002
1.224576e+003, 5.792536e-002
1.226505e+003, 5.794585e-002
1.228433e+003, 5.812544e-002
1.230362e+003, 5.820941e-002
1.232290e+003, 5.814431e-002
1.234219e+003, 5.804740e-002
1.236147e+003, 5.814486e-002
1.238076e+003, 5.833227e-002
1.240004e+003, 5.845003e-002
1.241933e+003, 5.835034e-002
1.243861e+003, 5.823750e-002
1.245790e+003, 5.818146e-002
1.247718e+003, 5.811956e-002
1.249646e+003, 5.804970e-002
1.251575e+003, 5.798566e-002
1.253503e+003, 5.788371e-002
1.255432e+003, 5.772591e-002
1.257360e+003, 5.758584e-002
1.259289e+003, 5.716319e-002
1.261217e+003, 5.690718e-002
1.263146e+003, 5.693097e-002
1.265074e+003, 5.708033e-002
1.267003e+003, 5.697045e-002
1.268931e+003, 5.698076e-002
1.270860e+003, 5.711378e-002
1.272788e+003, 5.715836e-002
1.274717e+003, 5.737247e-002
1.276645e+003, 5.751554e-002
1.278573e+003, 5.763119e-002
1.280502e+003, 5.785139e-002
1.282430e+003, 5.822009e-002
1.284359e+003, 5.843147e-002
1.286287e+003, 5.854498e-002
1.288216e+003, 5.883449e-002
1.290144e+003, 5.907167e-002
1.292073e+003, 5.923532e-002
1.294001e+003, 5.941075e-002
1.295930e+003, 5.952265e-002
1.297858e+003, 5.970019e-002
1.299787e+003, 6.004075e-002
1.301715e+003, 6.029659e-002
1.303644e+003, 6.039239e-002
1.305572e+003, 6.051314e-002
1.307500e+003, 6.066917e-002
1.309429e+003, 6.100519e-002
1.311357e+003, 6.129920e-002
1.313286e+003, 6.153722e-002
1.315214e+003, 6.166943e-002
1.317143e+003, 6.175999e-002
1.319071e+003, 6.206971e-002
1.321000e+003, 6.242453e-002
1.322928e+003, 6.260397e-002
1.324857e+003, 6.303537e-002
1.326785e+003, 6.340189e-002
1.328714e+003, 6.369725e-002
1.330642e+003, 6.407538e-002
1.332571e+003, 6.436014e-002
1.334499e+003, 6.456517e-002
1.336427e+003, 6.484143e-002
1.338356e+003, 6.499882e-002
1.340284e+003, 6.522590e-002
1.342213e+003, 6.563316e-002
1.344141e+003, 6.585024e-002
1.346070e+003, 6.617039e-002
1.347998e+003, 6.644566e-002
1.349927e+003, 6.663001e-002
1.351855e+003, 6.705955e-002
1.353784e+003, 6.736765e-002
1.355712e+003, 6.769293e-002
1.357641e+003, 6.799421e-002
1.359569e+003, 6.831319e-002
1.361498e+003, 6.873044e-002
1.363426e+003, 6.941800e-002
1.365354e+003, 7.011847e-002
1.367283e+003, 7.042590e-002
1.369211e+003, 7.070077e-002
1.371140e+003, 7.101745e-002
1.373068e+003, 7.115472e-002
1.374997e+003, 7.167842e-002
1.376925e+003, 7.215385e-002
1.378854e+003, 7.273050e-002
1.380782e+003, 7.308121e-002
1.382711e+003, 7.337382e-002
1.384639e+003, 7.353083e-002
1.386568e+003, 7.342250e-002
1.388496e+003, 7.432944e-002
1.390424e+003, 7.411325e-002
1.392353e+003, 7.388239e-002
1.394281e+003, 7.372405e-002
1.396210e+003, 7.436343e-002
1.398138e+003, 7.417578e-002
1.400067e+003, 7.475436e-002
1.401995e+003, 7.462914e-002
1.403924e+003, 7.441609e-002
1.405852e+003, 7.481181e-002
1.407781e+003, 7.489858e-002
1.409709e+003, 7.489229e-002
1.411638e+003, 7.465997e-002
1.413566e+003, 7.440909e-002
1.415495e+003, 7.396687e-002
1.417423e+003, 7.299437e-002
1.419351e+003, 7.267503e-002
1.421280e+003, 7.312959e-002
1.423208e+003, 7.300339e-002
1.425137e+003, 7.328080e-002
1.427065e+003, 7.328042e-002
1.428994e+003, 7.331987e-002
1.430922e+003, 7.368015e-002
1.432851e+003, 7.352044e-002
1.434779e+003, 7.269406e-002
1.436708e+003, 7.246087e-002
1.438636e+003, 7.323755e-002
1.440565e+003, 7.330257e-002
1.442493e+003, 7.348569e-002
1.444422e+003, 7.357789e-002
1.446350e+003, 7.335769e-002
1.448278e+003, 7.371841e-002
1.450207e+003, 7.385635e-002
1.452135e+003, 7.383548e-002
1.454064e+003, 7.306104e-002
1.455992e+003, 7.114971e-002
1.457921e+003, 7.316273e-002
1.459849e+003, 7.390334e-002
1.461778e+003, 7.406717e-002
1.463706e+003, 7.344188e-002
1.465635e+003, 7.415412e-002
1.467563e+003, 7.371128e-002
1.469492e+003, 7.332177e-002
1.471420e+003, 7.180277e-002
1.473349e+003, 7.225139e-002
1.475277e+003, 7.232124e-002
1.477205e+003, 7.342842e-002
1.479134e+003, 7.341293e-002
1.481062e+003, 7.344296e-002
1.482991e+003, 7.361186e-002
1.484919e+003, 7.337125e-002
1.486848e+003, 7.310918e-002
1.488776e+003, 7.323117e-002
1.490705e+003, 7.425140e-002
1.492633e+003, 7.464959e-002
1.494562e+003, 7.408643e-002
1.496490e+003, 7.445045e-002
1.498419e+003, 7.505020e-002
1.500347e+003, 7.657940e-002
1.502276e+003, 7.703796e-002
1.504204e+003, 7.511044e-002
1.506132e+003, 7.412771e-002
1.508061e+003, 7.610258e-002
1.509989e+003, 7.661516e-002
1.511918e+003, 7.613287e-002
1.513846e+003, 7.589210e-002
1.515775e+003, 7.512311e-002
1.517703e+003, 7.551181e-002
1.519632e+003, 7.385661e-002
1.521560e+003, 7.458179e-002
1.523489e+003, 7.546340e-002
1.525417e+003, 7.580445e-002
1.527346e+003, 7.631943e-002
1.529274e+003, 7.702145e-002
1.531203e+003, 7.680546e-002
1.533131e+003, 7.654936e-002
1.535059e+003, 7.800955e-002
1.536988e+003, 7.666127e-002
1.538916e+003, 7.474559e-002
1.540845e+003, 7.638461e-002
1.542773e+003, 7.796850e-002
1.544702e+003, 7.828698e-002
1.546630e+003, 7.951620e-002
1.548559e+003, 7.913905e-002
1.550487e+003, 7.968757e-002
1.552416e+003, 7.893168e-002
1.554344e+003, 7.886740e-002
1.556273e+003, 7.765322e-002
1.558201e+003, 7.612133e-002
1.560130e+003, 7.813060e-002
1.562058e+003, 7.997369e-002
1.563986e+003, 8.049212e-002
1.565915e+003, 8.086509e-002
1.567843e+003, 7.982295e-002
1.569772e+003, 8.038408e-002
1.571700e+003, 8.109430e-002
1.573629e+003, 8.038852e-002
1.575557e+003, 7.866542e-002
1.577486e+003, 8.114358e-002
1.579414e+003, 8.145606e-002
1.581343e+003, 8.162713e-002
1.583271e+003, 8.190482e-002
1.585200e+003, 8.214871e-002
1.587128e+003, 8.233459e-002
1.589057e+003, 8.249521e-002
1.590985e+003, 8.259588e-002
1.592913e+003, 8.236596e-002
1.594842e+003, 8.241390e-002
1.596770e+003, 8.256756e-002
1.598699e+003, 8.255854e-002
1.600627e+003, 8.243778e-002
1.602556e+003, 8.242258e-002
1.604484e+003, 8.234611e-002
1.606413e+003, 8.225878e-002
1.608341e+003, 8.233631e-002
1.610270e+003, 8.234487e-002
1.612198e+003, 8.227713e-002
1.614127e+003, 8.170617e-002
1.616055e+003, 7.969028e-002
1.617984e+003, 8.181354e-002
1.619912e+003, 8.216746e-002
1.621840e+003, 8.169204e-002
1.623769e+003, 8.207185e-002
1.625697e+003, 8.192971e-002
1.627626e+003, 8.202584e-002
1.629554e+003, 8.224289e-002
1.631483e+003, 8.241703e-002
1.633411e+003, 8.153427e-002
1.635340e+003, 8.082551e-002
1.637268e+003, 8.196320e-002
1.639197e+003, 8.264276e-002
1.641125e+003, 8.274965e-002
1.643054e+003, 8.259282e-002
1.644982e+003, 8.081472e-002
1.646911e+003, 8.165026e-002
1.648839e+003, 8.257753e-002
1.650767e+003, 8.006278e-002
1.652696e+003, 7.784894e-002
1.654624e+003, 8.173026e-002
1.656553e+003, 8.296917e-002
1.658481e+003, 8.337395e-002
1.660410e+003, 8.285990e-002
1.662338e+003, 8.256099e-002
1.664267e+003, 8.357666e-002
1.666195e+003, 8.349905e-002
1.668124e+003, 8.286643e-002
1.670052e+003, 8.396360e-002
1.671981e+003, 8.382089e-002
1.673909e+003, 8.245638e-002
1.675838e+003, 8.357261e-002
1.677766e+003, 8.387268e-002
1.679694e+003, 8.419350e-002
1.681623e+003, 8.327233e-002
1.683551e+003, 8.067094e-002
1.685480e+003, 8.333818e-002
1.687408e+003, 8.380783e-002
1.689337e+003, 8.491001e-002
1.691265e+003, 8.519436e-002
1.693194e+003, 8.416379e-002
1.695122e+003, 8.156538e-002
1.697051e+003, 8.366262e-002
1.698979e+003, 8.123545e-002
1.700908e+003, 8.414280e-002
1.702836e+003, 8.418936e-002
1.704765e+003, 8.463830e-002
1.706693e+003, 8.496862e-002
1.708621e+003, 8.468950e-002
1.710550e+003, 8.479472e-002
1.712478e+003, 8.426165e-002
1.714407e+003, 8.358511e-002
1.716335e+003, 8.200760e-002
1.718264e+003, 8.357372e-002
1.720192e+003, 8.466181e-002
1.722121e+003, 8.464249e-002
1.724049e+003, 8.450035e-002
1.725978e+003, 8.457270e-002
1.727906e+003, 8.429285e-002
1.729835e+003, 8.381665e-002
1.731763e+003, 8.214958e-002
1.733692e+003, 8.081643e-002
1.735620e+003, 8.340716e-002
1.737548e+003, 8.290557e-002
1.739477e+003, 8.229065e-002
1.741405e+003, 8.297905e-002
1.743334e+003, 8.298777e-002
1.745262e+003, 8.339377e-002
1.747191e+003, 8.321455e-002
1.749119e+003, 8.280158e-002
1.751048e+003, 8.245400e-002
1.752976e+003, 8.407927e-002
1.754905e+003, 8.439615e-002
1.756833e+003, 8.481348e-002
1.758762e+003, 8.533001e-002
1.760690e+003, 8.511982e-002
1.762619e+003, 8.660396e-002
1.764547e+003, 8.712228e-002
1.766475e+003, 8.709744e-002
1.768404e+003, 8.738071e-002
1.770332e+003, 8.646647e-002
1.772261e+003, 8.664910e-002
1.774189e+003, 8.770328e-002
1.776118e+003, 8.782960e-002
1.778046e+003, 8.764411e-002
1.779975e+003, 8.768861e-002
1.781903e+003, 8.811712e-002
1.783832e+003, 8.780956e-002
1.785760e+003, 8.801782e-002
1.787689e+003, 8.757207e-002
1.789617e+003, 8.702098e-002
1.791546e+003, 8.637041e-002
1.793474e+003, 8.736013e-002
1.795402e+003, 8.724705e-002
1.797331e+003, 8.674654e-002
1.799259e+003, 8.646709e-002
1.801188e+003, 8.669580e-002
1.803116e+003, 8.707315e-002
1.805045e+003, 8.727075e-002
1.806973e+003, 8.716974e-002
1.808902e+003, 8.680471e-002
1.810830e+003, 8.664717e-002
1.812759e+003, 8.672101e-002
1.814687e+003, 8.702971e-002
1.816616e+003, 8.704586e-002
1.818544e+003, 8.734916e-002
1.820473e+003, 8.742573e-002
1.822401e+003, 8.721589e-002
1.824329e+003, 8.659142e-002
1.826258e+003, 8.741408e-002
1.828186e+003, 8.640796e-002
1.830115e+003, 8.656905e-002
1.832043e+003, 8.670528e-002
1.833972e+003, 8.684512e-002
1.835900e+003, 8.725000e-002
1.837829e+003, 8.786293e-002
1.839757e+003, 8.771800e-002
1.841686e+003, 8.721793e-002
1.843614e+003, 8.641532e-002
1.845543e+003, 8.778390e-002
1.847471e+003, 8.804783e-002
1.849400e+003, 8.874420e-002
1.851328e+003, 8.869348e-002
1.853256e+003, 8.867130e-002
1.855185e+003, 8.907308e-002
1.857113e+003, 8.922456e-002
1.859042e+003, 8.860815e-002
1.860970e+003, 8.909396e-002
1.862899e+003, 8.970787e-002
1.864827e+003, 8.947340e-002
1.866756e+003, 8.928385e-002
1.868684e+003, 8.912872e-002
1.870613e+003, 8.982608e-002
1.872541e+003, 8.997794e-002
1.874470e+003, 9.024846e-002
1.876398e+003, 9.108748e-002
1.878327e+003, 9.118017e-002
1.880255e+003, 9.159699e-002
1.882183e+003, 9.222826e-002
1.884112e+003, 9.253061e-002
1.886040e+003, 9.225797e-002
1.887969e+003, 9.242549e-002
1.889897e+003, 9.357638e-002
1.891826e+003, 9.374124e-002
1.893754e+003, 9.317579e-002
1.895683e+003, 9.320602e-002
1.897611e+003, 9.320418e-002
1.899540e+003, 9.373660e-002
1.901468e+003, 9.485566e-002
1.903397e+003, 9.545358e-002
1.905325e+003, 9.567983e-002
1.907254e+003, 9.513739e-002
1.909182e+003, 9.449793e-002
1.911110e+003, 9.497683e-002
1.913039e+003, 9.574980e-002
1.914967e+003, 9.703435e-002
1.916896e+003, 9.622220e-002
1.918824e+003, 9.541950e-002
1.920753e+003, 9.559122e-002
1.922681e+003, 9.746697e-002
1.924610e+003, 9.783902e-002
1.926538e+003, 9.715550e-002
1.928467e+003, 9.624891e-002
1.930395e+003, 9.459553e-002
1.932324e+003, 9.367140e-002
1.934252e+003, 9.352157e-002
1.936181e+003, 9.399516e-002
1.938109e+003, 9.494202e-002
1.940037e+003, 9.437697e-002
1.941966e+003, 9.308264e-002
1.943894e+003, 9.225545e-002
1.945823e+003, 9.079883e-002
1.947751e+003, 8.988369e-002
1.949680e+003, 9.031136e-002
1.951608e+003, 9.000363e-002
1.953537e+003, 8.988692e-002
1.955465e+003, 9.084247e-002
1.957394e+003, 9.094253e-002
1.959322e+003, 8.983766e-002
1.961251e+003, 9.195128e-002
1.963179e+003, 9.259421e-002
1.965108e+003, 9.175057e-002
1.967036e+003, 9.118073e-002
1.968964e+003, 9.009438e-002
1.970893e+003, 9.109756e-002
1.972821e+003, 9.301203e-002
1.974750e+003, 9.379202e-002
1.976678e+003, 9.336545e-002
1.978607e+003, 9.439690e-002
1.980535e+003, 9.643719e-002
1.982464e+003, 9.702870e-002
1.984392e+003, 9.624899e-002
1.986321e+003, 9.542159e-002
1.988249e+003, 9.476938e-002
1.990178e+003, 9.375949e-002
1.992106e+003, 9.523947e-002
1.994035e+003, 9.541415e-002
1.995963e+003, 9.501617e-002
1.997891e+003, 9.334797e-002
1.999820e+003, 9.146627e-002
2.001748e+003, 9.259843e-002
2.003677e+003, 9.341949e-002
2.005605e+003, 9.347188e-002
2.007534e+003, 9.404437e-002
2.009462e+003, 9.442903e-002
2.011391e+003, 9.473523e-002
2.013319e+003, 9.386341e-002
2.015248e+003, 9.353444e-002
2.017176e+003, 9.416515e-002
2.019105e+003, 9.516220e-002
2.021033e+003, 9.591361e-002
2.022962e+003, 9.387375e-002
2.024890e+003, 9.224956e-002
2.026818e+003, 9.391740e-002
2.028747e+003, 9.427848e-002
2.030675e+003, 9.317560e-002
2.032604e+003, 9.291657e-002
2.034532e+003, 9.408370e-002
2.036461e+003, 9.595452e-002
2.038389e+003, 9.815432e-002
2.040318e+003, 9.838206e-002
2.042246e+003, 9.637270e-002
2.044175e+003, 9.530615e-002
2.046103e+003, 9.395244e-002
2.048032e+003, 9.360269e-002
2.049960e+003, 9.574822e-002
2.051889e+003, 9.541526e-002
2.053817e+003, 9.462600e-002
2.055746e+003, 9.534883e-002
2.057674e+003, 9.507262e-002
2.059603e+003, 9.466454e-002
2.061531e+003, 9.638084e-002
2.063459e+003, 9.770097e-002
2.065388e+003, 9.771919e-002
2.067316e+003, 9.977039e-002
2.069245e+003, 1.004812e-001
2.071173e+003, 9.911518e-002
2.073102e+003, 9.945878e-002
2.075030e+003, 9.905901e-002
2.076959e+003, 9.750506e-002
2.078887e+003, 9.781135e-002
2.080816e+003, 9.866319e-002
2.082744e+003, 9.983285e-002
2.084673e+003, 1.003977e-001
2.086601e+003, 9.992963e-002
2.088530e+003, 9.972779e-002
2.090458e+003, 9.873037e-002
2.092386e+003, 9.876090e-002
2.094315e+003, 1.000024e-001
2.096243e+003, 9.939890e-002
2.098172e+003, 9.921166e-002
2.100100e+003, 9.990170e-002
2.102029e+003, 1.003165e-001
2.103957e+003, 1.000161e-001
2.105886e+003, 1.000475e-001
2.107814e+003, 1.005827e-001
2.109743e+003, 1.009554e-001
2.111671e+003, 1.018095e-001
2.113600e+003, 1.023385e-001
2.115528e+003, 1.020006e-001
2.117457e+003, 1.010259e-001
2.119385e+003, 1.007461e-001
2.121313e+003, 1.004999e-001
2.123242e+003, 1.004218e-001
2.125170e+003, 1.000232e-001
2.127099e+003, 9.953754e-002
2.129027e+003, 1.000074e-001
2.130956e+003, 1.004639e-001
2.132884e+003, 1.003041e-001
2.134813e+003, 1.000299e-001
2.136741e+003, 1.001794e-001
2.138670e+003, 1.001760e-001
2.140598e+003, 1.005434e-001
2.142527e+003, 1.009443e-001
2.144455e+003, 1.016661e-001
2.146384e+003, 1.032025e-001
2.148312e+003, 1.003392e-001
2.150240e+003, 9.899437e-002
2.152169e+003, 1.006124e-001
2.154097e+003, 1.003025e-001
2.156026e+003, 1.002911e-001
2.157954e+003, 1.019701e-001
2.159883e+003, 1.017348e-001
2.161811e+003, 1.025505e-001
2.163740e+003, 1.043126e-001
2.165668e+003, 1.052164e-001
2.167597e+003, 1.032355e-001
2.169525e+003, 1.029474e-001
2.171454e+003, 1.045030e-001
2.173382e+003, 1.044709e-001
2.175311e+003, 1.044788e-001
2.177239e+003, 1.041092e-001
2.179167e+003, 1.053450e-001
2.181096e+003, 1.065708e-001
2.183024e+003, 1.039362e-001
2.184953e+003, 1.037383e-001
2.186881e+003, 1.063446e-001
2.188810e+003, 1.066314e-001
2.190738e+003, 1.066107e-001
2.192667e+003, 1.059008e-001
2.194595e+003, 1.054322e-001
2.196524e+003, 1.058418e-001
2.198452e+003, 1.071075e-001
2.200381e+003, 1.077082e-001
2.202309e+003, 1.078149e-001
2.204238e+003, 1.086395e-001
2.206166e+003, 1.075170e-001
2.208094e+003, 1.052622e-001
2.210023e+003, 1.045607e-001
2.211951e+003, 1.072053e-001
2.213880e+003, 1.081046e-001
2.215808e+003, 1.066887e-001
2.217737e+003, 1.078453e-001
2.219665e+003, 1.090105e-001
2.221594e+003, 1.086922e-001
2.223522e+003, 1.084344e-001
2.225451e+003, 1.091498e-001
2.227379e+003, 1.094314e-001
2.229308e+003, 1.090511e-001
2.231236e+003, 1.090885e-001
2.233165e+003, 1.094304e-001
2.235093e+003, 1.084759e-001
2.237021e+003, 1.084822e-001
2.238950e+003, 1.093343e-001
2.240878e+003, 1.091909e-001
2.242807e+003, 1.103769e-001
2.244735e+003, 1.115652e-001
2.246664e+003, 1.115656e-001
2.248592e+003, 1.113706e-001
2.250521e+003, 1.110757e-001
2.252449e+003, 1.098609e-001
2.254378e+003, 1.101957e-001
2.256306e+003, 1.108568e-001
2.258235e+003, 1.105828e-001
2.260163e+003, 1.105327e-001
2.262092e+003, 1.111251e-001
2.264020e+003, 1.116240e-001
2.265948e+003, 1.119780e-001
2.267877e+003, 1.127096e-001
2.269805e+003, 1.122335e-001
2.271734e+003, 1.122056e-001
2.273662e+003, 1.131896e-001
2.275591e+003, 1.120907e-001
2.277519e+003, 1.123018e-001
2.279448e+003, 1.130138e-001
2.281376e+003, 1.127067e-001
2.283305e+003, 1.128422e-001
2.285233e+003, 1.134079e-001
2.287162e+003, 1.134498e-001
2.289090e+003, 1.135584e-001
2.291019e+003, 1.141282e-001
2.292947e+003, 1.138512e-001
2.294875e+003, 1.129917e-001
2.296804e+003, 1.134643e-001
2.298732e+003, 1.148614e-001
2.300661e+003, 1.148676e-001
2.302589e+003, 1.152590e-001
2.304518e+003, 1.161907e-001
2.306446e+003, 1.157915e-001
2.308375e+003, 1.152290e-001
2.310303e+003, 1.151000e-001
2.312232e+003, 1.156617e-001
2.314160e+003, 1.163984e-001
2.316089e+003, 1.164088e-001
2.318017e+003, 1.161869e-001
2.319946e+003, 1.167715e-001
2.321874e+003, 1.170387e-001
2.323802e+003, 1.171742e-001
2.325731e+003, 1.170110e-001
2.327659e+003, 1.164254e-001
2.329588e+003, 1.162437e-001
2.331516e+003, 1.165606e-001
2.333445e+003, 1.169253e-001
2.335373e+003, 1.167134e-001
2.337302e+003, 1.172021e-001
2.339230e+003, 1.178314e-001
2.341159e+003, 1.176999e-001
2.343087e+003, 1.173738e-001
2.345016e+003, 1.173283e-001
2.346944e+003, 1.175201e-001
2.348873e+003, 1.171277e-001
2.350801e+003, 1.168919e-001
2.352729e+003, 1.175790e-001
2.354658e+003, 1.181816e-001
2.356586e+003, 1.180201e-001
2.358515e+003, 1.184508e-001
2.360443e+003, 1.182427e-001
2.362372e+003, 1.184802e-001
2.364300e+003, 1.191258e-001
2.366229e+003, 1.189602e-001
2.368157e+003, 1.187898e-001
2.370086e+003, 1.189031e-001
2.372014e+003, 1.189680e-001
2.373942e+003, 1.190074e-001
2.375871e+003, 1.190429e-001
2.377799e+003, 1.190109e-001
2.379728e+003, 1.196642e-001
2.381656e+003, 1.195766e-001
2.383585e+003, 1.188735e-001
2.385513e+003, 1.187271e-001
2.387442e+003, 1.195661e-001
2.389370e+003, 1.200440e-001
2.391299e+003, 1.204615e-001
2.393227e+003, 1.208739e-001
2.395156e+003, 1.209498e-001
2.397084e+003, 1.205316e-001
2.399012e+003, 1.204156e-001
2.400941e+003, 1.213867e-001
2.402869e+003, 1.223796e-001
2.404798e+003, 1.216485e-001
2.406726e+003, 1.208815e-001
2.408655e+003, 1.207644e-001
2.410583e+003, 1.211144e-001
2.412512e+003, 1.213542e-001
2.414440e+003, 1.213062e-001
2.416369e+003, 1.216552e-001
2.418297e+003, 1.216243e-001
2.420226e+003, 1.215547e-001
2.422154e+003, 1.220493e-001
2.424083e+003, 1.226674e-001
2.426011e+003, 1.229841e-001
2.427939e+003, 1.231447e-001
2.429868e+003, 1.236976e-001
2.431796e+003, 1.239589e-001
2.433725e+003, 1.239897e-001
2.435653e+003, 1.245874e-001
2.437582e+003, 1.242654e-001
2.439510e+003, 1.230741e-001
2.441439e+003, 1.232301e-001
2.443367e+003, 1.240706e-001
2.445296e+003, 1.243453e-001
2.447224e+003, 1.251197e-001
2.449153e+003, 1.248073e-001
2.451081e+003, 1.241289e-001
2.453010e+003, 1.243230e-001
2.454938e+003, 1.246406e-001
2.456866e+003, 1.250881e-001
2.458795e+003, 1.252381e-001
2.460723e+003, 1.252320e-001
2.462652e+003, 1.258415e-001
2.464580e+003, 1.257561e-001
2.466509e+003, 1.255548e-001
2.468437e+003, 1.256525e-001
2.470366e+003, 1.257579e-001
2.472294e+003, 1.263891e-001
2.474223e+003, 1.267528e-001
2.476151e+003, 1.265012e-001
2.478080e+003, 1.256575e-001
2.480008e+003, 1.256830e-001
2.481937e+003, 1.264107e-001
2.483865e+003, 1.264355e-001
2.485793e+003, 1.268872e-001
2.487722e+003, 1.269486e-001
2.489650e+003, 1.266627e-001
2.491579e+003, 1.269894e-001
2.493507e+003, 1.276511e-001
2.495436e+003, 1.282418e-001
2.497364e+003, 1.281213e-001
2.499293e+003, 1.285018e-001
2.501221e+003, 1.285715e-001
2.503150e+003, 1.287570e-001
2.505078e+003, 1.294248e-001
2.507007e+003, 1.296979e-001
2.508935e+003, 1.296574e-001
2.510864e+003, 1.296992e-001
2.512792e+003, 1.299562e-001
2.514720e+003, 1.296875e-001
2.516649e+003, 1.294818e-001
2.518577e+003, 1.303365e-001
2.520506e+003, 1.306416e-001
2.522434e+003, 1.308712e-001
2.524363e+003, 1.308979e-001
2.526291e+003, 1.308241e-001
2.528220e+003, 1.310244e-001
2.530148e+003, 1.310342e-001
2.532077e+003, 1.302948e-001
2.534005e+003, 1.298893e-001
2.535934e+003, 1.301924e-001
2.537862e+003, 1.305370e-001
2.539791e+003, 1.312657e-001
2.541719e+003, 1.318191e-001
2.543647e+003, 1.317306e-001
2.545576e+003, 1.305761e-001
2.547504e+003, 1.307425e-001
2.549433e+003, 1.318512e-001
2.551361e+003, 1.320292e-001
2.553290e+003, 1.320750e-001
2.555218e+003, 1.327981e-001
2.557147e+003, 1.322064e-001
2.559075e+003, 1.317046e-001
2.561004e+003, 1.315843e-001
2.562932e+003, 1.314202e-001
2.564861e+003, 1.320370e-001
2.566789e+003, 1.325976e-001
2.568718e+003, 1.326829e-001
2.570646e+003, 1.328484e-001
2.572574e+003, 1.334856e-001
2.574503e+003, 1.331969e-001
2.576431e+003, 1.337657e-001
2.578360e+003, 1.344329e-001
2.580288e+003, 1.342590e-001
2.582217e+003, 1.344436e-001
2.584145e+003, 1.341782e-001
2.586074e+003, 1.344173e-001
2.588002e+003, 1.350585e-001
2.589931e+003, 1.350255e-001
2.591859e+003, 1.355321e-001
2.593788e+003, 1.358625e-001
2.595716e+003, 1.354173e-001
2.597645e+003, 1.358540e-001
2.599573e+003, 1.364399e-001
2.601501e+003, 1.359055e-001
2.603430e+003, 1.357050e-001
2.605358e+003, 1.364752e-001
2.607287e+003, 1.366480e-001
2.609215e+003, 1.365822e-001
2.611144e+003, 1.365286e-001
2.613072e+003, 1.370911e-001
2.615001e+003, 1.382784e-001
2.616929e+003, 1.380872e-001
2.618858e+003, 1.376536e-001
2.620786e+003, 1.375636e-001
2.622715e+003, 1.367100e-001
2.624643e+003, 1.372879e-001
2.626572e+003, 1.386687e-001
2.628500e+003, 1.392465e-001
2.630428e+003, 1.385940e-001
2.632357e+003, 1.386059e-001
2.634285e+003, 1.394337e-001
2.636214e+003, 1.395076e-001
2.638142e+003, 1.392834e-001
2.640071e+003, 1.397211e-001
2.641999e+003, 1.398614e-001
2.643928e+003, 1.397967e-001
2.645856e+003, 1.391597e-001
2.647785e+003, 1.393596e-001
2.649713e+003, 1.401841e-001
2.651642e+003, 1.405071e-001
2.653570e+003, 1.397070e-001
2.655499e+003, 1.395155e-001
2.657427e+003, 1.400771e-001
2.659355e+003, 1.404300e-001
2.661284e+003, 1.403570e-001
2.663212e+003, 1.401998e-001
2.665141e+003, 1.411477e-001
2.667069e+003, 1.413893e-001
2.668998e+003, 1.406361e-001
2.670926e+003, 1.408402e-001
2.672855e+003, 1.408821e-001
2.674783e+003, 1.411359e-001
2.676712e+003, 1.407029e-001
2.678640e+003, 1.408563e-001
2.680569e+003, 1.417479e-001
2.682497e+003, 1.418027e-001
2.684426e+003, 1.424006e-001
2.686354e+003, 1.431713e-001
2.688282e+003, 1.428356e-001
2.690211e+003, 1.417655e-001
2.692139e+003, 1.422602e-001
2.694068e+003, 1.436228e-001
2.695996e+003, 1.439298e-001
2.697925e+003, 1.435975e-001
2.699853e+003, 1.434131e-001
2.701782e+003, 1.438922e-001
2.703710e+003, 1.442805e-001
2.705639e+003, 1.444724e-001
2.707567e+003, 1.443537e-001
2.709496e+003, 1.445974e-001
2.711424e+003, 1.449161e-001
2.713353e+003, 1.448593e-001
2.715281e+003, 1.441606e-001
2.717209e+003, 1.444887e-001
2.719138e+003, 1.453717e-001
2.721066e+003, 1.456236e-001
2.722995e+003, 1.459308e-001
2.724923e+003, 1.461304e-001
2.726852e+003, 1.464126e-001
2.728780e+003, 1.461731e-001
2.730709e+003, 1.458679e-001
2.732637e+003, 1.457350e-001
2.734566e+003, 1.458795e-001
2.736494e+003, 1.466477e-001
2.738423e+003, 1.471013e-001
2.740351e+003, 1.469693e-001
2.742280e+003, 1.473784e-001
2.744208e+003, 1.484362e-001
2.746136e+003, 1.478817e-001
2.748065e+003, 1.472884e-001
2.749993e+003, 1.477567e-001
2.751922e+003, 1.477723e-001
2.753850e+003, 1.481355e-001
2.755779e+003, 1.490214e-001
2.757707e+003, 1.496267e-001
2.759636e+003, 1.493338e-001
2.761564e+003, 1.490015e-001
2.763493e+003, 1.495730e-001
2.765421e+003, 1.500932e-001
2.767350e+003, 1.494433e-001
2.769278e+003, 1.493277e-001
2.771207e+003, 1.500990e-001
2.773135e+003, 1.509828e-001
2.775063e+003, 1.517455e-001
2.776992e+003, 1.507957e-001
2.778920e+003, 1.501137e-001
2.780849e+003, 1.504959e-001
2.782777e+003, 1.515154e-001
2.784706e+003, 1.516953e-001
2.786634e+003, 1.514198e-001
2.788563e+003, 1.520112e-001
2.790491e+003, 1.526082e-001
2.792420e+003, 1.526837e-001
2.794348e+003, 1.526962e-001
2.796277e+003, 1.523310e-001
2.798205e+003, 1.519543e-001
2.800134e+003, 1.523028e-001
2.802062e+003, 1.538328e-001
2.803990e+003, 1.547766e-001
2.805919e+003, 1.541988e-001
2.807847e+003, 1.533771e-001
2.809776e+003, 1.532919e-001
2.811704e+003, 1.542478e-001
2.813633e+003, 1.553972e-001
2.815561e+003, 1.559680e-001
2.817490e+003, 1.565084e-001
2.819418e+003, 1.565326e-001
2.821347e+003, 1.557353e-001
2.823275e+003, 1.557986e-001
2.825204e+003, 1.563983e-001
2.827132e+003, 1.561300e-001
2.829061e+003, 1.555210e-001
2.830989e+003, 1.563503e-001
2.832917e+003, 1.579996e-001
2.834846e+003, 1.592064e-001
2.836774e+003, 1.591975e-001
2.838703e+003, 1.581653e-001
2.840631e+003, 1.578991e-001
2.842560e+003, 1.583863e-001
2.844488e+003, 1.591268e-001
2.846417e+003, 1.599112e-001
2.848345e+003, 1.592734e-001
2.850274e+003, 1.587363e-001
2.852202e+003, 1.586574e-001
2.854131e+003, 1.584528e-001
2.856059e+003, 1.586925e-001
2.857988e+003, 1.598577e-001
2.859916e+003, 1.604234e-001
2.861844e+003, 1.603234e-001
2.863773e+003, 1.603630e-001
2.865701e+003, 1.606937e-001
2.867630e+003, 1.606433e-001
2.869558e+003, 1.610122e-001
2.871487e+003, 1.607114e-001
2.873415e+003, 1.603728e-001
2.875344e+003, 1.613458e-001
2.877272e+003, 1.630130e-001
2.879201e+003, 1.636353e-001
2.881129e+003, 1.635916e-001
2.883058e+003, 1.634728e-001
2.884986e+003, 1.631017e-001
2.886915e+003, 1.636289e-001
2.888843e+003, 1.644849e-001
2.890771e+003, 1.650238e-001
2.892700e+003, 1.651563e-001
2.894628e+003, 1.657905e-001
2.896557e+003, 1.655863e-001
2.898485e+003, 1.647791e-001
2.900414e+003, 1.652969e-001
2.902342e+003, 1.660802e-001
2.904271e+003, 1.660252e-001
2.906199e+003, 1.663365e-001
2.908128e+003, 1.678660e-001
2.910056e+003, 1.679799e-001
2.911985e+003, 1.679902e-001
2.913913e+003, 1.674921e-001
2.915842e+003, 1.670289e-001
2.917770e+003, 1.665931e-001
2.919698e+003, 1.675121e-001
2.921627e+003, 1.671473e-001
2.923555e+003, 1.671474e-001
2.925484e+003, 1.676139e-001
2.927412e+003, 1.685571e-001
2.929341e+003, 1.686857e-001
2.931269e+003, 1.676785e-001
2.933198e+003, 1.673573e-001
2.935126e+003, 1.674763e-001
2.937055e+003, 1.681031e-001
2.938983e+003, 1.690819e-001
2.940912e+003, 1.690940e-001
2.942840e+003, 1.691673e-001
2.944769e+003, 1.689008e-001
2.946697e+003, 1.692228e-001
2.948625e+003, 1.692893e-001
2.950554e+003, 1.693510e-001
2.952482e+003, 1.697831e-001
2.954411e+003, 1.702841e-001
2.956339e+003, 1.711349e-001
2.958268e+003, 1.714398e-001
2.960196e+003, 1.707776e-001
2.962125e+003, 1.714104e-001
2.964053e+003, 1.718508e-001
2.965982e+003, 1.717159e-001
2.967910e+003, 1.719177e-001
2.969839e+003, 1.723219e-001
2.971767e+003, 1.728986e-001
2.973696e+003, 1.731715e-001
2.975624e+003, 1.740897e-001
2.977552e+003, 1.741314e-001
2.979481e+003, 1.733252e-001
2.981409e+003, 1.742606e-001
2.983338e+003, 1.758696e-001
2.985266e+003, 1.755091e-001
2.987195e+003, 1.747734e-001
2.989123e+003, 1.759198e-001
2.991052e+003, 1.767911e-001
2.992980e+003, 1.757207e-001
2.994909e+003, 1.756096e-001
2.996837e+003, 1.770416e-001
2.998766e+003, 1.775282e-001
3.000694e+003, 1.763763e-001
3.002623e+003, 1.765572e-001
3.004551e+003, 1.767245e-001
3.006479e+003, 1.768075e-001
3.008408e+003, 1.774653e-001
3.010336e+003, 1.785993e-001
3.012265e+003, 1.784119e-001
3.014193e+003, 1.781430e-001
3.016122e+003, 1.786886e-001
3.018050e+003, 1.786281e-001
3.019979e+003, 1.785015e-001
3.021907e+003, 1.790626e-001
3.023836e+003, 1.798794e-001
3.025764e+003, 1.799402e-001
3.027693e+003, 1.802372e-001
3.029621e+003, 1.805758e-001
3.031550e+003, 1.803849e-001
3.033478e+003, 1.805230e-001
3.035406e+003, 1.814701e-001
3.037335e+003, 1.824506e-001
3.039263e+003, 1.824345e-001
3.041192e+003, 1.827221e-001
3.043120e+003, 1.833322e-001
3.045049e+003, 1.836970e-001
3.046977e+003, 1.834302e-001
3.048906e+003, 1.841382e-001
3.050834e+003, 1.848603e-001
3.052763e+003, 1.840392e-001
3.054691e+003, 1.838887e-001
3.056620e+003, 1.844124e-001
3.058548e+003, 1.863333e-001
3.060477e+003, 1.872288e-001
3.062405e+003, 1.866907e-001
3.064333e+003, 1.865855e-001
3.066262e+003, 1.863792e-001
3.068190e+003, 1.867989e-001
3.070119e+003, 1.874809e-001
3.072047e+003, 1.880456e-001
3.073976e+003, 1.881157e-001
3.075904e+003, 1.892721e-001
3.077833e+003, 1.899375e-001
3.079761e+003, 1.898331e-001
3.081690e+003, 1.906068e-001
3.083618e+003, 1.911012e-001
3.085547e+003, 1.910882e-001
3.087475e+003, 1.918395e-001
3.089404e+003, 1.913765e-001
3.091332e+003, 1.910691e-001
3.093260e+003, 1.928588e-001
3.095189e+003, 1.945321e-001
3.097117e+003, 1.945529e-001
3.099046e+003, 1.943791e-001
3.100974e+003, 1.950094e-001
3.102903e+003, 1.947101e-001
3.104831e+003, 1.944899e-001
3.106760e+003, 1.955566e-001
3.108688e+003, 1.967998e-001
3.110617e+003, 1.966990e-001
3.112545e+003, 1.960563e-001
3.114474e+003, 1.968990e-001
3.116402e+003, 1.991509e-001
3.118331e+003, 1.998549e-001
3.120259e+003, 1.994644e-001
3.122188e+003, 2.000538e-001
3.124116e+003, 2.010727e-001
3.126044e+003, 2.017311e-001
3.127973e+003, 2.023862e-001
3.129901e+003, 2.027674e-001
3.131830e+003, 2.025815e-001
3.133758e+003, 2.025281e-001
3.135687e+003, 2.036939e-001
3.137615e+003, 2.052704e-001
3.139544e+003, 2.060499e-001
3.141472e+003, 2.063667e-001
3.143401e+003, 2.071010e-001
3.145329e+003, 2.085998e-001
3.147258e+003, 2.088725e-001
3.149186e+003, 2.098461e-001
3.151115e+003, 2.117397e-001
3.153043e+003, 2.114537e-001
3.154971e+003, 2.121018e-001
3.156900e+003, 2.135617e-001
3.158828e+003, 2.140077e-001
3.160757e+003, 2.144962e-001
3.162685e+003, 2.159800e-001
3.164614e+003, 2.159915e-001
3.166542e+003, 2.168698e-001
3.168471e+003, 2.179312e-001
3.170399e+003, 2.180409e-001
3.172328e+003, 2.180270e-001
3.174256e+003, 2.194612e-001
3.176185e+003, 2.198531e-001
3.178113e+003, 2.196543e-001
3.180042e+003, 2.214244e-001
3.181970e+003, 2.231992e-001
3.183898e+003, 2.247711e-001
3.185827e+003, 2.261410e-001
3.187755e+003, 2.269499e-001
3.189684e+003, 2.279155e-001
3.191612e+003, 2.280410e-001
3.193541e+003, 2.281883e-001
3.195469e+003, 2.290252e-001
3.197398e+003, 2.310044e-001
3.199326e+003, 2.332477e-001
3.201255e+003, 2.347255e-001
3.203183e+003, 2.356734e-001
3.205112e+003, 2.374759e-001
3.207040e+003, 2.384521e-001
3.208969e+003, 2.392543e-001
3.210897e+003, 2.407999e-001
3.212825e+003, 2.412608e-001
3.214754e+003, 2.416973e-001
3.216682e+003, 2.432697e-001
3.218611e+003, 2.454744e-001
3.220539e+003, 2.482087e-001
3.222468e+003, 2.499554e-001
3.224396e+003, 2.507407e-001
3.226325e+003, 2.515072e-001
3.228253e+003, 2.537380e-001
3.230182e+003, 2.553710e-001
3.232110e+003, 2.567270e-001
3.234039e+003, 2.575147e-001
3.235967e+003, 2.589314e-001
3.237896e+003, 2.617035e-001
3.239824e+003, 2.640173e-001
3.241752e+003, 2.649751e-001
3.243681e+003, 2.648727e-001
3.245609e+003, 2.660285e-001
3.247538e+003, 2.675076e-001
3.249466e+003, 2.690598e-001
3.251395e+003, 2.731924e-001
3.253323e+003, 2.743260e-001
3.255252e+003, 2.744315e-001
3.257180e+003, 2.764615e-001
3.259109e+003, 2.783908e-001
3.261037e+003, 2.814204e-001
3.262966e+003, 2.837152e-001
3.264894e+003, 2.851840e-001
3.266823e+003, 2.858108e-001
3.268751e+003, 2.872511e-001
3.270679e+003, 2.879451e-001
3.272608e+003, 2.894366e-001
3.274536e+003, 2.911315e-001
3.276465e+003, 2.935215e-001
3.278393e+003, 2.979808e-001
3.280322e+003, 3.006690e-001
3.282250e+003, 3.007704e-001
3.284179e+003, 3.029314e-001
3.286107e+003, 3.049096e-001
3.288036e+003, 3.072905e-001
3.289964e+003, 3.126259e-001
3.291893e+003, 3.163843e-001
3.293821e+003, 3.179641e-001
3.295750e+003, 3.207026e-001
3.297678e+003, 3.243731e-001
3.299606e+003, 3.267186e-001
3.301535e+003, 3.288454e-001
3.303463e+003, 3.329980e-001
3.305392e+003, 3.376283e-001
3.307320e+003, 3.402797e-001
3.309249e+003, 3.425519e-001
3.311177e+003, 3.481912e-001
3.313106e+003, 3.533601e-001
3.315034e+003, 3.567490e-001
3.316963e+003, 3.600127e-001
3.318891e+003, 3.634691e-001
3.320820e+003, 3.672253e-001
3.322748e+003, 3.699001e-001
3.324677e+003, 3.725854e-001
3.326605e+003, 3.788403e-001
3.328533e+003, 3.821591e-001
3.330462e+003, 3.838924e-001
3.332390e+003, 3.878607e-001
3.334319e+003, 3.927903e-001
3.336247e+003, 3.947752e-001
3.338176e+003, 3.961301e-001
3.340104e+003, 4.020749e-001
3.342033e+003, 4.084098e-001
3.343961e+003, 4.120629e-001
3.345890e+003, 4.146401e-001
3.347818e+003, 4.176377e-001
3.349747e+003, 4.217880e-001
3.351675e+003, 4.266272e-001
3.353604e+003, 4.329978e-001
3.355532e+003, 4.397045e-001
3.357460e+003, 4.447024e-001
3.359389e+003, 4.502608e-001
3.361317e+003, 4.568850e-001
3.363246e+003, 4.615375e-001
3.365174e+003, 4.676095e-001
3.367103e+003, 4.755339e-001
3.369031e+003, 4.818851e-001
3.370960e+003, 4.867492e-001
3.372888e+003, 4.927258e-001
3.374817e+003, 4.981236e-001
3.376745e+003, 5.029104e-001
3.378674e+003, 5.043388e-001
3.380602e+003, 5.044791e-001
3.382531e+003, 5.025761e-001
3.384459e+003, 4.963018e-001
3.386387e+003, 4.837481e-001
3.388316e+003, 4.610971e-001
3.390244e+003, 4.319661e-001
3.392173e+003, 4.012555e-001
3.394101e+003, 3.749062e-001
3.396030e+003, 3.556613e-001
3.397958e+003, 3.429805e-001
3.399887e+003, 3.371425e-001
3.401815e+003, 3.327867e-001
3.403744e+003, 3.248411e-001
3.405672e+003, 3.146747e-001
3.407601e+003, 3.055139e-001
3.409529e+003, 2.962039e-001
3.411458e+003, 2.872698e-001
3.413386e+003, 2.792921e-001
3.415314e+003, 2.747603e-001
3.417243e+003, 2.700961e-001
3.419171e+003, 2.643571e-001
3.421100e+003, 2.603741e-001
3.423028e+003, 2.552124e-001
3.424957e+003, 2.499694e-001
3.426885e+003, 2.435881e-001
3.428814e+003, 2.370148e-001
3.430742e+003, 2.303952e-001
3.432671e+003, 2.271258e-001
3.434599e+003, 2.232764e-001
3.436528e+003, 2.187070e-001
3.438456e+003, 2.124644e-001
3.440385e+003, 2.069269e-001
3.442313e+003, 2.015088e-001
3.444241e+003, 1.977685e-001
3.446170e+003, 1.958373e-001
3.448098e+003, 1.921983e-001
3.450027e+003, 1.865235e-001
3.451955e+003, 1.817276e-001
3.453884e+003, 1.792926e-001
3.455812e+003, 1.762678e-001
3.457741e+003, 1.735842e-001
3.459669e+003, 1.722270e-001
3.461598e+003, 1.708472e-001
3.463526e+003, 1.691847e-001
3.465455e+003, 1.672094e-001
3.467383e+003, 1.652115e-001
3.469312e+003, 1.634457e-001
3.471240e+003, 1.608177e-001
3.473168e+003, 1.589599e-001
3.475097e+003, 1.599414e-001
3.477025e+003, 1.612150e-001
3.478954e+003, 1.583707e-001
3.480882e+003, 1.562810e-001
3.482811e+003, 1.549426e-001
3.484739e+003, 1.535071e-001
3.486668e+003, 1.543967e-001
3.488596e+003, 1.555076e-001
3.490525e+003, 1.547457e-001
3.492453e+003, 1.554144e-001
3.494382e+003, 1.575895e-001
3.496310e+003, 1.572102e-001
3.498239e+003, 1.565626e-001
3.500167e+003, 1.554768e-001
3.502095e+003, 1.522876e-001
3.504024e+003, 1.496702e-001
3.505952e+003, 1.514591e-001
3.507881e+003, 1.542881e-001
3.509809e+003, 1.564620e-001
3.511738e+003, 1.563080e-001
3.513666e+003, 1.555745e-001
3.515595e+003, 1.547616e-001
3.517523e+003, 1.545349e-001
3.519452e+003, 1.536544e-001
3.521380e+003, 1.535297e-001
3.523309e+003, 1.537917e-001
3.525237e+003, 1.549457e-001
3.527166e+003, 1.562610e-001
3.529094e+003, 1.580438e-001
3.531022e+003, 1.585792e-001
3.532951e+003, 1.563603e-001
3.534879e+003, 1.564986e-001
3.536808e+003, 1.578410e-001
3.538736e+003, 1.557901e-001
3.540665e+003, 1.559153e-001
3.542593e+003, 1.583107e-001
3.544522e+003, 1.586995e-001
3.546450e+003, 1.602149e-001
3.548379e+003, 1.638427e-001
3.550307e+003, 1.636175e-001
3.552236e+003, 1.609732e-001
3.554164e+003, 1.609197e-001
3.556093e+003, 1.636266e-001
3.558021e+003, 1.626941e-001
3.559949e+003, 1.601664e-001
3.561878e+003, 1.615441e-001
3.563806e+003, 1.623134e-001
3.565735e+003, 1.607758e-001
3.567663e+003, 1.605673e-001
3.569592e+003, 1.611605e-001
3.571520e+003, 1.616005e-001
3.573449e+003, 1.598300e-001
3.575377e+003, 1.605337e-001
3.577306e+003, 1.616142e-001
3.579234e+003, 1.616536e-001
3.581163e+003, 1.609984e-001
3.583091e+003, 1.606191e-001
3.585020e+003, 1.610536e-001
3.586948e+003, 1.583331e-001
3.588876e+003, 1.594892e-001
3.590805e+003, 1.617279e-001
3.592733e+003, 1.645474e-001
3.594662e+003, 1.677367e-001
3.596590e+003, 1.666680e-001
3.598519e+003, 1.656952e-001
3.600447e+003, 1.659399e-001
3.602376e+003, 1.677910e-001
3.604304e+003, 1.684156e-001
3.606233e+003, 1.651901e-001
3.608161e+003, 1.638653e-001
3.610090e+003, 1.674111e-001
3.612018e+003, 1.661234e-001
3.613947e+003, 1.677957e-001
3.615875e+003, 1.700421e-001
3.617803e+003, 1.698864e-001
3.619732e+003, 1.702786e-001
3.621660e+003, 1.730321e-001
3.623589e+003, 1.730079e-001
3.625517e+003, 1.697854e-001
3.627446e+003, 1.653871e-001
3.629374e+003, 1.664809e-001
3.631303e+003, 1.684122e-001
3.633231e+003, 1.695983e-001
3.635160e+003, 1.724544e-001
3.637088e+003, 1.774791e-001
3.639017e+003, 1.786178e-001
3.640945e+003, 1.775689e-001
3.642874e+003, 1.753002e-001
3.644802e+003, 1.752253e-001
3.646730e+003, 1.728169e-001
3.648659e+003, 1.705295e-001
3.650587e+003, 1.731724e-001
3.652516e+003, 1.762246e-001
3.654444e+003, 1.748051e-001
3.656373e+003, 1.745049e-001
3.658301e+003, 1.781231e-001
3.660230e+003, 1.808759e-001
3.662158e+003, 1.787646e-001
3.664087e+003, 1.785319e-001
3.666015e+003, 1.800021e-001
3.667944e+003, 1.769257e-001
3.669872e+003, 1.758189e-001
3.671801e+003, 1.829128e-001
3.673729e+003, 1.803131e-001
3.675657e+003, 1.792203e-001
3.677586e+003, 1.801055e-001
3.679514e+003, 1.803318e-001
3.681443e+003, 1.816313e-001
3.683371e+003, 1.834937e-001
3.685300e+003, 1.806879e-001
3.687228e+003, 1.748302e-001
3.689157e+003, 1.804783e-001
3.691085e+003, 1.821244e-001
3.693014e+003, 1.851397e-001
3.694942e+003, 1.881660e-001
3.696871e+003, 1.898083e-001
3.698799e+003, 1.895556e-001
3.700728e+003, 1.858396e-001
3.702656e+003, 1.855819e-001
3.704584e+003, 1.857770e-001
3.706513e+003, 1.865541e-001
3.708441e+003, 1.843463e-001
3.710370e+003, 1.858288e-001
3.712298e+003, 1.888659e-001
3.714227e+003, 1.872345e-001
3.716155e+003, 1.869071e-001
3.718084e+003, 1.875795e-001
3.720012e+003, 1.887713e-001
3.721941e+003, 1.894632e-001
3.723869e+003, 1.881521e-001
3.725798e+003, 1.882889e-001
3.727726e+003, 1.904260e-001
3.729655e+003, 1.908884e-001
3.731583e+003, 1.882961e-001
3.733511e+003, 1.881558e-001
3.735440e+003, 1.865074e-001
3.737368e+003, 1.902549e-001
3.739297e+003, 1.934022e-001
3.741225e+003, 1.917871e-001
3.743154e+003, 1.846607e-001
3.745082e+003, 1.876924e-001
3.747011e+003, 1.906896e-001
3.748939e+003, 1.892660e-001
3.750868e+003, 1.881105e-001
3.752796e+003, 1.904878e-001
3.754725e+003, 1.907677e-001
3.756653e+003, 1.887913e-001
3.758582e+003, 1.923947e-001
3.760510e+003, 1.973274e-001
3.762438e+003, 1.989396e-001
3.764367e+003, 1.967766e-001
3.766295e+003, 1.985421e-001
3.768224e+003, 1.967271e-001
3.770152e+003, 1.960889e-001
3.772081e+003, 1.969413e-001
3.774009e+003, 1.989834e-001
3.775938e+003, 2.003043e-001
3.777866e+003, 1.982576e-001
3.779795e+003, 1.979496e-001
3.781723e+003, 2.010779e-001
3.783652e+003, 1.977447e-001
3.785580e+003, 1.971699e-001
3.787509e+003, 2.017260e-001
3.789437e+003, 2.020050e-001
3.791365e+003, 1.997786e-001
3.793294e+003, 2.000539e-001
3.795222e+003, 2.001210e-001
3.797151e+003, 1.996939e-001
3.799079e+003, 1.978734e-001
3.801008e+003, 1.962043e-001
3.802936e+003, 2.025743e-001
3.804865e+003, 2.018904e-001
3.806793e+003, 1.971959e-001
3.808722e+003, 2.008519e-001
3.810650e+003, 2.029004e-001
3.812579e+003, 2.037609e-001
3.814507e+003, 1.999436e-001
3.816436e+003, 2.015354e-001
3.818364e+003, 2.036014e-001
3.820292e+003, 2.026351e-001
3.822221e+003, 2.044850e-001
3.824149e+003, 2.046662e-001
3.826078e+003, 2.057852e-001
3.828006e+003, 2.062456e-001
3.829935e+003, 2.040014e-001
3.831863e+003, 2.040735e-001
3.833792e+003, 2.038753e-001
3.835720e+003, 2.043232e-001
3.837649e+003, 2.056796e-001
3.839577e+003, 2.069530e-001
3.841506e+003, 2.031258e-001
3.843434e+003, 2.002816e-001
3.845363e+003, 2.038009e-001
3.847291e+003, 2.079617e-001
3.849219e+003, 2.052029e-001
3.851148e+003, 2.000369e-001
3.853076e+003, 1.983676e-001
3.855005e+003, 2.049586e-001
3.856933e+003, 2.081849e-001
3.858862e+003, 2.122651e-001
3.860790e+003, 2.091783e-001
3.862719e+003, 2.049800e-001
3.864647e+003, 2.061226e-001
3.866576e+003, 2.093931e-001
3.868504e+003, 2.080925e-001
3.870433e+003, 2.106853e-001
3.872361e+003, 2.093699e-001
3.874290e+003, 2.096340e-001
3.876218e+003, 2.098534e-001
3.878146e+003, 2.104859e-001
3.880075e+003, 2.128822e-001
3.882003e+003, 2.133162e-001
3.883932e+003, 2.130823e-001
3.885860e+003, 2.131204e-001
3.887789e+003, 2.123725e-001
3.889717e+003, 2.119280e-001
3.891646e+003, 2.148307e-001
3.893574e+003, 2.132321e-001
3.895503e+003, 2.091575e-001
3.897431e+003, 2.076486e-001
3.899360e+003, 2.108059e-001
3.901288e+003, 2.168128e-001
3.903217e+003, 2.160215e-001
3.905145e+003, 2.138100e-001
3.907073e+003, 2.112756e-001
3.909002e+003, 2.120044e-001
3.910930e+003, 2.148122e-001
3.912859e+003, 2.155689e-001
3.914787e+003, 2.135326e-001
3.916716e+003, 2.147013e-001
3.918644e+003, 2.191969e-001
3.920573e+003, 2.220989e-001
3.922501e+003, 2.201457e-001
3.924430e+003, 2.178069e-001
3.926358e+003, 2.185447e-001
3.928287e+003, 2.209912e-001
3.930215e+003, 2.217466e-001
3.932144e+003, 2.221594e-001
3.934072e+003, 2.222309e-001
3.936000e+003, 2.201402e-001
3.937929e+003, 2.223308e-001
3.939857e+003, 2.250965e-001
3.941786e+003, 2.237572e-001
3.943714e+003, 2.185971e-001
3.945643e+003, 2.191311e-001
3.947571e+003, 2.234870e-001
3.949500e+003, 2.243288e-001
3.951428e+003, 2.236457e-001
3.953357e+003, 2.242749e-001
3.955285e+003, 2.218204e-001
3.957214e+003, 2.188802e-001
3.959142e+003, 2.179959e-001
3.961071e+003, 2.238142e-001
3.962999e+003, 2.277428e-001
3.964927e+003, 2.264503e-001
3.966856e+003, 2.214358e-001
3.968784e+003, 2.218349e-001
3.970713e+003, 2.269035e-001
3.972641e+003, 2.277866e-001
3.974570e+003, 2.252348e-001
3.976498e+003, 2.237692e-001
3.978427e+003, 2.232961e-001
3.980355e+003, 2.226893e-001
3.982284e+003, 2.251197e-001
3.984212e+003, 2.314568e-001
3.986141e+003, 2.338254e-001
3.988069e+003, 2.276077e-001
3.989998e+003, 2.238365e-001
3.991926e+003, 2.260744e-001
3.993854e+003, 2.293422e-001
3.995783e+003, 2.317947e-001
3.997711e+003, 2.326406e-001
3.999640e+003, 2.327474e-001
4.001568e+003, 0.000000e+000
##END=



