##NAMES=Braunite
##RRUFFID=R050385
##IDEAL CHEMISTRY=Mn^2+^Mn^3+^_6_SiO_12_
##LOCALITY=Jhabua District, Madhya Pradesh, India
##OWNER=RRUFF
##SOURCE=University of Arizona Mineral Museum
##DESCRIPTION=Black prismatic crystals
##STATUS=The identification of this mineral has been confirmed by X-ray diffraction and chemical analysis
##URL=rruff.info/R050385
##MEASURED CHEMISTRY=(Fe^2+^_0.61_Mn^2+^_0.39_)_Σ=1_(Mn^3+^_5.94_Al_0.06_)_Σ=6_Si_1.00_O_12_
399.1926, 0.2452072
401.1211, 0.2688036
403.0496, 0.2700959
404.9780, 0.2673773
406.9065, 0.2641084
408.8350, 0.2664239
410.7634, 0.2696033
412.6919, 0.2715534
414.6204, 0.2730514
416.5488, 0.2780005
418.4773, 0.2817456
420.4058, 0.2861311
422.3342, 0.2927205
424.2627, 0.2990253
426.1912, 0.3043573
428.1196, 0.3121360
430.0481, 0.3175355
431.9766, 0.3153954
433.9050, 0.3193560
435.8335, 0.3220788
437.7620, 0.3209047
439.6904, 0.3267823
441.6189, 0.3282932
443.5474, 0.3250888
445.4758, 0.3234185
447.4043, 0.3186879
449.3328, 0.3096831
451.2612, 0.3009949
453.1897, 0.2988615
455.1182, 0.3033405
457.0466, 0.3088987
458.9751, 0.3094315
460.9036, 0.3118482
462.8320, 0.3177886
464.7605, 0.3224081
466.6890, 0.3252888
468.6174, 0.3268685
470.5459, 0.3259914
472.4744, 0.3237979
474.4028, 0.3198687
476.3313, 0.3160442
478.2598, 0.3123475
480.1882, 0.3098777
482.1167, 0.3107625
484.0452, 0.3152802
485.9736, 0.3193594
487.9021, 0.3261555
489.8306, 0.3352189
491.7590, 0.3426546
493.6875, 0.3477802
495.6160, 0.3502175
497.5444, 0.3526249
499.4729, 0.3517857
501.4014, 0.3495794
503.3298, 0.3478440
505.2583, 0.3464507
507.1868, 0.3437122
509.1152, 0.3399394
511.0437, 0.3344715
512.9722, 0.3278452
514.9006, 0.3214047
516.8291, 0.3138363
518.7576, 0.3070409
520.6860, 0.2998812
522.6145, 0.2912302
524.5430, 0.2795457
526.4714, 0.2679537
528.3999, 0.2579566
530.3284, 0.2500773
532.2568, 0.2438811
534.1853, 0.2394710
536.1138, 0.2372469
538.0422, 0.2387720
539.9707, 0.2440343
541.8992, 0.2502561
543.8276, 0.2553121
545.7561, 0.2607479
547.6846, 0.2652147
549.6130, 0.2621766
551.5415, 0.2542868
553.4700, 0.2451263
555.3984, 0.2340442
557.3269, 0.2222221
559.2554, 0.2113174
561.1838, 0.2018636
563.1123, 0.1952302
565.0408, 0.1921266
566.9692, 0.1926177
568.8977, 0.1969401
570.8262, 0.2047035
572.7546, 0.2168977
574.6831, 0.2315334
576.6116, 0.2476534
578.5400, 0.2646373
580.4685, 0.2796978
582.3970, 0.2944946
584.3254, 0.3090319
586.2539, 0.3217834
588.1824, 0.3306376
590.1108, 0.3390896
592.0393, 0.3476865
593.9678, 0.3524511
595.8962, 0.3558735
597.8247, 0.3580647
599.7532, 0.3575639
601.6816, 0.3555453
603.6101, 0.3516493
605.5386, 0.3448105
607.4670, 0.3366636
609.3955, 0.3287522
611.3240, 0.3202137
613.2524, 0.3105749
615.1809, 0.3013220
617.1094, 0.2926027
619.0378, 0.2836447
620.9663, 0.2748665
622.8948, 0.2664416
624.8232, 0.2580258
626.7517, 0.2497568
628.6802, 0.2419769
630.6086, 0.2345530
632.5371, 0.2272202
634.4656, 0.2203634
636.3940, 0.2142489
638.3225, 0.2075412
640.2510, 0.2002044
642.1794, 0.1937309
644.1079, 0.1872509
646.0364, 0.1807621
647.9648, 0.1745856
649.8933, 0.1690116
651.8218, 0.1634821
653.7502, 0.1580857
655.6787, 0.1527865
657.6072, 0.1476448
659.5356, 0.1428751
661.4641, 0.1381692
663.3926, 0.1338102
665.3210, 0.1300645
667.2495, 0.1267147
669.1780, 0.1236423
671.1064, 0.1209931
673.0349, 0.1185129
674.9634, 0.1161786
676.8918, 0.1146005
678.8203, 0.1127167
680.7488, 0.1110647
682.6772, 0.1101720
684.6057, 0.1097600
686.5342, 0.1094131
688.4626, 0.1095608
690.3911, 0.1103258
692.3196, 0.1122738
694.2480, 0.1151425
696.1765, 0.1179597
698.1050, 0.1212352
700.0334, 0.1249927
701.9619, 0.1277506
703.8904, 0.1283015
705.8188, 0.1265902
707.7473, 0.1230598
709.6758, 0.1177149
711.6042, 0.1110227
713.5327, 0.1033486
715.4612, 9.5451117E-02
717.3896, 8.8082314E-02
719.3181, 8.1350550E-02
721.2466, 7.5134881E-02
723.1750, 6.9544978E-02
725.1035, 6.4685144E-02
727.0320, 6.0350642E-02
728.9604, 5.6470700E-02
730.8889, 5.3510699E-02
732.8174, 5.1153678E-02
734.7458, 4.8699390E-02
736.6743, 4.6388820E-02
738.6028, 4.3989431E-02
740.5313, 4.2063300E-02
742.4597, 4.0500730E-02
744.3882, 3.8953111E-02
746.3167, 3.7393309E-02
748.2451, 3.6006741E-02
750.1736, 3.5159349E-02
752.1021, 3.4469571E-02
754.0305, 3.3608839E-02
755.9590, 3.2831881E-02
757.8875, 3.2714680E-02
759.8159, 3.2602981E-02
761.7444, 3.2350089E-02
763.6729, 3.2251980E-02
765.6013, 3.2226719E-02
767.5298, 3.1852409E-02
769.4583, 3.1620741E-02
771.3867, 3.1721540E-02
773.3152, 3.1630859E-02
775.2437, 3.1749960E-02
777.1721, 3.1825721E-02
779.1006, 3.2012410E-02
781.0291, 3.2568540E-02
782.9575, 3.2828219E-02
784.8860, 3.3069111E-02
786.8145, 3.3591039E-02
788.7429, 3.4051221E-02
790.6714, 3.3941850E-02
792.5999, 3.3834860E-02
794.5283, 3.4025710E-02
796.4568, 3.4572650E-02
798.3853, 3.5442948E-02
800.3137, 3.6029279E-02
802.2422, 3.6443170E-02
804.1707, 3.6917500E-02
806.0991, 3.7293792E-02
808.0276, 3.8051762E-02
809.9561, 3.8770009E-02
811.8845, 3.9046910E-02
813.8130, 3.9369110E-02
815.7415, 4.0070910E-02
817.6699, 4.0777091E-02
819.5984, 4.1264910E-02
821.5269, 4.1722991E-02
823.4553, 4.2710431E-02
825.3838, 4.3557908E-02
827.3123, 4.4217352E-02
829.2407, 4.4970520E-02
831.1692, 4.5431029E-02
833.0977, 4.6147231E-02
835.0261, 4.6964440E-02
836.9546, 4.7897302E-02
838.8831, 4.8833199E-02
840.8115, 5.0034221E-02
842.7400, 5.0964411E-02
844.6685, 5.1660690E-02
846.5969, 5.2679490E-02
848.5254, 5.4147761E-02
850.4539, 5.5783462E-02
852.3823, 5.7244278E-02
854.3108, 5.8772780E-02
856.2393, 5.9893839E-02
858.1677, 6.1125249E-02
860.0962, 6.2846050E-02
862.0247, 6.4727820E-02
863.9531, 6.6735402E-02
865.8816, 6.8918213E-02
867.8101, 7.1336560E-02
869.7385, 7.3856972E-02
871.6670, 7.6475650E-02
873.5955, 7.9478733E-02
875.5239, 8.2944997E-02
877.4524, 8.6398058E-02
879.3809, 8.9743637E-02
881.3093, 9.3905680E-02
883.2378, 9.8340027E-02
885.1663, 0.1029871
887.0947, 0.1083817
889.0232, 0.1143358
890.9517, 0.1206354
892.8801, 0.1274101
894.8085, 0.1345954
896.7370, 0.1425707
898.6655, 0.1513381
900.5939, 0.1597445
902.5224, 0.1668333
904.4509, 0.1731092
906.3793, 0.1790074
908.3078, 0.1854444
910.2363, 0.1936116
912.1647, 0.2033097
914.0932, 0.2147533
916.0217, 0.2276479
917.9501, 0.2410684
919.8786, 0.2548702
921.8071, 0.2701091
923.7355, 0.2857812
925.6640, 0.3008913
927.5925, 0.3150664
929.5209, 0.3268309
931.4494, 0.3359080
933.3779, 0.3434492
935.3063, 0.3488229
937.2348, 0.3525789
939.1633, 0.3557639
941.0917, 0.3579956
943.0202, 0.3573323
944.9487, 0.3541222
946.8771, 0.3480444
948.8056, 0.3396408
950.7341, 0.3294110
952.6625, 0.3174530
954.5910, 0.3038261
956.5195, 0.2882117
958.4479, 0.2710516
960.3764, 0.2518142
962.3049, 0.2316646
964.2333, 0.2122100
966.1618, 0.1934734
968.0903, 0.1749716
970.0187, 0.1570833
971.9472, 0.1395273
973.8757, 0.1227411
975.8041, 0.1070540
977.7326, 9.2343390E-02
979.6611, 7.9044737E-02
981.5895, 6.7821532E-02
983.5180, 5.8260269E-02
985.4465, 5.0161391E-02
987.3749, 4.3730151E-02
989.3034, 3.8771361E-02
991.2319, 3.4981221E-02
993.1603, 3.1998452E-02
995.0888, 2.9683709E-02
997.0173, 2.7885539E-02
998.9457, 2.6455110E-02
1000.874, 2.5100010E-02
1002.803, 2.3881320E-02
1004.731, 2.3097141E-02
1006.660, 2.2410041E-02
1008.588, 2.2014150E-02
1010.517, 2.1685660E-02
1012.445, 2.1510690E-02
1014.373, 2.1081001E-02
1016.302, 2.0644100E-02
1018.230, 2.0470491E-02
1020.159, 2.0770621E-02
1022.087, 2.1060700E-02
1024.016, 2.1007869E-02
1025.944, 2.0950940E-02
1027.873, 2.1049540E-02
1029.801, 2.1241119E-02
1031.730, 2.1372531E-02
1033.658, 2.1631951E-02
1035.587, 2.1801161E-02
1037.515, 2.1899389E-02
1039.444, 2.2114290E-02
1041.372, 2.2480080E-02
1043.301, 2.2825141E-02
1045.229, 2.2937121E-02
1047.157, 2.2998961E-02
1049.086, 2.3488199E-02
1051.014, 2.4121501E-02
1052.943, 2.4553420E-02
1054.871, 2.4980560E-02
1056.800, 2.5360821E-02
1058.728, 2.5733421E-02
1060.657, 2.6188601E-02
1062.585, 2.6756540E-02
1064.514, 2.7423089E-02
1066.442, 2.8045980E-02
1068.371, 2.8621940E-02
1070.299, 2.9095121E-02
1072.228, 2.9957229E-02
1074.156, 3.0560240E-02
1076.084, 3.1097731E-02
1078.013, 3.1817511E-02
1079.941, 3.2391291E-02
1081.870, 3.2985181E-02
1083.798, 3.3566128E-02
1085.727, 3.4352031E-02
1087.655, 3.5380680E-02
1089.584, 3.6047298E-02
1091.512, 3.6394920E-02
1093.441, 3.6646072E-02
1095.369, 3.6767788E-02
1097.298, 3.6837392E-02
1099.226, 3.6864951E-02
1101.155, 3.6841702E-02
1103.083, 3.6802080E-02
1105.011, 3.6946781E-02
1106.940, 3.7092589E-02
1108.868, 3.7448090E-02
1110.797, 3.7807450E-02
1112.725, 3.8384348E-02
1114.654, 3.9011899E-02
1116.582, 3.9503250E-02
1118.511, 3.9773349E-02
1120.439, 4.0187351E-02
1122.368, 4.0612929E-02
1124.296, 4.1174021E-02
1126.225, 4.1565530E-02
1128.153, 4.1836839E-02
1130.082, 4.2250350E-02
1132.010, 4.2143919E-02
1133.938, 4.1872509E-02
1135.867, 4.1848511E-02
1137.795, 4.1929372E-02
1139.724, 4.2009391E-02
1141.652, 4.1885160E-02
1143.581, 4.1761462E-02
1145.509, 4.1648369E-02
1147.438, 4.1363299E-02
1149.366, 4.1290089E-02
1151.295, 4.1538689E-02
1153.223, 4.1938759E-02
1155.152, 4.1916762E-02
1157.080, 4.1695230E-02
1159.009, 4.2018980E-02
1160.937, 4.2815249E-02
1162.865, 4.3509681E-02
1164.794, 4.3794960E-02
1166.722, 4.3973789E-02
1168.651, 4.4432741E-02
1170.579, 4.5069769E-02
1172.508, 4.5563988E-02
1174.436, 4.6087380E-02
1176.365, 4.6999019E-02
1178.293, 4.8014440E-02
1180.222, 4.8574802E-02
1182.150, 4.8967540E-02
1184.079, 4.9416870E-02
1186.007, 5.0099209E-02
1187.936, 5.0364900E-02
1189.864, 5.0466880E-02
1191.792, 5.0385639E-02
1193.721, 5.0135721E-02
1195.649, 4.9976282E-02
1197.578, 4.9677230E-02
1199.506, 4.9338311E-02
1201.435, 4.9118198E-02
1203.363, 4.8930969E-02
1205.292, 4.8617169E-02
1207.220, 4.8246510E-02
1209.149, 4.8110280E-02
1211.077, 4.8023961E-02
1213.006, 4.7816351E-02
1214.934, 4.7767371E-02
1216.863, 4.7984470E-02
1218.791, 4.8358519E-02
1220.719, 4.8309010E-02
1222.648, 4.8059039E-02
1224.576, 4.8198719E-02
1226.505, 4.8491411E-02
1228.433, 4.8895691E-02
1230.362, 4.9288210E-02
1232.290, 4.9593240E-02
1234.219, 4.9675468E-02
1236.147, 4.9685381E-02
1238.076, 4.9821351E-02
1240.004, 5.0277140E-02
1241.933, 5.0780110E-02
1243.861, 5.1128011E-02
1245.790, 5.1536940E-02
1247.718, 5.1748659E-02
1249.646, 5.1927589E-02
1251.575, 5.2305799E-02
1253.503, 5.2723341E-02
1255.432, 5.3140920E-02
1257.360, 5.3240109E-02
1259.289, 5.3580292E-02
1261.217, 5.4096870E-02
1263.146, 5.4451611E-02
1265.074, 5.5186640E-02
1267.003, 5.5835020E-02
1268.931, 5.6148682E-02
1270.860, 5.6689020E-02
1272.788, 5.7150170E-02
1274.717, 5.7382300E-02
1276.645, 5.7861749E-02
1278.573, 5.8096118E-02
1280.502, 5.8398500E-02
1282.430, 5.8636129E-02
1284.359, 5.8874071E-02
1286.287, 5.9267540E-02
1288.216, 5.9758101E-02
1290.144, 6.0277540E-02
1292.073, 6.0560182E-02
1294.001, 6.0772900E-02
1295.930, 6.1168931E-02
1297.858, 6.1408740E-02
1299.787, 6.1824970E-02
1301.715, 6.2369771E-02
1303.644, 6.2817179E-02
1305.572, 6.3102446E-02
1307.500, 6.3441709E-02
1309.429, 6.3739419E-02
1311.357, 6.4142793E-02
1313.286, 6.4810477E-02
1315.214, 6.5510631E-02
1317.143, 6.5862112E-02
1319.071, 6.6052899E-02
1321.000, 6.6274486E-02
1322.928, 6.6561967E-02
1324.857, 6.7167550E-02
1326.785, 6.7621537E-02
1328.714, 6.7967921E-02
1330.642, 6.8597488E-02
1332.571, 6.9257297E-02
1334.499, 6.9484733E-02
1336.427, 6.9855928E-02
1338.356, 7.0185013E-02
1340.284, 7.0508607E-02
1342.213, 7.0947804E-02
1344.141, 7.1463414E-02
1346.070, 7.1714357E-02
1347.998, 7.1959227E-02
1349.927, 7.2406113E-02
1351.855, 7.2994053E-02
1353.784, 7.3521949E-02
1355.712, 7.3933750E-02
1357.641, 7.4029550E-02
1359.569, 7.4331120E-02
1361.498, 7.5031169E-02
1363.426, 7.5611331E-02
1365.354, 7.5943723E-02
1367.283, 7.6176479E-02
1369.211, 7.6678321E-02
1371.140, 7.6998100E-02
1373.068, 7.7272616E-02
1374.997, 7.7814192E-02
1376.925, 7.7775493E-02
1378.854, 7.7773139E-02
1380.782, 7.8241318E-02
1382.711, 7.8732349E-02
1384.639, 7.9334088E-02
1386.568, 7.9879567E-02
1388.496, 8.0194108E-02
1390.424, 8.0561921E-02
1392.353, 8.1211202E-02
1394.281, 8.1738621E-02
1396.210, 8.2342923E-02
1398.138, 8.2840629E-02
1400.067, 8.3012164E-02
1401.995, 8.3061107E-02
1403.924, 8.3376840E-02
1405.852, 8.3968863E-02
1407.781, 8.4637597E-02
1409.709, 8.4471174E-02
1411.638, 8.4479287E-02
1413.566, 8.5175872E-02
1415.495, 8.5545972E-02
1417.423, 8.5873492E-02
1419.351, 8.6550787E-02
1421.280, 8.6878411E-02
1423.208, 8.7268263E-02
1425.137, 8.7536842E-02
1427.065, 8.7793283E-02
1428.994, 8.8435628E-02
1430.922, 8.8829666E-02
1432.851, 8.9255787E-02
1434.779, 8.9624278E-02
1436.708, 8.9788876E-02
1438.636, 9.0026602E-02
1440.565, 9.0623170E-02
1442.493, 9.1008671E-02
1444.422, 9.0725429E-02
1446.350, 9.0754963E-02
1448.278, 9.1338500E-02
1450.207, 9.1986448E-02
1452.135, 9.2389472E-02
1454.064, 9.2475846E-02
1455.992, 9.2814907E-02
1457.921, 9.2871383E-02
1459.849, 9.2930213E-02
1461.778, 9.3393527E-02
1463.706, 9.3772873E-02
1465.635, 9.3725123E-02
1467.563, 9.3657367E-02
1469.492, 9.3941592E-02
1471.420, 9.4315432E-02
1473.349, 9.4545312E-02
1475.277, 9.4268396E-02
1477.205, 9.4101831E-02
1479.134, 9.4270699E-02
1481.062, 9.4684713E-02
1482.991, 9.5133834E-02
1484.919, 9.5274650E-02
1486.848, 9.5478341E-02
1488.776, 9.5352821E-02
1490.705, 9.5312417E-02
1492.633, 9.5766187E-02
1494.562, 9.6233122E-02
1496.490, 9.6503861E-02
1498.419, 9.6834093E-02
1500.347, 9.7272716E-02
1502.276, 9.7357482E-02
1504.204, 9.7282097E-02
1506.132, 9.7714752E-02
1508.061, 9.8539762E-02
1509.989, 9.8777503E-02
1511.918, 9.8603211E-02
1513.846, 9.8544464E-02
1515.775, 9.8589092E-02
1517.703, 9.9112600E-02
1519.632, 9.9830523E-02
1521.560, 0.1002992
1523.489, 0.1006683
1525.417, 0.1010008
1527.346, 0.1012472
1529.274, 0.1014585
1531.203, 0.1017244
1533.131, 0.1022326
1535.059, 0.1025718
1536.988, 0.1029990
1538.916, 0.1036606
1540.845, 0.1038920
1542.773, 0.1038273
1544.702, 0.1039890
1546.630, 0.1044371
1548.559, 0.1049956
1550.487, 0.1053615
1552.416, 0.1054431
1554.344, 0.1056048
1556.273, 0.1060374
1558.201, 0.1067210
1560.130, 0.1067383
1562.058, 0.1066287
1563.986, 0.1064911
1565.915, 0.1069279
1567.843, 0.1071874
1569.772, 0.1072666
1571.700, 0.1077760
1573.629, 0.1080074
1575.557, 0.1082141
1577.486, 0.1083435
1579.414, 0.1082225
1581.343, 0.1083813
1583.271, 0.1088133
1585.200, 0.1091541
1587.128, 0.1092492
1589.057, 0.1093028
1590.985, 0.1095297
1592.913, 0.1100599
1594.842, 0.1102497
1596.770, 0.1103171
1598.699, 0.1104745
1600.627, 0.1104740
1602.556, 0.1108115
1604.484, 0.1109008
1606.413, 0.1108259
1608.341, 0.1111031
1610.270, 0.1115972
1612.198, 0.1120489
1614.127, 0.1123047
1616.055, 0.1121536
1617.984, 0.1121762
1619.912, 0.1125777
1621.840, 0.1128515
1623.769, 0.1130770
1625.697, 0.1132986
1627.626, 0.1135828
1629.554, 0.1139693
1631.483, 0.1140976
1633.411, 0.1144912
1635.340, 0.1147726
1637.268, 0.1148266
1639.197, 0.1151309
1641.125, 0.1155208
1643.054, 0.1157958
1644.982, 0.1159586
1646.911, 0.1160785
1648.839, 0.1162316
1650.767, 0.1161169
1652.696, 0.1160337
1654.624, 0.1161428
1656.553, 0.1166158
1658.481, 0.1172173
1660.410, 0.1176057
1662.338, 0.1175717
1664.267, 0.1174306
1666.195, 0.1172025
1668.124, 0.1172835
1670.052, 0.1177928
1671.981, 0.1182826
1673.909, 0.1181742
1675.838, 0.1177847
1677.766, 0.1178124
1679.694, 0.1181892
1681.623, 0.1189114
1683.551, 0.1194987
1685.480, 0.1195742
1687.408, 0.1192946
1689.337, 0.1191966
1691.265, 0.1197337
1693.194, 0.1201331
1695.122, 0.1201142
1697.051, 0.1200943
1698.979, 0.1201870
1700.908, 0.1206899
1702.836, 0.1210213
1704.765, 0.1210360
1706.693, 0.1209424
1708.621, 0.1209866
1710.550, 0.1212735
1712.478, 0.1213964
1714.407, 0.1217224
1716.335, 0.1223432
1718.264, 0.1226389
1720.192, 0.1231906
1722.121, 0.1238224
1724.049, 0.1237870
1725.978, 0.1239989
1727.906, 0.1242673
1729.835, 0.1239300
1731.763, 0.1237074
1733.692, 0.1237951
1735.620, 0.1237531
1737.548, 0.1240526
1739.477, 0.1242732
1741.405, 0.1237658
1743.334, 0.1240817
1745.262, 0.1242217
1747.191, 0.1241461
1749.119, 0.1244087
1751.048, 0.1250701
1752.976, 0.1253833
1754.905, 0.1252968
1756.833, 0.1253401
1758.762, 0.1254675
1760.690, 0.1259187
1762.619, 0.1263579
1764.547, 0.1268423
1766.475, 0.1269874
1768.404, 0.1276296
1770.332, 0.1279307
1772.261, 0.1277537
1774.189, 0.1277006
1776.118, 0.1276978
1778.046, 0.1277962
1779.975, 0.1284629
1781.903, 0.1294613
1783.832, 0.1296198
1785.760, 0.1298836
1787.689, 0.1300153
1789.617, 0.1297640
1791.546, 0.1295163
1793.474, 0.1293703
1795.402, 0.1293467
1797.331, 0.1298837
1799.259, 0.1310875
1801.188, 0.1314028
1803.116, 0.1312076
1805.045, 0.1317162
1806.973, 0.1323033
1808.902, 0.1320896
1810.830, 0.1315678
1812.759, 0.1317843
1814.687, 0.1320536
1816.616, 0.1325506
1818.544, 0.1326916
1820.473, 0.1324525
1822.401, 0.1335446
1824.329, 0.1336547
1826.258, 0.1333685
1828.186, 0.1339617
1830.115, 0.1343911
1832.043, 0.1345254
1833.972, 0.1344132
1835.900, 0.1347130
1837.829, 0.1353141
1839.757, 0.1358192
1841.686, 0.1358334
1843.614, 0.1360514
1845.543, 0.1364086
1847.471, 0.1362336
1849.400, 0.1364645
1851.328, 0.1372984
1853.256, 0.1378158
1855.185, 0.1372628
1857.113, 0.1369324
1859.042, 0.1367533
1860.970, 0.1364441
1862.899, 0.1371741
1864.827, 0.1371685
1866.756, 0.1377122
1868.684, 0.1376910
1870.613, 0.1377491
1872.541, 0.1380179
1874.470, 0.1385608
1876.398, 0.1376228
1878.327, 0.1368581
1880.255, 0.1380899
1882.183, 0.1385554
1884.112, 0.1377641
1886.040, 0.1376884
1887.969, 0.1384252
1889.897, 0.1383179
1891.826, 0.1390164
1893.754, 0.1389488
1895.683, 0.1381267
1897.611, 0.1383612
1899.540, 0.1387645
1901.468, 0.1404584
1903.397, 0.1402987
1905.325, 0.1394482
1907.254, 0.1395033
1909.182, 0.1393893
1911.110, 0.1386686
1913.039, 0.1395825
1914.967, 0.1404420
1916.896, 0.1399324
1918.824, 0.1391735
1920.753, 0.1394026
1922.681, 0.1396132
1924.610, 0.1391261
1926.538, 0.1395007
1928.467, 0.1404354
1930.395, 0.1411762
1932.324, 0.1409615
1934.252, 0.1407301
1936.181, 0.1421290
1938.109, 0.1422568
1940.037, 0.1420489
1941.966, 0.1425368
1943.894, 0.1425472
1945.823, 0.1414151
1947.751, 0.1415616
1949.680, 0.1411873
1951.608, 0.1411537
1953.537, 0.1414517
1955.465, 0.1414000
1957.394, 0.1420156
1959.322, 0.1422028
1961.251, 0.1435007
1963.179, 0.1445847
1965.108, 0.1446580
1967.036, 0.1454095
1968.964, 0.1473914
1970.893, 0.1478608
1972.821, 0.1484157
1974.750, 0.1497504
1976.678, 0.1492900
1978.607, 0.1490988
1980.535, 0.1494356
1982.464, 0.1503865
1984.392, 0.1504097
1986.321, 0.1510848
1988.249, 0.1505533
1990.178, 0.1483787
1992.106, 0.1484924
1994.035, 0.1485130
1995.963, 0.1487756
1997.891, 0.1496553
1999.820, 0.1497636
2001.748, 0.1495228
2003.677, 0.1474286
2005.605, 0.1466610
2007.534, 0.1488558
2009.462, 0.1524684
2011.391, 0.1522982
2013.319, 0.1502331
2015.248, 0.1523362
2017.176, 0.1539340
2019.105, 0.1506299
2021.033, 0.1491083
2022.962, 0.1510321
2024.890, 0.1506581
2026.818, 0.1518777
2028.747, 0.1542065
2030.675, 0.1550153
2032.604, 0.1555230
2034.532, 0.1534203
2036.461, 0.1515639
2038.389, 0.1514160
2040.318, 0.1546295
2042.246, 0.1576544
2044.175, 0.1560742
2046.103, 0.1567164
2048.032, 0.1596738
2049.960, 0.1594940
2051.889, 0.1585425
2053.817, 0.1569359
2055.746, 0.1572120
2057.674, 0.1563751
2059.603, 0.1560398
2061.531, 0.1578560
2063.459, 0.1592443
2065.388, 0.1596371
2067.316, 0.1601237
2069.245, 0.1585401
2071.173, 0.1585143
2073.102, 0.1607917
2075.030, 0.1620805
2076.959, 0.1624542
2078.887, 0.1622940
2080.816, 0.1618318
2082.744, 0.1609207
2084.673, 0.1593289
2086.601, 0.1590526
2088.530, 0.1597933
2090.458, 0.1604189
2092.386, 0.1592032
2094.315, 0.1586789
2096.243, 0.1594283
2098.172, 0.1602502
2100.100, 0.1608744
2102.029, 0.1606543
2103.957, 0.1616004
2105.886, 0.1626221
2107.814, 0.1633152
2109.743, 0.1627128
2111.671, 0.1621505
2113.600, 0.1636251
2115.528, 0.1644315
2117.457, 0.1643007
2119.385, 0.1629130
2121.313, 0.1623230
2123.242, 0.1627291
2125.170, 0.1625075
2127.099, 0.1621923
2129.027, 0.1607912
2130.956, 0.1603705
2132.884, 0.1611889
2134.813, 0.1596965
2136.741, 0.1599533
2138.670, 0.1618308
2140.598, 0.1612572
2142.527, 0.1614115
2144.455, 0.1612277
2146.384, 0.1609173
2148.312, 0.1620446
2150.240, 0.1610261
2152.169, 0.1592215
2154.097, 0.1573816
2156.026, 0.1579214
2157.954, 0.1592451
2159.883, 0.1644380
2161.811, 0.1670641
2163.740, 0.1649523
2165.668, 0.1671430
2167.597, 0.1700782
2169.525, 0.1656334
2171.454, 0.1632924
2173.382, 0.1650722
2175.311, 0.1644765
2177.239, 0.1643848
2179.167, 0.1646011
2181.096, 0.1639429
2183.024, 0.1630922
2184.953, 0.1640951
2186.881, 0.1656591
2188.810, 0.1670485
2190.738, 0.1671773
2192.667, 0.1675394
2194.595, 0.1690649
2196.524, 0.1687234
2198.452, 0.1667896
2200.381, 0.1667045
2202.309, 0.1676795
2204.238, 0.1673289
2206.166, 0.1661297
2208.094, 0.1653131
2210.023, 0.1661851
2211.951, 0.1690542
2213.880, 0.1699202
2215.808, 0.1675997
2217.737, 0.1692137
2219.665, 0.1705866
2221.594, 0.1696227
2223.522, 0.1694935
2225.451, 0.1698581
2227.379, 0.1699708
2229.308, 0.1691487
2231.236, 0.1677663
2233.165, 0.1685619
2235.093, 0.1693468
2237.021, 0.1698402
2238.950, 0.1717892
2240.878, 0.1725345
2242.807, 0.1709781
2244.735, 0.1706516
2246.664, 0.1723047
2248.592, 0.1725508
2250.521, 0.1716648
2252.449, 0.1721472
2254.378, 0.1721941
2256.306, 0.1724221
2258.235, 0.1735706
2260.163, 0.1723297
2262.092, 0.1720584
2264.020, 0.1719967
2265.948, 0.1720730
2267.877, 0.1731488
2269.805, 0.1750505
2271.734, 0.1757382
2273.662, 0.1747144
2275.591, 0.1750804
2277.519, 0.1768840
2279.448, 0.1773089
2281.376, 0.1760324
2283.305, 0.1756101
2285.233, 0.1759953
2287.162, 0.1771194
2289.090, 0.1776524
2291.019, 0.1776134
2292.947, 0.1768757
2294.875, 0.1766955
2296.804, 0.1774685
2298.732, 0.1772843
2300.661, 0.1767807
2302.589, 0.1769079
2304.518, 0.1767775
2306.446, 0.1768802
2308.375, 0.1780517
2310.303, 0.1778343
2312.232, 0.1780578
2314.160, 0.1781236
2316.089, 0.1776506
2318.017, 0.1774191
2319.946, 0.1789399
2321.874, 0.1800534
2323.802, 0.1804022
2325.731, 0.1791631
2327.659, 0.1781860
2329.588, 0.1782907
2331.516, 0.1783764
2333.445, 0.1789468
2335.373, 0.1793062
2337.302, 0.1788395
2339.230, 0.1785243
2341.159, 0.1778802
2343.087, 0.1780919
2345.016, 0.1782592
2346.944, 0.1783394
2348.873, 0.1792450
2350.801, 0.1791957
2352.729, 0.1789066
2354.658, 0.1796430
2356.586, 0.1804583
2358.515, 0.1800759
2360.443, 0.1799931
2362.372, 0.1797699
2364.300, 0.1793268
2366.229, 0.1794511
2368.157, 0.1794561
2370.086, 0.1802732
2372.014, 0.1807574
2373.942, 0.1802677
2375.871, 0.1805021
2377.799, 0.1811910
2379.728, 0.1811303
2381.656, 0.1811482
2383.585, 0.1816963
2385.513, 0.1817757
2387.442, 0.1815767
2389.370, 0.1819331
2391.299, 0.1821643
2393.227, 0.1819785
2395.156, 0.1824633
2397.084, 0.1829461
2399.012, 0.1820607
2400.941, 0.1816532
2402.869, 0.1811521
2404.798, 0.1810931
2406.726, 0.1822644
2408.655, 0.1829692
2410.583, 0.1836261
2412.512, 0.1839504
2414.440, 0.1844489
2416.369, 0.1851241
2418.297, 0.1856137
2420.226, 0.1851962
2422.154, 0.1837185
2424.083, 0.1837382
2426.011, 0.1857936
2427.939, 0.1868916
2429.868, 0.1858118
2431.796, 0.1844769
2433.725, 0.1838132
2435.653, 0.1839892
2437.582, 0.1864079
2439.510, 0.1872847
2441.439, 0.1856514
2443.367, 0.1854476
2445.296, 0.1859973
2447.224, 0.1861119
2449.153, 0.1867156
2451.081, 0.1868102
2453.010, 0.1867420
2454.938, 0.1873419
2456.866, 0.1879791
2458.795, 0.1879914
2460.723, 0.1877069
2462.652, 0.1870568
2464.580, 0.1873152
2466.509, 0.1882940
2468.437, 0.1874553
2470.366, 0.1858109
2472.294, 0.1860186
2474.223, 0.1870573
2476.151, 0.1887090
2478.080, 0.1889258
2480.008, 0.1879170
2481.937, 0.1887700
2483.865, 0.1893133
2485.793, 0.1893892
2487.722, 0.1892802
2489.650, 0.1878932
2491.579, 0.1866867
2493.507, 0.1878214
2495.436, 0.1880061
2497.364, 0.1883438
2499.293, 0.1891526
2501.221, 0.1887770
2503.150, 0.1887181
2505.078, 0.1893352
2507.007, 0.1898931
2508.935, 0.1887724
2510.864, 0.1881214
2512.792, 0.1881406
2514.720, 0.1884273
2516.649, 0.1907882
2518.577, 0.1911139
2520.506, 0.1905640
2522.434, 0.1917911
2524.363, 0.1919479
2526.291, 0.1911059
2528.220, 0.1906767
2530.148, 0.1911411
2532.077, 0.1905752
2534.005, 0.1908576
2535.934, 0.1917795
2537.862, 0.1914795
2539.791, 0.1921058
2541.719, 0.1930653
2543.647, 0.1919877
2545.576, 0.1915844
2547.504, 0.1909543
2549.433, 0.1912755
2551.361, 0.1923289
2553.290, 0.1925949
2555.218, 0.1917453
2557.147, 0.1911631
2559.075, 0.1917832
2561.004, 0.1927859
2562.932, 0.1923811
2564.861, 0.1923688
2566.789, 0.1923975
2568.718, 0.1924028
2570.646, 0.1921540
2572.574, 0.1921211
2574.503, 0.1940143
2576.431, 0.1940747
2578.360, 0.1938959
2580.288, 0.1938480
2582.217, 0.1932161
2584.145, 0.1937139
2586.074, 0.1951830
2588.002, 0.1956795
2589.931, 0.1948513
2591.859, 0.1939901
2593.788, 0.1936436
2595.716, 0.1943141
2597.645, 0.1948793
2599.573, 0.1939243
2601.501, 0.1945742
2603.430, 0.1953000
2605.358, 0.1949583
2607.287, 0.1952385
2609.215, 0.1962075
2611.144, 0.1962204
2613.072, 0.1964006
2615.001, 0.1966076
2616.929, 0.1971498
2618.858, 0.1979244
2620.786, 0.1981709
2622.715, 0.1980191
2624.643, 0.1990466
2626.572, 0.1983018
2628.500, 0.1968285
2630.428, 0.1970654
2632.357, 0.1974197
2634.285, 0.1968470
2636.214, 0.1974612
2638.142, 0.1981318
2640.071, 0.1983690
2641.999, 0.1991918
2643.928, 0.1989638
2645.856, 0.1991666
2647.785, 0.1996393
2649.713, 0.1996113
2651.642, 0.1990661
2653.570, 0.1991386
2655.499, 0.1992229
2657.427, 0.1993829
2659.355, 0.1993055
2661.284, 0.1994429
2663.212, 0.2000842
2665.141, 0.1993168
2667.069, 0.1992853
2668.998, 0.1997317
2670.926, 0.2006344
2672.855, 0.2007333
2674.783, 0.2000802
2676.712, 0.2006733
2678.640, 0.2006724
2680.569, 0.2002789
2682.497, 0.2014257
2684.426, 0.2019292
2686.354, 0.2014559
2688.282, 0.2012302
2690.211, 0.2013248
2692.139, 0.2013497
2694.068, 0.2017166
2695.996, 0.2017911
2697.925, 0.2013871
2699.853, 0.2009704
2701.782, 0.2012402
2703.710, 0.2024782
2705.639, 0.2021739
2707.567, 0.2015998
2709.496, 0.2023447
2711.424, 0.2031645
2713.353, 0.2035095
2715.281, 0.2026907
2717.209, 0.2020734
2719.138, 0.2018630
2721.066, 0.2024836
2722.995, 0.2032560
2724.923, 0.2028752
2726.852, 0.2027007
2728.780, 0.2032598
2730.709, 0.2037779
2732.637, 0.2035007
2734.566, 0.2031621
2736.494, 0.2032129
2738.423, 0.2039189
2740.351, 0.2041586
2742.280, 0.2039329
2744.208, 0.2040940
2746.136, 0.2046553
2748.065, 0.2041782
2749.993, 0.2045208
2751.922, 0.2052307
2753.850, 0.2050112
2755.779, 0.2046646
2757.707, 0.2040970
2759.636, 0.2040274
2761.564, 0.2050789
2763.493, 0.2055764
2765.421, 0.2061522
2767.350, 0.2070769
2769.278, 0.2067295
2771.207, 0.2068213
2773.135, 0.2069410
2775.063, 0.2063765
2776.992, 0.2060538
2778.920, 0.2057361
2780.849, 0.2061990
2782.777, 0.2065393
2784.706, 0.2063249
2786.634, 0.2069074
2788.563, 0.2069011
2790.491, 0.2063132
2792.420, 0.2066725
2794.348, 0.2066576
2796.277, 0.2063638
2798.205, 0.2065039
2800.134, 0.2063424
2802.062, 0.2066725
2803.990, 0.2067361
2805.919, 0.2070905
2807.847, 0.2078793
2809.776, 0.2074695
2811.704, 0.2076955
2813.633, 0.2087698
2815.561, 0.2094694
2817.490, 0.2095806
2819.418, 0.2097792
2821.347, 0.2087331
2823.275, 0.2082568
2825.204, 0.2089214
2827.132, 0.2094699
2829.061, 0.2097978
2830.989, 0.2092408
2832.917, 0.2091397
2834.846, 0.2099340
2836.774, 0.2101383
2838.703, 0.2098865
2840.631, 0.2102606
2842.560, 0.2100749
2844.488, 0.2092365
2846.417, 0.2090276
2848.345, 0.2093676
2850.274, 0.2095776
2852.202, 0.2083158
2854.131, 0.2064388
2856.059, 0.2061082
2857.988, 0.2072580
2859.916, 0.2091860
2861.844, 0.2087559
2863.773, 0.2080470
2865.701, 0.2087563
2867.630, 0.2096579
2869.558, 0.2104009
2871.487, 0.2106183
2873.415, 0.2091673
2875.344, 0.2083619
2877.272, 0.2089851
2879.201, 0.2091886
2881.129, 0.2097480
2883.058, 0.2092261
2884.986, 0.2082843
2886.915, 0.2098110
2888.843, 0.2117618
2890.771, 0.2116032
2892.700, 0.2115205
2894.628, 0.2117020
2896.557, 0.2120801
2898.485, 0.2113235
2900.414, 0.2098553
2902.342, 0.2100567
2904.271, 0.2107339
2906.199, 0.2107485
2908.128, 0.2104740
2910.056, 0.2105871
2911.985, 0.2124225
2913.913, 0.2128520
2915.842, 0.2108378
2917.770, 0.2106358
2919.698, 0.2108361
2921.627, 0.2100839
2923.555, 0.2095208
2925.484, 0.2097662
2927.412, 0.2098188
2929.341, 0.2093795
2931.269, 0.2084496
2933.198, 0.2100563
2935.126, 0.2098021
2937.055, 0.2095182
2938.983, 0.2101956
2940.912, 0.2106859
2942.840, 0.2113353
2944.769, 0.2120655
2946.697, 0.2132776
2948.625, 0.2124866
2950.554, 0.2104320
2952.482, 0.2106254
2954.411, 0.2117138
2956.339, 0.2119714
2958.268, 0.2112382
2960.196, 0.2109177
2962.125, 0.2125771
2964.053, 0.2121249
2965.982, 0.2115807
2967.910, 0.2119203
2969.839, 0.2111183
2971.767, 0.2100067
2973.696, 0.2099316
2975.624, 0.2116262
2977.552, 0.2129530
2979.481, 0.2121737
2981.409, 0.2124153
2983.338, 0.2121003
2985.266, 0.2122074
2987.195, 0.2121272
2989.123, 0.2128892
2991.052, 0.2137442
2992.980, 0.2129342
2994.909, 0.2129144
2996.837, 0.2128662
2998.766, 0.2127864
3000.694, 0.2133423
3002.623, 0.2134542
3004.551, 0.2132437
3006.479, 0.2138636
3008.408, 0.2150898
3010.336, 0.2147960
3012.265, 0.2149166
3014.193, 0.2143797
3016.122, 0.2148001
3018.050, 0.2153600
3019.979, 0.2158107
3021.907, 0.2161191
3023.836, 0.2161830
3025.764, 0.2159440
3027.693, 0.2164007
3029.621, 0.2168185
3031.550, 0.2168011
3033.478, 0.2165757
3035.406, 0.2185647
3037.335, 0.2205462
3039.263, 0.2197850
3041.192, 0.2182871
3043.120, 0.2183813
3045.049, 0.2185421
3046.977, 0.2182686
3048.906, 0.2186730
3050.834, 0.2193719
3052.763, 0.2192468
3054.691, 0.2189689
3056.620, 0.2192737
3058.548, 0.2196350
3060.477, 0.2198290
3062.405, 0.2197233
3064.333, 0.2195242
3066.262, 0.2190802
3068.190, 0.2192145
3070.119, 0.2193713
3072.047, 0.2197453
3073.976, 0.2195381
3075.904, 0.2197825
3077.833, 0.2199253
3079.761, 0.2190631
3081.690, 0.2199700
3083.618, 0.2205137
3085.547, 0.2192275
3087.475, 0.2196210
3089.404, 0.2205875
3091.332, 0.2209088
3093.260, 0.2219537
3095.189, 0.2228808
3097.117, 0.2223128
3099.046, 0.2216229
3100.974, 0.2208805
3102.903, 0.2205240
3104.831, 0.2212863
3106.760, 0.2223182
3108.688, 0.2228214
3110.617, 0.2228270
3112.545, 0.2224139
3114.474, 0.2225154
3116.402, 0.2221928
3118.331, 0.2221133
3120.259, 0.2226507
3122.188, 0.2232998
3124.116, 0.2237341
3126.044, 0.2233780
3127.973, 0.2234220
3129.901, 0.2242357
3131.830, 0.2248479
3133.758, 0.2246661
3135.687, 0.2248475
3137.615, 0.2251378
3139.544, 0.2253119
3141.472, 0.2241004
3143.401, 0.2225490
3145.329, 0.2225880
3147.258, 0.2234222
3149.186, 0.2241604
3151.115, 0.2245185
3153.043, 0.2249027
3154.971, 0.2249396
3156.900, 0.2256524
3158.828, 0.2269758
3160.757, 0.2270070
3162.685, 0.2261774
3164.614, 0.2279359
3166.542, 0.2283929
3168.471, 0.2265925
3170.399, 0.2248694
3172.328, 0.2258805
3174.256, 0.2270350
3176.185, 0.2287107
3178.113, 0.2281539
3180.042, 0.2254583
3181.970, 0.2239082
3183.898, 0.2240981
3185.827, 0.2266559
3187.755, 0.2287853
3189.684, 0.2281373
3191.612, 0.2266029
3193.541, 0.2268444
3195.469, 0.2269942
3197.398, 0.2274344
3199.326, 0.2275228
3201.255, 0.2277512
3203.183, 0.2283022
3205.112, 0.2273121
3207.040, 0.2268102
3208.969, 0.2272383
3210.897, 0.2280906
3212.825, 0.2279281
3214.754, 0.2265902
3216.682, 0.2256421
3218.611, 0.2264898
3220.539, 0.2289088
3222.468, 0.2287592
3224.396, 0.2290267
3226.325, 0.2293079
3228.253, 0.2292593
3230.182, 0.2293156
3232.110, 0.2293163
3234.039, 0.2287356
3235.967, 0.2299306
3237.896, 0.2301241
3239.824, 0.2302078
3241.752, 0.2293849
3243.681, 0.2289741
3245.609, 0.2302067
3247.538, 0.2306475
3249.466, 0.2290428
3251.395, 0.2275549
3253.323, 0.2275379
3255.252, 0.2281752
3257.180, 0.2299444
3259.109, 0.2311030
3261.037, 0.2305211
3262.966, 0.2301954
3264.894, 0.2303912
3266.823, 0.2316925
3268.751, 0.2309513
3270.679, 0.2301296
3272.608, 0.2310020
3274.536, 0.2332979
3276.465, 0.2332317
3278.393, 0.2332496
3280.322, 0.2329271
3282.250, 0.2319337
3284.179, 0.2311458
3286.107, 0.2322505
3288.036, 0.2313597
3289.964, 0.2293536
3291.893, 0.2294661
3293.821, 0.2298188
3295.750, 0.2302733
3297.678, 0.2305998
3299.606, 0.2321438
3301.535, 0.2327544
3303.463, 0.2329261
3305.392, 0.2326061
3307.320, 0.2325255
3309.249, 0.2324191
3311.177, 0.2333963
3313.106, 0.2323347
3315.034, 0.2311922
3316.963, 0.2323819
3318.891, 0.2343785
3320.820, 0.2319574
3322.748, 0.2295000
3324.677, 0.2295066
3326.605, 0.2308214
3328.533, 0.2327376
3330.462, 0.2344346
3332.390, 0.2334699
3334.319, 0.2317742
3336.247, 0.2301521
3338.176, 0.2306613
3340.104, 0.2340083
3342.033, 0.2358537
3343.961, 0.2337620
3345.890, 0.2342267
3347.818, 0.2357728
3349.747, 0.2342118
3351.675, 0.2349477
3353.604, 0.2335415
3355.532, 0.2324263
3357.460, 0.2348682
3359.389, 0.2352767
3361.317, 0.2318731
3363.246, 0.2309213
3365.174, 0.2336731
3367.103, 0.2350089
3369.031, 0.2343786
3370.960, 0.2337264
3372.888, 0.2334902
3374.817, 0.2356515
3376.745, 0.2357895
3378.674, 0.2339936
3380.602, 0.2328929
3382.531, 0.2328760
3384.459, 0.2328481
3386.387, 0.2338195
3388.316, 0.2328008
3390.244, 0.2332943
3392.173, 0.2347106
3394.101, 0.2352865
3396.030, 0.2356464
3397.958, 0.2358012
3399.887, 0.2355245
3401.815, 0.2338804
3403.744, 0.2341548
3405.672, 0.2346862
3407.601, 0.2341647
3409.529, 0.2343235
3411.458, 0.2374513
3413.386, 0.2399338
3415.314, 0.2377785
3417.243, 0.2366735
3419.171, 0.2362533
3421.100, 0.2359664
3423.028, 0.2355697
3424.957, 0.2345327
3426.885, 0.2347487
3428.814, 0.2363333
3430.742, 0.2373438
3432.671, 0.2351502
3434.599, 0.2343249
3436.528, 0.2375278
3438.456, 0.2393061
3440.385, 0.2382479
3442.313, 0.2335193
3444.241, 0.2333927
3446.170, 0.2345400
3448.098, 0.2338257
3450.027, 0.2326327
3451.955, 0.2343743
3453.884, 0.2371181
3455.812, 0.2375322
3457.741, 0.2357778
3459.669, 0.2338740
3461.598, 0.2356436
3463.526, 0.2380394
3465.455, 0.2349809
3467.383, 0.2342102
3469.312, 0.2374375
3471.240, 0.2383438
3473.168, 0.2368649
3475.097, 0.2349549
3477.025, 0.2350308
3478.954, 0.2341678
3480.882, 0.2365352
3482.811, 0.2385629
3484.739, 0.2395686
3486.668, 0.2381872
3488.596, 0.2355779
3490.525, 0.2360092
3492.453, 0.2369029
3494.382, 0.2382233
3496.310, 0.2372875
3498.239, 0.2359087
3500.167, 0.2352098
3502.095, 0.2350620
3504.024, 0.2373277
3505.952, 0.2360867
3507.881, 0.2339441
3509.809, 0.2331784
3511.738, 0.2340892
3513.666, 0.2338116
3515.595, 0.2351903
3517.523, 0.2353482
3519.452, 0.2360272
3521.380, 0.2381494
3523.309, 0.2359981
3525.237, 0.2340174
3527.166, 0.2347208
3529.094, 0.2345535
3531.022, 0.2363699
3532.951, 0.2359515
3534.879, 0.2349039
3536.808, 0.2342699
3538.736, 0.2347412
3540.665, 0.2360235
3542.593, 0.2357697
3544.522, 0.2369603
3546.450, 0.2393989
3548.379, 0.2378757
3550.307, 0.2388590
3552.236, 0.2401800
3554.164, 0.2369456
3556.093, 0.2375189
3558.021, 0.2376800
3559.949, 0.2373910
3561.878, 0.2359798
3563.806, 0.2349803
3565.735, 0.2335606
3567.663, 0.2336398
3569.592, 0.2357367
3571.520, 0.2381524
3573.449, 0.2367464
3575.377, 0.2351270
3577.306, 0.2355154
3579.234, 0.2365288
3581.163, 0.2393686
3583.091, 0.2387866
3585.020, 0.2369584
3586.948, 0.2369914
3588.876, 0.2374999
3590.805, 0.2375514
3592.733, 0.2378058
3594.662, 0.2381518
3596.590, 0.2370691
3598.519, 0.2342952
3600.447, 0.2331876
3602.376, 0.2353057
3604.304, 0.2359900
3606.233, 0.2361879
3608.161, 0.2374844
3610.090, 0.2357058
3612.018, 0.2358042
3613.947, 0.2408164
3615.875, 0.2421644
3617.803, 0.2393977
3619.732, 0.2364553
3621.660, 0.2379702
3623.589, 0.2398678
3625.517, 0.2403777
3627.446, 0.2363272
3629.374, 0.2340007
3631.303, 0.2354289
3633.231, 0.2368083
3635.160, 0.2392359
3637.088, 0.2393502
3639.017, 0.2364206
3640.945, 0.2370742
3642.874, 0.2384899
3644.802, 0.2363794
3646.730, 0.2385340
3648.659, 0.2383433
3650.587, 0.2369275
3652.516, 0.2381471
3654.444, 0.2378583
3656.373, 0.2374610
3658.301, 0.2394203
3660.230, 0.2402006
3662.158, 0.2391123
3664.087, 0.2366744
3666.015, 0.2355857
3667.944, 0.2389922
3669.872, 0.2411662
3671.801, 0.2394552
3673.729, 0.2414163
3675.657, 0.2426874
3677.586, 0.2402477
3679.514, 0.2372900
3681.443, 0.2414749
3683.371, 0.2451942
3685.300, 0.2453168
3687.228, 0.2421617
3689.157, 0.2410846
3691.085, 0.2371042
3693.014, 0.2372204
3694.942, 0.2407200
3696.871, 0.2424110
3698.799, 0.2432173
3700.728, 0.2419644
3702.656, 0.2376989
3704.584, 0.2368238
3706.513, 0.2380437
3708.441, 0.2403620
3710.370, 0.2428373
3712.298, 0.2424549
3714.227, 0.2414913
3716.155, 0.2416153
3718.084, 0.2435748
3720.012, 0.2418601
3721.941, 0.2391409
3723.869, 0.2403285
3725.798, 0.2407092
3727.726, 0.2417692
3729.655, 0.2428221
3731.583, 0.2394542
3733.511, 0.2402538
3735.440, 0.2453593
3737.368, 0.2453493
3739.297, 0.2427635
3741.225, 0.2437237
3743.154, 0.2465511
3745.082, 0.2488942
3747.011, 0.2485002
3748.939, 0.2461246
3750.868, 0.2450420
3752.796, 0.2483950
3754.725, 0.2491376
3756.653, 0.2473763
3758.582, 0.2477533
3760.510, 0.2449575
3762.438, 0.2408333
3764.367, 0.2406487
3766.295, 0.2441500
3768.224, 0.2476633
3770.152, 0.2492421
3772.081, 0.2476351
3774.009, 0.2472706
3775.938, 0.2477642
3777.866, 0.2465146
3779.795, 0.2467502
3781.723, 0.2459729
3783.652, 0.2454056
3785.580, 0.2478539
3787.509, 0.2461211
3789.437, 0.2410645
3791.365, 0.2402521
3793.294, 0.2434717
3795.222, 0.2459465
3797.151, 0.2449201
3799.079, 0.2447701
3801.008, 0.2445438
3802.936, 0.2431740
3804.865, 0.2456354
3806.793, 0.2455638
3808.722, 0.2446125
3810.650, 0.2453943
3812.579, 0.2439470
3814.507, 0.2435425
3816.436, 0.2467920
3818.364, 0.2486340
3820.292, 0.2468012
3822.221, 0.2491927
3824.149, 0.2498796
3826.078, 0.2471226
3828.006, 0.2506398
3829.935, 0.2512443
3831.863, 0.2488712
3833.792, 0.2486329
3835.720, 0.2480514
3837.649, 0.2462235
3839.577, 0.2470560
3841.506, 0.2468147
3843.434, 0.2452728
3845.363, 0.2469320
3847.291, 0.2473765
3849.219, 0.2492558
3851.148, 0.2488524
3853.076, 0.2463822
3855.005, 0.2442244
3856.933, 0.2443693
3858.862, 0.2458734
3860.790, 0.2464630
3862.719, 0.2480076
3864.647, 0.2489352
3866.576, 0.2486427
3868.504, 0.2502251
3870.433, 0.2500389
3872.361, 0.2525351
3874.290, 0.2523777
3876.218, 0.2506356
3878.146, 0.2519496
3880.075, 0.2486555
3882.003, 0.2428927
3883.932, 0.2432662
3885.860, 0.2470090
3887.789, 0.2472637
3889.717, 0.2479812
3891.646, 0.2496405
3893.574, 0.2519870
3895.503, 0.2527819
3897.431, 0.2510624
3899.360, 0.2475707
3901.288, 0.2470577
3903.217, 0.2461202
3905.145, 0.2474007
3907.073, 0.2473417
3909.002, 0.2494942
3910.930, 0.2507592
3912.859, 0.2511963
3914.787, 0.2502364
3916.716, 0.2489221
3918.644, 0.2501442
3920.573, 0.2540669
3922.501, 0.2527312
3924.430, 0.2515604
3926.358, 0.2517509
3928.287, 0.2506935
3930.215, 0.2531222
3932.144, 0.2558087
3934.072, 0.2533142
3936.000, 0.2499535
3937.929, 0.2474842
3939.857, 0.2518226
3941.786, 0.2581263
3943.714, 0.2604654
3945.643, 0.2557328
3947.571, 0.2525296
3949.500, 0.2545688
3951.428, 0.2494074
3953.357, 0.2455419
3955.285, 0.2489729
3957.214, 0.2504171
3959.142, 0.2548046
3961.071, 0.2552490
3962.999, 0.2535827
3964.927, 0.2510730
3966.856, 0.2500339
3968.784, 0.2539104
3970.713, 0.2556656
3972.641, 0.2528296
3974.570, 0.2541078
3976.498, 0.2543547
3978.427, 0.2563133
3980.355, 0.2549088
3982.284, 0.2506385
3984.212, 0.2465038
3986.141, 0.2508791
3988.069, 0.2587976
3989.998, 0.2581752
3991.926, 0.2518294
3993.854, 0.2504954
3995.783, 0.2558230
3997.711, 0.2556802
3999.640, 0.2558035
##END=



