##NAMES=Brucite
##RRUFFID=R040077
##IDEAL CHEMISTRY=Mg(OH)_2_
##LOCALITY=Gabbs, Nye County, Nevada, USA
##OWNER=RRUFF
##SOURCE=University of Arizona Mineral Museum
##DESCRIPTION=White fine-grained massive
##STATUS=The identification of this mineral has been confirmed by X-ray diffraction and chemical analysis
##URL=rruff.info/R040077
##MEASURED CHEMISTRY=Mg_1.00_(OH)_2_
3.991926e+002, 0.000000e+000
4.011211e+002, 3.187184e-001
4.030496e+002, 3.201789e-001
4.049780e+002, 3.131753e-001
4.069065e+002, 3.149332e-001
4.088350e+002, 3.041234e-001
4.107634e+002, 2.967582e-001
4.126919e+002, 2.985251e-001
4.146204e+002, 2.961909e-001
4.165488e+002, 2.974267e-001
4.184773e+002, 2.971635e-001
4.204058e+002, 2.887889e-001
4.223342e+002, 2.873873e-001
4.242627e+002, 2.839795e-001
4.261912e+002, 2.766910e-001
4.281196e+002, 2.769408e-001
4.300481e+002, 2.769623e-001
4.319766e+002, 2.705754e-001
4.339050e+002, 2.645713e-001
4.358335e+002, 2.599440e-001
4.377620e+002, 2.568735e-001
4.396904e+002, 2.542659e-001
4.416189e+002, 2.497351e-001
4.435474e+002, 2.440222e-001
4.454758e+002, 2.415699e-001
4.474043e+002, 2.390338e-001
4.493328e+002, 2.350787e-001
4.512612e+002, 2.306837e-001
4.531897e+002, 2.267787e-001
4.551182e+002, 2.216088e-001
4.570466e+002, 2.170404e-001
4.589751e+002, 2.147909e-001
4.609036e+002, 2.124698e-001
4.628320e+002, 2.081692e-001
4.647605e+002, 2.046100e-001
4.666890e+002, 2.017462e-001
4.686174e+002, 1.987813e-001
4.705459e+002, 1.957892e-001
4.724744e+002, 1.924900e-001
4.744028e+002, 1.894868e-001
4.763313e+002, 1.873462e-001
4.782598e+002, 1.845942e-001
4.801882e+002, 1.816590e-001
4.821167e+002, 1.795765e-001
4.840452e+002, 1.773787e-001
4.859736e+002, 1.750076e-001
4.879021e+002, 1.723179e-001
4.898306e+002, 1.697815e-001
4.917590e+002, 1.671029e-001
4.936875e+002, 1.647174e-001
4.956160e+002, 1.636302e-001
4.975444e+002, 1.619650e-001
4.994729e+002, 1.593912e-001
5.014014e+002, 1.569246e-001
5.033298e+002, 1.540454e-001
5.052583e+002, 1.514703e-001
5.071868e+002, 1.502565e-001
5.091152e+002, 1.479739e-001
5.110437e+002, 1.447743e-001
5.129722e+002, 1.429759e-001
5.149006e+002, 1.417808e-001
5.168291e+002, 1.401548e-001
5.187576e+002, 1.383193e-001
5.206860e+002, 1.357200e-001
5.226145e+002, 1.342157e-001
5.245430e+002, 1.325472e-001
5.264714e+002, 1.302286e-001
5.283999e+002, 1.277817e-001
5.303284e+002, 1.262395e-001
5.322568e+002, 1.241326e-001
5.341853e+002, 1.221370e-001
5.361138e+002, 1.207244e-001
5.380422e+002, 1.188340e-001
5.399707e+002, 1.164826e-001
5.418992e+002, 1.142581e-001
5.438276e+002, 1.120943e-001
5.457561e+002, 1.106081e-001
5.476846e+002, 1.095573e-001
5.496130e+002, 1.083298e-001
5.515415e+002, 1.063095e-001
5.534700e+002, 1.042327e-001
5.553984e+002, 1.028126e-001
5.573269e+002, 1.010510e-001
5.592554e+002, 9.924977e-002
5.611838e+002, 9.798599e-002
5.631123e+002, 9.677897e-002
5.650408e+002, 9.525523e-002
5.669692e+002, 9.351407e-002
5.688977e+002, 9.222883e-002
5.708262e+002, 9.111529e-002
5.727546e+002, 8.987620e-002
5.746831e+002, 8.921564e-002
5.766116e+002, 8.845250e-002
5.785400e+002, 8.754712e-002
5.804685e+002, 8.696610e-002
5.823970e+002, 8.680832e-002
5.843254e+002, 8.653089e-002
5.862539e+002, 8.545654e-002
5.881824e+002, 8.494484e-002
5.901108e+002, 8.501215e-002
5.920393e+002, 8.481766e-002
5.939678e+002, 8.451158e-002
5.958962e+002, 8.422373e-002
5.978247e+002, 8.421966e-002
5.997532e+002, 8.388160e-002
6.016816e+002, 8.330697e-002
6.036101e+002, 8.279874e-002
6.055386e+002, 8.252896e-002
6.074670e+002, 8.271910e-002
6.093955e+002, 8.290500e-002
6.113240e+002, 8.284028e-002
6.132524e+002, 8.256395e-002
6.151809e+002, 8.250994e-002
6.171094e+002, 8.236045e-002
6.190378e+002, 8.220460e-002
6.209663e+002, 8.246055e-002
6.228948e+002, 8.275916e-002
6.248232e+002, 8.282422e-002
6.267517e+002, 8.293279e-002
6.286802e+002, 8.292431e-002
6.306086e+002, 8.282136e-002
6.325371e+002, 8.286668e-002
6.344656e+002, 8.274355e-002
6.363940e+002, 8.231223e-002
6.383225e+002, 8.195740e-002
6.402510e+002, 8.126804e-002
6.421794e+002, 8.001489e-002
6.441079e+002, 7.867223e-002
6.460364e+002, 7.747721e-002
6.479648e+002, 7.636692e-002
6.498933e+002, 7.512873e-002
6.518218e+002, 7.382609e-002
6.537502e+002, 7.240652e-002
6.556787e+002, 7.131833e-002
6.576072e+002, 7.071050e-002
6.595356e+002, 6.995862e-002
6.614641e+002, 6.892709e-002
6.633926e+002, 6.796233e-002
6.653210e+002, 6.744481e-002
6.672495e+002, 6.679452e-002
6.691780e+002, 6.591114e-002
6.711064e+002, 6.549150e-002
6.730349e+002, 6.518907e-002
6.749634e+002, 6.451614e-002
6.768918e+002, 6.378426e-002
6.788203e+002, 6.318004e-002
6.807488e+002, 6.270188e-002
6.826772e+002, 6.211353e-002
6.846057e+002, 6.121785e-002
6.865342e+002, 6.011192e-002
6.884626e+002, 5.923497e-002
6.903911e+002, 5.826817e-002
6.923196e+002, 5.722585e-002
6.942480e+002, 5.599284e-002
6.961765e+002, 5.466716e-002
6.981050e+002, 5.352489e-002
7.000334e+002, 5.271549e-002
7.019619e+002, 5.185991e-002
7.038904e+002, 5.106090e-002
7.058188e+002, 5.025056e-002
7.077473e+002, 4.934170e-002
7.096758e+002, 4.859916e-002
7.116042e+002, 4.794784e-002
7.135327e+002, 4.688707e-002
7.154612e+002, 4.548633e-002
7.173896e+002, 4.429350e-002
7.193181e+002, 4.303118e-002
7.212466e+002, 4.180369e-002
7.231750e+002, 4.077001e-002
7.251035e+002, 3.949489e-002
7.270320e+002, 3.793551e-002
7.289604e+002, 3.667418e-002
7.308889e+002, 3.569999e-002
7.328174e+002, 3.489119e-002
7.347458e+002, 3.399393e-002
7.366743e+002, 3.294693e-002
7.386028e+002, 3.208857e-002
7.405313e+002, 3.144541e-002
7.424597e+002, 3.094844e-002
7.443882e+002, 3.022674e-002
7.463167e+002, 2.921451e-002
7.482451e+002, 2.839521e-002
7.501736e+002, 2.783540e-002
7.521021e+002, 2.726220e-002
7.540305e+002, 2.642009e-002
7.559590e+002, 2.545333e-002
7.578875e+002, 2.473601e-002
7.598159e+002, 2.440022e-002
7.617444e+002, 2.381711e-002
7.636729e+002, 2.308520e-002
7.656013e+002, 2.268684e-002
7.675298e+002, 2.237952e-002
7.694583e+002, 2.182538e-002
7.713867e+002, 2.142202e-002
7.733152e+002, 2.101720e-002
7.752437e+002, 2.049625e-002
7.771721e+002, 2.032007e-002
7.791006e+002, 2.022630e-002
7.810291e+002, 1.993175e-002
7.829575e+002, 1.958340e-002
7.848860e+002, 1.927522e-002
7.868145e+002, 1.900086e-002
7.887429e+002, 1.890969e-002
7.906714e+002, 1.857427e-002
7.925999e+002, 1.821469e-002
7.945283e+002, 1.781454e-002
7.964568e+002, 1.751708e-002
7.983853e+002, 1.763664e-002
8.003137e+002, 1.756288e-002
8.022422e+002, 1.701370e-002
8.041707e+002, 1.680018e-002
8.060991e+002, 1.701660e-002
8.080276e+002, 1.700865e-002
8.099561e+002, 1.667941e-002
8.118845e+002, 1.610948e-002
8.138130e+002, 1.580769e-002
8.157415e+002, 1.574351e-002
8.176699e+002, 1.541464e-002
8.195984e+002, 1.517443e-002
8.215269e+002, 1.489765e-002
8.234553e+002, 1.463349e-002
8.253838e+002, 1.449687e-002
8.273123e+002, 1.413535e-002
8.292407e+002, 1.410551e-002
8.311692e+002, 1.380383e-002
8.330977e+002, 1.342784e-002
8.350261e+002, 1.315633e-002
8.369546e+002, 1.296043e-002
8.388831e+002, 1.288882e-002
8.408115e+002, 1.283521e-002
8.427400e+002, 1.257879e-002
8.446685e+002, 1.262399e-002
8.465969e+002, 1.291607e-002
8.485254e+002, 1.283137e-002
8.504539e+002, 1.250843e-002
8.523823e+002, 1.236191e-002
8.543108e+002, 1.234172e-002
8.562393e+002, 1.248551e-002
8.581677e+002, 1.264291e-002
8.600962e+002, 1.269390e-002
8.620247e+002, 1.296570e-002
8.639531e+002, 1.328474e-002
8.658816e+002, 1.350696e-002
8.678101e+002, 1.375406e-002
8.697385e+002, 1.458283e-002
8.716670e+002, 1.543883e-002
8.735955e+002, 1.589893e-002
8.755239e+002, 1.583387e-002
8.774524e+002, 1.534351e-002
8.793809e+002, 1.472157e-002
8.813093e+002, 1.381019e-002
8.832378e+002, 1.296502e-002
8.851663e+002, 1.186529e-002
8.870947e+002, 1.057537e-002
8.890232e+002, 9.843417e-003
8.909517e+002, 9.767080e-003
8.928801e+002, 9.855939e-003
8.948085e+002, 9.648611e-003
8.967370e+002, 9.479612e-003
8.986655e+002, 9.569103e-003
9.005939e+002, 9.620609e-003
9.025224e+002, 9.662991e-003
9.044509e+002, 9.735514e-003
9.063793e+002, 9.820150e-003
9.083078e+002, 9.860752e-003
9.102363e+002, 9.966944e-003
9.121647e+002, 1.010595e-002
9.140932e+002, 1.035842e-002
9.160217e+002, 1.053301e-002
9.179501e+002, 1.077323e-002
9.198786e+002, 1.101844e-002
9.218071e+002, 1.135916e-002
9.237355e+002, 1.173999e-002
9.256640e+002, 1.217142e-002
9.275925e+002, 1.242214e-002
9.295209e+002, 1.269271e-002
9.314494e+002, 1.329464e-002
9.333779e+002, 1.386063e-002
9.353063e+002, 1.419721e-002
9.372348e+002, 1.445500e-002
9.391633e+002, 1.469111e-002
9.410917e+002, 1.487521e-002
9.430202e+002, 1.531065e-002
9.449487e+002, 1.604967e-002
9.468771e+002, 1.651800e-002
9.488056e+002, 1.669828e-002
9.507341e+002, 1.696026e-002
9.526625e+002, 1.727981e-002
9.545910e+002, 1.749716e-002
9.565195e+002, 1.762884e-002
9.584479e+002, 1.776889e-002
9.603764e+002, 1.796493e-002
9.623049e+002, 1.810760e-002
9.642333e+002, 1.813056e-002
9.661618e+002, 1.802596e-002
9.680903e+002, 1.797464e-002
9.700187e+002, 1.788244e-002
9.719472e+002, 1.762856e-002
9.738757e+002, 1.727509e-002
9.758041e+002, 1.680064e-002
9.777326e+002, 1.661311e-002
9.796611e+002, 1.655672e-002
9.815895e+002, 1.634332e-002
9.835180e+002, 1.607875e-002
9.854465e+002, 1.583334e-002
9.873749e+002, 1.563783e-002
9.893034e+002, 1.536836e-002
9.912319e+002, 1.531389e-002
9.931603e+002, 1.524994e-002
9.950888e+002, 1.503632e-002
9.970173e+002, 1.487616e-002
9.989457e+002, 1.482641e-002
1.000874e+003, 1.484620e-002
1.002803e+003, 1.484134e-002
1.004731e+003, 1.475080e-002
1.006660e+003, 1.461007e-002
1.008588e+003, 1.441397e-002
1.010517e+003, 1.446352e-002
1.012445e+003, 1.457592e-002
1.014373e+003, 1.438855e-002
1.016302e+003, 1.403111e-002
1.018230e+003, 1.367797e-002
1.020159e+003, 1.333856e-002
1.022087e+003, 1.321740e-002
1.024016e+003, 1.321992e-002
1.025944e+003, 1.300658e-002
1.027873e+003, 1.259552e-002
1.029801e+003, 1.221533e-002
1.031730e+003, 1.187593e-002
1.033658e+003, 1.176108e-002
1.035587e+003, 1.174423e-002
1.037515e+003, 1.170959e-002
1.039444e+003, 1.165149e-002
1.041372e+003, 1.161201e-002
1.043301e+003, 1.182277e-002
1.045229e+003, 1.201207e-002
1.047157e+003, 1.208556e-002
1.049086e+003, 1.213400e-002
1.051014e+003, 1.218701e-002
1.052943e+003, 1.227984e-002
1.054871e+003, 1.244908e-002
1.056800e+003, 1.236763e-002
1.058728e+003, 1.231526e-002
1.060657e+003, 1.235186e-002
1.062585e+003, 1.235293e-002
1.064514e+003, 1.233026e-002
1.066442e+003, 1.241268e-002
1.068371e+003, 1.262449e-002
1.070299e+003, 1.264215e-002
1.072228e+003, 1.266604e-002
1.074156e+003, 1.285122e-002
1.076084e+003, 1.288245e-002
1.078013e+003, 1.274468e-002
1.079941e+003, 1.271554e-002
1.081870e+003, 1.273403e-002
1.083798e+003, 1.279704e-002
1.085727e+003, 1.275976e-002
1.087655e+003, 1.250533e-002
1.089584e+003, 1.213958e-002
1.091512e+003, 1.195897e-002
1.093441e+003, 1.162180e-002
1.095369e+003, 1.129096e-002
1.097298e+003, 1.104852e-002
1.099226e+003, 1.071376e-002
1.101155e+003, 1.040961e-002
1.103083e+003, 1.002796e-002
1.105011e+003, 9.468346e-003
1.106940e+003, 9.099652e-003
1.108868e+003, 8.942523e-003
1.110797e+003, 8.844529e-003
1.112725e+003, 8.718801e-003
1.114654e+003, 8.740325e-003
1.116582e+003, 8.608715e-003
1.118511e+003, 8.441683e-003
1.120439e+003, 8.323527e-003
1.122368e+003, 8.172235e-003
1.124296e+003, 8.114095e-003
1.126225e+003, 8.249461e-003
1.128153e+003, 8.416112e-003
1.130082e+003, 8.659932e-003
1.132010e+003, 8.605136e-003
1.133938e+003, 8.546671e-003
1.135867e+003, 8.581099e-003
1.137795e+003, 8.625878e-003
1.139724e+003, 8.653888e-003
1.141652e+003, 8.750010e-003
1.143581e+003, 8.803029e-003
1.145509e+003, 8.691223e-003
1.147438e+003, 8.695115e-003
1.149366e+003, 8.944071e-003
1.151295e+003, 9.134515e-003
1.153223e+003, 9.356677e-003
1.155152e+003, 9.345432e-003
1.157080e+003, 9.465978e-003
1.159009e+003, 9.591084e-003
1.160937e+003, 9.549975e-003
1.162865e+003, 9.513081e-003
1.164794e+003, 9.529388e-003
1.166722e+003, 9.391882e-003
1.168651e+003, 9.227689e-003
1.170579e+003, 9.406050e-003
1.172508e+003, 9.550952e-003
1.174436e+003, 9.739389e-003
1.176365e+003, 9.974558e-003
1.178293e+003, 1.015255e-002
1.180222e+003, 1.038351e-002
1.182150e+003, 1.048792e-002
1.184079e+003, 1.037969e-002
1.186007e+003, 1.062045e-002
1.187936e+003, 1.088158e-002
1.189864e+003, 1.077352e-002
1.191792e+003, 1.084745e-002
1.193721e+003, 1.089604e-002
1.195649e+003, 1.079477e-002
1.197578e+003, 1.102214e-002
1.199506e+003, 1.109549e-002
1.201435e+003, 1.105296e-002
1.203363e+003, 1.113486e-002
1.205292e+003, 1.130639e-002
1.207220e+003, 1.141778e-002
1.209149e+003, 1.156458e-002
1.211077e+003, 1.169074e-002
1.213006e+003, 1.177808e-002
1.214934e+003, 1.189073e-002
1.216863e+003, 1.188092e-002
1.218791e+003, 1.188828e-002
1.220719e+003, 1.180693e-002
1.222648e+003, 1.168287e-002
1.224576e+003, 1.163175e-002
1.226505e+003, 1.164951e-002
1.228433e+003, 1.160581e-002
1.230362e+003, 1.164113e-002
1.232290e+003, 1.143693e-002
1.234219e+003, 1.126578e-002
1.236147e+003, 1.138305e-002
1.238076e+003, 1.136181e-002
1.240004e+003, 1.126308e-002
1.241933e+003, 1.119297e-002
1.243861e+003, 1.111868e-002
1.245790e+003, 1.098738e-002
1.247718e+003, 1.089202e-002
1.249646e+003, 1.088343e-002
1.251575e+003, 1.109042e-002
1.253503e+003, 1.117277e-002
1.255432e+003, 1.106940e-002
1.257360e+003, 1.102375e-002
1.259289e+003, 1.098681e-002
1.261217e+003, 1.091672e-002
1.263146e+003, 1.102096e-002
1.265074e+003, 1.108301e-002
1.267003e+003, 1.113878e-002
1.268931e+003, 1.120033e-002
1.270860e+003, 1.105580e-002
1.272788e+003, 1.103293e-002
1.274717e+003, 1.122674e-002
1.276645e+003, 1.129054e-002
1.278573e+003, 1.133039e-002
1.280502e+003, 1.150176e-002
1.282430e+003, 1.173093e-002
1.284359e+003, 1.164372e-002
1.286287e+003, 1.155208e-002
1.288216e+003, 1.176035e-002
1.290144e+003, 1.206313e-002
1.292073e+003, 1.215173e-002
1.294001e+003, 1.224613e-002
1.295930e+003, 1.228476e-002
1.297858e+003, 1.228165e-002
1.299787e+003, 1.246993e-002
1.301715e+003, 1.261709e-002
1.303644e+003, 1.266574e-002
1.305572e+003, 1.278634e-002
1.307500e+003, 1.283378e-002
1.309429e+003, 1.289564e-002
1.311357e+003, 1.292123e-002
1.313286e+003, 1.291344e-002
1.315214e+003, 1.301128e-002
1.317143e+003, 1.304520e-002
1.319071e+003, 1.319736e-002
1.321000e+003, 1.335410e-002
1.322928e+003, 1.331139e-002
1.324857e+003, 1.326746e-002
1.326785e+003, 1.346154e-002
1.328714e+003, 1.366792e-002
1.330642e+003, 1.399783e-002
1.332571e+003, 1.430487e-002
1.334499e+003, 1.430859e-002
1.336427e+003, 1.429882e-002
1.338356e+003, 1.467233e-002
1.340284e+003, 1.497977e-002
1.342213e+003, 1.515432e-002
1.344141e+003, 1.523540e-002
1.346070e+003, 1.562161e-002
1.347998e+003, 1.604808e-002
1.349927e+003, 1.626132e-002
1.351855e+003, 1.660251e-002
1.353784e+003, 1.686934e-002
1.355712e+003, 1.695635e-002
1.357641e+003, 1.741943e-002
1.359569e+003, 1.788074e-002
1.361498e+003, 1.819160e-002
1.363426e+003, 1.870457e-002
1.365354e+003, 1.928311e-002
1.367283e+003, 1.971688e-002
1.369211e+003, 2.030641e-002
1.371140e+003, 2.089241e-002
1.373068e+003, 2.152715e-002
1.374997e+003, 2.209001e-002
1.376925e+003, 2.252688e-002
1.378854e+003, 2.304265e-002
1.380782e+003, 2.370526e-002
1.382711e+003, 2.447871e-002
1.384639e+003, 2.521026e-002
1.386568e+003, 2.575791e-002
1.388496e+003, 2.644677e-002
1.390424e+003, 2.713433e-002
1.392353e+003, 2.768395e-002
1.394281e+003, 2.840336e-002
1.396210e+003, 2.927071e-002
1.398138e+003, 2.987670e-002
1.400067e+003, 3.019984e-002
1.401995e+003, 3.062169e-002
1.403924e+003, 3.120539e-002
1.405852e+003, 3.163763e-002
1.407781e+003, 3.214050e-002
1.409709e+003, 3.285707e-002
1.411638e+003, 3.337862e-002
1.413566e+003, 3.371809e-002
1.415495e+003, 3.389860e-002
1.417423e+003, 3.397557e-002
1.419351e+003, 3.416023e-002
1.421280e+003, 3.453628e-002
1.423208e+003, 3.482268e-002
1.425137e+003, 3.485020e-002
1.427065e+003, 3.496735e-002
1.428994e+003, 3.519459e-002
1.430922e+003, 3.510397e-002
1.432851e+003, 3.477860e-002
1.434779e+003, 3.443252e-002
1.436708e+003, 3.427700e-002
1.438636e+003, 3.434125e-002
1.440565e+003, 3.448766e-002
1.442493e+003, 3.429595e-002
1.444422e+003, 3.389110e-002
1.446350e+003, 3.359187e-002
1.448278e+003, 3.336650e-002
1.450207e+003, 3.302986e-002
1.452135e+003, 3.245917e-002
1.454064e+003, 3.204898e-002
1.455992e+003, 3.164516e-002
1.457921e+003, 3.130914e-002
1.459849e+003, 3.098165e-002
1.461778e+003, 3.065578e-002
1.463706e+003, 3.021176e-002
1.465635e+003, 2.972704e-002
1.467563e+003, 2.943272e-002
1.469492e+003, 2.918689e-002
1.471420e+003, 2.879521e-002
1.473349e+003, 2.827757e-002
1.475277e+003, 2.791141e-002
1.477205e+003, 2.764531e-002
1.479134e+003, 2.731479e-002
1.481062e+003, 2.689679e-002
1.482991e+003, 2.648949e-002
1.484919e+003, 2.606199e-002
1.486848e+003, 2.576162e-002
1.488776e+003, 2.543671e-002
1.490705e+003, 2.515774e-002
1.492633e+003, 2.503658e-002
1.494562e+003, 2.472648e-002
1.496490e+003, 2.433234e-002
1.498419e+003, 2.396514e-002
1.500347e+003, 2.355623e-002
1.502276e+003, 2.318898e-002
1.504204e+003, 2.276868e-002
1.506132e+003, 2.233861e-002
1.508061e+003, 2.209014e-002
1.509989e+003, 2.191754e-002
1.511918e+003, 2.146031e-002
1.513846e+003, 2.100810e-002
1.515775e+003, 2.080131e-002
1.517703e+003, 2.060283e-002
1.519632e+003, 1.998280e-002
1.521560e+003, 1.929444e-002
1.523489e+003, 1.905565e-002
1.525417e+003, 1.887375e-002
1.527346e+003, 1.869703e-002
1.529274e+003, 1.841337e-002
1.531203e+003, 1.808840e-002
1.533131e+003, 1.790117e-002
1.535059e+003, 1.766073e-002
1.536988e+003, 1.717586e-002
1.538916e+003, 1.685011e-002
1.540845e+003, 1.661887e-002
1.542773e+003, 1.622921e-002
1.544702e+003, 1.599817e-002
1.546630e+003, 1.587347e-002
1.548559e+003, 1.559482e-002
1.550487e+003, 1.525691e-002
1.552416e+003, 1.505999e-002
1.554344e+003, 1.487740e-002
1.556273e+003, 1.474854e-002
1.558201e+003, 1.438911e-002
1.560130e+003, 1.421353e-002
1.562058e+003, 1.421668e-002
1.563986e+003, 1.411090e-002
1.565915e+003, 1.404525e-002
1.567843e+003, 1.378440e-002
1.569772e+003, 1.339306e-002
1.571700e+003, 1.310787e-002
1.573629e+003, 1.309112e-002
1.575557e+003, 1.317412e-002
1.577486e+003, 1.324200e-002
1.579414e+003, 1.283224e-002
1.581343e+003, 1.249678e-002
1.583271e+003, 1.267013e-002
1.585200e+003, 1.280136e-002
1.587128e+003, 1.266669e-002
1.589057e+003, 1.255462e-002
1.590985e+003, 1.258587e-002
1.592913e+003, 1.234468e-002
1.594842e+003, 1.202522e-002
1.596770e+003, 1.214508e-002
1.598699e+003, 1.213319e-002
1.600627e+003, 1.190813e-002
1.602556e+003, 1.187869e-002
1.604484e+003, 1.188672e-002
1.606413e+003, 1.172096e-002
1.608341e+003, 1.170030e-002
1.610270e+003, 1.193922e-002
1.612198e+003, 1.196483e-002
1.614127e+003, 1.150088e-002
1.616055e+003, 1.113463e-002
1.617984e+003, 1.134225e-002
1.619912e+003, 1.159659e-002
1.621840e+003, 1.146811e-002
1.623769e+003, 1.147077e-002
1.625697e+003, 1.142943e-002
1.627626e+003, 1.126725e-002
1.629554e+003, 1.117095e-002
1.631483e+003, 1.112690e-002
1.633411e+003, 1.099164e-002
1.635340e+003, 1.096209e-002
1.637268e+003, 1.093933e-002
1.639197e+003, 1.099160e-002
1.641125e+003, 1.088930e-002
1.643054e+003, 1.051719e-002
1.644982e+003, 1.020685e-002
1.646911e+003, 1.020776e-002
1.648839e+003, 1.007803e-002
1.650767e+003, 9.520295e-003
1.652696e+003, 9.137479e-003
1.654624e+003, 9.269604e-003
1.656553e+003, 9.059432e-003
1.658481e+003, 8.779002e-003
1.660410e+003, 8.748734e-003
1.662338e+003, 8.380496e-003
1.664267e+003, 8.333440e-003
1.666195e+003, 8.289382e-003
1.668124e+003, 7.796871e-003
1.670052e+003, 7.308692e-003
1.671981e+003, 7.071400e-003
1.673909e+003, 6.933515e-003
1.675838e+003, 6.916570e-003
1.677766e+003, 6.918197e-003
1.679694e+003, 6.824188e-003
1.681623e+003, 6.630204e-003
1.683551e+003, 6.327826e-003
1.685480e+003, 6.138399e-003
1.687408e+003, 5.992761e-003
1.689337e+003, 5.596335e-003
1.691265e+003, 5.460899e-003
1.693194e+003, 5.465102e-003
1.695122e+003, 5.335091e-003
1.697051e+003, 5.181748e-003
1.698979e+003, 5.346855e-003
1.700908e+003, 5.597370e-003
1.702836e+003, 5.550739e-003
1.704765e+003, 5.283965e-003
1.706693e+003, 5.095419e-003
1.708621e+003, 5.061114e-003
1.710550e+003, 5.130469e-003
1.712478e+003, 4.908270e-003
1.714407e+003, 4.807686e-003
1.716335e+003, 4.976024e-003
1.718264e+003, 4.607797e-003
1.720192e+003, 4.715126e-003
1.722121e+003, 4.884154e-003
1.724049e+003, 4.732504e-003
1.725978e+003, 4.354492e-003
1.727906e+003, 4.030446e-003
1.729835e+003, 4.225377e-003
1.731763e+003, 4.311005e-003
1.733692e+003, 4.055469e-003
1.735620e+003, 4.045248e-003
1.737548e+003, 4.202171e-003
1.739477e+003, 3.880320e-003
1.741405e+003, 3.559335e-003
1.743334e+003, 3.598111e-003
1.745262e+003, 3.250014e-003
1.747191e+003, 3.099151e-003
1.749119e+003, 3.356699e-003
1.751048e+003, 3.526402e-003
1.752976e+003, 3.624486e-003
1.754905e+003, 3.680717e-003
1.756833e+003, 3.828740e-003
1.758762e+003, 4.096150e-003
1.760690e+003, 4.201835e-003
1.762619e+003, 4.165872e-003
1.764547e+003, 4.189192e-003
1.766475e+003, 4.117630e-003
1.768404e+003, 4.436136e-003
1.770332e+003, 4.622664e-003
1.772261e+003, 4.362972e-003
1.774189e+003, 4.262147e-003
1.776118e+003, 4.322655e-003
1.778046e+003, 4.232157e-003
1.779975e+003, 4.312135e-003
1.781903e+003, 4.257388e-003
1.783832e+003, 4.222781e-003
1.785760e+003, 4.340880e-003
1.787689e+003, 4.152188e-003
1.789617e+003, 4.225539e-003
1.791546e+003, 4.388167e-003
1.793474e+003, 4.491515e-003
1.795402e+003, 4.679587e-003
1.797331e+003, 4.291099e-003
1.799259e+003, 4.002751e-003
1.801188e+003, 4.085101e-003
1.803116e+003, 4.111588e-003
1.805045e+003, 3.941954e-003
1.806973e+003, 3.700158e-003
1.808902e+003, 3.607108e-003
1.810830e+003, 3.391888e-003
1.812759e+003, 3.451855e-003
1.814687e+003, 3.444184e-003
1.816616e+003, 3.529838e-003
1.818544e+003, 3.825328e-003
1.820473e+003, 3.880191e-003
1.822401e+003, 4.026380e-003
1.824329e+003, 3.816148e-003
1.826258e+003, 3.484867e-003
1.828186e+003, 3.400522e-003
1.830115e+003, 3.169749e-003
1.832043e+003, 3.189921e-003
1.833972e+003, 3.803337e-003
1.835900e+003, 4.035796e-003
1.837829e+003, 3.812091e-003
1.839757e+003, 3.434412e-003
1.841686e+003, 3.094647e-003
1.843614e+003, 3.249752e-003
1.845543e+003, 4.054772e-003
1.847471e+003, 4.108855e-003
1.849400e+003, 3.976612e-003
1.851328e+003, 3.949453e-003
1.853256e+003, 3.845408e-003
1.855185e+003, 3.909890e-003
1.857113e+003, 3.904566e-003
1.859042e+003, 3.715472e-003
1.860970e+003, 3.905942e-003
1.862899e+003, 3.454427e-003
1.864827e+003, 3.438156e-003
1.866756e+003, 3.963178e-003
1.868684e+003, 3.859335e-003
1.870613e+003, 3.407835e-003
1.872541e+003, 3.376031e-003
1.874470e+003, 3.863888e-003
1.876398e+003, 4.196654e-003
1.878327e+003, 4.271046e-003
1.880255e+003, 4.041870e-003
1.882183e+003, 4.203167e-003
1.884112e+003, 4.454258e-003
1.886040e+003, 4.279078e-003
1.887969e+003, 4.006503e-003
1.889897e+003, 4.094933e-003
1.891826e+003, 3.768257e-003
1.893754e+003, 3.755089e-003
1.895683e+003, 4.392755e-003
1.897611e+003, 4.130581e-003
1.899540e+003, 3.392363e-003
1.901468e+003, 3.638091e-003
1.903397e+003, 4.046041e-003
1.905325e+003, 4.617389e-003
1.907254e+003, 5.270150e-003
1.909182e+003, 4.987333e-003
1.911110e+003, 4.756894e-003
1.913039e+003, 4.915616e-003
1.914967e+003, 4.841182e-003
1.916896e+003, 4.062423e-003
1.918824e+003, 4.383415e-003
1.920753e+003, 5.454849e-003
1.922681e+003, 5.283432e-003
1.924610e+003, 4.578616e-003
1.926538e+003, 3.690996e-003
1.928467e+003, 3.643549e-003
1.930395e+003, 4.286715e-003
1.932324e+003, 3.984155e-003
1.934252e+003, 3.744053e-003
1.936181e+003, 4.139946e-003
1.938109e+003, 4.394320e-003
1.940037e+003, 3.506790e-003
1.941966e+003, 3.009994e-003
1.943894e+003, 3.531180e-003
1.945823e+003, 4.721445e-003
1.947751e+003, 5.235555e-003
1.949680e+003, 4.902995e-003
1.951608e+003, 5.015960e-003
1.953537e+003, 5.440102e-003
1.955465e+003, 4.601559e-003
1.957394e+003, 3.973156e-003
1.959322e+003, 3.735910e-003
1.961251e+003, 3.995238e-003
1.963179e+003, 5.116758e-003
1.965108e+003, 5.630525e-003
1.967036e+003, 5.883374e-003
1.968964e+003, 5.605805e-003
1.970893e+003, 4.788971e-003
1.972821e+003, 4.998260e-003
1.974750e+003, 6.283494e-003
1.976678e+003, 7.445758e-003
1.978607e+003, 8.227448e-003
1.980535e+003, 7.441639e-003
1.982464e+003, 6.731544e-003
1.984392e+003, 5.298967e-003
1.986321e+003, 4.517639e-003
1.988249e+003, 4.843222e-003
1.990178e+003, 5.345298e-003
1.992106e+003, 4.270292e-003
1.994035e+003, 5.820506e-003
1.995963e+003, 6.931367e-003
1.997891e+003, 5.810590e-003
1.999820e+003, 4.776980e-003
2.001748e+003, 4.749584e-003
2.003677e+003, 6.186902e-003
2.005605e+003, 7.419668e-003
2.007534e+003, 8.172812e-003
2.009462e+003, 7.155721e-003
2.011391e+003, 5.615387e-003
2.013319e+003, 4.664281e-003
2.015248e+003, 4.275322e-003
2.017176e+003, 4.214274e-003
2.019105e+003, 4.657602e-003
2.021033e+003, 5.576373e-003
2.022962e+003, 5.046055e-003
2.024890e+003, 5.649967e-003
2.026818e+003, 5.888508e-003
2.028747e+003, 4.590218e-003
2.030675e+003, 3.789064e-003
2.032604e+003, 3.589912e-003
2.034532e+003, 3.976999e-003
2.036461e+003, 5.296584e-003
2.038389e+003, 6.897758e-003
2.040318e+003, 7.065581e-003
2.042246e+003, 5.838582e-003
2.044175e+003, 6.734917e-003
2.046103e+003, 6.108448e-003
2.048032e+003, 5.848388e-003
2.049960e+003, 6.836277e-003
2.051889e+003, 5.280290e-003
2.053817e+003, 3.901866e-003
2.055746e+003, 5.201915e-003
2.057674e+003, 5.317977e-003
2.059603e+003, 5.070712e-003
2.061531e+003, 5.219193e-003
2.063459e+003, 6.081524e-003
2.065388e+003, 6.639704e-003
2.067316e+003, 6.460713e-003
2.069245e+003, 6.703996e-003
2.071173e+003, 5.961628e-003
2.073102e+003, 4.951492e-003
2.075030e+003, 4.433879e-003
2.076959e+003, 3.822224e-003
2.078887e+003, 4.383509e-003
2.080816e+003, 5.143980e-003
2.082744e+003, 5.895304e-003
2.084673e+003, 5.974751e-003
2.086601e+003, 5.710711e-003
2.088530e+003, 5.706458e-003
2.090458e+003, 5.674863e-003
2.092386e+003, 5.154650e-003
2.094315e+003, 5.234017e-003
2.096243e+003, 5.584573e-003
2.098172e+003, 5.346398e-003
2.100100e+003, 4.938722e-003
2.102029e+003, 4.382094e-003
2.103957e+003, 3.761709e-003
2.105886e+003, 4.068249e-003
2.107814e+003, 5.245480e-003
2.109743e+003, 5.938572e-003
2.111671e+003, 4.821148e-003
2.113600e+003, 4.238241e-003
2.115528e+003, 4.971762e-003
2.117457e+003, 5.179626e-003
2.119385e+003, 4.658937e-003
2.121313e+003, 4.411934e-003
2.123242e+003, 4.206663e-003
2.125170e+003, 4.256757e-003
2.127099e+003, 4.380229e-003
2.129027e+003, 3.643530e-003
2.130956e+003, 2.805226e-003
2.132884e+003, 2.804655e-003
2.134813e+003, 3.295255e-003
2.136741e+003, 3.952291e-003
2.138670e+003, 4.318673e-003
2.140598e+003, 3.218373e-003
2.142527e+003, 3.547108e-003
2.144455e+003, 4.904937e-003
2.146384e+003, 5.312031e-003
2.148312e+003, 5.821158e-003
2.150240e+003, 5.041898e-003
2.152169e+003, 4.199423e-003
2.154097e+003, 3.497395e-003
2.156026e+003, 4.041573e-003
2.157954e+003, 6.072561e-003
2.159883e+003, 6.798089e-003
2.161811e+003, 8.142234e-003
2.163740e+003, 7.664080e-003
2.165668e+003, 9.726491e-003
2.167597e+003, 1.088317e-002
2.169525e+003, 8.788605e-003
2.171454e+003, 6.407788e-003
2.173382e+003, 5.269399e-003
2.175311e+003, 6.050388e-003
2.177239e+003, 6.657632e-003
2.179167e+003, 6.342770e-003
2.181096e+003, 5.979593e-003
2.183024e+003, 7.004591e-003
2.184953e+003, 7.436528e-003
2.186881e+003, 7.598158e-003
2.188810e+003, 7.274769e-003
2.190738e+003, 7.179081e-003
2.192667e+003, 7.294927e-003
2.194595e+003, 8.924847e-003
2.196524e+003, 9.344780e-003
2.198452e+003, 7.052768e-003
2.200381e+003, 6.149435e-003
2.202309e+003, 6.583918e-003
2.204238e+003, 6.308987e-003
2.206166e+003, 6.209302e-003
2.208094e+003, 6.810432e-003
2.210023e+003, 5.906216e-003
2.211951e+003, 4.663538e-003
2.213880e+003, 4.353842e-003
2.215808e+003, 4.881890e-003
2.217737e+003, 6.015643e-003
2.219665e+003, 8.043468e-003
2.221594e+003, 8.888753e-003
2.223522e+003, 7.112795e-003
2.225451e+003, 5.577498e-003
2.227379e+003, 5.375813e-003
2.229308e+003, 5.610765e-003
2.231236e+003, 6.585542e-003
2.233165e+003, 7.507947e-003
2.235093e+003, 6.246277e-003
2.237021e+003, 4.518304e-003
2.238950e+003, 4.245694e-003
2.240878e+003, 4.232732e-003
2.242807e+003, 5.230390e-003
2.244735e+003, 6.934158e-003
2.246664e+003, 5.409370e-003
2.248592e+003, 4.672820e-003
2.250521e+003, 6.132784e-003
2.252449e+003, 6.815171e-003
2.254378e+003, 7.075062e-003
2.256306e+003, 6.343496e-003
2.258235e+003, 6.816216e-003
2.260163e+003, 7.441502e-003
2.262092e+003, 6.352406e-003
2.264020e+003, 5.781493e-003
2.265948e+003, 6.000988e-003
2.267877e+003, 6.367937e-003
2.269805e+003, 6.487860e-003
2.271734e+003, 6.499880e-003
2.273662e+003, 6.684341e-003
2.275591e+003, 6.417943e-003
2.277519e+003, 5.922910e-003
2.279448e+003, 6.521605e-003
2.281376e+003, 6.703910e-003
2.283305e+003, 6.725771e-003
2.285233e+003, 6.618238e-003
2.287162e+003, 6.444272e-003
2.289090e+003, 6.798786e-003
2.291019e+003, 6.464814e-003
2.292947e+003, 6.268935e-003
2.294875e+003, 6.382102e-003
2.296804e+003, 6.213422e-003
2.298732e+003, 5.393276e-003
2.300661e+003, 5.483430e-003
2.302589e+003, 5.572767e-003
2.304518e+003, 5.477846e-003
2.306446e+003, 5.653845e-003
2.308375e+003, 5.868443e-003
2.310303e+003, 6.361655e-003
2.312232e+003, 6.623187e-003
2.314160e+003, 6.753811e-003
2.316089e+003, 6.922566e-003
2.318017e+003, 6.870597e-003
2.319946e+003, 6.289710e-003
2.321874e+003, 6.636595e-003
2.323802e+003, 7.030170e-003
2.325731e+003, 6.086713e-003
2.327659e+003, 5.802283e-003
2.329588e+003, 5.747850e-003
2.331516e+003, 5.206800e-003
2.333445e+003, 5.219849e-003
2.335373e+003, 5.170280e-003
2.337302e+003, 4.727749e-003
2.339230e+003, 5.018780e-003
2.341159e+003, 5.415583e-003
2.343087e+003, 4.820530e-003
2.345016e+003, 4.330127e-003
2.346944e+003, 4.749246e-003
2.348873e+003, 5.194998e-003
2.350801e+003, 5.225476e-003
2.352729e+003, 5.616842e-003
2.354658e+003, 5.446976e-003
2.356586e+003, 4.842446e-003
2.358515e+003, 4.133161e-003
2.360443e+003, 4.244362e-003
2.362372e+003, 4.348850e-003
2.364300e+003, 4.147235e-003
2.366229e+003, 4.245754e-003
2.368157e+003, 4.795688e-003
2.370086e+003, 4.979752e-003
2.372014e+003, 5.199738e-003
2.373942e+003, 5.088478e-003
2.375871e+003, 4.316963e-003
2.377799e+003, 4.453037e-003
2.379728e+003, 4.885429e-003
2.381656e+003, 4.606646e-003
2.383585e+003, 4.351631e-003
2.385513e+003, 4.442362e-003
2.387442e+003, 4.919947e-003
2.389370e+003, 4.785788e-003
2.391299e+003, 4.154886e-003
2.393227e+003, 4.205907e-003
2.395156e+003, 4.756626e-003
2.397084e+003, 4.915668e-003
2.399012e+003, 4.669039e-003
2.400941e+003, 4.767262e-003
2.402869e+003, 5.015903e-003
2.404798e+003, 4.900539e-003
2.406726e+003, 5.185576e-003
2.408655e+003, 5.149552e-003
2.410583e+003, 4.686304e-003
2.412512e+003, 4.470550e-003
2.414440e+003, 4.433636e-003
2.416369e+003, 4.650919e-003
2.418297e+003, 4.623488e-003
2.420226e+003, 4.574019e-003
2.422154e+003, 4.860396e-003
2.424083e+003, 5.236813e-003
2.426011e+003, 5.545509e-003
2.427939e+003, 5.547334e-003
2.429868e+003, 5.303457e-003
2.431796e+003, 5.241511e-003
2.433725e+003, 5.463047e-003
2.435653e+003, 5.207739e-003
2.437582e+003, 5.051737e-003
2.439510e+003, 5.412754e-003
2.441439e+003, 5.698246e-003
2.443367e+003, 6.138554e-003
2.445296e+003, 5.809249e-003
2.447224e+003, 5.409755e-003
2.449153e+003, 5.721570e-003
2.451081e+003, 5.611118e-003
2.453010e+003, 5.228470e-003
2.454938e+003, 4.456876e-003
2.456866e+003, 4.718410e-003
2.458795e+003, 5.271107e-003
2.460723e+003, 5.341126e-003
2.462652e+003, 5.458165e-003
2.464580e+003, 5.485261e-003
2.466509e+003, 5.640801e-003
2.468437e+003, 5.599337e-003
2.470366e+003, 5.815286e-003
2.472294e+003, 5.953679e-003
2.474223e+003, 5.527180e-003
2.476151e+003, 5.647616e-003
2.478080e+003, 5.735883e-003
2.480008e+003, 5.616771e-003
2.481937e+003, 6.076903e-003
2.483865e+003, 6.768980e-003
2.485793e+003, 6.630362e-003
2.487722e+003, 6.169171e-003
2.489650e+003, 5.339229e-003
2.491579e+003, 5.209221e-003
2.493507e+003, 5.832016e-003
2.495436e+003, 6.617917e-003
2.497364e+003, 6.824533e-003
2.499293e+003, 6.284596e-003
2.501221e+003, 5.913903e-003
2.503150e+003, 5.812312e-003
2.505078e+003, 5.480210e-003
2.507007e+003, 5.774926e-003
2.508935e+003, 6.065486e-003
2.510864e+003, 6.550806e-003
2.512792e+003, 6.769036e-003
2.514720e+003, 6.447801e-003
2.516649e+003, 6.314857e-003
2.518577e+003, 5.886092e-003
2.520506e+003, 6.195696e-003
2.522434e+003, 7.236225e-003
2.524363e+003, 6.230672e-003
2.526291e+003, 5.581181e-003
2.528220e+003, 6.007951e-003
2.530148e+003, 6.091779e-003
2.532077e+003, 6.150252e-003
2.534005e+003, 5.882843e-003
2.535934e+003, 6.029510e-003
2.537862e+003, 5.618601e-003
2.539791e+003, 5.787912e-003
2.541719e+003, 5.755230e-003
2.543647e+003, 5.741131e-003
2.545576e+003, 6.409646e-003
2.547504e+003, 6.909761e-003
2.549433e+003, 7.150226e-003
2.551361e+003, 6.738625e-003
2.553290e+003, 6.377180e-003
2.555218e+003, 5.890599e-003
2.557147e+003, 6.123271e-003
2.559075e+003, 7.039384e-003
2.561004e+003, 7.364037e-003
2.562932e+003, 6.754857e-003
2.564861e+003, 6.771230e-003
2.566789e+003, 7.114028e-003
2.568718e+003, 6.192855e-003
2.570646e+003, 5.945293e-003
2.572574e+003, 6.797014e-003
2.574503e+003, 7.046829e-003
2.576431e+003, 6.140735e-003
2.578360e+003, 6.352896e-003
2.580288e+003, 6.452925e-003
2.582217e+003, 6.474532e-003
2.584145e+003, 6.720707e-003
2.586074e+003, 6.515755e-003
2.588002e+003, 7.044716e-003
2.589931e+003, 7.068709e-003
2.591859e+003, 6.823814e-003
2.593788e+003, 6.692545e-003
2.595716e+003, 7.589558e-003
2.597645e+003, 8.221271e-003
2.599573e+003, 7.469994e-003
2.601501e+003, 6.664948e-003
2.603430e+003, 6.258920e-003
2.605358e+003, 6.006034e-003
2.607287e+003, 6.269329e-003
2.609215e+003, 7.271992e-003
2.611144e+003, 7.423231e-003
2.613072e+003, 6.417338e-003
2.615001e+003, 5.963650e-003
2.616929e+003, 6.439375e-003
2.618858e+003, 7.238714e-003
2.620786e+003, 7.392276e-003
2.622715e+003, 7.177757e-003
2.624643e+003, 7.271433e-003
2.626572e+003, 6.881393e-003
2.628500e+003, 6.626683e-003
2.630428e+003, 7.032775e-003
2.632357e+003, 6.739676e-003
2.634285e+003, 6.590272e-003
2.636214e+003, 7.439077e-003
2.638142e+003, 7.636255e-003
2.640071e+003, 7.305403e-003
2.641999e+003, 6.969050e-003
2.643928e+003, 6.469656e-003
2.645856e+003, 6.827004e-003
2.647785e+003, 7.142068e-003
2.649713e+003, 6.907003e-003
2.651642e+003, 6.441543e-003
2.653570e+003, 6.716380e-003
2.655499e+003, 7.213181e-003
2.657427e+003, 6.723847e-003
2.659355e+003, 6.099620e-003
2.661284e+003, 6.354768e-003
2.663212e+003, 5.889820e-003
2.665141e+003, 5.308073e-003
2.667069e+003, 5.485314e-003
2.668998e+003, 5.687716e-003
2.670926e+003, 6.096912e-003
2.672855e+003, 5.964931e-003
2.674783e+003, 5.571546e-003
2.676712e+003, 5.813090e-003
2.678640e+003, 5.938244e-003
2.680569e+003, 5.494722e-003
2.682497e+003, 5.200264e-003
2.684426e+003, 5.306668e-003
2.686354e+003, 5.559001e-003
2.688282e+003, 5.846478e-003
2.690211e+003, 6.207643e-003
2.692139e+003, 6.050239e-003
2.694068e+003, 5.487891e-003
2.695996e+003, 5.808866e-003
2.697925e+003, 5.916972e-003
2.699853e+003, 5.211571e-003
2.701782e+003, 5.435804e-003
2.703710e+003, 6.138043e-003
2.705639e+003, 6.405244e-003
2.707567e+003, 6.211922e-003
2.709496e+003, 5.764176e-003
2.711424e+003, 5.744178e-003
2.713353e+003, 6.280883e-003
2.715281e+003, 6.562976e-003
2.717209e+003, 6.550258e-003
2.719138e+003, 6.308326e-003
2.721066e+003, 6.142496e-003
2.722995e+003, 5.900369e-003
2.724923e+003, 6.357797e-003
2.726852e+003, 6.478582e-003
2.728780e+003, 6.498531e-003
2.730709e+003, 6.800755e-003
2.732637e+003, 6.706123e-003
2.734566e+003, 6.610628e-003
2.736494e+003, 6.596421e-003
2.738423e+003, 6.833488e-003
2.740351e+003, 6.908625e-003
2.742280e+003, 6.754933e-003
2.744208e+003, 6.663492e-003
2.746136e+003, 6.431577e-003
2.748065e+003, 6.143637e-003
2.749993e+003, 6.069554e-003
2.751922e+003, 5.959258e-003
2.753850e+003, 5.874489e-003
2.755779e+003, 6.177694e-003
2.757707e+003, 6.206728e-003
2.759636e+003, 6.189288e-003
2.761564e+003, 6.348609e-003
2.763493e+003, 6.996945e-003
2.765421e+003, 7.271357e-003
2.767350e+003, 6.347725e-003
2.769278e+003, 6.023345e-003
2.771207e+003, 6.575186e-003
2.773135e+003, 6.468533e-003
2.775063e+003, 6.662286e-003
2.776992e+003, 6.908340e-003
2.778920e+003, 6.676553e-003
2.780849e+003, 6.946300e-003
2.782777e+003, 7.447278e-003
2.784706e+003, 7.220643e-003
2.786634e+003, 6.952127e-003
2.788563e+003, 7.004709e-003
2.790491e+003, 6.871090e-003
2.792420e+003, 7.341469e-003
2.794348e+003, 7.266808e-003
2.796277e+003, 6.833820e-003
2.798205e+003, 6.977752e-003
2.800134e+003, 7.269544e-003
2.802062e+003, 6.796618e-003
2.803990e+003, 6.553363e-003
2.805919e+003, 6.847306e-003
2.807847e+003, 6.623280e-003
2.809776e+003, 7.158984e-003
2.811704e+003, 6.982019e-003
2.813633e+003, 6.512932e-003
2.815561e+003, 6.360685e-003
2.817490e+003, 6.372084e-003
2.819418e+003, 6.461720e-003
2.821347e+003, 6.957280e-003
2.823275e+003, 7.293719e-003
2.825204e+003, 7.251243e-003
2.827132e+003, 6.546089e-003
2.829061e+003, 6.651494e-003
2.830989e+003, 7.953043e-003
2.832917e+003, 8.277554e-003
2.834846e+003, 7.219035e-003
2.836774e+003, 6.378320e-003
2.838703e+003, 5.910013e-003
2.840631e+003, 6.271578e-003
2.842560e+003, 6.399291e-003
2.844488e+003, 6.450440e-003
2.846417e+003, 6.641792e-003
2.848345e+003, 6.502171e-003
2.850274e+003, 6.205652e-003
2.852202e+003, 6.263331e-003
2.854131e+003, 6.434108e-003
2.856059e+003, 6.950060e-003
2.857988e+003, 6.980374e-003
2.859916e+003, 7.310091e-003
2.861844e+003, 7.196275e-003
2.863773e+003, 6.840032e-003
2.865701e+003, 6.583634e-003
2.867630e+003, 6.464756e-003
2.869558e+003, 7.404098e-003
2.871487e+003, 7.732915e-003
2.873415e+003, 7.087598e-003
2.875344e+003, 7.333167e-003
2.877272e+003, 7.023581e-003
2.879201e+003, 6.800171e-003
2.881129e+003, 7.319413e-003
2.883058e+003, 7.821292e-003
2.884986e+003, 8.070012e-003
2.886915e+003, 7.606351e-003
2.888843e+003, 7.826306e-003
2.890771e+003, 8.242004e-003
2.892700e+003, 7.761728e-003
2.894628e+003, 6.854381e-003
2.896557e+003, 6.842161e-003
2.898485e+003, 7.232551e-003
2.900414e+003, 7.485124e-003
2.902342e+003, 7.454505e-003
2.904271e+003, 6.653935e-003
2.906199e+003, 6.586045e-003
2.908128e+003, 6.779124e-003
2.910056e+003, 6.606231e-003
2.911985e+003, 7.235401e-003
2.913913e+003, 6.751561e-003
2.915842e+003, 5.590307e-003
2.917770e+003, 5.404665e-003
2.919698e+003, 5.735991e-003
2.921627e+003, 6.034472e-003
2.923555e+003, 6.222917e-003
2.925484e+003, 5.975340e-003
2.927412e+003, 5.957940e-003
2.929341e+003, 6.411995e-003
2.931269e+003, 6.845123e-003
2.933198e+003, 6.489214e-003
2.935126e+003, 6.979104e-003
2.937055e+003, 7.568886e-003
2.938983e+003, 7.772344e-003
2.940912e+003, 7.378190e-003
2.942840e+003, 7.702010e-003
2.944769e+003, 8.643686e-003
2.946697e+003, 7.811325e-003
2.948625e+003, 7.389008e-003
2.950554e+003, 7.829131e-003
2.952482e+003, 8.593065e-003
2.954411e+003, 8.328186e-003
2.956339e+003, 7.721498e-003
2.958268e+003, 8.087313e-003
2.960196e+003, 8.840390e-003
2.962125e+003, 9.913420e-003
2.964053e+003, 1.064406e-002
2.965982e+003, 9.745309e-003
2.967910e+003, 9.532487e-003
2.969839e+003, 9.338844e-003
2.971767e+003, 9.255254e-003
2.973696e+003, 9.913343e-003
2.975624e+003, 1.065541e-002
2.977552e+003, 1.012228e-002
2.979481e+003, 9.596128e-003
2.981409e+003, 9.740985e-003
2.983338e+003, 1.000776e-002
2.985266e+003, 1.010944e-002
2.987195e+003, 1.010639e-002
2.989123e+003, 1.106124e-002
2.991052e+003, 1.129450e-002
2.992980e+003, 1.044685e-002
2.994909e+003, 1.038046e-002
2.996837e+003, 1.040446e-002
2.998766e+003, 9.865302e-003
3.000694e+003, 9.906013e-003
3.002623e+003, 1.073940e-002
3.004551e+003, 1.071107e-002
3.006479e+003, 1.046828e-002
3.008408e+003, 9.464717e-003
3.010336e+003, 9.327422e-003
3.012265e+003, 1.056752e-002
3.014193e+003, 1.072855e-002
3.016122e+003, 1.073108e-002
3.018050e+003, 1.091178e-002
3.019979e+003, 1.072171e-002
3.021907e+003, 1.048670e-002
3.023836e+003, 9.851918e-003
3.025764e+003, 9.561970e-003
3.027693e+003, 9.432157e-003
3.029621e+003, 1.001653e-002
3.031550e+003, 1.107801e-002
3.033478e+003, 1.082793e-002
3.035406e+003, 1.087771e-002
3.037335e+003, 1.145179e-002
3.039263e+003, 1.135149e-002
3.041192e+003, 1.131764e-002
3.043120e+003, 1.122546e-002
3.045049e+003, 1.074037e-002
3.046977e+003, 1.015828e-002
3.048906e+003, 1.021480e-002
3.050834e+003, 1.122630e-002
3.052763e+003, 1.152315e-002
3.054691e+003, 1.194001e-002
3.056620e+003, 1.209666e-002
3.058548e+003, 1.107268e-002
3.060477e+003, 1.150983e-002
3.062405e+003, 1.218562e-002
3.064333e+003, 1.232221e-002
3.066262e+003, 1.153928e-002
3.068190e+003, 1.148307e-002
3.070119e+003, 1.142431e-002
3.072047e+003, 1.132390e-002
3.073976e+003, 1.129619e-002
3.075904e+003, 1.188219e-002
3.077833e+003, 1.207208e-002
3.079761e+003, 1.218695e-002
3.081690e+003, 1.260343e-002
3.083618e+003, 1.280266e-002
3.085547e+003, 1.223524e-002
3.087475e+003, 1.150286e-002
3.089404e+003, 1.156477e-002
3.091332e+003, 1.210914e-002
3.093260e+003, 1.215651e-002
3.095189e+003, 1.232482e-002
3.097117e+003, 1.293757e-002
3.099046e+003, 1.334319e-002
3.100974e+003, 1.345984e-002
3.102903e+003, 1.343218e-002
3.104831e+003, 1.274536e-002
3.106760e+003, 1.205648e-002
3.108688e+003, 1.239918e-002
3.110617e+003, 1.234436e-002
3.112545e+003, 1.154856e-002
3.114474e+003, 1.184759e-002
3.116402e+003, 1.272554e-002
3.118331e+003, 1.285963e-002
3.120259e+003, 1.258111e-002
3.122188e+003, 1.243958e-002
3.124116e+003, 1.220857e-002
3.126044e+003, 1.263612e-002
3.127973e+003, 1.303492e-002
3.129901e+003, 1.337450e-002
3.131830e+003, 1.324306e-002
3.133758e+003, 1.359696e-002
3.135687e+003, 1.436973e-002
3.137615e+003, 1.407528e-002
3.139544e+003, 1.383044e-002
3.141472e+003, 1.422837e-002
3.143401e+003, 1.446204e-002
3.145329e+003, 1.406978e-002
3.147258e+003, 1.368315e-002
3.149186e+003, 1.388052e-002
3.151115e+003, 1.431648e-002
3.153043e+003, 1.406598e-002
3.154971e+003, 1.296236e-002
3.156900e+003, 1.306839e-002
3.158828e+003, 1.320107e-002
3.160757e+003, 1.346209e-002
3.162685e+003, 1.372707e-002
3.164614e+003, 1.356917e-002
3.166542e+003, 1.351260e-002
3.168471e+003, 1.388358e-002
3.170399e+003, 1.471339e-002
3.172328e+003, 1.512666e-002
3.174256e+003, 1.536004e-002
3.176185e+003, 1.551294e-002
3.178113e+003, 1.458647e-002
3.180042e+003, 1.441229e-002
3.181970e+003, 1.492964e-002
3.183898e+003, 1.475101e-002
3.185827e+003, 1.430796e-002
3.187755e+003, 1.396747e-002
3.189684e+003, 1.440976e-002
3.191612e+003, 1.528419e-002
3.193541e+003, 1.613045e-002
3.195469e+003, 1.628106e-002
3.197398e+003, 1.606291e-002
3.199326e+003, 1.567854e-002
3.201255e+003, 1.478749e-002
3.203183e+003, 1.454252e-002
3.205112e+003, 1.529227e-002
3.207040e+003, 1.505010e-002
3.208969e+003, 1.557129e-002
3.210897e+003, 1.623504e-002
3.212825e+003, 1.626052e-002
3.214754e+003, 1.662618e-002
3.216682e+003, 1.636082e-002
3.218611e+003, 1.570146e-002
3.220539e+003, 1.630130e-002
3.222468e+003, 1.728224e-002
3.224396e+003, 1.734278e-002
3.226325e+003, 1.782957e-002
3.228253e+003, 1.847165e-002
3.230182e+003, 1.686284e-002
3.232110e+003, 1.518544e-002
3.234039e+003, 1.566828e-002
3.235967e+003, 1.666855e-002
3.237896e+003, 1.739020e-002
3.239824e+003, 1.773079e-002
3.241752e+003, 1.722487e-002
3.243681e+003, 1.735633e-002
3.245609e+003, 1.814292e-002
3.247538e+003, 1.841696e-002
3.249466e+003, 1.766724e-002
3.251395e+003, 1.847148e-002
3.253323e+003, 2.001952e-002
3.255252e+003, 1.956454e-002
3.257180e+003, 1.867681e-002
3.259109e+003, 1.859661e-002
3.261037e+003, 1.853492e-002
3.262966e+003, 1.864141e-002
3.264894e+003, 1.868400e-002
3.266823e+003, 1.833281e-002
3.268751e+003, 1.818401e-002
3.270679e+003, 1.774805e-002
3.272608e+003, 1.815242e-002
3.274536e+003, 1.959753e-002
3.276465e+003, 1.945884e-002
3.278393e+003, 1.885704e-002
3.280322e+003, 1.939757e-002
3.282250e+003, 1.890215e-002
3.284179e+003, 1.835980e-002
3.286107e+003, 1.755321e-002
3.288036e+003, 1.752800e-002
3.289964e+003, 1.834037e-002
3.291893e+003, 1.814232e-002
3.293821e+003, 1.776713e-002
3.295750e+003, 1.802501e-002
3.297678e+003, 1.756802e-002
3.299606e+003, 1.783388e-002
3.301535e+003, 1.732536e-002
3.303463e+003, 1.731177e-002
3.305392e+003, 1.720915e-002
3.307320e+003, 1.762717e-002
3.309249e+003, 1.795252e-002
3.311177e+003, 1.787833e-002
3.313106e+003, 1.783518e-002
3.315034e+003, 1.816222e-002
3.316963e+003, 1.725673e-002
3.318891e+003, 1.752155e-002
3.320820e+003, 1.782536e-002
3.322748e+003, 1.841579e-002
3.324677e+003, 1.868491e-002
3.326605e+003, 1.800608e-002
3.328533e+003, 1.692388e-002
3.330462e+003, 1.652287e-002
3.332390e+003, 1.646643e-002
3.334319e+003, 1.670584e-002
3.336247e+003, 1.763279e-002
3.338176e+003, 1.857134e-002
3.340104e+003, 1.805608e-002
3.342033e+003, 1.750107e-002
3.343961e+003, 1.754358e-002
3.345890e+003, 1.745260e-002
3.347818e+003, 1.812846e-002
3.349747e+003, 1.810721e-002
3.351675e+003, 1.671649e-002
3.353604e+003, 1.694934e-002
3.355532e+003, 1.708043e-002
3.357460e+003, 1.652193e-002
3.359389e+003, 1.604241e-002
3.361317e+003, 1.678498e-002
3.363246e+003, 1.810999e-002
3.365174e+003, 1.905850e-002
3.367103e+003, 1.901980e-002
3.369031e+003, 1.857714e-002
3.370960e+003, 1.926041e-002
3.372888e+003, 1.938512e-002
3.374817e+003, 1.846722e-002
3.376745e+003, 1.727893e-002
3.378674e+003, 1.700972e-002
3.380602e+003, 1.849997e-002
3.382531e+003, 1.902664e-002
3.384459e+003, 1.836056e-002
3.386387e+003, 1.839802e-002
3.388316e+003, 1.808830e-002
3.390244e+003, 1.875255e-002
3.392173e+003, 2.009558e-002
3.394101e+003, 1.995797e-002
3.396030e+003, 1.768822e-002
3.397958e+003, 1.794714e-002
3.399887e+003, 1.845235e-002
3.401815e+003, 1.766997e-002
3.403744e+003, 1.718379e-002
3.405672e+003, 1.720295e-002
3.407601e+003, 1.743354e-002
3.409529e+003, 1.942365e-002
3.411458e+003, 2.038786e-002
3.413386e+003, 1.909549e-002
3.415314e+003, 1.964813e-002
3.417243e+003, 1.986600e-002
3.419171e+003, 1.938100e-002
3.421100e+003, 1.883041e-002
3.423028e+003, 1.723583e-002
3.424957e+003, 1.696106e-002
3.426885e+003, 1.887464e-002
3.428814e+003, 1.906777e-002
3.430742e+003, 1.657649e-002
3.432671e+003, 1.615625e-002
3.434599e+003, 1.817598e-002
3.436528e+003, 1.841468e-002
3.438456e+003, 1.702628e-002
3.440385e+003, 1.800357e-002
3.442313e+003, 2.018999e-002
3.444241e+003, 2.057212e-002
3.446170e+003, 1.928111e-002
3.448098e+003, 1.926863e-002
3.450027e+003, 2.040174e-002
3.451955e+003, 2.072259e-002
3.453884e+003, 2.037595e-002
3.455812e+003, 2.054619e-002
3.457741e+003, 2.045282e-002
3.459669e+003, 2.070503e-002
3.461598e+003, 2.032145e-002
3.463526e+003, 2.044523e-002
3.465455e+003, 2.036573e-002
3.467383e+003, 2.119653e-002
3.469312e+003, 2.206076e-002
3.471240e+003, 2.082816e-002
3.473168e+003, 2.079219e-002
3.475097e+003, 2.171165e-002
3.477025e+003, 2.190619e-002
3.478954e+003, 2.262321e-002
3.480882e+003, 2.275294e-002
3.482811e+003, 2.204148e-002
3.484739e+003, 2.157185e-002
3.486668e+003, 2.136501e-002
3.488596e+003, 2.038402e-002
3.490525e+003, 2.038415e-002
3.492453e+003, 2.060007e-002
3.494382e+003, 2.095020e-002
3.496310e+003, 2.168895e-002
3.498239e+003, 2.258737e-002
3.500167e+003, 2.224551e-002
3.502095e+003, 2.155721e-002
3.504024e+003, 2.149466e-002
3.505952e+003, 2.124290e-002
3.507881e+003, 2.184693e-002
3.509809e+003, 2.290308e-002
3.511738e+003, 2.190068e-002
3.513666e+003, 2.111726e-002
3.515595e+003, 2.224663e-002
3.517523e+003, 2.181699e-002
3.519452e+003, 2.098680e-002
3.521380e+003, 2.227977e-002
3.523309e+003, 2.407992e-002
3.525237e+003, 2.320359e-002
3.527166e+003, 2.295457e-002
3.529094e+003, 2.302163e-002
3.531022e+003, 2.289454e-002
3.532951e+003, 2.424345e-002
3.534879e+003, 2.419489e-002
3.536808e+003, 2.287870e-002
3.538736e+003, 2.332943e-002
3.540665e+003, 2.496861e-002
3.542593e+003, 2.514670e-002
3.544522e+003, 2.486906e-002
3.546450e+003, 2.453660e-002
3.548379e+003, 2.349396e-002
3.550307e+003, 2.545695e-002
3.552236e+003, 2.727452e-002
3.554164e+003, 2.856046e-002
3.556093e+003, 2.766070e-002
3.558021e+003, 2.755104e-002
3.559949e+003, 2.838791e-002
3.561878e+003, 2.800486e-002
3.563806e+003, 2.892026e-002
3.565735e+003, 3.056457e-002
3.567663e+003, 2.907339e-002
3.569592e+003, 2.904018e-002
3.571520e+003, 3.027295e-002
3.573449e+003, 3.000043e-002
3.575377e+003, 2.986787e-002
3.577306e+003, 3.094591e-002
3.579234e+003, 3.157205e-002
3.581163e+003, 3.208720e-002
3.583091e+003, 3.070187e-002
3.585020e+003, 2.943331e-002
3.586948e+003, 2.927056e-002
3.588876e+003, 2.972915e-002
3.590805e+003, 2.988764e-002
3.592733e+003, 2.957043e-002
3.594662e+003, 2.901234e-002
3.596590e+003, 2.990453e-002
3.598519e+003, 3.288258e-002
3.600447e+003, 3.486531e-002
3.602376e+003, 3.385280e-002
3.604304e+003, 3.150780e-002
3.606233e+003, 3.253407e-002
3.608161e+003, 3.312922e-002
3.610090e+003, 3.235933e-002
3.612018e+003, 3.117288e-002
3.613947e+003, 3.404284e-002
3.615875e+003, 3.637996e-002
3.617803e+003, 3.694776e-002
3.619732e+003, 3.707822e-002
3.621660e+003, 3.751826e-002
3.623589e+003, 3.869803e-002
3.625517e+003, 4.152801e-002
3.627446e+003, 4.169006e-002
3.629374e+003, 4.325461e-002
3.631303e+003, 4.532527e-002
3.633231e+003, 4.993898e-002
3.635160e+003, 5.224087e-002
3.637088e+003, 5.120449e-002
3.639017e+003, 5.289812e-002
3.640945e+003, 5.567956e-002
3.642874e+003, 6.044953e-002
3.644802e+003, 6.323485e-002
3.646730e+003, 6.675361e-002
3.648659e+003, 7.079557e-002
3.650587e+003, 7.268574e-002
3.652516e+003, 7.583256e-002
3.654444e+003, 7.975022e-002
3.656373e+003, 8.579075e-002
3.658301e+003, 9.277677e-002
3.660230e+003, 1.016753e-001
3.662158e+003, 1.125005e-001
3.664087e+003, 1.277388e-001
3.666015e+003, 1.471902e-001
3.667944e+003, 1.702033e-001
3.669872e+003, 1.997137e-001
3.671801e+003, 2.316853e-001
3.673729e+003, 2.681296e-001
3.675657e+003, 3.126646e-001
3.677586e+003, 3.541703e-001
3.679514e+003, 3.959392e-001
3.681443e+003, 4.404064e-001
3.683371e+003, 4.843077e-001
3.685300e+003, 5.230086e-001
3.687228e+003, 5.525656e-001
3.689157e+003, 5.692893e-001
3.691085e+003, 5.673707e-001
3.693014e+003, 5.462249e-001
3.694942e+003, 5.025889e-001
3.696871e+003, 4.379559e-001
3.698799e+003, 3.451128e-001
3.700728e+003, 2.349220e-001
3.702656e+003, 1.438436e-001
3.704584e+003, 8.558830e-002
3.706513e+003, 5.313091e-002
3.708441e+003, 3.688712e-002
3.710370e+003, 3.182540e-002
3.712298e+003, 2.984320e-002
3.714227e+003, 2.554076e-002
3.716155e+003, 2.079310e-002
3.718084e+003, 1.561169e-002
3.720012e+003, 1.363639e-002
3.721941e+003, 1.269423e-002
3.723869e+003, 1.114467e-002
3.725798e+003, 1.049056e-002
3.727726e+003, 9.834874e-003
3.729655e+003, 8.566475e-003
3.731583e+003, 7.885416e-003
3.733511e+003, 8.020555e-003
3.735440e+003, 9.350570e-003
3.737368e+003, 1.041176e-002
3.739297e+003, 7.659667e-003
3.741225e+003, 6.156259e-003
3.743154e+003, 6.460726e-003
3.745082e+003, 1.252646e-002
3.747011e+003, 1.040373e-002
3.748939e+003, 8.097280e-003
3.750868e+003, 8.172228e-003
3.752796e+003, 9.887401e-003
3.754725e+003, 8.487419e-003
3.756653e+003, 1.026168e-002
3.758582e+003, 7.912599e-003
3.760510e+003, 6.095479e-003
3.762438e+003, 6.472698e-003
3.764367e+003, 9.638749e-003
3.766295e+003, 9.115273e-003
3.768224e+003, 6.944479e-003
3.770152e+003, 8.294385e-003
3.772081e+003, 8.083582e-003
3.774009e+003, 9.137155e-003
3.775938e+003, 1.054606e-002
3.777866e+003, 1.013759e-002
3.779795e+003, 9.063084e-003
3.781723e+003, 8.394848e-003
3.783652e+003, 8.581703e-003
3.785580e+003, 7.289692e-003
3.787509e+003, 9.622637e-003
3.789437e+003, 1.041652e-002
3.791365e+003, 9.313244e-003
3.793294e+003, 9.779620e-003
3.795222e+003, 9.778445e-003
3.797151e+003, 1.194635e-002
3.799079e+003, 1.168455e-002
3.801008e+003, 1.161817e-002
3.802936e+003, 1.194151e-002
3.804865e+003, 9.337112e-003
3.806793e+003, 9.947958e-003
3.808722e+003, 1.097385e-002
3.810650e+003, 8.841868e-003
3.812579e+003, 9.045049e-003
3.814507e+003, 1.047046e-002
3.816436e+003, 1.125022e-002
3.818364e+003, 9.360185e-003
3.820292e+003, 8.700022e-003
3.822221e+003, 9.119703e-003
3.824149e+003, 9.072956e-003
3.826078e+003, 1.054525e-002
3.828006e+003, 9.246040e-003
3.829935e+003, 8.977123e-003
3.831863e+003, 9.421271e-003
3.833792e+003, 9.270196e-003
3.835720e+003, 1.154283e-002
3.837649e+003, 1.077541e-002
3.839577e+003, 9.748291e-003
3.841506e+003, 1.055182e-002
3.843434e+003, 9.881882e-003
3.845363e+003, 1.009846e-002
3.847291e+003, 9.414827e-003
3.849219e+003, 9.283879e-003
3.851148e+003, 1.049454e-002
3.853076e+003, 1.167751e-002
3.855005e+003, 1.146429e-002
3.856933e+003, 8.451791e-003
3.858862e+003, 9.832038e-003
3.860790e+003, 1.127187e-002
3.862719e+003, 1.139293e-002
3.864647e+003, 1.050850e-002
3.866576e+003, 1.053008e-002
3.868504e+003, 1.129063e-002
3.870433e+003, 1.268293e-002
3.872361e+003, 8.214626e-003
3.874290e+003, 7.820020e-003
3.876218e+003, 7.519858e-003
3.878146e+003, 8.027175e-003
3.880075e+003, 8.738597e-003
3.882003e+003, 8.914489e-003
3.883932e+003, 1.064636e-002
3.885860e+003, 1.216815e-002
3.887789e+003, 1.149437e-002
3.889717e+003, 1.154509e-002
3.891646e+003, 1.176535e-002
3.893574e+003, 9.728299e-003
3.895503e+003, 8.073326e-003
3.897431e+003, 9.398848e-003
3.899360e+003, 1.023696e-002
3.901288e+003, 1.119261e-002
3.903217e+003, 9.091668e-003
3.905145e+003, 9.038684e-003
3.907073e+003, 8.575800e-003
3.909002e+003, 8.535765e-003
3.910930e+003, 9.099916e-003
3.912859e+003, 8.149725e-003
3.914787e+003, 9.328384e-003
3.916716e+003, 1.180441e-002
3.918644e+003, 1.248028e-002
3.920573e+003, 1.229122e-002
3.922501e+003, 9.906282e-003
3.924430e+003, 8.943102e-003
3.926358e+003, 1.097450e-002
3.928287e+003, 1.124656e-002
3.930215e+003, 9.916898e-003
3.932144e+003, 1.043547e-002
3.934072e+003, 1.170201e-002
3.936000e+003, 1.255657e-002
3.937929e+003, 1.331421e-002
3.939857e+003, 1.184119e-002
3.941786e+003, 1.198656e-002
3.943714e+003, 1.242544e-002
3.945643e+003, 1.178134e-002
3.947571e+003, 1.322176e-002
3.949500e+003, 1.363324e-002
3.951428e+003, 1.270381e-002
3.953357e+003, 1.293124e-002
3.955285e+003, 1.381736e-002
3.957214e+003, 1.383672e-002
3.959142e+003, 1.431868e-002
3.961071e+003, 1.440908e-002
3.962999e+003, 1.330879e-002
3.964927e+003, 1.227216e-002
3.966856e+003, 1.281652e-002
3.968784e+003, 1.401472e-002
3.970713e+003, 1.485259e-002
3.972641e+003, 1.349332e-002
3.974570e+003, 1.300840e-002
3.976498e+003, 1.380149e-002
3.978427e+003, 1.299595e-002
3.980355e+003, 1.312099e-002
3.982284e+003, 1.358290e-002
3.984212e+003, 1.445719e-002
3.986141e+003, 1.660271e-002
3.988069e+003, 1.599189e-002
3.989998e+003, 1.476064e-002
3.991926e+003, 1.279074e-002
3.993854e+003, 1.317381e-002
3.995783e+003, 1.322847e-002
3.997711e+003, 1.288667e-002
3.999640e+003, 1.288885e-002
##END=



