##NAMES=Celestine
##RRUFFID=R050008
##IDEAL CHEMISTRY=SrS^6+^O_4_
##LOCALITY=Scofield Quarry, Maybee, Monroe County, Michigan, USA
##OWNER=RRUFF
##SOURCE=Eugene Schlepp
##DESCRIPTION=Pale blue tabular crystals
##STATUS=The identification of this mineral has been confirmed by X-ray diffraction and chemical analysis
##URL=rruff.info/R050008
##MEASURED CHEMISTRY=Sr_1.00_S_1.00_O_4_
3.991926e+002, 0.000000e+000
4.011211e+002, 3.110907e-003
4.030496e+002, 3.145868e-003
4.049780e+002, 5.348324e-003
4.069065e+002, 5.227821e-003
4.088350e+002, 3.569678e-003
4.107634e+002, 2.078417e-003
4.126919e+002, 3.716066e-003
4.146204e+002, 5.105122e-003
4.165488e+002, 5.151963e-003
4.184773e+002, 6.516968e-003
4.204058e+002, 6.796096e-003
4.223342e+002, 6.390488e-003
4.242627e+002, 5.764977e-003
4.261912e+002, 6.290040e-003
4.281196e+002, 6.746863e-003
4.300481e+002, 6.690046e-003
4.319766e+002, 5.836772e-003
4.339050e+002, 6.351972e-003
4.358335e+002, 6.723498e-003
4.377620e+002, 6.699203e-003
4.396904e+002, 7.357014e-003
4.416189e+002, 7.406341e-003
4.435474e+002, 6.761902e-003
4.454758e+002, 6.777866e-003
4.474043e+002, 7.017085e-003
4.493328e+002, 6.959141e-003
4.512612e+002, 7.706647e-003
4.531897e+002, 9.117731e-003
4.551182e+002, 9.285468e-003
4.570466e+002, 8.842594e-003
4.589751e+002, 8.657631e-003
4.609036e+002, 9.050725e-003
4.628320e+002, 9.238100e-003
4.647605e+002, 1.003094e-002
4.666890e+002, 1.093777e-002
4.686174e+002, 1.173777e-002
4.705459e+002, 1.196702e-002
4.724744e+002, 1.163202e-002
4.744028e+002, 1.141256e-002
4.763313e+002, 1.209487e-002
4.782598e+002, 1.276563e-002
4.801882e+002, 1.190340e-002
4.821167e+002, 1.068877e-002
4.840452e+002, 1.051720e-002
4.859736e+002, 1.031918e-002
4.879021e+002, 1.061996e-002
4.898306e+002, 1.108951e-002
4.917590e+002, 1.147268e-002
4.936875e+002, 1.188309e-002
4.956160e+002, 1.170122e-002
4.975444e+002, 1.171673e-002
4.994729e+002, 1.218250e-002
5.014014e+002, 1.209239e-002
5.033298e+002, 1.230930e-002
5.052583e+002, 1.281178e-002
5.071868e+002, 1.323126e-002
5.091152e+002, 1.410184e-002
5.110437e+002, 1.471475e-002
5.129722e+002, 1.434697e-002
5.149006e+002, 1.418839e-002
5.168291e+002, 1.459703e-002
5.187576e+002, 1.511802e-002
5.206860e+002, 1.564348e-002
5.226145e+002, 1.667733e-002
5.245430e+002, 1.770928e-002
5.264714e+002, 1.862968e-002
5.283999e+002, 1.970152e-002
5.303284e+002, 2.048719e-002
5.322568e+002, 2.110825e-002
5.341853e+002, 2.222547e-002
5.361138e+002, 2.271591e-002
5.380422e+002, 2.339288e-002
5.399707e+002, 2.509915e-002
5.418992e+002, 2.673800e-002
5.438276e+002, 2.783723e-002
5.457561e+002, 2.877050e-002
5.476846e+002, 2.980237e-002
5.496130e+002, 3.168927e-002
5.515415e+002, 3.368540e-002
5.534700e+002, 3.538046e-002
5.553984e+002, 3.746775e-002
5.573269e+002, 4.044865e-002
5.592554e+002, 4.412712e-002
5.611838e+002, 4.764736e-002
5.631123e+002, 5.111056e-002
5.650408e+002, 5.512530e-002
5.669692e+002, 6.038162e-002
5.688977e+002, 6.668472e-002
5.708262e+002, 7.394705e-002
5.727546e+002, 8.271002e-002
5.746831e+002, 9.352986e-002
5.766116e+002, 1.057301e-001
5.785400e+002, 1.198328e-001
5.804685e+002, 1.368655e-001
5.823970e+002, 1.576617e-001
5.843254e+002, 1.819355e-001
5.862539e+002, 2.088278e-001
5.881824e+002, 2.388157e-001
5.901108e+002, 2.718962e-001
5.920393e+002, 3.072138e-001
5.939678e+002, 3.438406e-001
5.958962e+002, 3.810022e-001
5.978247e+002, 4.171508e-001
5.997532e+002, 4.481169e-001
6.016816e+002, 4.700072e-001
6.036101e+002, 4.798259e-001
6.055386e+002, 4.710660e-001
6.074670e+002, 4.427558e-001
6.093955e+002, 3.985634e-001
6.113240e+002, 3.485405e-001
6.132524e+002, 3.004306e-001
6.151809e+002, 2.568904e-001
6.171094e+002, 2.194063e-001
6.190378e+002, 1.872698e-001
6.209663e+002, 1.599987e-001
6.228948e+002, 1.375616e-001
6.248232e+002, 1.212564e-001
6.267517e+002, 1.131392e-001
6.286802e+002, 1.138775e-001
6.306086e+002, 1.236806e-001
6.325371e+002, 1.432311e-001
6.344656e+002, 1.699095e-001
6.363940e+002, 1.962391e-001
6.383225e+002, 2.123749e-001
6.402510e+002, 2.139791e-001
6.421794e+002, 2.027648e-001
6.441079e+002, 1.843133e-001
6.460364e+002, 1.628248e-001
6.479648e+002, 1.412604e-001
6.498933e+002, 1.205679e-001
6.518218e+002, 1.014789e-001
6.537502e+002, 8.468890e-002
6.556787e+002, 6.994530e-002
6.576072e+002, 5.680593e-002
6.595356e+002, 4.578666e-002
6.614641e+002, 3.739471e-002
6.633926e+002, 3.140337e-002
6.653210e+002, 2.683780e-002
6.672495e+002, 2.352652e-002
6.691780e+002, 2.077589e-002
6.711064e+002, 1.833807e-002
6.730349e+002, 1.642727e-002
6.749634e+002, 1.491699e-002
6.768918e+002, 1.375769e-002
6.788203e+002, 1.283603e-002
6.807488e+002, 1.184544e-002
6.826772e+002, 1.084942e-002
6.846057e+002, 1.015033e-002
6.865342e+002, 9.907764e-003
6.884626e+002, 9.567706e-003
6.903911e+002, 9.234369e-003
6.923196e+002, 9.146916e-003
6.942480e+002, 9.085802e-003
6.961765e+002, 9.017302e-003
6.981050e+002, 9.088283e-003
7.000334e+002, 9.049230e-003
7.019619e+002, 8.877382e-003
7.038904e+002, 8.732420e-003
7.058188e+002, 8.948354e-003
7.077473e+002, 9.278255e-003
7.096758e+002, 9.582884e-003
7.116042e+002, 9.549373e-003
7.135327e+002, 9.415743e-003
7.154612e+002, 9.424709e-003
7.173896e+002, 9.335826e-003
7.193181e+002, 9.156334e-003
7.212466e+002, 9.207445e-003
7.231750e+002, 9.393117e-003
7.251035e+002, 9.397122e-003
7.270320e+002, 9.423400e-003
7.289604e+002, 9.595731e-003
7.308889e+002, 9.713437e-003
7.328174e+002, 9.721640e-003
7.347458e+002, 9.709294e-003
7.366743e+002, 1.001847e-002
7.386028e+002, 1.024038e-002
7.405313e+002, 1.022259e-002
7.424597e+002, 1.027144e-002
7.443882e+002, 1.030270e-002
7.463167e+002, 1.030727e-002
7.482451e+002, 1.029882e-002
7.501736e+002, 1.025168e-002
7.521021e+002, 1.031193e-002
7.540305e+002, 1.046146e-002
7.559590e+002, 1.070388e-002
7.578875e+002, 1.111928e-002
7.598159e+002, 1.133262e-002
7.617444e+002, 1.135778e-002
7.636729e+002, 1.141538e-002
7.656013e+002, 1.165764e-002
7.675298e+002, 1.191916e-002
7.694583e+002, 1.225973e-002
7.713867e+002, 1.251612e-002
7.733152e+002, 1.252616e-002
7.752437e+002, 1.267462e-002
7.771721e+002, 1.290376e-002
7.791006e+002, 1.308924e-002
7.810291e+002, 1.327900e-002
7.829575e+002, 1.342750e-002
7.848860e+002, 1.330548e-002
7.868145e+002, 1.346227e-002
7.887429e+002, 1.370787e-002
7.906714e+002, 1.380076e-002
7.925999e+002, 1.385545e-002
7.945283e+002, 1.413483e-002
7.964568e+002, 1.442878e-002
7.983853e+002, 1.460696e-002
8.003137e+002, 1.474236e-002
8.022422e+002, 1.488908e-002
8.041707e+002, 1.528405e-002
8.060991e+002, 1.561075e-002
8.080276e+002, 1.584201e-002
8.099561e+002, 1.602219e-002
8.118845e+002, 1.607849e-002
8.138130e+002, 1.630669e-002
8.157415e+002, 1.639355e-002
8.176699e+002, 1.667951e-002
8.195984e+002, 1.700891e-002
8.215269e+002, 1.719572e-002
8.234553e+002, 1.741338e-002
8.253838e+002, 1.780561e-002
8.273123e+002, 1.788928e-002
8.292407e+002, 1.792966e-002
8.311692e+002, 1.810266e-002
8.330977e+002, 1.819055e-002
8.350261e+002, 1.848225e-002
8.369546e+002, 1.906452e-002
8.388831e+002, 1.952722e-002
8.408115e+002, 1.960618e-002
8.427400e+002, 1.961520e-002
8.446685e+002, 1.980525e-002
8.465969e+002, 2.002282e-002
8.485254e+002, 2.023669e-002
8.504539e+002, 2.058741e-002
8.523823e+002, 2.107078e-002
8.543108e+002, 2.156367e-002
8.562393e+002, 2.174768e-002
8.581677e+002, 2.197935e-002
8.600962e+002, 2.232948e-002
8.620247e+002, 2.258272e-002
8.639531e+002, 2.315248e-002
8.658816e+002, 2.353390e-002
8.678101e+002, 2.357370e-002
8.697385e+002, 2.385416e-002
8.716670e+002, 2.423958e-002
8.735955e+002, 2.493100e-002
8.755239e+002, 2.591144e-002
8.774524e+002, 2.645822e-002
8.793809e+002, 2.690046e-002
8.813093e+002, 2.716297e-002
8.832378e+002, 2.754482e-002
8.851663e+002, 2.817567e-002
8.870947e+002, 2.853678e-002
8.890232e+002, 2.877356e-002
8.909517e+002, 2.930721e-002
8.928801e+002, 2.991241e-002
8.948085e+002, 3.048897e-002
8.967370e+002, 3.121159e-002
8.986655e+002, 3.208572e-002
9.005939e+002, 3.299470e-002
9.025224e+002, 3.365980e-002
9.044509e+002, 3.457201e-002
9.063793e+002, 3.581821e-002
9.083078e+002, 3.696340e-002
9.102363e+002, 3.801915e-002
9.121647e+002, 3.908109e-002
9.140932e+002, 4.042069e-002
9.160217e+002, 4.182635e-002
9.179501e+002, 4.295910e-002
9.198786e+002, 4.414700e-002
9.218071e+002, 4.553105e-002
9.237355e+002, 4.697178e-002
9.256640e+002, 4.843308e-002
9.275925e+002, 4.993584e-002
9.295209e+002, 5.164457e-002
9.314494e+002, 5.324347e-002
9.333779e+002, 5.482979e-002
9.353063e+002, 5.654681e-002
9.372348e+002, 5.843552e-002
9.391633e+002, 6.072481e-002
9.410917e+002, 6.320954e-002
9.430202e+002, 6.558749e-002
9.449487e+002, 6.810123e-002
9.468771e+002, 7.074218e-002
9.488056e+002, 7.352996e-002
9.507341e+002, 7.663096e-002
9.526625e+002, 7.998366e-002
9.545910e+002, 8.356803e-002
9.565195e+002, 8.740520e-002
9.584479e+002, 9.168266e-002
9.603764e+002, 9.610605e-002
9.623049e+002, 1.010045e-001
9.642333e+002, 1.067404e-001
9.661618e+002, 1.130413e-001
9.680903e+002, 1.203575e-001
9.700187e+002, 1.287926e-001
9.719472e+002, 1.384380e-001
9.738757e+002, 1.484352e-001
9.758041e+002, 1.571866e-001
9.777326e+002, 1.675297e-001
9.796611e+002, 1.813515e-001
9.815895e+002, 1.984614e-001
9.835180e+002, 2.203011e-001
9.854465e+002, 2.498180e-001
9.873749e+002, 2.912195e-001
9.893034e+002, 3.417949e-001
9.912319e+002, 3.748161e-001
9.931603e+002, 3.700904e-001
9.950888e+002, 3.211826e-001
9.970173e+002, 2.378051e-001
9.989457e+002, 1.760130e-001
1.000874e+003, 1.536143e-001
1.002803e+003, 1.543863e-001
1.004731e+003, 1.652528e-001
1.006660e+003, 1.802497e-001
1.008588e+003, 1.967100e-001
1.010517e+003, 2.136954e-001
1.012445e+003, 2.308580e-001
1.014373e+003, 2.482560e-001
1.016302e+003, 2.659129e-001
1.018230e+003, 2.835438e-001
1.020159e+003, 3.012318e-001
1.022087e+003, 3.190820e-001
1.024016e+003, 3.372305e-001
1.025944e+003, 3.558291e-001
1.027873e+003, 3.745159e-001
1.029801e+003, 3.934999e-001
1.031730e+003, 4.133963e-001
1.033658e+003, 4.338488e-001
1.035587e+003, 4.543759e-001
1.037515e+003, 4.748380e-001
1.039444e+003, 4.956807e-001
1.041372e+003, 5.169926e-001
1.043301e+003, 5.386139e-001
1.045229e+003, 5.605389e-001
1.047157e+003, 5.821265e-001
1.049086e+003, 6.029208e-001
1.051014e+003, 6.235831e-001
1.052943e+003, 6.437774e-001
1.054871e+003, 6.619472e-001
1.056800e+003, 6.785502e-001
1.058728e+003, 6.936460e-001
1.060657e+003, 7.066182e-001
1.062585e+003, 7.170031e-001
1.064514e+003, 7.246276e-001
1.066442e+003, 7.284643e-001
1.068371e+003, 7.292969e-001
1.070299e+003, 7.280684e-001
1.072228e+003, 7.237112e-001
1.074156e+003, 7.155579e-001
1.076084e+003, 7.051827e-001
1.078013e+003, 6.938058e-001
1.079941e+003, 6.807417e-001
1.081870e+003, 6.665365e-001
1.083798e+003, 6.514181e-001
1.085727e+003, 6.357170e-001
1.087655e+003, 6.201888e-001
1.089584e+003, 6.045392e-001
1.091512e+003, 5.891248e-001
1.093441e+003, 5.744171e-001
1.095369e+003, 5.593730e-001
1.097298e+003, 5.443670e-001
1.099226e+003, 5.299010e-001
1.101155e+003, 5.160746e-001
1.103083e+003, 5.033913e-001
1.105011e+003, 4.921091e-001
1.106940e+003, 4.820336e-001
1.108868e+003, 4.728664e-001
1.110797e+003, 4.637233e-001
1.112725e+003, 4.547345e-001
1.114654e+003, 4.460272e-001
1.116582e+003, 4.368130e-001
1.118511e+003, 4.270543e-001
1.120439e+003, 4.169999e-001
1.122368e+003, 4.068063e-001
1.124296e+003, 3.967458e-001
1.126225e+003, 3.868524e-001
1.128153e+003, 3.771665e-001
1.130082e+003, 3.674757e-001
1.132010e+003, 3.579139e-001
1.133938e+003, 3.486179e-001
1.135867e+003, 3.392938e-001
1.137795e+003, 3.298320e-001
1.139724e+003, 3.204352e-001
1.141652e+003, 3.112338e-001
1.143581e+003, 3.023995e-001
1.145509e+003, 2.932359e-001
1.147438e+003, 2.839300e-001
1.149366e+003, 2.751969e-001
1.151295e+003, 2.667129e-001
1.153223e+003, 2.580080e-001
1.155152e+003, 2.497506e-001
1.157080e+003, 2.419091e-001
1.159009e+003, 2.343103e-001
1.160937e+003, 2.271311e-001
1.162865e+003, 2.205219e-001
1.164794e+003, 2.145819e-001
1.166722e+003, 2.095160e-001
1.168651e+003, 2.053019e-001
1.170579e+003, 2.024617e-001
1.172508e+003, 2.013946e-001
1.174436e+003, 2.015685e-001
1.176365e+003, 2.028875e-001
1.178293e+003, 2.052301e-001
1.180222e+003, 2.080578e-001
1.182150e+003, 2.109568e-001
1.184079e+003, 2.137255e-001
1.186007e+003, 2.168850e-001
1.187936e+003, 2.202441e-001
1.189864e+003, 2.231762e-001
1.191792e+003, 2.254886e-001
1.193721e+003, 2.267002e-001
1.195649e+003, 2.267773e-001
1.197578e+003, 2.255469e-001
1.199506e+003, 2.229102e-001
1.201435e+003, 2.191786e-001
1.203363e+003, 2.144341e-001
1.205292e+003, 2.088646e-001
1.207220e+003, 2.026125e-001
1.209149e+003, 1.957622e-001
1.211077e+003, 1.888161e-001
1.213006e+003, 1.815958e-001
1.214934e+003, 1.741919e-001
1.216863e+003, 1.669250e-001
1.218791e+003, 1.593309e-001
1.220719e+003, 1.516594e-001
1.222648e+003, 1.443339e-001
1.224576e+003, 1.368063e-001
1.226505e+003, 1.292068e-001
1.228433e+003, 1.220441e-001
1.230362e+003, 1.152574e-001
1.232290e+003, 1.088127e-001
1.234219e+003, 1.031433e-001
1.236147e+003, 9.835740e-002
1.238076e+003, 9.502620e-002
1.240004e+003, 9.262419e-002
1.241933e+003, 9.047070e-002
1.243861e+003, 8.683927e-002
1.245790e+003, 8.051526e-002
1.247718e+003, 7.200491e-002
1.249646e+003, 6.262495e-002
1.251575e+003, 5.372408e-002
1.253503e+003, 4.584873e-002
1.255432e+003, 3.937240e-002
1.257360e+003, 3.406125e-002
1.259289e+003, 2.961686e-002
1.261217e+003, 2.596941e-002
1.263146e+003, 2.295909e-002
1.265074e+003, 2.036965e-002
1.267003e+003, 1.829782e-002
1.268931e+003, 1.677771e-002
1.270860e+003, 1.561499e-002
1.272788e+003, 1.441213e-002
1.274717e+003, 1.331292e-002
1.276645e+003, 1.246635e-002
1.278573e+003, 1.163053e-002
1.280502e+003, 1.092625e-002
1.282430e+003, 1.042859e-002
1.284359e+003, 9.800795e-003
1.286287e+003, 9.225128e-003
1.288216e+003, 8.762995e-003
1.290144e+003, 8.349341e-003
1.292073e+003, 7.992515e-003
1.294001e+003, 7.561513e-003
1.295930e+003, 7.293873e-003
1.297858e+003, 7.024489e-003
1.299787e+003, 6.784319e-003
1.301715e+003, 6.426337e-003
1.303644e+003, 6.054287e-003
1.305572e+003, 5.815501e-003
1.307500e+003, 5.812422e-003
1.309429e+003, 5.739223e-003
1.311357e+003, 5.457925e-003
1.313286e+003, 5.018209e-003
1.315214e+003, 4.713117e-003
1.317143e+003, 4.456128e-003
1.319071e+003, 3.947513e-003
1.321000e+003, 3.763852e-003
1.322928e+003, 3.926082e-003
1.324857e+003, 3.846220e-003
1.326785e+003, 3.575762e-003
1.328714e+003, 3.235305e-003
1.330642e+003, 3.107425e-003
1.332571e+003, 3.134364e-003
1.334499e+003, 3.069656e-003
1.336427e+003, 2.895220e-003
1.338356e+003, 2.769142e-003
1.340284e+003, 2.568590e-003
1.342213e+003, 2.640834e-003
1.344141e+003, 2.782482e-003
1.346070e+003, 2.618131e-003
1.347998e+003, 2.486371e-003
1.349927e+003, 2.523115e-003
1.351855e+003, 2.608699e-003
1.353784e+003, 2.650084e-003
1.355712e+003, 2.470517e-003
1.357641e+003, 2.468639e-003
1.359569e+003, 2.436887e-003
1.361498e+003, 2.491463e-003
1.363426e+003, 2.649639e-003
1.365354e+003, 2.663298e-003
1.367283e+003, 2.474224e-003
1.369211e+003, 2.452568e-003
1.371140e+003, 2.640848e-003
1.373068e+003, 2.575455e-003
1.374997e+003, 2.399651e-003
1.376925e+003, 2.423151e-003
1.378854e+003, 2.395668e-003
1.380782e+003, 2.374518e-003
1.382711e+003, 2.374226e-003
1.384639e+003, 2.402135e-003
1.386568e+003, 2.392979e-003
1.388496e+003, 2.291268e-003
1.390424e+003, 2.390271e-003
1.392353e+003, 2.446367e-003
1.394281e+003, 2.348146e-003
1.396210e+003, 2.445464e-003
1.398138e+003, 2.647151e-003
1.400067e+003, 2.569438e-003
1.401995e+003, 2.541153e-003
1.403924e+003, 2.625468e-003
1.405852e+003, 2.534909e-003
1.407781e+003, 2.424716e-003
1.409709e+003, 2.289847e-003
1.411638e+003, 2.428976e-003
1.413566e+003, 2.594476e-003
1.415495e+003, 2.653604e-003
1.417423e+003, 2.705463e-003
1.419351e+003, 2.693208e-003
1.421280e+003, 2.678756e-003
1.423208e+003, 2.769862e-003
1.425137e+003, 2.724904e-003
1.427065e+003, 2.455123e-003
1.428994e+003, 2.413163e-003
1.430922e+003, 2.506754e-003
1.432851e+003, 2.459055e-003
1.434779e+003, 2.448407e-003
1.436708e+003, 2.548731e-003
1.438636e+003, 2.577239e-003
1.440565e+003, 2.600592e-003
1.442493e+003, 2.641370e-003
1.444422e+003, 2.608837e-003
1.446350e+003, 2.694606e-003
1.448278e+003, 2.860893e-003
1.450207e+003, 3.048127e-003
1.452135e+003, 3.212632e-003
1.454064e+003, 3.236740e-003
1.455992e+003, 3.203409e-003
1.457921e+003, 3.209239e-003
1.459849e+003, 3.324444e-003
1.461778e+003, 3.252488e-003
1.463706e+003, 3.096788e-003
1.465635e+003, 2.827473e-003
1.467563e+003, 3.005492e-003
1.469492e+003, 3.140393e-003
1.471420e+003, 3.029738e-003
1.473349e+003, 2.787504e-003
1.475277e+003, 2.826353e-003
1.477205e+003, 2.575112e-003
1.479134e+003, 2.520212e-003
1.481062e+003, 2.642657e-003
1.482991e+003, 2.723773e-003
1.484919e+003, 2.706015e-003
1.486848e+003, 2.679041e-003
1.488776e+003, 2.636277e-003
1.490705e+003, 2.522178e-003
1.492633e+003, 2.590673e-003
1.494562e+003, 2.557704e-003
1.496490e+003, 2.368108e-003
1.498419e+003, 2.508088e-003
1.500347e+003, 2.668505e-003
1.502276e+003, 2.695088e-003
1.504204e+003, 2.526173e-003
1.506132e+003, 2.490271e-003
1.508061e+003, 2.653768e-003
1.509989e+003, 2.812550e-003
1.511918e+003, 2.837999e-003
1.513846e+003, 2.794416e-003
1.515775e+003, 2.688809e-003
1.517703e+003, 2.614622e-003
1.519632e+003, 2.895803e-003
1.521560e+003, 3.102661e-003
1.523489e+003, 3.332338e-003
1.525417e+003, 3.364336e-003
1.527346e+003, 3.439037e-003
1.529274e+003, 3.445155e-003
1.531203e+003, 3.636032e-003
1.533131e+003, 3.745363e-003
1.535059e+003, 3.733623e-003
1.536988e+003, 3.973297e-003
1.538916e+003, 3.847816e-003
1.540845e+003, 3.756029e-003
1.542773e+003, 4.097239e-003
1.544702e+003, 4.563100e-003
1.546630e+003, 4.616595e-003
1.548559e+003, 4.734953e-003
1.550487e+003, 4.835204e-003
1.552416e+003, 4.863649e-003
1.554344e+003, 4.762807e-003
1.556273e+003, 4.870167e-003
1.558201e+003, 4.784723e-003
1.560130e+003, 4.805036e-003
1.562058e+003, 5.182593e-003
1.563986e+003, 5.248529e-003
1.565915e+003, 5.410779e-003
1.567843e+003, 5.644193e-003
1.569772e+003, 5.457132e-003
1.571700e+003, 5.421638e-003
1.573629e+003, 5.568223e-003
1.575557e+003, 5.557734e-003
1.577486e+003, 5.497268e-003
1.579414e+003, 5.853104e-003
1.581343e+003, 6.074753e-003
1.583271e+003, 6.200686e-003
1.585200e+003, 6.212813e-003
1.587128e+003, 6.183737e-003
1.589057e+003, 6.287580e-003
1.590985e+003, 6.354903e-003
1.592913e+003, 6.504904e-003
1.594842e+003, 6.694835e-003
1.596770e+003, 6.643741e-003
1.598699e+003, 6.816695e-003
1.600627e+003, 6.954216e-003
1.602556e+003, 6.784162e-003
1.604484e+003, 6.741954e-003
1.606413e+003, 6.696734e-003
1.608341e+003, 6.525671e-003
1.610270e+003, 6.593527e-003
1.612198e+003, 6.792923e-003
1.614127e+003, 6.968033e-003
1.616055e+003, 6.987552e-003
1.617984e+003, 6.840775e-003
1.619912e+003, 6.780668e-003
1.621840e+003, 6.556216e-003
1.623769e+003, 6.400082e-003
1.625697e+003, 6.437727e-003
1.627626e+003, 6.458535e-003
1.629554e+003, 6.468605e-003
1.631483e+003, 6.449812e-003
1.633411e+003, 6.198001e-003
1.635340e+003, 5.867153e-003
1.637268e+003, 5.945885e-003
1.639197e+003, 6.150357e-003
1.641125e+003, 6.172327e-003
1.643054e+003, 6.246299e-003
1.644982e+003, 6.039395e-003
1.646911e+003, 5.877842e-003
1.648839e+003, 6.099677e-003
1.650767e+003, 6.248853e-003
1.652696e+003, 5.892218e-003
1.654624e+003, 5.626693e-003
1.656553e+003, 5.871050e-003
1.658481e+003, 5.880826e-003
1.660410e+003, 5.908294e-003
1.662338e+003, 6.149154e-003
1.664267e+003, 6.114347e-003
1.666195e+003, 5.792597e-003
1.668124e+003, 5.774131e-003
1.670052e+003, 5.765264e-003
1.671981e+003, 5.796331e-003
1.673909e+003, 5.923655e-003
1.675838e+003, 5.922924e-003
1.677766e+003, 6.072268e-003
1.679694e+003, 5.899238e-003
1.681623e+003, 5.576005e-003
1.683551e+003, 5.385000e-003
1.685480e+003, 5.233251e-003
1.687408e+003, 5.458172e-003
1.689337e+003, 5.473182e-003
1.691265e+003, 5.436462e-003
1.693194e+003, 5.423375e-003
1.695122e+003, 5.338308e-003
1.697051e+003, 5.020365e-003
1.698979e+003, 5.152522e-003
1.700908e+003, 4.672058e-003
1.702836e+003, 4.938011e-003
1.704765e+003, 4.825904e-003
1.706693e+003, 4.879017e-003
1.708621e+003, 5.113354e-003
1.710550e+003, 4.850464e-003
1.712478e+003, 4.699568e-003
1.714407e+003, 4.880850e-003
1.716335e+003, 4.943343e-003
1.718264e+003, 4.836879e-003
1.720192e+003, 5.311551e-003
1.722121e+003, 5.339911e-003
1.724049e+003, 5.366763e-003
1.725978e+003, 5.650880e-003
1.727906e+003, 5.532584e-003
1.729835e+003, 4.982349e-003
1.731763e+003, 4.812782e-003
1.733692e+003, 4.903624e-003
1.735620e+003, 4.717982e-003
1.737548e+003, 4.621905e-003
1.739477e+003, 4.249034e-003
1.741405e+003, 4.058263e-003
1.743334e+003, 4.272121e-003
1.745262e+003, 4.331362e-003
1.747191e+003, 4.187414e-003
1.749119e+003, 4.138433e-003
1.751048e+003, 4.318024e-003
1.752976e+003, 4.344638e-003
1.754905e+003, 4.459225e-003
1.756833e+003, 4.410153e-003
1.758762e+003, 4.472397e-003
1.760690e+003, 4.408814e-003
1.762619e+003, 3.990561e-003
1.764547e+003, 4.209315e-003
1.766475e+003, 4.455573e-003
1.768404e+003, 4.462556e-003
1.770332e+003, 4.351016e-003
1.772261e+003, 4.040055e-003
1.774189e+003, 3.970439e-003
1.776118e+003, 4.135898e-003
1.778046e+003, 4.415175e-003
1.779975e+003, 4.567971e-003
1.781903e+003, 4.665723e-003
1.783832e+003, 4.975585e-003
1.785760e+003, 4.681917e-003
1.787689e+003, 4.372138e-003
1.789617e+003, 4.185794e-003
1.791546e+003, 4.302158e-003
1.793474e+003, 4.371089e-003
1.795402e+003, 4.334094e-003
1.797331e+003, 4.473528e-003
1.799259e+003, 4.641904e-003
1.801188e+003, 4.390801e-003
1.803116e+003, 4.399814e-003
1.805045e+003, 4.472272e-003
1.806973e+003, 4.468744e-003
1.808902e+003, 4.314320e-003
1.810830e+003, 4.237677e-003
1.812759e+003, 4.188432e-003
1.814687e+003, 3.879337e-003
1.816616e+003, 4.128960e-003
1.818544e+003, 4.701345e-003
1.820473e+003, 4.800545e-003
1.822401e+003, 4.669575e-003
1.824329e+003, 4.968206e-003
1.826258e+003, 5.155438e-003
1.828186e+003, 5.238611e-003
1.830115e+003, 4.991773e-003
1.832043e+003, 4.954859e-003
1.833972e+003, 4.925736e-003
1.835900e+003, 4.652466e-003
1.837829e+003, 4.238471e-003
1.839757e+003, 4.567812e-003
1.841686e+003, 5.094661e-003
1.843614e+003, 4.975251e-003
1.845543e+003, 4.823018e-003
1.847471e+003, 5.188495e-003
1.849400e+003, 5.353343e-003
1.851328e+003, 5.107365e-003
1.853256e+003, 4.829594e-003
1.855185e+003, 4.943621e-003
1.857113e+003, 4.823449e-003
1.859042e+003, 4.919673e-003
1.860970e+003, 4.961050e-003
1.862899e+003, 4.942524e-003
1.864827e+003, 4.863509e-003
1.866756e+003, 5.120390e-003
1.868684e+003, 5.548971e-003
1.870613e+003, 5.315703e-003
1.872541e+003, 4.650855e-003
1.874470e+003, 4.319022e-003
1.876398e+003, 4.352044e-003
1.878327e+003, 4.542743e-003
1.880255e+003, 4.670483e-003
1.882183e+003, 4.364694e-003
1.884112e+003, 4.232838e-003
1.886040e+003, 4.420081e-003
1.887969e+003, 4.886663e-003
1.889897e+003, 4.991765e-003
1.891826e+003, 4.643147e-003
1.893754e+003, 4.277959e-003
1.895683e+003, 4.526083e-003
1.897611e+003, 5.008935e-003
1.899540e+003, 4.292640e-003
1.901468e+003, 4.201582e-003
1.903397e+003, 4.582240e-003
1.905325e+003, 4.442614e-003
1.907254e+003, 4.824850e-003
1.909182e+003, 4.580572e-003
1.911110e+003, 3.793712e-003
1.913039e+003, 4.215881e-003
1.914967e+003, 4.752137e-003
1.916896e+003, 4.637555e-003
1.918824e+003, 3.606269e-003
1.920753e+003, 3.311957e-003
1.922681e+003, 3.069205e-003
1.924610e+003, 3.332289e-003
1.926538e+003, 3.658733e-003
1.928467e+003, 3.058822e-003
1.930395e+003, 3.274746e-003
1.932324e+003, 3.405124e-003
1.934252e+003, 3.519275e-003
1.936181e+003, 3.846273e-003
1.938109e+003, 3.745969e-003
1.940037e+003, 3.715884e-003
1.941966e+003, 3.623119e-003
1.943894e+003, 2.744859e-003
1.945823e+003, 1.728463e-003
1.947751e+003, 8.345512e-004
1.949680e+003, 1.128648e-003
1.951608e+003, 2.122241e-003
1.953537e+003, 2.122879e-003
1.955465e+003, 1.108772e-003
1.957394e+003, 1.666949e-004
1.959322e+003, 5.414475e-004
1.961251e+003, 1.973158e-003
1.963179e+003, 1.807495e-003
1.965108e+003, 1.165779e-003
1.967036e+003, 8.404091e-004
1.968964e+003, -4.345348e-005
1.970893e+003, -1.537682e-003
1.972821e+003, -9.349976e-004
1.974750e+003, -7.874306e-005
1.976678e+003, -1.054990e-004
1.978607e+003, 1.607181e-003
1.980535e+003, 2.643118e-003
1.982464e+003, 2.894819e-003
1.984392e+003, 1.501885e-003
1.986321e+003, -1.397891e-004
1.988249e+003, 3.393601e-004
1.990178e+003, 8.596559e-004
1.992106e+003, 4.439975e-004
1.994035e+003, 7.639899e-004
1.995963e+003, 2.000202e-003
1.997891e+003, 3.276602e-003
1.999820e+003, 3.746452e-003
2.001748e+003, 2.839177e-003
2.003677e+003, 1.943977e-003
2.005605e+003, 1.903085e-003
2.007534e+003, 2.908716e-003
2.009462e+003, 2.388794e-003
2.011391e+003, 3.460304e-003
2.013319e+003, 3.238400e-003
2.015248e+003, 1.952209e-003
2.017176e+003, 1.590052e-003
2.019105e+003, 1.493680e-003
2.021033e+003, -3.715262e-004
2.022962e+003, 4.540714e-004
2.024890e+003, 9.910567e-004
2.026818e+003, 1.280904e-003
2.028747e+003, 5.261357e-004
2.030675e+003, 2.855702e-004
2.032604e+003, 8.769671e-004
2.034532e+003, 6.866448e-004
2.036461e+003, 1.740786e-003
2.038389e+003, 3.097952e-003
2.040318e+003, 6.552309e-004
2.042246e+003, -2.168753e-004
2.044175e+003, 9.554471e-004
2.046103e+003, 1.824281e-003
2.048032e+003, 2.311472e-003
2.049960e+003, 2.738790e-003
2.051889e+003, 3.296787e-003
2.053817e+003, 4.264148e-003
2.055746e+003, 4.147880e-003
2.057674e+003, 4.047295e-003
2.059603e+003, 4.884475e-003
2.061531e+003, 4.833352e-003
2.063459e+003, 4.591616e-003
2.065388e+003, 5.393536e-003
2.067316e+003, 5.854724e-003
2.069245e+003, 5.601036e-003
2.071173e+003, 5.821047e-003
2.073102e+003, 6.095500e-003
2.075030e+003, 7.138225e-003
2.076959e+003, 7.191819e-003
2.078887e+003, 6.637670e-003
2.080816e+003, 6.726922e-003
2.082744e+003, 7.929411e-003
2.084673e+003, 8.256912e-003
2.086601e+003, 7.553831e-003
2.088530e+003, 7.394044e-003
2.090458e+003, 6.884335e-003
2.092386e+003, 4.798685e-003
2.094315e+003, 4.278606e-003
2.096243e+003, 5.506364e-003
2.098172e+003, 5.970623e-003
2.100100e+003, 5.878319e-003
2.102029e+003, 5.136899e-003
2.103957e+003, 4.243154e-003
2.105886e+003, 4.768174e-003
2.107814e+003, 4.729441e-003
2.109743e+003, 4.984495e-003
2.111671e+003, 5.094811e-003
2.113600e+003, 4.283029e-003
2.115528e+003, 3.206454e-003
2.117457e+003, 3.128086e-003
2.119385e+003, 3.493590e-003
2.121313e+003, 2.860053e-003
2.123242e+003, 2.724958e-003
2.125170e+003, 2.578902e-003
2.127099e+003, 1.669070e-003
2.129027e+003, 4.985246e-004
2.130956e+003, -4.706253e-004
2.132884e+003, -5.117332e-004
2.134813e+003, -9.733600e-004
2.136741e+003, -1.398728e-003
2.138670e+003, -6.320500e-004
2.140598e+003, -6.984796e-004
2.142527e+003, -1.943237e-003
2.144455e+003, -3.367211e-003
2.146384e+003, -5.046857e-003
2.148312e+003, -4.770142e-003
2.150240e+003, -5.060020e-003
2.152169e+003, -6.660577e-003
2.154097e+003, -7.074205e-003
2.156026e+003, -7.883749e-003
2.157954e+003, -7.402379e-003
2.159883e+003, -2.313512e-003
2.161811e+003, -1.153669e-003
2.163740e+003, 5.627343e-004
2.165668e+003, 2.561241e-004
2.167597e+003, -2.349381e-003
2.169525e+003, -2.212990e-003
2.171454e+003, -1.068767e-003
2.173382e+003, -9.970091e-004
2.175311e+003, -1.244458e-003
2.177239e+003, -1.689266e-003
2.179167e+003, -2.966702e-003
2.181096e+003, -2.969590e-003
2.183024e+003, -2.673653e-003
2.184953e+003, -2.603828e-003
2.186881e+003, -1.734448e-003
2.188810e+003, -8.896869e-004
2.190738e+003, -1.315700e-004
2.192667e+003, 2.185531e-003
2.194595e+003, 2.504394e-003
2.196524e+003, 5.754035e-004
2.198452e+003, 3.970805e-004
2.200381e+003, 1.048586e-003
2.202309e+003, 1.328552e-003
2.204238e+003, 6.315638e-004
2.206166e+003, 5.366451e-004
2.208094e+003, 1.851265e-003
2.210023e+003, 1.441036e-003
2.211951e+003, 1.994312e-003
2.213880e+003, 2.865135e-003
2.215808e+003, 3.223002e-003
2.217737e+003, 3.598681e-003
2.219665e+003, 4.350585e-003
2.221594e+003, 3.884506e-003
2.223522e+003, 3.537079e-003
2.225451e+003, 3.879185e-003
2.227379e+003, 3.091378e-003
2.229308e+003, 1.882540e-003
2.231236e+003, 2.943559e-003
2.233165e+003, 5.123462e-003
2.235093e+003, 5.306080e-003
2.237021e+003, 3.032086e-003
2.238950e+003, 2.533596e-003
2.240878e+003, 3.346105e-003
2.242807e+003, 3.870036e-003
2.244735e+003, 4.454250e-003
2.246664e+003, 4.508534e-003
2.248592e+003, 3.529982e-003
2.250521e+003, 2.916876e-003
2.252449e+003, 3.474252e-003
2.254378e+003, 3.842696e-003
2.256306e+003, 4.285966e-003
2.258235e+003, 5.169211e-003
2.260163e+003, 4.732841e-003
2.262092e+003, 4.514669e-003
2.264020e+003, 4.148419e-003
2.265948e+003, 4.623079e-003
2.267877e+003, 5.451705e-003
2.269805e+003, 5.470677e-003
2.271734e+003, 5.774385e-003
2.273662e+003, 6.703743e-003
2.275591e+003, 7.469280e-003
2.277519e+003, 7.380633e-003
2.279448e+003, 7.090300e-003
2.281376e+003, 7.220176e-003
2.283305e+003, 6.975790e-003
2.285233e+003, 7.643864e-003
2.287162e+003, 7.900182e-003
2.289090e+003, 7.638825e-003
2.291019e+003, 7.498138e-003
2.292947e+003, 7.284259e-003
2.294875e+003, 7.322761e-003
2.296804e+003, 7.543728e-003
2.298732e+003, 7.515171e-003
2.300661e+003, 7.306803e-003
2.302589e+003, 7.510934e-003
2.304518e+003, 7.725597e-003
2.306446e+003, 8.061539e-003
2.308375e+003, 8.569295e-003
2.310303e+003, 8.537511e-003
2.312232e+003, 8.677165e-003
2.314160e+003, 8.629072e-003
2.316089e+003, 8.746420e-003
2.318017e+003, 9.169044e-003
2.319946e+003, 9.416766e-003
2.321874e+003, 9.632719e-003
2.323802e+003, 9.470120e-003
2.325731e+003, 8.187422e-003
2.327659e+003, 7.452791e-003
2.329588e+003, 7.552683e-003
2.331516e+003, 7.662794e-003
2.333445e+003, 7.570863e-003
2.335373e+003, 7.635199e-003
2.337302e+003, 7.570694e-003
2.339230e+003, 7.312019e-003
2.341159e+003, 7.266174e-003
2.343087e+003, 7.443684e-003
2.345016e+003, 7.445212e-003
2.346944e+003, 7.571102e-003
2.348873e+003, 7.350126e-003
2.350801e+003, 7.438582e-003
2.352729e+003, 7.545371e-003
2.354658e+003, 7.570847e-003
2.356586e+003, 7.670044e-003
2.358515e+003, 7.560731e-003
2.360443e+003, 7.192760e-003
2.362372e+003, 6.690250e-003
2.364300e+003, 6.293805e-003
2.366229e+003, 6.531619e-003
2.368157e+003, 6.512097e-003
2.370086e+003, 6.336049e-003
2.372014e+003, 6.584109e-003
2.373942e+003, 6.473686e-003
2.375871e+003, 6.424641e-003
2.377799e+003, 6.904315e-003
2.379728e+003, 6.650486e-003
2.381656e+003, 6.574407e-003
2.383585e+003, 6.843912e-003
2.385513e+003, 6.352984e-003
2.387442e+003, 6.239180e-003
2.389370e+003, 7.013878e-003
2.391299e+003, 6.955998e-003
2.393227e+003, 5.998376e-003
2.395156e+003, 6.127981e-003
2.397084e+003, 7.056497e-003
2.399012e+003, 7.261088e-003
2.400941e+003, 7.136112e-003
2.402869e+003, 6.685178e-003
2.404798e+003, 6.835388e-003
2.406726e+003, 7.150271e-003
2.408655e+003, 6.640858e-003
2.410583e+003, 6.237863e-003
2.412512e+003, 6.007527e-003
2.414440e+003, 6.475250e-003
2.416369e+003, 6.936010e-003
2.418297e+003, 6.570621e-003
2.420226e+003, 6.039853e-003
2.422154e+003, 6.079833e-003
2.424083e+003, 6.360452e-003
2.426011e+003, 6.453937e-003
2.427939e+003, 6.990988e-003
2.429868e+003, 7.813707e-003
2.431796e+003, 7.511828e-003
2.433725e+003, 6.470964e-003
2.435653e+003, 6.860219e-003
2.437582e+003, 7.282163e-003
2.439510e+003, 6.902169e-003
2.441439e+003, 6.822642e-003
2.443367e+003, 6.369108e-003
2.445296e+003, 6.859393e-003
2.447224e+003, 7.283418e-003
2.449153e+003, 7.117974e-003
2.451081e+003, 7.466812e-003
2.453010e+003, 7.150902e-003
2.454938e+003, 7.185704e-003
2.456866e+003, 7.676868e-003
2.458795e+003, 7.904185e-003
2.460723e+003, 8.421636e-003
2.462652e+003, 8.288150e-003
2.464580e+003, 7.969271e-003
2.466509e+003, 8.205425e-003
2.468437e+003, 8.418262e-003
2.470366e+003, 7.934055e-003
2.472294e+003, 7.346618e-003
2.474223e+003, 7.876648e-003
2.476151e+003, 7.690595e-003
2.478080e+003, 7.076649e-003
2.480008e+003, 7.604168e-003
2.481937e+003, 7.762530e-003
2.483865e+003, 7.939611e-003
2.485793e+003, 8.283027e-003
2.487722e+003, 8.461411e-003
2.489650e+003, 8.131308e-003
2.491579e+003, 8.114524e-003
2.493507e+003, 8.495932e-003
2.495436e+003, 9.056321e-003
2.497364e+003, 8.854698e-003
2.499293e+003, 8.863864e-003
2.501221e+003, 8.956429e-003
2.503150e+003, 8.619150e-003
2.505078e+003, 8.253240e-003
2.507007e+003, 9.180339e-003
2.508935e+003, 1.019101e-002
2.510864e+003, 1.017022e-002
2.512792e+003, 9.130964e-003
2.514720e+003, 9.527953e-003
2.516649e+003, 1.021397e-002
2.518577e+003, 9.827084e-003
2.520506e+003, 9.471634e-003
2.522434e+003, 9.280883e-003
2.524363e+003, 9.665573e-003
2.526291e+003, 1.032579e-002
2.528220e+003, 1.041205e-002
2.530148e+003, 9.863310e-003
2.532077e+003, 9.844345e-003
2.534005e+003, 1.027639e-002
2.535934e+003, 1.056480e-002
2.537862e+003, 1.081003e-002
2.539791e+003, 1.074414e-002
2.541719e+003, 9.906840e-003
2.543647e+003, 9.463709e-003
2.545576e+003, 1.023718e-002
2.547504e+003, 1.078368e-002
2.549433e+003, 1.121324e-002
2.551361e+003, 1.177043e-002
2.553290e+003, 1.113313e-002
2.555218e+003, 1.070856e-002
2.557147e+003, 1.097261e-002
2.559075e+003, 1.131386e-002
2.561004e+003, 1.183740e-002
2.562932e+003, 1.150066e-002
2.564861e+003, 1.148692e-002
2.566789e+003, 1.214105e-002
2.568718e+003, 1.151179e-002
2.570646e+003, 1.080565e-002
2.572574e+003, 1.052858e-002
2.574503e+003, 1.087744e-002
2.576431e+003, 1.162767e-002
2.578360e+003, 1.140527e-002
2.580288e+003, 1.110885e-002
2.582217e+003, 1.101894e-002
2.584145e+003, 1.096728e-002
2.586074e+003, 1.183795e-002
2.588002e+003, 1.167175e-002
2.589931e+003, 1.109307e-002
2.591859e+003, 1.149169e-002
2.593788e+003, 1.224992e-002
2.595716e+003, 1.197854e-002
2.597645e+003, 1.183873e-002
2.599573e+003, 1.209594e-002
2.601501e+003, 1.250532e-002
2.603430e+003, 1.219135e-002
2.605358e+003, 1.166633e-002
2.607287e+003, 1.185645e-002
2.609215e+003, 1.202318e-002
2.611144e+003, 1.171151e-002
2.613072e+003, 1.154143e-002
2.615001e+003, 1.241088e-002
2.616929e+003, 1.267416e-002
2.618858e+003, 1.273435e-002
2.620786e+003, 1.335242e-002
2.622715e+003, 1.239564e-002
2.624643e+003, 1.168334e-002
2.626572e+003, 1.218432e-002
2.628500e+003, 1.208438e-002
2.630428e+003, 1.169963e-002
2.632357e+003, 1.155892e-002
2.634285e+003, 1.187648e-002
2.636214e+003, 1.194148e-002
2.638142e+003, 1.205444e-002
2.640071e+003, 1.248058e-002
2.641999e+003, 1.292238e-002
2.643928e+003, 1.269093e-002
2.645856e+003, 1.244315e-002
2.647785e+003, 1.268581e-002
2.649713e+003, 1.293736e-002
2.651642e+003, 1.284933e-002
2.653570e+003, 1.235126e-002
2.655499e+003, 1.204787e-002
2.657427e+003, 1.224124e-002
2.659355e+003, 1.254271e-002
2.661284e+003, 1.214579e-002
2.663212e+003, 1.212442e-002
2.665141e+003, 1.180553e-002
2.667069e+003, 1.147001e-002
2.668998e+003, 1.179311e-002
2.670926e+003, 1.085655e-002
2.672855e+003, 1.019118e-002
2.674783e+003, 1.075778e-002
2.676712e+003, 1.093898e-002
2.678640e+003, 1.110683e-002
2.680569e+003, 1.129324e-002
2.682497e+003, 1.130350e-002
2.684426e+003, 1.114780e-002
2.686354e+003, 1.071804e-002
2.688282e+003, 1.096759e-002
2.690211e+003, 1.175357e-002
2.692139e+003, 1.189821e-002
2.694068e+003, 1.137070e-002
2.695996e+003, 1.146429e-002
2.697925e+003, 1.176697e-002
2.699853e+003, 1.158409e-002
2.701782e+003, 1.134220e-002
2.703710e+003, 1.158859e-002
2.705639e+003, 1.181064e-002
2.707567e+003, 1.203223e-002
2.709496e+003, 1.157115e-002
2.711424e+003, 1.103031e-002
2.713353e+003, 1.093858e-002
2.715281e+003, 1.156788e-002
2.717209e+003, 1.180826e-002
2.719138e+003, 1.148775e-002
2.721066e+003, 1.136200e-002
2.722995e+003, 1.172102e-002
2.724923e+003, 1.264402e-002
2.726852e+003, 1.241361e-002
2.728780e+003, 1.156310e-002
2.730709e+003, 1.151525e-002
2.732637e+003, 1.189377e-002
2.734566e+003, 1.208856e-002
2.736494e+003, 1.179846e-002
2.738423e+003, 1.174030e-002
2.740351e+003, 1.188149e-002
2.742280e+003, 1.161213e-002
2.744208e+003, 1.142663e-002
2.746136e+003, 1.180589e-002
2.748065e+003, 1.197937e-002
2.749993e+003, 1.215177e-002
2.751922e+003, 1.215392e-002
2.753850e+003, 1.176704e-002
2.755779e+003, 1.208911e-002
2.757707e+003, 1.241979e-002
2.759636e+003, 1.219891e-002
2.761564e+003, 1.234856e-002
2.763493e+003, 1.251291e-002
2.765421e+003, 1.264116e-002
2.767350e+003, 1.268620e-002
2.769278e+003, 1.224956e-002
2.771207e+003, 1.202796e-002
2.773135e+003, 1.187158e-002
2.775063e+003, 1.193858e-002
2.776992e+003, 1.217992e-002
2.778920e+003, 1.245629e-002
2.780849e+003, 1.303041e-002
2.782777e+003, 1.295550e-002
2.784706e+003, 1.278169e-002
2.786634e+003, 1.285746e-002
2.788563e+003, 1.209359e-002
2.790491e+003, 1.174893e-002
2.792420e+003, 1.213815e-002
2.794348e+003, 1.201847e-002
2.796277e+003, 1.200160e-002
2.798205e+003, 1.252737e-002
2.800134e+003, 1.280576e-002
2.802062e+003, 1.284659e-002
2.803990e+003, 1.267698e-002
2.805919e+003, 1.238740e-002
2.807847e+003, 1.224812e-002
2.809776e+003, 1.221606e-002
2.811704e+003, 1.261588e-002
2.813633e+003, 1.312336e-002
2.815561e+003, 1.312307e-002
2.817490e+003, 1.294226e-002
2.819418e+003, 1.265492e-002
2.821347e+003, 1.256558e-002
2.823275e+003, 1.271756e-002
2.825204e+003, 1.231208e-002
2.827132e+003, 1.248979e-002
2.829061e+003, 1.315108e-002
2.830989e+003, 1.315008e-002
2.832917e+003, 1.323403e-002
2.834846e+003, 1.314094e-002
2.836774e+003, 1.309259e-002
2.838703e+003, 1.330554e-002
2.840631e+003, 1.374115e-002
2.842560e+003, 1.370253e-002
2.844488e+003, 1.287844e-002
2.846417e+003, 1.187768e-002
2.848345e+003, 1.178604e-002
2.850274e+003, 1.207538e-002
2.852202e+003, 1.197953e-002
2.854131e+003, 1.226307e-002
2.856059e+003, 1.304271e-002
2.857988e+003, 1.316411e-002
2.859916e+003, 1.264425e-002
2.861844e+003, 1.224352e-002
2.863773e+003, 1.256979e-002
2.865701e+003, 1.298242e-002
2.867630e+003, 1.276222e-002
2.869558e+003, 1.289270e-002
2.871487e+003, 1.305608e-002
2.873415e+003, 1.263332e-002
2.875344e+003, 1.233996e-002
2.877272e+003, 1.323558e-002
2.879201e+003, 1.383246e-002
2.881129e+003, 1.292871e-002
2.883058e+003, 1.265617e-002
2.884986e+003, 1.345129e-002
2.886915e+003, 1.314175e-002
2.888843e+003, 1.288295e-002
2.890771e+003, 1.362980e-002
2.892700e+003, 1.385918e-002
2.894628e+003, 1.327791e-002
2.896557e+003, 1.352893e-002
2.898485e+003, 1.386869e-002
2.900414e+003, 1.358699e-002
2.902342e+003, 1.319706e-002
2.904271e+003, 1.297552e-002
2.906199e+003, 1.305319e-002
2.908128e+003, 1.338534e-002
2.910056e+003, 1.334584e-002
2.911985e+003, 1.375413e-002
2.913913e+003, 1.372900e-002
2.915842e+003, 1.288649e-002
2.917770e+003, 1.333996e-002
2.919698e+003, 1.405042e-002
2.921627e+003, 1.364692e-002
2.923555e+003, 1.336115e-002
2.925484e+003, 1.377778e-002
2.927412e+003, 1.363473e-002
2.929341e+003, 1.316054e-002
2.931269e+003, 1.314271e-002
2.933198e+003, 1.311880e-002
2.935126e+003, 1.329074e-002
2.937055e+003, 1.357281e-002
2.938983e+003, 1.327908e-002
2.940912e+003, 1.332994e-002
2.942840e+003, 1.375157e-002
2.944769e+003, 1.353795e-002
2.946697e+003, 1.332715e-002
2.948625e+003, 1.332481e-002
2.950554e+003, 1.309016e-002
2.952482e+003, 1.299575e-002
2.954411e+003, 1.352070e-002
2.956339e+003, 1.342415e-002
2.958268e+003, 1.336657e-002
2.960196e+003, 1.332409e-002
2.962125e+003, 1.382022e-002
2.964053e+003, 1.434566e-002
2.965982e+003, 1.460663e-002
2.967910e+003, 1.411164e-002
2.969839e+003, 1.356050e-002
2.971767e+003, 1.363280e-002
2.973696e+003, 1.346280e-002
2.975624e+003, 1.317323e-002
2.977552e+003, 1.356821e-002
2.979481e+003, 1.474345e-002
2.981409e+003, 1.487427e-002
2.983338e+003, 1.464155e-002
2.985266e+003, 1.493672e-002
2.987195e+003, 1.447341e-002
2.989123e+003, 1.399321e-002
2.991052e+003, 1.402310e-002
2.992980e+003, 1.466693e-002
2.994909e+003, 1.555480e-002
2.996837e+003, 1.483122e-002
2.998766e+003, 1.412066e-002
3.000694e+003, 1.442119e-002
3.002623e+003, 1.486505e-002
3.004551e+003, 1.451939e-002
3.006479e+003, 1.440052e-002
3.008408e+003, 1.471538e-002
3.010336e+003, 1.498922e-002
3.012265e+003, 1.492651e-002
3.014193e+003, 1.440376e-002
3.016122e+003, 1.408090e-002
3.018050e+003, 1.461126e-002
3.019979e+003, 1.541041e-002
3.021907e+003, 1.502123e-002
3.023836e+003, 1.481664e-002
3.025764e+003, 1.461685e-002
3.027693e+003, 1.448051e-002
3.029621e+003, 1.536070e-002
3.031550e+003, 1.593587e-002
3.033478e+003, 1.517558e-002
3.035406e+003, 1.445453e-002
3.037335e+003, 1.466817e-002
3.039263e+003, 1.467811e-002
3.041192e+003, 1.472028e-002
3.043120e+003, 1.476755e-002
3.045049e+003, 1.433899e-002
3.046977e+003, 1.375402e-002
3.048906e+003, 1.428250e-002
3.050834e+003, 1.415083e-002
3.052763e+003, 1.399102e-002
3.054691e+003, 1.452705e-002
3.056620e+003, 1.504856e-002
3.058548e+003, 1.507601e-002
3.060477e+003, 1.508034e-002
3.062405e+003, 1.533991e-002
3.064333e+003, 1.508586e-002
3.066262e+003, 1.504431e-002
3.068190e+003, 1.564901e-002
3.070119e+003, 1.483519e-002
3.072047e+003, 1.406870e-002
3.073976e+003, 1.449544e-002
3.075904e+003, 1.439427e-002
3.077833e+003, 1.385263e-002
3.079761e+003, 1.444089e-002
3.081690e+003, 1.537844e-002
3.083618e+003, 1.546254e-002
3.085547e+003, 1.457557e-002
3.087475e+003, 1.414731e-002
3.089404e+003, 1.468364e-002
3.091332e+003, 1.557231e-002
3.093260e+003, 1.550415e-002
3.095189e+003, 1.537595e-002
3.097117e+003, 1.522928e-002
3.099046e+003, 1.490043e-002
3.100974e+003, 1.483007e-002
3.102903e+003, 1.461662e-002
3.104831e+003, 1.495095e-002
3.106760e+003, 1.525476e-002
3.108688e+003, 1.410515e-002
3.110617e+003, 1.396251e-002
3.112545e+003, 1.458228e-002
3.114474e+003, 1.505972e-002
3.116402e+003, 1.535296e-002
3.118331e+003, 1.509788e-002
3.120259e+003, 1.540418e-002
3.122188e+003, 1.568610e-002
3.124116e+003, 1.547817e-002
3.126044e+003, 1.502367e-002
3.127973e+003, 1.518309e-002
3.129901e+003, 1.559347e-002
3.131830e+003, 1.582913e-002
3.133758e+003, 1.559852e-002
3.135687e+003, 1.602221e-002
3.137615e+003, 1.581317e-002
3.139544e+003, 1.532665e-002
3.141472e+003, 1.570066e-002
3.143401e+003, 1.547726e-002
3.145329e+003, 1.536101e-002
3.147258e+003, 1.580076e-002
3.149186e+003, 1.595471e-002
3.151115e+003, 1.559711e-002
3.153043e+003, 1.593245e-002
3.154971e+003, 1.638455e-002
3.156900e+003, 1.595501e-002
3.158828e+003, 1.576614e-002
3.160757e+003, 1.620398e-002
3.162685e+003, 1.673434e-002
3.164614e+003, 1.676893e-002
3.166542e+003, 1.680129e-002
3.168471e+003, 1.655862e-002
3.170399e+003, 1.611228e-002
3.172328e+003, 1.660880e-002
3.174256e+003, 1.685459e-002
3.176185e+003, 1.619552e-002
3.178113e+003, 1.540569e-002
3.180042e+003, 1.503995e-002
3.181970e+003, 1.543900e-002
3.183898e+003, 1.601823e-002
3.185827e+003, 1.655259e-002
3.187755e+003, 1.583971e-002
3.189684e+003, 1.535450e-002
3.191612e+003, 1.610238e-002
3.193541e+003, 1.661487e-002
3.195469e+003, 1.657931e-002
3.197398e+003, 1.651518e-002
3.199326e+003, 1.610756e-002
3.201255e+003, 1.553624e-002
3.203183e+003, 1.457365e-002
3.205112e+003, 1.443179e-002
3.207040e+003, 1.530630e-002
3.208969e+003, 1.589128e-002
3.210897e+003, 1.611241e-002
3.212825e+003, 1.686577e-002
3.214754e+003, 1.715525e-002
3.216682e+003, 1.655461e-002
3.218611e+003, 1.606698e-002
3.220539e+003, 1.582286e-002
3.222468e+003, 1.657359e-002
3.224396e+003, 1.602511e-002
3.226325e+003, 1.653550e-002
3.228253e+003, 1.744403e-002
3.230182e+003, 1.731885e-002
3.232110e+003, 1.764392e-002
3.234039e+003, 1.754245e-002
3.235967e+003, 1.726607e-002
3.237896e+003, 1.753614e-002
3.239824e+003, 1.756544e-002
3.241752e+003, 1.646307e-002
3.243681e+003, 1.493216e-002
3.245609e+003, 1.475569e-002
3.247538e+003, 1.546523e-002
3.249466e+003, 1.604640e-002
3.251395e+003, 1.656404e-002
3.253323e+003, 1.620770e-002
3.255252e+003, 1.630013e-002
3.257180e+003, 1.702630e-002
3.259109e+003, 1.715721e-002
3.261037e+003, 1.705583e-002
3.262966e+003, 1.700699e-002
3.264894e+003, 1.663714e-002
3.266823e+003, 1.585327e-002
3.268751e+003, 1.566153e-002
3.270679e+003, 1.625486e-002
3.272608e+003, 1.700339e-002
3.274536e+003, 1.779664e-002
3.276465e+003, 1.773690e-002
3.278393e+003, 1.718357e-002
3.280322e+003, 1.700582e-002
3.282250e+003, 1.672438e-002
3.284179e+003, 1.608190e-002
3.286107e+003, 1.710437e-002
3.288036e+003, 1.744770e-002
3.289964e+003, 1.631849e-002
3.291893e+003, 1.606129e-002
3.293821e+003, 1.743555e-002
3.295750e+003, 1.811841e-002
3.297678e+003, 1.817357e-002
3.299606e+003, 1.800269e-002
3.301535e+003, 1.776113e-002
3.303463e+003, 1.772474e-002
3.305392e+003, 1.662563e-002
3.307320e+003, 1.596326e-002
3.309249e+003, 1.653360e-002
3.311177e+003, 1.651918e-002
3.313106e+003, 1.666141e-002
3.315034e+003, 1.671941e-002
3.316963e+003, 1.676558e-002
3.318891e+003, 1.668764e-002
3.320820e+003, 1.755050e-002
3.322748e+003, 1.773000e-002
3.324677e+003, 1.738601e-002
3.326605e+003, 1.637813e-002
3.328533e+003, 1.666148e-002
3.330462e+003, 1.723232e-002
3.332390e+003, 1.698391e-002
3.334319e+003, 1.744371e-002
3.336247e+003, 1.731185e-002
3.338176e+003, 1.759326e-002
3.340104e+003, 1.743344e-002
3.342033e+003, 1.705921e-002
3.343961e+003, 1.691445e-002
3.345890e+003, 1.684972e-002
3.347818e+003, 1.639013e-002
3.349747e+003, 1.687389e-002
3.351675e+003, 1.802562e-002
3.353604e+003, 1.832286e-002
3.355532e+003, 1.748660e-002
3.357460e+003, 1.761652e-002
3.359389e+003, 1.829508e-002
3.361317e+003, 1.853619e-002
3.363246e+003, 1.758364e-002
3.365174e+003, 1.701132e-002
3.367103e+003, 1.785417e-002
3.369031e+003, 1.890312e-002
3.370960e+003, 1.865487e-002
3.372888e+003, 1.764428e-002
3.374817e+003, 1.825419e-002
3.376745e+003, 1.799656e-002
3.378674e+003, 1.772946e-002
3.380602e+003, 1.756134e-002
3.382531e+003, 1.729064e-002
3.384459e+003, 1.785118e-002
3.386387e+003, 1.802477e-002
3.388316e+003, 1.697354e-002
3.390244e+003, 1.747086e-002
3.392173e+003, 1.884328e-002
3.394101e+003, 1.763361e-002
3.396030e+003, 1.679265e-002
3.397958e+003, 1.740173e-002
3.399887e+003, 1.810370e-002
3.401815e+003, 1.814540e-002
3.403744e+003, 1.738951e-002
3.405672e+003, 1.708600e-002
3.407601e+003, 1.785604e-002
3.409529e+003, 1.856572e-002
3.411458e+003, 1.858917e-002
3.413386e+003, 1.876272e-002
3.415314e+003, 1.854468e-002
3.417243e+003, 1.776750e-002
3.419171e+003, 1.736930e-002
3.421100e+003, 1.718764e-002
3.423028e+003, 1.783102e-002
3.424957e+003, 1.891309e-002
3.426885e+003, 1.874959e-002
3.428814e+003, 1.832581e-002
3.430742e+003, 1.760317e-002
3.432671e+003, 1.876915e-002
3.434599e+003, 1.981842e-002
3.436528e+003, 1.989351e-002
3.438456e+003, 1.996248e-002
3.440385e+003, 1.949326e-002
3.442313e+003, 1.897001e-002
3.444241e+003, 1.919079e-002
3.446170e+003, 1.875651e-002
3.448098e+003, 1.835684e-002
3.450027e+003, 1.814836e-002
3.451955e+003, 1.887771e-002
3.453884e+003, 1.897430e-002
3.455812e+003, 1.879973e-002
3.457741e+003, 1.829480e-002
3.459669e+003, 1.846184e-002
3.461598e+003, 1.967301e-002
3.463526e+003, 1.987369e-002
3.465455e+003, 1.982185e-002
3.467383e+003, 1.953928e-002
3.469312e+003, 1.915629e-002
3.471240e+003, 1.989204e-002
3.473168e+003, 1.950710e-002
3.475097e+003, 1.962853e-002
3.477025e+003, 1.985956e-002
3.478954e+003, 1.859099e-002
3.480882e+003, 1.807513e-002
3.482811e+003, 1.860978e-002
3.484739e+003, 1.998212e-002
3.486668e+003, 2.061873e-002
3.488596e+003, 2.015136e-002
3.490525e+003, 1.954200e-002
3.492453e+003, 1.968614e-002
3.494382e+003, 1.905688e-002
3.496310e+003, 1.914110e-002
3.498239e+003, 2.111336e-002
3.500167e+003, 2.126979e-002
3.502095e+003, 1.885246e-002
3.504024e+003, 1.755223e-002
3.505952e+003, 1.819787e-002
3.507881e+003, 1.985839e-002
3.509809e+003, 2.015529e-002
3.511738e+003, 1.925008e-002
3.513666e+003, 1.874843e-002
3.515595e+003, 1.916918e-002
3.517523e+003, 1.872868e-002
3.519452e+003, 1.856479e-002
3.521380e+003, 1.990343e-002
3.523309e+003, 2.055010e-002
3.525237e+003, 1.965932e-002
3.527166e+003, 1.844927e-002
3.529094e+003, 1.812637e-002
3.531022e+003, 1.851054e-002
3.532951e+003, 1.759107e-002
3.534879e+003, 1.644648e-002
3.536808e+003, 1.730525e-002
3.538736e+003, 1.748156e-002
3.540665e+003, 1.838891e-002
3.542593e+003, 1.836305e-002
3.544522e+003, 1.959395e-002
3.546450e+003, 2.110683e-002
3.548379e+003, 2.135118e-002
3.550307e+003, 2.040314e-002
3.552236e+003, 1.970634e-002
3.554164e+003, 2.011325e-002
3.556093e+003, 1.991621e-002
3.558021e+003, 2.069789e-002
3.559949e+003, 2.033007e-002
3.561878e+003, 1.912810e-002
3.563806e+003, 1.952166e-002
3.565735e+003, 1.945010e-002
3.567663e+003, 1.964108e-002
3.569592e+003, 2.074592e-002
3.571520e+003, 2.190909e-002
3.573449e+003, 2.144500e-002
3.575377e+003, 2.079863e-002
3.577306e+003, 2.032976e-002
3.579234e+003, 1.953466e-002
3.581163e+003, 1.901490e-002
3.583091e+003, 1.950916e-002
3.585020e+003, 1.947380e-002
3.586948e+003, 1.890058e-002
3.588876e+003, 1.957962e-002
3.590805e+003, 1.997937e-002
3.592733e+003, 2.057902e-002
3.594662e+003, 2.128737e-002
3.596590e+003, 2.017371e-002
3.598519e+003, 1.997679e-002
3.600447e+003, 2.017121e-002
3.602376e+003, 1.996166e-002
3.604304e+003, 2.056125e-002
3.606233e+003, 2.018047e-002
3.608161e+003, 1.966722e-002
3.610090e+003, 1.888839e-002
3.612018e+003, 1.800948e-002
3.613947e+003, 1.742773e-002
3.615875e+003, 1.714941e-002
3.617803e+003, 1.806581e-002
3.619732e+003, 1.778667e-002
3.621660e+003, 1.783813e-002
3.623589e+003, 1.919189e-002
3.625517e+003, 1.842498e-002
3.627446e+003, 1.772194e-002
3.629374e+003, 1.991431e-002
3.631303e+003, 2.032701e-002
3.633231e+003, 1.911654e-002
3.635160e+003, 2.047666e-002
3.637088e+003, 2.122874e-002
3.639017e+003, 1.944551e-002
3.640945e+003, 1.733599e-002
3.642874e+003, 1.738352e-002
3.644802e+003, 1.830177e-002
3.646730e+003, 1.918026e-002
3.648659e+003, 2.110747e-002
3.650587e+003, 2.023673e-002
3.652516e+003, 1.794213e-002
3.654444e+003, 1.699054e-002
3.656373e+003, 1.812820e-002
3.658301e+003, 1.889708e-002
3.660230e+003, 1.911367e-002
3.662158e+003, 1.926503e-002
3.664087e+003, 1.974565e-002
3.666015e+003, 1.999285e-002
3.667944e+003, 1.880763e-002
3.669872e+003, 1.771459e-002
3.671801e+003, 1.761837e-002
3.673729e+003, 1.773557e-002
3.675657e+003, 1.928980e-002
3.677586e+003, 1.969738e-002
3.679514e+003, 1.884252e-002
3.681443e+003, 2.007806e-002
3.683371e+003, 2.163868e-002
3.685300e+003, 2.006830e-002
3.687228e+003, 1.811674e-002
3.689157e+003, 1.758701e-002
3.691085e+003, 1.848265e-002
3.693014e+003, 1.936390e-002
3.694942e+003, 1.865223e-002
3.696871e+003, 1.929251e-002
3.698799e+003, 1.885019e-002
3.700728e+003, 1.811706e-002
3.702656e+003, 1.773897e-002
3.704584e+003, 1.783471e-002
3.706513e+003, 1.798161e-002
3.708441e+003, 1.807952e-002
3.710370e+003, 1.909176e-002
3.712298e+003, 1.874049e-002
3.714227e+003, 1.883788e-002
3.716155e+003, 2.078837e-002
3.718084e+003, 2.083899e-002
3.720012e+003, 1.899189e-002
3.721941e+003, 1.876810e-002
3.723869e+003, 1.914201e-002
3.725798e+003, 1.901117e-002
3.727726e+003, 1.842974e-002
3.729655e+003, 1.834309e-002
3.731583e+003, 1.868217e-002
3.733511e+003, 1.883020e-002
3.735440e+003, 1.796060e-002
3.737368e+003, 1.896419e-002
3.739297e+003, 1.999610e-002
3.741225e+003, 1.981484e-002
3.743154e+003, 1.906686e-002
3.745082e+003, 1.946529e-002
3.747011e+003, 1.933149e-002
3.748939e+003, 1.962074e-002
3.750868e+003, 1.924074e-002
3.752796e+003, 1.784191e-002
3.754725e+003, 1.812234e-002
3.756653e+003, 1.908645e-002
3.758582e+003, 2.019091e-002
3.760510e+003, 2.010327e-002
3.762438e+003, 1.899112e-002
3.764367e+003, 1.882593e-002
3.766295e+003, 1.929706e-002
3.768224e+003, 1.927918e-002
3.770152e+003, 1.999423e-002
3.772081e+003, 1.943973e-002
3.774009e+003, 1.917951e-002
3.775938e+003, 1.850980e-002
3.777866e+003, 1.785335e-002
3.779795e+003, 1.782225e-002
3.781723e+003, 2.057759e-002
3.783652e+003, 2.222142e-002
3.785580e+003, 2.100195e-002
3.787509e+003, 1.865925e-002
3.789437e+003, 1.714898e-002
3.791365e+003, 1.916755e-002
3.793294e+003, 2.147820e-002
3.795222e+003, 2.015109e-002
3.797151e+003, 1.921464e-002
3.799079e+003, 1.959833e-002
3.801008e+003, 2.027859e-002
3.802936e+003, 2.039114e-002
3.804865e+003, 1.940152e-002
3.806793e+003, 1.839754e-002
3.808722e+003, 1.842047e-002
3.810650e+003, 2.022857e-002
3.812579e+003, 2.022533e-002
3.814507e+003, 2.012424e-002
3.816436e+003, 2.015708e-002
3.818364e+003, 1.945862e-002
3.820292e+003, 1.999327e-002
3.822221e+003, 2.093853e-002
3.824149e+003, 2.066202e-002
3.826078e+003, 2.006996e-002
3.828006e+003, 2.090648e-002
3.829935e+003, 2.163057e-002
3.831863e+003, 2.146020e-002
3.833792e+003, 2.096679e-002
3.835720e+003, 2.100924e-002
3.837649e+003, 2.188810e-002
3.839577e+003, 2.231902e-002
3.841506e+003, 2.232999e-002
3.843434e+003, 2.117923e-002
3.845363e+003, 2.014516e-002
3.847291e+003, 2.032290e-002
3.849219e+003, 2.014739e-002
3.851148e+003, 1.951781e-002
3.853076e+003, 1.940387e-002
3.855005e+003, 2.021460e-002
3.856933e+003, 2.065942e-002
3.858862e+003, 1.939080e-002
3.860790e+003, 1.866738e-002
3.862719e+003, 1.889995e-002
3.864647e+003, 1.904811e-002
3.866576e+003, 1.943218e-002
3.868504e+003, 2.083098e-002
3.870433e+003, 2.086036e-002
3.872361e+003, 2.042983e-002
3.874290e+003, 1.983812e-002
3.876218e+003, 1.940832e-002
3.878146e+003, 1.936224e-002
3.880075e+003, 1.928209e-002
3.882003e+003, 1.965658e-002
3.883932e+003, 1.990581e-002
3.885860e+003, 2.065180e-002
3.887789e+003, 2.149939e-002
3.889717e+003, 2.185741e-002
3.891646e+003, 2.048947e-002
3.893574e+003, 1.826325e-002
3.895503e+003, 1.890771e-002
3.897431e+003, 1.940622e-002
3.899360e+003, 1.867984e-002
3.901288e+003, 2.051564e-002
3.903217e+003, 2.129139e-002
3.905145e+003, 2.062029e-002
3.907073e+003, 2.031233e-002
3.909002e+003, 2.054106e-002
3.910930e+003, 2.055546e-002
3.912859e+003, 2.076086e-002
3.914787e+003, 1.982811e-002
3.916716e+003, 1.894351e-002
3.918644e+003, 1.841484e-002
3.920573e+003, 1.867594e-002
3.922501e+003, 1.975080e-002
3.924430e+003, 2.082995e-002
3.926358e+003, 2.015182e-002
3.928287e+003, 1.834726e-002
3.930215e+003, 1.852753e-002
3.932144e+003, 1.927086e-002
3.934072e+003, 2.039033e-002
3.936000e+003, 2.033746e-002
3.937929e+003, 1.981447e-002
3.939857e+003, 2.086174e-002
3.941786e+003, 2.153022e-002
3.943714e+003, 2.020265e-002
3.945643e+003, 1.904604e-002
3.947571e+003, 1.906329e-002
3.949500e+003, 1.850153e-002
3.951428e+003, 1.874367e-002
3.953357e+003, 2.002661e-002
3.955285e+003, 2.047873e-002
3.957214e+003, 1.984939e-002
3.959142e+003, 1.975102e-002
3.961071e+003, 1.970284e-002
3.962999e+003, 1.917538e-002
3.964927e+003, 1.916937e-002
3.966856e+003, 2.143015e-002
3.968784e+003, 2.311773e-002
3.970713e+003, 2.264854e-002
3.972641e+003, 2.178832e-002
3.974570e+003, 2.139883e-002
3.976498e+003, 2.090761e-002
3.978427e+003, 1.989264e-002
3.980355e+003, 1.972580e-002
3.982284e+003, 1.949502e-002
3.984212e+003, 2.046081e-002
3.986141e+003, 2.149682e-002
3.988069e+003, 2.068861e-002
3.989998e+003, 1.905155e-002
3.991926e+003, 1.906787e-002
3.993854e+003, 2.114647e-002
3.995783e+003, 2.254619e-002
3.997711e+003, 2.224689e-002
3.999640e+003, 2.225762e-002
4.001568e+003, 0.000000e+000
##END=



