##NAMES=Celestine
##RRUFFID=R040007
##IDEAL CHEMISTRY=SrS^6+^O_4_
##LOCALITY=Coahuila, Mexico
##OWNER=RRUFF
##SOURCE=University of Arizona Mineral Museum
##DESCRIPTION=Blue tabular crystals
##STATUS=The identification of this mineral has been confirmed by X-ray diffraction and chemical analysis
##URL=rruff.info/R040007
##MEASURED CHEMISTRY=(Sr_0.95_Ba_0.04_Ca_0.01_)_Σ=1_S_1.00_O_4_; = Light bands. (Sr_0.99_Ba_0.01_)_Σ=1_S_1.00_O_4_; trace amounts of Ca = Dark bands
3.741225e+002, 2.944849e-003
3.760510e+002, 6.126654e-003
3.779795e+002, 5.404942e-003
3.799079e+002, 1.558078e-003
3.818364e+002, -1.869253e-003
3.837649e+002, 7.510465e-005
3.856933e+002, 2.480320e-003
3.876218e+002, 1.538448e-003
3.895503e+002, 3.796778e-003
3.914787e+002, 5.534192e-003
3.934072e+002, 5.776710e-003
3.953357e+002, 5.769080e-003
3.972641e+002, 5.144162e-003
3.991926e+002, 3.566507e-003
4.011211e+002, 5.910762e-003
4.030495e+002, 6.187542e-003
4.049780e+002, 4.728340e-003
4.069065e+002, 3.467963e-003
4.088349e+002, 5.390637e-003
4.107634e+002, 6.816058e-003
4.126919e+002, 6.955929e-003
4.146203e+002, 6.539476e-003
4.165488e+002, 5.688582e-003
4.184773e+002, 6.049491e-003
4.204057e+002, 6.396614e-003
4.223342e+002, 6.456469e-003
4.242627e+002, 6.573719e-003
4.261911e+002, 6.386710e-003
4.281196e+002, 6.306080e-003
4.300481e+002, 6.734163e-003
4.319765e+002, 6.940898e-003
4.339050e+002, 6.798584e-003
4.358335e+002, 7.157653e-003
4.377619e+002, 7.665813e-003
4.396904e+002, 7.637702e-003
4.416189e+002, 7.490730e-003
4.435473e+002, 7.921748e-003
4.454758e+002, 7.983614e-003
4.474043e+002, 8.240313e-003
4.493327e+002, 8.740258e-003
4.512612e+002, 9.069573e-003
4.531897e+002, 9.144735e-003
4.551181e+002, 9.544109e-003
4.570466e+002, 9.658336e-003
4.589751e+002, 1.006635e-002
4.609035e+002, 1.078684e-002
4.628320e+002, 1.113279e-002
4.647605e+002, 1.210773e-002
4.666889e+002, 1.364332e-002
4.686174e+002, 1.416583e-002
4.705459e+002, 1.465621e-002
4.724743e+002, 1.418376e-002
4.744028e+002, 1.396550e-002
4.763313e+002, 1.530352e-002
4.782597e+002, 1.599772e-002
4.801882e+002, 1.562455e-002
4.821167e+002, 1.520997e-002
4.840451e+002, 1.525266e-002
4.859736e+002, 1.518315e-002
4.879021e+002, 1.530923e-002
4.898305e+002, 1.579266e-002
4.917590e+002, 1.648084e-002
4.936875e+002, 1.707397e-002
4.956159e+002, 1.731161e-002
4.975444e+002, 1.742079e-002
4.994729e+002, 1.781460e-002
5.014013e+002, 1.829042e-002
5.033298e+002, 1.875818e-002
5.052583e+002, 1.921164e-002
5.071867e+002, 1.961117e-002
5.091152e+002, 1.973201e-002
5.110437e+002, 2.033482e-002
5.129721e+002, 2.133431e-002
5.149006e+002, 2.230624e-002
5.168290e+002, 2.285589e-002
5.187575e+002, 2.296270e-002
5.206860e+002, 2.351148e-002
5.226144e+002, 2.469201e-002
5.245429e+002, 2.555548e-002
5.264714e+002, 2.673541e-002
5.283998e+002, 2.792871e-002
5.303283e+002, 2.883282e-002
5.322568e+002, 3.020839e-002
5.341852e+002, 3.221285e-002
5.361137e+002, 3.351258e-002
5.380422e+002, 3.439451e-002
5.399706e+002, 3.576085e-002
5.418991e+002, 3.758122e-002
5.438276e+002, 3.936685e-002
5.457560e+002, 4.136517e-002
5.476845e+002, 4.357013e-002
5.496130e+002, 4.573062e-002
5.515414e+002, 4.776276e-002
5.534699e+002, 5.042545e-002
5.553984e+002, 5.391576e-002
5.573268e+002, 5.739313e-002
5.592553e+002, 6.059665e-002
5.611838e+002, 6.453069e-002
5.631122e+002, 6.919531e-002
5.650407e+002, 7.454959e-002
5.669692e+002, 8.059364e-002
5.688976e+002, 8.788533e-002
5.708261e+002, 9.599262e-002
5.727546e+002, 1.047400e-001
5.746830e+002, 1.152732e-001
5.766115e+002, 1.276884e-001
5.785400e+002, 1.416110e-001
5.804684e+002, 1.581941e-001
5.823969e+002, 1.776806e-001
5.843254e+002, 1.985476e-001
5.862538e+002, 2.217019e-001
5.881823e+002, 2.474842e-001
5.901108e+002, 2.747339e-001
5.920392e+002, 3.035266e-001
5.939677e+002, 3.323704e-001
5.958962e+002, 3.605670e-001
5.978246e+002, 3.873381e-001
5.997531e+002, 4.104530e-001
6.016816e+002, 4.263760e-001
6.036100e+002, 4.318124e-001
6.055385e+002, 4.252765e-001
6.074670e+002, 4.044551e-001
6.093954e+002, 3.694170e-001
6.113239e+002, 3.267840e-001
6.132524e+002, 2.840821e-001
6.151808e+002, 2.450565e-001
6.171093e+002, 2.106125e-001
6.190378e+002, 1.811968e-001
6.209662e+002, 1.559095e-001
6.228947e+002, 1.353017e-001
6.248232e+002, 1.206669e-001
6.267516e+002, 1.131358e-001
6.286801e+002, 1.135494e-001
6.306086e+002, 1.222122e-001
6.325370e+002, 1.385982e-001
6.344655e+002, 1.603934e-001
6.363940e+002, 1.815777e-001
6.383224e+002, 1.940797e-001
6.402509e+002, 1.950888e-001
6.421794e+002, 1.863232e-001
6.441078e+002, 1.712528e-001
6.460363e+002, 1.527939e-001
6.479648e+002, 1.332490e-001
6.498932e+002, 1.140646e-001
6.518217e+002, 9.617149e-002
6.537502e+002, 8.021076e-002
6.556786e+002, 6.638107e-002
6.576071e+002, 5.460782e-002
6.595356e+002, 4.464842e-002
6.614641e+002, 3.666556e-002
6.633925e+002, 3.078121e-002
6.653210e+002, 2.651574e-002
6.672495e+002, 2.330635e-002
6.691779e+002, 2.057157e-002
6.711064e+002, 1.835132e-002
6.730349e+002, 1.657777e-002
6.749633e+002, 1.504656e-002
6.768918e+002, 1.381342e-002
6.788203e+002, 1.285548e-002
6.807487e+002, 1.201530e-002
6.826772e+002, 1.120444e-002
6.846057e+002, 1.041841e-002
6.865341e+002, 9.806774e-003
6.884626e+002, 9.450537e-003
6.903911e+002, 9.196131e-003
6.923195e+002, 8.956879e-003
6.942480e+002, 8.817600e-003
6.961765e+002, 8.949063e-003
6.981049e+002, 9.021385e-003
7.000334e+002, 8.996474e-003
7.019619e+002, 8.949040e-003
7.038903e+002, 9.210241e-003
7.058188e+002, 9.368096e-003
7.077473e+002, 9.432380e-003
7.096757e+002, 9.542641e-003
7.116042e+002, 9.694994e-003
7.135327e+002, 9.746690e-003
7.154611e+002, 9.841016e-003
7.173896e+002, 9.837248e-003
7.193181e+002, 9.806027e-003
7.212465e+002, 9.871930e-003
7.231750e+002, 9.925656e-003
7.251035e+002, 9.981308e-003
7.270319e+002, 9.981278e-003
7.289604e+002, 9.995704e-003
7.308889e+002, 1.006895e-002
7.328173e+002, 1.014832e-002
7.347458e+002, 1.034475e-002
7.366743e+002, 1.044213e-002
7.386027e+002, 1.060940e-002
7.405312e+002, 1.087081e-002
7.424597e+002, 1.079380e-002
7.443881e+002, 1.080912e-002
7.463166e+002, 1.106954e-002
7.482451e+002, 1.124838e-002
7.501735e+002, 1.140991e-002
7.521020e+002, 1.156962e-002
7.540305e+002, 1.188475e-002
7.559589e+002, 1.210893e-002
7.578874e+002, 1.223162e-002
7.598159e+002, 1.237641e-002
7.617443e+002, 1.256878e-002
7.636728e+002, 1.300937e-002
7.656013e+002, 1.331955e-002
7.675297e+002, 1.350422e-002
7.694582e+002, 1.353845e-002
7.713867e+002, 1.353408e-002
7.733151e+002, 1.372320e-002
7.752436e+002, 1.397802e-002
7.771721e+002, 1.423436e-002
7.791005e+002, 1.447412e-002
7.810290e+002, 1.470369e-002
7.829575e+002, 1.496886e-002
7.848859e+002, 1.525033e-002
7.868144e+002, 1.544716e-002
7.887429e+002, 1.566556e-002
7.906713e+002, 1.609307e-002
7.925998e+002, 1.627743e-002
7.945283e+002, 1.641665e-002
7.964567e+002, 1.686103e-002
7.983852e+002, 1.723157e-002
8.003137e+002, 1.751036e-002
8.022421e+002, 1.782561e-002
8.041706e+002, 1.828082e-002
8.060991e+002, 1.873572e-002
8.080275e+002, 1.901047e-002
8.099560e+002, 1.927121e-002
8.118845e+002, 1.979221e-002
8.138129e+002, 2.013820e-002
8.157414e+002, 2.028120e-002
8.176699e+002, 2.052250e-002
8.195983e+002, 2.093545e-002
8.215268e+002, 2.132392e-002
8.234553e+002, 2.157202e-002
8.253837e+002, 2.178270e-002
8.273122e+002, 2.210479e-002
8.292407e+002, 2.243445e-002
8.311691e+002, 2.259498e-002
8.330976e+002, 2.269677e-002
8.350261e+002, 2.292024e-002
8.369545e+002, 2.306641e-002
8.388830e+002, 2.324053e-002
8.408115e+002, 2.355742e-002
8.427399e+002, 2.389219e-002
8.446684e+002, 2.422973e-002
8.465969e+002, 2.460011e-002
8.485253e+002, 2.492857e-002
8.504538e+002, 2.530571e-002
8.523823e+002, 2.553654e-002
8.543107e+002, 2.575710e-002
8.562392e+002, 2.609972e-002
8.581677e+002, 2.662691e-002
8.600961e+002, 2.706255e-002
8.620246e+002, 2.750722e-002
8.639531e+002, 2.793457e-002
8.658815e+002, 2.834077e-002
8.678100e+002, 2.884050e-002
8.697385e+002, 2.941003e-002
8.716669e+002, 3.000494e-002
8.735954e+002, 3.059852e-002
8.755239e+002, 3.125636e-002
8.774523e+002, 3.194723e-002
8.793808e+002, 3.241442e-002
8.813093e+002, 3.299162e-002
8.832377e+002, 3.367659e-002
8.851662e+002, 3.446852e-002
8.870947e+002, 3.528421e-002
8.890231e+002, 3.611488e-002
8.909516e+002, 3.694750e-002
8.928801e+002, 3.787708e-002
8.948085e+002, 3.878485e-002
8.967370e+002, 3.967657e-002
8.986655e+002, 4.073033e-002
9.005939e+002, 4.185443e-002
9.025224e+002, 4.287639e-002
9.044509e+002, 4.412378e-002
9.063793e+002, 4.553648e-002
9.083078e+002, 4.691769e-002
9.102363e+002, 4.816623e-002
9.121647e+002, 4.940848e-002
9.140932e+002, 5.088234e-002
9.160217e+002, 5.242955e-002
9.179501e+002, 5.406681e-002
9.198786e+002, 5.575678e-002
9.218071e+002, 5.741880e-002
9.237355e+002, 5.916565e-002
9.256640e+002, 6.081033e-002
9.275925e+002, 6.273419e-002
9.295209e+002, 6.463098e-002
9.314494e+002, 6.668988e-002
9.333779e+002, 6.886882e-002
9.353063e+002, 7.086708e-002
9.372348e+002, 7.309748e-002
9.391633e+002, 7.559180e-002
9.410917e+002, 7.826745e-002
9.430202e+002, 8.109457e-002
9.449487e+002, 8.403893e-002
9.468771e+002, 8.719158e-002
9.488056e+002, 9.037866e-002
9.507341e+002, 9.386935e-002
9.526625e+002, 9.765235e-002
9.545910e+002, 1.016626e-001
9.565195e+002, 1.058847e-001
9.584479e+002, 1.104957e-001
9.603764e+002, 1.153358e-001
9.623049e+002, 1.205761e-001
9.642333e+002, 1.264649e-001
9.661618e+002, 1.328413e-001
9.680903e+002, 1.398374e-001
9.700187e+002, 1.480719e-001
9.719472e+002, 1.573397e-001
9.738757e+002, 1.665433e-001
9.758041e+002, 1.749153e-001
9.777326e+002, 1.849792e-001
9.796611e+002, 1.980015e-001
9.815895e+002, 2.139075e-001
9.835180e+002, 2.335061e-001
9.854465e+002, 2.593992e-001
9.873749e+002, 2.946638e-001
9.893034e+002, 3.344695e-001
9.912319e+002, 3.553194e-001
9.931603e+002, 3.449341e-001
9.950888e+002, 3.001954e-001
9.970173e+002, 2.291793e-001
9.989457e+002, 1.775604e-001
1.000874e+003, 1.608328e-001
1.002803e+003, 1.649069e-001
1.004731e+003, 1.776180e-001
1.006660e+003, 1.931253e-001
1.008588e+003, 2.093747e-001
1.010517e+003, 2.255758e-001
1.012445e+003, 2.414854e-001
1.014373e+003, 2.570632e-001
1.016302e+003, 2.726380e-001
1.018230e+003, 2.878722e-001
1.020159e+003, 3.028050e-001
1.022087e+003, 3.175161e-001
1.024016e+003, 3.321198e-001
1.025944e+003, 3.467460e-001
1.027873e+003, 3.619010e-001
1.029801e+003, 3.769532e-001
1.031730e+003, 3.921815e-001
1.033658e+003, 4.075353e-001
1.035587e+003, 4.232550e-001
1.037515e+003, 4.394360e-001
1.039443e+003, 4.558019e-001
1.041372e+003, 4.721197e-001
1.043300e+003, 4.884698e-001
1.045229e+003, 5.048469e-001
1.047157e+003, 5.212561e-001
1.049086e+003, 5.375168e-001
1.051014e+003, 5.535771e-001
1.052943e+003, 5.686032e-001
1.054871e+003, 5.828440e-001
1.056800e+003, 5.961466e-001
1.058728e+003, 6.083630e-001
1.060657e+003, 6.193334e-001
1.062585e+003, 6.283165e-001
1.064514e+003, 6.344457e-001
1.066442e+003, 6.387347e-001
1.068370e+003, 6.404147e-001
1.070299e+003, 6.400903e-001
1.072227e+003, 6.379238e-001
1.074156e+003, 6.332697e-001
1.076084e+003, 6.267929e-001
1.078013e+003, 6.193091e-001
1.079941e+003, 6.101408e-001
1.081870e+003, 5.998064e-001
1.083798e+003, 5.889935e-001
1.085727e+003, 5.775621e-001
1.087655e+003, 5.654783e-001
1.089584e+003, 5.534161e-001
1.091512e+003, 5.413840e-001
1.093441e+003, 5.293848e-001
1.095369e+003, 5.172940e-001
1.097297e+003, 5.050408e-001
1.099226e+003, 4.926721e-001
1.101154e+003, 4.804190e-001
1.103083e+003, 4.688523e-001
1.105011e+003, 4.582202e-001
1.106940e+003, 4.481560e-001
1.108868e+003, 4.386823e-001
1.110797e+003, 4.296589e-001
1.112725e+003, 4.209139e-001
1.114654e+003, 4.118855e-001
1.116582e+003, 4.025016e-001
1.118511e+003, 3.932216e-001
1.120439e+003, 3.840447e-001
1.122368e+003, 3.745753e-001
1.124296e+003, 3.652699e-001
1.126224e+003, 3.562361e-001
1.128153e+003, 3.475330e-001
1.130081e+003, 3.389838e-001
1.132010e+003, 3.307329e-001
1.133938e+003, 3.226603e-001
1.135867e+003, 3.147690e-001
1.137795e+003, 3.067911e-001
1.139724e+003, 2.986799e-001
1.141652e+003, 2.905918e-001
1.143581e+003, 2.825838e-001
1.145509e+003, 2.744435e-001
1.147438e+003, 2.663663e-001
1.149366e+003, 2.584367e-001
1.151295e+003, 2.505688e-001
1.153223e+003, 2.426711e-001
1.155151e+003, 2.349549e-001
1.157080e+003, 2.276043e-001
1.159008e+003, 2.203350e-001
1.160937e+003, 2.132209e-001
1.162865e+003, 2.067315e-001
1.164794e+003, 2.010520e-001
1.166722e+003, 1.962003e-001
1.168651e+003, 1.921128e-001
1.170579e+003, 1.890305e-001
1.172508e+003, 1.871921e-001
1.174436e+003, 1.866608e-001
1.176365e+003, 1.870888e-001
1.178293e+003, 1.883564e-001
1.180222e+003, 1.898609e-001
1.182150e+003, 1.913675e-001
1.184078e+003, 1.929302e-001
1.186007e+003, 1.948692e-001
1.187935e+003, 1.969213e-001
1.189864e+003, 1.989963e-001
1.191792e+003, 2.008303e-001
1.193721e+003, 2.020531e-001
1.195649e+003, 2.024181e-001
1.197578e+003, 2.018669e-001
1.199506e+003, 2.003058e-001
1.201435e+003, 1.975823e-001
1.203363e+003, 1.938926e-001
1.205292e+003, 1.895185e-001
1.207220e+003, 1.843724e-001
1.209149e+003, 1.787941e-001
1.211077e+003, 1.727391e-001
1.213005e+003, 1.663239e-001
1.214934e+003, 1.596836e-001
1.216862e+003, 1.530066e-001
1.218791e+003, 1.463297e-001
1.220719e+003, 1.394465e-001
1.222648e+003, 1.323830e-001
1.224576e+003, 1.253937e-001
1.226505e+003, 1.185227e-001
1.228433e+003, 1.118621e-001
1.230362e+003, 1.053798e-001
1.232290e+003, 9.932584e-002
1.234219e+003, 9.406864e-002
1.236147e+003, 8.984984e-002
1.238076e+003, 8.668932e-002
1.240004e+003, 8.462632e-002
1.241932e+003, 8.293669e-002
1.243861e+003, 7.974610e-002
1.245789e+003, 7.378303e-002
1.247718e+003, 6.579069e-002
1.249646e+003, 5.708771e-002
1.251575e+003, 4.896393e-002
1.253503e+003, 4.187131e-002
1.255432e+003, 3.567190e-002
1.257360e+003, 3.030847e-002
1.259289e+003, 2.598685e-002
1.261217e+003, 2.256791e-002
1.263146e+003, 1.976570e-002
1.265074e+003, 1.751813e-002
1.267003e+003, 1.556550e-002
1.268931e+003, 1.383386e-002
1.270859e+003, 1.255871e-002
1.272788e+003, 1.149151e-002
1.274716e+003, 1.064703e-002
1.276645e+003, 9.899883e-003
1.278573e+003, 9.262432e-003
1.280502e+003, 8.735094e-003
1.282430e+003, 8.181515e-003
1.284359e+003, 7.566934e-003
1.286287e+003, 7.043830e-003
1.288216e+003, 6.439621e-003
1.290144e+003, 5.804921e-003
1.292073e+003, 5.434297e-003
1.294001e+003, 5.122636e-003
1.295930e+003, 4.698006e-003
1.297858e+003, 4.278056e-003
1.299786e+003, 4.044990e-003
1.301715e+003, 3.969088e-003
1.303643e+003, 3.743451e-003
1.305572e+003, 3.443404e-003
1.307500e+003, 3.178039e-003
1.309429e+003, 2.906813e-003
1.311357e+003, 2.693800e-003
1.313286e+003, 2.588929e-003
1.315214e+003, 2.365339e-003
1.317143e+003, 2.194179e-003
1.319071e+003, 1.976858e-003
1.321000e+003, 1.643000e-003
1.322928e+003, 1.392758e-003
1.324857e+003, 1.332853e-003
1.326785e+003, 1.251010e-003
1.328714e+003, 1.013109e-003
1.330642e+003, 8.235714e-004
1.332570e+003, 7.224788e-004
1.334499e+003, 5.552038e-004
1.336427e+003, 5.395403e-004
1.338356e+003, 3.860314e-004
1.340284e+003, 2.705957e-004
1.342213e+003, 2.567257e-004
1.344141e+003, 2.510551e-004
1.346070e+003, 1.866109e-004
1.347998e+003, 1.540196e-004
1.349927e+003, 2.280429e-004
1.351855e+003, 1.163786e-004
1.353784e+003, -3.106057e-005
1.355712e+003, -5.974510e-006
1.357641e+003, 7.581215e-006
1.359569e+003, 1.288967e-004
1.361497e+003, 1.540114e-004
1.363426e+003, 1.382137e-004
1.365354e+003, 1.202870e-004
1.367283e+003, 1.036266e-004
1.369211e+003, 1.247618e-004
1.371140e+003, 1.905339e-004
1.373068e+003, 1.232058e-004
1.374997e+003, 5.579324e-006
1.376925e+003, -5.335588e-006
1.378854e+003, 2.076791e-005
1.380782e+003, -4.478268e-005
1.382711e+003, -1.769661e-004
1.384639e+003, -1.936991e-004
1.386568e+003, 3.026862e-005
1.388496e+003, 4.759171e-005
1.390424e+003, -2.704252e-005
1.392353e+003, -1.056541e-004
1.394281e+003, -1.112222e-004
1.396210e+003, -1.559331e-004
1.398138e+003, -1.973857e-004
1.400067e+003, -2.178939e-004
1.401995e+003, -1.197587e-004
1.403924e+003, -9.282868e-005
1.405852e+003, -9.367156e-005
1.407781e+003, -8.024509e-005
1.409709e+003, -5.954197e-005
1.411638e+003, 1.799672e-005
1.413566e+003, 1.374055e-004
1.415495e+003, 1.322292e-004
1.417423e+003, 1.145878e-004
1.419351e+003, 1.973768e-004
1.421280e+003, 1.701667e-004
1.423208e+003, 9.817134e-005
1.425137e+003, -1.825895e-005
1.427065e+003, -1.573896e-004
1.428994e+003, -2.751870e-004
1.430922e+003, -2.772346e-004
1.432851e+003, -3.085147e-004
1.434779e+003, -3.769828e-004
1.436708e+003, -3.459139e-004
1.438636e+003, -4.152795e-004
1.440565e+003, -4.438489e-004
1.442493e+003, -4.351914e-004
1.444422e+003, -4.355985e-004
1.446350e+003, -4.160320e-004
1.448278e+003, -3.223145e-004
1.450207e+003, -2.627730e-004
1.452135e+003, -1.427928e-004
1.454064e+003, 7.957582e-005
1.455992e+003, 3.994406e-004
1.457921e+003, 3.826500e-004
1.459849e+003, 8.343122e-005
1.461778e+003, -9.673913e-005
1.463706e+003, -1.284481e-004
1.465635e+003, -8.172695e-005
1.467563e+003, -1.172402e-004
1.469492e+003, -1.748463e-004
1.471420e+003, -1.593959e-004
1.473349e+003, -8.699336e-005
1.475277e+003, -1.519688e-004
1.477205e+003, -2.836055e-004
1.479134e+003, -3.617737e-004
1.481062e+003, -3.598532e-004
1.482991e+003, -5.133875e-004
1.484919e+003, -5.412542e-004
1.486848e+003, -3.244638e-004
1.488776e+003, -2.462019e-004
1.490705e+003, -2.992131e-004
1.492633e+003, -4.133462e-004
1.494562e+003, -3.104513e-004
1.496490e+003, -1.337097e-004
1.498419e+003, -2.562396e-004
1.500347e+003, -3.271876e-004
1.502276e+003, -3.280654e-004
1.504204e+003, -1.635395e-004
1.506132e+003, 1.589655e-004
1.508061e+003, 1.501583e-004
1.509989e+003, -5.805300e-005
1.511918e+003, -1.612143e-004
1.513846e+003, -7.186054e-005
1.515775e+003, 1.380820e-004
1.517703e+003, 2.335194e-004
1.519632e+003, 3.558118e-004
1.521560e+003, 4.472025e-004
1.523489e+003, 3.069472e-004
1.525417e+003, 3.687683e-004
1.527346e+003, 5.070682e-004
1.529274e+003, 5.778859e-004
1.531203e+003, 6.535094e-004
1.533131e+003, 7.689972e-004
1.535059e+003, 6.510121e-004
1.536988e+003, 8.717677e-004
1.538916e+003, 1.419585e-003
1.540845e+003, 1.436195e-003
1.542773e+003, 1.243959e-003
1.544702e+003, 1.288331e-003
1.546630e+003, 1.290595e-003
1.548559e+003, 1.240890e-003
1.550487e+003, 1.383981e-003
1.552416e+003, 1.545395e-003
1.554344e+003, 1.678796e-003
1.556273e+003, 1.802984e-003
1.558201e+003, 2.229003e-003
1.560130e+003, 2.251096e-003
1.562058e+003, 1.719945e-003
1.563986e+003, 1.643413e-003
1.565915e+003, 1.747642e-003
1.567843e+003, 1.766508e-003
1.569772e+003, 1.901873e-003
1.571700e+003, 1.915642e-003
1.573629e+003, 1.867581e-003
1.575557e+003, 2.001844e-003
1.577486e+003, 1.911040e-003
1.579414e+003, 1.855334e-003
1.581343e+003, 1.905669e-003
1.583271e+003, 1.851021e-003
1.585200e+003, 1.827203e-003
1.587128e+003, 1.730356e-003
1.589057e+003, 1.822135e-003
1.590985e+003, 2.061594e-003
1.592913e+003, 2.111629e-003
1.594842e+003, 2.311864e-003
1.596770e+003, 2.497183e-003
1.598699e+003, 2.500994e-003
1.600627e+003, 2.600460e-003
1.602556e+003, 2.714293e-003
1.604484e+003, 2.644017e-003
1.606413e+003, 2.606909e-003
1.608341e+003, 2.557887e-003
1.610270e+003, 2.497820e-003
1.612198e+003, 2.476204e-003
1.614127e+003, 2.617811e-003
1.616055e+003, 2.917243e-003
1.617984e+003, 2.773774e-003
1.619912e+003, 2.534204e-003
1.621840e+003, 2.582794e-003
1.623769e+003, 2.606762e-003
1.625697e+003, 2.569310e-003
1.627626e+003, 2.444572e-003
1.629554e+003, 2.273138e-003
1.631483e+003, 2.365748e-003
1.633411e+003, 2.719150e-003
1.635340e+003, 2.984365e-003
1.637268e+003, 2.805464e-003
1.639197e+003, 2.590257e-003
1.641125e+003, 2.601813e-003
1.643054e+003, 2.741367e-003
1.644982e+003, 3.154840e-003
1.646911e+003, 3.259342e-003
1.648839e+003, 2.971578e-003
1.650767e+003, 3.041625e-003
1.652696e+003, 3.484155e-003
1.654624e+003, 3.116837e-003
1.656553e+003, 2.746096e-003
1.658481e+003, 2.644440e-003
1.660410e+003, 2.495849e-003
1.662338e+003, 2.577791e-003
1.664267e+003, 2.500931e-003
1.666195e+003, 2.417747e-003
1.668124e+003, 2.577555e-003
1.670052e+003, 2.554659e-003
1.671981e+003, 2.432369e-003
1.673909e+003, 2.425661e-003
1.675838e+003, 2.297546e-003
1.677766e+003, 2.164526e-003
1.679694e+003, 2.245839e-003
1.681623e+003, 2.367303e-003
1.683551e+003, 2.747480e-003
1.685480e+003, 2.582313e-003
1.687408e+003, 2.094717e-003
1.689337e+003, 1.971441e-003
1.691265e+003, 1.779870e-003
1.693194e+003, 1.840899e-003
1.695122e+003, 2.365647e-003
1.697051e+003, 2.398410e-003
1.698979e+003, 2.345964e-003
1.700908e+003, 2.372377e-003
1.702836e+003, 1.982409e-003
1.704765e+003, 1.954301e-003
1.706693e+003, 2.004826e-003
1.708621e+003, 2.034055e-003
1.710550e+003, 1.979753e-003
1.712478e+003, 1.957413e-003
1.714407e+003, 1.917762e-003
1.716335e+003, 2.105190e-003
1.718264e+003, 2.169167e-003
1.720192e+003, 1.853681e-003
1.722121e+003, 1.873607e-003
1.724049e+003, 1.907437e-003
1.725978e+003, 1.789013e-003
1.727906e+003, 1.805193e-003
1.729835e+003, 1.937301e-003
1.731763e+003, 2.202128e-003
1.733692e+003, 2.384474e-003
1.735620e+003, 2.322517e-003
1.737548e+003, 2.167171e-003
1.739477e+003, 2.015790e-003
1.741405e+003, 1.833848e-003
1.743334e+003, 1.478417e-003
1.745262e+003, 1.061615e-003
1.747191e+003, 7.735693e-004
1.749119e+003, 8.802499e-004
1.751048e+003, 1.012281e-003
1.752976e+003, 7.942299e-004
1.754905e+003, 8.037260e-004
1.756833e+003, 9.733913e-004
1.758762e+003, 7.327084e-004
1.760690e+003, 7.186878e-004
1.762619e+003, 7.459592e-004
1.764547e+003, 7.492415e-004
1.766475e+003, 8.177401e-004
1.768404e+003, 9.567309e-004
1.770332e+003, 9.960177e-004
1.772261e+003, 1.076316e-003
1.774189e+003, 1.086503e-003
1.776118e+003, 1.052918e-003
1.778046e+003, 1.186228e-003
1.779975e+003, 1.259236e-003
1.781903e+003, 1.128389e-003
1.783832e+003, 1.177863e-003
1.785760e+003, 1.335546e-003
1.787689e+003, 1.268464e-003
1.789617e+003, 1.182835e-003
1.791546e+003, 1.175915e-003
1.793474e+003, 1.083223e-003
1.795402e+003, 1.037100e-003
1.797331e+003, 1.047885e-003
1.799259e+003, 1.119763e-003
1.801188e+003, 1.259518e-003
1.803116e+003, 1.295106e-003
1.805045e+003, 1.234740e-003
1.806973e+003, 1.208366e-003
1.808902e+003, 1.341800e-003
1.810830e+003, 1.405270e-003
1.812759e+003, 1.277902e-003
1.814687e+003, 1.033466e-003
1.816616e+003, 8.677043e-004
1.818544e+003, 1.080334e-003
1.820473e+003, 1.216078e-003
1.822401e+003, 1.107561e-003
1.824329e+003, 1.156748e-003
1.826258e+003, 1.346470e-003
1.828186e+003, 1.420715e-003
1.830115e+003, 1.324489e-003
1.832043e+003, 1.427082e-003
1.833972e+003, 1.394684e-003
1.835900e+003, 1.170179e-003
1.837829e+003, 1.356102e-003
1.839757e+003, 1.385566e-003
1.841686e+003, 1.314531e-003
1.843614e+003, 1.206832e-003
1.845543e+003, 1.337339e-003
1.847471e+003, 1.409021e-003
1.849400e+003, 1.453170e-003
1.851328e+003, 1.492001e-003
1.853256e+003, 1.488401e-003
1.855185e+003, 1.387121e-003
1.857113e+003, 1.326015e-003
1.859042e+003, 1.286193e-003
1.860970e+003, 1.434418e-003
1.862899e+003, 1.421883e-003
1.864827e+003, 1.282440e-003
1.866756e+003, 1.225859e-003
1.868684e+003, 1.478254e-003
1.870613e+003, 1.583746e-003
1.872541e+003, 1.409483e-003
1.874470e+003, 1.104468e-003
1.876398e+003, 1.261624e-003
1.878327e+003, 1.442456e-003
1.880255e+003, 1.212728e-003
1.882183e+003, 1.112095e-003
1.884112e+003, 1.124769e-003
1.886040e+003, 1.479161e-003
1.887969e+003, 1.600914e-003
1.889897e+003, 1.351821e-003
1.891826e+003, 1.487081e-003
1.893754e+003, 1.466036e-003
1.895683e+003, 1.468383e-003
1.897611e+003, 1.944239e-003
1.899540e+003, 1.625152e-003
1.901468e+003, 1.416479e-003
1.903397e+003, 1.657836e-003
1.905325e+003, 1.314939e-003
1.907254e+003, 1.292348e-003
1.909182e+003, 1.438422e-003
1.911110e+003, 1.238114e-003
1.913039e+003, 1.499166e-003
1.914967e+003, 1.891013e-003
1.916896e+003, 2.037330e-003
1.918824e+003, 1.870048e-003
1.920753e+003, 1.821774e-003
1.922681e+003, 1.750386e-003
1.924610e+003, 9.794962e-004
1.926538e+003, 6.498701e-004
1.928467e+003, 7.153545e-004
1.930395e+003, 9.511440e-004
1.932324e+003, 1.268563e-003
1.934252e+003, 1.333366e-003
1.936181e+003, 1.539254e-003
1.938109e+003, 1.681722e-003
1.940037e+003, 1.262973e-003
1.941966e+003, 1.007898e-003
1.943894e+003, 6.723586e-004
1.945823e+003, 8.222578e-004
1.947751e+003, 1.260023e-003
1.949680e+003, 8.466216e-004
1.951608e+003, 2.901235e-004
1.953537e+003, 3.036188e-004
1.955465e+003, -2.152426e-005
1.957394e+003, -4.966346e-004
1.959322e+003, 8.570671e-005
1.961251e+003, 1.083225e-003
1.963179e+003, 1.046412e-003
1.965108e+003, 2.684176e-004
1.967036e+003, -8.265525e-004
1.968964e+003, -1.302561e-003
1.970893e+003, -1.143396e-003
1.972821e+003, -5.800235e-004
1.974750e+003, -7.570651e-004
1.976678e+003, -6.701516e-004
1.978607e+003, 4.042726e-004
1.980535e+003, 2.033432e-003
1.982464e+003, 1.256762e-003
1.984392e+003, -3.372983e-005
1.986321e+003, -1.282456e-004
1.988249e+003, -2.586315e-004
1.990178e+003, 2.886722e-004
1.992106e+003, 9.343029e-004
1.994035e+003, 9.148464e-004
1.995963e+003, 1.965871e-003
1.997891e+003, 2.667391e-003
1.999820e+003, 2.055288e-003
2.001748e+003, 1.238884e-003
2.003677e+003, 1.350298e-004
2.005605e+003, -4.239333e-004
2.007534e+003, 4.572719e-004
2.009462e+003, -3.618491e-005
2.011391e+003, -1.059535e-003
2.013319e+003, -8.886615e-004
2.015248e+003, -4.712285e-004
2.017176e+003, 2.411967e-004
2.019105e+003, 6.579233e-004
2.021033e+003, -3.806623e-004
2.022962e+003, -1.036027e-003
2.024890e+003, -1.185525e-003
2.026818e+003, -8.916170e-004
2.028747e+003, -5.917067e-004
2.030675e+003, -4.015556e-004
2.032604e+003, -1.378648e-004
2.034532e+003, 2.416812e-004
2.036461e+003, 5.296133e-004
2.038389e+003, 5.899740e-004
2.040318e+003, 4.238122e-004
2.042246e+003, 6.442257e-004
2.044175e+003, -3.488513e-004
2.046103e+003, -5.510133e-004
2.048031e+003, 5.644661e-004
2.049960e+003, 2.239603e-003
2.051888e+003, 1.209661e-003
2.053817e+003, 2.984076e-004
2.055745e+003, 7.242316e-004
2.057674e+003, 9.966736e-004
2.059602e+003, 1.579347e-003
2.061531e+003, 1.945290e-003
2.063459e+003, 2.240350e-003
2.065388e+003, 2.815812e-003
2.067316e+003, 3.097809e-003
2.069245e+003, 3.589307e-003
2.071173e+003, 4.168718e-003
2.073102e+003, 3.800690e-003
2.075030e+003, 3.746031e-003
2.076958e+003, 3.961373e-003
2.078887e+003, 4.223910e-003
2.080815e+003, 4.529367e-003
2.082744e+003, 4.114752e-003
2.084672e+003, 4.203415e-003
2.086601e+003, 4.568074e-003
2.088529e+003, 4.625700e-003
2.090458e+003, 4.189680e-003
2.092386e+003, 3.411201e-003
2.094315e+003, 2.967462e-003
2.096243e+003, 2.998050e-003
2.098172e+003, 2.736203e-003
2.100100e+003, 2.999786e-003
2.102029e+003, 3.306426e-003
2.103957e+003, 2.860261e-003
2.105885e+003, 3.113815e-003
2.107814e+003, 3.319649e-003
2.109742e+003, 3.067581e-003
2.111671e+003, 3.074218e-003
2.113599e+003, 3.295248e-003
2.115528e+003, 2.892131e-003
2.117456e+003, 2.083309e-003
2.119385e+003, 1.835436e-003
2.121313e+003, 1.596773e-003
2.123242e+003, 1.509554e-003
2.125170e+003, 1.072464e-003
2.127099e+003, 6.168748e-004
2.129027e+003, 1.041911e-004
2.130956e+003, -3.616408e-004
2.132884e+003, -1.197692e-003
2.134813e+003, -2.270445e-003
2.136741e+003, -1.263082e-003
2.138669e+003, 1.072392e-004
2.140598e+003, 1.903250e-004
2.142526e+003, -1.107236e-003
2.144455e+003, -2.507774e-003
2.146383e+003, -2.767433e-003
2.148312e+003, -2.317062e-003
2.150240e+003, -2.697988e-003
2.152169e+003, -2.878946e-003
2.154097e+003, -2.935578e-003
2.156026e+003, -3.782208e-003
2.157954e+003, -2.503823e-003
2.159883e+003, 3.529575e-004
2.161811e+003, 1.773003e-003
2.163740e+003, 1.383629e-003
2.165668e+003, 1.445127e-003
2.167596e+003, 1.002111e-003
2.169525e+003, 6.294727e-004
2.171453e+003, 6.102950e-004
2.173382e+003, 5.928031e-005
2.175310e+003, 2.275039e-004
2.177239e+003, 1.259492e-003
2.179167e+003, 6.589969e-004
2.181096e+003, 1.501392e-004
2.183024e+003, 3.529290e-004
2.184953e+003, 3.179965e-004
2.186881e+003, -2.194673e-005
2.188810e+003, -5.463264e-004
2.190738e+003, -3.151840e-005
2.192667e+003, 3.548068e-004
2.194595e+003, 9.021728e-004
2.196523e+003, 1.638951e-003
2.198452e+003, 1.706042e-003
2.200380e+003, 1.424790e-003
2.202309e+003, 1.324032e-003
2.204237e+003, 1.323679e-003
2.206166e+003, 9.337449e-004
2.208094e+003, 1.254178e-003
2.210023e+003, 1.626072e-003
2.211951e+003, 1.792984e-003
2.213880e+003, 1.503088e-003
2.215808e+003, 1.494443e-003
2.217737e+003, 1.829209e-003
2.219665e+003, 1.972095e-003
2.221594e+003, 2.424468e-003
2.223522e+003, 2.879907e-003
2.225450e+003, 2.380281e-003
2.227379e+003, 2.144069e-003
2.229307e+003, 2.865159e-003
2.231236e+003, 3.218563e-003
2.233164e+003, 2.977229e-003
2.235093e+003, 2.800507e-003
2.237021e+003, 2.751916e-003
2.238950e+003, 2.720297e-003
2.240878e+003, 3.162270e-003
2.242807e+003, 3.324208e-003
2.244735e+003, 2.955977e-003
2.246664e+003, 2.556535e-003
2.248592e+003, 2.445479e-003
2.250521e+003, 2.642854e-003
2.252449e+003, 2.820054e-003
2.254377e+003, 2.421093e-003
2.256306e+003, 1.839954e-003
2.258234e+003, 1.839779e-003
2.260163e+003, 1.952882e-003
2.262091e+003, 1.973295e-003
2.264020e+003, 1.750201e-003
2.265948e+003, 1.926680e-003
2.267877e+003, 2.425372e-003
2.269805e+003, 2.341791e-003
2.271734e+003, 2.217442e-003
2.273662e+003, 2.940195e-003
2.275591e+003, 3.394019e-003
2.277519e+003, 3.302254e-003
2.279448e+003, 3.297770e-003
2.281376e+003, 3.557075e-003
2.283304e+003, 3.712808e-003
2.285233e+003, 3.871233e-003
2.287161e+003, 3.736612e-003
2.289090e+003, 3.403545e-003
2.291018e+003, 3.273237e-003
2.292947e+003, 3.582801e-003
2.294875e+003, 3.823037e-003
2.296804e+003, 3.657394e-003
2.298732e+003, 3.434912e-003
2.300661e+003, 3.384225e-003
2.302589e+003, 3.263472e-003
2.304518e+003, 3.560222e-003
2.306446e+003, 3.966452e-003
2.308375e+003, 4.157541e-003
2.310303e+003, 3.961950e-003
2.312231e+003, 3.810865e-003
2.314160e+003, 3.952686e-003
2.316088e+003, 4.295505e-003
2.318017e+003, 4.695582e-003
2.319945e+003, 5.132296e-003
2.321874e+003, 5.458078e-003
2.323802e+003, 5.539082e-003
2.325731e+003, 5.031475e-003
2.327659e+003, 4.421390e-003
2.329588e+003, 4.300112e-003
2.331516e+003, 4.558906e-003
2.333445e+003, 4.544111e-003
2.335373e+003, 4.429222e-003
2.337302e+003, 4.605758e-003
2.339230e+003, 4.580610e-003
2.341158e+003, 4.413505e-003
2.343087e+003, 4.544407e-003
2.345015e+003, 4.204212e-003
2.346944e+003, 3.653419e-003
2.348872e+003, 3.508112e-003
2.350801e+003, 3.888732e-003
2.352729e+003, 4.334255e-003
2.354658e+003, 4.416286e-003
2.356586e+003, 4.440224e-003
2.358515e+003, 4.719110e-003
2.360443e+003, 4.704978e-003
2.362372e+003, 4.561639e-003
2.364300e+003, 4.727263e-003
2.366229e+003, 4.523288e-003
2.368157e+003, 4.058318e-003
2.370085e+003, 4.088703e-003
2.372014e+003, 3.913098e-003
2.373942e+003, 3.221750e-003
2.375871e+003, 2.914137e-003
2.377799e+003, 2.896298e-003
2.379728e+003, 2.889010e-003
2.381656e+003, 2.879677e-003
2.383585e+003, 3.017898e-003
2.385513e+003, 2.949722e-003
2.387442e+003, 3.181734e-003
2.389370e+003, 3.151568e-003
2.391299e+003, 2.743153e-003
2.393227e+003, 2.570542e-003
2.395156e+003, 2.474903e-003
2.397084e+003, 2.564695e-003
2.399012e+003, 2.595250e-003
2.400941e+003, 2.570323e-003
2.402869e+003, 2.271014e-003
2.404798e+003, 2.204748e-003
2.406726e+003, 2.743716e-003
2.408655e+003, 3.101798e-003
2.410583e+003, 2.693897e-003
2.412512e+003, 2.258582e-003
2.414440e+003, 2.399338e-003
2.416369e+003, 2.394973e-003
2.418297e+003, 2.344892e-003
2.420226e+003, 2.404337e-003
2.422154e+003, 2.430668e-003
2.424083e+003, 2.581700e-003
2.426011e+003, 2.646183e-003
2.427939e+003, 3.071678e-003
2.429868e+003, 3.168378e-003
2.431796e+003, 3.196551e-003
2.433725e+003, 3.132174e-003
2.435653e+003, 2.681450e-003
2.437582e+003, 2.526561e-003
2.439510e+003, 2.682727e-003
2.441439e+003, 2.842400e-003
2.443367e+003, 3.201843e-003
2.445296e+003, 3.019960e-003
2.447224e+003, 2.756932e-003
2.449153e+003, 3.047128e-003
2.451081e+003, 3.321963e-003
2.453010e+003, 3.312971e-003
2.454938e+003, 3.366620e-003
2.456866e+003, 3.547437e-003
2.458795e+003, 3.712779e-003
2.460723e+003, 3.851978e-003
2.462652e+003, 4.023354e-003
2.464580e+003, 3.899100e-003
2.466509e+003, 3.837410e-003
2.468437e+003, 3.484121e-003
2.470366e+003, 3.531816e-003
2.472294e+003, 3.713966e-003
2.474223e+003, 4.088729e-003
2.476151e+003, 4.339809e-003
2.478080e+003, 4.166007e-003
2.480008e+003, 4.181348e-003
2.481937e+003, 4.254078e-003
2.483865e+003, 4.102446e-003
2.485793e+003, 3.679320e-003
2.487722e+003, 3.477628e-003
2.489650e+003, 3.724875e-003
2.491579e+003, 4.180787e-003
2.493507e+003, 4.656181e-003
2.495436e+003, 4.669630e-003
2.497364e+003, 4.596260e-003
2.499293e+003, 4.568923e-003
2.501221e+003, 4.640167e-003
2.503150e+003, 5.036680e-003
2.505078e+003, 5.024684e-003
2.507007e+003, 4.844532e-003
2.508935e+003, 5.375155e-003
2.510864e+003, 5.523320e-003
2.512792e+003, 5.203819e-003
2.514720e+003, 5.416020e-003
2.516649e+003, 6.034480e-003
2.518577e+003, 6.103523e-003
2.520506e+003, 6.150747e-003
2.522434e+003, 6.034482e-003
2.524363e+003, 5.876593e-003
2.526291e+003, 5.830138e-003
2.528220e+003, 5.774769e-003
2.530148e+003, 6.054838e-003
2.532077e+003, 6.295152e-003
2.534005e+003, 6.235576e-003
2.535934e+003, 6.371950e-003
2.537862e+003, 6.508291e-003
2.539791e+003, 6.192093e-003
2.541719e+003, 5.909706e-003
2.543647e+003, 6.070668e-003
2.545576e+003, 6.176085e-003
2.547504e+003, 6.306961e-003
2.549433e+003, 6.308219e-003
2.551361e+003, 5.831015e-003
2.553290e+003, 6.339824e-003
2.555218e+003, 6.565312e-003
2.557147e+003, 6.314575e-003
2.559075e+003, 6.122343e-003
2.561004e+003, 6.086402e-003
2.562932e+003, 6.220659e-003
2.564861e+003, 6.602335e-003
2.566789e+003, 6.377846e-003
2.568718e+003, 5.989952e-003
2.570646e+003, 6.350535e-003
2.572574e+003, 6.682959e-003
2.574503e+003, 6.471362e-003
2.576431e+003, 6.486315e-003
2.578360e+003, 6.606892e-003
2.580288e+003, 6.558569e-003
2.582217e+003, 6.360963e-003
2.584145e+003, 6.305923e-003
2.586074e+003, 6.334298e-003
2.588002e+003, 6.398240e-003
2.589931e+003, 6.553763e-003
2.591859e+003, 6.547301e-003
2.593788e+003, 6.309435e-003
2.595716e+003, 5.846988e-003
2.597645e+003, 5.746101e-003
2.599573e+003, 5.966273e-003
2.601501e+003, 6.413639e-003
2.603430e+003, 6.670668e-003
2.605358e+003, 6.652310e-003
2.607287e+003, 6.338506e-003
2.609215e+003, 5.873716e-003
2.611144e+003, 6.366535e-003
2.613072e+003, 6.915775e-003
2.615001e+003, 6.560964e-003
2.616929e+003, 6.351172e-003
2.618858e+003, 6.404080e-003
2.620786e+003, 6.849058e-003
2.622715e+003, 6.792877e-003
2.624643e+003, 6.810350e-003
2.626572e+003, 7.032994e-003
2.628500e+003, 6.747676e-003
2.630428e+003, 6.671676e-003
2.632357e+003, 6.826131e-003
2.634285e+003, 6.565079e-003
2.636214e+003, 6.345338e-003
2.638142e+003, 6.366742e-003
2.640071e+003, 6.473498e-003
2.641999e+003, 6.754749e-003
2.643928e+003, 6.868128e-003
2.645856e+003, 6.717280e-003
2.647785e+003, 6.425864e-003
2.649713e+003, 6.607810e-003
2.651642e+003, 6.620539e-003
2.653570e+003, 6.495876e-003
2.655499e+003, 6.528968e-003
2.657427e+003, 6.408747e-003
2.659355e+003, 6.235734e-003
2.661284e+003, 6.154498e-003
2.663212e+003, 6.212609e-003
2.665141e+003, 6.047251e-003
2.667069e+003, 5.727853e-003
2.668998e+003, 5.742806e-003
2.670926e+003, 6.101662e-003
2.672855e+003, 6.278947e-003
2.674783e+003, 6.158438e-003
2.676712e+003, 5.976700e-003
2.678640e+003, 6.033967e-003
2.680569e+003, 6.209534e-003
2.682497e+003, 6.286618e-003
2.684426e+003, 6.222792e-003
2.686354e+003, 6.196903e-003
2.688282e+003, 6.123065e-003
2.690211e+003, 6.072236e-003
2.692139e+003, 6.025360e-003
2.694068e+003, 6.190179e-003
2.695996e+003, 6.251963e-003
2.697925e+003, 6.044785e-003
2.699853e+003, 6.036671e-003
2.701782e+003, 6.232538e-003
2.703710e+003, 6.618069e-003
2.705639e+003, 6.575698e-003
2.707567e+003, 6.111789e-003
2.709496e+003, 5.959911e-003
2.711424e+003, 6.182390e-003
2.713353e+003, 6.221197e-003
2.715281e+003, 6.032874e-003
2.717209e+003, 5.941487e-003
2.719138e+003, 6.102605e-003
2.721066e+003, 6.063136e-003
2.722995e+003, 6.028227e-003
2.724923e+003, 6.193559e-003
2.726852e+003, 6.244231e-003
2.728780e+003, 6.200996e-003
2.730709e+003, 6.140596e-003
2.732637e+003, 6.307460e-003
2.734566e+003, 6.574979e-003
2.736494e+003, 6.626813e-003
2.738423e+003, 6.508016e-003
2.740351e+003, 6.560962e-003
2.742280e+003, 6.587024e-003
2.744208e+003, 6.549483e-003
2.746136e+003, 6.758004e-003
2.748065e+003, 6.813731e-003
2.749993e+003, 6.702015e-003
2.751922e+003, 6.824246e-003
2.753850e+003, 6.624926e-003
2.755779e+003, 6.724940e-003
2.757707e+003, 6.758657e-003
2.759636e+003, 6.469414e-003
2.761564e+003, 6.703092e-003
2.763493e+003, 6.960153e-003
2.765421e+003, 6.726594e-003
2.767350e+003, 6.650391e-003
2.769278e+003, 6.734074e-003
2.771207e+003, 6.726827e-003
2.773135e+003, 6.631045e-003
2.775063e+003, 6.751483e-003
2.776992e+003, 6.754849e-003
2.778920e+003, 6.814609e-003
2.780849e+003, 6.813841e-003
2.782777e+003, 6.868891e-003
2.784706e+003, 7.008834e-003
2.786634e+003, 6.886250e-003
2.788563e+003, 6.767596e-003
2.790491e+003, 7.121802e-003
2.792420e+003, 7.415337e-003
2.794348e+003, 7.418659e-003
2.796277e+003, 7.282070e-003
2.798205e+003, 7.130002e-003
2.800134e+003, 7.046516e-003
2.802062e+003, 7.098596e-003
2.803990e+003, 7.234008e-003
2.805919e+003, 7.310412e-003
2.807847e+003, 7.164636e-003
2.809776e+003, 7.271612e-003
2.811704e+003, 7.308718e-003
2.813633e+003, 7.445388e-003
2.815561e+003, 7.622711e-003
2.817490e+003, 7.580564e-003
2.819418e+003, 7.505832e-003
2.821347e+003, 7.214038e-003
2.823275e+003, 7.040172e-003
2.825204e+003, 7.330824e-003
2.827132e+003, 7.632954e-003
2.829061e+003, 7.667564e-003
2.830989e+003, 7.546949e-003
2.832917e+003, 7.749088e-003
2.834846e+003, 8.024696e-003
2.836774e+003, 8.008371e-003
2.838703e+003, 8.037932e-003
2.840631e+003, 8.141039e-003
2.842560e+003, 8.300998e-003
2.844488e+003, 8.805125e-003
2.846417e+003, 9.063950e-003
2.848345e+003, 8.994292e-003
2.850274e+003, 8.860811e-003
2.852202e+003, 8.914565e-003
2.854131e+003, 8.768553e-003
2.856059e+003, 8.750533e-003
2.857988e+003, 8.735335e-003
2.859916e+003, 8.681564e-003
2.861844e+003, 8.436663e-003
2.863773e+003, 8.389304e-003
2.865701e+003, 8.655156e-003
2.867630e+003, 8.937119e-003
2.869558e+003, 8.671932e-003
2.871487e+003, 8.206832e-003
2.873415e+003, 8.290621e-003
2.875344e+003, 8.578149e-003
2.877272e+003, 8.806886e-003
2.879201e+003, 9.026923e-003
2.881129e+003, 8.707028e-003
2.883058e+003, 8.262057e-003
2.884986e+003, 8.474354e-003
2.886915e+003, 8.913334e-003
2.888843e+003, 9.033788e-003
2.890771e+003, 9.337645e-003
2.892700e+003, 9.567307e-003
2.894628e+003, 9.288604e-003
2.896557e+003, 8.831442e-003
2.898485e+003, 8.986338e-003
2.900414e+003, 9.430148e-003
2.902342e+003, 9.503339e-003
2.904271e+003, 9.576436e-003
2.906199e+003, 9.678631e-003
2.908128e+003, 9.958003e-003
2.910056e+003, 1.054889e-002
2.911985e+003, 1.088309e-002
2.913913e+003, 1.105749e-002
2.915842e+003, 1.120347e-002
2.917770e+003, 1.099806e-002
2.919698e+003, 1.087747e-002
2.921627e+003, 1.070665e-002
2.923555e+003, 1.071536e-002
2.925484e+003, 1.078066e-002
2.927412e+003, 1.061285e-002
2.929341e+003, 1.054308e-002
2.931269e+003, 1.045109e-002
2.933198e+003, 1.078487e-002
2.935126e+003, 1.074064e-002
2.937055e+003, 1.004480e-002
2.938983e+003, 9.208261e-003
2.940912e+003, 8.929289e-003
2.942840e+003, 9.110299e-003
2.944769e+003, 9.075368e-003
2.946697e+003, 9.202529e-003
2.948625e+003, 9.099599e-003
2.950554e+003, 9.022227e-003
2.952482e+003, 9.125538e-003
2.954411e+003, 9.274340e-003
2.956339e+003, 9.673702e-003
2.958268e+003, 9.980549e-003
2.960196e+003, 1.010308e-002
2.962125e+003, 1.014920e-002
2.964053e+003, 9.908735e-003
2.965982e+003, 9.602158e-003
2.967910e+003, 9.151733e-003
2.969839e+003, 8.857503e-003
2.971767e+003, 8.907252e-003
2.973696e+003, 8.698527e-003
2.975624e+003, 8.793084e-003
2.977552e+003, 8.804415e-003
2.979481e+003, 8.413669e-003
2.981409e+003, 8.220745e-003
2.983338e+003, 8.219169e-003
2.985266e+003, 8.012852e-003
2.987195e+003, 7.903974e-003
2.989123e+003, 8.137659e-003
2.991052e+003, 8.432727e-003
2.992980e+003, 8.263178e-003
2.994909e+003, 8.305431e-003
2.996837e+003, 8.452661e-003
2.998766e+003, 8.178988e-003
3.000694e+003, 7.749574e-003
3.002623e+003, 7.758735e-003
3.004551e+003, 7.940064e-003
3.006479e+003, 8.150806e-003
3.008408e+003, 8.413309e-003
3.010336e+003, 8.544572e-003
3.012265e+003, 8.274084e-003
3.014193e+003, 8.349608e-003
3.016122e+003, 8.795925e-003
3.018050e+003, 8.601197e-003
3.019979e+003, 8.010031e-003
3.021907e+003, 7.864722e-003
3.023836e+003, 7.887760e-003
3.025764e+003, 8.070089e-003
3.027693e+003, 8.051585e-003
3.029621e+003, 7.728385e-003
3.031550e+003, 8.103430e-003
3.033478e+003, 8.389027e-003
3.035406e+003, 8.431485e-003
3.037335e+003, 8.475099e-003
3.039263e+003, 8.540863e-003
3.041192e+003, 8.447982e-003
3.043120e+003, 8.119608e-003
3.045049e+003, 8.316706e-003
3.046977e+003, 8.387073e-003
3.048906e+003, 8.616750e-003
3.050834e+003, 8.538845e-003
3.052763e+003, 8.309484e-003
3.054691e+003, 8.400974e-003
3.056620e+003, 8.844584e-003
3.058548e+003, 8.976237e-003
3.060477e+003, 8.511619e-003
3.062405e+003, 8.372161e-003
3.064333e+003, 8.515449e-003
3.066262e+003, 8.352597e-003
3.068190e+003, 8.546278e-003
3.070119e+003, 8.643566e-003
3.072047e+003, 8.952356e-003
3.073976e+003, 9.031475e-003
3.075904e+003, 8.810787e-003
3.077833e+003, 8.751920e-003
3.079761e+003, 9.025183e-003
3.081690e+003, 9.355998e-003
3.083618e+003, 9.291148e-003
3.085547e+003, 8.872240e-003
3.087475e+003, 8.781892e-003
3.089404e+003, 9.045066e-003
3.091332e+003, 9.402690e-003
3.093260e+003, 9.185513e-003
3.095189e+003, 9.402185e-003
3.097117e+003, 9.641898e-003
3.099046e+003, 9.661732e-003
3.100974e+003, 9.398270e-003
3.102903e+003, 9.213087e-003
3.104831e+003, 9.169177e-003
3.106760e+003, 9.172259e-003
3.108688e+003, 9.756618e-003
3.110617e+003, 1.014640e-002
3.112545e+003, 9.954939e-003
3.114474e+003, 9.277742e-003
3.116402e+003, 8.998825e-003
3.118331e+003, 9.020603e-003
3.120259e+003, 9.685331e-003
3.122188e+003, 1.004152e-002
3.124116e+003, 9.538585e-003
3.126044e+003, 9.440351e-003
3.127973e+003, 9.722225e-003
3.129901e+003, 1.000386e-002
3.131830e+003, 1.016493e-002
3.133758e+003, 1.034745e-002
3.135687e+003, 1.014946e-002
3.137615e+003, 1.006183e-002
3.139544e+003, 1.050611e-002
3.141472e+003, 1.061534e-002
3.143401e+003, 1.005639e-002
3.145329e+003, 1.012144e-002
3.147258e+003, 1.060097e-002
3.149186e+003, 1.044667e-002
3.151115e+003, 9.739292e-003
3.153043e+003, 9.722077e-003
3.154971e+003, 1.024429e-002
3.156900e+003, 1.016906e-002
3.158828e+003, 9.740373e-003
3.160757e+003, 9.601801e-003
3.162685e+003, 9.908422e-003
3.164614e+003, 1.022055e-002
3.166542e+003, 1.049748e-002
3.168471e+003, 1.049042e-002
3.170399e+003, 1.031536e-002
3.172328e+003, 1.061287e-002
3.174256e+003, 1.081549e-002
3.176185e+003, 1.068841e-002
3.178113e+003, 1.075006e-002
3.180042e+003, 1.029205e-002
3.181970e+003, 1.007905e-002
3.183898e+003, 1.055959e-002
3.185827e+003, 1.108268e-002
3.187755e+003, 1.112706e-002
3.189684e+003, 1.067349e-002
3.191612e+003, 1.053383e-002
3.193541e+003, 1.111625e-002
3.195469e+003, 1.098015e-002
3.197398e+003, 1.074298e-002
3.199326e+003, 1.074229e-002
3.201255e+003, 1.054597e-002
3.203183e+003, 1.076877e-002
3.205112e+003, 1.110287e-002
3.207040e+003, 1.080375e-002
3.208969e+003, 1.066247e-002
3.210897e+003, 1.052263e-002
3.212825e+003, 1.056636e-002
3.214754e+003, 1.103297e-002
3.216682e+003, 1.110961e-002
3.218611e+003, 1.089816e-002
3.220539e+003, 1.083928e-002
3.222468e+003, 1.082907e-002
3.224396e+003, 1.153908e-002
3.226325e+003, 1.170237e-002
3.228253e+003, 1.124550e-002
3.230182e+003, 1.105790e-002
3.232110e+003, 1.086686e-002
3.234039e+003, 1.079622e-002
3.235967e+003, 1.080803e-002
3.237896e+003, 1.110530e-002
3.239824e+003, 1.171231e-002
3.241752e+003, 1.127265e-002
3.243681e+003, 1.046271e-002
3.245609e+003, 1.117329e-002
3.247538e+003, 1.159699e-002
3.249466e+003, 1.143355e-002
3.251395e+003, 1.126307e-002
3.253323e+003, 1.125767e-002
3.255252e+003, 1.179258e-002
3.257180e+003, 1.196051e-002
3.259109e+003, 1.203749e-002
3.261037e+003, 1.223323e-002
3.262966e+003, 1.167556e-002
3.264894e+003, 1.125417e-002
3.266823e+003, 1.106573e-002
3.268751e+003, 1.125727e-002
3.270679e+003, 1.131304e-002
3.272608e+003, 1.130231e-002
3.274536e+003, 1.139972e-002
3.276465e+003, 1.169229e-002
3.278393e+003, 1.144913e-002
3.280322e+003, 1.113923e-002
3.282250e+003, 1.100239e-002
3.284179e+003, 1.133555e-002
3.286107e+003, 1.169913e-002
3.288036e+003, 1.170224e-002
3.289964e+003, 1.176712e-002
3.291893e+003, 1.197778e-002
3.293821e+003, 1.199227e-002
3.295750e+003, 1.199883e-002
3.297678e+003, 1.213816e-002
3.299606e+003, 1.190114e-002
3.301535e+003, 1.148733e-002
3.303463e+003, 1.159145e-002
3.305392e+003, 1.189003e-002
3.307320e+003, 1.226229e-002
3.309249e+003, 1.206108e-002
3.311177e+003, 1.220982e-002
3.313106e+003, 1.254985e-002
3.315034e+003, 1.240623e-002
3.316963e+003, 1.234625e-002
3.318891e+003, 1.190261e-002
3.320820e+003, 1.185316e-002
3.322748e+003, 1.208748e-002
3.324677e+003, 1.215979e-002
3.326605e+003, 1.240015e-002
3.328533e+003, 1.236238e-002
3.330462e+003, 1.223719e-002
3.332390e+003, 1.210919e-002
3.334319e+003, 1.181775e-002
3.336247e+003, 1.205215e-002
3.338176e+003, 1.234397e-002
3.340104e+003, 1.223367e-002
3.342033e+003, 1.227075e-002
3.343961e+003, 1.209446e-002
3.345890e+003, 1.228129e-002
3.347818e+003, 1.250628e-002
3.349747e+003, 1.244137e-002
3.351675e+003, 1.255929e-002
3.353604e+003, 1.307520e-002
3.355532e+003, 1.346888e-002
3.357460e+003, 1.308088e-002
3.359389e+003, 1.237334e-002
3.361317e+003, 1.252824e-002
3.363246e+003, 1.319949e-002
3.365174e+003, 1.315607e-002
3.367103e+003, 1.279067e-002
3.369031e+003, 1.263662e-002
3.370960e+003, 1.287064e-002
3.372888e+003, 1.317058e-002
3.374817e+003, 1.351120e-002
3.376745e+003, 1.331339e-002
3.378674e+003, 1.346705e-002
3.380602e+003, 1.309765e-002
3.382531e+003, 1.237399e-002
3.384459e+003, 1.238543e-002
3.386387e+003, 1.287243e-002
3.388316e+003, 1.343943e-002
3.390244e+003, 1.345273e-002
3.392173e+003, 1.315085e-002
3.394101e+003, 1.330434e-002
3.396030e+003, 1.313544e-002
3.397958e+003, 1.259080e-002
3.399887e+003, 1.260157e-002
3.401815e+003, 1.294227e-002
3.403744e+003, 1.329992e-002
3.405672e+003, 1.313358e-002
3.407601e+003, 1.323908e-002
3.409529e+003, 1.343749e-002
3.411458e+003, 1.325322e-002
3.413386e+003, 1.295090e-002
3.415314e+003, 1.279965e-002
3.417243e+003, 1.212667e-002
3.419171e+003, 1.202842e-002
3.421100e+003, 1.271208e-002
3.423028e+003, 1.275537e-002
3.424957e+003, 1.365845e-002
3.426885e+003, 1.375080e-002
3.428814e+003, 1.279233e-002
3.430742e+003, 1.281899e-002
3.432671e+003, 1.325966e-002
3.434599e+003, 1.278538e-002
3.436528e+003, 1.261316e-002
3.438456e+003, 1.230452e-002
3.440385e+003, 1.252324e-002
3.442313e+003, 1.306574e-002
3.444241e+003, 1.295872e-002
3.446170e+003, 1.295767e-002
3.448098e+003, 1.360139e-002
3.450027e+003, 1.368650e-002
3.451955e+003, 1.330900e-002
3.453884e+003, 1.299651e-002
3.455812e+003, 1.255394e-002
3.457741e+003, 1.258287e-002
3.459669e+003, 1.257322e-002
3.461598e+003, 1.243518e-002
3.463526e+003, 1.260409e-002
3.465455e+003, 1.280736e-002
3.467383e+003, 1.328092e-002
3.469312e+003, 1.319191e-002
3.471240e+003, 1.243655e-002
3.473168e+003, 1.195282e-002
3.475097e+003, 1.205622e-002
3.477025e+003, 1.256327e-002
3.478954e+003, 1.345873e-002
3.480882e+003, 1.326115e-002
3.482811e+003, 1.253151e-002
3.484739e+003, 1.264007e-002
3.486668e+003, 1.256329e-002
3.488596e+003, 1.259107e-002
3.490525e+003, 1.239301e-002
3.492453e+003, 1.224747e-002
3.494382e+003, 1.223437e-002
3.496310e+003, 1.246558e-002
3.498239e+003, 1.276498e-002
3.500167e+003, 1.264698e-002
3.502095e+003, 1.211076e-002
3.504024e+003, 1.241352e-002
3.505952e+003, 1.229912e-002
3.507881e+003, 1.216608e-002
3.509809e+003, 1.241812e-002
3.511738e+003, 1.266331e-002
3.513666e+003, 1.256190e-002
3.515595e+003, 1.249466e-002
3.517523e+003, 1.288097e-002
3.519452e+003, 1.257805e-002
3.521380e+003, 1.199836e-002
3.523309e+003, 1.235122e-002
3.525237e+003, 1.282209e-002
3.527166e+003, 1.281011e-002
3.529094e+003, 1.241411e-002
3.531022e+003, 1.215257e-002
3.532951e+003, 1.209724e-002
3.534879e+003, 1.292721e-002
3.536808e+003, 1.250507e-002
3.538736e+003, 1.216816e-002
3.540665e+003, 1.225979e-002
3.542593e+003, 1.207052e-002
3.544522e+003, 1.242287e-002
3.546450e+003, 1.308980e-002
3.548379e+003, 1.359286e-002
3.550307e+003, 1.352807e-002
3.552236e+003, 1.294254e-002
3.554164e+003, 1.261826e-002
3.556093e+003, 1.284059e-002
3.558021e+003, 1.258354e-002
3.559949e+003, 1.275005e-002
3.561878e+003, 1.283357e-002
3.563806e+003, 1.256691e-002
3.565735e+003, 1.254462e-002
3.567663e+003, 1.241816e-002
3.569592e+003, 1.254134e-002
3.571520e+003, 1.230856e-002
3.573449e+003, 1.184504e-002
3.575377e+003, 1.170507e-002
3.577306e+003, 1.200971e-002
3.579234e+003, 1.236973e-002
3.581163e+003, 1.204140e-002
3.583091e+003, 1.155967e-002
3.585020e+003, 1.167812e-002
3.586948e+003, 1.188377e-002
3.588876e+003, 1.204819e-002
3.590805e+003, 1.213714e-002
3.592733e+003, 1.210117e-002
3.594662e+003, 1.153723e-002
3.596590e+003, 1.104970e-002
3.598519e+003, 1.126745e-002
3.600447e+003, 1.105887e-002
3.602376e+003, 1.060181e-002
3.604304e+003, 1.049276e-002
3.606233e+003, 1.039286e-002
3.608161e+003, 1.074816e-002
3.610090e+003, 1.117693e-002
3.612018e+003, 1.124122e-002
3.613947e+003, 1.144947e-002
3.615875e+003, 1.133717e-002
3.617803e+003, 1.127160e-002
3.619732e+003, 1.144321e-002
3.621660e+003, 1.164282e-002
3.623589e+003, 1.196533e-002
3.625517e+003, 1.111795e-002
3.627446e+003, 1.106465e-002
3.629374e+003, 1.194233e-002
3.631303e+003, 1.169468e-002
3.633231e+003, 1.159355e-002
3.635160e+003, 1.162856e-002
3.637088e+003, 1.168339e-002
3.639017e+003, 1.189693e-002
3.640945e+003, 1.120627e-002
3.642874e+003, 1.101965e-002
3.644802e+003, 1.090191e-002
3.646730e+003, 1.151379e-002
3.648659e+003, 1.170594e-002
3.650587e+003, 1.088835e-002
3.652516e+003, 1.023218e-002
3.654444e+003, 1.055469e-002
3.656373e+003, 1.063366e-002
3.658301e+003, 9.971650e-003
3.660230e+003, 1.025492e-002
3.662158e+003, 1.016566e-002
3.664087e+003, 1.010049e-002
3.666015e+003, 1.021740e-002
3.667944e+003, 1.104064e-002
3.669872e+003, 1.209181e-002
3.671801e+003, 1.136879e-002
3.673729e+003, 1.067305e-002
3.675657e+003, 1.074999e-002
3.677586e+003, 1.083523e-002
3.679514e+003, 1.119996e-002
3.681443e+003, 1.178436e-002
3.683371e+003, 1.141458e-002
3.685300e+003, 1.083660e-002
3.687228e+003, 1.096993e-002
3.689157e+003, 1.133618e-002
3.691085e+003, 1.145442e-002
3.693014e+003, 1.085514e-002
3.694942e+003, 1.055550e-002
3.696871e+003, 1.055483e-002
3.698799e+003, 1.047051e-002
3.700728e+003, 1.045818e-002
3.702656e+003, 1.032642e-002
3.704584e+003, 1.087754e-002
3.706513e+003, 1.201430e-002
3.708441e+003, 1.220004e-002
3.710370e+003, 1.170092e-002
3.712298e+003, 1.192394e-002
3.714227e+003, 1.095221e-002
3.716155e+003, 1.082870e-002
3.718084e+003, 1.077341e-002
3.720012e+003, 1.004718e-002
3.721941e+003, 1.031844e-002
3.723869e+003, 1.072975e-002
3.725798e+003, 1.055883e-002
3.727726e+003, 1.033852e-002
3.729655e+003, 1.134633e-002
3.731583e+003, 1.262480e-002
3.733511e+003, 1.247148e-002
3.735440e+003, 1.205651e-002
3.737368e+003, 1.119260e-002
3.739297e+003, 1.108215e-002
3.741225e+003, 1.174905e-002
3.743154e+003, 1.197242e-002
3.745082e+003, 1.153530e-002
3.747011e+003, 1.107823e-002
3.748939e+003, 1.229719e-002
3.750868e+003, 1.338887e-002
3.752796e+003, 1.169967e-002
3.754725e+003, 1.069485e-002
3.756653e+003, 1.086716e-002
3.758582e+003, 1.112055e-002
3.760510e+003, 1.179560e-002
3.762438e+003, 1.166422e-002
3.764367e+003, 1.147907e-002
3.766295e+003, 1.111293e-002
3.768224e+003, 1.051615e-002
3.770152e+003, 1.049280e-002
3.772081e+003, 1.125035e-002
3.774009e+003, 1.119245e-002
3.775938e+003, 9.962816e-003
3.777866e+003, 9.750735e-003
3.779795e+003, 1.093252e-002
3.781723e+003, 1.160721e-002
3.783652e+003, 1.117690e-002
3.785580e+003, 1.037652e-002
3.787509e+003, 1.052142e-002
3.789437e+003, 1.100191e-002
3.791365e+003, 1.129277e-002
3.793294e+003, 1.175941e-002
3.795222e+003, 1.139403e-002
3.797151e+003, 1.093006e-002
3.799079e+003, 1.110928e-002
3.801008e+003, 1.149476e-002
3.802936e+003, 1.075664e-002
3.804865e+003, 1.036705e-002
3.806793e+003, 1.104687e-002
3.808722e+003, 1.071387e-002
3.810650e+003, 1.070690e-002
3.812579e+003, 1.106830e-002
3.814507e+003, 1.160016e-002
3.816436e+003, 1.157910e-002
3.818364e+003, 1.121444e-002
3.820292e+003, 1.218861e-002
3.822221e+003, 1.210488e-002
3.824149e+003, 1.105150e-002
3.826078e+003, 1.095887e-002
3.828006e+003, 1.116594e-002
3.829935e+003, 1.100824e-002
3.831863e+003, 1.105168e-002
3.833792e+003, 1.165024e-002
3.835720e+003, 1.246190e-002
3.837649e+003, 1.249820e-002
3.839577e+003, 1.156053e-002
3.841506e+003, 1.126728e-002
3.843434e+003, 1.154060e-002
3.845363e+003, 1.122266e-002
3.847291e+003, 1.093000e-002
3.849219e+003, 1.125280e-002
3.851148e+003, 1.212125e-002
3.853076e+003, 1.268430e-002
3.855005e+003, 1.183248e-002
3.856933e+003, 1.091104e-002
3.858862e+003, 1.119611e-002
3.860790e+003, 1.089801e-002
3.862719e+003, 1.053616e-002
3.864647e+003, 1.135001e-002
3.866576e+003, 1.191356e-002
3.868504e+003, 1.181139e-002
3.870433e+003, 1.118155e-002
3.872361e+003, 1.060850e-002
3.874290e+003, 1.089434e-002
3.876218e+003, 1.120248e-002
3.878146e+003, 1.092188e-002
3.880075e+003, 1.116536e-002
3.882003e+003, 1.160169e-002
3.883932e+003, 1.160221e-002
3.885860e+003, 1.129174e-002
3.887789e+003, 1.104806e-002
3.889717e+003, 1.112172e-002
3.891646e+003, 1.109187e-002
3.893574e+003, 1.094265e-002
3.895503e+003, 1.105324e-002
3.897431e+003, 1.073217e-002
3.899360e+003, 1.091426e-002
3.901288e+003, 1.134222e-002
3.903217e+003, 1.145271e-002
3.905145e+003, 1.112954e-002
3.907073e+003, 1.080090e-002
3.909002e+003, 1.065484e-002
3.910930e+003, 1.074494e-002
3.912859e+003, 1.130112e-002
3.914787e+003, 1.120818e-002
3.916716e+003, 1.079436e-002
3.918644e+003, 1.115180e-002
3.920573e+003, 1.102674e-002
3.922501e+003, 1.120453e-002
3.924430e+003, 1.139285e-002
3.926358e+003, 1.203672e-002
3.928287e+003, 1.228942e-002
3.930215e+003, 1.215847e-002
3.932144e+003, 1.203736e-002
3.934072e+003, 1.167883e-002
3.936000e+003, 1.091362e-002
3.937929e+003, 1.051989e-002
3.939857e+003, 1.055493e-002
3.941786e+003, 1.059986e-002
3.943714e+003, 1.093505e-002
3.945643e+003, 1.109100e-002
3.947571e+003, 1.077702e-002
3.949500e+003, 1.121342e-002
3.951428e+003, 1.160846e-002
3.953357e+003, 1.121900e-002
3.955285e+003, 1.012342e-002
3.957214e+003, 1.028935e-002
3.959142e+003, 1.106163e-002
3.961071e+003, 1.115322e-002
3.962999e+003, 1.185736e-002
3.964927e+003, 1.184112e-002
3.966856e+003, 1.161219e-002
3.968784e+003, 1.212413e-002
3.970713e+003, 1.236357e-002
3.972641e+003, 1.185282e-002
3.974570e+003, 1.070487e-002
3.976498e+003, 1.029389e-002
3.978427e+003, 1.045320e-002
3.980355e+003, 1.076621e-002
3.982284e+003, 1.119285e-002
3.984212e+003, 1.167596e-002
3.986141e+003, 1.153636e-002
3.988069e+003, 1.134556e-002
3.989998e+003, 1.203673e-002
3.991926e+003, 1.231436e-002
3.993854e+003, 1.153796e-002
3.995783e+003, 1.104442e-002
3.997711e+003, 1.112688e-002
3.999640e+003, 1.139404e-002
##END=



