##NAMES=Chalcocite
##RRUFFID=R050067
##IDEAL CHEMISTRY=Cu^1+^_2_S^2-^
##LOCALITY=Flambeau, Rusk County, Wisconsin, USA
##OWNER=RRUFF
##SOURCE=Rock Currier
##DESCRIPTION=Iridescent blue irregular hexagonal tablet
##STATUS=The identification of this mineral has been confirmed by X-ray diffraction and chemical analysis
##URL=rruff.info/R050067
##MEASURED CHEMISTRY=Cu_2.00_S_1.00_
3.991926e+002, 0.000000e+000
4.011211e+002, 2.228505e-001
4.030496e+002, 2.239213e-001
4.049780e+002, 2.241103e-001
4.069065e+002, 2.267643e-001
4.088350e+002, 2.280048e-001
4.107634e+002, 2.234802e-001
4.126919e+002, 2.247695e-001
4.146204e+002, 2.273871e-001
4.165488e+002, 2.266016e-001
4.184773e+002, 2.293736e-001
4.204058e+002, 2.311479e-001
4.223342e+002, 2.305810e-001
4.242627e+002, 2.307158e-001
4.261912e+002, 2.287925e-001
4.281196e+002, 2.287079e-001
4.300481e+002, 2.290758e-001
4.319766e+002, 2.289030e-001
4.339050e+002, 2.298286e-001
4.358335e+002, 2.306965e-001
4.377620e+002, 2.300113e-001
4.396904e+002, 2.303462e-001
4.416189e+002, 2.308277e-001
4.435474e+002, 2.311242e-001
4.454758e+002, 2.313716e-001
4.474043e+002, 2.308179e-001
4.493328e+002, 2.320529e-001
4.512612e+002, 2.335905e-001
4.531897e+002, 2.327065e-001
4.551182e+002, 2.328328e-001
4.570466e+002, 2.329830e-001
4.589751e+002, 2.329192e-001
4.609036e+002, 2.346934e-001
4.628320e+002, 2.365951e-001
4.647605e+002, 2.363060e-001
4.666890e+002, 2.360787e-001
4.686174e+002, 2.368463e-001
4.705459e+002, 2.367120e-001
4.724744e+002, 2.362598e-001
4.744028e+002, 2.368428e-001
4.763313e+002, 2.385125e-001
4.782598e+002, 2.394260e-001
4.801882e+002, 2.400562e-001
4.821167e+002, 2.398262e-001
4.840452e+002, 2.398032e-001
4.859736e+002, 2.399880e-001
4.879021e+002, 2.397949e-001
4.898306e+002, 2.400942e-001
4.917590e+002, 2.401111e-001
4.936875e+002, 2.401256e-001
4.956160e+002, 2.414006e-001
4.975444e+002, 2.422583e-001
4.994729e+002, 2.425272e-001
5.014014e+002, 2.431666e-001
5.033298e+002, 2.438793e-001
5.052583e+002, 2.443173e-001
5.071868e+002, 2.451183e-001
5.091152e+002, 2.453456e-001
5.110437e+002, 2.452377e-001
5.129722e+002, 2.455118e-001
5.149006e+002, 2.458327e-001
5.168291e+002, 2.463006e-001
5.187576e+002, 2.473280e-001
5.206860e+002, 2.480029e-001
5.226145e+002, 2.485336e-001
5.245430e+002, 2.483075e-001
5.264714e+002, 2.485112e-001
5.283999e+002, 2.490766e-001
5.303284e+002, 2.491020e-001
5.322568e+002, 2.490193e-001
5.341853e+002, 2.496756e-001
5.361138e+002, 2.509139e-001
5.380422e+002, 2.509447e-001
5.399707e+002, 2.509298e-001
5.418992e+002, 2.514031e-001
5.438276e+002, 2.512851e-001
5.457561e+002, 2.519061e-001
5.476846e+002, 2.530977e-001
5.496130e+002, 2.535932e-001
5.515415e+002, 2.531997e-001
5.534700e+002, 2.532485e-001
5.553984e+002, 2.536737e-001
5.573269e+002, 2.546620e-001
5.592554e+002, 2.547393e-001
5.611838e+002, 2.549441e-001
5.631123e+002, 2.555422e-001
5.650408e+002, 2.556509e-001
5.669692e+002, 2.558170e-001
5.688977e+002, 2.561492e-001
5.708262e+002, 2.567285e-001
5.727546e+002, 2.572045e-001
5.746831e+002, 2.576495e-001
5.766116e+002, 2.577533e-001
5.785400e+002, 2.582885e-001
5.804685e+002, 2.592894e-001
5.823970e+002, 2.599849e-001
5.843254e+002, 2.594728e-001
5.862539e+002, 2.594351e-001
5.881824e+002, 2.599721e-001
5.901108e+002, 2.602446e-001
5.920393e+002, 2.603953e-001
5.939678e+002, 2.607467e-001
5.958962e+002, 2.609549e-001
5.978247e+002, 2.613865e-001
5.997532e+002, 2.620195e-001
6.016816e+002, 2.623140e-001
6.036101e+002, 2.626758e-001
6.055386e+002, 2.627879e-001
6.074670e+002, 2.629724e-001
6.093955e+002, 2.631993e-001
6.113240e+002, 2.632407e-001
6.132524e+002, 2.640165e-001
6.151809e+002, 2.647872e-001
6.171094e+002, 2.648273e-001
6.190378e+002, 2.649891e-001
6.209663e+002, 2.655398e-001
6.228948e+002, 2.657239e-001
6.248232e+002, 2.661473e-001
6.267517e+002, 2.669855e-001
6.286802e+002, 2.670712e-001
6.306086e+002, 2.672662e-001
6.325371e+002, 2.673916e-001
6.344656e+002, 2.675980e-001
6.363940e+002, 2.681724e-001
6.383225e+002, 2.689101e-001
6.402510e+002, 2.689486e-001
6.421794e+002, 2.688942e-001
6.441079e+002, 2.690932e-001
6.460364e+002, 2.689654e-001
6.479648e+002, 2.694502e-001
6.498933e+002, 2.701640e-001
6.518218e+002, 2.703947e-001
6.537502e+002, 2.700541e-001
6.556787e+002, 2.706568e-001
6.576072e+002, 2.715280e-001
6.595356e+002, 2.716872e-001
6.614641e+002, 2.713342e-001
6.633926e+002, 2.716744e-001
6.653210e+002, 2.725222e-001
6.672495e+002, 2.729684e-001
6.691780e+002, 2.730934e-001
6.711064e+002, 2.730781e-001
6.730349e+002, 2.733114e-001
6.749634e+002, 2.733900e-001
6.768918e+002, 2.737679e-001
6.788203e+002, 2.748110e-001
6.807488e+002, 2.745916e-001
6.826772e+002, 2.743291e-001
6.846057e+002, 2.746110e-001
6.865342e+002, 2.749633e-001
6.884626e+002, 2.756596e-001
6.903911e+002, 2.762154e-001
6.923196e+002, 2.765622e-001
6.942480e+002, 2.768390e-001
6.961765e+002, 2.768306e-001
6.981050e+002, 2.769657e-001
7.000334e+002, 2.772176e-001
7.019619e+002, 2.775940e-001
7.038904e+002, 2.781225e-001
7.058188e+002, 2.782707e-001
7.077473e+002, 2.783218e-001
7.096758e+002, 2.784995e-001
7.116042e+002, 2.786378e-001
7.135327e+002, 2.789065e-001
7.154612e+002, 2.791294e-001
7.173896e+002, 2.794999e-001
7.193181e+002, 2.794651e-001
7.212466e+002, 2.794578e-001
7.231750e+002, 2.797151e-001
7.251035e+002, 2.801940e-001
7.270320e+002, 2.804618e-001
7.289604e+002, 2.803921e-001
7.308889e+002, 2.806718e-001
7.328174e+002, 2.809168e-001
7.347458e+002, 2.813810e-001
7.366743e+002, 2.817627e-001
7.386028e+002, 2.820744e-001
7.405313e+002, 2.826161e-001
7.424597e+002, 2.828108e-001
7.443882e+002, 2.827705e-001
7.463167e+002, 2.831071e-001
7.482451e+002, 2.831038e-001
7.501736e+002, 2.834865e-001
7.521021e+002, 2.841466e-001
7.540305e+002, 2.843286e-001
7.559590e+002, 2.842788e-001
7.578875e+002, 2.843650e-001
7.598159e+002, 2.844170e-001
7.617444e+002, 2.850589e-001
7.636729e+002, 2.856692e-001
7.656013e+002, 2.859748e-001
7.675298e+002, 2.862576e-001
7.694583e+002, 2.863242e-001
7.713867e+002, 2.864647e-001
7.733152e+002, 2.865125e-001
7.752437e+002, 2.866997e-001
7.771721e+002, 2.873624e-001
7.791006e+002, 2.880025e-001
7.810291e+002, 2.882414e-001
7.829575e+002, 2.883301e-001
7.848860e+002, 2.888518e-001
7.868145e+002, 2.890489e-001
7.887429e+002, 2.891275e-001
7.906714e+002, 2.893426e-001
7.925999e+002, 2.899273e-001
7.945283e+002, 2.900603e-001
7.964568e+002, 2.903486e-001
7.983853e+002, 2.911899e-001
8.003137e+002, 2.913233e-001
8.022422e+002, 2.911962e-001
8.041707e+002, 2.913479e-001
8.060991e+002, 2.916600e-001
8.080276e+002, 2.924922e-001
8.099561e+002, 2.929028e-001
8.118845e+002, 2.928197e-001
8.138130e+002, 2.927873e-001
8.157415e+002, 2.933209e-001
8.176699e+002, 2.937022e-001
8.195984e+002, 2.940667e-001
8.215269e+002, 2.941772e-001
8.234553e+002, 2.943724e-001
8.253838e+002, 2.949232e-001
8.273123e+002, 2.952248e-001
8.292407e+002, 2.955844e-001
8.311692e+002, 2.957920e-001
8.330977e+002, 2.955244e-001
8.350261e+002, 2.955694e-001
8.369546e+002, 2.959893e-001
8.388831e+002, 2.968388e-001
8.408115e+002, 2.974036e-001
8.427400e+002, 2.976526e-001
8.446685e+002, 2.980773e-001
8.465969e+002, 2.983670e-001
8.485254e+002, 2.985368e-001
8.504539e+002, 2.986661e-001
8.523823e+002, 2.985829e-001
8.543108e+002, 2.989942e-001
8.562393e+002, 2.996671e-001
8.581677e+002, 3.000449e-001
8.600962e+002, 3.003966e-001
8.620247e+002, 3.007707e-001
8.639531e+002, 3.007751e-001
8.658816e+002, 3.009870e-001
8.678101e+002, 3.012953e-001
8.697385e+002, 3.017135e-001
8.716670e+002, 3.020232e-001
8.735955e+002, 3.017773e-001
8.755239e+002, 3.018242e-001
8.774524e+002, 3.021734e-001
8.793809e+002, 3.025953e-001
8.813093e+002, 3.027829e-001
8.832378e+002, 3.031965e-001
8.851663e+002, 3.036761e-001
8.870947e+002, 3.038754e-001
8.890232e+002, 3.038865e-001
8.909517e+002, 3.043853e-001
8.928801e+002, 3.048514e-001
8.948085e+002, 3.049596e-001
8.967370e+002, 3.050592e-001
8.986655e+002, 3.053465e-001
9.005939e+002, 3.056933e-001
9.025224e+002, 3.061599e-001
9.044509e+002, 3.065384e-001
9.063793e+002, 3.070209e-001
9.083078e+002, 3.072458e-001
9.102363e+002, 3.074250e-001
9.121647e+002, 3.076732e-001
9.140932e+002, 3.078343e-001
9.160217e+002, 3.081508e-001
9.179501e+002, 3.085938e-001
9.198786e+002, 3.088913e-001
9.218071e+002, 3.086848e-001
9.237355e+002, 3.086621e-001
9.256640e+002, 3.090785e-001
9.275925e+002, 3.093683e-001
9.295209e+002, 3.098011e-001
9.314494e+002, 3.101887e-001
9.333779e+002, 3.101468e-001
9.353063e+002, 3.101042e-001
9.372348e+002, 3.103295e-001
9.391633e+002, 3.107013e-001
9.410917e+002, 3.110792e-001
9.430202e+002, 3.115525e-001
9.449487e+002, 3.116542e-001
9.468771e+002, 3.117041e-001
9.488056e+002, 3.117731e-001
9.507341e+002, 3.119968e-001
9.526625e+002, 3.125575e-001
9.545910e+002, 3.130033e-001
9.565195e+002, 3.131928e-001
9.584479e+002, 3.133588e-001
9.603764e+002, 3.135431e-001
9.623049e+002, 3.136329e-001
9.642333e+002, 3.137821e-001
9.661618e+002, 3.140058e-001
9.680903e+002, 3.139922e-001
9.700187e+002, 3.138657e-001
9.719472e+002, 3.141932e-001
9.738757e+002, 3.147120e-001
9.758041e+002, 3.149211e-001
9.777326e+002, 3.149311e-001
9.796611e+002, 3.151710e-001
9.815895e+002, 3.155945e-001
9.835180e+002, 3.157370e-001
9.854465e+002, 3.156991e-001
9.873749e+002, 3.158847e-001
9.893034e+002, 3.162170e-001
9.912319e+002, 3.165398e-001
9.931603e+002, 3.167025e-001
9.950888e+002, 3.170046e-001
9.970173e+002, 3.172465e-001
9.989457e+002, 3.172543e-001
1.000874e+003, 3.173867e-001
1.002803e+003, 3.176437e-001
1.004731e+003, 3.179033e-001
1.006660e+003, 3.181977e-001
1.008588e+003, 3.184588e-001
1.010517e+003, 3.187677e-001
1.012445e+003, 3.190667e-001
1.014373e+003, 3.195435e-001
1.016302e+003, 3.199496e-001
1.018230e+003, 3.201384e-001
1.020159e+003, 3.202034e-001
1.022087e+003, 3.202695e-001
1.024016e+003, 3.204851e-001
1.025944e+003, 3.211281e-001
1.027873e+003, 3.214983e-001
1.029801e+003, 3.215770e-001
1.031730e+003, 3.216906e-001
1.033658e+003, 3.218420e-001
1.035587e+003, 3.221353e-001
1.037515e+003, 3.224908e-001
1.039444e+003, 3.227097e-001
1.041372e+003, 3.227769e-001
1.043301e+003, 3.228284e-001
1.045229e+003, 3.231439e-001
1.047157e+003, 3.234620e-001
1.049086e+003, 3.236020e-001
1.051014e+003, 3.238135e-001
1.052943e+003, 3.241933e-001
1.054871e+003, 3.243422e-001
1.056800e+003, 3.244503e-001
1.058728e+003, 3.247859e-001
1.060657e+003, 3.250176e-001
1.062585e+003, 3.251464e-001
1.064514e+003, 3.254227e-001
1.066442e+003, 3.255312e-001
1.068371e+003, 3.257729e-001
1.070299e+003, 3.260224e-001
1.072228e+003, 3.262595e-001
1.074156e+003, 3.268083e-001
1.076084e+003, 3.271005e-001
1.078013e+003, 3.270129e-001
1.079941e+003, 3.269958e-001
1.081870e+003, 3.270723e-001
1.083798e+003, 3.273498e-001
1.085727e+003, 3.279490e-001
1.087655e+003, 3.281325e-001
1.089584e+003, 3.282349e-001
1.091512e+003, 3.285458e-001
1.093441e+003, 3.287306e-001
1.095369e+003, 3.289202e-001
1.097298e+003, 3.292494e-001
1.099226e+003, 3.294374e-001
1.101155e+003, 3.295341e-001
1.103083e+003, 3.299675e-001
1.105011e+003, 3.301734e-001
1.106940e+003, 3.302841e-001
1.108868e+003, 3.303720e-001
1.110797e+003, 3.306365e-001
1.112725e+003, 3.310979e-001
1.114654e+003, 3.315047e-001
1.116582e+003, 3.318888e-001
1.118511e+003, 3.321621e-001
1.120439e+003, 3.322651e-001
1.122368e+003, 3.323930e-001
1.124296e+003, 3.326447e-001
1.126225e+003, 3.329328e-001
1.128153e+003, 3.332031e-001
1.130082e+003, 3.337366e-001
1.132010e+003, 3.342151e-001
1.133938e+003, 3.347244e-001
1.135867e+003, 3.351571e-001
1.137795e+003, 3.355136e-001
1.139724e+003, 3.357891e-001
1.141652e+003, 3.362635e-001
1.143581e+003, 3.368765e-001
1.145509e+003, 3.370488e-001
1.147438e+003, 3.370193e-001
1.149366e+003, 3.371911e-001
1.151295e+003, 3.373774e-001
1.153223e+003, 3.373202e-001
1.155152e+003, 3.372201e-001
1.157080e+003, 3.372081e-001
1.159009e+003, 3.374002e-001
1.160937e+003, 3.374255e-001
1.162865e+003, 3.371883e-001
1.164794e+003, 3.373063e-001
1.166722e+003, 3.377956e-001
1.168651e+003, 3.379186e-001
1.170579e+003, 3.379675e-001
1.172508e+003, 3.380157e-001
1.174436e+003, 3.382177e-001
1.176365e+003, 3.383870e-001
1.178293e+003, 3.385920e-001
1.180222e+003, 3.387353e-001
1.182150e+003, 3.390753e-001
1.184079e+003, 3.393636e-001
1.186007e+003, 3.394265e-001
1.187936e+003, 3.398173e-001
1.189864e+003, 3.401653e-001
1.191792e+003, 3.403561e-001
1.193721e+003, 3.406676e-001
1.195649e+003, 3.412799e-001
1.197578e+003, 3.418247e-001
1.199506e+003, 3.421480e-001
1.201435e+003, 3.422290e-001
1.203363e+003, 3.422765e-001
1.205292e+003, 3.426105e-001
1.207220e+003, 3.428966e-001
1.209149e+003, 3.428020e-001
1.211077e+003, 3.428793e-001
1.213006e+003, 3.432195e-001
1.214934e+003, 3.434239e-001
1.216863e+003, 3.436488e-001
1.218791e+003, 3.439049e-001
1.220719e+003, 3.440533e-001
1.222648e+003, 3.442145e-001
1.224576e+003, 3.442821e-001
1.226505e+003, 3.443904e-001
1.228433e+003, 3.447537e-001
1.230362e+003, 3.448805e-001
1.232290e+003, 3.448338e-001
1.234219e+003, 3.449531e-001
1.236147e+003, 3.451771e-001
1.238076e+003, 3.455517e-001
1.240004e+003, 3.458651e-001
1.241933e+003, 3.458934e-001
1.243861e+003, 3.458954e-001
1.245790e+003, 3.462821e-001
1.247718e+003, 3.467556e-001
1.249646e+003, 3.468675e-001
1.251575e+003, 3.468045e-001
1.253503e+003, 3.469494e-001
1.255432e+003, 3.472597e-001
1.257360e+003, 3.474509e-001
1.259289e+003, 3.474793e-001
1.261217e+003, 3.477032e-001
1.263146e+003, 3.478095e-001
1.265074e+003, 3.477222e-001
1.267003e+003, 3.480334e-001
1.268931e+003, 3.485332e-001
1.270860e+003, 3.486852e-001
1.272788e+003, 3.488088e-001
1.274717e+003, 3.491143e-001
1.276645e+003, 3.493597e-001
1.278573e+003, 3.496796e-001
1.280502e+003, 3.498631e-001
1.282430e+003, 3.500656e-001
1.284359e+003, 3.503587e-001
1.286287e+003, 3.508063e-001
1.288216e+003, 3.509645e-001
1.290144e+003, 3.511287e-001
1.292073e+003, 3.513233e-001
1.294001e+003, 3.515930e-001
1.295930e+003, 3.519268e-001
1.297858e+003, 3.522601e-001
1.299787e+003, 3.525081e-001
1.301715e+003, 3.525050e-001
1.303644e+003, 3.524705e-001
1.305572e+003, 3.527015e-001
1.307500e+003, 3.527844e-001
1.309429e+003, 3.528106e-001
1.311357e+003, 3.528619e-001
1.313286e+003, 3.531596e-001
1.315214e+003, 3.533590e-001
1.317143e+003, 3.537437e-001
1.319071e+003, 3.541131e-001
1.321000e+003, 3.544499e-001
1.322928e+003, 3.546295e-001
1.324857e+003, 3.548046e-001
1.326785e+003, 3.549141e-001
1.328714e+003, 3.551101e-001
1.330642e+003, 3.552374e-001
1.332571e+003, 3.554847e-001
1.334499e+003, 3.557117e-001
1.336427e+003, 3.557481e-001
1.338356e+003, 3.559795e-001
1.340284e+003, 3.561953e-001
1.342213e+003, 3.564377e-001
1.344141e+003, 3.566501e-001
1.346070e+003, 3.565307e-001
1.347998e+003, 3.567582e-001
1.349927e+003, 3.570469e-001
1.351855e+003, 3.574459e-001
1.353784e+003, 3.577990e-001
1.355712e+003, 3.578670e-001
1.357641e+003, 3.578247e-001
1.359569e+003, 3.579945e-001
1.361498e+003, 3.585297e-001
1.363426e+003, 3.586488e-001
1.365354e+003, 3.586349e-001
1.367283e+003, 3.588065e-001
1.369211e+003, 3.588487e-001
1.371140e+003, 3.590383e-001
1.373068e+003, 3.592299e-001
1.374997e+003, 3.593819e-001
1.376925e+003, 3.596914e-001
1.378854e+003, 3.597038e-001
1.380782e+003, 3.594429e-001
1.382711e+003, 3.597738e-001
1.384639e+003, 3.601054e-001
1.386568e+003, 3.603624e-001
1.388496e+003, 3.605839e-001
1.390424e+003, 3.606540e-001
1.392353e+003, 3.607530e-001
1.394281e+003, 3.611477e-001
1.396210e+003, 3.615214e-001
1.398138e+003, 3.613932e-001
1.400067e+003, 3.613543e-001
1.401995e+003, 3.616564e-001
1.403924e+003, 3.617867e-001
1.405852e+003, 3.619066e-001
1.407781e+003, 3.622261e-001
1.409709e+003, 3.624214e-001
1.411638e+003, 3.624080e-001
1.413566e+003, 3.623561e-001
1.415495e+003, 3.625713e-001
1.417423e+003, 3.628783e-001
1.419351e+003, 3.629587e-001
1.421280e+003, 3.632360e-001
1.423208e+003, 3.633352e-001
1.425137e+003, 3.635211e-001
1.427065e+003, 3.638857e-001
1.428994e+003, 3.643610e-001
1.430922e+003, 3.644215e-001
1.432851e+003, 3.642537e-001
1.434779e+003, 3.645011e-001
1.436708e+003, 3.646165e-001
1.438636e+003, 3.648009e-001
1.440565e+003, 3.650446e-001
1.442493e+003, 3.654835e-001
1.444422e+003, 3.657556e-001
1.446350e+003, 3.661065e-001
1.448278e+003, 3.663386e-001
1.450207e+003, 3.666517e-001
1.452135e+003, 3.667867e-001
1.454064e+003, 3.668253e-001
1.455992e+003, 3.667842e-001
1.457921e+003, 3.668761e-001
1.459849e+003, 3.672540e-001
1.461778e+003, 3.672713e-001
1.463706e+003, 3.675296e-001
1.465635e+003, 3.675556e-001
1.467563e+003, 3.677505e-001
1.469492e+003, 3.680621e-001
1.471420e+003, 3.684638e-001
1.473349e+003, 3.685359e-001
1.475277e+003, 3.688806e-001
1.477205e+003, 3.692331e-001
1.479134e+003, 3.694429e-001
1.481062e+003, 3.694820e-001
1.482991e+003, 3.698097e-001
1.484919e+003, 3.701121e-001
1.486848e+003, 3.702123e-001
1.488776e+003, 3.703108e-001
1.490705e+003, 3.704521e-001
1.492633e+003, 3.706927e-001
1.494562e+003, 3.708684e-001
1.496490e+003, 3.708645e-001
1.498419e+003, 3.708527e-001
1.500347e+003, 3.711938e-001
1.502276e+003, 3.719441e-001
1.504204e+003, 3.721275e-001
1.506132e+003, 3.719033e-001
1.508061e+003, 3.721104e-001
1.509989e+003, 3.728676e-001
1.511918e+003, 3.729898e-001
1.513846e+003, 3.730057e-001
1.515775e+003, 3.732000e-001
1.517703e+003, 3.733124e-001
1.519632e+003, 3.735404e-001
1.521560e+003, 3.734096e-001
1.523489e+003, 3.736427e-001
1.525417e+003, 3.742053e-001
1.527346e+003, 3.745855e-001
1.529274e+003, 3.746970e-001
1.531203e+003, 3.747334e-001
1.533131e+003, 3.749892e-001
1.535059e+003, 3.752006e-001
1.536988e+003, 3.753644e-001
1.538916e+003, 3.752945e-001
1.540845e+003, 3.751211e-001
1.542773e+003, 3.754795e-001
1.544702e+003, 3.759694e-001
1.546630e+003, 3.763719e-001
1.548559e+003, 3.765077e-001
1.550487e+003, 3.766113e-001
1.552416e+003, 3.768453e-001
1.554344e+003, 3.770065e-001
1.556273e+003, 3.772223e-001
1.558201e+003, 3.773397e-001
1.560130e+003, 3.772976e-001
1.562058e+003, 3.775278e-001
1.563986e+003, 3.776535e-001
1.565915e+003, 3.777966e-001
1.567843e+003, 3.782943e-001
1.569772e+003, 3.786572e-001
1.571700e+003, 3.788855e-001
1.573629e+003, 3.792768e-001
1.575557e+003, 3.796244e-001
1.577486e+003, 3.795137e-001
1.579414e+003, 3.796156e-001
1.581343e+003, 3.796256e-001
1.583271e+003, 3.799720e-001
1.585200e+003, 3.801701e-001
1.587128e+003, 3.802546e-001
1.589057e+003, 3.803200e-001
1.590985e+003, 3.804582e-001
1.592913e+003, 3.804896e-001
1.594842e+003, 3.805666e-001
1.596770e+003, 3.808841e-001
1.598699e+003, 3.812276e-001
1.600627e+003, 3.814260e-001
1.602556e+003, 3.820443e-001
1.604484e+003, 3.821136e-001
1.606413e+003, 3.821242e-001
1.608341e+003, 3.823510e-001
1.610270e+003, 3.824381e-001
1.612198e+003, 3.824575e-001
1.614127e+003, 3.826411e-001
1.616055e+003, 3.829481e-001
1.617984e+003, 3.831664e-001
1.619912e+003, 3.836547e-001
1.621840e+003, 3.837399e-001
1.623769e+003, 3.837787e-001
1.625697e+003, 3.840372e-001
1.627626e+003, 3.843683e-001
1.629554e+003, 3.845950e-001
1.631483e+003, 3.845606e-001
1.633411e+003, 3.847032e-001
1.635340e+003, 3.847786e-001
1.637268e+003, 3.849351e-001
1.639197e+003, 3.853023e-001
1.641125e+003, 3.855308e-001
1.643054e+003, 3.859108e-001
1.644982e+003, 3.861264e-001
1.646911e+003, 3.857752e-001
1.648839e+003, 3.858897e-001
1.650767e+003, 3.864312e-001
1.652696e+003, 3.862801e-001
1.654624e+003, 3.861890e-001
1.656553e+003, 3.868615e-001
1.658481e+003, 3.871270e-001
1.660410e+003, 3.871762e-001
1.662338e+003, 3.872391e-001
1.664267e+003, 3.871650e-001
1.666195e+003, 3.872964e-001
1.668124e+003, 3.874492e-001
1.670052e+003, 3.873708e-001
1.671981e+003, 3.878477e-001
1.673909e+003, 3.883004e-001
1.675838e+003, 3.885278e-001
1.677766e+003, 3.887542e-001
1.679694e+003, 3.887215e-001
1.681623e+003, 3.886853e-001
1.683551e+003, 3.888181e-001
1.685480e+003, 3.888144e-001
1.687408e+003, 3.890941e-001
1.689337e+003, 3.893445e-001
1.691265e+003, 3.898054e-001
1.693194e+003, 3.902162e-001
1.695122e+003, 3.901722e-001
1.697051e+003, 3.897725e-001
1.698979e+003, 3.901358e-001
1.700908e+003, 3.900288e-001
1.702836e+003, 3.908015e-001
1.704765e+003, 3.908762e-001
1.706693e+003, 3.911949e-001
1.708621e+003, 3.918078e-001
1.710550e+003, 3.917290e-001
1.712478e+003, 3.914748e-001
1.714407e+003, 3.916861e-001
1.716335e+003, 3.918918e-001
1.718264e+003, 3.917179e-001
1.720192e+003, 3.923806e-001
1.722121e+003, 3.930207e-001
1.724049e+003, 3.931063e-001
1.725978e+003, 3.932300e-001
1.727906e+003, 3.933130e-001
1.729835e+003, 3.931793e-001
1.731763e+003, 3.932605e-001
1.733692e+003, 3.936643e-001
1.735620e+003, 3.937920e-001
1.737548e+003, 3.941873e-001
1.739477e+003, 3.945578e-001
1.741405e+003, 3.947263e-001
1.743334e+003, 3.946316e-001
1.745262e+003, 3.947173e-001
1.747191e+003, 3.951308e-001
1.749119e+003, 3.951586e-001
1.751048e+003, 3.949255e-001
1.752976e+003, 3.948120e-001
1.754905e+003, 3.951581e-001
1.756833e+003, 3.955645e-001
1.758762e+003, 3.960760e-001
1.760690e+003, 3.961794e-001
1.762619e+003, 3.960216e-001
1.764547e+003, 3.960710e-001
1.766475e+003, 3.961816e-001
1.768404e+003, 3.962188e-001
1.770332e+003, 3.964946e-001
1.772261e+003, 3.964306e-001
1.774189e+003, 3.964852e-001
1.776118e+003, 3.966083e-001
1.778046e+003, 3.968219e-001
1.779975e+003, 3.972025e-001
1.781903e+003, 3.974586e-001
1.783832e+003, 3.974786e-001
1.785760e+003, 3.973592e-001
1.787689e+003, 3.973014e-001
1.789617e+003, 3.975317e-001
1.791546e+003, 3.975360e-001
1.793474e+003, 3.972182e-001
1.795402e+003, 3.974057e-001
1.797331e+003, 3.981154e-001
1.799259e+003, 3.982140e-001
1.801188e+003, 3.979109e-001
1.803116e+003, 3.979155e-001
1.805045e+003, 3.983534e-001
1.806973e+003, 3.988755e-001
1.808902e+003, 3.989832e-001
1.810830e+003, 3.988243e-001
1.812759e+003, 3.985382e-001
1.814687e+003, 3.983337e-001
1.816616e+003, 3.983030e-001
1.818544e+003, 3.987312e-001
1.820473e+003, 3.991457e-001
1.822401e+003, 3.991317e-001
1.824329e+003, 3.994617e-001
1.826258e+003, 3.999226e-001
1.828186e+003, 3.999763e-001
1.830115e+003, 4.000378e-001
1.832043e+003, 3.994832e-001
1.833972e+003, 3.990767e-001
1.835900e+003, 3.992479e-001
1.837829e+003, 3.995720e-001
1.839757e+003, 4.001079e-001
1.841686e+003, 4.001344e-001
1.843614e+003, 4.000559e-001
1.845543e+003, 3.999773e-001
1.847471e+003, 4.004384e-001
1.849400e+003, 4.007321e-001
1.851328e+003, 4.003957e-001
1.853256e+003, 4.003608e-001
1.855185e+003, 4.005730e-001
1.857113e+003, 4.009639e-001
1.859042e+003, 4.009726e-001
1.860970e+003, 4.007456e-001
1.862899e+003, 4.004089e-001
1.864827e+003, 4.007839e-001
1.866756e+003, 4.015270e-001
1.868684e+003, 4.018420e-001
1.870613e+003, 4.016526e-001
1.872541e+003, 4.016182e-001
1.874470e+003, 4.016583e-001
1.876398e+003, 4.016934e-001
1.878327e+003, 4.020244e-001
1.880255e+003, 4.023036e-001
1.882183e+003, 4.021053e-001
1.884112e+003, 4.018298e-001
1.886040e+003, 4.017896e-001
1.887969e+003, 4.013666e-001
1.889897e+003, 4.013663e-001
1.891826e+003, 4.020821e-001
1.893754e+003, 4.022702e-001
1.895683e+003, 4.020379e-001
1.897611e+003, 4.022739e-001
1.899540e+003, 4.024534e-001
1.901468e+003, 4.020014e-001
1.903397e+003, 4.019710e-001
1.905325e+003, 4.020351e-001
1.907254e+003, 4.024062e-001
1.909182e+003, 4.031597e-001
1.911110e+003, 4.030338e-001
1.913039e+003, 4.029371e-001
1.914967e+003, 4.034828e-001
1.916896e+003, 4.031463e-001
1.918824e+003, 4.026506e-001
1.920753e+003, 4.031296e-001
1.922681e+003, 4.029262e-001
1.924610e+003, 4.027015e-001
1.926538e+003, 4.017320e-001
1.928467e+003, 4.012075e-001
1.930395e+003, 4.018559e-001
1.932324e+003, 4.014874e-001
1.934252e+003, 4.002755e-001
1.936181e+003, 4.004066e-001
1.938109e+003, 4.006815e-001
1.940037e+003, 3.995454e-001
1.941966e+003, 3.992169e-001
1.943894e+003, 3.995460e-001
1.945823e+003, 3.992901e-001
1.947751e+003, 3.985638e-001
1.949680e+003, 3.987516e-001
1.951608e+003, 3.978564e-001
1.953537e+003, 3.988602e-001
1.955465e+003, 3.988227e-001
1.957394e+003, 3.975780e-001
1.959322e+003, 3.971757e-001
1.961251e+003, 3.974196e-001
1.963179e+003, 3.971965e-001
1.965108e+003, 3.960401e-001
1.967036e+003, 3.942454e-001
1.968964e+003, 3.947612e-001
1.970893e+003, 3.947614e-001
1.972821e+003, 3.925132e-001
1.974750e+003, 3.918945e-001
1.976678e+003, 3.943491e-001
1.978607e+003, 3.966274e-001
1.980535e+003, 3.983567e-001
1.982464e+003, 3.971294e-001
1.984392e+003, 3.966807e-001
1.986321e+003, 3.983701e-001
1.988249e+003, 3.985618e-001
1.990178e+003, 3.983430e-001
1.992106e+003, 3.979502e-001
1.994035e+003, 3.977023e-001
1.995963e+003, 3.983939e-001
1.997891e+003, 3.988931e-001
1.999820e+003, 3.990701e-001
2.001748e+003, 3.991154e-001
2.003677e+003, 3.978187e-001
2.005605e+003, 3.955878e-001
2.007534e+003, 3.939199e-001
2.009462e+003, 3.946659e-001
2.011391e+003, 3.948992e-001
2.013319e+003, 3.953586e-001
2.015248e+003, 3.962986e-001
2.017176e+003, 3.969082e-001
2.019105e+003, 3.983313e-001
2.021033e+003, 3.977201e-001
2.022962e+003, 3.965794e-001
2.024890e+003, 3.943617e-001
2.026818e+003, 3.938737e-001
2.028747e+003, 3.970792e-001
2.030675e+003, 4.005578e-001
2.032604e+003, 4.009264e-001
2.034532e+003, 4.000480e-001
2.036461e+003, 4.003672e-001
2.038389e+003, 4.017638e-001
2.040318e+003, 4.020690e-001
2.042246e+003, 4.020890e-001
2.044175e+003, 4.035446e-001
2.046103e+003, 4.056834e-001
2.048032e+003, 4.070683e-001
2.049960e+003, 4.077834e-001
2.051889e+003, 4.077656e-001
2.053817e+003, 4.080856e-001
2.055746e+003, 4.092319e-001
2.057674e+003, 4.103863e-001
2.059603e+003, 4.104657e-001
2.061531e+003, 4.110975e-001
2.063459e+003, 4.109159e-001
2.065388e+003, 4.115057e-001
2.067316e+003, 4.113574e-001
2.069245e+003, 4.113642e-001
2.071173e+003, 4.122328e-001
2.073102e+003, 4.129847e-001
2.075030e+003, 4.138338e-001
2.076959e+003, 4.146074e-001
2.078887e+003, 4.145655e-001
2.080816e+003, 4.143654e-001
2.082744e+003, 4.151402e-001
2.084673e+003, 4.159548e-001
2.086601e+003, 4.162153e-001
2.088530e+003, 4.159299e-001
2.090458e+003, 4.160148e-001
2.092386e+003, 4.164185e-001
2.094315e+003, 4.162679e-001
2.096243e+003, 4.154961e-001
2.098172e+003, 4.164318e-001
2.100100e+003, 4.178384e-001
2.102029e+003, 4.188225e-001
2.103957e+003, 4.194780e-001
2.105886e+003, 4.180678e-001
2.107814e+003, 4.183775e-001
2.109743e+003, 4.195718e-001
2.111671e+003, 4.191886e-001
2.113600e+003, 4.196679e-001
2.115528e+003, 4.198318e-001
2.117457e+003, 4.194202e-001
2.119385e+003, 4.192907e-001
2.121313e+003, 4.190391e-001
2.123242e+003, 4.175881e-001
2.125170e+003, 4.167713e-001
2.127099e+003, 4.174297e-001
2.129027e+003, 4.166510e-001
2.130956e+003, 4.150341e-001
2.132884e+003, 4.146627e-001
2.134813e+003, 4.151984e-001
2.136741e+003, 4.162645e-001
2.138670e+003, 4.143086e-001
2.140598e+003, 4.125343e-001
2.142527e+003, 4.140002e-001
2.144455e+003, 4.145718e-001
2.146384e+003, 4.131680e-001
2.148312e+003, 4.109730e-001
2.150240e+003, 4.088064e-001
2.152169e+003, 4.075992e-001
2.154097e+003, 4.067856e-001
2.156026e+003, 4.042498e-001
2.157954e+003, 4.029004e-001
2.159883e+003, 4.029893e-001
2.161811e+003, 4.039813e-001
2.163740e+003, 4.096439e-001
2.165668e+003, 4.107338e-001
2.167597e+003, 4.101321e-001
2.169525e+003, 4.113420e-001
2.171454e+003, 4.132570e-001
2.173382e+003, 4.132318e-001
2.175311e+003, 4.125962e-001
2.177239e+003, 4.126864e-001
2.179167e+003, 4.137148e-001
2.181096e+003, 4.155186e-001
2.183024e+003, 4.157261e-001
2.184953e+003, 4.157139e-001
2.186881e+003, 4.170991e-001
2.188810e+003, 4.183683e-001
2.190738e+003, 4.182667e-001
2.192667e+003, 4.180329e-001
2.194595e+003, 4.191453e-001
2.196524e+003, 4.209544e-001
2.198452e+003, 4.207114e-001
2.200381e+003, 4.202242e-001
2.202309e+003, 4.201236e-001
2.204238e+003, 4.196458e-001
2.206166e+003, 4.196687e-001
2.208094e+003, 4.216535e-001
2.210023e+003, 4.220299e-001
2.211951e+003, 4.225923e-001
2.213880e+003, 4.247571e-001
2.215808e+003, 4.250542e-001
2.217737e+003, 4.247155e-001
2.219665e+003, 4.251215e-001
2.221594e+003, 4.244517e-001
2.223522e+003, 4.242374e-001
2.225451e+003, 4.256270e-001
2.227379e+003, 4.269229e-001
2.229308e+003, 4.269747e-001
2.231236e+003, 4.268260e-001
2.233165e+003, 4.286330e-001
2.235093e+003, 4.296746e-001
2.237021e+003, 4.291600e-001
2.238950e+003, 4.289190e-001
2.240878e+003, 4.288040e-001
2.242807e+003, 4.292689e-001
2.244735e+003, 4.301926e-001
2.246664e+003, 4.305867e-001
2.248592e+003, 4.303246e-001
2.250521e+003, 4.295214e-001
2.252449e+003, 4.285953e-001
2.254378e+003, 4.302469e-001
2.256306e+003, 4.314606e-001
2.258235e+003, 4.322424e-001
2.260163e+003, 4.338752e-001
2.262092e+003, 4.348638e-001
2.264020e+003, 4.335916e-001
2.265948e+003, 4.325703e-001
2.267877e+003, 4.334804e-001
2.269805e+003, 4.341578e-001
2.271734e+003, 4.348206e-001
2.273662e+003, 4.367763e-001
2.275591e+003, 4.371094e-001
2.277519e+003, 4.375394e-001
2.279448e+003, 4.379413e-001
2.281376e+003, 4.380425e-001
2.283305e+003, 4.381723e-001
2.285233e+003, 4.396448e-001
2.287162e+003, 4.402941e-001
2.289090e+003, 4.407358e-001
2.291019e+003, 4.412867e-001
2.292947e+003, 4.414147e-001
2.294875e+003, 4.417377e-001
2.296804e+003, 4.420275e-001
2.298732e+003, 4.423375e-001
2.300661e+003, 4.431494e-001
2.302589e+003, 4.431906e-001
2.304518e+003, 4.434730e-001
2.306446e+003, 4.447424e-001
2.308375e+003, 4.451920e-001
2.310303e+003, 4.448019e-001
2.312232e+003, 4.452138e-001
2.314160e+003, 4.461069e-001
2.316089e+003, 4.467106e-001
2.318017e+003, 4.465691e-001
2.319946e+003, 4.469047e-001
2.321874e+003, 4.478410e-001
2.323802e+003, 4.484458e-001
2.325731e+003, 4.484594e-001
2.327659e+003, 4.484241e-001
2.329588e+003, 4.481121e-001
2.331516e+003, 4.476020e-001
2.333445e+003, 4.482954e-001
2.335373e+003, 4.487351e-001
2.337302e+003, 4.489862e-001
2.339230e+003, 4.490960e-001
2.341159e+003, 4.489354e-001
2.343087e+003, 4.490298e-001
2.345016e+003, 4.496586e-001
2.346944e+003, 4.496372e-001
2.348873e+003, 4.495013e-001
2.350801e+003, 4.490067e-001
2.352729e+003, 4.494086e-001
2.354658e+003, 4.500588e-001
2.356586e+003, 4.501280e-001
2.358515e+003, 4.500970e-001
2.360443e+003, 4.498927e-001
2.362372e+003, 4.497806e-001
2.364300e+003, 4.501532e-001
2.366229e+003, 4.500759e-001
2.368157e+003, 4.500976e-001
2.370086e+003, 4.504839e-001
2.372014e+003, 4.512223e-001
2.373942e+003, 4.515258e-001
2.375871e+003, 4.510355e-001
2.377799e+003, 4.509571e-001
2.379728e+003, 4.508991e-001
2.381656e+003, 4.506536e-001
2.383585e+003, 4.505082e-001
2.385513e+003, 4.505088e-001
2.387442e+003, 4.505091e-001
2.389370e+003, 4.505749e-001
2.391299e+003, 4.511369e-001
2.393227e+003, 4.517364e-001
2.395156e+003, 4.522833e-001
2.397084e+003, 4.519409e-001
2.399012e+003, 4.513244e-001
2.400941e+003, 4.525511e-001
2.402869e+003, 4.531563e-001
2.404798e+003, 4.524877e-001
2.406726e+003, 4.523295e-001
2.408655e+003, 4.530279e-001
2.410583e+003, 4.533033e-001
2.412512e+003, 4.524804e-001
2.414440e+003, 4.526470e-001
2.416369e+003, 4.532410e-001
2.418297e+003, 4.538557e-001
2.420226e+003, 4.542357e-001
2.422154e+003, 4.532730e-001
2.424083e+003, 4.525265e-001
2.426011e+003, 4.533662e-001
2.427939e+003, 4.541564e-001
2.429868e+003, 4.545939e-001
2.431796e+003, 4.542440e-001
2.433725e+003, 4.537870e-001
2.435653e+003, 4.551939e-001
2.437582e+003, 4.558349e-001
2.439510e+003, 4.552130e-001
2.441439e+003, 4.551370e-001
2.443367e+003, 4.558119e-001
2.445296e+003, 4.561103e-001
2.447224e+003, 4.554844e-001
2.449153e+003, 4.551731e-001
2.451081e+003, 4.559711e-001
2.453010e+003, 4.560659e-001
2.454938e+003, 4.557679e-001
2.456866e+003, 4.559414e-001
2.458795e+003, 4.563726e-001
2.460723e+003, 4.562244e-001
2.462652e+003, 4.567483e-001
2.464580e+003, 4.571981e-001
2.466509e+003, 4.576492e-001
2.468437e+003, 4.582401e-001
2.470366e+003, 4.586091e-001
2.472294e+003, 4.586259e-001
2.474223e+003, 4.582101e-001
2.476151e+003, 4.582210e-001
2.478080e+003, 4.595020e-001
2.480008e+003, 4.598168e-001
2.481937e+003, 4.589923e-001
2.483865e+003, 4.587738e-001
2.485793e+003, 4.591024e-001
2.487722e+003, 4.589466e-001
2.489650e+003, 4.589069e-001
2.491579e+003, 4.594726e-001
2.493507e+003, 4.606632e-001
2.495436e+003, 4.615089e-001
2.497364e+003, 4.614205e-001
2.499293e+003, 4.613820e-001
2.501221e+003, 4.608569e-001
2.503150e+003, 4.606769e-001
2.505078e+003, 4.611190e-001
2.507007e+003, 4.618941e-001
2.508935e+003, 4.621325e-001
2.510864e+003, 4.626245e-001
2.512792e+003, 4.620652e-001
2.514720e+003, 4.618876e-001
2.516649e+003, 4.620684e-001
2.518577e+003, 4.627468e-001
2.520506e+003, 4.633889e-001
2.522434e+003, 4.635303e-001
2.524363e+003, 4.640181e-001
2.526291e+003, 4.650778e-001
2.528220e+003, 4.645678e-001
2.530148e+003, 4.638249e-001
2.532077e+003, 4.641347e-001
2.534005e+003, 4.652825e-001
2.535934e+003, 4.651769e-001
2.537862e+003, 4.647560e-001
2.539791e+003, 4.652609e-001
2.541719e+003, 4.660687e-001
2.543647e+003, 4.654546e-001
2.545576e+003, 4.649289e-001
2.547504e+003, 4.655973e-001
2.549433e+003, 4.661015e-001
2.551361e+003, 4.660235e-001
2.553290e+003, 4.664891e-001
2.555218e+003, 4.666173e-001
2.557147e+003, 4.672824e-001
2.559075e+003, 4.674855e-001
2.561004e+003, 4.670426e-001
2.562932e+003, 4.678697e-001
2.564861e+003, 4.683856e-001
2.566789e+003, 4.689360e-001
2.568718e+003, 4.694358e-001
2.570646e+003, 4.692201e-001
2.572574e+003, 4.680099e-001
2.574503e+003, 4.677001e-001
2.576431e+003, 4.677576e-001
2.578360e+003, 4.681760e-001
2.580288e+003, 4.683242e-001
2.582217e+003, 4.686164e-001
2.584145e+003, 4.697338e-001
2.586074e+003, 4.703773e-001
2.588002e+003, 4.704236e-001
2.589931e+003, 4.706942e-001
2.591859e+003, 4.715807e-001
2.593788e+003, 4.716690e-001
2.595716e+003, 4.717766e-001
2.597645e+003, 4.723454e-001
2.599573e+003, 4.723007e-001
2.601501e+003, 4.719447e-001
2.603430e+003, 4.725554e-001
2.605358e+003, 4.726567e-001
2.607287e+003, 4.732754e-001
2.609215e+003, 4.738554e-001
2.611144e+003, 4.735668e-001
2.613072e+003, 4.731865e-001
2.615001e+003, 4.739479e-001
2.616929e+003, 4.751058e-001
2.618858e+003, 4.755441e-001
2.620786e+003, 4.750419e-001
2.622715e+003, 4.746306e-001
2.624643e+003, 4.759445e-001
2.626572e+003, 4.775186e-001
2.628500e+003, 4.772331e-001
2.630428e+003, 4.770301e-001
2.632357e+003, 4.778068e-001
2.634285e+003, 4.779007e-001
2.636214e+003, 4.782462e-001
2.638142e+003, 4.787834e-001
2.640071e+003, 4.790255e-001
2.641999e+003, 4.793889e-001
2.643928e+003, 4.800633e-001
2.645856e+003, 4.807436e-001
2.647785e+003, 4.810955e-001
2.649713e+003, 4.812191e-001
2.651642e+003, 4.813886e-001
2.653570e+003, 4.817178e-001
2.655499e+003, 4.822311e-001
2.657427e+003, 4.823017e-001
2.659355e+003, 4.822125e-001
2.661284e+003, 4.822576e-001
2.663212e+003, 4.832958e-001
2.665141e+003, 4.834361e-001
2.667069e+003, 4.832561e-001
2.668998e+003, 4.833227e-001
2.670926e+003, 4.831995e-001
2.672855e+003, 4.833164e-001
2.674783e+003, 4.838550e-001
2.676712e+003, 4.840869e-001
2.678640e+003, 4.837146e-001
2.680569e+003, 4.836313e-001
2.682497e+003, 4.842568e-001
2.684426e+003, 4.851486e-001
2.686354e+003, 4.849739e-001
2.688282e+003, 4.844950e-001
2.690211e+003, 4.846687e-001
2.692139e+003, 4.844510e-001
2.694068e+003, 4.849894e-001
2.695996e+003, 4.855525e-001
2.697925e+003, 4.855783e-001
2.699853e+003, 4.855711e-001
2.701782e+003, 4.862703e-001
2.703710e+003, 4.867182e-001
2.705639e+003, 4.864041e-001
2.707567e+003, 4.860446e-001
2.709496e+003, 4.862132e-001
2.711424e+003, 4.868296e-001
2.713353e+003, 4.867086e-001
2.715281e+003, 4.868792e-001
2.717209e+003, 4.872011e-001
2.719138e+003, 4.876053e-001
2.721066e+003, 4.884279e-001
2.722995e+003, 4.885149e-001
2.724923e+003, 4.887068e-001
2.726852e+003, 4.884772e-001
2.728780e+003, 4.888612e-001
2.730709e+003, 4.894166e-001
2.732637e+003, 4.889637e-001
2.734566e+003, 4.890369e-001
2.736494e+003, 4.898017e-001
2.738423e+003, 4.898691e-001
2.740351e+003, 4.900419e-001
2.742280e+003, 4.897931e-001
2.744208e+003, 4.895135e-001
2.746136e+003, 4.901970e-001
2.748065e+003, 4.910057e-001
2.749993e+003, 4.907535e-001
2.751922e+003, 4.901167e-001
2.753850e+003, 4.901920e-001
2.755779e+003, 4.906078e-001
2.757707e+003, 4.902131e-001
2.759636e+003, 4.900992e-001
2.761564e+003, 4.907999e-001
2.763493e+003, 4.918584e-001
2.765421e+003, 4.920220e-001
2.767350e+003, 4.918236e-001
2.769278e+003, 4.924165e-001
2.771207e+003, 4.926105e-001
2.773135e+003, 4.927263e-001
2.775063e+003, 4.927812e-001
2.776992e+003, 4.929971e-001
2.778920e+003, 4.932987e-001
2.780849e+003, 4.934793e-001
2.782777e+003, 4.937581e-001
2.784706e+003, 4.939080e-001
2.786634e+003, 4.939080e-001
2.788563e+003, 4.938543e-001
2.790491e+003, 4.935090e-001
2.792420e+003, 4.939422e-001
2.794348e+003, 4.944567e-001
2.796277e+003, 4.943184e-001
2.798205e+003, 4.942457e-001
2.800134e+003, 4.948791e-001
2.802062e+003, 4.953911e-001
2.803990e+003, 4.954426e-001
2.805919e+003, 4.949183e-001
2.807847e+003, 4.948355e-001
2.809776e+003, 4.953056e-001
2.811704e+003, 4.956273e-001
2.813633e+003, 4.962193e-001
2.815561e+003, 4.962405e-001
2.817490e+003, 4.964800e-001
2.819418e+003, 4.965617e-001
2.821347e+003, 4.961319e-001
2.823275e+003, 4.967301e-001
2.825204e+003, 4.976554e-001
2.827132e+003, 4.972997e-001
2.829061e+003, 4.967872e-001
2.830989e+003, 4.969102e-001
2.832917e+003, 4.972866e-001
2.834846e+003, 4.979790e-001
2.836774e+003, 4.983897e-001
2.838703e+003, 4.981609e-001
2.840631e+003, 4.982425e-001
2.842560e+003, 4.985504e-001
2.844488e+003, 4.990160e-001
2.846417e+003, 4.993073e-001
2.848345e+003, 4.994924e-001
2.850274e+003, 4.995634e-001
2.852202e+003, 4.991976e-001
2.854131e+003, 4.991069e-001
2.856059e+003, 4.988536e-001
2.857988e+003, 4.982579e-001
2.859916e+003, 4.989648e-001
2.861844e+003, 4.994546e-001
2.863773e+003, 4.989195e-001
2.865701e+003, 4.987871e-001
2.867630e+003, 4.998014e-001
2.869558e+003, 5.010054e-001
2.871487e+003, 5.005928e-001
2.873415e+003, 5.000075e-001
2.875344e+003, 5.004833e-001
2.877272e+003, 5.008736e-001
2.879201e+003, 5.010852e-001
2.881129e+003, 5.011235e-001
2.883058e+003, 5.012794e-001
2.884986e+003, 5.017887e-001
2.886915e+003, 5.020219e-001
2.888843e+003, 5.017424e-001
2.890771e+003, 5.013449e-001
2.892700e+003, 5.022717e-001
2.894628e+003, 5.025789e-001
2.896557e+003, 5.022663e-001
2.898485e+003, 5.034006e-001
2.900414e+003, 5.035885e-001
2.902342e+003, 5.029237e-001
2.904271e+003, 5.037021e-001
2.906199e+003, 5.040113e-001
2.908128e+003, 5.039651e-001
2.910056e+003, 5.044165e-001
2.911985e+003, 5.042137e-001
2.913913e+003, 5.043260e-001
2.915842e+003, 5.038655e-001
2.917770e+003, 5.037974e-001
2.919698e+003, 5.041552e-001
2.921627e+003, 5.040297e-001
2.923555e+003, 5.032611e-001
2.925484e+003, 5.026157e-001
2.927412e+003, 5.027887e-001
2.929341e+003, 5.027701e-001
2.931269e+003, 5.030240e-001
2.933198e+003, 5.035327e-001
2.935126e+003, 5.041127e-001
2.937055e+003, 5.038371e-001
2.938983e+003, 5.038620e-001
2.940912e+003, 5.043834e-001
2.942840e+003, 5.048329e-001
2.944769e+003, 5.052310e-001
2.946697e+003, 5.057055e-001
2.948625e+003, 5.053784e-001
2.950554e+003, 5.053482e-001
2.952482e+003, 5.057752e-001
2.954411e+003, 5.057154e-001
2.956339e+003, 5.050777e-001
2.958268e+003, 5.047801e-001
2.960196e+003, 5.051505e-001
2.962125e+003, 5.057572e-001
2.964053e+003, 5.060765e-001
2.965982e+003, 5.066178e-001
2.967910e+003, 5.072969e-001
2.969839e+003, 5.069400e-001
2.971767e+003, 5.063424e-001
2.973696e+003, 5.070147e-001
2.975624e+003, 5.074959e-001
2.977552e+003, 5.076542e-001
2.979481e+003, 5.074371e-001
2.981409e+003, 5.069141e-001
2.983338e+003, 5.072312e-001
2.985266e+003, 5.078696e-001
2.987195e+003, 5.078201e-001
2.989123e+003, 5.080532e-001
2.991052e+003, 5.085058e-001
2.992980e+003, 5.093601e-001
2.994909e+003, 5.098217e-001
2.996837e+003, 5.103015e-001
2.998766e+003, 5.100991e-001
3.000694e+003, 5.098661e-001
3.002623e+003, 5.104350e-001
3.004551e+003, 5.100309e-001
3.006479e+003, 5.096265e-001
3.008408e+003, 5.099985e-001
3.010336e+003, 5.098642e-001
3.012265e+003, 5.106769e-001
3.014193e+003, 5.114905e-001
3.016122e+003, 5.113831e-001
3.018050e+003, 5.112635e-001
3.019979e+003, 5.114985e-001
3.021907e+003, 5.114540e-001
3.023836e+003, 5.118390e-001
3.025764e+003, 5.124190e-001
3.027693e+003, 5.119008e-001
3.029621e+003, 5.121963e-001
3.031550e+003, 5.129644e-001
3.033478e+003, 5.135956e-001
3.035406e+003, 5.133762e-001
3.037335e+003, 5.134994e-001
3.039263e+003, 5.134916e-001
3.041192e+003, 5.140319e-001
3.043120e+003, 5.144191e-001
3.045049e+003, 5.144385e-001
3.046977e+003, 5.138699e-001
3.048906e+003, 5.144193e-001
3.050834e+003, 5.149444e-001
3.052763e+003, 5.149050e-001
3.054691e+003, 5.153518e-001
3.056620e+003, 5.149963e-001
3.058548e+003, 5.147703e-001
3.060477e+003, 5.148221e-001
3.062405e+003, 5.150572e-001
3.064333e+003, 5.154575e-001
3.066262e+003, 5.154345e-001
3.068190e+003, 5.157720e-001
3.070119e+003, 5.166300e-001
3.072047e+003, 5.173231e-001
3.073976e+003, 5.177206e-001
3.075904e+003, 5.170708e-001
3.077833e+003, 5.165527e-001
3.079761e+003, 5.170854e-001
3.081690e+003, 5.179380e-001
3.083618e+003, 5.186789e-001
3.085547e+003, 5.183110e-001
3.087475e+003, 5.173758e-001
3.089404e+003, 5.172052e-001
3.091332e+003, 5.176896e-001
3.093260e+003, 5.177358e-001
3.095189e+003, 5.183378e-001
3.097117e+003, 5.197259e-001
3.099046e+003, 5.189565e-001
3.100974e+003, 5.176601e-001
3.102903e+003, 5.184338e-001
3.104831e+003, 5.193737e-001
3.106760e+003, 5.196080e-001
3.108688e+003, 5.200079e-001
3.110617e+003, 5.203304e-001
3.112545e+003, 5.205172e-001
3.114474e+003, 5.208656e-001
3.116402e+003, 5.204840e-001
3.118331e+003, 5.195381e-001
3.120259e+003, 5.198944e-001
3.122188e+003, 5.211836e-001
3.124116e+003, 5.214573e-001
3.126044e+003, 5.204561e-001
3.127973e+003, 5.206556e-001
3.129901e+003, 5.204376e-001
3.131830e+003, 5.206103e-001
3.133758e+003, 5.221974e-001
3.135687e+003, 5.232239e-001
3.137615e+003, 5.229954e-001
3.139544e+003, 5.228803e-001
3.141472e+003, 5.232759e-001
3.143401e+003, 5.226653e-001
3.145329e+003, 5.223775e-001
3.147258e+003, 5.228221e-001
3.149186e+003, 5.237169e-001
3.151115e+003, 5.245042e-001
3.153043e+003, 5.242559e-001
3.154971e+003, 5.234681e-001
3.156900e+003, 5.236492e-001
3.158828e+003, 5.247094e-001
3.160757e+003, 5.254710e-001
3.162685e+003, 5.251459e-001
3.164614e+003, 5.245777e-001
3.166542e+003, 5.251833e-001
3.168471e+003, 5.256410e-001
3.170399e+003, 5.260898e-001
3.172328e+003, 5.261097e-001
3.174256e+003, 5.250853e-001
3.176185e+003, 5.255440e-001
3.178113e+003, 5.261146e-001
3.180042e+003, 5.268614e-001
3.181970e+003, 5.267025e-001
3.183898e+003, 5.266181e-001
3.185827e+003, 5.276247e-001
3.187755e+003, 5.275251e-001
3.189684e+003, 5.275767e-001
3.191612e+003, 5.284721e-001
3.193541e+003, 5.285997e-001
3.195469e+003, 5.281343e-001
3.197398e+003, 5.286742e-001
3.199326e+003, 5.289668e-001
3.201255e+003, 5.286829e-001
3.203183e+003, 5.276703e-001
3.205112e+003, 5.268044e-001
3.207040e+003, 5.273830e-001
3.208969e+003, 5.281832e-001
3.210897e+003, 5.289887e-001
3.212825e+003, 5.292283e-001
3.214754e+003, 5.296060e-001
3.216682e+003, 5.297015e-001
3.218611e+003, 5.307435e-001
3.220539e+003, 5.302784e-001
3.222468e+003, 5.292732e-001
3.224396e+003, 5.299489e-001
3.226325e+003, 5.317086e-001
3.228253e+003, 5.325786e-001
3.230182e+003, 5.320494e-001
3.232110e+003, 5.314122e-001
3.234039e+003, 5.308443e-001
3.235967e+003, 5.310295e-001
3.237896e+003, 5.323812e-001
3.239824e+003, 5.332500e-001
3.241752e+003, 5.327229e-001
3.243681e+003, 5.337996e-001
3.245609e+003, 5.345567e-001
3.247538e+003, 5.338582e-001
3.249466e+003, 5.340939e-001
3.251395e+003, 5.337975e-001
3.253323e+003, 5.324676e-001
3.255252e+003, 5.318465e-001
3.257180e+003, 5.330352e-001
3.259109e+003, 5.346674e-001
3.261037e+003, 5.361590e-001
3.262966e+003, 5.358259e-001
3.264894e+003, 5.349084e-001
3.266823e+003, 5.347072e-001
3.268751e+003, 5.362670e-001
3.270679e+003, 5.369684e-001
3.272608e+003, 5.358610e-001
3.274536e+003, 5.353507e-001
3.276465e+003, 5.367435e-001
3.278393e+003, 5.365616e-001
3.280322e+003, 5.359469e-001
3.282250e+003, 5.363221e-001
3.284179e+003, 5.370793e-001
3.286107e+003, 5.378593e-001
3.288036e+003, 5.369160e-001
3.289964e+003, 5.374565e-001
3.291893e+003, 5.387098e-001
3.293821e+003, 5.383172e-001
3.295750e+003, 5.390859e-001
3.297678e+003, 5.403245e-001
3.299606e+003, 5.402719e-001
3.301535e+003, 5.403234e-001
3.303463e+003, 5.405216e-001
3.305392e+003, 5.408330e-001
3.307320e+003, 5.402047e-001
3.309249e+003, 5.394186e-001
3.311177e+003, 5.391966e-001
3.313106e+003, 5.403270e-001
3.315034e+003, 5.416700e-001
3.316963e+003, 5.412959e-001
3.318891e+003, 5.409181e-001
3.320820e+003, 5.411488e-001
3.322748e+003, 5.419337e-001
3.324677e+003, 5.414810e-001
3.326605e+003, 5.410832e-001
3.328533e+003, 5.410709e-001
3.330462e+003, 5.416403e-001
3.332390e+003, 5.427916e-001
3.334319e+003, 5.426229e-001
3.336247e+003, 5.420771e-001
3.338176e+003, 5.425992e-001
3.340104e+003, 5.429588e-001
3.342033e+003, 5.430711e-001
3.343961e+003, 5.426359e-001
3.345890e+003, 5.424302e-001
3.347818e+003, 5.423682e-001
3.349747e+003, 5.417691e-001
3.351675e+003, 5.418773e-001
3.353604e+003, 5.427919e-001
3.355532e+003, 5.437390e-001
3.357460e+003, 5.431657e-001
3.359389e+003, 5.442464e-001
3.361317e+003, 5.452895e-001
3.363246e+003, 5.460848e-001
3.365174e+003, 5.472410e-001
3.367103e+003, 5.465132e-001
3.369031e+003, 5.449995e-001
3.370960e+003, 5.451020e-001
3.372888e+003, 5.472095e-001
3.374817e+003, 5.481644e-001
3.376745e+003, 5.479685e-001
3.378674e+003, 5.476263e-001
3.380602e+003, 5.469958e-001
3.382531e+003, 5.472499e-001
3.384459e+003, 5.474625e-001
3.386387e+003, 5.465081e-001
3.388316e+003, 5.464032e-001
3.390244e+003, 5.466261e-001
3.392173e+003, 5.476956e-001
3.394101e+003, 5.486683e-001
3.396030e+003, 5.488051e-001
3.397958e+003, 5.485779e-001
3.399887e+003, 5.491779e-001
3.401815e+003, 5.508192e-001
3.403744e+003, 5.511519e-001
3.405672e+003, 5.506355e-001
3.407601e+003, 5.503189e-001
3.409529e+003, 5.496845e-001
3.411458e+003, 5.492806e-001
3.413386e+003, 5.499795e-001
3.415314e+003, 5.502232e-001
3.417243e+003, 5.497090e-001
3.419171e+003, 5.500144e-001
3.421100e+003, 5.504445e-001
3.423028e+003, 5.501374e-001
3.424957e+003, 5.502764e-001
3.426885e+003, 5.507443e-001
3.428814e+003, 5.518980e-001
3.430742e+003, 5.519848e-001
3.432671e+003, 5.512179e-001
3.434599e+003, 5.508968e-001
3.436528e+003, 5.521501e-001
3.438456e+003, 5.521405e-001
3.440385e+003, 5.522278e-001
3.442313e+003, 5.530159e-001
3.444241e+003, 5.526377e-001
3.446170e+003, 5.534593e-001
3.448098e+003, 5.548785e-001
3.450027e+003, 5.540785e-001
3.451955e+003, 5.542796e-001
3.453884e+003, 5.552791e-001
3.455812e+003, 5.548322e-001
3.457741e+003, 5.553235e-001
3.459669e+003, 5.562375e-001
3.461598e+003, 5.560383e-001
3.463526e+003, 5.554751e-001
3.465455e+003, 5.562148e-001
3.467383e+003, 5.570676e-001
3.469312e+003, 5.574065e-001
3.471240e+003, 5.568194e-001
3.473168e+003, 5.561485e-001
3.475097e+003, 5.554779e-001
3.477025e+003, 5.562229e-001
3.478954e+003, 5.558594e-001
3.480882e+003, 5.549467e-001
3.482811e+003, 5.562181e-001
3.484739e+003, 5.570794e-001
3.486668e+003, 5.570972e-001
3.488596e+003, 5.564250e-001
3.490525e+003, 5.560969e-001
3.492453e+003, 5.576964e-001
3.494382e+003, 5.587932e-001
3.496310e+003, 5.581379e-001
3.498239e+003, 5.578011e-001
3.500167e+003, 5.597163e-001
3.502095e+003, 5.606872e-001
3.504024e+003, 5.587140e-001
3.505952e+003, 5.579154e-001
3.507881e+003, 5.588131e-001
3.509809e+003, 5.588803e-001
3.511738e+003, 5.597182e-001
3.513666e+003, 5.597853e-001
3.515595e+003, 5.589532e-001
3.517523e+003, 5.591430e-001
3.519452e+003, 5.603513e-001
3.521380e+003, 5.617654e-001
3.523309e+003, 5.627013e-001
3.525237e+003, 5.615487e-001
3.527166e+003, 5.592958e-001
3.529094e+003, 5.607293e-001
3.531022e+003, 5.621251e-001
3.532951e+003, 5.615848e-001
3.534879e+003, 5.602217e-001
3.536808e+003, 5.600910e-001
3.538736e+003, 5.607570e-001
3.540665e+003, 5.618732e-001
3.542593e+003, 5.623943e-001
3.544522e+003, 5.613760e-001
3.546450e+003, 5.598711e-001
3.548379e+003, 5.610754e-001
3.550307e+003, 5.638514e-001
3.552236e+003, 5.639583e-001
3.554164e+003, 5.626757e-001
3.556093e+003, 5.628635e-001
3.558021e+003, 5.640717e-001
3.559949e+003, 5.643146e-001
3.561878e+003, 5.637134e-001
3.563806e+003, 5.643048e-001
3.565735e+003, 5.640135e-001
3.567663e+003, 5.636402e-001
3.569592e+003, 5.631666e-001
3.571520e+003, 5.643288e-001
3.573449e+003, 5.642818e-001
3.575377e+003, 5.651321e-001
3.577306e+003, 5.648031e-001
3.579234e+003, 5.641124e-001
3.581163e+003, 5.645607e-001
3.583091e+003, 5.655598e-001
3.585020e+003, 5.670594e-001
3.586948e+003, 5.681359e-001
3.588876e+003, 5.678895e-001
3.590805e+003, 5.689281e-001
3.592733e+003, 5.690204e-001
3.594662e+003, 5.677541e-001
3.596590e+003, 5.665042e-001
3.598519e+003, 5.656023e-001
3.600447e+003, 5.647429e-001
3.602376e+003, 5.661771e-001
3.604304e+003, 5.675806e-001
3.606233e+003, 5.674518e-001
3.608161e+003, 5.670539e-001
3.610090e+003, 5.684607e-001
3.612018e+003, 5.681469e-001
3.613947e+003, 5.691530e-001
3.615875e+003, 5.710030e-001
3.617803e+003, 5.711276e-001
3.619732e+003, 5.711120e-001
3.621660e+003, 5.703991e-001
3.623589e+003, 5.691458e-001
3.625517e+003, 5.692214e-001
3.627446e+003, 5.682726e-001
3.629374e+003, 5.702230e-001
3.631303e+003, 5.719212e-001
3.633231e+003, 5.711607e-001
3.635160e+003, 5.704242e-001
3.637088e+003, 5.704467e-001
3.639017e+003, 5.696985e-001
3.640945e+003, 5.701537e-001
3.642874e+003, 5.726656e-001
3.644802e+003, 5.721886e-001
3.646730e+003, 5.716347e-001
3.648659e+003, 5.741349e-001
3.650587e+003, 5.754031e-001
3.652516e+003, 5.741737e-001
3.654444e+003, 5.735555e-001
3.656373e+003, 5.745320e-001
3.658301e+003, 5.757333e-001
3.660230e+003, 5.759936e-001
3.662158e+003, 5.753540e-001
3.664087e+003, 5.759622e-001
3.666015e+003, 5.770518e-001
3.667944e+003, 5.770773e-001
3.669872e+003, 5.762670e-001
3.671801e+003, 5.758070e-001
3.673729e+003, 5.747141e-001
3.675657e+003, 5.760950e-001
3.677586e+003, 5.764000e-001
3.679514e+003, 5.780832e-001
3.681443e+003, 5.779932e-001
3.683371e+003, 5.787454e-001
3.685300e+003, 5.785288e-001
3.687228e+003, 5.767503e-001
3.689157e+003, 5.772712e-001
3.691085e+003, 5.776526e-001
3.693014e+003, 5.777786e-001
3.694942e+003, 5.783137e-001
3.696871e+003, 5.777603e-001
3.698799e+003, 5.785233e-001
3.700728e+003, 5.820724e-001
3.702656e+003, 5.817752e-001
3.704584e+003, 5.806760e-001
3.706513e+003, 5.799322e-001
3.708441e+003, 5.787962e-001
3.710370e+003, 5.802999e-001
3.712298e+003, 5.814779e-001
3.714227e+003, 5.805950e-001
3.716155e+003, 5.802431e-001
3.718084e+003, 5.817015e-001
3.720012e+003, 5.823125e-001
3.721941e+003, 5.819770e-001
3.723869e+003, 5.835531e-001
3.725798e+003, 5.850077e-001
3.727726e+003, 5.851658e-001
3.729655e+003, 5.838014e-001
3.731583e+003, 5.820476e-001
3.733511e+003, 5.843948e-001
3.735440e+003, 5.852271e-001
3.737368e+003, 5.843915e-001
3.739297e+003, 5.835215e-001
3.741225e+003, 5.839268e-001
3.743154e+003, 5.825438e-001
3.745082e+003, 5.855838e-001
3.747011e+003, 5.849166e-001
3.748939e+003, 5.865178e-001
3.750868e+003, 5.883256e-001
3.752796e+003, 5.883226e-001
3.754725e+003, 5.845885e-001
3.756653e+003, 5.843097e-001
3.758582e+003, 5.850770e-001
3.760510e+003, 5.865069e-001
3.762438e+003, 5.854281e-001
3.764367e+003, 5.849715e-001
3.766295e+003, 5.862563e-001
3.768224e+003, 5.862448e-001
3.770152e+003, 5.869656e-001
3.772081e+003, 5.873942e-001
3.774009e+003, 5.870013e-001
3.775938e+003, 5.870757e-001
3.777866e+003, 5.885732e-001
3.779795e+003, 5.887254e-001
3.781723e+003, 5.878335e-001
3.783652e+003, 5.881593e-001
3.785580e+003, 5.892907e-001
3.787509e+003, 5.891969e-001
3.789437e+003, 5.888596e-001
3.791365e+003, 5.898246e-001
3.793294e+003, 5.886098e-001
3.795222e+003, 5.887592e-001
3.797151e+003, 5.926024e-001
3.799079e+003, 5.936296e-001
3.801008e+003, 5.919460e-001
3.802936e+003, 5.904734e-001
3.804865e+003, 5.900692e-001
3.806793e+003, 5.915726e-001
3.808722e+003, 5.913379e-001
3.810650e+003, 5.908391e-001
3.812579e+003, 5.901232e-001
3.814507e+003, 5.919793e-001
3.816436e+003, 5.970654e-001
3.818364e+003, 5.963194e-001
3.820292e+003, 5.944434e-001
3.822221e+003, 5.948184e-001
3.824149e+003, 5.943969e-001
3.826078e+003, 5.943207e-001
3.828006e+003, 5.941023e-001
3.829935e+003, 5.931299e-001
3.831863e+003, 5.932853e-001
3.833792e+003, 5.936796e-001
3.835720e+003, 5.944550e-001
3.837649e+003, 5.951453e-001
3.839577e+003, 5.966786e-001
3.841506e+003, 5.965791e-001
3.843434e+003, 5.952232e-001
3.845363e+003, 5.955789e-001
3.847291e+003, 5.971643e-001
3.849219e+003, 5.958855e-001
3.851148e+003, 5.950004e-001
3.853076e+003, 5.969555e-001
3.855005e+003, 5.990894e-001
3.856933e+003, 5.981227e-001
3.858862e+003, 5.994239e-001
3.860790e+003, 5.984669e-001
3.862719e+003, 5.976461e-001
3.864647e+003, 5.984319e-001
3.866576e+003, 5.996873e-001
3.868504e+003, 5.980934e-001
3.870433e+003, 5.969049e-001
3.872361e+003, 5.974178e-001
3.874290e+003, 5.993101e-001
3.876218e+003, 5.989397e-001
3.878146e+003, 6.004013e-001
3.880075e+003, 5.998940e-001
3.882003e+003, 5.991110e-001
3.883932e+003, 5.993499e-001
3.885860e+003, 6.003146e-001
3.887789e+003, 6.000441e-001
3.889717e+003, 5.992309e-001
3.891646e+003, 6.004958e-001
3.893574e+003, 6.011772e-001
3.895503e+003, 6.011501e-001
3.897431e+003, 6.014177e-001
3.899360e+003, 6.024786e-001
3.901288e+003, 6.017389e-001
3.903217e+003, 6.013433e-001
3.905145e+003, 6.031951e-001
3.907073e+003, 6.032562e-001
3.909002e+003, 6.026754e-001
3.910930e+003, 6.037133e-001
3.912859e+003, 6.037949e-001
3.914787e+003, 6.023593e-001
3.916716e+003, 6.022156e-001
3.918644e+003, 6.023261e-001
3.920573e+003, 6.015928e-001
3.922501e+003, 6.017544e-001
3.924430e+003, 6.031006e-001
3.926358e+003, 6.046912e-001
3.928287e+003, 6.048148e-001
3.930215e+003, 6.050404e-001
3.932144e+003, 6.039295e-001
3.934072e+003, 6.029829e-001
3.936000e+003, 6.038102e-001
3.937929e+003, 6.050088e-001
3.939857e+003, 6.052769e-001
3.941786e+003, 6.060750e-001
3.943714e+003, 6.061567e-001
3.945643e+003, 6.049985e-001
3.947571e+003, 6.051982e-001
3.949500e+003, 6.067424e-001
3.951428e+003, 6.076722e-001
3.953357e+003, 6.088740e-001
3.955285e+003, 6.083240e-001
3.957214e+003, 6.071727e-001
3.959142e+003, 6.069604e-001
3.961071e+003, 6.073266e-001
3.962999e+003, 6.077080e-001
3.964927e+003, 6.075720e-001
3.966856e+003, 6.078689e-001
3.968784e+003, 6.080232e-001
3.970713e+003, 6.074339e-001
3.972641e+003, 6.094278e-001
3.974570e+003, 6.109949e-001
3.976498e+003, 6.102708e-001
3.978427e+003, 6.093435e-001
3.980355e+003, 6.097741e-001
3.982284e+003, 6.104270e-001
3.984212e+003, 6.105217e-001
3.986141e+003, 6.101816e-001
3.988069e+003, 6.120443e-001
3.989998e+003, 6.117107e-001
3.991926e+003, 6.094761e-001
3.993854e+003, 6.087971e-001
3.995783e+003, 6.101742e-001
3.997711e+003, 6.117873e-001
3.999640e+003, 6.120793e-001
4.001568e+003, 0.000000e+000
##END=



