##NAMES=Chondrodite
##RRUFFID=R040016
##IDEAL CHEMISTRY=Mg_5_(SiO_4_)_2_F_2_
##LOCALITY=Vastmanland, Kafveltorp, Sweden
##OWNER=RRUFF
##SOURCE=University of Arizona Mineral Museum
##DESCRIPTION=Deep red single crystals embedded in matrix
##STATUS=The identification of this mineral has been confirmed by X-ray diffraction and chemical analysis
##URL=rruff.info/R040016
##MEASURED CHEMISTRY=(Mg_4.61_Fe_0.31_Mn_0.07_Ca_0.01_)_Σ=5_(Si_1.00_O_4_)_2_(F_1.16_(OH)_0.84_)_Σ=2_
3.991926e+002, 2.007875e-001
4.011211e+002, 1.966831e-001
4.030495e+002, 1.962124e-001
4.049780e+002, 1.939182e-001
4.069065e+002, 1.913331e-001
4.088349e+002, 1.889689e-001
4.107634e+002, 1.881168e-001
4.126919e+002, 1.855599e-001
4.146203e+002, 1.858210e-001
4.165488e+002, 1.829301e-001
4.184773e+002, 1.779591e-001
4.204057e+002, 1.755463e-001
4.223342e+002, 1.710937e-001
4.242627e+002, 1.663640e-001
4.261911e+002, 1.635597e-001
4.281196e+002, 1.596681e-001
4.300481e+002, 1.563226e-001
4.319765e+002, 1.550034e-001
4.339050e+002, 1.528058e-001
4.358335e+002, 1.503515e-001
4.377619e+002, 1.487229e-001
4.396904e+002, 1.445411e-001
4.416189e+002, 1.414403e-001
4.435473e+002, 1.399462e-001
4.454758e+002, 1.382350e-001
4.474043e+002, 1.358173e-001
4.493327e+002, 1.324524e-001
4.512612e+002, 1.288843e-001
4.531897e+002, 1.279844e-001
4.551181e+002, 1.290500e-001
4.570466e+002, 1.302015e-001
4.589751e+002, 1.331218e-001
4.609035e+002, 1.381819e-001
4.628320e+002, 1.431103e-001
4.647605e+002, 1.490229e-001
4.666889e+002, 1.543740e-001
4.686174e+002, 1.577217e-001
4.705459e+002, 1.597944e-001
4.724743e+002, 1.600388e-001
4.744028e+002, 1.587529e-001
4.763313e+002, 1.570732e-001
4.782597e+002, 1.539409e-001
4.801882e+002, 1.499170e-001
4.821167e+002, 1.463829e-001
4.840451e+002, 1.420704e-001
4.859736e+002, 1.369658e-001
4.879021e+002, 1.331352e-001
4.898305e+002, 1.282188e-001
4.917590e+002, 1.228760e-001
4.936875e+002, 1.185074e-001
4.956159e+002, 1.139484e-001
4.975444e+002, 1.087723e-001
4.994729e+002, 1.038122e-001
5.014013e+002, 9.883642e-002
5.033298e+002, 9.374122e-002
5.052583e+002, 8.884449e-002
5.071867e+002, 8.463104e-002
5.091152e+002, 8.074779e-002
5.110437e+002, 7.742771e-002
5.129721e+002, 7.473651e-002
5.149006e+002, 7.209928e-002
5.168290e+002, 7.102180e-002
5.187575e+002, 7.205717e-002
5.206860e+002, 7.351744e-002
5.226144e+002, 7.626466e-002
5.245429e+002, 8.106255e-002
5.264714e+002, 8.649728e-002
5.283998e+002, 9.104572e-002
5.303283e+002, 9.603056e-002
5.322568e+002, 1.002100e-001
5.341852e+002, 1.025937e-001
5.361137e+002, 1.038029e-001
5.380422e+002, 1.050660e-001
5.399706e+002, 1.064240e-001
5.418991e+002, 1.075712e-001
5.438276e+002, 1.079859e-001
5.457560e+002, 1.073540e-001
5.476845e+002, 1.058992e-001
5.496130e+002, 1.030561e-001
5.515414e+002, 9.860288e-002
5.534699e+002, 9.388790e-002
5.553984e+002, 8.877844e-002
5.573268e+002, 8.337116e-002
5.592553e+002, 7.783761e-002
5.611838e+002, 7.252925e-002
5.631122e+002, 6.791686e-002
5.650407e+002, 6.369980e-002
5.669692e+002, 5.960830e-002
5.688976e+002, 5.566721e-002
5.708261e+002, 5.225116e-002
5.727546e+002, 4.918224e-002
5.746830e+002, 4.673123e-002
5.766115e+002, 4.462385e-002
5.785400e+002, 4.312267e-002
5.804684e+002, 4.249529e-002
5.823969e+002, 4.231802e-002
5.843254e+002, 4.266202e-002
5.862538e+002, 4.442338e-002
5.881823e+002, 4.759321e-002
5.901108e+002, 5.076624e-002
5.920392e+002, 5.445905e-002
5.939677e+002, 5.920283e-002
5.958962e+002, 6.464258e-002
5.978246e+002, 7.054064e-002
5.997531e+002, 7.622539e-002
6.016816e+002, 8.127209e-002
6.036100e+002, 8.596241e-002
6.055385e+002, 8.967335e-002
6.074670e+002, 9.157998e-002
6.093954e+002, 9.221210e-002
6.113239e+002, 9.213220e-002
6.132524e+002, 9.135620e-002
6.151808e+002, 8.977918e-002
6.171093e+002, 8.767556e-002
6.190378e+002, 8.546013e-002
6.209662e+002, 8.306354e-002
6.228947e+002, 8.004168e-002
6.248232e+002, 7.659043e-002
6.267516e+002, 7.299718e-002
6.286801e+002, 6.926036e-002
6.306086e+002, 6.540338e-002
6.325370e+002, 6.143125e-002
6.344655e+002, 5.704801e-002
6.363940e+002, 5.255330e-002
6.383224e+002, 4.837099e-002
6.402509e+002, 4.455604e-002
6.421794e+002, 4.095573e-002
6.441078e+002, 3.768112e-002
6.460363e+002, 3.452446e-002
6.479648e+002, 3.169379e-002
6.498932e+002, 2.915880e-002
6.518217e+002, 2.710631e-002
6.537502e+002, 2.554055e-002
6.556786e+002, 2.406928e-002
6.576071e+002, 2.269487e-002
6.595356e+002, 2.164784e-002
6.614641e+002, 2.084867e-002
6.633925e+002, 2.015708e-002
6.653210e+002, 1.953466e-002
6.672495e+002, 1.920270e-002
6.691779e+002, 1.877702e-002
6.711064e+002, 1.816525e-002
6.730349e+002, 1.786487e-002
6.749633e+002, 1.798820e-002
6.768918e+002, 1.785369e-002
6.788203e+002, 1.751526e-002
6.807487e+002, 1.734263e-002
6.826772e+002, 1.750730e-002
6.846057e+002, 1.766111e-002
6.865341e+002, 1.770345e-002
6.884626e+002, 1.791527e-002
6.903911e+002, 1.818925e-002
6.923195e+002, 1.822865e-002
6.942480e+002, 1.837488e-002
6.961765e+002, 1.831837e-002
6.981049e+002, 1.828780e-002
7.000334e+002, 1.834741e-002
7.019619e+002, 1.841214e-002
7.038903e+002, 1.861311e-002
7.058188e+002, 1.897224e-002
7.077473e+002, 1.914690e-002
7.096757e+002, 1.940820e-002
7.116042e+002, 1.984219e-002
7.135327e+002, 2.032937e-002
7.154611e+002, 2.100374e-002
7.173896e+002, 2.191595e-002
7.193181e+002, 2.264508e-002
7.212465e+002, 2.357506e-002
7.231750e+002, 2.473532e-002
7.251035e+002, 2.607187e-002
7.270319e+002, 2.760679e-002
7.289604e+002, 2.930041e-002
7.308889e+002, 3.118445e-002
7.328173e+002, 3.352562e-002
7.347458e+002, 3.639488e-002
7.366743e+002, 3.972078e-002
7.386027e+002, 4.352783e-002
7.405312e+002, 4.773402e-002
7.424597e+002, 5.204342e-002
7.443881e+002, 5.583499e-002
7.463166e+002, 5.871869e-002
7.482451e+002, 6.118856e-002
7.501735e+002, 6.373809e-002
7.521020e+002, 6.600532e-002
7.540305e+002, 6.786904e-002
7.559589e+002, 6.875534e-002
7.578874e+002, 6.829953e-002
7.598159e+002, 6.666994e-002
7.617443e+002, 6.406879e-002
7.636728e+002, 6.080573e-002
7.656013e+002, 5.701719e-002
7.675297e+002, 5.290359e-002
7.694582e+002, 4.875238e-002
7.713867e+002, 4.486492e-002
7.733151e+002, 4.107213e-002
7.752436e+002, 3.767418e-002
7.771721e+002, 3.491637e-002
7.791005e+002, 3.277405e-002
7.810290e+002, 3.140071e-002
7.829575e+002, 3.068227e-002
7.848859e+002, 3.045542e-002
7.868144e+002, 3.060315e-002
7.887429e+002, 3.126398e-002
7.906713e+002, 3.231540e-002
7.925998e+002, 3.349376e-002
7.945283e+002, 3.508522e-002
7.964567e+002, 3.689528e-002
7.983852e+002, 3.898413e-002
8.003137e+002, 4.155272e-002
8.022421e+002, 4.418378e-002
8.041706e+002, 4.710719e-002
8.060991e+002, 5.045335e-002
8.080275e+002, 5.392917e-002
8.099560e+002, 5.754310e-002
8.118845e+002, 6.110824e-002
8.138129e+002, 6.482688e-002
8.157414e+002, 6.854016e-002
8.176699e+002, 7.241160e-002
8.195983e+002, 7.676883e-002
8.215268e+002, 8.165175e-002
8.234553e+002, 8.703173e-002
8.253837e+002, 9.299672e-002
8.273122e+002, 9.948640e-002
8.292407e+002, 1.064588e-001
8.311691e+002, 1.139736e-001
8.330976e+002, 1.221636e-001
8.350261e+002, 1.312322e-001
8.369545e+002, 1.412670e-001
8.388830e+002, 1.518981e-001
8.408115e+002, 1.628311e-001
8.427399e+002, 1.731267e-001
8.446684e+002, 1.816307e-001
8.465969e+002, 1.864771e-001
8.485253e+002, 1.862318e-001
8.504538e+002, 1.818978e-001
8.523823e+002, 1.761453e-001
8.543107e+002, 1.717883e-001
8.562392e+002, 1.712082e-001
8.581677e+002, 1.748841e-001
8.600961e+002, 1.814231e-001
8.620246e+002, 1.896819e-001
8.639531e+002, 1.990684e-001
8.658815e+002, 2.091609e-001
8.678100e+002, 2.190667e-001
8.697385e+002, 2.280930e-001
8.716669e+002, 2.359273e-001
8.735954e+002, 2.423167e-001
8.755239e+002, 2.474679e-001
8.774523e+002, 2.513456e-001
8.793808e+002, 2.540321e-001
8.813093e+002, 2.555916e-001
8.832377e+002, 2.557994e-001
8.851662e+002, 2.543882e-001
8.870947e+002, 2.513863e-001
8.890231e+002, 2.473370e-001
8.909516e+002, 2.424703e-001
8.928801e+002, 2.369871e-001
8.948085e+002, 2.317899e-001
8.967370e+002, 2.268500e-001
8.986655e+002, 2.214591e-001
9.005939e+002, 2.157665e-001
9.025224e+002, 2.102194e-001
9.044509e+002, 2.049321e-001
9.063793e+002, 2.000009e-001
9.083078e+002, 1.951133e-001
9.102363e+002, 1.905284e-001
9.121647e+002, 1.863317e-001
9.140932e+002, 1.822482e-001
9.160217e+002, 1.783558e-001
9.179501e+002, 1.745090e-001
9.198786e+002, 1.706390e-001
9.218071e+002, 1.668158e-001
9.237355e+002, 1.628871e-001
9.256640e+002, 1.592135e-001
9.275925e+002, 1.557590e-001
9.295209e+002, 1.526734e-001
9.314494e+002, 1.497162e-001
9.333779e+002, 1.471642e-001
9.353063e+002, 1.450113e-001
9.372348e+002, 1.432257e-001
9.391633e+002, 1.421211e-001
9.410917e+002, 1.418319e-001
9.430202e+002, 1.425550e-001
9.449487e+002, 1.444264e-001
9.468771e+002, 1.464742e-001
9.488056e+002, 1.480910e-001
9.507341e+002, 1.489067e-001
9.526625e+002, 1.485546e-001
9.545910e+002, 1.472972e-001
9.565195e+002, 1.455173e-001
9.584479e+002, 1.428943e-001
9.603764e+002, 1.400070e-001
9.623049e+002, 1.368350e-001
9.642333e+002, 1.334494e-001
9.661618e+002, 1.299053e-001
9.680903e+002, 1.263823e-001
9.700187e+002, 1.230864e-001
9.719472e+002, 1.204557e-001
9.738757e+002, 1.185850e-001
9.758041e+002, 1.175443e-001
9.777326e+002, 1.171984e-001
9.796611e+002, 1.172064e-001
9.815895e+002, 1.169709e-001
9.835180e+002, 1.161148e-001
9.854465e+002, 1.150623e-001
9.873749e+002, 1.140475e-001
9.893034e+002, 1.131809e-001
9.912319e+002, 1.122309e-001
9.931603e+002, 1.111388e-001
9.950888e+002, 1.101011e-001
9.970173e+002, 1.090848e-001
9.989457e+002, 1.079799e-001
1.000874e+003, 1.066323e-001
1.002803e+003, 1.051541e-001
1.004731e+003, 1.037321e-001
1.006660e+003, 1.023597e-001
1.008588e+003, 1.008416e-001
1.010517e+003, 9.902044e-002
1.012445e+003, 9.681647e-002
1.014373e+003, 9.446932e-002
1.016302e+003, 9.169216e-002
1.018230e+003, 8.839259e-002
1.020159e+003, 8.473983e-002
1.022087e+003, 8.075742e-002
1.024016e+003, 7.632276e-002
1.025944e+003, 7.174575e-002
1.027873e+003, 6.722533e-002
1.029801e+003, 6.291699e-002
1.031730e+003, 5.872429e-002
1.033658e+003, 5.466894e-002
1.035587e+003, 5.088145e-002
1.037515e+003, 4.731643e-002
1.039443e+003, 4.391810e-002
1.041372e+003, 4.062460e-002
1.043300e+003, 3.745568e-002
1.045229e+003, 3.448231e-002
1.047157e+003, 3.167280e-002
1.049086e+003, 2.902357e-002
1.051014e+003, 2.679395e-002
1.052943e+003, 2.477192e-002
1.054871e+003, 2.274854e-002
1.056800e+003, 2.102516e-002
1.058728e+003, 1.946860e-002
1.060657e+003, 1.826291e-002
1.062585e+003, 1.743278e-002
1.064514e+003, 1.665386e-002
1.066442e+003, 1.601401e-002
1.068370e+003, 1.566491e-002
1.070299e+003, 1.525890e-002
1.072227e+003, 1.477893e-002
1.074156e+003, 1.439286e-002
1.076084e+003, 1.408085e-002
1.078013e+003, 1.371847e-002
1.079941e+003, 1.347775e-002
1.081870e+003, 1.315926e-002
1.083798e+003, 1.280234e-002
1.085727e+003, 1.238904e-002
1.087655e+003, 1.194595e-002
1.089584e+003, 1.152247e-002
1.091512e+003, 1.101456e-002
1.093441e+003, 1.036513e-002
1.095369e+003, 9.612649e-003
1.097297e+003, 9.007847e-003
1.099226e+003, 8.395889e-003
1.101154e+003, 7.713694e-003
1.103083e+003, 7.026067e-003
1.105011e+003, 6.268238e-003
1.106940e+003, 5.503205e-003
1.108868e+003, 4.979817e-003
1.110797e+003, 4.563980e-003
1.112725e+003, 4.061372e-003
1.114654e+003, 3.722941e-003
1.116582e+003, 3.408076e-003
1.118511e+003, 3.170086e-003
1.120439e+003, 2.887755e-003
1.122368e+003, 2.577126e-003
1.124296e+003, 2.310117e-003
1.126224e+003, 2.268228e-003
1.128153e+003, 2.150827e-003
1.130081e+003, 1.987023e-003
1.132010e+003, 1.746059e-003
1.133938e+003, 1.487765e-003
1.135867e+003, 1.423936e-003
1.137795e+003, 1.342992e-003
1.139724e+003, 1.131331e-003
1.141652e+003, 9.570902e-004
1.143581e+003, 9.178965e-004
1.145509e+003, 9.769803e-004
1.147438e+003, 8.853417e-004
1.149366e+003, 6.442873e-004
1.151295e+003, 5.616490e-004
1.153223e+003, 6.597258e-004
1.155151e+003, 5.597370e-004
1.157080e+003, 3.928571e-004
1.159008e+003, 4.042731e-004
1.160937e+003, 4.803680e-004
1.162865e+003, 4.048859e-004
1.164794e+003, 3.153753e-004
1.166722e+003, 3.174835e-004
1.168651e+003, 4.288350e-004
1.170579e+003, 3.398403e-004
1.172508e+003, 1.856587e-004
1.174436e+003, 5.059047e-005
1.176365e+003, 6.763081e-005
1.178293e+003, 1.003858e-004
1.180222e+003, 1.495222e-004
1.182150e+003, 1.429099e-004
1.184078e+003, 2.542381e-005
1.186007e+003, -4.959068e-005
1.187935e+003, -6.942830e-005
1.189864e+003, -1.611442e-004
1.191792e+003, -2.394053e-004
1.193721e+003, -3.511494e-004
1.195649e+003, -4.249131e-004
1.197578e+003, -5.045715e-004
1.199506e+003, -5.337334e-004
1.201435e+003, -5.589287e-004
1.203363e+003, -5.531743e-004
1.205292e+003, -6.329252e-004
1.207220e+003, -6.652591e-004
1.209149e+003, -5.389444e-004
1.211077e+003, -4.643554e-004
1.213005e+003, -5.491353e-004
1.214934e+003, -5.472737e-004
1.216862e+003, -5.070172e-004
1.218791e+003, -5.815254e-004
1.220719e+003, -6.459956e-004
1.222648e+003, -6.519525e-004
1.224576e+003, -7.689922e-004
1.226505e+003, -7.777917e-004
1.228433e+003, -8.033596e-004
1.230362e+003, -7.942814e-004
1.232290e+003, -7.099839e-004
1.234219e+003, -6.217286e-004
1.236147e+003, -6.562871e-004
1.238076e+003, -6.803369e-004
1.240004e+003, -6.966201e-004
1.241932e+003, -6.206822e-004
1.243861e+003, -6.693974e-004
1.245789e+003, -7.035394e-004
1.247718e+003, -6.093268e-004
1.249646e+003, -5.851215e-004
1.251575e+003, -5.928181e-004
1.253503e+003, -5.366821e-004
1.255432e+003, -4.727173e-004
1.257360e+003, -4.733186e-004
1.259289e+003, -4.262249e-004
1.261217e+003, -3.090694e-004
1.263146e+003, -1.154187e-004
1.265074e+003, -1.034834e-004
1.267003e+003, -1.365470e-004
1.268931e+003, 2.800255e-005
1.270859e+003, 8.388692e-005
1.272788e+003, 6.410274e-006
1.274716e+003, 6.247132e-005
1.276645e+003, 2.230103e-004
1.278573e+003, 2.446654e-004
1.280502e+003, 2.539483e-004
1.282430e+003, 1.475946e-004
1.284359e+003, 8.494824e-005
1.286287e+003, 1.573322e-004
1.288216e+003, 1.794288e-004
1.290144e+003, 2.635160e-004
1.292073e+003, 4.383049e-004
1.294001e+003, 4.240270e-004
1.295930e+003, 4.022281e-004
1.297858e+003, 4.565356e-004
1.299786e+003, 6.075309e-004
1.301715e+003, 7.428598e-004
1.303643e+003, 7.297308e-004
1.305572e+003, 7.327161e-004
1.307500e+003, 7.920157e-004
1.309429e+003, 7.468275e-004
1.311357e+003, 8.651058e-004
1.313286e+003, 1.008904e-003
1.315214e+003, 1.013093e-003
1.317143e+003, 9.157799e-004
1.319071e+003, 1.035066e-003
1.321000e+003, 1.167791e-003
1.322928e+003, 1.275844e-003
1.324857e+003, 1.284611e-003
1.326785e+003, 1.303885e-003
1.328714e+003, 1.283762e-003
1.330642e+003, 1.238302e-003
1.332570e+003, 1.292976e-003
1.334499e+003, 1.374178e-003
1.336427e+003, 1.546277e-003
1.338356e+003, 1.682581e-003
1.340284e+003, 1.713110e-003
1.342213e+003, 1.668965e-003
1.344141e+003, 1.778568e-003
1.346070e+003, 2.023375e-003
1.347998e+003, 2.129906e-003
1.349927e+003, 2.212596e-003
1.351855e+003, 2.283473e-003
1.353784e+003, 2.383556e-003
1.355712e+003, 2.464578e-003
1.357641e+003, 2.699911e-003
1.359569e+003, 2.934862e-003
1.361497e+003, 3.052922e-003
1.363426e+003, 3.160471e-003
1.365354e+003, 3.297490e-003
1.367283e+003, 3.353583e-003
1.369211e+003, 3.507250e-003
1.371140e+003, 3.671659e-003
1.373068e+003, 3.828683e-003
1.374997e+003, 3.909309e-003
1.376925e+003, 3.944230e-003
1.378854e+003, 4.044269e-003
1.380782e+003, 4.185682e-003
1.382711e+003, 4.236189e-003
1.384639e+003, 4.365705e-003
1.386568e+003, 4.630809e-003
1.388496e+003, 4.885938e-003
1.390424e+003, 5.125831e-003
1.392353e+003, 5.343747e-003
1.394281e+003, 5.673064e-003
1.396210e+003, 5.989940e-003
1.398138e+003, 6.332497e-003
1.400067e+003, 6.669735e-003
1.401995e+003, 6.924041e-003
1.403924e+003, 7.348307e-003
1.405852e+003, 7.797680e-003
1.407781e+003, 8.185366e-003
1.409709e+003, 8.494556e-003
1.411638e+003, 8.899516e-003
1.413566e+003, 9.139489e-003
1.415495e+003, 9.388599e-003
1.417423e+003, 9.891862e-003
1.419351e+003, 1.049759e-002
1.421280e+003, 1.067862e-002
1.423208e+003, 1.100294e-002
1.425137e+003, 1.139127e-002
1.427065e+003, 1.169857e-002
1.428994e+003, 1.194168e-002
1.430922e+003, 1.224269e-002
1.432851e+003, 1.259953e-002
1.434779e+003, 1.309510e-002
1.436708e+003, 1.365675e-002
1.438636e+003, 1.389983e-002
1.440565e+003, 1.412221e-002
1.442493e+003, 1.454529e-002
1.444422e+003, 1.503026e-002
1.446350e+003, 1.539529e-002
1.448278e+003, 1.564213e-002
1.450207e+003, 1.587723e-002
1.452135e+003, 1.615093e-002
1.454064e+003, 1.654964e-002
1.455992e+003, 1.710885e-002
1.457921e+003, 1.721073e-002
1.459849e+003, 1.682363e-002
1.461778e+003, 1.653015e-002
1.463706e+003, 1.662050e-002
1.465635e+003, 1.673672e-002
1.467563e+003, 1.660844e-002
1.469492e+003, 1.649215e-002
1.471420e+003, 1.629325e-002
1.473349e+003, 1.602146e-002
1.475277e+003, 1.564254e-002
1.477205e+003, 1.533831e-002
1.479134e+003, 1.494305e-002
1.481062e+003, 1.457202e-002
1.482991e+003, 1.428251e-002
1.484919e+003, 1.395859e-002
1.486848e+003, 1.359901e-002
1.488776e+003, 1.334370e-002
1.490705e+003, 1.291484e-002
1.492633e+003, 1.246724e-002
1.494562e+003, 1.221257e-002
1.496490e+003, 1.192216e-002
1.498419e+003, 1.148035e-002
1.500347e+003, 1.094349e-002
1.502276e+003, 1.037721e-002
1.504204e+003, 1.028455e-002
1.506132e+003, 1.030731e-002
1.508061e+003, 9.605872e-003
1.509989e+003, 8.899984e-003
1.511918e+003, 8.533906e-003
1.513846e+003, 7.994531e-003
1.515775e+003, 7.738733e-003
1.517703e+003, 7.535009e-003
1.519632e+003, 7.315793e-003
1.521560e+003, 7.034927e-003
1.523489e+003, 6.430208e-003
1.525417e+003, 6.031964e-003
1.527346e+003, 5.914786e-003
1.529274e+003, 5.671023e-003
1.531203e+003, 5.535988e-003
1.533131e+003, 5.551618e-003
1.535059e+003, 5.400600e-003
1.536988e+003, 5.509561e-003
1.538916e+003, 5.819160e-003
1.540845e+003, 5.701059e-003
1.542773e+003, 5.405425e-003
1.544702e+003, 5.205465e-003
1.546630e+003, 5.161146e-003
1.548559e+003, 5.182317e-003
1.550487e+003, 5.212535e-003
1.552416e+003, 5.323997e-003
1.554344e+003, 5.563779e-003
1.556273e+003, 5.750339e-003
1.558201e+003, 6.301562e-003
1.560130e+003, 6.352147e-003
1.562058e+003, 6.006968e-003
1.563986e+003, 6.037650e-003
1.565915e+003, 6.102052e-003
1.567843e+003, 6.102176e-003
1.569772e+003, 6.332868e-003
1.571700e+003, 6.430274e-003
1.573629e+003, 6.709705e-003
1.575557e+003, 7.174738e-003
1.577486e+003, 7.151036e-003
1.579414e+003, 7.070731e-003
1.581343e+003, 7.303916e-003
1.583271e+003, 7.391618e-003
1.585200e+003, 7.287332e-003
1.587128e+003, 7.285833e-003
1.589057e+003, 7.583365e-003
1.590985e+003, 7.723054e-003
1.592913e+003, 7.708879e-003
1.594842e+003, 7.775551e-003
1.596770e+003, 7.866873e-003
1.598699e+003, 7.915701e-003
1.600627e+003, 7.918114e-003
1.602556e+003, 7.892208e-003
1.604484e+003, 7.693703e-003
1.606413e+003, 7.471194e-003
1.608341e+003, 7.367974e-003
1.610270e+003, 7.291727e-003
1.612198e+003, 7.383213e-003
1.614127e+003, 7.364804e-003
1.616055e+003, 7.397196e-003
1.617984e+003, 7.104802e-003
1.619912e+003, 6.744185e-003
1.621840e+003, 6.743099e-003
1.623769e+003, 6.729281e-003
1.625697e+003, 6.473242e-003
1.627626e+003, 6.343125e-003
1.629554e+003, 5.992958e-003
1.631483e+003, 5.765556e-003
1.633411e+003, 5.850511e-003
1.635340e+003, 5.961122e-003
1.637268e+003, 5.586784e-003
1.639197e+003, 5.290981e-003
1.641125e+003, 5.181734e-003
1.643054e+003, 5.031825e-003
1.644982e+003, 5.170139e-003
1.646911e+003, 5.149213e-003
1.648839e+003, 4.686892e-003
1.650767e+003, 4.609355e-003
1.652696e+003, 4.913629e-003
1.654624e+003, 4.477173e-003
1.656553e+003, 3.801214e-003
1.658481e+003, 3.524560e-003
1.660410e+003, 3.387196e-003
1.662338e+003, 3.399597e-003
1.664267e+003, 3.295123e-003
1.666195e+003, 3.141840e-003
1.668124e+003, 3.057494e-003
1.670052e+003, 3.053583e-003
1.671981e+003, 2.970438e-003
1.673909e+003, 2.886379e-003
1.675838e+003, 2.719581e-003
1.677766e+003, 2.462788e-003
1.679694e+003, 2.287835e-003
1.681623e+003, 2.282748e-003
1.683551e+003, 2.617997e-003
1.685480e+003, 2.467723e-003
1.687408e+003, 1.880281e-003
1.689337e+003, 1.801793e-003
1.691265e+003, 1.781604e-003
1.693194e+003, 1.948095e-003
1.695122e+003, 2.359614e-003
1.697051e+003, 2.194835e-003
1.698979e+003, 2.125625e-003
1.700908e+003, 2.273254e-003
1.702836e+003, 2.051463e-003
1.704765e+003, 1.989047e-003
1.706693e+003, 1.885782e-003
1.708621e+003, 1.879002e-003
1.710550e+003, 1.695739e-003
1.712478e+003, 1.606037e-003
1.714407e+003, 1.755532e-003
1.716335e+003, 2.183900e-003
1.718264e+003, 2.258074e-003
1.720192e+003, 1.933556e-003
1.722121e+003, 1.627489e-003
1.724049e+003, 1.387416e-003
1.725978e+003, 1.312999e-003
1.727906e+003, 1.485225e-003
1.729835e+003, 1.595720e-003
1.731763e+003, 1.695144e-003
1.733692e+003, 1.841729e-003
1.735620e+003, 1.468807e-003
1.737548e+003, 1.018157e-003
1.739477e+003, 9.881795e-004
1.741405e+003, 8.462946e-004
1.743334e+003, 7.746607e-004
1.745262e+003, 6.929755e-004
1.747191e+003, 6.526598e-004
1.749119e+003, 6.678816e-004
1.751048e+003, 8.099162e-004
1.752976e+003, 8.800039e-004
1.754905e+003, 7.837603e-004
1.756833e+003, 7.611970e-004
1.758762e+003, 8.442284e-004
1.760690e+003, 9.513970e-004
1.762619e+003, 1.006063e-003
1.764547e+003, 9.250315e-004
1.766475e+003, 9.717528e-004
1.768404e+003, 1.012299e-003
1.770332e+003, 1.215773e-003
1.772261e+003, 1.352973e-003
1.774189e+003, 1.143885e-003
1.776118e+003, 9.434119e-004
1.778046e+003, 8.192192e-004
1.779975e+003, 7.830902e-004
1.781903e+003, 7.929812e-004
1.783832e+003, 7.408284e-004
1.785760e+003, 8.458741e-004
1.787689e+003, 8.985564e-004
1.789617e+003, 7.822276e-004
1.791546e+003, 9.841175e-004
1.793474e+003, 1.189230e-003
1.795402e+003, 9.598497e-004
1.797331e+003, 8.454529e-004
1.799259e+003, 8.347820e-004
1.801188e+003, 8.787536e-004
1.803116e+003, 6.693052e-004
1.805045e+003, 6.160296e-004
1.806973e+003, 7.286251e-004
1.808902e+003, 6.519570e-004
1.810830e+003, 7.201511e-004
1.812759e+003, 7.314990e-004
1.814687e+003, 4.311148e-004
1.816616e+003, 4.228404e-004
1.818544e+003, 5.774608e-004
1.820473e+003, 4.538544e-004
1.822401e+003, 5.578986e-004
1.824329e+003, 9.119505e-004
1.826258e+003, 8.952857e-004
1.828186e+003, 5.572450e-004
1.830115e+003, 4.028063e-004
1.832043e+003, 5.652242e-004
1.833972e+003, 4.360003e-004
1.835900e+003, 2.022272e-004
1.837829e+003, 2.088961e-004
1.839757e+003, 4.928193e-004
1.841686e+003, 5.815116e-004
1.843614e+003, 5.995430e-004
1.845543e+003, 5.127868e-004
1.847471e+003, 3.553658e-004
1.849400e+003, 4.530340e-004
1.851328e+003, 5.317653e-004
1.853256e+003, 1.852828e-004
1.855185e+003, 1.148952e-004
1.857113e+003, 1.848068e-004
1.859042e+003, 1.474780e-004
1.860970e+003, 3.855994e-004
1.862899e+003, 3.369672e-004
1.864827e+003, -1.037993e-004
1.866756e+003, -3.037040e-004
1.868684e+003, -1.506921e-004
1.870613e+003, -1.556812e-004
1.872541e+003, -3.597806e-004
1.874470e+003, -1.545740e-004
1.876398e+003, 3.144056e-004
1.878327e+003, 2.654198e-004
1.880255e+003, 7.887618e-005
1.882183e+003, 1.297905e-004
1.884112e+003, -5.111900e-004
1.886040e+003, -5.646094e-004
1.887969e+003, -1.678832e-004
1.889897e+003, 8.391500e-005
1.891826e+003, -1.966783e-004
1.893754e+003, -5.438430e-004
1.895683e+003, -4.674370e-004
1.897611e+003, -5.249691e-004
1.899540e+003, -1.072105e-003
1.901468e+003, -9.553335e-004
1.903397e+003, -7.412749e-004
1.905325e+003, -6.064047e-004
1.907254e+003, -4.731323e-004
1.909182e+003, -4.778466e-004
1.911110e+003, -9.186854e-004
1.913039e+003, -9.772918e-004
1.914967e+003, -7.584598e-004
1.916896e+003, -7.045222e-004
1.918824e+003, -7.658949e-004
1.920753e+003, -1.068125e-003
1.922681e+003, -1.181932e-003
1.924610e+003, -1.377892e-003
1.926538e+003, -1.786337e-003
1.928467e+003, -1.536229e-003
1.930395e+003, -1.179457e-003
1.932324e+003, -1.118615e-003
1.934252e+003, -1.183029e-003
1.936181e+003, -1.410962e-003
1.938109e+003, -1.826735e-003
1.940037e+003, -1.645086e-003
1.941966e+003, -1.620327e-003
1.943894e+003, -1.644564e-003
1.945823e+003, -1.844106e-003
1.947751e+003, -1.804590e-003
1.949680e+003, -1.741137e-003
1.951608e+003, -1.625275e-003
1.953537e+003, -2.167384e-003
1.955465e+003, -2.920482e-003
1.957394e+003, -3.474574e-003
1.959322e+003, -3.197993e-003
1.961251e+003, -2.615621e-003
1.963179e+003, -2.039547e-003
1.965108e+003, -2.678275e-003
1.967036e+003, -3.831750e-003
1.968964e+003, -4.030782e-003
1.970893e+003, -3.286293e-003
1.972821e+003, -3.086710e-003
1.974750e+003, -3.381887e-003
1.976678e+003, -2.906930e-003
1.978607e+003, -1.232678e-003
1.980535e+003, -8.497775e-005
1.982464e+003, 7.020865e-004
1.984392e+003, -3.752246e-004
1.986321e+003, -1.033200e-003
1.988249e+003, -5.414851e-004
1.990178e+003, -1.000430e-003
1.992106e+003, -1.522354e-003
1.994035e+003, -1.660870e-003
1.995963e+003, -1.909574e-003
1.997891e+003, -1.928460e-003
1.999820e+003, -1.557617e-003
2.001748e+003, -1.891548e-003
2.003677e+003, -2.533928e-003
2.005605e+003, -2.599114e-003
2.007534e+003, -1.890776e-003
2.009462e+003, -1.317720e-003
2.011391e+003, -2.194277e-003
2.013319e+003, -3.131795e-003
2.015248e+003, -2.958792e-003
2.017176e+003, -2.659288e-003
2.019105e+003, -2.394997e-003
2.021033e+003, -1.865269e-003
2.022962e+003, -2.241132e-003
2.024890e+003, -2.674274e-003
2.026818e+003, -2.094809e-003
2.028747e+003, -1.790415e-003
2.030675e+003, -1.904515e-003
2.032604e+003, -1.650512e-003
2.034532e+003, -6.098706e-004
2.036461e+003, 8.333700e-005
2.038389e+003, -4.974279e-004
2.040318e+003, -2.602371e-004
2.042246e+003, -5.451001e-004
2.044175e+003, -1.119915e-003
2.046103e+003, -5.457908e-004
2.048031e+003, 1.967466e-004
2.049960e+003, 1.280735e-003
2.051888e+003, 1.246399e-003
2.053817e+003, 6.413414e-004
2.055745e+003, 1.001718e-003
2.057674e+003, 4.957310e-004
2.059602e+003, -1.149137e-004
2.061531e+003, 1.549333e-004
2.063459e+003, 5.441912e-004
2.065388e+003, 3.284780e-004
2.067316e+003, 6.682463e-004
2.069245e+003, 1.056345e-003
2.071173e+003, 1.456056e-003
2.073102e+003, 1.498006e-003
2.075030e+003, 1.025776e-003
2.076958e+003, 1.058974e-003
2.078887e+003, 1.659581e-003
2.080815e+003, 1.613393e-003
2.082744e+003, 1.185397e-003
2.084672e+003, 1.191821e-003
2.086601e+003, 1.311935e-003
2.088529e+003, 6.238577e-004
2.090458e+003, 3.222102e-004
2.092386e+003, 2.318664e-004
2.094315e+003, 4.345046e-004
2.096243e+003, 7.474557e-004
2.098172e+003, 1.060881e-003
2.100100e+003, 1.498974e-003
2.102029e+003, 2.080198e-003
2.103957e+003, 1.791626e-003
2.105885e+003, 1.730488e-003
2.107814e+003, 2.009487e-003
2.109742e+003, 2.270856e-003
2.111671e+003, 1.952300e-003
2.113599e+003, 1.607523e-003
2.115528e+003, 1.682371e-003
2.117456e+003, 1.600546e-003
2.119385e+003, 1.353153e-003
2.121313e+003, 9.517649e-004
2.123242e+003, 3.662527e-004
2.125170e+003, 2.035232e-004
2.127099e+003, 1.299026e-004
2.129027e+003, -2.920736e-004
2.130956e+003, -1.171902e-003
2.132884e+003, -1.331969e-003
2.134813e+003, -6.694062e-004
2.136741e+003, 3.001920e-005
2.138669e+003, -1.349838e-004
2.140598e+003, -5.097519e-004
2.142526e+003, -6.942617e-005
2.144455e+003, 4.161878e-004
2.146383e+003, -6.327385e-004
2.148312e+003, -1.591487e-003
2.150240e+003, -2.290176e-003
2.152169e+003, -2.689507e-003
2.154097e+003, -3.480918e-003
2.156026e+003, -3.557553e-003
2.157954e+003, -1.378112e-003
2.159883e+003, 2.771892e-003
2.161811e+003, 4.220357e-003
2.163740e+003, 3.254920e-003
2.165668e+003, 2.823939e-003
2.167596e+003, 2.469793e-003
2.169525e+003, 2.154270e-003
2.171453e+003, 2.230032e-003
2.173382e+003, 1.733213e-003
2.175310e+003, 1.882214e-003
2.177239e+003, 1.722051e-003
2.179167e+003, 1.596779e-003
2.181096e+003, 2.211611e-003
2.183024e+003, 3.058513e-003
2.184953e+003, 2.938768e-003
2.186881e+003, 3.175727e-003
2.188810e+003, 3.291032e-003
2.190738e+003, 3.030798e-003
2.192667e+003, 2.807408e-003
2.194595e+003, 3.063344e-003
2.196523e+003, 2.966888e-003
2.198452e+003, 2.093779e-003
2.200380e+003, 1.936488e-003
2.202309e+003, 2.793553e-003
2.204237e+003, 2.937820e-003
2.206166e+003, 3.161413e-003
2.208094e+003, 3.190383e-003
2.210023e+003, 2.229420e-003
2.211951e+003, 1.588133e-003
2.213880e+003, 2.526207e-003
2.215808e+003, 2.480193e-003
2.217737e+003, 2.216358e-003
2.219665e+003, 3.532355e-003
2.221594e+003, 4.349637e-003
2.223522e+003, 3.594841e-003
2.225450e+003, 3.145992e-003
2.227379e+003, 4.283569e-003
2.229307e+003, 4.717994e-003
2.231236e+003, 3.852147e-003
2.233164e+003, 3.704237e-003
2.235093e+003, 3.994137e-003
2.237021e+003, 4.337552e-003
2.238950e+003, 5.390018e-003
2.240878e+003, 5.123003e-003
2.242807e+003, 4.267334e-003
2.244735e+003, 3.722236e-003
2.246664e+003, 3.856062e-003
2.248592e+003, 3.727135e-003
2.250521e+003, 3.793360e-003
2.252449e+003, 4.091927e-003
2.254377e+003, 3.884301e-003
2.256306e+003, 4.287538e-003
2.258234e+003, 4.429343e-003
2.260163e+003, 3.655883e-003
2.262091e+003, 3.596637e-003
2.264020e+003, 3.915601e-003
2.265948e+003, 3.766154e-003
2.267877e+003, 4.009563e-003
2.269805e+003, 4.181687e-003
2.271734e+003, 4.302641e-003
2.273662e+003, 4.919369e-003
2.275591e+003, 5.031604e-003
2.277519e+003, 4.456100e-003
2.279448e+003, 4.500160e-003
2.281376e+003, 4.711142e-003
2.283304e+003, 4.894157e-003
2.285233e+003, 5.012970e-003
2.287161e+003, 5.141208e-003
2.289090e+003, 5.060920e-003
2.291018e+003, 4.776894e-003
2.292947e+003, 4.165422e-003
2.294875e+003, 3.886749e-003
2.296804e+003, 3.757470e-003
2.298732e+003, 3.802216e-003
2.300661e+003, 4.001243e-003
2.302589e+003, 4.297866e-003
2.304518e+003, 4.383600e-003
2.306446e+003, 4.229161e-003
2.308375e+003, 4.209039e-003
2.310303e+003, 4.302500e-003
2.312231e+003, 4.305091e-003
2.314160e+003, 4.543426e-003
2.316088e+003, 4.898260e-003
2.318017e+003, 5.115765e-003
2.319945e+003, 5.275636e-003
2.321874e+003, 5.904634e-003
2.323802e+003, 6.003177e-003
2.325731e+003, 5.315673e-003
2.327659e+003, 4.590382e-003
2.329588e+003, 4.315933e-003
2.331516e+003, 4.287543e-003
2.333445e+003, 4.352197e-003
2.335373e+003, 4.404754e-003
2.337302e+003, 4.420759e-003
2.339230e+003, 4.234635e-003
2.341158e+003, 4.092549e-003
2.343087e+003, 3.907300e-003
2.345015e+003, 3.777771e-003
2.346944e+003, 3.708057e-003
2.348872e+003, 3.657521e-003
2.350801e+003, 3.567973e-003
2.352729e+003, 3.766959e-003
2.354658e+003, 4.321794e-003
2.356586e+003, 4.650724e-003
2.358515e+003, 4.348571e-003
2.360443e+003, 4.298247e-003
2.362372e+003, 4.281165e-003
2.364300e+003, 3.793898e-003
2.366229e+003, 3.633718e-003
2.368157e+003, 3.556442e-003
2.370085e+003, 3.275137e-003
2.372014e+003, 3.303821e-003
2.373942e+003, 3.275101e-003
2.375871e+003, 3.040791e-003
2.377799e+003, 2.893609e-003
2.379728e+003, 2.551658e-003
2.381656e+003, 2.461963e-003
2.383585e+003, 3.021990e-003
2.385513e+003, 2.837210e-003
2.387442e+003, 2.224381e-003
2.389370e+003, 2.393280e-003
2.391299e+003, 2.546908e-003
2.393227e+003, 2.632432e-003
2.395156e+003, 2.584669e-003
2.397084e+003, 2.493118e-003
2.399012e+003, 2.576480e-003
2.400941e+003, 2.639322e-003
2.402869e+003, 2.832705e-003
2.404798e+003, 2.743021e-003
2.406726e+003, 2.913058e-003
2.408655e+003, 2.693089e-003
2.410583e+003, 2.763634e-003
2.412512e+003, 3.207391e-003
2.414440e+003, 2.988741e-003
2.416369e+003, 2.720497e-003
2.418297e+003, 2.884798e-003
2.420226e+003, 2.825505e-003
2.422154e+003, 2.951368e-003
2.424083e+003, 3.061332e-003
2.426011e+003, 3.098595e-003
2.427939e+003, 2.988671e-003
2.429868e+003, 3.149064e-003
2.431796e+003, 3.260105e-003
2.433725e+003, 3.400776e-003
2.435653e+003, 3.291505e-003
2.437582e+003, 2.919223e-003
2.439510e+003, 2.695254e-003
2.441439e+003, 2.791303e-003
2.443367e+003, 3.306396e-003
2.445296e+003, 3.527008e-003
2.447224e+003, 3.427286e-003
2.449153e+003, 3.146953e-003
2.451081e+003, 3.188367e-003
2.453010e+003, 3.545392e-003
2.454938e+003, 3.649874e-003
2.456866e+003, 3.426416e-003
2.458795e+003, 3.293194e-003
2.460723e+003, 3.080785e-003
2.462652e+003, 2.711496e-003
2.464580e+003, 3.166203e-003
2.466509e+003, 3.438388e-003
2.468437e+003, 3.451251e-003
2.470366e+003, 3.344901e-003
2.472294e+003, 3.214811e-003
2.474223e+003, 2.830511e-003
2.476151e+003, 2.914077e-003
2.478080e+003, 2.947551e-003
2.480008e+003, 2.930646e-003
2.481937e+003, 2.864567e-003
2.483865e+003, 2.719588e-003
2.485793e+003, 3.058152e-003
2.487722e+003, 3.316476e-003
2.489650e+003, 3.261706e-003
2.491579e+003, 3.208588e-003
2.493507e+003, 2.841887e-003
2.495436e+003, 3.012470e-003
2.497364e+003, 3.609997e-003
2.499293e+003, 3.514497e-003
2.501221e+003, 3.099073e-003
2.503150e+003, 3.129659e-003
2.505078e+003, 3.095528e-003
2.507007e+003, 2.760582e-003
2.508935e+003, 2.959411e-003
2.510864e+003, 3.309942e-003
2.512792e+003, 3.350734e-003
2.514720e+003, 3.818271e-003
2.516649e+003, 3.535724e-003
2.518577e+003, 3.218247e-003
2.520506e+003, 3.531172e-003
2.522434e+003, 3.547877e-003
2.524363e+003, 2.955132e-003
2.526291e+003, 2.786769e-003
2.528220e+003, 3.118411e-003
2.530148e+003, 3.408187e-003
2.532077e+003, 3.801687e-003
2.534005e+003, 3.618484e-003
2.535934e+003, 3.306582e-003
2.537862e+003, 3.316687e-003
2.539791e+003, 3.344361e-003
2.541719e+003, 3.260234e-003
2.543647e+003, 3.542962e-003
2.545576e+003, 3.865036e-003
2.547504e+003, 3.749976e-003
2.549433e+003, 3.303425e-003
2.551361e+003, 3.249371e-003
2.553290e+003, 3.536193e-003
2.555218e+003, 3.709257e-003
2.557147e+003, 3.822408e-003
2.559075e+003, 3.563090e-003
2.561004e+003, 3.600082e-003
2.562932e+003, 3.913631e-003
2.564861e+003, 3.951798e-003
2.566789e+003, 3.850049e-003
2.568718e+003, 3.538093e-003
2.570646e+003, 3.267183e-003
2.572574e+003, 3.584536e-003
2.574503e+003, 3.770461e-003
2.576431e+003, 3.918739e-003
2.578360e+003, 4.125216e-003
2.580288e+003, 4.384391e-003
2.582217e+003, 4.494010e-003
2.584145e+003, 4.518256e-003
2.586074e+003, 4.448330e-003
2.588002e+003, 4.278962e-003
2.589931e+003, 3.797533e-003
2.591859e+003, 3.841981e-003
2.593788e+003, 3.894858e-003
2.595716e+003, 3.778746e-003
2.597645e+003, 3.554278e-003
2.599573e+003, 3.790410e-003
2.601501e+003, 4.243569e-003
2.603430e+003, 4.336250e-003
2.605358e+003, 4.407923e-003
2.607287e+003, 4.527580e-003
2.609215e+003, 4.183780e-003
2.611144e+003, 3.959033e-003
2.613072e+003, 4.142952e-003
2.615001e+003, 4.394749e-003
2.616929e+003, 4.662205e-003
2.618858e+003, 4.762097e-003
2.620786e+003, 4.470901e-003
2.622715e+003, 4.452467e-003
2.624643e+003, 4.558242e-003
2.626572e+003, 4.358194e-003
2.628500e+003, 4.270125e-003
2.630428e+003, 4.461275e-003
2.632357e+003, 4.154094e-003
2.634285e+003, 4.108694e-003
2.636214e+003, 4.583600e-003
2.638142e+003, 4.566416e-003
2.640071e+003, 4.604358e-003
2.641999e+003, 4.844352e-003
2.643928e+003, 4.401591e-003
2.645856e+003, 4.089965e-003
2.647785e+003, 4.293793e-003
2.649713e+003, 4.513814e-003
2.651642e+003, 4.304633e-003
2.653570e+003, 4.234605e-003
2.655499e+003, 4.280602e-003
2.657427e+003, 4.212657e-003
2.659355e+003, 4.113396e-003
2.661284e+003, 4.147441e-003
2.663212e+003, 3.987683e-003
2.665141e+003, 3.747269e-003
2.667069e+003, 3.553089e-003
2.668998e+003, 3.866172e-003
2.670926e+003, 3.860974e-003
2.672855e+003, 3.602016e-003
2.674783e+003, 3.494116e-003
2.676712e+003, 3.557305e-003
2.678640e+003, 3.554616e-003
2.680569e+003, 3.719330e-003
2.682497e+003, 3.747418e-003
2.684426e+003, 3.686580e-003
2.686354e+003, 3.607262e-003
2.688282e+003, 3.579562e-003
2.690211e+003, 3.708565e-003
2.692139e+003, 4.046393e-003
2.694068e+003, 3.996891e-003
2.695996e+003, 3.687774e-003
2.697925e+003, 3.451183e-003
2.699853e+003, 3.461994e-003
2.701782e+003, 3.520944e-003
2.703710e+003, 3.732836e-003
2.705639e+003, 3.691162e-003
2.707567e+003, 3.737801e-003
2.709496e+003, 3.843769e-003
2.711424e+003, 3.838303e-003
2.713353e+003, 3.791425e-003
2.715281e+003, 3.914530e-003
2.717209e+003, 3.898883e-003
2.719138e+003, 3.613237e-003
2.721066e+003, 3.577275e-003
2.722995e+003, 3.679904e-003
2.724923e+003, 3.644472e-003
2.726852e+003, 3.704603e-003
2.728780e+003, 3.691260e-003
2.730709e+003, 3.760943e-003
2.732637e+003, 3.888589e-003
2.734566e+003, 3.776618e-003
2.736494e+003, 3.802748e-003
2.738423e+003, 4.136899e-003
2.740351e+003, 3.906125e-003
2.742280e+003, 3.590125e-003
2.744208e+003, 3.541943e-003
2.746136e+003, 3.824181e-003
2.748065e+003, 3.896475e-003
2.749993e+003, 3.989258e-003
2.751922e+003, 4.040636e-003
2.753850e+003, 3.697531e-003
2.755779e+003, 3.574736e-003
2.757707e+003, 3.954701e-003
2.759636e+003, 4.177204e-003
2.761564e+003, 4.096385e-003
2.763493e+003, 4.096214e-003
2.765421e+003, 4.129506e-003
2.767350e+003, 3.905512e-003
2.769278e+003, 3.935758e-003
2.771207e+003, 4.087286e-003
2.773135e+003, 4.307276e-003
2.775063e+003, 4.237281e-003
2.776992e+003, 3.937767e-003
2.778920e+003, 4.080185e-003
2.780849e+003, 4.204506e-003
2.782777e+003, 3.964102e-003
2.784706e+003, 4.096920e-003
2.786634e+003, 4.354189e-003
2.788563e+003, 4.386134e-003
2.790491e+003, 4.289138e-003
2.792420e+003, 4.189876e-003
2.794348e+003, 4.259201e-003
2.796277e+003, 4.368605e-003
2.798205e+003, 4.203395e-003
2.800134e+003, 4.095506e-003
2.802062e+003, 4.104848e-003
2.803990e+003, 4.127529e-003
2.805919e+003, 3.931869e-003
2.807847e+003, 3.904891e-003
2.809776e+003, 4.033667e-003
2.811704e+003, 4.164311e-003
2.813633e+003, 4.174557e-003
2.815561e+003, 4.198106e-003
2.817490e+003, 4.214378e-003
2.819418e+003, 4.284664e-003
2.821347e+003, 4.342287e-003
2.823275e+003, 4.511337e-003
2.825204e+003, 4.447900e-003
2.827132e+003, 4.274203e-003
2.829061e+003, 4.326596e-003
2.830989e+003, 4.399677e-003
2.832917e+003, 4.545588e-003
2.834846e+003, 4.914816e-003
2.836774e+003, 4.952511e-003
2.838703e+003, 4.768058e-003
2.840631e+003, 4.894419e-003
2.842560e+003, 5.324848e-003
2.844488e+003, 5.484938e-003
2.846417e+003, 5.202501e-003
2.848345e+003, 5.340993e-003
2.850274e+003, 5.668943e-003
2.852202e+003, 5.930184e-003
2.854131e+003, 6.188596e-003
2.856059e+003, 6.053835e-003
2.857988e+003, 5.956676e-003
2.859916e+003, 5.857675e-003
2.861844e+003, 5.667666e-003
2.863773e+003, 5.481523e-003
2.865701e+003, 5.644208e-003
2.867630e+003, 5.588353e-003
2.869558e+003, 5.557156e-003
2.871487e+003, 5.259502e-003
2.873415e+003, 5.353485e-003
2.875344e+003, 5.121150e-003
2.877272e+003, 4.898784e-003
2.879201e+003, 5.248051e-003
2.881129e+003, 5.254539e-003
2.883058e+003, 4.997251e-003
2.884986e+003, 5.031209e-003
2.886915e+003, 5.234927e-003
2.888843e+003, 5.373961e-003
2.890771e+003, 5.561196e-003
2.892700e+003, 6.022186e-003
2.894628e+003, 6.067064e-003
2.896557e+003, 6.044103e-003
2.898485e+003, 6.099370e-003
2.900414e+003, 6.385152e-003
2.902342e+003, 6.348900e-003
2.904271e+003, 6.232520e-003
2.906199e+003, 6.537071e-003
2.908128e+003, 7.092072e-003
2.910056e+003, 7.231466e-003
2.911985e+003, 6.916068e-003
2.913913e+003, 6.918707e-003
2.915842e+003, 7.651098e-003
2.917770e+003, 7.759748e-003
2.919698e+003, 7.685064e-003
2.921627e+003, 7.725300e-003
2.923555e+003, 7.862465e-003
2.925484e+003, 7.865311e-003
2.927412e+003, 7.517041e-003
2.929341e+003, 7.381598e-003
2.931269e+003, 7.307527e-003
2.933198e+003, 7.358472e-003
2.935126e+003, 7.112046e-003
2.937055e+003, 6.682094e-003
2.938983e+003, 5.982344e-003
2.940912e+003, 5.751913e-003
2.942840e+003, 5.681051e-003
2.944769e+003, 5.601569e-003
2.946697e+003, 5.429616e-003
2.948625e+003, 5.534133e-003
2.950554e+003, 5.593426e-003
2.952482e+003, 5.477314e-003
2.954411e+003, 5.646556e-003
2.956339e+003, 5.756110e-003
2.958268e+003, 5.898308e-003
2.960196e+003, 6.110570e-003
2.962125e+003, 5.983203e-003
2.964053e+003, 5.568317e-003
2.965982e+003, 5.474328e-003
2.967910e+003, 5.547513e-003
2.969839e+003, 5.554873e-003
2.971767e+003, 5.351220e-003
2.973696e+003, 5.254965e-003
2.975624e+003, 5.178981e-003
2.977552e+003, 5.181247e-003
2.979481e+003, 5.056944e-003
2.981409e+003, 4.921284e-003
2.983338e+003, 4.579503e-003
2.985266e+003, 4.826278e-003
2.987195e+003, 4.979121e-003
2.989123e+003, 4.556478e-003
2.991052e+003, 4.526599e-003
2.992980e+003, 4.712639e-003
2.994909e+003, 4.389646e-003
2.996837e+003, 4.409311e-003
2.998766e+003, 4.727932e-003
3.000694e+003, 4.845831e-003
3.002623e+003, 4.603614e-003
3.004551e+003, 4.752340e-003
3.006479e+003, 4.708500e-003
3.008408e+003, 4.683009e-003
3.010336e+003, 4.700626e-003
3.012265e+003, 4.568017e-003
3.014193e+003, 4.664351e-003
3.016122e+003, 5.081210e-003
3.018050e+003, 5.338668e-003
3.019979e+003, 4.992281e-003
3.021907e+003, 4.741706e-003
3.023836e+003, 4.966071e-003
3.025764e+003, 4.826243e-003
3.027693e+003, 4.761457e-003
3.029621e+003, 4.835317e-003
3.031550e+003, 4.767522e-003
3.033478e+003, 4.746445e-003
3.035406e+003, 4.922483e-003
3.037335e+003, 4.801467e-003
3.039263e+003, 5.139708e-003
3.041192e+003, 5.197294e-003
3.043120e+003, 5.038836e-003
3.045049e+003, 5.235792e-003
3.046977e+003, 5.214376e-003
3.048906e+003, 5.179036e-003
3.050834e+003, 5.503746e-003
3.052763e+003, 5.262664e-003
3.054691e+003, 5.232963e-003
3.056620e+003, 5.162654e-003
3.058548e+003, 4.994291e-003
3.060477e+003, 5.047827e-003
3.062405e+003, 5.018516e-003
3.064333e+003, 5.369974e-003
3.066262e+003, 5.841450e-003
3.068190e+003, 5.985123e-003
3.070119e+003, 5.656830e-003
3.072047e+003, 5.374703e-003
3.073976e+003, 5.355272e-003
3.075904e+003, 5.205866e-003
3.077833e+003, 5.401617e-003
3.079761e+003, 5.575298e-003
3.081690e+003, 5.740497e-003
3.083618e+003, 5.621679e-003
3.085547e+003, 5.546656e-003
3.087475e+003, 5.630868e-003
3.089404e+003, 5.748492e-003
3.091332e+003, 5.761338e-003
3.093260e+003, 5.722113e-003
3.095189e+003, 5.589633e-003
3.097117e+003, 5.412176e-003
3.099046e+003, 5.729206e-003
3.100974e+003, 6.476846e-003
3.102903e+003, 6.622515e-003
3.104831e+003, 6.380707e-003
3.106760e+003, 5.945380e-003
3.108688e+003, 5.706172e-003
3.110617e+003, 5.828333e-003
3.112545e+003, 5.860120e-003
3.114474e+003, 5.930498e-003
3.116402e+003, 6.418907e-003
3.118331e+003, 6.510813e-003
3.120259e+003, 6.275094e-003
3.122188e+003, 6.303604e-003
3.124116e+003, 6.180003e-003
3.126044e+003, 6.052719e-003
3.127973e+003, 6.418893e-003
3.129901e+003, 6.473491e-003
3.131830e+003, 6.544316e-003
3.133758e+003, 6.783641e-003
3.135687e+003, 6.932337e-003
3.137615e+003, 6.855829e-003
3.139544e+003, 6.954247e-003
3.141472e+003, 6.853482e-003
3.143401e+003, 6.499005e-003
3.145329e+003, 6.838749e-003
3.147258e+003, 6.952571e-003
3.149186e+003, 6.294901e-003
3.151115e+003, 5.942488e-003
3.153043e+003, 6.155577e-003
3.154971e+003, 6.208381e-003
3.156900e+003, 6.287517e-003
3.158828e+003, 6.332471e-003
3.160757e+003, 6.538361e-003
3.162685e+003, 6.493074e-003
3.164614e+003, 6.635791e-003
3.166542e+003, 7.191018e-003
3.168471e+003, 7.479209e-003
3.170399e+003, 7.418700e-003
3.172328e+003, 7.160729e-003
3.174256e+003, 7.225981e-003
3.176185e+003, 6.780083e-003
3.178113e+003, 6.332518e-003
3.180042e+003, 6.677458e-003
3.181970e+003, 7.123570e-003
3.183898e+003, 7.594120e-003
3.185827e+003, 7.772696e-003
3.187755e+003, 7.827856e-003
3.189684e+003, 7.538847e-003
3.191612e+003, 7.343734e-003
3.193541e+003, 7.238288e-003
3.195469e+003, 7.116010e-003
3.197398e+003, 7.547491e-003
3.199326e+003, 7.678246e-003
3.201255e+003, 7.338410e-003
3.203183e+003, 7.660928e-003
3.205112e+003, 7.870476e-003
3.207040e+003, 7.676029e-003
3.208969e+003, 7.398421e-003
3.210897e+003, 7.147693e-003
3.212825e+003, 7.108866e-003
3.214754e+003, 6.829983e-003
3.216682e+003, 7.026238e-003
3.218611e+003, 7.448850e-003
3.220539e+003, 7.757484e-003
3.222468e+003, 7.744306e-003
3.224396e+003, 7.578567e-003
3.226325e+003, 7.599329e-003
3.228253e+003, 7.803599e-003
3.230182e+003, 8.088871e-003
3.232110e+003, 7.891108e-003
3.234039e+003, 7.436615e-003
3.235967e+003, 7.490418e-003
3.237896e+003, 7.965760e-003
3.239824e+003, 8.013042e-003
3.241752e+003, 7.612557e-003
3.243681e+003, 7.526319e-003
3.245609e+003, 7.791702e-003
3.247538e+003, 7.719186e-003
3.249466e+003, 7.520150e-003
3.251395e+003, 7.639749e-003
3.253323e+003, 8.224886e-003
3.255252e+003, 8.568398e-003
3.257180e+003, 8.625158e-003
3.259109e+003, 8.363234e-003
3.261037e+003, 8.078113e-003
3.262966e+003, 8.172817e-003
3.264894e+003, 8.278402e-003
3.266823e+003, 8.245513e-003
3.268751e+003, 8.440273e-003
3.270679e+003, 8.374720e-003
3.272608e+003, 8.102305e-003
3.274536e+003, 7.864310e-003
3.276465e+003, 7.735876e-003
3.278393e+003, 8.197692e-003
3.280322e+003, 8.205138e-003
3.282250e+003, 8.044913e-003
3.284179e+003, 8.062881e-003
3.286107e+003, 8.418605e-003
3.288036e+003, 8.236048e-003
3.289964e+003, 7.942030e-003
3.291893e+003, 8.132169e-003
3.293821e+003, 8.096871e-003
3.295750e+003, 7.214202e-003
3.297678e+003, 7.579987e-003
3.299606e+003, 7.971574e-003
3.301535e+003, 8.158189e-003
3.303463e+003, 8.534528e-003
3.305392e+003, 8.689026e-003
3.307320e+003, 8.599943e-003
3.309249e+003, 8.037871e-003
3.311177e+003, 7.942932e-003
3.313106e+003, 8.260201e-003
3.315034e+003, 7.997248e-003
3.316963e+003, 8.086006e-003
3.318891e+003, 8.077548e-003
3.320820e+003, 7.951347e-003
3.322748e+003, 8.120149e-003
3.324677e+003, 8.179478e-003
3.326605e+003, 7.998006e-003
3.328533e+003, 7.938877e-003
3.330462e+003, 8.158865e-003
3.332390e+003, 7.976720e-003
3.334319e+003, 7.531936e-003
3.336247e+003, 8.112564e-003
3.338176e+003, 8.749945e-003
3.340104e+003, 8.766135e-003
3.342033e+003, 8.598861e-003
3.343961e+003, 8.851168e-003
3.345890e+003, 8.897208e-003
3.347818e+003, 8.233958e-003
3.349747e+003, 7.867832e-003
3.351675e+003, 8.755834e-003
3.353604e+003, 8.771045e-003
3.355532e+003, 8.446381e-003
3.357460e+003, 8.219859e-003
3.359389e+003, 8.314023e-003
3.361317e+003, 8.429129e-003
3.363246e+003, 8.266635e-003
3.365174e+003, 7.968530e-003
3.367103e+003, 8.361052e-003
3.369031e+003, 9.040062e-003
3.370960e+003, 8.435560e-003
3.372888e+003, 8.136367e-003
3.374817e+003, 8.724044e-003
3.376745e+003, 8.893142e-003
3.378674e+003, 8.301402e-003
3.380602e+003, 8.136164e-003
3.382531e+003, 8.008615e-003
3.384459e+003, 7.969997e-003
3.386387e+003, 8.320807e-003
3.388316e+003, 8.586493e-003
3.390244e+003, 8.478395e-003
3.392173e+003, 8.291392e-003
3.394101e+003, 8.286040e-003
3.396030e+003, 8.210748e-003
3.397958e+003, 7.976995e-003
3.399887e+003, 7.714247e-003
3.401815e+003, 8.274494e-003
3.403744e+003, 8.356195e-003
3.405672e+003, 8.093700e-003
3.407601e+003, 8.404497e-003
3.409529e+003, 8.055499e-003
3.411458e+003, 8.049941e-003
3.413386e+003, 7.991039e-003
3.415314e+003, 7.908064e-003
3.417243e+003, 8.074067e-003
3.419171e+003, 8.427453e-003
3.421100e+003, 8.496047e-003
3.423028e+003, 8.021025e-003
3.424957e+003, 7.016702e-003
3.426885e+003, 7.113861e-003
3.428814e+003, 7.525225e-003
3.430742e+003, 7.356835e-003
3.432671e+003, 7.846488e-003
3.434599e+003, 7.999168e-003
3.436528e+003, 7.568362e-003
3.438456e+003, 7.412190e-003
3.440385e+003, 7.938494e-003
3.442313e+003, 8.625473e-003
3.444241e+003, 8.751519e-003
3.446170e+003, 8.276630e-003
3.448098e+003, 8.253231e-003
3.450027e+003, 8.023492e-003
3.451955e+003, 7.707185e-003
3.453884e+003, 7.760150e-003
3.455812e+003, 8.197778e-003
3.457741e+003, 8.234493e-003
3.459669e+003, 7.948996e-003
3.461598e+003, 7.678679e-003
3.463526e+003, 7.611674e-003
3.465455e+003, 7.513203e-003
3.467383e+003, 7.528238e-003
3.469312e+003, 7.450980e-003
3.471240e+003, 7.766312e-003
3.473168e+003, 7.472216e-003
3.475097e+003, 7.289842e-003
3.477025e+003, 7.463262e-003
3.478954e+003, 7.206662e-003
3.480882e+003, 7.533321e-003
3.482811e+003, 8.007503e-003
3.484739e+003, 7.231641e-003
3.486668e+003, 6.963457e-003
3.488596e+003, 7.456502e-003
3.490525e+003, 7.816084e-003
3.492453e+003, 8.210465e-003
3.494382e+003, 8.094518e-003
3.496310e+003, 7.553554e-003
3.498239e+003, 7.377522e-003
3.500167e+003, 7.606410e-003
3.502095e+003, 7.735857e-003
3.504024e+003, 7.680137e-003
3.505952e+003, 7.270993e-003
3.507881e+003, 6.884976e-003
3.509809e+003, 7.395731e-003
3.511738e+003, 7.757507e-003
3.513666e+003, 8.048717e-003
3.515595e+003, 8.103254e-003
3.517523e+003, 7.917779e-003
3.519452e+003, 8.300317e-003
3.521380e+003, 8.495628e-003
3.523309e+003, 7.765115e-003
3.525237e+003, 7.565925e-003
3.527166e+003, 8.017137e-003
3.529094e+003, 8.663107e-003
3.531022e+003, 9.011094e-003
3.532951e+003, 9.241642e-003
3.534879e+003, 1.019270e-002
3.536808e+003, 1.049062e-002
3.538736e+003, 1.063955e-002
3.540665e+003, 1.130005e-002
3.542593e+003, 1.203915e-002
3.544522e+003, 1.336358e-002
3.546450e+003, 1.430208e-002
3.548379e+003, 1.542837e-002
3.550307e+003, 1.725053e-002
3.552236e+003, 1.956975e-002
3.554164e+003, 2.242501e-002
3.556093e+003, 2.501783e-002
3.558021e+003, 2.737847e-002
3.559949e+003, 2.888078e-002
3.561878e+003, 2.845519e-002
3.563806e+003, 2.774743e-002
3.565735e+003, 2.831453e-002
3.567663e+003, 2.991887e-002
3.569592e+003, 3.049187e-002
3.571520e+003, 2.780821e-002
3.573449e+003, 2.278493e-002
3.575377e+003, 1.815998e-002
3.577306e+003, 1.382941e-002
3.579234e+003, 1.037826e-002
3.581163e+003, 7.925417e-003
3.583091e+003, 6.462872e-003
3.585020e+003, 5.789341e-003
3.586948e+003, 5.694162e-003
3.588876e+003, 4.836712e-003
3.590805e+003, 4.113369e-003
3.592733e+003, 4.147566e-003
3.594662e+003, 4.480748e-003
3.596590e+003, 4.299353e-003
3.598519e+003, 3.830654e-003
3.600447e+003, 3.452816e-003
3.602376e+003, 3.115086e-003
3.604304e+003, 3.780427e-003
3.606233e+003, 4.588044e-003
3.608161e+003, 4.354665e-003
3.610090e+003, 4.300736e-003
3.612018e+003, 4.312155e-003
3.613947e+003, 4.206154e-003
3.615875e+003, 4.331416e-003
3.617803e+003, 4.443836e-003
3.619732e+003, 4.055838e-003
3.621660e+003, 3.594030e-003
3.623589e+003, 4.195707e-003
3.625517e+003, 4.657157e-003
3.627446e+003, 5.055925e-003
3.629374e+003, 5.704182e-003
3.631303e+003, 4.803010e-003
3.633231e+003, 4.530756e-003
3.635160e+003, 4.930381e-003
3.637088e+003, 5.224002e-003
3.639017e+003, 4.888562e-003
3.640945e+003, 5.232567e-003
3.642874e+003, 5.807655e-003
3.644802e+003, 5.442776e-003
3.646730e+003, 5.566907e-003
3.648659e+003, 6.885997e-003
3.650587e+003, 6.803991e-003
3.652516e+003, 5.386047e-003
3.654444e+003, 5.104489e-003
3.656373e+003, 6.209331e-003
3.658301e+003, 6.456368e-003
3.660230e+003, 6.425189e-003
3.662158e+003, 6.894168e-003
3.664087e+003, 6.962913e-003
3.666015e+003, 7.218532e-003
3.667944e+003, 7.702322e-003
3.669872e+003, 7.361475e-003
3.671801e+003, 7.231635e-003
3.673729e+003, 8.341461e-003
3.675657e+003, 8.859261e-003
3.677586e+003, 8.928486e-003
3.679514e+003, 9.758973e-003
3.681443e+003, 1.009893e-002
3.683371e+003, 1.121598e-002
3.685300e+003, 1.282050e-002
3.687228e+003, 1.318132e-002
3.689157e+003, 1.296713e-002
3.691085e+003, 1.242287e-002
3.693014e+003, 1.075991e-002
3.694942e+003, 9.389760e-003
3.696871e+003, 8.533646e-003
3.698799e+003, 7.586341e-003
3.700728e+003, 6.823803e-003
3.702656e+003, 6.752821e-003
3.704584e+003, 5.595359e-003
3.706513e+003, 4.777459e-003
3.708441e+003, 4.248125e-003
3.710370e+003, 3.897344e-003
3.712298e+003, 3.606556e-003
3.714227e+003, 3.761505e-003
3.716155e+003, 4.315110e-003
3.718084e+003, 3.981520e-003
3.720012e+003, 2.990442e-003
3.721941e+003, 2.651644e-003
3.723869e+003, 2.525478e-003
3.725798e+003, 2.633618e-003
3.727726e+003, 2.498405e-003
3.729655e+003, 2.184487e-003
3.731583e+003, 2.756849e-003
3.733511e+003, 3.822326e-003
3.735440e+003, 3.948740e-003
3.737368e+003, 3.116800e-003
3.739297e+003, 2.453422e-003
3.741225e+003, 2.491188e-003
3.743154e+003, 3.601728e-003
3.745082e+003, 3.929701e-003
3.747011e+003, 3.020479e-003
3.748939e+003, 3.700916e-003
3.750868e+003, 4.590831e-003
3.752796e+003, 3.447511e-003
3.754725e+003, 1.287397e-003
3.756653e+003, 1.494610e-003
3.758582e+003, 2.674006e-003
3.760510e+003, 3.089284e-003
3.762438e+003, 2.386454e-003
3.764367e+003, 2.116269e-003
3.766295e+003, 2.301296e-003
3.768224e+003, 2.454645e-003
3.770152e+003, 2.498189e-003
3.772081e+003, 1.771735e-003
3.774009e+003, 1.638825e-003
3.775938e+003, 2.053749e-003
3.777866e+003, 2.556080e-003
3.779795e+003, 2.067634e-003
3.781723e+003, 1.659484e-003
3.783652e+003, 2.346551e-003
3.785580e+003, 2.372116e-003
3.787509e+003, 1.953367e-003
3.789437e+003, 2.413136e-003
3.791365e+003, 2.615165e-003
3.793294e+003, 2.424906e-003
3.795222e+003, 2.595910e-003
3.797151e+003, 3.110435e-003
3.799079e+003, 3.179362e-003
3.801008e+003, 2.954236e-003
3.802936e+003, 2.622894e-003
3.804865e+003, 2.652130e-003
3.806793e+003, 3.167872e-003
3.808722e+003, 2.571269e-003
3.810650e+003, 2.087168e-003
3.812579e+003, 2.519216e-003
3.814507e+003, 2.489985e-003
3.816436e+003, 2.081347e-003
3.818364e+003, 2.165501e-003
3.820292e+003, 3.039858e-003
3.822221e+003, 2.730318e-003
3.824149e+003, 1.275060e-003
3.826078e+003, 1.322773e-003
3.828006e+003, 1.590159e-003
3.829935e+003, 2.041316e-003
3.831863e+003, 2.403407e-003
3.833792e+003, 2.858445e-003
3.835720e+003, 3.219959e-003
3.837649e+003, 3.188071e-003
3.839577e+003, 2.738128e-003
3.841506e+003, 2.917622e-003
3.843434e+003, 2.871120e-003
3.845363e+003, 2.242179e-003
3.847291e+003, 2.187905e-003
3.849219e+003, 1.913049e-003
3.851148e+003, 2.813995e-003
3.853076e+003, 4.213108e-003
3.855005e+003, 3.657763e-003
3.856933e+003, 2.777643e-003
3.858862e+003, 2.248002e-003
3.860790e+003, 2.173678e-003
3.862719e+003, 2.328043e-003
3.864647e+003, 2.332668e-003
3.866576e+003, 2.450198e-003
3.868504e+003, 3.145255e-003
3.870433e+003, 2.990594e-003
3.872361e+003, 1.436111e-003
3.874290e+003, 1.098186e-003
3.876218e+003, 1.276098e-003
3.878146e+003, 1.268888e-003
3.880075e+003, 1.972790e-003
3.882003e+003, 2.427900e-003
3.883932e+003, 2.900986e-003
3.885860e+003, 3.472467e-003
3.887789e+003, 3.145963e-003
3.889717e+003, 2.891622e-003
3.891646e+003, 2.456012e-003
3.893574e+003, 1.241918e-003
3.895503e+003, 1.354267e-003
3.897431e+003, 2.071473e-003
3.899360e+003, 1.896189e-003
3.901288e+003, 1.478796e-003
3.903217e+003, 1.788792e-003
3.905145e+003, 2.100965e-003
3.907073e+003, 2.228384e-003
3.909002e+003, 2.568012e-003
3.910930e+003, 1.946833e-003
3.912859e+003, 1.639292e-003
3.914787e+003, 1.930832e-003
3.916716e+003, 1.582843e-003
3.918644e+003, 8.824951e-004
3.920573e+003, 1.457632e-003
3.922501e+003, 2.050314e-003
3.924430e+003, 1.699718e-003
3.926358e+003, 1.341949e-003
3.928287e+003, 1.390154e-003
3.930215e+003, 1.143749e-003
3.932144e+003, 1.280297e-003
3.934072e+003, 1.443603e-003
3.936000e+003, 1.428126e-003
3.937929e+003, 2.196989e-003
3.939857e+003, 2.543570e-003
3.941786e+003, 2.049933e-003
3.943714e+003, 1.524304e-003
3.945643e+003, 1.587074e-003
3.947571e+003, 1.371322e-003
3.949500e+003, 1.176992e-003
3.951428e+003, 1.965682e-003
3.953357e+003, 2.995618e-003
3.955285e+003, 2.078734e-003
3.957214e+003, 1.584248e-003
3.959142e+003, 1.137071e-003
3.961071e+003, 6.375812e-004
3.962999e+003, 1.490753e-003
3.964927e+003, 2.260460e-003
3.966856e+003, 2.141008e-003
3.968784e+003, 1.631790e-003
3.970713e+003, 1.168305e-003
3.972641e+003, 1.463684e-003
3.974570e+003, 2.265166e-003
3.976498e+003, 1.923412e-003
3.978427e+003, 1.276634e-003
3.980355e+003, 9.477234e-004
3.982284e+003, 6.524796e-004
3.984212e+003, 8.351840e-004
3.986141e+003, 1.572297e-003
3.988069e+003, 1.864189e-003
3.989998e+003, 1.583346e-003
3.991926e+003, 1.452521e-003
3.993854e+003, 1.744755e-003
3.995783e+003, 1.801659e-003
3.997711e+003, 1.653760e-003
3.999640e+003, 1.963263e-003
4.001568e+003, 0.000000e+000
##END=



