##NAMES=Churchite-(Y)
##RRUFFID=R050421
##IDEAL CHEMISTRY=YPO_4_&#183;2H_2_O
##LOCALITY=Vesuvius, Virginia, USA
##OWNER=RRUFF
##SOURCE=Marcus Origlieri
##DESCRIPTION=Colorless acicular radiating groups
##STATUS=The identification of this mineral is confirmed by single-crystal X-ray diffraction and chemical analysis.
##URL=rruff.info/R050421
##MEASURED CHEMISTRY=(Y_0.94_Er_0.01_Gd_0.01_Dy_0.01_Yb_0.01_Ca_0.02_)_Î£=1.00_(PO_4_)_0.97_&#183;1.28H_2_O
399.1926, 0.3162389
401.1211, 0.3003415
403.0496, 0.3017854
404.9780, 0.3067368
406.9065, 0.3329268
408.8350, 0.3538958
410.7634, 0.3764623
412.6919, 0.3827673
414.6204, 0.3827911
416.5488, 0.3948828
418.4773, 0.4011438
420.4058, 0.4007991
422.3342, 0.4040037
424.2627, 0.3976929
426.1912, 0.3967659
428.1196, 0.4115738
430.0481, 0.4163662
431.9766, 0.4011270
433.9050, 0.3927950
435.8335, 0.3932990
437.7620, 0.4026973
439.6904, 0.4081716
441.6189, 0.4127459
443.5474, 0.4148650
445.4758, 0.4190326
447.4043, 0.4269153
449.3328, 0.4278964
451.2612, 0.4224950
453.1897, 0.4190271
455.1182, 0.4153588
457.0466, 0.4073680
458.9751, 0.4007146
460.9036, 0.3960524
462.8320, 0.3872223
464.7605, 0.3787857
466.6890, 0.3689726
468.6174, 0.3521040
470.5459, 0.3348832
472.4744, 0.3165301
474.4028, 0.2985964
476.3313, 0.2845813
478.2598, 0.2703884
480.1882, 0.2549572
482.1167, 0.2421776
484.0452, 0.2336438
485.9736, 0.2274602
487.9021, 0.2218807
489.8306, 0.2180354
491.7590, 0.2170350
493.6875, 0.2177162
495.6160, 0.2196738
497.5444, 0.2224608
499.4729, 0.2247623
501.4014, 0.2293805
503.3298, 0.2351948
505.2583, 0.2415285
507.1868, 0.2479101
509.1152, 0.2539855
511.0437, 0.2593575
512.9722, 0.2627477
514.9006, 0.2647807
516.8291, 0.2663637
518.7576, 0.2656192
520.6860, 0.2627039
522.6145, 0.2610065
524.5430, 0.2592774
526.4714, 0.2562418
528.3999, 0.2521243
530.3284, 0.2467213
532.2568, 0.2415800
534.1853, 0.2352334
536.1138, 0.2284604
538.0422, 0.2197918
539.9707, 0.2086410
541.8992, 0.1988079
543.8276, 0.1907324
545.7561, 0.1828986
547.6846, 0.1755770
549.6130, 0.1697375
551.5415, 0.1640615
553.4700, 0.1588773
555.3984, 0.1540809
557.3269, 0.1496350
559.2554, 0.1453854
561.1838, 0.1403685
563.1123, 0.1359135
565.0408, 0.1319278
566.9692, 0.1278712
568.8977, 0.1237485
570.8262, 0.1200239
572.7546, 0.1162698
574.6831, 0.1124489
576.6116, 0.1088674
578.5400, 0.1059449
580.4685, 0.1023674
582.3970, 9.9294066E-02
584.3254, 9.7270347E-02
586.2539, 9.5207207E-02
588.1824, 9.3125023E-02
590.1108, 9.1372862E-02
592.0393, 8.9953482E-02
593.9678, 8.8247657E-02
595.8962, 8.6569428E-02
597.8247, 8.5350037E-02
599.7532, 8.4180683E-02
601.6816, 8.3485752E-02
603.6101, 8.2744442E-02
605.5386, 8.2003228E-02
607.4670, 8.1332028E-02
609.3955, 8.0761619E-02
611.3240, 8.0236919E-02
613.2524, 7.9953969E-02
615.1809, 7.9492576E-02
617.1094, 7.9306610E-02
619.0378, 7.9182617E-02
620.9663, 7.9034157E-02
622.8948, 7.9054452E-02
624.8232, 7.9365753E-02
626.7517, 7.9458833E-02
628.6802, 7.9402447E-02
630.6086, 7.9298623E-02
632.5371, 7.9583310E-02
634.4656, 7.9210632E-02
636.3940, 7.8849703E-02
638.3225, 7.9016872E-02
640.2510, 7.8747503E-02
642.1794, 7.8364968E-02
644.1079, 7.7783637E-02
646.0364, 7.7077478E-02
647.9648, 7.6625399E-02
649.8933, 7.6883279E-02
651.8218, 7.7311642E-02
653.7502, 7.6998293E-02
655.6787, 7.6712422E-02
657.6072, 7.7081367E-02
659.5356, 7.7614099E-02
661.4641, 7.8517027E-02
663.3926, 7.9593576E-02
665.3210, 8.0901504E-02
667.2495, 8.1914037E-02
669.1780, 8.3497517E-02
671.1064, 8.5306346E-02
673.0349, 8.7120242E-02
674.9634, 8.8995963E-02
676.8918, 9.0512507E-02
678.8203, 9.2830747E-02
680.7488, 9.5367797E-02
682.6772, 9.8137178E-02
684.6057, 0.1010828
686.5342, 0.1047109
688.4626, 0.1094448
690.3911, 0.1154545
692.3196, 0.1217104
694.2480, 0.1246965
696.1765, 0.1205020
698.1050, 0.1102346
700.0334, 9.9575900E-02
701.9619, 9.1715418E-02
703.8904, 8.5606948E-02
705.8188, 8.0230869E-02
707.7473, 7.5051859E-02
709.6758, 7.0810936E-02
711.6042, 6.7454338E-02
713.5327, 6.4388163E-02
715.4612, 6.2122181E-02
717.3896, 6.0835019E-02
719.3181, 6.0228109E-02
721.2466, 6.0642932E-02
723.1750, 6.1582439E-02
725.1035, 6.2087279E-02
727.0320, 6.3169837E-02
728.9604, 6.5395579E-02
730.8889, 6.8208449E-02
732.8174, 7.1405537E-02
734.7458, 7.4471056E-02
736.6743, 7.7282153E-02
738.6028, 8.0567613E-02
740.5313, 8.4734082E-02
742.4597, 8.9471452E-02
744.3882, 9.4653197E-02
746.3167, 9.9149480E-02
748.2451, 0.1035641
750.1736, 0.1073465
752.1021, 0.1100512
754.0305, 0.1121914
755.9590, 0.1133926
757.8875, 0.1142288
759.8159, 0.1151304
761.7444, 0.1167072
763.6729, 0.1199174
765.6013, 0.1252559
767.5298, 0.1325628
769.4583, 0.1428628
771.3867, 0.1570819
773.3152, 0.1732648
775.2437, 0.1882257
777.1721, 0.1974568
779.1006, 0.1975094
781.0291, 0.1897635
782.9575, 0.1788766
784.8860, 0.1707729
786.8145, 0.1688176
788.7429, 0.1735040
790.6714, 0.1831095
792.5999, 0.1950301
794.5283, 0.2056132
796.4568, 0.2103440
798.3853, 0.2053366
800.3137, 0.1899444
802.2422, 0.1682226
804.1707, 0.1448129
806.0991, 0.1237684
808.0276, 0.1073691
809.9561, 9.5601417E-02
811.8845, 8.8562869E-02
813.8130, 8.4943749E-02
815.7415, 8.3675221E-02
817.6699, 8.4303573E-02
819.5984, 8.5974187E-02
821.5269, 8.8091001E-02
823.4553, 9.0225339E-02
825.3838, 9.1946959E-02
827.3123, 9.2950597E-02
829.2407, 9.2626654E-02
831.1692, 9.1785759E-02
833.0977, 9.0841137E-02
835.0261, 8.9164034E-02
836.9546, 8.7278850E-02
838.8831, 8.6112984E-02
840.8115, 8.5157797E-02
842.7400, 8.4137224E-02
844.6685, 8.3406828E-02
846.5969, 8.3346128E-02
848.5254, 8.3809257E-02
850.4539, 8.4244810E-02
852.3823, 8.4936500E-02
854.3108, 8.5964762E-02
856.2393, 8.7510139E-02
858.1677, 8.9264058E-02
860.0962, 9.1506056E-02
862.0247, 9.4340913E-02
863.9531, 9.7521037E-02
865.8816, 0.1012877
867.8101, 0.1055168
869.7385, 0.1105645
871.6670, 0.1163627
873.5955, 0.1224841
875.5239, 0.1292882
877.4524, 0.1369057
879.3809, 0.1445187
881.3093, 0.1527541
883.2378, 0.1621779
885.1663, 0.1729740
887.0947, 0.1841899
889.0232, 0.1955101
890.9517, 0.2080646
892.8801, 0.2218461
894.8085, 0.2367034
896.7370, 0.2523349
898.6655, 0.2688289
900.5939, 0.2852644
902.5224, 0.3009888
904.4509, 0.3155566
906.3793, 0.3280074
908.3078, 0.3370952
910.2363, 0.3411145
912.1647, 0.3380011
914.0932, 0.3284524
916.0217, 0.3162556
917.9501, 0.3056698
919.8786, 0.2973456
921.8071, 0.2909610
923.7355, 0.2868573
925.6640, 0.2849359
927.5925, 0.2842329
929.5209, 0.2851886
931.4494, 0.2875141
933.3779, 0.2900527
935.3063, 0.2921302
937.2348, 0.2936565
939.1633, 0.2949784
941.0917, 0.2961937
943.0202, 0.2982943
944.9487, 0.3032467
946.8771, 0.3114641
948.8056, 0.3227984
950.7341, 0.3379978
952.6625, 0.3561563
954.5910, 0.3765028
956.5195, 0.3983667
958.4479, 0.4221732
960.3764, 0.4471566
962.3049, 0.4719646
964.2333, 0.4963304
966.1618, 0.5207039
968.0903, 0.5431697
970.0187, 0.5635924
971.9472, 0.5812058
973.8757, 0.5961518
975.8041, 0.6093717
977.7326, 0.6208533
979.6611, 0.6306596
981.5895, 0.6402199
983.5180, 0.6475582
985.4465, 0.6536393
987.3749, 0.6595743
989.3034, 0.6655809
991.2319, 0.6723533
993.1603, 0.6796101
995.0888, 0.6852151
997.0173, 0.6896114
998.9457, 0.6930730
1000.874, 0.6935366
1002.803, 0.6897891
1004.731, 0.6819485
1006.660, 0.6697376
1008.588, 0.6537264
1010.517, 0.6367140
1012.445, 0.6209040
1014.373, 0.6079676
1016.302, 0.5990014
1018.230, 0.5917474
1020.159, 0.5860248
1022.087, 0.5815635
1024.016, 0.5771739
1025.944, 0.5718849
1027.873, 0.5636355
1029.801, 0.5504121
1031.730, 0.5324549
1033.658, 0.5118775
1035.587, 0.4909667
1037.515, 0.4702974
1039.444, 0.4505454
1041.372, 0.4328425
1043.301, 0.4179038
1045.229, 0.4046841
1047.157, 0.3926468
1049.086, 0.3821170
1051.014, 0.3729500
1052.943, 0.3645989
1054.871, 0.3560739
1056.800, 0.3471532
1058.728, 0.3382042
1060.657, 0.3291568
1062.585, 0.3196097
1064.514, 0.3097091
1066.442, 0.3000684
1068.371, 0.2913951
1070.299, 0.2840613
1072.228, 0.2782764
1074.156, 0.2741458
1076.084, 0.2706311
1078.013, 0.2670777
1079.941, 0.2630151
1081.870, 0.2587124
1083.798, 0.2542176
1085.727, 0.2486902
1087.655, 0.2427254
1089.584, 0.2367066
1091.512, 0.2304603
1093.441, 0.2241049
1095.369, 0.2179386
1097.298, 0.2117963
1099.226, 0.2054250
1101.155, 0.1994733
1103.083, 0.1939114
1105.011, 0.1889710
1106.940, 0.1849539
1108.868, 0.1820627
1110.797, 0.1802134
1112.725, 0.1786915
1114.654, 0.1764437
1116.582, 0.1728761
1118.511, 0.1678284
1120.439, 0.1620472
1122.368, 0.1566027
1124.296, 0.1517438
1126.225, 0.1475317
1128.153, 0.1432767
1130.082, 0.1388525
1132.010, 0.1349680
1133.938, 0.1315924
1135.867, 0.1282660
1137.795, 0.1246453
1139.724, 0.1211839
1141.652, 0.1175536
1143.581, 0.1140032
1145.509, 0.1110825
1147.438, 0.1079178
1149.366, 0.1044232
1151.295, 0.1010832
1153.223, 9.8037846E-02
1155.152, 9.6413821E-02
1157.080, 9.6600890E-02
1159.009, 9.9343739E-02
1160.937, 0.1032249
1162.865, 0.1051492
1164.794, 0.1039260
1166.722, 0.1003706
1168.651, 9.5887437E-02
1170.579, 9.1693893E-02
1172.508, 8.7848797E-02
1174.436, 8.4485702E-02
1176.365, 8.1309959E-02
1178.293, 7.8155592E-02
1180.222, 7.5245723E-02
1182.150, 7.2530411E-02
1184.079, 6.9750600E-02
1186.007, 6.6909149E-02
1187.936, 6.4019583E-02
1189.864, 6.1147399E-02
1191.792, 5.8048751E-02
1193.721, 5.4885119E-02
1195.649, 5.1946539E-02
1197.578, 4.8985019E-02
1199.506, 4.6070311E-02
1201.435, 4.3193690E-02
1203.363, 4.0299259E-02
1205.292, 3.7758280E-02
1207.220, 3.5272021E-02
1209.149, 3.2725651E-02
1211.077, 3.0206401E-02
1213.006, 2.7855581E-02
1214.934, 2.5895599E-02
1216.863, 2.4228960E-02
1218.791, 2.2705760E-02
1220.719, 2.1215640E-02
1222.648, 1.9929420E-02
1224.576, 1.8870080E-02
1226.505, 1.8081959E-02
1228.433, 1.7320091E-02
1230.362, 1.6592329E-02
1232.290, 1.6214950E-02
1234.219, 1.6048180E-02
1236.147, 1.5640849E-02
1238.076, 1.5305530E-02
1240.004, 1.5041820E-02
1241.933, 1.4605770E-02
1243.861, 1.4381720E-02
1245.790, 1.4063850E-02
1247.718, 1.3725160E-02
1249.646, 1.3413990E-02
1251.575, 1.3125120E-02
1253.503, 1.2877650E-02
1255.432, 1.2765350E-02
1257.360, 1.2860280E-02
1259.289, 1.2617850E-02
1261.217, 1.2495130E-02
1263.146, 1.2509960E-02
1265.074, 1.2187670E-02
1267.003, 1.1928320E-02
1268.931, 1.1881770E-02
1270.860, 1.1980200E-02
1272.788, 1.2313130E-02
1274.717, 1.2525950E-02
1276.645, 1.2881070E-02
1278.573, 1.3332610E-02
1280.502, 1.3604570E-02
1282.430, 1.3706710E-02
1284.359, 1.3609660E-02
1286.287, 1.3066130E-02
1288.216, 1.2291890E-02
1290.144, 1.1730770E-02
1292.073, 1.1238270E-02
1294.001, 1.0628730E-02
1295.930, 1.0068470E-02
1297.858, 1.0140760E-02
1299.787, 1.0007810E-02
1301.715, 9.6478136E-03
1303.644, 9.3718357E-03
1305.572, 8.9382380E-03
1307.500, 8.7142717E-03
1309.429, 8.6289719E-03
1311.357, 8.6527532E-03
1313.286, 8.5950578E-03
1315.214, 8.4265443E-03
1317.143, 8.0610923E-03
1319.071, 7.7334112E-03
1321.000, 7.5960229E-03
1322.928, 7.6513099E-03
1324.857, 7.6582381E-03
1326.785, 7.6019829E-03
1328.714, 7.4117882E-03
1330.642, 7.1011740E-03
1332.571, 7.1098120E-03
1334.499, 7.2034569E-03
1336.427, 7.1592159E-03
1338.356, 7.1376720E-03
1340.284, 7.1074958E-03
1342.213, 7.0518181E-03
1344.141, 7.0672692E-03
1346.070, 7.1229599E-03
1347.998, 6.8540480E-03
1349.927, 7.0020342E-03
1351.855, 7.0838439E-03
1353.784, 6.8444801E-03
1355.712, 7.0541352E-03
1357.641, 7.2093718E-03
1359.569, 7.0290258E-03
1361.498, 6.8651792E-03
1363.426, 6.8150340E-03
1365.354, 6.8820622E-03
1367.283, 6.8571349E-03
1369.211, 6.8613458E-03
1371.140, 6.9089271E-03
1373.068, 6.9572609E-03
1374.997, 7.3388480E-03
1376.925, 7.4324692E-03
1378.854, 7.1797739E-03
1380.782, 7.0542549E-03
1382.711, 6.7571639E-03
1384.639, 6.5928069E-03
1386.568, 6.6643739E-03
1388.496, 6.7839478E-03
1390.424, 6.9886190E-03
1392.353, 7.1168230E-03
1394.281, 7.2762840E-03
1396.210, 7.6043010E-03
1398.138, 7.5774160E-03
1400.067, 7.6060002E-03
1401.995, 7.8951018E-03
1403.924, 7.8274589E-03
1405.852, 7.8670867E-03
1407.781, 8.1192330E-03
1409.709, 8.2774861E-03
1411.638, 8.5479124E-03
1413.566, 8.5707037E-03
1415.495, 8.3544347E-03
1417.423, 8.0157630E-03
1419.351, 8.1000468E-03
1421.280, 8.2384665E-03
1423.208, 8.5068084E-03
1425.137, 8.8374568E-03
1427.065, 8.8365134E-03
1428.994, 8.6679906E-03
1430.922, 8.8303862E-03
1432.851, 9.2317453E-03
1434.779, 9.3698772E-03
1436.708, 9.5448652E-03
1438.636, 9.8607987E-03
1440.565, 9.7592492E-03
1442.493, 9.5795142E-03
1444.422, 9.3441866E-03
1446.350, 9.2271399E-03
1448.278, 9.2964703E-03
1450.207, 9.4152661E-03
1452.135, 9.6635306E-03
1454.064, 9.6755326E-03
1455.992, 9.2525743E-03
1457.921, 9.2949271E-03
1459.849, 9.4299484E-03
1461.778, 9.3424702E-03
1463.706, 9.1411294E-03
1465.635, 8.9619523E-03
1467.563, 8.9818314E-03
1469.492, 8.6793005E-03
1471.420, 7.9718633E-03
1473.349, 7.4373209E-03
1475.277, 6.9667478E-03
1477.205, 7.0289490E-03
1479.134, 7.3259738E-03
1481.062, 7.1502100E-03
1482.991, 6.6830022E-03
1484.919, 6.4954492E-03
1486.848, 6.2527750E-03
1488.776, 6.0522668E-03
1490.705, 6.0991468E-03
1492.633, 6.1867721E-03
1494.562, 6.0820342E-03
1496.490, 5.7816892E-03
1498.419, 5.7731601E-03
1500.347, 6.1325761E-03
1502.276, 6.1704558E-03
1504.204, 5.9437552E-03
1506.132, 5.8228192E-03
1508.061, 6.0671661E-03
1509.989, 5.9048198E-03
1511.918, 5.6429389E-03
1513.846, 5.6566130E-03
1515.775, 5.5324771E-03
1517.703, 5.4835319E-03
1519.632, 5.4352111E-03
1521.560, 5.3849239E-03
1523.489, 5.7585300E-03
1525.417, 6.1068959E-03
1527.346, 6.4166971E-03
1529.274, 6.2788441E-03
1531.203, 6.0428102E-03
1533.131, 6.0286340E-03
1535.059, 5.9646219E-03
1536.988, 5.9139510E-03
1538.916, 5.6275348E-03
1540.845, 5.6912750E-03
1542.773, 5.9537468E-03
1544.702, 5.8326190E-03
1546.630, 5.8282199E-03
1548.559, 6.1278739E-03
1550.487, 6.1068879E-03
1552.416, 5.8297850E-03
1554.344, 5.8552609E-03
1556.273, 5.8897831E-03
1558.201, 5.6328201E-03
1560.130, 5.8106799E-03
1562.058, 6.2079309E-03
1563.986, 6.3999691E-03
1565.915, 6.5686749E-03
1567.843, 6.9806161E-03
1569.772, 7.0933630E-03
1571.700, 6.8939379E-03
1573.629, 6.6934340E-03
1575.557, 6.7881001E-03
1577.486, 7.0476290E-03
1579.414, 7.4022301E-03
1581.343, 7.8489492E-03
1583.271, 8.0184713E-03
1585.200, 7.7259890E-03
1587.128, 7.7872970E-03
1589.057, 8.0735022E-03
1590.985, 8.1936084E-03
1592.913, 8.2581779E-03
1594.842, 8.3170030E-03
1596.770, 8.4336810E-03
1598.699, 8.6698020E-03
1600.627, 9.1184424E-03
1602.556, 9.2144916E-03
1604.484, 9.1284560E-03
1606.413, 9.1691446E-03
1608.341, 9.3800193E-03
1610.270, 9.6074408E-03
1612.198, 9.7079333E-03
1614.127, 9.7716069E-03
1616.055, 9.7483154E-03
1617.984, 9.8836282E-03
1619.912, 9.7433887E-03
1621.840, 9.6584428E-03
1623.769, 9.8407278E-03
1625.697, 1.0054280E-02
1627.626, 1.0121180E-02
1629.554, 9.8359864E-03
1631.483, 9.6259927E-03
1633.411, 9.2887543E-03
1635.340, 9.0037100E-03
1637.268, 9.2592984E-03
1639.197, 9.4440496E-03
1641.125, 9.2040990E-03
1643.054, 9.2497151E-03
1644.982, 9.4690407E-03
1646.911, 9.2312954E-03
1648.839, 9.2719346E-03
1650.767, 8.9699496E-03
1652.696, 8.6545674E-03
1654.624, 9.0045640E-03
1656.553, 9.4022807E-03
1658.481, 9.2343101E-03
1660.410, 9.1941711E-03
1662.338, 9.5379734E-03
1664.267, 9.7376481E-03
1666.195, 9.6303131E-03
1668.124, 9.3473438E-03
1670.052, 9.2591653E-03
1671.981, 9.3402239E-03
1673.909, 9.2312843E-03
1675.838, 9.2186378E-03
1677.766, 9.4122998E-03
1679.694, 9.6090790E-03
1681.623, 9.5761884E-03
1683.551, 9.5003610E-03
1685.480, 9.3076508E-03
1687.408, 9.2634885E-03
1689.337, 9.3165915E-03
1691.265, 9.3682054E-03
1693.194, 9.6983556E-03
1695.122, 1.0114330E-02
1697.051, 1.0450390E-02
1698.979, 1.0695720E-02
1700.908, 1.1116940E-02
1702.836, 1.1526400E-02
1704.765, 1.1559310E-02
1706.693, 1.1300060E-02
1708.621, 1.1115060E-02
1710.550, 1.0820380E-02
1712.478, 1.0213280E-02
1714.407, 9.9284258E-03
1716.335, 9.7169923E-03
1718.264, 9.4384141E-03
1720.192, 9.2642596E-03
1722.121, 8.9330552E-03
1724.049, 8.7033538E-03
1725.978, 8.5251927E-03
1727.906, 8.1060948E-03
1729.835, 7.9572750E-03
1731.763, 7.7116648E-03
1733.692, 7.1274708E-03
1735.620, 6.5814089E-03
1737.548, 6.1509488E-03
1739.477, 5.6218081E-03
1741.405, 5.7143690E-03
1743.334, 5.6627891E-03
1745.262, 5.6328732E-03
1747.191, 5.6812079E-03
1749.119, 5.2001290E-03
1751.048, 4.7757952E-03
1752.976, 5.2013029E-03
1754.905, 5.4785502E-03
1756.833, 5.3279242E-03
1758.762, 5.5246940E-03
1760.690, 5.6485790E-03
1762.619, 5.7880399E-03
1764.547, 5.6881062E-03
1766.475, 5.6980369E-03
1768.404, 5.7216720E-03
1770.332, 5.7978849E-03
1772.261, 5.7904748E-03
1774.189, 6.0130539E-03
1776.118, 6.3790390E-03
1778.046, 6.2879571E-03
1779.975, 6.4223888E-03
1781.903, 6.6514411E-03
1783.832, 6.8978551E-03
1785.760, 6.7732111E-03
1787.689, 6.4869551E-03
1789.617, 6.6910610E-03
1791.546, 7.0638312E-03
1793.474, 6.4317891E-03
1795.402, 5.9180530E-03
1797.331, 5.7446500E-03
1799.259, 5.6725051E-03
1801.188, 5.8141560E-03
1803.116, 5.8227889E-03
1805.045, 5.9987120E-03
1806.973, 6.2112422E-03
1808.902, 6.1606020E-03
1810.830, 6.0054241E-03
1812.759, 5.5689048E-03
1814.687, 5.1781740E-03
1816.616, 5.2445708E-03
1818.544, 5.3522312E-03
1820.473, 6.0016620E-03
1822.401, 6.1135301E-03
1824.329, 5.5800402E-03
1826.258, 5.2259918E-03
1828.186, 5.4168990E-03
1830.115, 5.6840288E-03
1832.043, 5.4165921E-03
1833.972, 5.1856162E-03
1835.900, 5.3501548E-03
1837.829, 4.7747572E-03
1839.757, 4.3179439E-03
1841.686, 4.6225442E-03
1843.614, 4.7002560E-03
1845.543, 4.5828992E-03
1847.471, 4.6730209E-03
1849.400, 5.0177700E-03
1851.328, 5.3194682E-03
1853.256, 5.1717879E-03
1855.185, 5.2413270E-03
1857.113, 5.1658298E-03
1859.042, 4.7637532E-03
1860.970, 4.8454250E-03
1862.899, 5.3642099E-03
1864.827, 6.3028070E-03
1866.756, 5.8808750E-03
1868.684, 5.9709018E-03
1870.613, 6.6176248E-03
1872.541, 5.7965508E-03
1874.470, 5.4130340E-03
1876.398, 5.3808629E-03
1878.327, 4.8152981E-03
1880.255, 4.5043868E-03
1882.183, 4.1093328E-03
1884.112, 4.7591082E-03
1886.040, 5.1977420E-03
1887.969, 4.6522659E-03
1889.897, 4.5710602E-03
1891.826, 5.1367921E-03
1893.754, 5.8705588E-03
1895.683, 5.5442909E-03
1897.611, 3.9128382E-03
1899.540, 3.4493580E-03
1901.468, 3.3868121E-03
1903.397, 3.2192201E-03
1905.325, 2.7215080E-03
1907.254, 3.0790160E-03
1909.182, 3.0251129E-03
1911.110, 2.5959851E-03
1913.039, 2.6948149E-03
1914.967, 2.7063161E-03
1916.896, 1.9985309E-03
1918.824, 2.6783440E-03
1920.753, 2.2766620E-03
1922.681, 1.2091910E-03
1924.610, 1.1135300E-03
1926.538, 5.9041742E-04
1928.467, 1.2460180E-05
1930.395, 2.7220161E-04
1932.324, 4.7719109E-04
1934.252, -1.4829020E-04
1936.181, -8.8912027E-05
1938.109, 2.7907081E-04
1940.037, 6.8686821E-04
1941.966, 3.1341930E-04
1943.894, -2.8122761E-04
1945.823, -3.8140049E-04
1947.751, -1.1205859E-03
1949.680, -2.7448260E-03
1951.608, -3.1664621E-03
1953.537, -3.9698859E-03
1955.465, -5.3243120E-03
1957.394, -5.5257292E-03
1959.322, -4.9230470E-03
1961.251, -5.8644060E-03
1963.179, -5.9473682E-03
1965.108, -5.6699552E-03
1967.036, -6.7362781E-03
1968.964, -8.1376536E-03
1970.893, -7.7797510E-03
1972.821, -5.3223288E-03
1974.750, -6.7372471E-03
1976.678, -7.1405200E-03
1978.607, -6.5169870E-03
1980.535, -6.7877159E-03
1982.464, -6.0778670E-03
1984.392, -5.7141669E-03
1986.321, -5.1588402E-03
1988.249, -5.4204501E-03
1990.178, -3.9668279E-03
1992.106, -2.8782401E-03
1994.035, -3.0617020E-03
1995.963, -3.3889669E-03
1997.891, -3.9677718E-03
1999.820, -5.5683390E-03
2001.748, -5.8038090E-03
2003.677, -5.9797931E-03
2005.605, -5.7486468E-03
2007.534, -5.7163760E-03
2009.462, -6.7345770E-03
2011.391, -6.7299958E-03
2013.319, -6.5714689E-03
2015.248, -7.6485500E-03
2017.176, -8.8612884E-03
2019.105, -7.9440707E-03
2021.033, -8.4957164E-03
2022.962, -9.0632550E-03
2024.890, -8.8899964E-03
2026.818, -8.8733304E-03
2028.747, -9.4073992E-03
2030.675, -1.0542980E-02
2032.604, -9.9252248E-03
2034.532, -5.7842792E-03
2036.461, -4.2325561E-03
2038.389, -6.2275268E-03
2040.318, -8.7869214E-03
2042.246, -8.4759127E-03
2044.175, -6.1366442E-03
2046.103, -4.9359589E-03
2048.032, -4.9620708E-03
2049.960, -5.1765158E-03
2051.889, -4.7832401E-03
2053.817, -3.8671240E-03
2055.746, -3.0599320E-03
2057.674, -2.8287671E-03
2059.603, -2.8062479E-03
2061.531, -3.3256190E-03
2063.459, -2.9016009E-03
2065.388, -1.4732140E-03
2067.316, -1.0211430E-03
2069.245, -2.5536099E-03
2071.173, -3.0061579E-03
2073.102, -2.4726780E-03
2075.030, -2.0958681E-03
2076.959, -2.3901840E-03
2078.887, -2.1183190E-03
2080.816, -1.8055110E-04
2082.744, -1.2764001E-03
2084.673, -2.7661750E-03
2086.601, -2.5812341E-03
2088.530, -1.7241050E-03
2090.458, -1.6546940E-03
2092.386, -2.4690609E-03
2094.315, -1.9588689E-03
2096.243, -1.4170000E-03
2098.172, -1.6261720E-03
2100.100, -7.7887811E-04
2102.029, -8.2454679E-04
2103.957, -1.0102740E-03
2105.886, 5.5426313E-04
2107.814, 1.0798801E-03
2109.743, 6.3949788E-04
2111.671, -7.3813477E-05
2113.600, -1.0541480E-03
2115.528, -4.2783641E-04
2117.457, 4.4997531E-04
2119.385, 1.2615219E-03
2121.313, 2.0133399E-03
2123.242, 1.7168390E-03
2125.170, 7.2812487E-05
2127.099, -2.4287661E-03
2129.027, -3.4891800E-03
2130.956, -2.8313899E-03
2132.884, -2.7999920E-03
2134.813, -3.9597638E-03
2136.741, -4.0843058E-03
2138.670, -5.1433379E-03
2140.598, -5.4572909E-03
2142.527, -6.4517078E-03
2144.455, -6.8912380E-03
2146.384, -7.3931562E-03
2148.312, -7.8036571E-03
2150.240, -7.4761328E-03
2152.169, -1.0541430E-02
2154.097, -1.2707230E-02
2156.026, -1.1857930E-02
2157.954, -1.0475660E-02
2159.883, -8.2497019E-03
2161.811, -5.4981271E-03
2163.740, -4.6840110E-03
2165.668, -3.4575791E-03
2167.597, -4.0640528E-03
2169.525, -4.8535271E-03
2171.454, -5.3217760E-03
2173.382, -5.5260509E-03
2175.311, -4.1131792E-03
2177.239, -3.5624430E-03
2179.167, -2.5771530E-03
2181.096, -5.6186563E-04
2183.024, 6.8002392E-04
2184.953, -1.5004580E-03
2186.881, -2.9365430E-03
2188.810, -3.7197990E-03
2190.738, -2.8182620E-03
2192.667, -2.4013121E-03
2194.595, -3.6630640E-03
2196.524, -3.0933570E-03
2198.452, -2.0375911E-03
2200.381, 9.7943074E-04
2202.309, 1.2874251E-03
2204.238, -1.9861781E-03
2206.166, -2.0413850E-03
2208.094, -3.1184030E-03
2210.023, -3.8156600E-03
2211.951, -2.5483861E-03
2213.880, -1.4869249E-03
2215.808, -1.8212610E-03
2217.737, -9.9377998E-04
2219.665, 1.0521420E-03
2221.594, 1.2615490E-03
2223.522, 2.0594010E-03
2225.451, 1.7173380E-03
2227.379, -4.8247140E-04
2229.308, -1.3630490E-03
2231.236, -1.8604320E-03
2233.165, -1.4744620E-03
2235.093, -5.0464593E-04
2237.021, -9.8465057E-04
2238.950, -3.2487800E-04
2240.878, 7.7101361E-04
2242.807, 2.7025060E-03
2244.735, 4.0324298E-03
2246.664, 3.8386500E-03
2248.592, 2.2135901E-03
2250.521, 2.1400061E-03
2252.449, 4.4689020E-03
2254.378, 4.2307582E-03
2256.306, 4.6325549E-03
2258.235, 4.3135979E-03
2260.163, 1.8266520E-03
2262.092, 1.2428940E-03
2264.020, 1.7895621E-03
2265.948, 3.3928519E-03
2267.877, 4.4033439E-03
2269.805, 4.6888348E-03
2271.734, 4.4580130E-03
2273.662, 5.2973200E-03
2275.591, 4.6659368E-03
2277.519, 4.0103970E-03
2279.448, 4.3167970E-03
2281.376, 4.7289138E-03
2283.305, 5.4152482E-03
2285.233, 5.8818320E-03
2287.162, 5.7205441E-03
2289.090, 6.3105691E-03
2291.019, 6.3538528E-03
2292.947, 6.4880480E-03
2294.875, 5.8735302E-03
2296.804, 4.8557171E-03
2298.732, 5.7010711E-03
2300.661, 6.2550148E-03
2302.589, 5.8792289E-03
2304.518, 6.0235700E-03
2306.446, 5.9505762E-03
2308.375, 6.5220022E-03
2310.303, 6.7234831E-03
2312.232, 6.5029021E-03
2314.160, 5.8280979E-03
2316.089, 5.9746052E-03
2318.017, 7.1899341E-03
2319.946, 7.5102132E-03
2321.874, 7.1679591E-03
2323.802, 7.0709358E-03
2325.731, 5.5477149E-03
2327.659, 4.5721768E-03
2329.588, 4.9359631E-03
2331.516, 5.1261461E-03
2333.445, 5.0258720E-03
2335.373, 5.2145021E-03
2337.302, 4.9714521E-03
2339.230, 4.3791011E-03
2341.159, 4.2480971E-03
2343.087, 4.5114728E-03
2345.016, 5.5652782E-03
2346.944, 6.8493742E-03
2348.873, 7.0520770E-03
2350.801, 6.0479292E-03
2352.729, 4.9077580E-03
2354.658, 4.4438699E-03
2356.586, 3.7550309E-03
2358.515, 3.3438189E-03
2360.443, 3.8958890E-03
2362.372, 3.6142061E-03
2364.300, 3.1040059E-03
2366.229, 3.1210859E-03
2368.157, 2.9513580E-03
2370.086, 4.1847480E-03
2372.014, 4.9800500E-03
2373.942, 5.3314562E-03
2375.871, 6.4327209E-03
2377.799, 7.2982372E-03
2379.728, 7.6664062E-03
2381.656, 7.6850210E-03
2383.585, 7.5797760E-03
2385.513, 7.4292230E-03
2387.442, 7.2304839E-03
2389.370, 7.1926378E-03
2391.299, 6.7306920E-03
2393.227, 6.3822102E-03
2395.156, 6.7004920E-03
2397.084, 6.6287490E-03
2399.012, 7.0116548E-03
2400.941, 7.4787121E-03
2402.869, 7.2644609E-03
2404.798, 7.0247939E-03
2406.726, 7.9896040E-03
2408.655, 8.9271311E-03
2410.583, 8.0253463E-03
2412.512, 8.1351995E-03
2414.440, 8.2797389E-03
2416.369, 6.9816201E-03
2418.297, 7.3831589E-03
2420.226, 9.1351829E-03
2422.154, 8.7868813E-03
2424.083, 8.0228597E-03
2426.011, 7.5296010E-03
2427.939, 7.8162104E-03
2429.868, 8.9601995E-03
2431.796, 8.6414181E-03
2433.725, 8.1760138E-03
2435.653, 8.9891832E-03
2437.582, 8.5878763E-03
2439.510, 8.0121020E-03
2441.439, 7.9971626E-03
2443.367, 8.3359350E-03
2445.296, 8.2015749E-03
2447.224, 8.0590881E-03
2449.153, 8.1503997E-03
2451.081, 8.8630756E-03
2453.010, 9.2286738E-03
2454.938, 7.9857334E-03
2456.866, 8.0506504E-03
2458.795, 9.2031062E-03
2460.723, 9.7971810E-03
2462.652, 9.8005775E-03
2464.580, 8.8149738E-03
2466.509, 7.9654884E-03
2468.437, 7.8430157E-03
2470.366, 8.3526438E-03
2472.294, 9.0703014E-03
2474.223, 9.1564171E-03
2476.151, 8.9458693E-03
2478.080, 1.0105620E-02
2480.008, 1.0422760E-02
2481.937, 9.2230355E-03
2483.865, 8.1743617E-03
2485.793, 8.4229866E-03
2487.722, 9.3815513E-03
2489.650, 9.8080421E-03
2491.579, 8.8972216E-03
2493.507, 8.3454615E-03
2495.436, 8.9064082E-03
2497.364, 9.2302077E-03
2499.293, 9.2740012E-03
2501.221, 8.7689748E-03
2503.150, 8.2682474E-03
2505.078, 8.2259411E-03
2507.007, 7.9835532E-03
2508.935, 8.1692543E-03
2510.864, 9.5708733E-03
2512.792, 1.0303490E-02
2514.720, 1.0659850E-02
2516.649, 1.0404080E-02
2518.577, 9.5270379E-03
2520.506, 9.1946246E-03
2522.434, 9.1274092E-03
2524.363, 8.9004459E-03
2526.291, 9.8552546E-03
2528.220, 1.0628930E-02
2530.148, 1.0570000E-02
2532.077, 1.0540620E-02
2534.005, 1.0307250E-02
2535.934, 1.0149710E-02
2537.862, 1.1069290E-02
2539.791, 1.0967030E-02
2541.719, 9.3428409E-03
2543.647, 9.0035331E-03
2545.576, 9.2075737E-03
2547.504, 9.6448055E-03
2549.433, 1.0712920E-02
2551.361, 1.0920430E-02
2553.290, 9.9200308E-03
2555.218, 1.0735690E-02
2557.147, 1.0048980E-02
2559.075, 8.8983793E-03
2561.004, 9.8698642E-03
2562.932, 9.1890926E-03
2564.861, 9.0295253E-03
2566.789, 9.4837984E-03
2568.718, 1.0308500E-02
2570.646, 1.1580830E-02
2572.574, 1.0735710E-02
2574.503, 9.6102944E-03
2576.431, 1.0602270E-02
2578.360, 1.1475150E-02
2580.288, 1.1294060E-02
2582.217, 1.0956600E-02
2584.145, 9.8466668E-03
2586.074, 1.0389050E-02
2588.002, 1.0351880E-02
2589.931, 1.0412510E-02
2591.859, 1.0308190E-02
2593.788, 1.0792130E-02
2595.716, 1.1095950E-02
2597.645, 1.1186340E-02
2599.573, 1.1459130E-02
2601.501, 1.0840590E-02
2603.430, 1.1228590E-02
2605.358, 1.1485070E-02
2607.287, 1.1442610E-02
2609.215, 1.1546790E-02
2611.144, 1.2192850E-02
2613.072, 1.3220140E-02
2615.001, 1.2952840E-02
2616.929, 1.1858820E-02
2618.858, 1.2061010E-02
2620.786, 1.2647690E-02
2622.715, 1.2009030E-02
2624.643, 1.1744750E-02
2626.572, 1.2216160E-02
2628.500, 1.2680070E-02
2630.428, 1.2823170E-02
2632.357, 1.2116830E-02
2634.285, 1.3108130E-02
2636.214, 1.3488090E-02
2638.142, 1.3857020E-02
2640.071, 1.3887160E-02
2641.999, 1.3529380E-02
2643.928, 1.3139100E-02
2645.856, 1.2806970E-02
2647.785, 1.3388840E-02
2649.713, 1.2857780E-02
2651.642, 1.2532860E-02
2653.570, 1.2983990E-02
2655.499, 1.3345240E-02
2657.427, 1.3253210E-02
2659.355, 1.2432770E-02
2661.284, 1.2986340E-02
2663.212, 1.3388740E-02
2665.141, 1.1988780E-02
2667.069, 1.0925660E-02
2668.998, 1.1311060E-02
2670.926, 1.3303790E-02
2672.855, 1.3716870E-02
2674.783, 1.2628880E-02
2676.712, 1.2465410E-02
2678.640, 1.3533010E-02
2680.569, 1.3590200E-02
2682.497, 1.2494060E-02
2684.426, 1.2053870E-02
2686.354, 1.2463710E-02
2688.282, 1.3315460E-02
2690.211, 1.3430060E-02
2692.139, 1.3086660E-02
2694.068, 1.2770560E-02
2695.996, 1.2519640E-02
2697.925, 1.3195060E-02
2699.853, 1.3497020E-02
2701.782, 1.3108990E-02
2703.710, 1.3204970E-02
2705.639, 1.3253340E-02
2707.567, 1.3328770E-02
2709.496, 1.3537040E-02
2711.424, 1.3116330E-02
2713.353, 1.2471270E-02
2715.281, 1.2243730E-02
2717.209, 1.2964110E-02
2719.138, 1.3423570E-02
2721.066, 1.3795230E-02
2722.995, 1.4546770E-02
2724.923, 1.4073900E-02
2726.852, 1.3897500E-02
2728.780, 1.4384280E-02
2730.709, 1.4281920E-02
2732.637, 1.3681980E-02
2734.566, 1.3055770E-02
2736.494, 1.3494640E-02
2738.423, 1.3983180E-02
2740.351, 1.4256700E-02
2742.280, 1.4485830E-02
2744.208, 1.5394990E-02
2746.136, 1.4532650E-02
2748.065, 1.3647150E-02
2749.993, 1.4314600E-02
2751.922, 1.4056750E-02
2753.850, 1.3724050E-02
2755.779, 1.3762040E-02
2757.707, 1.3938290E-02
2759.636, 1.4813600E-02
2761.564, 1.5327120E-02
2763.493, 1.4636250E-02
2765.421, 1.4233640E-02
2767.350, 1.5246590E-02
2769.278, 1.5266670E-02
2771.207, 1.4721840E-02
2773.135, 1.5014760E-02
2775.063, 1.5532840E-02
2776.992, 1.5172010E-02
2778.920, 1.4910410E-02
2780.849, 1.5843639E-02
2782.777, 1.6660020E-02
2784.706, 1.6481839E-02
2786.634, 1.5757460E-02
2788.563, 1.5792660E-02
2790.491, 1.5759580E-02
2792.420, 1.5660711E-02
2794.348, 1.5956741E-02
2796.277, 1.6761919E-02
2798.205, 1.6878460E-02
2800.134, 1.6935069E-02
2802.062, 1.7320130E-02
2803.990, 1.6413931E-02
2805.919, 1.5795870E-02
2807.847, 1.6582230E-02
2809.776, 1.6866790E-02
2811.704, 1.5459720E-02
2813.633, 1.4901470E-02
2815.561, 1.5246320E-02
2817.490, 1.5946120E-02
2819.418, 1.6775500E-02
2821.347, 1.6731970E-02
2823.275, 1.6440840E-02
2825.204, 1.6531520E-02
2827.132, 1.7542660E-02
2829.061, 1.8053571E-02
2830.989, 1.7511999E-02
2832.917, 1.6842920E-02
2834.846, 1.6555309E-02
2836.774, 1.7274810E-02
2838.703, 1.8276511E-02
2840.631, 1.8921649E-02
2842.560, 1.8794181E-02
2844.488, 1.8884880E-02
2846.417, 1.8130301E-02
2848.345, 1.8008130E-02
2850.274, 1.8420201E-02
2852.202, 1.8812491E-02
2854.131, 1.9547610E-02
2856.059, 1.9182330E-02
2857.988, 1.9326299E-02
2859.916, 1.9411029E-02
2861.844, 2.0448839E-02
2863.773, 2.1213850E-02
2865.701, 2.0973381E-02
2867.630, 2.0772120E-02
2869.558, 2.0449471E-02
2871.487, 1.9695470E-02
2873.415, 2.0058401E-02
2875.344, 1.9391330E-02
2877.272, 1.8628471E-02
2879.201, 1.9473409E-02
2881.129, 2.0520501E-02
2883.058, 2.0507030E-02
2884.986, 1.9372379E-02
2886.915, 1.8801320E-02
2888.843, 1.8555069E-02
2890.771, 1.9731481E-02
2892.700, 2.0890580E-02
2894.628, 2.1618079E-02
2896.557, 2.1502670E-02
2898.485, 2.2174239E-02
2900.414, 2.2890249E-02
2902.342, 2.3433249E-02
2904.271, 2.3441941E-02
2906.199, 2.3209861E-02
2908.128, 2.3190830E-02
2910.056, 2.3915680E-02
2911.985, 2.3852430E-02
2913.913, 2.3675980E-02
2915.842, 2.4741409E-02
2917.770, 2.4521060E-02
2919.698, 2.2717640E-02
2921.627, 2.1458970E-02
2923.555, 2.2818791E-02
2925.484, 2.5593741E-02
2927.412, 2.5760449E-02
2929.341, 2.4277261E-02
2931.269, 2.4499441E-02
2933.198, 2.3850150E-02
2935.126, 2.2672581E-02
2937.055, 2.2903681E-02
2938.983, 2.4106700E-02
2940.912, 2.3295190E-02
2942.840, 2.2693820E-02
2944.769, 2.3044109E-02
2946.697, 2.3408281E-02
2948.625, 2.2743709E-02
2950.554, 2.2918500E-02
2952.482, 2.4295909E-02
2954.411, 2.5741670E-02
2956.339, 2.4566179E-02
2958.268, 2.3194620E-02
2960.196, 2.3148820E-02
2962.125, 2.3700640E-02
2964.053, 2.4641089E-02
2965.982, 2.5667800E-02
2967.910, 2.4436010E-02
2969.839, 2.2511980E-02
2971.767, 2.2590021E-02
2973.696, 2.3036711E-02
2975.624, 2.2309991E-02
2977.552, 2.0900350E-02
2979.481, 2.0995110E-02
2981.409, 2.1938359E-02
2983.338, 2.2732209E-02
2985.266, 2.3106400E-02
2987.195, 2.2058100E-02
2989.123, 2.0571960E-02
2991.052, 1.9810410E-02
2992.980, 2.0869911E-02
2994.909, 2.1822620E-02
2996.837, 2.2292180E-02
2998.766, 2.0643320E-02
3000.694, 1.9838801E-02
3002.623, 2.1736210E-02
3004.551, 2.1886270E-02
3006.479, 2.0001089E-02
3008.408, 2.0968350E-02
3010.336, 2.2533439E-02
3012.265, 2.2490200E-02
3014.193, 2.2533011E-02
3016.122, 2.3229551E-02
3018.050, 2.3109550E-02
3019.979, 2.2569019E-02
3021.907, 2.3269070E-02
3023.836, 2.2870000E-02
3025.764, 2.2892609E-02
3027.693, 2.3675870E-02
3029.621, 2.4826270E-02
3031.550, 2.7531460E-02
3033.478, 2.6968719E-02
3035.406, 2.5233669E-02
3037.335, 2.5854429E-02
3039.263, 2.6920211E-02
3041.192, 2.6935590E-02
3043.120, 2.5933780E-02
3045.049, 2.5695050E-02
3046.977, 2.7096311E-02
3048.906, 2.6926169E-02
3050.834, 2.5802530E-02
3052.763, 2.6452400E-02
3054.691, 2.6356731E-02
3056.620, 2.5872890E-02
3058.548, 2.7631750E-02
3060.477, 2.8836470E-02
3062.405, 2.8510230E-02
3064.333, 2.8195230E-02
3066.262, 2.9040620E-02
3068.190, 2.8821370E-02
3070.119, 2.8139871E-02
3072.047, 2.7783951E-02
3073.976, 2.7871450E-02
3075.904, 2.7677570E-02
3077.833, 2.6969180E-02
3079.761, 2.7749119E-02
3081.690, 2.9126540E-02
3083.618, 2.9548289E-02
3085.547, 2.8956929E-02
3087.475, 2.7881021E-02
3089.404, 2.8263550E-02
3091.332, 2.8385259E-02
3093.260, 2.7277330E-02
3095.189, 2.8179349E-02
3097.117, 2.9049611E-02
3099.046, 3.0042769E-02
3100.974, 3.1310529E-02
3102.903, 3.1350911E-02
3104.831, 3.1551600E-02
3106.760, 3.2585211E-02
3108.688, 3.2335948E-02
3110.617, 3.1503439E-02
3112.545, 3.0679330E-02
3114.474, 3.1331670E-02
3116.402, 3.2087840E-02
3118.331, 3.1466730E-02
3120.259, 3.1334829E-02
3122.188, 3.1611569E-02
3124.116, 3.1263649E-02
3126.044, 3.2561421E-02
3127.973, 3.3252329E-02
3129.901, 3.3371791E-02
3131.830, 3.2218039E-02
3133.758, 3.2891199E-02
3135.687, 3.4790549E-02
3137.615, 3.4513991E-02
3139.544, 3.5056561E-02
3141.472, 3.5423629E-02
3143.401, 3.4742340E-02
3145.329, 3.4490660E-02
3147.258, 3.4358371E-02
3149.186, 3.4098141E-02
3151.115, 3.4830090E-02
3153.043, 3.5343390E-02
3154.971, 3.3712860E-02
3156.900, 3.2695781E-02
3158.828, 3.4780089E-02
3160.757, 3.5459731E-02
3162.685, 3.5497710E-02
3164.614, 3.5654090E-02
3166.542, 3.5963129E-02
3168.471, 3.6463588E-02
3170.399, 3.7150308E-02
3172.328, 3.7029620E-02
3174.256, 3.7074819E-02
3176.185, 3.6316689E-02
3178.113, 3.4438781E-02
3180.042, 3.6100648E-02
3181.970, 3.7539698E-02
3183.898, 3.6519270E-02
3185.827, 3.6252800E-02
3187.755, 3.6796369E-02
3189.684, 3.7733439E-02
3191.612, 3.7931342E-02
3193.541, 3.8216479E-02
3195.469, 3.8158700E-02
3197.398, 3.6769841E-02
3199.326, 3.5091281E-02
3201.255, 3.5982531E-02
3203.183, 3.7934471E-02
3205.112, 3.8204201E-02
3207.040, 3.7220001E-02
3208.969, 3.6400009E-02
3210.897, 3.6089171E-02
3212.825, 3.6196500E-02
3214.754, 3.6992509E-02
3216.682, 3.7191361E-02
3218.611, 3.8881700E-02
3220.539, 4.0620189E-02
3222.468, 3.8907539E-02
3224.396, 3.7439100E-02
3226.325, 3.7509259E-02
3228.253, 3.8580529E-02
3230.182, 3.7225209E-02
3232.110, 3.5049051E-02
3234.039, 3.7508901E-02
3235.967, 3.8250670E-02
3237.896, 3.7282050E-02
3239.824, 3.7812740E-02
3241.752, 3.7294701E-02
3243.681, 3.8373329E-02
3245.609, 3.7370209E-02
3247.538, 3.5808910E-02
3249.466, 3.4866840E-02
3251.395, 3.5028551E-02
3253.323, 3.5083469E-02
3255.252, 3.5066120E-02
3257.180, 3.6501620E-02
3259.109, 3.6167789E-02
3261.037, 3.6417998E-02
3262.966, 3.7168439E-02
3264.894, 3.7641581E-02
3266.823, 3.8431760E-02
3268.751, 3.8977459E-02
3270.679, 3.9937980E-02
3272.608, 4.0170319E-02
3274.536, 3.9295819E-02
3276.465, 3.5870109E-02
3278.393, 3.3357691E-02
3280.322, 3.5171069E-02
3282.250, 3.7160151E-02
3284.179, 3.7399571E-02
3286.107, 3.6498241E-02
3288.036, 3.6487021E-02
3289.964, 3.5939090E-02
3291.893, 3.6091030E-02
3293.821, 3.7426360E-02
3295.750, 3.8730901E-02
3297.678, 3.6807351E-02
3299.606, 3.6024801E-02
3301.535, 3.6447849E-02
3303.463, 3.5185728E-02
3305.392, 3.3073280E-02
3307.320, 3.3530090E-02
3309.249, 3.5659701E-02
3311.177, 3.7804451E-02
3313.106, 3.7572689E-02
3315.034, 3.6941569E-02
3316.963, 3.7915409E-02
3318.891, 3.7991989E-02
3320.820, 3.5493180E-02
3322.748, 3.6179021E-02
3324.677, 3.6305182E-02
3326.605, 3.4947932E-02
3328.533, 3.6470242E-02
3330.462, 3.8761999E-02
3332.390, 3.8356829E-02
3334.319, 3.5841290E-02
3336.247, 3.6782529E-02
3338.176, 3.7333701E-02
3340.104, 3.4713820E-02
3342.033, 3.3905819E-02
3343.961, 3.4844238E-02
3345.890, 3.6103290E-02
3347.818, 3.5657141E-02
3349.747, 3.4234609E-02
3351.675, 3.3550471E-02
3353.604, 3.5927851E-02
3355.532, 3.8523529E-02
3357.460, 3.8059030E-02
3359.389, 3.6825329E-02
3361.317, 3.5325721E-02
3363.246, 3.4371208E-02
3365.174, 3.5491232E-02
3367.103, 3.6165219E-02
3369.031, 3.5352349E-02
3370.960, 3.4406010E-02
3372.888, 3.4721609E-02
3374.817, 3.7191361E-02
3376.745, 3.7227880E-02
3378.674, 3.6015261E-02
3380.602, 3.5802111E-02
3382.531, 3.5191491E-02
3384.459, 3.4664921E-02
3386.387, 3.4803580E-02
3388.316, 3.6778510E-02
3390.244, 3.8948461E-02
3392.173, 3.6914650E-02
3394.101, 3.4672149E-02
3396.030, 3.5380460E-02
3397.958, 3.7193269E-02
3399.887, 3.7645020E-02
3401.815, 3.5754450E-02
3403.744, 3.3973351E-02
3405.672, 3.5851412E-02
3407.601, 3.7067950E-02
3409.529, 3.5884019E-02
3411.458, 3.5181500E-02
3413.386, 3.5831571E-02
3415.314, 3.7350170E-02
3417.243, 3.9558150E-02
3419.171, 3.9823089E-02
3421.100, 3.7506789E-02
3423.028, 3.6531541E-02
3424.957, 3.8134601E-02
3426.885, 3.6446910E-02
3428.814, 3.5100609E-02
3430.742, 3.5649650E-02
3432.671, 3.4196321E-02
3434.599, 3.2624729E-02
3436.528, 3.4304421E-02
3438.456, 3.4390241E-02
3440.385, 3.3194419E-02
3442.313, 3.5577960E-02
3444.241, 3.6209371E-02
3446.170, 3.5942949E-02
3448.098, 3.6405481E-02
3450.027, 3.3557352E-02
3451.955, 3.3401720E-02
3453.884, 3.6104519E-02
3455.812, 3.5122141E-02
3457.741, 3.3986729E-02
3459.669, 3.3474721E-02
3461.598, 3.4026869E-02
3463.526, 3.5152730E-02
3465.455, 3.5838898E-02
3467.383, 3.6507271E-02
3469.312, 3.6422171E-02
3471.240, 3.4946010E-02
3473.168, 3.4280811E-02
3475.097, 3.5023492E-02
3477.025, 3.6851611E-02
3478.954, 3.5707839E-02
3480.882, 3.5806291E-02
3482.811, 3.7396058E-02
3484.739, 3.6934432E-02
3486.668, 3.6058988E-02
3488.596, 3.5663009E-02
3490.525, 3.5372172E-02
3492.453, 3.4631569E-02
3494.382, 3.7412539E-02
3496.310, 3.7282750E-02
3498.239, 3.5603762E-02
3500.167, 3.6204770E-02
3502.095, 3.6331318E-02
3504.024, 3.5157710E-02
3505.952, 3.5491291E-02
3507.881, 3.7842061E-02
3509.809, 3.8092729E-02
3511.738, 3.7379179E-02
3513.666, 3.7242699E-02
3515.595, 3.6288131E-02
3517.523, 3.4077760E-02
3519.452, 3.4261491E-02
3521.380, 3.5568532E-02
3523.309, 3.7458070E-02
3525.237, 3.6493398E-02
3527.166, 3.4794759E-02
3529.094, 3.5340689E-02
3531.022, 3.7015021E-02
3532.951, 3.8127270E-02
3534.879, 3.7879981E-02
3536.808, 3.8145471E-02
3538.736, 3.9354790E-02
3540.665, 3.7980098E-02
3542.593, 3.7495539E-02
3544.522, 3.7734751E-02
3546.450, 3.7726380E-02
3548.379, 3.9192580E-02
3550.307, 3.8182769E-02
3552.236, 3.6436621E-02
3554.164, 3.6807209E-02
3556.093, 3.6960401E-02
3558.021, 3.7179690E-02
3559.949, 3.7405752E-02
3561.878, 3.6460850E-02
3563.806, 3.8082249E-02
3565.735, 3.9165549E-02
3567.663, 4.1244060E-02
3569.592, 3.9546270E-02
3571.520, 3.7132628E-02
3573.449, 3.7586041E-02
3575.377, 3.9341439E-02
3577.306, 4.1339099E-02
3579.234, 4.2893559E-02
3581.163, 4.5202270E-02
3583.091, 4.5238841E-02
3585.020, 4.7340449E-02
3586.948, 5.0737608E-02
3588.876, 5.2710220E-02
3590.805, 5.6013308E-02
3592.733, 6.0865588E-02
3594.662, 6.3560940E-02
3596.590, 6.5053910E-02
3598.519, 6.6913769E-02
3600.447, 6.9579750E-02
3602.376, 7.0216633E-02
3604.304, 7.0012428E-02
3606.233, 7.2975188E-02
3608.161, 7.6554410E-02
3610.090, 7.8693971E-02
3612.018, 8.2154296E-02
3613.947, 8.8044502E-02
3615.875, 9.4058201E-02
3617.803, 0.1037833
3619.732, 0.1124937
3621.660, 0.1090532
3623.589, 9.8044463E-02
3625.517, 8.9176901E-02
3627.446, 8.3341092E-02
3629.374, 8.1668340E-02
3631.303, 7.9138666E-02
3633.231, 7.3190093E-02
3635.160, 6.9108069E-02
3637.088, 6.9967717E-02
3639.017, 7.2224751E-02
3640.945, 7.0342578E-02
3642.874, 6.9538221E-02
3644.802, 7.0251957E-02
3646.730, 6.7321502E-02
3648.659, 6.8199210E-02
3650.587, 7.2215237E-02
3652.516, 7.2779000E-02
3654.444, 7.0920542E-02
3656.373, 6.7875497E-02
3658.301, 6.4634956E-02
3660.230, 6.4654887E-02
3662.158, 6.4165570E-02
3664.087, 6.4150572E-02
3666.015, 6.5190323E-02
3667.944, 6.3337043E-02
3669.872, 6.2412292E-02
3671.801, 6.3055538E-02
3673.729, 6.0190842E-02
3675.657, 6.0099632E-02
3677.586, 6.3362554E-02
3679.514, 6.2391430E-02
3681.443, 6.4999737E-02
3683.371, 7.3689513E-02
3685.300, 8.0242403E-02
3687.228, 8.4088333E-02
3689.157, 8.8008620E-02
3691.085, 9.2899173E-02
3693.014, 9.9073499E-02
3694.942, 0.1020595
3696.871, 9.9975511E-02
3698.799, 9.6020751E-02
3700.728, 8.9730628E-02
3702.656, 7.8432158E-02
3704.584, 7.1144924E-02
3706.513, 6.2339779E-02
3708.441, 5.0703119E-02
3710.370, 4.3383520E-02
3712.298, 4.0956549E-02
3714.227, 3.6855001E-02
3716.155, 3.0532209E-02
3718.084, 2.6813310E-02
3720.012, 2.4480870E-02
3721.941, 2.3398010E-02
3723.869, 2.1703120E-02
3725.798, 1.9608229E-02
3727.726, 1.9790420E-02
3729.655, 2.1715671E-02
3731.583, 2.2234490E-02
3733.511, 2.4405809E-02
3735.440, 2.6763059E-02
3737.368, 2.6806841E-02
3739.297, 2.2292260E-02
3741.225, 2.0296579E-02
3743.154, 1.9697700E-02
3745.082, 1.9766500E-02
3747.011, 2.1850331E-02
3748.939, 2.2859480E-02
3750.868, 2.3612009E-02
3752.796, 2.2031389E-02
3754.725, 1.9272210E-02
3756.653, 2.1308430E-02
3758.582, 2.4363890E-02
3760.510, 2.3270240E-02
3762.438, 2.0651150E-02
3764.367, 2.1283951E-02
3766.295, 2.2397170E-02
3768.224, 2.3376741E-02
3770.152, 2.3309510E-02
3772.081, 2.1837929E-02
3774.009, 2.2528620E-02
3775.938, 2.4117811E-02
3777.866, 2.0774361E-02
3779.795, 2.0140130E-02
3781.723, 2.5113961E-02
3783.652, 2.6547911E-02
3785.580, 2.4176979E-02
3787.509, 2.3795430E-02
3789.437, 2.2006869E-02
3791.365, 1.7238120E-02
3793.294, 1.8897070E-02
3795.222, 2.1104530E-02
3797.151, 1.9162180E-02
3799.079, 2.0407921E-02
3801.008, 2.1273971E-02
3802.936, 2.3400489E-02
3804.865, 2.5557229E-02
3806.793, 2.3015270E-02
3808.722, 2.1269340E-02
3810.650, 2.2565961E-02
3812.579, 2.2624251E-02
3814.507, 2.0024700E-02
3816.436, 1.8530190E-02
3818.364, 2.0821661E-02
3820.292, 2.5398880E-02
3822.221, 2.4441190E-02
3824.149, 2.2010069E-02
3826.078, 2.0869110E-02
3828.006, 2.3233941E-02
3829.935, 2.5437601E-02
3831.863, 2.4207041E-02
3833.792, 2.6847690E-02
3835.720, 2.8116841E-02
3837.649, 2.8772529E-02
3839.577, 2.7416561E-02
3841.506, 2.4007089E-02
3843.434, 2.0138269E-02
3845.363, 1.7159721E-02
3847.291, 2.0419130E-02
3849.219, 2.4734210E-02
3851.148, 2.3352791E-02
3853.076, 2.0676401E-02
3855.005, 2.2540931E-02
3856.933, 2.2890700E-02
3858.862, 2.0493090E-02
3860.790, 2.0708339E-02
3862.719, 2.5814559E-02
3864.647, 2.8749840E-02
3866.576, 2.7015559E-02
3868.504, 2.4664169E-02
3870.433, 2.1383259E-02
3872.361, 2.2551769E-02
3874.290, 2.5122929E-02
3876.218, 2.6579989E-02
3878.146, 2.8289050E-02
3880.075, 2.7456529E-02
3882.003, 2.6537340E-02
3883.932, 2.3786761E-02
3885.860, 2.2160821E-02
3887.789, 2.4562299E-02
3889.717, 2.7967850E-02
3891.646, 2.8462660E-02
3893.574, 2.7592311E-02
3895.503, 2.6352320E-02
3897.431, 2.6773470E-02
3899.360, 2.3642780E-02
3901.288, 2.1471251E-02
3903.217, 2.5262980E-02
3905.145, 2.7501630E-02
3907.073, 2.4702789E-02
3909.002, 2.4307361E-02
3910.930, 2.7983760E-02
3912.859, 2.9556710E-02
3914.787, 2.7520491E-02
3916.716, 2.5207439E-02
3918.644, 2.1854250E-02
3920.573, 2.1037679E-02
3922.501, 2.2698760E-02
3924.430, 2.4857780E-02
3926.358, 2.4736270E-02
3928.287, 2.3799300E-02
3930.215, 2.3448659E-02
3932.144, 2.2957509E-02
3934.072, 2.4759080E-02
3936.000, 2.4046000E-02
3937.929, 2.1939861E-02
3939.857, 2.5276480E-02
3941.786, 2.6576810E-02
3943.714, 2.7508451E-02
3945.643, 3.2000609E-02
3947.571, 3.0846581E-02
3949.500, 2.7054850E-02
3951.428, 2.4089530E-02
3953.357, 2.3320090E-02
3955.285, 2.4703920E-02
3957.214, 2.5724931E-02
3959.142, 2.3408599E-02
3961.071, 2.2430960E-02
3962.999, 2.5966620E-02
3964.927, 2.7257429E-02
3966.856, 2.6634770E-02
3968.784, 2.7480749E-02
3970.713, 2.7335960E-02
3972.641, 2.4875879E-02
3974.570, 2.4666190E-02
3976.498, 2.5772460E-02
3978.427, 2.3442579E-02
3980.355, 2.5231021E-02
3982.284, 2.7853779E-02
3984.212, 2.5405500E-02
3986.141, 2.6041420E-02
3988.069, 2.7209250E-02
3989.998, 2.5505319E-02
3991.926, 2.4988860E-02
3993.854, 2.4463460E-02
3995.783, 2.6509820E-02
3997.711, 2.9979330E-02
3999.640, 2.9993789E-02
##END=



