##NAMES=Crocoite
##RRUFFID=R040053
##IDEAL CHEMISTRY=Pb^2+^Cr^6+^O_4_
##LOCALITY=Dundas, Tasmania
##OWNER=RRUFF
##SOURCE=Bob Downs
##DESCRIPTION=Reddish-orange prismatic crystal
##STATUS=The identification of this mineral has been confirmed by X-ray diffraction and chemical analysis
##URL=rruff.info/R040053
##MEASURED CHEMISTRY=(Pb_.995_Mn_.005_)CrO_4_
3.991926e+002, 0.000000e+000
4.011211e+002, 1.426413e-001
4.030496e+002, 1.432269e-001
4.049780e+002, 1.468636e-001
4.069065e+002, 1.493260e-001
4.088350e+002, 1.524740e-001
4.107634e+002, 1.559186e-001
4.126919e+002, 1.570327e-001
4.146204e+002, 1.597984e-001
4.165488e+002, 1.658693e-001
4.184773e+002, 1.725940e-001
4.204058e+002, 1.767898e-001
4.223342e+002, 1.803989e-001
4.242627e+002, 1.832473e-001
4.261912e+002, 1.751820e-001
4.281196e+002, 1.683531e-001
4.300481e+002, 1.687694e-001
4.319766e+002, 1.726434e-001
4.339050e+002, 1.775634e-001
4.358335e+002, 1.809110e-001
4.377620e+002, 1.819723e-001
4.396904e+002, 1.854016e-001
4.416189e+002, 1.868588e-001
4.435474e+002, 1.869173e-001
4.454758e+002, 1.875082e-001
4.474043e+002, 1.891299e-001
4.493328e+002, 1.904922e-001
4.512612e+002, 1.904454e-001
4.531897e+002, 1.910117e-001
4.551182e+002, 1.924723e-001
4.570466e+002, 1.949312e-001
4.589751e+002, 1.975041e-001
4.609036e+002, 1.989997e-001
4.628320e+002, 2.003760e-001
4.647605e+002, 2.011603e-001
4.666890e+002, 2.025330e-001
4.686174e+002, 2.024350e-001
4.705459e+002, 2.033790e-001
4.724744e+002, 2.062266e-001
4.744028e+002, 2.078175e-001
4.763313e+002, 2.089311e-001
4.782598e+002, 2.101281e-001
4.801882e+002, 2.111651e-001
4.821167e+002, 2.127216e-001
4.840452e+002, 2.144955e-001
4.859736e+002, 2.159275e-001
4.879021e+002, 2.169016e-001
4.898306e+002, 2.177452e-001
4.917590e+002, 2.188902e-001
4.936875e+002, 2.209340e-001
4.956160e+002, 2.226995e-001
4.975444e+002, 2.233239e-001
4.994729e+002, 2.251969e-001
5.014014e+002, 2.272523e-001
5.033298e+002, 2.282969e-001
5.052583e+002, 2.292023e-001
5.071868e+002, 2.302186e-001
5.091152e+002, 2.326068e-001
5.110437e+002, 2.339243e-001
5.129722e+002, 2.348758e-001
5.149006e+002, 2.358184e-001
5.168291e+002, 2.368686e-001
5.187576e+002, 2.381698e-001
5.206860e+002, 2.399969e-001
5.226145e+002, 2.413993e-001
5.245430e+002, 2.418503e-001
5.264714e+002, 2.419125e-001
5.283999e+002, 2.434094e-001
5.303284e+002, 2.452712e-001
5.322568e+002, 2.465160e-001
5.341853e+002, 2.471094e-001
5.361138e+002, 2.482744e-001
5.380422e+002, 2.495886e-001
5.399707e+002, 2.516550e-001
5.418992e+002, 2.536698e-001
5.438276e+002, 2.546326e-001
5.457561e+002, 2.560288e-001
5.476846e+002, 2.582381e-001
5.496130e+002, 2.605098e-001
5.515415e+002, 2.625307e-001
5.534700e+002, 2.635144e-001
5.553984e+002, 2.639005e-001
5.573269e+002, 2.654837e-001
5.592554e+002, 2.660679e-001
5.611838e+002, 2.663660e-001
5.631123e+002, 2.681538e-001
5.650408e+002, 2.697475e-001
5.669692e+002, 2.714401e-001
5.688977e+002, 2.731590e-001
5.708262e+002, 2.741622e-001
5.727546e+002, 2.749561e-001
5.746831e+002, 2.769231e-001
5.766116e+002, 2.790662e-001
5.785400e+002, 2.806601e-001
5.804685e+002, 2.820565e-001
5.823970e+002, 2.837207e-001
5.843254e+002, 2.850946e-001
5.862539e+002, 2.865767e-001
5.881824e+002, 2.885035e-001
5.901108e+002, 2.899490e-001
5.920393e+002, 2.912069e-001
5.939678e+002, 2.933438e-001
5.958962e+002, 2.950488e-001
5.978247e+002, 2.963701e-001
5.997532e+002, 2.983977e-001
6.016816e+002, 3.002433e-001
6.036101e+002, 3.023498e-001
6.055386e+002, 3.042816e-001
6.074670e+002, 3.060629e-001
6.093955e+002, 3.078642e-001
6.113240e+002, 3.088968e-001
6.132524e+002, 3.104178e-001
6.151809e+002, 3.122088e-001
6.171094e+002, 3.140446e-001
6.190378e+002, 3.164894e-001
6.209663e+002, 3.191284e-001
6.228948e+002, 3.216200e-001
6.248232e+002, 3.236691e-001
6.267517e+002, 3.251425e-001
6.286802e+002, 3.263400e-001
6.306086e+002, 3.276801e-001
6.325371e+002, 3.295637e-001
6.344656e+002, 3.319356e-001
6.363940e+002, 3.338859e-001
6.383225e+002, 3.360134e-001
6.402510e+002, 3.383759e-001
6.421794e+002, 3.407680e-001
6.441079e+002, 3.428831e-001
6.460364e+002, 3.447737e-001
6.479648e+002, 3.471676e-001
6.498933e+002, 3.497856e-001
6.518218e+002, 3.518736e-001
6.537502e+002, 3.538387e-001
6.556787e+002, 3.561606e-001
6.576072e+002, 3.584242e-001
6.595356e+002, 3.608333e-001
6.614641e+002, 3.633054e-001
6.633926e+002, 3.660089e-001
6.653210e+002, 3.684490e-001
6.672495e+002, 3.706368e-001
6.691780e+002, 3.736382e-001
6.711064e+002, 3.762406e-001
6.730349e+002, 3.789547e-001
6.749634e+002, 3.817008e-001
6.768918e+002, 3.843609e-001
6.788203e+002, 3.872447e-001
6.807488e+002, 3.901912e-001
6.826772e+002, 3.930517e-001
6.846057e+002, 3.957068e-001
6.865342e+002, 3.986308e-001
6.884626e+002, 4.021675e-001
6.903911e+002, 4.049469e-001
6.923196e+002, 4.073888e-001
6.942480e+002, 4.111104e-001
6.961765e+002, 4.142876e-001
6.981050e+002, 4.175804e-001
7.000334e+002, 4.213198e-001
7.019619e+002, 4.240719e-001
7.038904e+002, 4.272405e-001
7.058188e+002, 4.308421e-001
7.077473e+002, 4.344535e-001
7.096758e+002, 4.376771e-001
7.116042e+002, 4.411922e-001
7.135327e+002, 4.451677e-001
7.154612e+002, 4.482125e-001
7.173896e+002, 4.518813e-001
7.193181e+002, 4.563513e-001
7.212466e+002, 4.598060e-001
7.231750e+002, 4.623059e-001
7.251035e+002, 4.649212e-001
7.270320e+002, 4.684465e-001
7.289604e+002, 4.721721e-001
7.308889e+002, 4.761212e-001
7.328174e+002, 4.790682e-001
7.347458e+002, 4.826447e-001
7.366743e+002, 4.862052e-001
7.386028e+002, 4.904475e-001
7.405313e+002, 4.946302e-001
7.424597e+002, 4.978200e-001
7.443882e+002, 5.011191e-001
7.463167e+002, 5.042947e-001
7.482451e+002, 5.077165e-001
7.501736e+002, 5.118595e-001
7.521021e+002, 5.160235e-001
7.540305e+002, 5.193381e-001
7.559590e+002, 5.224019e-001
7.578875e+002, 5.261634e-001
7.598159e+002, 5.296983e-001
7.617444e+002, 5.332186e-001
7.636729e+002, 5.364195e-001
7.656013e+002, 5.388585e-001
7.675298e+002, 5.413302e-001
7.694583e+002, 5.437883e-001
7.713867e+002, 5.454338e-001
7.733152e+002, 5.466906e-001
7.752437e+002, 5.472608e-001
7.771721e+002, 5.478247e-001
7.791006e+002, 5.489131e-001
7.810291e+002, 5.496786e-001
7.829575e+002, 5.496389e-001
7.848860e+002, 5.497041e-001
7.868145e+002, 5.490558e-001
7.887429e+002, 5.492060e-001
7.906714e+002, 5.504637e-001
7.925999e+002, 5.514278e-001
7.945283e+002, 5.525909e-001
7.964568e+002, 5.553357e-001
7.983853e+002, 5.588909e-001
8.003137e+002, 5.617619e-001
8.022422e+002, 5.626576e-001
8.041707e+002, 5.640987e-001
8.060991e+002, 5.654981e-001
8.080276e+002, 5.650887e-001
8.099561e+002, 5.620790e-001
8.118845e+002, 5.572218e-001
8.138130e+002, 5.496091e-001
8.157415e+002, 5.388954e-001
8.176699e+002, 5.261070e-001
8.195984e+002, 5.127309e-001
8.215269e+002, 4.996433e-001
8.234553e+002, 4.881221e-001
8.253838e+002, 4.776655e-001
8.273123e+002, 4.671956e-001
8.292407e+002, 4.565268e-001
8.311692e+002, 4.456371e-001
8.330977e+002, 4.366344e-001
8.350261e+002, 4.325294e-001
8.369546e+002, 4.353666e-001
8.388831e+002, 4.440336e-001
8.408115e+002, 4.527876e-001
8.427400e+002, 4.569406e-001
8.446685e+002, 4.549344e-001
8.465969e+002, 4.480002e-001
8.485254e+002, 4.380220e-001
8.504539e+002, 4.263101e-001
8.523823e+002, 4.143269e-001
8.543108e+002, 4.043100e-001
8.562393e+002, 3.955461e-001
8.581677e+002, 3.872124e-001
8.600962e+002, 3.783600e-001
8.620247e+002, 3.692310e-001
8.639531e+002, 3.596864e-001
8.658816e+002, 3.492795e-001
8.678101e+002, 3.379914e-001
8.697385e+002, 3.269201e-001
8.716670e+002, 3.161422e-001
8.735955e+002, 3.047053e-001
8.755239e+002, 2.934095e-001
8.774524e+002, 2.829922e-001
8.793809e+002, 2.732579e-001
8.813093e+002, 2.643377e-001
8.832378e+002, 2.556619e-001
8.851663e+002, 2.467472e-001
8.870947e+002, 2.380872e-001
8.890232e+002, 2.299388e-001
8.909517e+002, 2.216455e-001
8.928801e+002, 2.134275e-001
8.948085e+002, 2.049684e-001
8.967370e+002, 1.957333e-001
8.986655e+002, 1.862408e-001
9.005939e+002, 1.770919e-001
9.025224e+002, 1.685183e-001
9.044509e+002, 1.602682e-001
9.063793e+002, 1.526773e-001
9.083078e+002, 1.460346e-001
9.102363e+002, 1.401588e-001
9.121647e+002, 1.350802e-001
9.140932e+002, 1.301544e-001
9.160217e+002, 1.252238e-001
9.179501e+002, 1.198923e-001
9.198786e+002, 1.139211e-001
9.218071e+002, 1.072362e-001
9.237355e+002, 9.993291e-002
9.256640e+002, 9.172191e-002
9.275925e+002, 8.292742e-002
9.295209e+002, 7.386197e-002
9.314494e+002, 6.501756e-002
9.333779e+002, 5.692926e-002
9.353063e+002, 4.982414e-002
9.372348e+002, 4.390618e-002
9.391633e+002, 3.905304e-002
9.410917e+002, 3.498537e-002
9.430202e+002, 3.174031e-002
9.449487e+002, 2.892296e-002
9.468771e+002, 2.650995e-002
9.488056e+002, 2.467962e-002
9.507341e+002, 2.317326e-002
9.526625e+002, 2.195369e-002
9.545910e+002, 2.085694e-002
9.565195e+002, 1.977854e-002
9.584479e+002, 1.900183e-002
9.603764e+002, 1.846943e-002
9.623049e+002, 1.808635e-002
9.642333e+002, 1.760940e-002
9.661618e+002, 1.714505e-002
9.680903e+002, 1.667004e-002
9.700187e+002, 1.637082e-002
9.719472e+002, 1.644480e-002
9.738757e+002, 1.643499e-002
9.758041e+002, 1.625687e-002
9.777326e+002, 1.597579e-002
9.796611e+002, 1.598637e-002
9.815895e+002, 1.623723e-002
9.835180e+002, 1.638850e-002
9.854465e+002, 1.647555e-002
9.873749e+002, 1.668477e-002
9.893034e+002, 1.697602e-002
9.912319e+002, 1.707714e-002
9.931603e+002, 1.731399e-002
9.950888e+002, 1.772292e-002
9.970173e+002, 1.796379e-002
9.989457e+002, 1.820333e-002
1.000874e+003, 1.843553e-002
1.002803e+003, 1.873105e-002
1.004731e+003, 1.917181e-002
1.006660e+003, 1.962598e-002
1.008588e+003, 2.000823e-002
1.010517e+003, 2.033269e-002
1.012445e+003, 2.064345e-002
1.014373e+003, 2.110210e-002
1.016302e+003, 2.166053e-002
1.018230e+003, 2.203710e-002
1.020159e+003, 2.243004e-002
1.022087e+003, 2.305963e-002
1.024016e+003, 2.365040e-002
1.025944e+003, 2.395075e-002
1.027873e+003, 2.427505e-002
1.029801e+003, 2.495294e-002
1.031730e+003, 2.580596e-002
1.033658e+003, 2.629837e-002
1.035587e+003, 2.683188e-002
1.037515e+003, 2.755923e-002
1.039444e+003, 2.824109e-002
1.041372e+003, 2.883282e-002
1.043301e+003, 2.944585e-002
1.045229e+003, 3.000287e-002
1.047157e+003, 3.051950e-002
1.049086e+003, 3.117843e-002
1.051014e+003, 3.183125e-002
1.052943e+003, 3.233470e-002
1.054871e+003, 3.301546e-002
1.056800e+003, 3.360245e-002
1.058728e+003, 3.424722e-002
1.060657e+003, 3.512735e-002
1.062585e+003, 3.568508e-002
1.064514e+003, 3.612101e-002
1.066442e+003, 3.685087e-002
1.068371e+003, 3.770994e-002
1.070299e+003, 3.851209e-002
1.072228e+003, 3.922161e-002
1.074156e+003, 4.000799e-002
1.076084e+003, 4.076754e-002
1.078013e+003, 4.159218e-002
1.079941e+003, 4.260205e-002
1.081870e+003, 4.355110e-002
1.083798e+003, 4.451881e-002
1.085727e+003, 4.540541e-002
1.087655e+003, 4.634018e-002
1.089584e+003, 4.727043e-002
1.091512e+003, 4.829288e-002
1.093441e+003, 4.920274e-002
1.095369e+003, 5.009095e-002
1.097298e+003, 5.106321e-002
1.099226e+003, 5.176749e-002
1.101155e+003, 5.250195e-002
1.103083e+003, 5.327943e-002
1.105011e+003, 5.404915e-002
1.106940e+003, 5.478416e-002
1.108868e+003, 5.554068e-002
1.110797e+003, 5.620451e-002
1.112725e+003, 5.700381e-002
1.114654e+003, 5.778758e-002
1.116582e+003, 5.866094e-002
1.118511e+003, 5.971383e-002
1.120439e+003, 6.076122e-002
1.122368e+003, 6.136735e-002
1.124296e+003, 6.215616e-002
1.126225e+003, 6.328623e-002
1.128153e+003, 6.431960e-002
1.130082e+003, 6.532463e-002
1.132010e+003, 6.637847e-002
1.133938e+003, 6.716956e-002
1.135867e+003, 6.820341e-002
1.137795e+003, 6.933700e-002
1.139724e+003, 7.031162e-002
1.141652e+003, 7.119344e-002
1.143581e+003, 7.214973e-002
1.145509e+003, 7.325897e-002
1.147438e+003, 7.418717e-002
1.149366e+003, 7.497563e-002
1.151295e+003, 7.593900e-002
1.153223e+003, 7.698964e-002
1.155152e+003, 7.792788e-002
1.157080e+003, 7.880901e-002
1.159009e+003, 7.976391e-002
1.160937e+003, 8.073547e-002
1.162865e+003, 8.170297e-002
1.164794e+003, 8.230110e-002
1.166722e+003, 8.281010e-002
1.168651e+003, 8.356998e-002
1.170579e+003, 8.452026e-002
1.172508e+003, 8.535986e-002
1.174436e+003, 8.613256e-002
1.176365e+003, 8.678567e-002
1.178293e+003, 8.749312e-002
1.180222e+003, 8.824220e-002
1.182150e+003, 8.891809e-002
1.184079e+003, 8.966227e-002
1.186007e+003, 9.037309e-002
1.187936e+003, 9.093216e-002
1.189864e+003, 9.146616e-002
1.191792e+003, 9.225412e-002
1.193721e+003, 9.283002e-002
1.195649e+003, 9.327532e-002
1.197578e+003, 9.385127e-002
1.199506e+003, 9.443143e-002
1.201435e+003, 9.487993e-002
1.203363e+003, 9.534776e-002
1.205292e+003, 9.584349e-002
1.207220e+003, 9.627537e-002
1.209149e+003, 9.677634e-002
1.211077e+003, 9.728622e-002
1.213006e+003, 9.778566e-002
1.214934e+003, 9.834403e-002
1.216863e+003, 9.899133e-002
1.218791e+003, 9.963354e-002
1.220719e+003, 1.001869e-001
1.222648e+003, 1.007531e-001
1.224576e+003, 1.012259e-001
1.226505e+003, 1.016354e-001
1.228433e+003, 1.022168e-001
1.230362e+003, 1.028320e-001
1.232290e+003, 1.035177e-001
1.234219e+003, 1.040403e-001
1.236147e+003, 1.043867e-001
1.238076e+003, 1.049104e-001
1.240004e+003, 1.055594e-001
1.241933e+003, 1.060916e-001
1.243861e+003, 1.067222e-001
1.245790e+003, 1.073755e-001
1.247718e+003, 1.080263e-001
1.249646e+003, 1.084763e-001
1.251575e+003, 1.089340e-001
1.253503e+003, 1.096587e-001
1.255432e+003, 1.103238e-001
1.257360e+003, 1.109132e-001
1.259289e+003, 1.116797e-001
1.261217e+003, 1.122007e-001
1.263146e+003, 1.126886e-001
1.265074e+003, 1.132679e-001
1.267003e+003, 1.138660e-001
1.268931e+003, 1.145101e-001
1.270860e+003, 1.151660e-001
1.272788e+003, 1.157534e-001
1.274717e+003, 1.163023e-001
1.276645e+003, 1.168369e-001
1.278573e+003, 1.174738e-001
1.280502e+003, 1.180722e-001
1.282430e+003, 1.187656e-001
1.284359e+003, 1.194783e-001
1.286287e+003, 1.202080e-001
1.288216e+003, 1.210785e-001
1.290144e+003, 1.216305e-001
1.292073e+003, 1.220206e-001
1.294001e+003, 1.223939e-001
1.295930e+003, 1.229982e-001
1.297858e+003, 1.238276e-001
1.299787e+003, 1.246426e-001
1.301715e+003, 1.254723e-001
1.303644e+003, 1.259891e-001
1.305572e+003, 1.265213e-001
1.307500e+003, 1.271442e-001
1.309429e+003, 1.277262e-001
1.311357e+003, 1.282999e-001
1.313286e+003, 1.288993e-001
1.315214e+003, 1.295954e-001
1.317143e+003, 1.303883e-001
1.319071e+003, 1.311463e-001
1.321000e+003, 1.316738e-001
1.322928e+003, 1.321494e-001
1.324857e+003, 1.327186e-001
1.326785e+003, 1.332455e-001
1.328714e+003, 1.338238e-001
1.330642e+003, 1.344428e-001
1.332571e+003, 1.350261e-001
1.334499e+003, 1.356548e-001
1.336427e+003, 1.361762e-001
1.338356e+003, 1.366441e-001
1.340284e+003, 1.373202e-001
1.342213e+003, 1.378949e-001
1.344141e+003, 1.384565e-001
1.346070e+003, 1.390560e-001
1.347998e+003, 1.396145e-001
1.349927e+003, 1.401829e-001
1.351855e+003, 1.407131e-001
1.353784e+003, 1.412703e-001
1.355712e+003, 1.418623e-001
1.357641e+003, 1.423819e-001
1.359569e+003, 1.430843e-001
1.361498e+003, 1.437413e-001
1.363426e+003, 1.443398e-001
1.365354e+003, 1.449139e-001
1.367283e+003, 1.455605e-001
1.369211e+003, 1.463258e-001
1.371140e+003, 1.469469e-001
1.373068e+003, 1.474229e-001
1.374997e+003, 1.480810e-001
1.376925e+003, 1.486797e-001
1.378854e+003, 1.491816e-001
1.380782e+003, 1.496864e-001
1.382711e+003, 1.504294e-001
1.384639e+003, 1.511671e-001
1.386568e+003, 1.519009e-001
1.388496e+003, 1.525126e-001
1.390424e+003, 1.528973e-001
1.392353e+003, 1.536206e-001
1.394281e+003, 1.546101e-001
1.396210e+003, 1.554556e-001
1.398138e+003, 1.560460e-001
1.400067e+003, 1.568986e-001
1.401995e+003, 1.577519e-001
1.403924e+003, 1.585209e-001
1.405852e+003, 1.591754e-001
1.407781e+003, 1.597622e-001
1.409709e+003, 1.605161e-001
1.411638e+003, 1.611438e-001
1.413566e+003, 1.619278e-001
1.415495e+003, 1.627799e-001
1.417423e+003, 1.635131e-001
1.419351e+003, 1.643502e-001
1.421280e+003, 1.648832e-001
1.423208e+003, 1.648685e-001
1.425137e+003, 1.652807e-001
1.427065e+003, 1.662119e-001
1.428994e+003, 1.668602e-001
1.430922e+003, 1.672748e-001
1.432851e+003, 1.677004e-001
1.434779e+003, 1.683167e-001
1.436708e+003, 1.691558e-001
1.438636e+003, 1.696138e-001
1.440565e+003, 1.698911e-001
1.442493e+003, 1.702657e-001
1.444422e+003, 1.707074e-001
1.446350e+003, 1.711086e-001
1.448278e+003, 1.712811e-001
1.450207e+003, 1.715018e-001
1.452135e+003, 1.719152e-001
1.454064e+003, 1.721478e-001
1.455992e+003, 1.724808e-001
1.457921e+003, 1.730494e-001
1.459849e+003, 1.730315e-001
1.461778e+003, 1.730300e-001
1.463706e+003, 1.729768e-001
1.465635e+003, 1.730762e-001
1.467563e+003, 1.729225e-001
1.469492e+003, 1.729651e-001
1.471420e+003, 1.729209e-001
1.473349e+003, 1.729101e-001
1.475277e+003, 1.731720e-001
1.477205e+003, 1.738595e-001
1.479134e+003, 1.740656e-001
1.481062e+003, 1.744633e-001
1.482991e+003, 1.751013e-001
1.484919e+003, 1.754635e-001
1.486848e+003, 1.757726e-001
1.488776e+003, 1.763318e-001
1.490705e+003, 1.770421e-001
1.492633e+003, 1.772563e-001
1.494562e+003, 1.776802e-001
1.496490e+003, 1.785172e-001
1.498419e+003, 1.791470e-001
1.500347e+003, 1.797615e-001
1.502276e+003, 1.802550e-001
1.504204e+003, 1.808504e-001
1.506132e+003, 1.817040e-001
1.508061e+003, 1.824203e-001
1.509989e+003, 1.827641e-001
1.511918e+003, 1.831388e-001
1.513846e+003, 1.836865e-001
1.515775e+003, 1.844730e-001
1.517703e+003, 1.854441e-001
1.519632e+003, 1.857156e-001
1.521560e+003, 1.864859e-001
1.523489e+003, 1.870646e-001
1.525417e+003, 1.877020e-001
1.527346e+003, 1.883806e-001
1.529274e+003, 1.889725e-001
1.531203e+003, 1.894369e-001
1.533131e+003, 1.900773e-001
1.535059e+003, 1.907568e-001
1.536988e+003, 1.911693e-001
1.538916e+003, 1.919087e-001
1.540845e+003, 1.925178e-001
1.542773e+003, 1.927321e-001
1.544702e+003, 1.930367e-001
1.546630e+003, 1.934653e-001
1.548559e+003, 1.936501e-001
1.550487e+003, 1.940600e-001
1.552416e+003, 1.944675e-001
1.554344e+003, 1.949405e-001
1.556273e+003, 1.952962e-001
1.558201e+003, 1.958192e-001
1.560130e+003, 1.961245e-001
1.562058e+003, 1.959526e-001
1.563986e+003, 1.960445e-001
1.565915e+003, 1.963248e-001
1.567843e+003, 1.966624e-001
1.569772e+003, 1.971389e-001
1.571700e+003, 1.974752e-001
1.573629e+003, 1.979734e-001
1.575557e+003, 1.982364e-001
1.577486e+003, 1.987087e-001
1.579414e+003, 1.987205e-001
1.581343e+003, 1.987330e-001
1.583271e+003, 1.989751e-001
1.585200e+003, 1.995760e-001
1.587128e+003, 2.002634e-001
1.589057e+003, 2.006644e-001
1.590985e+003, 2.009742e-001
1.592913e+003, 2.012831e-001
1.594842e+003, 2.018757e-001
1.596770e+003, 2.025849e-001
1.598699e+003, 2.030118e-001
1.600627e+003, 2.033522e-001
1.602556e+003, 2.038395e-001
1.604484e+003, 2.041255e-001
1.606413e+003, 2.043666e-001
1.608341e+003, 2.048322e-001
1.610270e+003, 2.055054e-001
1.612198e+003, 2.059241e-001
1.614127e+003, 2.063797e-001
1.616055e+003, 2.066574e-001
1.617984e+003, 2.070877e-001
1.619912e+003, 2.073765e-001
1.621840e+003, 2.079822e-001
1.623769e+003, 2.084301e-001
1.625697e+003, 2.085223e-001
1.627626e+003, 2.089681e-001
1.629554e+003, 2.094100e-001
1.631483e+003, 2.098967e-001
1.633411e+003, 2.104792e-001
1.635340e+003, 2.110380e-001
1.637268e+003, 2.115014e-001
1.639197e+003, 2.119438e-001
1.641125e+003, 2.124445e-001
1.643054e+003, 2.127862e-001
1.644982e+003, 2.131562e-001
1.646911e+003, 2.136302e-001
1.648839e+003, 2.139759e-001
1.650767e+003, 2.141080e-001
1.652696e+003, 2.145784e-001
1.654624e+003, 2.153383e-001
1.656553e+003, 2.155059e-001
1.658481e+003, 2.155114e-001
1.660410e+003, 2.154856e-001
1.662338e+003, 2.156470e-001
1.664267e+003, 2.158678e-001
1.666195e+003, 2.162801e-001
1.668124e+003, 2.165384e-001
1.670052e+003, 2.170038e-001
1.671981e+003, 2.170262e-001
1.673909e+003, 2.169565e-001
1.675838e+003, 2.172957e-001
1.677766e+003, 2.171187e-001
1.679694e+003, 2.171140e-001
1.681623e+003, 2.173165e-001
1.683551e+003, 2.177950e-001
1.685480e+003, 2.182036e-001
1.687408e+003, 2.178151e-001
1.689337e+003, 2.183611e-001
1.691265e+003, 2.186291e-001
1.693194e+003, 2.184076e-001
1.695122e+003, 2.186061e-001
1.697051e+003, 2.194326e-001
1.698979e+003, 2.195725e-001
1.700908e+003, 2.203620e-001
1.702836e+003, 2.199224e-001
1.704765e+003, 2.202452e-001
1.706693e+003, 2.206170e-001
1.708621e+003, 2.204678e-001
1.710550e+003, 2.205411e-001
1.712478e+003, 2.209785e-001
1.714407e+003, 2.213318e-001
1.716335e+003, 2.214475e-001
1.718264e+003, 2.218090e-001
1.720192e+003, 2.216751e-001
1.722121e+003, 2.216400e-001
1.724049e+003, 2.218694e-001
1.725978e+003, 2.223397e-001
1.727906e+003, 2.226366e-001
1.729835e+003, 2.228128e-001
1.731763e+003, 2.229921e-001
1.733692e+003, 2.232818e-001
1.735620e+003, 2.236819e-001
1.737548e+003, 2.235925e-001
1.739477e+003, 2.235847e-001
1.741405e+003, 2.236451e-001
1.743334e+003, 2.236445e-001
1.745262e+003, 2.236945e-001
1.747191e+003, 2.234671e-001
1.749119e+003, 2.231020e-001
1.751048e+003, 2.230044e-001
1.752976e+003, 2.228357e-001
1.754905e+003, 2.225085e-001
1.756833e+003, 2.225845e-001
1.758762e+003, 2.226807e-001
1.760690e+003, 2.228455e-001
1.762619e+003, 2.230715e-001
1.764547e+003, 2.226353e-001
1.766475e+003, 2.225608e-001
1.768404e+003, 2.229165e-001
1.770332e+003, 2.233683e-001
1.772261e+003, 2.237399e-001
1.774189e+003, 2.235830e-001
1.776118e+003, 2.235991e-001
1.778046e+003, 2.242185e-001
1.779975e+003, 2.244833e-001
1.781903e+003, 2.243514e-001
1.783832e+003, 2.247392e-001
1.785760e+003, 2.252062e-001
1.787689e+003, 2.250671e-001
1.789617e+003, 2.250363e-001
1.791546e+003, 2.250542e-001
1.793474e+003, 2.254808e-001
1.795402e+003, 2.257144e-001
1.797331e+003, 2.263378e-001
1.799259e+003, 2.267131e-001
1.801188e+003, 2.268620e-001
1.803116e+003, 2.268913e-001
1.805045e+003, 2.271076e-001
1.806973e+003, 2.275076e-001
1.808902e+003, 2.277635e-001
1.810830e+003, 2.278405e-001
1.812759e+003, 2.277446e-001
1.814687e+003, 2.281301e-001
1.816616e+003, 2.288432e-001
1.818544e+003, 2.295294e-001
1.820473e+003, 2.301360e-001
1.822401e+003, 2.303317e-001
1.824329e+003, 2.306612e-001
1.826258e+003, 2.308670e-001
1.828186e+003, 2.306879e-001
1.830115e+003, 2.310582e-001
1.832043e+003, 2.315874e-001
1.833972e+003, 2.321296e-001
1.835900e+003, 2.322428e-001
1.837829e+003, 2.330029e-001
1.839757e+003, 2.333311e-001
1.841686e+003, 2.328362e-001
1.843614e+003, 2.331781e-001
1.845543e+003, 2.340968e-001
1.847471e+003, 2.340273e-001
1.849400e+003, 2.346171e-001
1.851328e+003, 2.352107e-001
1.853256e+003, 2.352376e-001
1.855185e+003, 2.356347e-001
1.857113e+003, 2.362799e-001
1.859042e+003, 2.362846e-001
1.860970e+003, 2.363502e-001
1.862899e+003, 2.370163e-001
1.864827e+003, 2.377019e-001
1.866756e+003, 2.378485e-001
1.868684e+003, 2.384381e-001
1.870613e+003, 2.388987e-001
1.872541e+003, 2.385951e-001
1.874470e+003, 2.390151e-001
1.876398e+003, 2.402720e-001
1.878327e+003, 2.405192e-001
1.880255e+003, 2.407704e-001
1.882183e+003, 2.411089e-001
1.884112e+003, 2.413605e-001
1.886040e+003, 2.422399e-001
1.887969e+003, 2.428183e-001
1.889897e+003, 2.430102e-001
1.891826e+003, 2.427994e-001
1.893754e+003, 2.426480e-001
1.895683e+003, 2.428733e-001
1.897611e+003, 2.437726e-001
1.899540e+003, 2.443560e-001
1.901468e+003, 2.451983e-001
1.903397e+003, 2.455880e-001
1.905325e+003, 2.453942e-001
1.907254e+003, 2.454773e-001
1.909182e+003, 2.457048e-001
1.911110e+003, 2.461066e-001
1.913039e+003, 2.457114e-001
1.914967e+003, 2.465931e-001
1.916896e+003, 2.479755e-001
1.918824e+003, 2.488845e-001
1.920753e+003, 2.496088e-001
1.922681e+003, 2.504119e-001
1.924610e+003, 2.507209e-001
1.926538e+003, 2.500012e-001
1.928467e+003, 2.489012e-001
1.930395e+003, 2.479354e-001
1.932324e+003, 2.487430e-001
1.934252e+003, 2.504313e-001
1.936181e+003, 2.506464e-001
1.938109e+003, 2.515116e-001
1.940037e+003, 2.529915e-001
1.941966e+003, 2.525926e-001
1.943894e+003, 2.524851e-001
1.945823e+003, 2.522351e-001
1.947751e+003, 2.521633e-001
1.949680e+003, 2.531314e-001
1.951608e+003, 2.534160e-001
1.953537e+003, 2.534280e-001
1.955465e+003, 2.541471e-001
1.957394e+003, 2.550067e-001
1.959322e+003, 2.553505e-001
1.961251e+003, 2.568095e-001
1.963179e+003, 2.570355e-001
1.965108e+003, 2.558656e-001
1.967036e+003, 2.561353e-001
1.968964e+003, 2.564917e-001
1.970893e+003, 2.564524e-001
1.972821e+003, 2.559814e-001
1.974750e+003, 2.569179e-001
1.976678e+003, 2.584420e-001
1.978607e+003, 2.603171e-001
1.980535e+003, 2.607260e-001
1.982464e+003, 2.594965e-001
1.984392e+003, 2.603702e-001
1.986321e+003, 2.615670e-001
1.988249e+003, 2.614971e-001
1.990178e+003, 2.611233e-001
1.992106e+003, 2.603123e-001
1.994035e+003, 2.599386e-001
1.995963e+003, 2.597713e-001
1.997891e+003, 2.594470e-001
1.999820e+003, 2.610558e-001
2.001748e+003, 2.615778e-001
2.003677e+003, 2.602045e-001
2.005605e+003, 2.599131e-001
2.007534e+003, 2.609661e-001
2.009462e+003, 2.610679e-001
2.011391e+003, 2.619515e-001
2.013319e+003, 2.625902e-001
2.015248e+003, 2.620537e-001
2.017176e+003, 2.614737e-001
2.019105e+003, 2.615476e-001
2.021033e+003, 2.619566e-001
2.022962e+003, 2.613646e-001
2.024890e+003, 2.609102e-001
2.026818e+003, 2.622087e-001
2.028747e+003, 2.636787e-001
2.030675e+003, 2.637068e-001
2.032604e+003, 2.648795e-001
2.034532e+003, 2.679264e-001
2.036461e+003, 2.686453e-001
2.038389e+003, 2.666886e-001
2.040318e+003, 2.660252e-001
2.042246e+003, 2.668031e-001
2.044175e+003, 2.673240e-001
2.046103e+003, 2.671492e-001
2.048032e+003, 2.688022e-001
2.049960e+003, 2.696757e-001
2.051889e+003, 2.684744e-001
2.053817e+003, 2.685899e-001
2.055746e+003, 2.704524e-001
2.057674e+003, 2.704645e-001
2.059603e+003, 2.680084e-001
2.061531e+003, 2.673982e-001
2.063459e+003, 2.680977e-001
2.065388e+003, 2.685010e-001
2.067316e+003, 2.701643e-001
2.069245e+003, 2.704788e-001
2.071173e+003, 2.704442e-001
2.073102e+003, 2.703985e-001
2.075030e+003, 2.702251e-001
2.076959e+003, 2.715489e-001
2.078887e+003, 2.719395e-001
2.080816e+003, 2.720574e-001
2.082744e+003, 2.714298e-001
2.084673e+003, 2.721897e-001
2.086601e+003, 2.736579e-001
2.088530e+003, 2.739075e-001
2.090458e+003, 2.731616e-001
2.092386e+003, 2.731332e-001
2.094315e+003, 2.732910e-001
2.096243e+003, 2.727877e-001
2.098172e+003, 2.720940e-001
2.100100e+003, 2.723034e-001
2.102029e+003, 2.739527e-001
2.103957e+003, 2.754628e-001
2.105886e+003, 2.754119e-001
2.107814e+003, 2.743165e-001
2.109743e+003, 2.750041e-001
2.111671e+003, 2.763455e-001
2.113600e+003, 2.773263e-001
2.115528e+003, 2.770253e-001
2.117457e+003, 2.763085e-001
2.119385e+003, 2.753457e-001
2.121313e+003, 2.762661e-001
2.123242e+003, 2.770267e-001
2.125170e+003, 2.759091e-001
2.127099e+003, 2.750787e-001
2.129027e+003, 2.749984e-001
2.130956e+003, 2.751754e-001
2.132884e+003, 2.771634e-001
2.134813e+003, 2.790281e-001
2.136741e+003, 2.787943e-001
2.138670e+003, 2.781928e-001
2.140598e+003, 2.771676e-001
2.142527e+003, 2.769042e-001
2.144455e+003, 2.764712e-001
2.146384e+003, 2.759131e-001
2.148312e+003, 2.771731e-001
2.150240e+003, 2.789625e-001
2.152169e+003, 2.774396e-001
2.154097e+003, 2.751667e-001
2.156026e+003, 2.732879e-001
2.157954e+003, 2.749381e-001
2.159883e+003, 2.811513e-001
2.161811e+003, 2.840669e-001
2.163740e+003, 2.794529e-001
2.165668e+003, 2.773514e-001
2.167597e+003, 2.790816e-001
2.169525e+003, 2.810436e-001
2.171454e+003, 2.807157e-001
2.173382e+003, 2.819673e-001
2.175311e+003, 2.831168e-001
2.177239e+003, 2.813189e-001
2.179167e+003, 2.816579e-001
2.181096e+003, 2.832673e-001
2.183024e+003, 2.832955e-001
2.184953e+003, 2.828130e-001
2.186881e+003, 2.827704e-001
2.188810e+003, 2.849219e-001
2.190738e+003, 2.857948e-001
2.192667e+003, 2.843794e-001
2.194595e+003, 2.844789e-001
2.196524e+003, 2.863425e-001
2.198452e+003, 2.865070e-001
2.200381e+003, 2.862487e-001
2.202309e+003, 2.874338e-001
2.204238e+003, 2.881758e-001
2.206166e+003, 2.885589e-001
2.208094e+003, 2.879753e-001
2.210023e+003, 2.881943e-001
2.211951e+003, 2.882515e-001
2.213880e+003, 2.877577e-001
2.215808e+003, 2.877522e-001
2.217737e+003, 2.884382e-001
2.219665e+003, 2.878544e-001
2.221594e+003, 2.875322e-001
2.223522e+003, 2.887271e-001
2.225451e+003, 2.894271e-001
2.227379e+003, 2.901165e-001
2.229308e+003, 2.898028e-001
2.231236e+003, 2.896629e-001
2.233165e+003, 2.893027e-001
2.235093e+003, 2.897541e-001
2.237021e+003, 2.914867e-001
2.238950e+003, 2.922450e-001
2.240878e+003, 2.912818e-001
2.242807e+003, 2.908394e-001
2.244735e+003, 2.899787e-001
2.246664e+003, 2.909315e-001
2.248592e+003, 2.926055e-001
2.250521e+003, 2.930988e-001
2.252449e+003, 2.933286e-001
2.254378e+003, 2.949850e-001
2.256306e+003, 2.959067e-001
2.258235e+003, 2.960019e-001
2.260163e+003, 2.955396e-001
2.262092e+003, 2.949532e-001
2.264020e+003, 2.943975e-001
2.265948e+003, 2.944278e-001
2.267877e+003, 2.957394e-001
2.269805e+003, 2.969964e-001
2.271734e+003, 2.967535e-001
2.273662e+003, 2.965822e-001
2.275591e+003, 2.969775e-001
2.277519e+003, 2.970652e-001
2.279448e+003, 2.974554e-001
2.281376e+003, 2.974485e-001
2.283305e+003, 2.977101e-001
2.285233e+003, 2.978984e-001
2.287162e+003, 2.986382e-001
2.289090e+003, 2.984259e-001
2.291019e+003, 2.980646e-001
2.292947e+003, 2.981775e-001
2.294875e+003, 2.983043e-001
2.296804e+003, 2.988221e-001
2.298732e+003, 2.991660e-001
2.300661e+003, 2.990696e-001
2.302589e+003, 2.988340e-001
2.304518e+003, 2.994633e-001
2.306446e+003, 2.998090e-001
2.308375e+003, 3.000349e-001
2.310303e+003, 3.016376e-001
2.312232e+003, 3.022960e-001
2.314160e+003, 3.017369e-001
2.316089e+003, 3.013186e-001
2.318017e+003, 3.015981e-001
2.319946e+003, 3.024760e-001
2.321874e+003, 3.034292e-001
2.323802e+003, 3.042465e-001
2.325731e+003, 3.041198e-001
2.327659e+003, 3.035690e-001
2.329588e+003, 3.030460e-001
2.331516e+003, 3.034816e-001
2.333445e+003, 3.040356e-001
2.335373e+003, 3.041751e-001
2.337302e+003, 3.048022e-001
2.339230e+003, 3.051032e-001
2.341159e+003, 3.049971e-001
2.343087e+003, 3.050820e-001
2.345016e+003, 3.047708e-001
2.346944e+003, 3.050857e-001
2.348873e+003, 3.048780e-001
2.350801e+003, 3.048159e-001
2.352729e+003, 3.057846e-001
2.354658e+003, 3.069299e-001
2.356586e+003, 3.075228e-001
2.358515e+003, 3.076669e-001
2.360443e+003, 3.076068e-001
2.362372e+003, 3.074628e-001
2.364300e+003, 3.079068e-001
2.366229e+003, 3.082553e-001
2.368157e+003, 3.085314e-001
2.370086e+003, 3.086012e-001
2.372014e+003, 3.084150e-001
2.373942e+003, 3.083201e-001
2.375871e+003, 3.081192e-001
2.377799e+003, 3.076237e-001
2.379728e+003, 3.074843e-001
2.381656e+003, 3.073905e-001
2.383585e+003, 3.074333e-001
2.385513e+003, 3.078650e-001
2.387442e+003, 3.085091e-001
2.389370e+003, 3.088522e-001
2.391299e+003, 3.088658e-001
2.393227e+003, 3.092128e-001
2.395156e+003, 3.095698e-001
2.397084e+003, 3.090794e-001
2.399012e+003, 3.091719e-001
2.400941e+003, 3.093775e-001
2.402869e+003, 3.097053e-001
2.404798e+003, 3.099581e-001
2.406726e+003, 3.100748e-001
2.408655e+003, 3.108726e-001
2.410583e+003, 3.109900e-001
2.412512e+003, 3.114844e-001
2.414440e+003, 3.118784e-001
2.416369e+003, 3.121292e-001
2.418297e+003, 3.126693e-001
2.420226e+003, 3.118450e-001
2.422154e+003, 3.118932e-001
2.424083e+003, 3.135909e-001
2.426011e+003, 3.139108e-001
2.427939e+003, 3.146184e-001
2.429868e+003, 3.146124e-001
2.431796e+003, 3.140782e-001
2.433725e+003, 3.143893e-001
2.435653e+003, 3.142703e-001
2.437582e+003, 3.147622e-001
2.439510e+003, 3.157313e-001
2.441439e+003, 3.147477e-001
2.443367e+003, 3.143843e-001
2.445296e+003, 3.152887e-001
2.447224e+003, 3.157825e-001
2.449153e+003, 3.156773e-001
2.451081e+003, 3.153483e-001
2.453010e+003, 3.160110e-001
2.454938e+003, 3.160938e-001
2.456866e+003, 3.159198e-001
2.458795e+003, 3.163248e-001
2.460723e+003, 3.162140e-001
2.462652e+003, 3.169301e-001
2.464580e+003, 3.181899e-001
2.466509e+003, 3.181296e-001
2.468437e+003, 3.176226e-001
2.470366e+003, 3.184109e-001
2.472294e+003, 3.179215e-001
2.474223e+003, 3.179238e-001
2.476151e+003, 3.188272e-001
2.478080e+003, 3.195746e-001
2.480008e+003, 3.193140e-001
2.481937e+003, 3.194947e-001
2.483865e+003, 3.195733e-001
2.485793e+003, 3.201753e-001
2.487722e+003, 3.209904e-001
2.489650e+003, 3.202915e-001
2.491579e+003, 3.199389e-001
2.493507e+003, 3.198316e-001
2.495436e+003, 3.209808e-001
2.497364e+003, 3.217235e-001
2.499293e+003, 3.206526e-001
2.501221e+003, 3.207290e-001
2.503150e+003, 3.215888e-001
2.505078e+003, 3.222936e-001
2.507007e+003, 3.228543e-001
2.508935e+003, 3.225574e-001
2.510864e+003, 3.220904e-001
2.512792e+003, 3.223627e-001
2.514720e+003, 3.229295e-001
2.516649e+003, 3.228013e-001
2.518577e+003, 3.237503e-001
2.520506e+003, 3.242411e-001
2.522434e+003, 3.240099e-001
2.524363e+003, 3.241442e-001
2.526291e+003, 3.255471e-001
2.528220e+003, 3.260970e-001
2.530148e+003, 3.257212e-001
2.532077e+003, 3.260154e-001
2.534005e+003, 3.264087e-001
2.535934e+003, 3.257089e-001
2.537862e+003, 3.254272e-001
2.539791e+003, 3.258092e-001
2.541719e+003, 3.263378e-001
2.543647e+003, 3.265099e-001
2.545576e+003, 3.266267e-001
2.547504e+003, 3.266530e-001
2.549433e+003, 3.274630e-001
2.551361e+003, 3.286028e-001
2.553290e+003, 3.284773e-001
2.555218e+003, 3.280483e-001
2.557147e+003, 3.282304e-001
2.559075e+003, 3.282615e-001
2.561004e+003, 3.283299e-001
2.562932e+003, 3.289695e-001
2.564861e+003, 3.293299e-001
2.566789e+003, 3.295723e-001
2.568718e+003, 3.300233e-001
2.570646e+003, 3.308939e-001
2.572574e+003, 3.310179e-001
2.574503e+003, 3.313766e-001
2.576431e+003, 3.318490e-001
2.578360e+003, 3.320124e-001
2.580288e+003, 3.319789e-001
2.582217e+003, 3.315561e-001
2.584145e+003, 3.319300e-001
2.586074e+003, 3.320933e-001
2.588002e+003, 3.316015e-001
2.589931e+003, 3.313607e-001
2.591859e+003, 3.322583e-001
2.593788e+003, 3.326414e-001
2.595716e+003, 3.325498e-001
2.597645e+003, 3.330122e-001
2.599573e+003, 3.336288e-001
2.601501e+003, 3.337195e-001
2.603430e+003, 3.343534e-001
2.605358e+003, 3.346177e-001
2.607287e+003, 3.343216e-001
2.609215e+003, 3.341051e-001
2.611144e+003, 3.345227e-001
2.613072e+003, 3.350805e-001
2.615001e+003, 3.353963e-001
2.616929e+003, 3.351263e-001
2.618858e+003, 3.356926e-001
2.620786e+003, 3.360074e-001
2.622715e+003, 3.361807e-001
2.624643e+003, 3.365915e-001
2.626572e+003, 3.365970e-001
2.628500e+003, 3.366379e-001
2.630428e+003, 3.371116e-001
2.632357e+003, 3.377078e-001
2.634285e+003, 3.372634e-001
2.636214e+003, 3.371460e-001
2.638142e+003, 3.370185e-001
2.640071e+003, 3.369058e-001
2.641999e+003, 3.373007e-001
2.643928e+003, 3.377287e-001
2.645856e+003, 3.376930e-001
2.647785e+003, 3.383922e-001
2.649713e+003, 3.387922e-001
2.651642e+003, 3.388333e-001
2.653570e+003, 3.395847e-001
2.655499e+003, 3.397547e-001
2.657427e+003, 3.395222e-001
2.659355e+003, 3.393601e-001
2.661284e+003, 3.398773e-001
2.663212e+003, 3.405653e-001
2.665141e+003, 3.405020e-001
2.667069e+003, 3.399540e-001
2.668998e+003, 3.404392e-001
2.670926e+003, 3.410917e-001
2.672855e+003, 3.404621e-001
2.674783e+003, 3.405864e-001
2.676712e+003, 3.417466e-001
2.678640e+003, 3.426127e-001
2.680569e+003, 3.425554e-001
2.682497e+003, 3.422400e-001
2.684426e+003, 3.421793e-001
2.686354e+003, 3.424035e-001
2.688282e+003, 3.423640e-001
2.690211e+003, 3.424040e-001
2.692139e+003, 3.427079e-001
2.694068e+003, 3.431967e-001
2.695996e+003, 3.430223e-001
2.697925e+003, 3.430126e-001
2.699853e+003, 3.431421e-001
2.701782e+003, 3.434013e-001
2.703710e+003, 3.438487e-001
2.705639e+003, 3.443597e-001
2.707567e+003, 3.447147e-001
2.709496e+003, 3.453711e-001
2.711424e+003, 3.459483e-001
2.713353e+003, 3.459480e-001
2.715281e+003, 3.456419e-001
2.717209e+003, 3.458943e-001
2.719138e+003, 3.462012e-001
2.721066e+003, 3.465209e-001
2.722995e+003, 3.471014e-001
2.724923e+003, 3.470353e-001
2.726852e+003, 3.467877e-001
2.728780e+003, 3.480108e-001
2.730709e+003, 3.483690e-001
2.732637e+003, 3.480898e-001
2.734566e+003, 3.478965e-001
2.736494e+003, 3.483445e-001
2.738423e+003, 3.488943e-001
2.740351e+003, 3.485579e-001
2.742280e+003, 3.494173e-001
2.744208e+003, 3.496857e-001
2.746136e+003, 3.495708e-001
2.748065e+003, 3.502968e-001
2.749993e+003, 3.507688e-001
2.751922e+003, 3.501952e-001
2.753850e+003, 3.499748e-001
2.755779e+003, 3.499346e-001
2.757707e+003, 3.504280e-001
2.759636e+003, 3.510439e-001
2.761564e+003, 3.509515e-001
2.763493e+003, 3.515459e-001
2.765421e+003, 3.528464e-001
2.767350e+003, 3.530231e-001
2.769278e+003, 3.524256e-001
2.771207e+003, 3.523840e-001
2.773135e+003, 3.528526e-001
2.775063e+003, 3.525012e-001
2.776992e+003, 3.526414e-001
2.778920e+003, 3.534690e-001
2.780849e+003, 3.540672e-001
2.782777e+003, 3.543181e-001
2.784706e+003, 3.542996e-001
2.786634e+003, 3.544217e-001
2.788563e+003, 3.545612e-001
2.790491e+003, 3.545449e-001
2.792420e+003, 3.543780e-001
2.794348e+003, 3.548665e-001
2.796277e+003, 3.553458e-001
2.798205e+003, 3.551390e-001
2.800134e+003, 3.552047e-001
2.802062e+003, 3.557352e-001
2.803990e+003, 3.562025e-001
2.805919e+003, 3.566685e-001
2.807847e+003, 3.571769e-001
2.809776e+003, 3.571148e-001
2.811704e+003, 3.571887e-001
2.813633e+003, 3.576214e-001
2.815561e+003, 3.585032e-001
2.817490e+003, 3.592658e-001
2.819418e+003, 3.589962e-001
2.821347e+003, 3.587459e-001
2.823275e+003, 3.589325e-001
2.825204e+003, 3.588114e-001
2.827132e+003, 3.589712e-001
2.829061e+003, 3.599673e-001
2.830989e+003, 3.607032e-001
2.832917e+003, 3.612110e-001
2.834846e+003, 3.616108e-001
2.836774e+003, 3.620179e-001
2.838703e+003, 3.612836e-001
2.840631e+003, 3.610195e-001
2.842560e+003, 3.621379e-001
2.844488e+003, 3.636895e-001
2.846417e+003, 3.642474e-001
2.848345e+003, 3.635513e-001
2.850274e+003, 3.631028e-001
2.852202e+003, 3.628929e-001
2.854131e+003, 3.627819e-001
2.856059e+003, 3.626656e-001
2.857988e+003, 3.629926e-001
2.859916e+003, 3.634119e-001
2.861844e+003, 3.635078e-001
2.863773e+003, 3.636293e-001
2.865701e+003, 3.633031e-001
2.867630e+003, 3.630610e-001
2.869558e+003, 3.635839e-001
2.871487e+003, 3.639307e-001
2.873415e+003, 3.642583e-001
2.875344e+003, 3.640833e-001
2.877272e+003, 3.646294e-001
2.879201e+003, 3.655304e-001
2.881129e+003, 3.659779e-001
2.883058e+003, 3.659551e-001
2.884986e+003, 3.654683e-001
2.886915e+003, 3.660364e-001
2.888843e+003, 3.669598e-001
2.890771e+003, 3.666180e-001
2.892700e+003, 3.661034e-001
2.894628e+003, 3.670071e-001
2.896557e+003, 3.675852e-001
2.898485e+003, 3.675137e-001
2.900414e+003, 3.679144e-001
2.902342e+003, 3.675571e-001
2.904271e+003, 3.674613e-001
2.906199e+003, 3.682347e-001
2.908128e+003, 3.688194e-001
2.910056e+003, 3.694870e-001
2.911985e+003, 3.698501e-001
2.913913e+003, 3.693067e-001
2.915842e+003, 3.681555e-001
2.917770e+003, 3.677833e-001
2.919698e+003, 3.688976e-001
2.921627e+003, 3.694504e-001
2.923555e+003, 3.694986e-001
2.925484e+003, 3.697948e-001
2.927412e+003, 3.695506e-001
2.929341e+003, 3.697710e-001
2.931269e+003, 3.701236e-001
2.933198e+003, 3.696466e-001
2.935126e+003, 3.704218e-001
2.937055e+003, 3.709538e-001
2.938983e+003, 3.695436e-001
2.940912e+003, 3.690103e-001
2.942840e+003, 3.694657e-001
2.944769e+003, 3.694083e-001
2.946697e+003, 3.694034e-001
2.948625e+003, 3.699252e-001
2.950554e+003, 3.703122e-001
2.952482e+003, 3.696403e-001
2.954411e+003, 3.696637e-001
2.956339e+003, 3.707885e-001
2.958268e+003, 3.717053e-001
2.960196e+003, 3.725578e-001
2.962125e+003, 3.730069e-001
2.964053e+003, 3.728344e-001
2.965982e+003, 3.720324e-001
2.967910e+003, 3.718268e-001
2.969839e+003, 3.719032e-001
2.971767e+003, 3.722459e-001
2.973696e+003, 3.723525e-001
2.975624e+003, 3.722500e-001
2.977552e+003, 3.733194e-001
2.979481e+003, 3.730311e-001
2.981409e+003, 3.721818e-001
2.983338e+003, 3.726575e-001
2.985266e+003, 3.730720e-001
2.987195e+003, 3.720913e-001
2.989123e+003, 3.721249e-001
2.991052e+003, 3.736856e-001
2.992980e+003, 3.743513e-001
2.994909e+003, 3.739208e-001
2.996837e+003, 3.744602e-001
2.998766e+003, 3.750867e-001
3.000694e+003, 3.744512e-001
3.002623e+003, 3.747711e-001
3.004551e+003, 3.772530e-001
3.006479e+003, 3.779951e-001
3.008408e+003, 3.769071e-001
3.010336e+003, 3.761890e-001
3.012265e+003, 3.774495e-001
3.014193e+003, 3.774980e-001
3.016122e+003, 3.768245e-001
3.018050e+003, 3.772988e-001
3.019979e+003, 3.784035e-001
3.021907e+003, 3.787626e-001
3.023836e+003, 3.788436e-001
3.025764e+003, 3.795647e-001
3.027693e+003, 3.794366e-001
3.029621e+003, 3.788718e-001
3.031550e+003, 3.801302e-001
3.033478e+003, 3.806919e-001
3.035406e+003, 3.813452e-001
3.037335e+003, 3.825694e-001
3.039263e+003, 3.830504e-001
3.041192e+003, 3.822182e-001
3.043120e+003, 3.817187e-001
3.045049e+003, 3.819002e-001
3.046977e+003, 3.815608e-001
3.048906e+003, 3.812778e-001
3.050834e+003, 3.824044e-001
3.052763e+003, 3.826014e-001
3.054691e+003, 3.815595e-001
3.056620e+003, 3.816256e-001
3.058548e+003, 3.825090e-001
3.060477e+003, 3.824995e-001
3.062405e+003, 3.828009e-001
3.064333e+003, 3.835557e-001
3.066262e+003, 3.845197e-001
3.068190e+003, 3.844863e-001
3.070119e+003, 3.839957e-001
3.072047e+003, 3.838484e-001
3.073976e+003, 3.849034e-001
3.075904e+003, 3.851400e-001
3.077833e+003, 3.851967e-001
3.079761e+003, 3.866403e-001
3.081690e+003, 3.872764e-001
3.083618e+003, 3.870423e-001
3.085547e+003, 3.879015e-001
3.087475e+003, 3.888874e-001
3.089404e+003, 3.890623e-001
3.091332e+003, 3.882226e-001
3.093260e+003, 3.874114e-001
3.095189e+003, 3.874574e-001
3.097117e+003, 3.885820e-001
3.099046e+003, 3.884690e-001
3.100974e+003, 3.880226e-001
3.102903e+003, 3.887084e-001
3.104831e+003, 3.892173e-001
3.106760e+003, 3.889158e-001
3.108688e+003, 3.888857e-001
3.110617e+003, 3.890119e-001
3.112545e+003, 3.897899e-001
3.114474e+003, 3.909827e-001
3.116402e+003, 3.915252e-001
3.118331e+003, 3.925502e-001
3.120259e+003, 3.914871e-001
3.122188e+003, 3.908583e-001
3.124116e+003, 3.922494e-001
3.126044e+003, 3.927749e-001
3.127973e+003, 3.918495e-001
3.129901e+003, 3.920312e-001
3.131830e+003, 3.915195e-001
3.133758e+003, 3.915648e-001
3.135687e+003, 3.932877e-001
3.137615e+003, 3.936206e-001
3.139544e+003, 3.938485e-001
3.141472e+003, 3.944857e-001
3.143401e+003, 3.947108e-001
3.145329e+003, 3.952923e-001
3.147258e+003, 3.943574e-001
3.149186e+003, 3.935008e-001
3.151115e+003, 3.939715e-001
3.153043e+003, 3.935891e-001
3.154971e+003, 3.944752e-001
3.156900e+003, 3.965807e-001
3.158828e+003, 3.962438e-001
3.160757e+003, 3.947896e-001
3.162685e+003, 3.947476e-001
3.164614e+003, 3.958283e-001
3.166542e+003, 3.970229e-001
3.168471e+003, 3.967670e-001
3.170399e+003, 3.958591e-001
3.172328e+003, 3.959618e-001
3.174256e+003, 3.967888e-001
3.176185e+003, 3.977005e-001
3.178113e+003, 3.991201e-001
3.180042e+003, 3.996228e-001
3.181970e+003, 3.991183e-001
3.183898e+003, 3.987074e-001
3.185827e+003, 3.977939e-001
3.187755e+003, 3.976352e-001
3.189684e+003, 3.978269e-001
3.191612e+003, 3.980644e-001
3.193541e+003, 3.976016e-001
3.195469e+003, 3.977198e-001
3.197398e+003, 3.985512e-001
3.199326e+003, 3.994190e-001
3.201255e+003, 3.997629e-001
3.203183e+003, 3.999695e-001
3.205112e+003, 4.008546e-001
3.207040e+003, 4.009030e-001
3.208969e+003, 4.004688e-001
3.210897e+003, 4.012730e-001
3.212825e+003, 4.019608e-001
3.214754e+003, 4.012513e-001
3.216682e+003, 4.013945e-001
3.218611e+003, 4.016148e-001
3.220539e+003, 4.015257e-001
3.222468e+003, 4.017235e-001
3.224396e+003, 4.023553e-001
3.226325e+003, 4.018978e-001
3.228253e+003, 4.020372e-001
3.230182e+003, 4.026296e-001
3.232110e+003, 4.027445e-001
3.234039e+003, 4.038975e-001
3.235967e+003, 4.051605e-001
3.237896e+003, 4.045044e-001
3.239824e+003, 4.038558e-001
3.241752e+003, 4.040481e-001
3.243681e+003, 4.054261e-001
3.245609e+003, 4.065736e-001
3.247538e+003, 4.053284e-001
3.249466e+003, 4.053100e-001
3.251395e+003, 4.064787e-001
3.253323e+003, 4.071468e-001
3.255252e+003, 4.056065e-001
3.257180e+003, 4.040000e-001
3.259109e+003, 4.051707e-001
3.261037e+003, 4.065578e-001
3.262966e+003, 4.072669e-001
3.264894e+003, 4.070712e-001
3.266823e+003, 4.071228e-001
3.268751e+003, 4.076934e-001
3.270679e+003, 4.071343e-001
3.272608e+003, 4.069557e-001
3.274536e+003, 4.074832e-001
3.276465e+003, 4.080481e-001
3.278393e+003, 4.085788e-001
3.280322e+003, 4.095156e-001
3.282250e+003, 4.094605e-001
3.284179e+003, 4.087149e-001
3.286107e+003, 4.076986e-001
3.288036e+003, 4.078355e-001
3.289964e+003, 4.094225e-001
3.291893e+003, 4.104894e-001
3.293821e+003, 4.108541e-001
3.295750e+003, 4.098536e-001
3.297678e+003, 4.096082e-001
3.299606e+003, 4.108745e-001
3.301535e+003, 4.113405e-001
3.303463e+003, 4.115855e-001
3.305392e+003, 4.123574e-001
3.307320e+003, 4.118878e-001
3.309249e+003, 4.115967e-001
3.311177e+003, 4.113485e-001
3.313106e+003, 4.098938e-001
3.315034e+003, 4.098893e-001
3.316963e+003, 4.118297e-001
3.318891e+003, 4.129229e-001
3.320820e+003, 4.129789e-001
3.322748e+003, 4.120757e-001
3.324677e+003, 4.127280e-001
3.326605e+003, 4.148220e-001
3.328533e+003, 4.142748e-001
3.330462e+003, 4.124861e-001
3.332390e+003, 4.131821e-001
3.334319e+003, 4.138547e-001
3.336247e+003, 4.144423e-001
3.338176e+003, 4.144823e-001
3.340104e+003, 4.140361e-001
3.342033e+003, 4.155192e-001
3.343961e+003, 4.161211e-001
3.345890e+003, 4.149449e-001
3.347818e+003, 4.152818e-001
3.349747e+003, 4.160741e-001
3.351675e+003, 4.152072e-001
3.353604e+003, 4.149912e-001
3.355532e+003, 4.158316e-001
3.357460e+003, 4.152437e-001
3.359389e+003, 4.145412e-001
3.361317e+003, 4.138736e-001
3.363246e+003, 4.147140e-001
3.365174e+003, 4.156910e-001
3.367103e+003, 4.166077e-001
3.369031e+003, 4.159437e-001
3.370960e+003, 4.148284e-001
3.372888e+003, 4.153154e-001
3.374817e+003, 4.169036e-001
3.376745e+003, 4.170059e-001
3.378674e+003, 4.157582e-001
3.380602e+003, 4.179169e-001
3.382531e+003, 4.200357e-001
3.384459e+003, 4.184829e-001
3.386387e+003, 4.183041e-001
3.388316e+003, 4.215205e-001
3.390244e+003, 4.234065e-001
3.392173e+003, 4.219284e-001
3.394101e+003, 4.200647e-001
3.396030e+003, 4.207626e-001
3.397958e+003, 4.207054e-001
3.399887e+003, 4.211068e-001
3.401815e+003, 4.215974e-001
3.403744e+003, 4.214484e-001
3.405672e+003, 4.210380e-001
3.407601e+003, 4.198094e-001
3.409529e+003, 4.189894e-001
3.411458e+003, 4.188902e-001
3.413386e+003, 4.197818e-001
3.415314e+003, 4.210804e-001
3.417243e+003, 4.219166e-001
3.419171e+003, 4.221648e-001
3.421100e+003, 4.221112e-001
3.423028e+003, 4.212881e-001
3.424957e+003, 4.205591e-001
3.426885e+003, 4.202083e-001
3.428814e+003, 4.212845e-001
3.430742e+003, 4.224508e-001
3.432671e+003, 4.226762e-001
3.434599e+003, 4.229387e-001
3.436528e+003, 4.224763e-001
3.438456e+003, 4.219298e-001
3.440385e+003, 4.224078e-001
3.442313e+003, 4.231015e-001
3.444241e+003, 4.233012e-001
3.446170e+003, 4.247973e-001
3.448098e+003, 4.246540e-001
3.450027e+003, 4.245253e-001
3.451955e+003, 4.253580e-001
3.453884e+003, 4.255639e-001
3.455812e+003, 4.264799e-001
3.457741e+003, 4.272287e-001
3.459669e+003, 4.262882e-001
3.461598e+003, 4.245887e-001
3.463526e+003, 4.236902e-001
3.465455e+003, 4.246565e-001
3.467383e+003, 4.245616e-001
3.469312e+003, 4.243842e-001
3.471240e+003, 4.250300e-001
3.473168e+003, 4.265822e-001
3.475097e+003, 4.271681e-001
3.477025e+003, 4.270937e-001
3.478954e+003, 4.278963e-001
3.480882e+003, 4.275332e-001
3.482811e+003, 4.267567e-001
3.484739e+003, 4.271433e-001
3.486668e+003, 4.285994e-001
3.488596e+003, 4.298659e-001
3.490525e+003, 4.292115e-001
3.492453e+003, 4.288844e-001
3.494382e+003, 4.299777e-001
3.496310e+003, 4.303985e-001
3.498239e+003, 4.290438e-001
3.500167e+003, 4.290775e-001
3.502095e+003, 4.290925e-001
3.504024e+003, 4.281392e-001
3.505952e+003, 4.293545e-001
3.507881e+003, 4.294339e-001
3.509809e+003, 4.288129e-001
3.511738e+003, 4.303933e-001
3.513666e+003, 4.309686e-001
3.515595e+003, 4.306253e-001
3.517523e+003, 4.302406e-001
3.519452e+003, 4.316256e-001
3.521380e+003, 4.323879e-001
3.523309e+003, 4.317426e-001
3.525237e+003, 4.313827e-001
3.527166e+003, 4.329373e-001
3.529094e+003, 4.332107e-001
3.531022e+003, 4.328738e-001
3.532951e+003, 4.322838e-001
3.534879e+003, 4.323762e-001
3.536808e+003, 4.341334e-001
3.538736e+003, 4.348680e-001
3.540665e+003, 4.326869e-001
3.542593e+003, 4.317882e-001
3.544522e+003, 4.317617e-001
3.546450e+003, 4.296096e-001
3.548379e+003, 4.303578e-001
3.550307e+003, 4.333052e-001
3.552236e+003, 4.339071e-001
3.554164e+003, 4.327735e-001
3.556093e+003, 4.330023e-001
3.558021e+003, 4.352303e-001
3.559949e+003, 4.368070e-001
3.561878e+003, 4.361995e-001
3.563806e+003, 4.351973e-001
3.565735e+003, 4.362250e-001
3.567663e+003, 4.354373e-001
3.569592e+003, 4.337513e-001
3.571520e+003, 4.329727e-001
3.573449e+003, 4.339622e-001
3.575377e+003, 4.349483e-001
3.577306e+003, 4.359418e-001
3.579234e+003, 4.363813e-001
3.581163e+003, 4.359742e-001
3.583091e+003, 4.375691e-001
3.585020e+003, 4.385827e-001
3.586948e+003, 4.378448e-001
3.588876e+003, 4.372471e-001
3.590805e+003, 4.366560e-001
3.592733e+003, 4.369961e-001
3.594662e+003, 4.368402e-001
3.596590e+003, 4.356887e-001
3.598519e+003, 4.357963e-001
3.600447e+003, 4.374647e-001
3.602376e+003, 4.384606e-001
3.604304e+003, 4.391401e-001
3.606233e+003, 4.395014e-001
3.608161e+003, 4.386380e-001
3.610090e+003, 4.383637e-001
3.612018e+003, 4.381494e-001
3.613947e+003, 4.398047e-001
3.615875e+003, 4.409253e-001
3.617803e+003, 4.407310e-001
3.619732e+003, 4.419628e-001
3.621660e+003, 4.432021e-001
3.623589e+003, 4.431233e-001
3.625517e+003, 4.418819e-001
3.627446e+003, 4.391857e-001
3.629374e+003, 4.384413e-001
3.631303e+003, 4.405954e-001
3.633231e+003, 4.415837e-001
3.635160e+003, 4.419394e-001
3.637088e+003, 4.410046e-001
3.639017e+003, 4.419443e-001
3.640945e+003, 4.445551e-001
3.642874e+003, 4.437225e-001
3.644802e+003, 4.432502e-001
3.646730e+003, 4.434544e-001
3.648659e+003, 4.426795e-001
3.650587e+003, 4.429857e-001
3.652516e+003, 4.429862e-001
3.654444e+003, 4.428932e-001
3.656373e+003, 4.425980e-001
3.658301e+003, 4.436438e-001
3.660230e+003, 4.452253e-001
3.662158e+003, 4.451877e-001
3.664087e+003, 4.446633e-001
3.666015e+003, 4.439987e-001
3.667944e+003, 4.450579e-001
3.669872e+003, 4.454269e-001
3.671801e+003, 4.453346e-001
3.673729e+003, 4.470047e-001
3.675657e+003, 4.477784e-001
3.677586e+003, 4.482402e-001
3.679514e+003, 4.489596e-001
3.681443e+003, 4.471414e-001
3.683371e+003, 4.467576e-001
3.685300e+003, 4.468634e-001
3.687228e+003, 4.472206e-001
3.689157e+003, 4.486494e-001
3.691085e+003, 4.509856e-001
3.693014e+003, 4.501928e-001
3.694942e+003, 4.493565e-001
3.696871e+003, 4.495842e-001
3.698799e+003, 4.489906e-001
3.700728e+003, 4.489732e-001
3.702656e+003, 4.490855e-001
3.704584e+003, 4.491735e-001
3.706513e+003, 4.513433e-001
3.708441e+003, 4.513786e-001
3.710370e+003, 4.486591e-001
3.712298e+003, 4.488445e-001
3.714227e+003, 4.499682e-001
3.716155e+003, 4.484188e-001
3.718084e+003, 4.492649e-001
3.720012e+003, 4.489948e-001
3.721941e+003, 4.489405e-001
3.723869e+003, 4.517221e-001
3.725798e+003, 4.539234e-001
3.727726e+003, 4.519625e-001
3.729655e+003, 4.507845e-001
3.731583e+003, 4.536982e-001
3.733511e+003, 4.546056e-001
3.735440e+003, 4.536269e-001
3.737368e+003, 4.515444e-001
3.739297e+003, 4.494680e-001
3.741225e+003, 4.522746e-001
3.743154e+003, 4.558534e-001
3.745082e+003, 4.558833e-001
3.747011e+003, 4.554806e-001
3.748939e+003, 4.549779e-001
3.750868e+003, 4.552670e-001
3.752796e+003, 4.529661e-001
3.754725e+003, 4.517159e-001
3.756653e+003, 4.540509e-001
3.758582e+003, 4.552256e-001
3.760510e+003, 4.563215e-001
3.762438e+003, 4.572190e-001
3.764367e+003, 4.583539e-001
3.766295e+003, 4.587195e-001
3.768224e+003, 4.586429e-001
3.770152e+003, 4.573905e-001
3.772081e+003, 4.570237e-001
3.774009e+003, 4.583955e-001
3.775938e+003, 4.588829e-001
3.777866e+003, 4.588815e-001
3.779795e+003, 4.598916e-001
3.781723e+003, 4.584746e-001
3.783652e+003, 4.579739e-001
3.785580e+003, 4.595321e-001
3.787509e+003, 4.616204e-001
3.789437e+003, 4.632186e-001
3.791365e+003, 4.624456e-001
3.793294e+003, 4.606359e-001
3.795222e+003, 4.610235e-001
3.797151e+003, 4.607473e-001
3.799079e+003, 4.612510e-001
3.801008e+003, 4.612468e-001
3.802936e+003, 4.616319e-001
3.804865e+003, 4.631255e-001
3.806793e+003, 4.626112e-001
3.808722e+003, 4.613640e-001
3.810650e+003, 4.633008e-001
3.812579e+003, 4.637634e-001
3.814507e+003, 4.624909e-001
3.816436e+003, 4.623663e-001
3.818364e+003, 4.629433e-001
3.820292e+003, 4.628725e-001
3.822221e+003, 4.632730e-001
3.824149e+003, 4.619399e-001
3.826078e+003, 4.627182e-001
3.828006e+003, 4.628997e-001
3.829935e+003, 4.633629e-001
3.831863e+003, 4.621139e-001
3.833792e+003, 4.627793e-001
3.835720e+003, 4.659790e-001
3.837649e+003, 4.662011e-001
3.839577e+003, 4.643303e-001
3.841506e+003, 4.639031e-001
3.843434e+003, 4.634875e-001
3.845363e+003, 4.656032e-001
3.847291e+003, 4.671633e-001
3.849219e+003, 4.661110e-001
3.851148e+003, 4.665154e-001
3.853076e+003, 4.684919e-001
3.855005e+003, 4.696948e-001
3.856933e+003, 4.699379e-001
3.858862e+003, 4.691119e-001
3.860790e+003, 4.670136e-001
3.862719e+003, 4.665085e-001
3.864647e+003, 4.669252e-001
3.866576e+003, 4.678231e-001
3.868504e+003, 4.700718e-001
3.870433e+003, 4.701919e-001
3.872361e+003, 4.692370e-001
3.874290e+003, 4.681205e-001
3.876218e+003, 4.684999e-001
3.878146e+003, 4.688785e-001
3.880075e+003, 4.684049e-001
3.882003e+003, 4.711728e-001
3.883932e+003, 4.720168e-001
3.885860e+003, 4.711960e-001
3.887789e+003, 4.704207e-001
3.889717e+003, 4.692486e-001
3.891646e+003, 4.708140e-001
3.893574e+003, 4.716827e-001
3.895503e+003, 4.712729e-001
3.897431e+003, 4.718969e-001
3.899360e+003, 4.712317e-001
3.901288e+003, 4.699105e-001
3.903217e+003, 4.723071e-001
3.905145e+003, 4.741837e-001
3.907073e+003, 4.737350e-001
3.909002e+003, 4.742997e-001
3.910930e+003, 4.710472e-001
3.912859e+003, 4.689312e-001
3.914787e+003, 4.706163e-001
3.916716e+003, 4.730406e-001
3.918644e+003, 4.756035e-001
3.920573e+003, 4.747618e-001
3.922501e+003, 4.742359e-001
3.924430e+003, 4.733380e-001
3.926358e+003, 4.734979e-001
3.928287e+003, 4.736716e-001
3.930215e+003, 4.735469e-001
3.932144e+003, 4.748874e-001
3.934072e+003, 4.776442e-001
3.936000e+003, 4.775490e-001
3.937929e+003, 4.759399e-001
3.939857e+003, 4.759162e-001
3.941786e+003, 4.777165e-001
3.943714e+003, 4.770793e-001
3.945643e+003, 4.778765e-001
3.947571e+003, 4.802812e-001
3.949500e+003, 4.791887e-001
3.951428e+003, 4.786529e-001
3.953357e+003, 4.800133e-001
3.955285e+003, 4.801301e-001
3.957214e+003, 4.795042e-001
3.959142e+003, 4.775607e-001
3.961071e+003, 4.773867e-001
3.962999e+003, 4.783677e-001
3.964927e+003, 4.799236e-001
3.966856e+003, 4.777756e-001
3.968784e+003, 4.771599e-001
3.970713e+003, 4.810644e-001
3.972641e+003, 4.834215e-001
3.974570e+003, 4.820532e-001
3.976498e+003, 4.821769e-001
3.978427e+003, 4.811273e-001
3.980355e+003, 4.797397e-001
3.982284e+003, 4.820585e-001
3.984212e+003, 4.811280e-001
3.986141e+003, 4.779196e-001
3.988069e+003, 4.779064e-001
3.989998e+003, 4.807881e-001
3.991926e+003, 4.825578e-001
3.993854e+003, 4.834725e-001
3.995783e+003, 4.837828e-001
3.997711e+003, 4.842852e-001
3.999640e+003, 4.845188e-001
##END=



