##NAMES=Cylindrite
##RRUFFID=R050175
##IDEAL CHEMISTRY=FePb_3_Sn_4_Sb_2_S_14_
##LOCALITY=Poop√≥ Province, Oruro Department, Bolivia
##OWNER=RRUFF
##SOURCE=Marcus Origlieri
##DESCRIPTION=Gray tubular aggregates
##STATUS=The identification of this mineral has been confirmed only by chemical analysis
##URL=rruff.info/R050175
##MEASURED CHEMISTRY=Pb_3.05_Sn_4.25_Fe_0.84_Sb_1.87_S_14.00_
3.741225e+002, 5.585050e-002
3.760510e+002, 5.608685e-002
3.779795e+002, 5.460748e-002
3.799079e+002, 6.041147e-002
3.818364e+002, 6.273338e-002
3.837649e+002, 6.545762e-002
3.856933e+002, 6.570138e-002
3.876218e+002, 6.825188e-002
3.895503e+002, 7.229978e-002
3.914787e+002, 7.398239e-002
3.934072e+002, 7.458542e-002
3.953357e+002, 7.602315e-002
3.972641e+002, 8.048726e-002
3.991926e+002, 8.183395e-002
4.011211e+002, 7.934680e-002
4.030495e+002, 8.157665e-002
4.049780e+002, 8.524963e-002
4.069065e+002, 8.663245e-002
4.088349e+002, 8.745159e-002
4.107634e+002, 8.958866e-002
4.126919e+002, 9.289682e-002
4.146203e+002, 9.512345e-002
4.165488e+002, 9.730276e-002
4.184773e+002, 9.876417e-002
4.204057e+002, 1.005789e-001
4.223342e+002, 1.034981e-001
4.242627e+002, 1.054032e-001
4.261911e+002, 1.066508e-001
4.281196e+002, 1.080845e-001
4.300481e+002, 1.104163e-001
4.319765e+002, 1.134565e-001
4.339050e+002, 1.145208e-001
4.358335e+002, 1.158190e-001
4.377619e+002, 1.173204e-001
4.396904e+002, 1.186041e-001
4.416189e+002, 1.211606e-001
4.435473e+002, 1.240111e-001
4.454758e+002, 1.249878e-001
4.474043e+002, 1.266914e-001
4.493327e+002, 1.284131e-001
4.512612e+002, 1.297653e-001
4.531897e+002, 1.314751e-001
4.551181e+002, 1.337284e-001
4.570466e+002, 1.349057e-001
4.589751e+002, 1.360777e-001
4.609035e+002, 1.372734e-001
4.628320e+002, 1.384448e-001
4.647605e+002, 1.395059e-001
4.666889e+002, 1.404529e-001
4.686174e+002, 1.414942e-001
4.705459e+002, 1.428590e-001
4.724743e+002, 1.439790e-001
4.744028e+002, 1.443846e-001
4.763313e+002, 1.444688e-001
4.782597e+002, 1.455763e-001
4.801882e+002, 1.477593e-001
4.821167e+002, 1.490714e-001
4.840451e+002, 1.499745e-001
4.859736e+002, 1.509117e-001
4.879021e+002, 1.514900e-001
4.898305e+002, 1.523542e-001
4.917590e+002, 1.534131e-001
4.936875e+002, 1.543677e-001
4.956159e+002, 1.550874e-001
4.975444e+002, 1.561424e-001
4.994729e+002, 1.569849e-001
5.014013e+002, 1.581547e-001
5.033298e+002, 1.589937e-001
5.052583e+002, 1.604527e-001
5.071867e+002, 1.617771e-001
5.091152e+002, 1.615705e-001
5.110437e+002, 1.627499e-001
5.129721e+002, 1.643995e-001
5.149006e+002, 1.650456e-001
5.168290e+002, 1.655101e-001
5.187575e+002, 1.656392e-001
5.206860e+002, 1.662788e-001
5.226144e+002, 1.670422e-001
5.245429e+002, 1.677016e-001
5.264714e+002, 1.686344e-001
5.283998e+002, 1.693666e-001
5.303283e+002, 1.704909e-001
5.322568e+002, 1.712269e-001
5.341852e+002, 1.714930e-001
5.361137e+002, 1.719924e-001
5.380422e+002, 1.730692e-001
5.399706e+002, 1.738772e-001
5.418991e+002, 1.746895e-001
5.438276e+002, 1.756388e-001
5.457560e+002, 1.757117e-001
5.476845e+002, 1.764929e-001
5.496130e+002, 1.770908e-001
5.515414e+002, 1.777109e-001
5.534699e+002, 1.784254e-001
5.553984e+002, 1.787281e-001
5.573268e+002, 1.802024e-001
5.592553e+002, 1.814518e-001
5.611838e+002, 1.815026e-001
5.631122e+002, 1.816263e-001
5.650407e+002, 1.827333e-001
5.669692e+002, 1.836699e-001
5.688976e+002, 1.844819e-001
5.708261e+002, 1.853893e-001
5.727546e+002, 1.856325e-001
5.746830e+002, 1.866333e-001
5.766115e+002, 1.872485e-001
5.785400e+002, 1.883412e-001
5.804684e+002, 1.897904e-001
5.823969e+002, 1.907157e-001
5.843254e+002, 1.912863e-001
5.862538e+002, 1.925931e-001
5.881823e+002, 1.939487e-001
5.901108e+002, 1.952042e-001
5.920392e+002, 1.966925e-001
5.939677e+002, 1.978701e-001
5.958962e+002, 1.984430e-001
5.978246e+002, 1.983665e-001
5.997531e+002, 1.980430e-001
6.016816e+002, 1.974195e-001
6.036100e+002, 1.965629e-001
6.055385e+002, 1.962635e-001
6.074670e+002, 1.964815e-001
6.093954e+002, 1.959480e-001
6.113239e+002, 1.958164e-001
6.132524e+002, 1.963359e-001
6.151808e+002, 1.969910e-001
6.171093e+002, 1.981059e-001
6.190378e+002, 1.991548e-001
6.209662e+002, 2.001346e-001
6.228947e+002, 2.009491e-001
6.248232e+002, 2.014791e-001
6.267516e+002, 2.019915e-001
6.286801e+002, 2.021025e-001
6.306086e+002, 2.015535e-001
6.325370e+002, 2.006734e-001
6.344655e+002, 1.996820e-001
6.363940e+002, 1.988572e-001
6.383224e+002, 1.984621e-001
6.402509e+002, 1.981470e-001
6.421794e+002, 1.979845e-001
6.441078e+002, 1.981554e-001
6.460363e+002, 1.983640e-001
6.479648e+002, 1.986401e-001
6.498932e+002, 1.987985e-001
6.518217e+002, 1.989480e-001
6.537502e+002, 1.992960e-001
6.556786e+002, 1.997655e-001
6.576071e+002, 2.001766e-001
6.595356e+002, 2.005145e-001
6.614641e+002, 2.009061e-001
6.633925e+002, 2.014454e-001
6.653210e+002, 2.021282e-001
6.672495e+002, 2.027875e-001
6.691779e+002, 2.030267e-001
6.711064e+002, 2.029086e-001
6.730349e+002, 2.030539e-001
6.749633e+002, 2.037125e-001
6.768918e+002, 2.041329e-001
6.788203e+002, 2.043866e-001
6.807487e+002, 2.048619e-001
6.826772e+002, 2.052799e-001
6.846057e+002, 2.058270e-001
6.865341e+002, 2.064409e-001
6.884626e+002, 2.067721e-001
6.903911e+002, 2.072925e-001
6.923195e+002, 2.078795e-001
6.942480e+002, 2.082135e-001
6.961765e+002, 2.086565e-001
6.981049e+002, 2.088765e-001
7.000334e+002, 2.093400e-001
7.019619e+002, 2.092888e-001
7.038903e+002, 2.095274e-001
7.058188e+002, 2.102648e-001
7.077473e+002, 2.105401e-001
7.096757e+002, 2.104956e-001
7.116042e+002, 2.109780e-001
7.135327e+002, 2.114498e-001
7.154611e+002, 2.118538e-001
7.173896e+002, 2.122881e-001
7.193181e+002, 2.126962e-001
7.212465e+002, 2.131983e-001
7.231750e+002, 2.136113e-001
7.251035e+002, 2.141359e-001
7.270319e+002, 2.143207e-001
7.289604e+002, 2.146149e-001
7.308889e+002, 2.148664e-001
7.328173e+002, 2.151859e-001
7.347458e+002, 2.154793e-001
7.366743e+002, 2.159344e-001
7.386027e+002, 2.164626e-001
7.405312e+002, 2.168304e-001
7.424597e+002, 2.170561e-001
7.443881e+002, 2.174276e-001
7.463166e+002, 2.179159e-001
7.482451e+002, 2.181087e-001
7.501735e+002, 2.183357e-001
7.521020e+002, 2.188256e-001
7.540305e+002, 2.191195e-001
7.559589e+002, 2.192832e-001
7.578874e+002, 2.198375e-001
7.598159e+002, 2.204746e-001
7.617443e+002, 2.207633e-001
7.636728e+002, 2.211208e-001
7.656013e+002, 2.216197e-001
7.675297e+002, 2.221594e-001
7.694582e+002, 2.227829e-001
7.713867e+002, 2.232139e-001
7.733151e+002, 2.235058e-001
7.752436e+002, 2.238686e-001
7.771721e+002, 2.242768e-001
7.791005e+002, 2.248089e-001
7.810290e+002, 2.250373e-001
7.829575e+002, 2.252576e-001
7.848859e+002, 2.254173e-001
7.868144e+002, 2.258302e-001
7.887429e+002, 2.263566e-001
7.906713e+002, 2.270641e-001
7.925998e+002, 2.274106e-001
7.945283e+002, 2.275626e-001
7.964567e+002, 2.278174e-001
7.983852e+002, 2.279441e-001
8.003137e+002, 2.281504e-001
8.022421e+002, 2.281858e-001
8.041706e+002, 2.283692e-001
8.060991e+002, 2.286077e-001
8.080275e+002, 2.287759e-001
8.099560e+002, 2.292124e-001
8.118845e+002, 2.295785e-001
8.138129e+002, 2.297210e-001
8.157414e+002, 2.300415e-001
8.176699e+002, 2.305211e-001
8.195983e+002, 2.311547e-001
8.215268e+002, 2.316342e-001
8.234553e+002, 2.322721e-001
8.253837e+002, 2.328062e-001
8.273122e+002, 2.334513e-001
8.292407e+002, 2.341238e-001
8.311691e+002, 2.345013e-001
8.330976e+002, 2.347580e-001
8.350261e+002, 2.353834e-001
8.369545e+002, 2.357296e-001
8.388830e+002, 2.362956e-001
8.408115e+002, 2.369935e-001
8.427399e+002, 2.377121e-001
8.446684e+002, 2.384935e-001
8.465969e+002, 2.390951e-001
8.485253e+002, 2.395161e-001
8.504538e+002, 2.401319e-001
8.523823e+002, 2.408392e-001
8.543107e+002, 2.414566e-001
8.562392e+002, 2.419311e-001
8.581677e+002, 2.429148e-001
8.600961e+002, 2.437347e-001
8.620246e+002, 2.442121e-001
8.639531e+002, 2.445602e-001
8.658815e+002, 2.452117e-001
8.678100e+002, 2.461242e-001
8.697385e+002, 2.467590e-001
8.716669e+002, 2.472501e-001
8.735954e+002, 2.479980e-001
8.755239e+002, 2.488945e-001
8.774523e+002, 2.493245e-001
8.793808e+002, 2.497184e-001
8.813093e+002, 2.503861e-001
8.832377e+002, 2.509986e-001
8.851662e+002, 2.512847e-001
8.870947e+002, 2.517280e-001
8.890231e+002, 2.524504e-001
8.909516e+002, 2.530916e-001
8.928801e+002, 2.537114e-001
8.948085e+002, 2.543322e-001
8.967370e+002, 2.547485e-001
8.986655e+002, 2.552570e-001
9.005939e+002, 2.557452e-001
9.025224e+002, 2.562808e-001
9.044509e+002, 2.567506e-001
9.063793e+002, 2.574390e-001
9.083078e+002, 2.580414e-001
9.102363e+002, 2.585528e-001
9.121647e+002, 2.590717e-001
9.140932e+002, 2.597517e-001
9.160217e+002, 2.602885e-001
9.179501e+002, 2.606973e-001
9.198786e+002, 2.613158e-001
9.218071e+002, 2.619704e-001
9.237355e+002, 2.624401e-001
9.256640e+002, 2.629187e-001
9.275925e+002, 2.633930e-001
9.295209e+002, 2.638648e-001
9.314494e+002, 2.644553e-001
9.333779e+002, 2.649230e-001
9.353063e+002, 2.655411e-001
9.372348e+002, 2.662322e-001
9.391633e+002, 2.669623e-001
9.410917e+002, 2.676919e-001
9.430202e+002, 2.681023e-001
9.449487e+002, 2.687496e-001
9.468771e+002, 2.695114e-001
9.488056e+002, 2.700867e-001
9.507341e+002, 2.706955e-001
9.526625e+002, 2.713873e-001
9.545910e+002, 2.720467e-001
9.565195e+002, 2.725842e-001
9.584479e+002, 2.734122e-001
9.603764e+002, 2.742347e-001
9.623049e+002, 2.746423e-001
9.642333e+002, 2.750970e-001
9.661618e+002, 2.755923e-001
9.680903e+002, 2.758112e-001
9.700187e+002, 2.758156e-001
9.719472e+002, 2.760060e-001
9.738757e+002, 2.764425e-001
9.758041e+002, 2.769731e-001
9.777326e+002, 2.775441e-001
9.796611e+002, 2.781203e-001
9.815895e+002, 2.786021e-001
9.835180e+002, 2.792767e-001
9.854465e+002, 2.799936e-001
9.873749e+002, 2.806307e-001
9.893034e+002, 2.812339e-001
9.912319e+002, 2.818809e-001
9.931603e+002, 2.826079e-001
9.950888e+002, 2.834428e-001
9.970173e+002, 2.843740e-001
9.989457e+002, 2.852698e-001
1.000874e+003, 2.860582e-001
1.002803e+003, 2.869076e-001
1.004731e+003, 2.876967e-001
1.006660e+003, 2.883522e-001
1.008588e+003, 2.890908e-001
1.010517e+003, 2.899860e-001
1.012445e+003, 2.906148e-001
1.014373e+003, 2.910689e-001
1.016302e+003, 2.913425e-001
1.018230e+003, 2.915632e-001
1.020159e+003, 2.917891e-001
1.022087e+003, 2.920561e-001
1.024016e+003, 2.928016e-001
1.025944e+003, 2.935090e-001
1.027873e+003, 2.940067e-001
1.029801e+003, 2.945358e-001
1.031730e+003, 2.950973e-001
1.033658e+003, 2.956172e-001
1.035587e+003, 2.963008e-001
1.037515e+003, 2.967688e-001
1.039443e+003, 2.970876e-001
1.041372e+003, 2.975132e-001
1.043300e+003, 2.979756e-001
1.045229e+003, 2.981487e-001
1.047157e+003, 2.985416e-001
1.049086e+003, 2.990247e-001
1.051014e+003, 2.992046e-001
1.052943e+003, 2.993368e-001
1.054871e+003, 2.995390e-001
1.056800e+003, 2.996014e-001
1.058728e+003, 2.997201e-001
1.060657e+003, 2.998141e-001
1.062585e+003, 2.999085e-001
1.064514e+003, 3.000795e-001
1.066442e+003, 3.002510e-001
1.068370e+003, 3.000558e-001
1.070299e+003, 3.001812e-001
1.072227e+003, 3.007097e-001
1.074156e+003, 3.008786e-001
1.076084e+003, 3.009083e-001
1.078013e+003, 3.010738e-001
1.079941e+003, 3.011041e-001
1.081870e+003, 3.011453e-001
1.083798e+003, 3.010715e-001
1.085727e+003, 3.010340e-001
1.087655e+003, 3.011245e-001
1.089584e+003, 3.013598e-001
1.091512e+003, 3.013923e-001
1.093441e+003, 3.011713e-001
1.095369e+003, 3.010211e-001
1.097297e+003, 3.011278e-001
1.099226e+003, 3.012300e-001
1.101154e+003, 3.010826e-001
1.103083e+003, 3.008894e-001
1.105011e+003, 3.009514e-001
1.106940e+003, 3.009497e-001
1.108868e+003, 3.008071e-001
1.110797e+003, 3.006871e-001
1.112725e+003, 3.006483e-001
1.114654e+003, 3.006335e-001
1.116582e+003, 3.007222e-001
1.118511e+003, 3.009978e-001
1.120439e+003, 3.009185e-001
1.122368e+003, 3.008548e-001
1.124296e+003, 3.008814e-001
1.126224e+003, 3.008132e-001
1.128153e+003, 3.006893e-001
1.130081e+003, 3.008113e-001
1.132010e+003, 3.013248e-001
1.133938e+003, 3.014835e-001
1.135867e+003, 3.014784e-001
1.137795e+003, 3.019003e-001
1.139724e+003, 3.023209e-001
1.141652e+003, 3.027474e-001
1.143581e+003, 3.031337e-001
1.145509e+003, 3.032939e-001
1.147438e+003, 3.035125e-001
1.149366e+003, 3.038242e-001
1.151295e+003, 3.041913e-001
1.153223e+003, 3.046514e-001
1.155151e+003, 3.050382e-001
1.157080e+003, 3.052151e-001
1.159008e+003, 3.056141e-001
1.160937e+003, 3.059774e-001
1.162865e+003, 3.061478e-001
1.164794e+003, 3.062296e-001
1.166722e+003, 3.061792e-001
1.168651e+003, 3.060046e-001
1.170579e+003, 3.058470e-001
1.172508e+003, 3.057194e-001
1.174436e+003, 3.056337e-001
1.176365e+003, 3.055426e-001
1.178293e+003, 3.052126e-001
1.180222e+003, 3.049291e-001
1.182150e+003, 3.047598e-001
1.184078e+003, 3.044826e-001
1.186007e+003, 3.041864e-001
1.187935e+003, 3.040076e-001
1.189864e+003, 3.039611e-001
1.191792e+003, 3.037202e-001
1.193721e+003, 3.035579e-001
1.195649e+003, 3.035861e-001
1.197578e+003, 3.034253e-001
1.199506e+003, 3.034034e-001
1.201435e+003, 3.034896e-001
1.203363e+003, 3.033865e-001
1.205292e+003, 3.033671e-001
1.207220e+003, 3.035146e-001
1.209149e+003, 3.035541e-001
1.211077e+003, 3.035845e-001
1.213005e+003, 3.036803e-001
1.214934e+003, 3.036193e-001
1.216862e+003, 3.035375e-001
1.218791e+003, 3.036465e-001
1.220719e+003, 3.039926e-001
1.222648e+003, 3.039662e-001
1.224576e+003, 3.040625e-001
1.226505e+003, 3.043124e-001
1.228433e+003, 3.044223e-001
1.230362e+003, 3.045312e-001
1.232290e+003, 3.047599e-001
1.234219e+003, 3.049779e-001
1.236147e+003, 3.052498e-001
1.238076e+003, 3.054645e-001
1.240004e+003, 3.056804e-001
1.241932e+003, 3.058968e-001
1.243861e+003, 3.061362e-001
1.245789e+003, 3.064092e-001
1.247718e+003, 3.066467e-001
1.249646e+003, 3.068871e-001
1.251575e+003, 3.072863e-001
1.253503e+003, 3.075737e-001
1.255432e+003, 3.077580e-001
1.257360e+003, 3.078899e-001
1.259289e+003, 3.080952e-001
1.261217e+003, 3.083094e-001
1.263146e+003, 3.085921e-001
1.265074e+003, 3.091102e-001
1.267003e+003, 3.096402e-001
1.268931e+003, 3.101134e-001
1.270859e+003, 3.105207e-001
1.272788e+003, 3.108262e-001
1.274716e+003, 3.112953e-001
1.276645e+003, 3.118318e-001
1.278573e+003, 3.122302e-001
1.280502e+003, 3.125688e-001
1.282430e+003, 3.127775e-001
1.284359e+003, 3.130158e-001
1.286287e+003, 3.133184e-001
1.288216e+003, 3.135990e-001
1.290144e+003, 3.139263e-001
1.292073e+003, 3.143140e-001
1.294001e+003, 3.148629e-001
1.295930e+003, 3.152933e-001
1.297858e+003, 3.155313e-001
1.299786e+003, 3.159853e-001
1.301715e+003, 3.163972e-001
1.303643e+003, 3.166522e-001
1.305572e+003, 3.168665e-001
1.307500e+003, 3.173199e-001
1.309429e+003, 3.177008e-001
1.311357e+003, 3.179606e-001
1.313286e+003, 3.182977e-001
1.315214e+003, 3.187699e-001
1.317143e+003, 3.191222e-001
1.319071e+003, 3.194298e-001
1.321000e+003, 3.198261e-001
1.322928e+003, 3.203137e-001
1.324857e+003, 3.205557e-001
1.326785e+003, 3.208213e-001
1.328714e+003, 3.212731e-001
1.330642e+003, 3.216510e-001
1.332570e+003, 3.221047e-001
1.334499e+003, 3.225566e-001
1.336427e+003, 3.228815e-001
1.338356e+003, 3.232900e-001
1.340284e+003, 3.236296e-001
1.342213e+003, 3.238921e-001
1.344141e+003, 3.241978e-001
1.346070e+003, 3.245767e-001
1.347998e+003, 3.250704e-001
1.349927e+003, 3.254992e-001
1.351855e+003, 3.258253e-001
1.353784e+003, 3.261962e-001
1.355712e+003, 3.265473e-001
1.357641e+003, 3.269153e-001
1.359569e+003, 3.274397e-001
1.361497e+003, 3.279618e-001
1.363426e+003, 3.283597e-001
1.365354e+003, 3.287694e-001
1.367283e+003, 3.292125e-001
1.369211e+003, 3.297323e-001
1.371140e+003, 3.301033e-001
1.373068e+003, 3.304336e-001
1.374997e+003, 3.309382e-001
1.376925e+003, 3.312722e-001
1.378854e+003, 3.316413e-001
1.380782e+003, 3.319482e-001
1.382711e+003, 3.321176e-001
1.384639e+003, 3.324372e-001
1.386568e+003, 3.327467e-001
1.388496e+003, 3.329903e-001
1.390424e+003, 3.333740e-001
1.392353e+003, 3.337865e-001
1.394281e+003, 3.342111e-001
1.396210e+003, 3.344324e-001
1.398138e+003, 3.346498e-001
1.400067e+003, 3.349862e-001
1.401995e+003, 3.354701e-001
1.403924e+003, 3.359586e-001
1.405852e+003, 3.363129e-001
1.407781e+003, 3.366732e-001
1.409709e+003, 3.370399e-001
1.411638e+003, 3.373660e-001
1.413566e+003, 3.376898e-001
1.415495e+003, 3.381945e-001
1.417423e+003, 3.387357e-001
1.419351e+003, 3.390029e-001
1.421280e+003, 3.392794e-001
1.423208e+003, 3.396697e-001
1.425137e+003, 3.399135e-001
1.427065e+003, 3.403043e-001
1.428994e+003, 3.407961e-001
1.430922e+003, 3.410327e-001
1.432851e+003, 3.414414e-001
1.434779e+003, 3.421419e-001
1.436708e+003, 3.426814e-001
1.438636e+003, 3.429111e-001
1.440565e+003, 3.431304e-001
1.442493e+003, 3.434562e-001
1.444422e+003, 3.437347e-001
1.446350e+003, 3.440827e-001
1.448278e+003, 3.443885e-001
1.450207e+003, 3.446879e-001
1.452135e+003, 3.451473e-001
1.454064e+003, 3.455321e-001
1.455992e+003, 3.460212e-001
1.457921e+003, 3.463761e-001
1.459849e+003, 3.464013e-001
1.461778e+003, 3.463037e-001
1.463706e+003, 3.464587e-001
1.465635e+003, 3.467079e-001
1.467563e+003, 3.467085e-001
1.469492e+003, 3.467025e-001
1.471420e+003, 3.469735e-001
1.473349e+003, 3.473378e-001
1.475277e+003, 3.475335e-001
1.477205e+003, 3.476841e-001
1.479134e+003, 3.479765e-001
1.481062e+003, 3.483324e-001
1.482991e+003, 3.486321e-001
1.484919e+003, 3.489415e-001
1.486848e+003, 3.494037e-001
1.488776e+003, 3.499041e-001
1.490705e+003, 3.503125e-001
1.492633e+003, 3.506878e-001
1.494562e+003, 3.511333e-001
1.496490e+003, 3.517550e-001
1.498419e+003, 3.521010e-001
1.500347e+003, 3.523437e-001
1.502276e+003, 3.526643e-001
1.504204e+003, 3.531011e-001
1.506132e+003, 3.535583e-001
1.508061e+003, 3.538126e-001
1.509989e+003, 3.540007e-001
1.511918e+003, 3.543233e-001
1.513846e+003, 3.545255e-001
1.515775e+003, 3.548467e-001
1.517703e+003, 3.553460e-001
1.519632e+003, 3.558731e-001
1.521560e+003, 3.563038e-001
1.523489e+003, 3.564121e-001
1.525417e+003, 3.567991e-001
1.527346e+003, 3.571571e-001
1.529274e+003, 3.573058e-001
1.531203e+003, 3.576761e-001
1.533131e+003, 3.581140e-001
1.535059e+003, 3.582551e-001
1.536988e+003, 3.587304e-001
1.538916e+003, 3.595714e-001
1.540845e+003, 3.600074e-001
1.542773e+003, 3.601487e-001
1.544702e+003, 3.601754e-001
1.546630e+003, 3.604187e-001
1.548559e+003, 3.608264e-001
1.550487e+003, 3.612774e-001
1.552416e+003, 3.616441e-001
1.554344e+003, 3.618945e-001
1.556273e+003, 3.622195e-001
1.558201e+003, 3.629430e-001
1.560130e+003, 3.633932e-001
1.562058e+003, 3.633207e-001
1.563986e+003, 3.633824e-001
1.565915e+003, 3.635637e-001
1.567843e+003, 3.640772e-001
1.569772e+003, 3.645051e-001
1.571700e+003, 3.647518e-001
1.573629e+003, 3.652578e-001
1.575557e+003, 3.658474e-001
1.577486e+003, 3.660474e-001
1.579414e+003, 3.662575e-001
1.581343e+003, 3.666149e-001
1.583271e+003, 3.667409e-001
1.585200e+003, 3.669074e-001
1.587128e+003, 3.673397e-001
1.589057e+003, 3.678992e-001
1.590985e+003, 3.683035e-001
1.592913e+003, 3.687381e-001
1.594842e+003, 3.691222e-001
1.596770e+003, 3.692900e-001
1.598699e+003, 3.695519e-001
1.600627e+003, 3.699299e-001
1.602556e+003, 3.701144e-001
1.604484e+003, 3.703609e-001
1.606413e+003, 3.706191e-001
1.608341e+003, 3.710141e-001
1.610270e+003, 3.715533e-001
1.612198e+003, 3.717633e-001
1.614127e+003, 3.720144e-001
1.616055e+003, 3.725606e-001
1.617984e+003, 3.727151e-001
1.619912e+003, 3.727168e-001
1.621840e+003, 3.729858e-001
1.623769e+003, 3.733725e-001
1.625697e+003, 3.736269e-001
1.627626e+003, 3.736795e-001
1.629554e+003, 3.738716e-001
1.631483e+003, 3.742481e-001
1.633411e+003, 3.746589e-001
1.635340e+003, 3.749234e-001
1.637268e+003, 3.750324e-001
1.639197e+003, 3.752982e-001
1.641125e+003, 3.755246e-001
1.643054e+003, 3.756327e-001
1.644982e+003, 3.759982e-001
1.646911e+003, 3.761414e-001
1.648839e+003, 3.761272e-001
1.650767e+003, 3.766499e-001
1.652696e+003, 3.773959e-001
1.654624e+003, 3.772876e-001
1.656553e+003, 3.772064e-001
1.658481e+003, 3.773856e-001
1.660410e+003, 3.776928e-001
1.662338e+003, 3.779308e-001
1.664267e+003, 3.779247e-001
1.666195e+003, 3.781486e-001
1.668124e+003, 3.785070e-001
1.670052e+003, 3.788678e-001
1.671981e+003, 3.789499e-001
1.673909e+003, 3.791687e-001
1.675838e+003, 3.794743e-001
1.677766e+003, 3.796830e-001
1.679694e+003, 3.800992e-001
1.681623e+003, 3.803953e-001
1.683551e+003, 3.808892e-001
1.685480e+003, 3.812769e-001
1.687408e+003, 3.813239e-001
1.689337e+003, 3.816465e-001
1.691265e+003, 3.819926e-001
1.693194e+003, 3.821865e-001
1.695122e+003, 3.828146e-001
1.697051e+003, 3.832004e-001
1.698979e+003, 3.835545e-001
1.700908e+003, 3.838816e-001
1.702836e+003, 3.837738e-001
1.704765e+003, 3.839366e-001
1.706693e+003, 3.842213e-001
1.708621e+003, 3.843643e-001
1.710550e+003, 3.845233e-001
1.712478e+003, 3.849360e-001
1.714407e+003, 3.854265e-001
1.716335e+003, 3.860710e-001
1.718264e+003, 3.863955e-001
1.720192e+003, 3.864534e-001
1.722121e+003, 3.867742e-001
1.724049e+003, 3.871332e-001
1.725978e+003, 3.875338e-001
1.727906e+003, 3.880926e-001
1.729835e+003, 3.886168e-001
1.731763e+003, 3.888986e-001
1.733692e+003, 3.891674e-001
1.735620e+003, 3.892435e-001
1.737548e+003, 3.894726e-001
1.739477e+003, 3.894309e-001
1.741405e+003, 3.890890e-001
1.743334e+003, 3.889618e-001
1.745262e+003, 3.892270e-001
1.747191e+003, 3.894879e-001
1.749119e+003, 3.895454e-001
1.751048e+003, 3.895804e-001
1.752976e+003, 3.896211e-001
1.754905e+003, 3.897835e-001
1.756833e+003, 3.902328e-001
1.758762e+003, 3.903126e-001
1.760690e+003, 3.905054e-001
1.762619e+003, 3.910146e-001
1.764547e+003, 3.912864e-001
1.766475e+003, 3.915498e-001
1.768404e+003, 3.920077e-001
1.770332e+003, 3.923956e-001
1.772261e+003, 3.927769e-001
1.774189e+003, 3.928836e-001
1.776118e+003, 3.928299e-001
1.778046e+003, 3.928893e-001
1.779975e+003, 3.930929e-001
1.781903e+003, 3.935352e-001
1.783832e+003, 3.940291e-001
1.785760e+003, 3.941592e-001
1.787689e+003, 3.941219e-001
1.789617e+003, 3.945431e-001
1.791546e+003, 3.948353e-001
1.793474e+003, 3.948621e-001
1.795402e+003, 3.948996e-001
1.797331e+003, 3.950113e-001
1.799259e+003, 3.954861e-001
1.801188e+003, 3.958914e-001
1.803116e+003, 3.957785e-001
1.805045e+003, 3.959297e-001
1.806973e+003, 3.963492e-001
1.808902e+003, 3.966298e-001
1.810830e+003, 3.969060e-001
1.812759e+003, 3.972517e-001
1.814687e+003, 3.975593e-001
1.816616e+003, 3.977474e-001
1.818544e+003, 3.980283e-001
1.820473e+003, 3.984168e-001
1.822401e+003, 3.986215e-001
1.824329e+003, 3.986864e-001
1.826258e+003, 3.989057e-001
1.828186e+003, 3.992215e-001
1.830115e+003, 3.994883e-001
1.832043e+003, 3.997463e-001
1.833972e+003, 3.998789e-001
1.835900e+003, 3.998866e-001
1.837829e+003, 4.004365e-001
1.839757e+003, 4.008737e-001
1.841686e+003, 4.009238e-001
1.843614e+003, 4.011896e-001
1.845543e+003, 4.017486e-001
1.847471e+003, 4.021181e-001
1.849400e+003, 4.023010e-001
1.851328e+003, 4.027080e-001
1.853256e+003, 4.029650e-001
1.855185e+003, 4.030038e-001
1.857113e+003, 4.032701e-001
1.859042e+003, 4.033391e-001
1.860970e+003, 4.035193e-001
1.862899e+003, 4.037247e-001
1.864827e+003, 4.037198e-001
1.866756e+003, 4.044534e-001
1.868684e+003, 4.048167e-001
1.870613e+003, 4.046937e-001
1.872541e+003, 4.048956e-001
1.874470e+003, 4.052651e-001
1.876398e+003, 4.055646e-001
1.878327e+003, 4.059201e-001
1.880255e+003, 4.062784e-001
1.882183e+003, 4.063326e-001
1.884112e+003, 4.061141e-001
1.886040e+003, 4.068423e-001
1.887969e+003, 4.073836e-001
1.889897e+003, 4.076736e-001
1.891826e+003, 4.080805e-001
1.893754e+003, 4.080655e-001
1.895683e+003, 4.086647e-001
1.897611e+003, 4.092030e-001
1.899540e+003, 4.092522e-001
1.901468e+003, 4.094519e-001
1.903397e+003, 4.097408e-001
1.905325e+003, 4.103133e-001
1.907254e+003, 4.104613e-001
1.909182e+003, 4.104845e-001
1.911110e+003, 4.105436e-001
1.913039e+003, 4.106451e-001
1.914967e+003, 4.115081e-001
1.916896e+003, 4.123721e-001
1.918824e+003, 4.123275e-001
1.920753e+003, 4.120231e-001
1.922681e+003, 4.125835e-001
1.924610e+003, 4.130036e-001
1.926538e+003, 4.133570e-001
1.928467e+003, 4.131577e-001
1.930395e+003, 4.130118e-001
1.932324e+003, 4.137019e-001
1.934252e+003, 4.145064e-001
1.936181e+003, 4.144224e-001
1.938109e+003, 4.146078e-001
1.940037e+003, 4.149287e-001
1.941966e+003, 4.147198e-001
1.943894e+003, 4.149812e-001
1.945823e+003, 4.154474e-001
1.947751e+003, 4.157078e-001
1.949680e+003, 4.161968e-001
1.951608e+003, 4.161549e-001
1.953537e+003, 4.155015e-001
1.955465e+003, 4.149273e-001
1.957394e+003, 4.163824e-001
1.959322e+003, 4.171522e-001
1.961251e+003, 4.174928e-001
1.963179e+003, 4.170492e-001
1.965108e+003, 4.174203e-001
1.967036e+003, 4.177272e-001
1.968964e+003, 4.172445e-001
1.970893e+003, 4.184950e-001
1.972821e+003, 4.183813e-001
1.974750e+003, 4.177377e-001
1.976678e+003, 4.188485e-001
1.978607e+003, 4.202141e-001
1.980535e+003, 4.207111e-001
1.982464e+003, 4.212140e-001
1.984392e+003, 4.214748e-001
1.986321e+003, 4.209350e-001
1.988249e+003, 4.203925e-001
1.990178e+003, 4.216316e-001
1.992106e+003, 4.230324e-001
1.994035e+003, 4.222421e-001
1.995963e+003, 4.224162e-001
1.997891e+003, 4.227367e-001
1.999820e+003, 4.225225e-001
2.001748e+003, 4.216166e-001
2.003677e+003, 4.209676e-001
2.005605e+003, 4.217166e-001
2.007534e+003, 4.230981e-001
2.009462e+003, 4.235356e-001
2.011391e+003, 4.234186e-001
2.013319e+003, 4.243449e-001
2.015248e+003, 4.237800e-001
2.017176e+003, 4.233615e-001
2.019105e+003, 4.245580e-001
2.021033e+003, 4.247823e-001
2.022962e+003, 4.251294e-001
2.024890e+003, 4.250264e-001
2.026818e+003, 4.237869e-001
2.028747e+003, 4.255046e-001
2.030675e+003, 4.269689e-001
2.032604e+003, 4.280455e-001
2.034532e+003, 4.284909e-001
2.036461e+003, 4.277870e-001
2.038389e+003, 4.276368e-001
2.040318e+003, 4.286224e-001
2.042246e+003, 4.296617e-001
2.044175e+003, 4.295427e-001
2.046103e+003, 4.289488e-001
2.048031e+003, 4.292086e-001
2.049960e+003, 4.296736e-001
2.051888e+003, 4.303790e-001
2.053817e+003, 4.304311e-001
2.055745e+003, 4.307497e-001
2.057674e+003, 4.313798e-001
2.059602e+003, 4.314886e-001
2.061531e+003, 4.315391e-001
2.063459e+003, 4.307950e-001
2.065388e+003, 4.309651e-001
2.067316e+003, 4.320026e-001
2.069245e+003, 4.328163e-001
2.071173e+003, 4.335973e-001
2.073102e+003, 4.337709e-001
2.075030e+003, 4.341997e-001
2.076958e+003, 4.344797e-001
2.078887e+003, 4.343273e-001
2.080815e+003, 4.345500e-001
2.082744e+003, 4.347924e-001
2.084672e+003, 4.351922e-001
2.086601e+003, 4.351865e-001
2.088529e+003, 4.353629e-001
2.090458e+003, 4.359733e-001
2.092386e+003, 4.367441e-001
2.094315e+003, 4.372472e-001
2.096243e+003, 4.379448e-001
2.098172e+003, 4.380085e-001
2.100100e+003, 4.376073e-001
2.102029e+003, 4.381162e-001
2.103957e+003, 4.392072e-001
2.105885e+003, 4.397160e-001
2.107814e+003, 4.396615e-001
2.109742e+003, 4.394185e-001
2.111671e+003, 4.389598e-001
2.113599e+003, 4.396409e-001
2.115528e+003, 4.405981e-001
2.117456e+003, 4.405406e-001
2.119385e+003, 4.403512e-001
2.121313e+003, 4.397033e-001
2.123242e+003, 4.404379e-001
2.125170e+003, 4.414082e-001
2.127099e+003, 4.413759e-001
2.129027e+003, 4.419385e-001
2.130956e+003, 4.428191e-001
2.132884e+003, 4.422149e-001
2.134813e+003, 4.411100e-001
2.136741e+003, 4.418528e-001
2.138669e+003, 4.422289e-001
2.140598e+003, 4.427341e-001
2.142526e+003, 4.444194e-001
2.144455e+003, 4.451858e-001
2.146383e+003, 4.448002e-001
2.148312e+003, 4.444596e-001
2.150240e+003, 4.437562e-001
2.152169e+003, 4.433518e-001
2.154097e+003, 4.441800e-001
2.156026e+003, 4.443558e-001
2.157954e+003, 4.445414e-001
2.159883e+003, 4.452102e-001
2.161811e+003, 4.446851e-001
2.163740e+003, 4.448396e-001
2.165668e+003, 4.466386e-001
2.167596e+003, 4.475430e-001
2.169525e+003, 4.483534e-001
2.171453e+003, 4.479032e-001
2.173382e+003, 4.474951e-001
2.175310e+003, 4.469808e-001
2.177239e+003, 4.484243e-001
2.179167e+003, 4.492858e-001
2.181096e+003, 4.486660e-001
2.183024e+003, 4.493577e-001
2.184953e+003, 4.500351e-001
2.186881e+003, 4.502135e-001
2.188810e+003, 4.507549e-001
2.190738e+003, 4.500856e-001
2.192667e+003, 4.500805e-001
2.194595e+003, 4.507123e-001
2.196523e+003, 4.510615e-001
2.198452e+003, 4.517267e-001
2.200380e+003, 4.521639e-001
2.202309e+003, 4.520537e-001
2.204237e+003, 4.518734e-001
2.206166e+003, 4.527332e-001
2.208094e+003, 4.525101e-001
2.210023e+003, 4.527039e-001
2.211951e+003, 4.522220e-001
2.213880e+003, 4.521008e-001
2.215808e+003, 4.527681e-001
2.217737e+003, 4.540899e-001
2.219665e+003, 4.553554e-001
2.221594e+003, 4.555822e-001
2.223522e+003, 4.554846e-001
2.225450e+003, 4.554131e-001
2.227379e+003, 4.559713e-001
2.229307e+003, 4.561240e-001
2.231236e+003, 4.560525e-001
2.233164e+003, 4.568993e-001
2.235093e+003, 4.580403e-001
2.237021e+003, 4.580345e-001
2.238950e+003, 4.581044e-001
2.240878e+003, 4.580334e-001
2.242807e+003, 4.570790e-001
2.244735e+003, 4.572031e-001
2.246664e+003, 4.582286e-001
2.248592e+003, 4.591753e-001
2.250521e+003, 4.601047e-001
2.252449e+003, 4.596129e-001
2.254377e+003, 4.588400e-001
2.256306e+003, 4.590594e-001
2.258234e+003, 4.596925e-001
2.260163e+003, 4.597164e-001
2.262091e+003, 4.599241e-001
2.264020e+003, 4.598925e-001
2.265948e+003, 4.596799e-001
2.267877e+003, 4.603282e-001
2.269805e+003, 4.614372e-001
2.271734e+003, 4.610445e-001
2.273662e+003, 4.612083e-001
2.275591e+003, 4.621342e-001
2.277519e+003, 4.625709e-001
2.279448e+003, 4.625628e-001
2.281376e+003, 4.631337e-001
2.283304e+003, 4.630838e-001
2.285233e+003, 4.631609e-001
2.287161e+003, 4.634037e-001
2.289090e+003, 4.633761e-001
2.291018e+003, 4.635306e-001
2.292947e+003, 4.637378e-001
2.294875e+003, 4.635941e-001
2.296804e+003, 4.640337e-001
2.298732e+003, 4.644064e-001
2.300661e+003, 4.648877e-001
2.302589e+003, 4.651426e-001
2.304518e+003, 4.651166e-001
2.306446e+003, 4.651318e-001
2.308375e+003, 4.652938e-001
2.310303e+003, 4.654813e-001
2.312231e+003, 4.661566e-001
2.314160e+003, 4.669082e-001
2.316088e+003, 4.673003e-001
2.318017e+003, 4.674947e-001
2.319945e+003, 4.681357e-001
2.321874e+003, 4.686445e-001
2.323802e+003, 4.688375e-001
2.325731e+003, 4.688362e-001
2.327659e+003, 4.689099e-001
2.329588e+003, 4.692897e-001
2.331516e+003, 4.696029e-001
2.333445e+003, 4.699151e-001
2.335373e+003, 4.702913e-001
2.337302e+003, 4.703961e-001
2.339230e+003, 4.706049e-001
2.341158e+003, 4.708571e-001
2.343087e+003, 4.713878e-001
2.345015e+003, 4.713987e-001
2.346944e+003, 4.716463e-001
2.348872e+003, 4.717319e-001
2.350801e+003, 4.716977e-001
2.352729e+003, 4.718215e-001
2.354658e+003, 4.723409e-001
2.356586e+003, 4.729819e-001
2.358515e+003, 4.729867e-001
2.360443e+003, 4.731856e-001
2.362372e+003, 4.737054e-001
2.364300e+003, 4.742240e-001
2.366229e+003, 4.743266e-001
2.368157e+003, 4.743843e-001
2.370085e+003, 4.747561e-001
2.372014e+003, 4.749796e-001
2.373942e+003, 4.749821e-001
2.375871e+003, 4.750684e-001
2.377799e+003, 4.750077e-001
2.379728e+003, 4.751695e-001
2.381656e+003, 4.757524e-001
2.383585e+003, 4.758554e-001
2.385513e+003, 4.763258e-001
2.387442e+003, 4.764781e-001
2.389370e+003, 4.764588e-001
2.391299e+003, 4.766700e-001
2.393227e+003, 4.768574e-001
2.395156e+003, 4.771788e-001
2.397084e+003, 4.768291e-001
2.399012e+003, 4.771920e-001
2.400941e+003, 4.780605e-001
2.402869e+003, 4.779734e-001
2.404798e+003, 4.776939e-001
2.406726e+003, 4.780012e-001
2.408655e+003, 4.785275e-001
2.410583e+003, 4.790874e-001
2.412512e+003, 4.796340e-001
2.414440e+003, 4.800386e-001
2.416369e+003, 4.799114e-001
2.418297e+003, 4.794661e-001
2.420226e+003, 4.795426e-001
2.422154e+003, 4.798942e-001
2.424083e+003, 4.807221e-001
2.426011e+003, 4.807743e-001
2.427939e+003, 4.808572e-001
2.429868e+003, 4.811139e-001
2.431796e+003, 4.814767e-001
2.433725e+003, 4.812104e-001
2.435653e+003, 4.811602e-001
2.437582e+003, 4.815716e-001
2.439510e+003, 4.821995e-001
2.441439e+003, 4.828016e-001
2.443367e+003, 4.825745e-001
2.445296e+003, 4.824591e-001
2.447224e+003, 4.828396e-001
2.449153e+003, 4.830881e-001
2.451081e+003, 4.834304e-001
2.453010e+003, 4.836034e-001
2.454938e+003, 4.837987e-001
2.456866e+003, 4.842204e-001
2.458795e+003, 4.843486e-001
2.460723e+003, 4.845360e-001
2.462652e+003, 4.848359e-001
2.464580e+003, 4.852527e-001
2.466509e+003, 4.856897e-001
2.468437e+003, 4.856936e-001
2.470366e+003, 4.858671e-001
2.472294e+003, 4.861517e-001
2.474223e+003, 4.859149e-001
2.476151e+003, 4.861088e-001
2.478080e+003, 4.869114e-001
2.480008e+003, 4.873531e-001
2.481937e+003, 4.873037e-001
2.483865e+003, 4.869924e-001
2.485793e+003, 4.871571e-001
2.487722e+003, 4.878734e-001
2.489650e+003, 4.880566e-001
2.491579e+003, 4.884612e-001
2.493507e+003, 4.885272e-001
2.495436e+003, 4.886538e-001
2.497364e+003, 4.890460e-001
2.499293e+003, 4.893416e-001
2.501221e+003, 4.894686e-001
2.503150e+003, 4.894862e-001
2.505078e+003, 4.894518e-001
2.507007e+003, 4.901735e-001
2.508935e+003, 4.909765e-001
2.510864e+003, 4.909604e-001
2.512792e+003, 4.908398e-001
2.514720e+003, 4.906303e-001
2.516649e+003, 4.908077e-001
2.518577e+003, 4.911019e-001
2.520506e+003, 4.916106e-001
2.522434e+003, 4.922781e-001
2.524363e+003, 4.923456e-001
2.526291e+003, 4.925353e-001
2.528220e+003, 4.930937e-001
2.530148e+003, 4.934308e-001
2.532077e+003, 4.932290e-001
2.534005e+003, 4.936393e-001
2.535934e+003, 4.940332e-001
2.537862e+003, 4.943556e-001
2.539791e+003, 4.945409e-001
2.541719e+003, 4.945914e-001
2.543647e+003, 4.949425e-001
2.545576e+003, 4.951644e-001
2.547504e+003, 4.953237e-001
2.549433e+003, 4.956914e-001
2.551361e+003, 4.956830e-001
2.553290e+003, 4.960697e-001
2.555218e+003, 4.965793e-001
2.557147e+003, 4.968473e-001
2.559075e+003, 4.967913e-001
2.561004e+003, 4.969766e-001
2.562932e+003, 4.973295e-001
2.564861e+003, 4.979619e-001
2.566789e+003, 4.979419e-001
2.568718e+003, 4.977868e-001
2.570646e+003, 4.985496e-001
2.572574e+003, 4.988572e-001
2.574503e+003, 4.984898e-001
2.576431e+003, 4.988114e-001
2.578360e+003, 4.993260e-001
2.580288e+003, 4.997110e-001
2.582217e+003, 4.999833e-001
2.584145e+003, 5.000789e-001
2.586074e+003, 5.003742e-001
2.588002e+003, 5.004608e-001
2.589931e+003, 5.012098e-001
2.591859e+003, 5.018191e-001
2.593788e+003, 5.016789e-001
2.595716e+003, 5.016018e-001
2.597645e+003, 5.018491e-001
2.599573e+003, 5.025231e-001
2.601501e+003, 5.030062e-001
2.603430e+003, 5.031962e-001
2.605358e+003, 5.034318e-001
2.607287e+003, 5.034700e-001
2.609215e+003, 5.036517e-001
2.611144e+003, 5.042688e-001
2.613072e+003, 5.049150e-001
2.615001e+003, 5.052344e-001
2.616929e+003, 5.053663e-001
2.618858e+003, 5.055837e-001
2.620786e+003, 5.058146e-001
2.622715e+003, 5.065212e-001
2.624643e+003, 5.072696e-001
2.626572e+003, 5.075512e-001
2.628500e+003, 5.076285e-001
2.630428e+003, 5.080536e-001
2.632357e+003, 5.082670e-001
2.634285e+003, 5.080312e-001
2.636214e+003, 5.082656e-001
2.638142e+003, 5.088881e-001
2.640071e+003, 5.093364e-001
2.641999e+003, 5.097858e-001
2.643928e+003, 5.102278e-001
2.645856e+003, 5.101380e-001
2.647785e+003, 5.103331e-001
2.649713e+003, 5.108503e-001
2.651642e+003, 5.113000e-001
2.653570e+003, 5.116511e-001
2.655499e+003, 5.115777e-001
2.657427e+003, 5.120391e-001
2.659355e+003, 5.124670e-001
2.661284e+003, 5.125045e-001
2.663212e+003, 5.127248e-001
2.665141e+003, 5.131447e-001
2.667069e+003, 5.135518e-001
2.668998e+003, 5.139251e-001
2.670926e+003, 5.139812e-001
2.672855e+003, 5.139741e-001
2.674783e+003, 5.144214e-001
2.676712e+003, 5.146407e-001
2.678640e+003, 5.146262e-001
2.680569e+003, 5.151041e-001
2.682497e+003, 5.157941e-001
2.684426e+003, 5.161700e-001
2.686354e+003, 5.159796e-001
2.688282e+003, 5.159326e-001
2.690211e+003, 5.162778e-001
2.692139e+003, 5.167421e-001
2.694068e+003, 5.170465e-001
2.695996e+003, 5.168975e-001
2.697925e+003, 5.170954e-001
2.699853e+003, 5.175886e-001
2.701782e+003, 5.180234e-001
2.703710e+003, 5.181525e-001
2.705639e+003, 5.181030e-001
2.707567e+003, 5.183145e-001
2.709496e+003, 5.187812e-001
2.711424e+003, 5.190695e-001
2.713353e+003, 5.191762e-001
2.715281e+003, 5.191937e-001
2.717209e+003, 5.196515e-001
2.719138e+003, 5.202268e-001
2.721066e+003, 5.204283e-001
2.722995e+003, 5.204940e-001
2.724923e+003, 5.208829e-001
2.726852e+003, 5.210887e-001
2.728780e+003, 5.212511e-001
2.730709e+003, 5.215658e-001
2.732637e+003, 5.219647e-001
2.734566e+003, 5.222113e-001
2.736494e+003, 5.223860e-001
2.738423e+003, 5.223934e-001
2.740351e+003, 5.225776e-001
2.742280e+003, 5.229654e-001
2.744208e+003, 5.231264e-001
2.746136e+003, 5.233562e-001
2.748065e+003, 5.238883e-001
2.749993e+003, 5.242499e-001
2.751922e+003, 5.241917e-001
2.753850e+003, 5.242923e-001
2.755779e+003, 5.244899e-001
2.757707e+003, 5.248706e-001
2.759636e+003, 5.250884e-001
2.761564e+003, 5.253171e-001
2.763493e+003, 5.253827e-001
2.765421e+003, 5.254710e-001
2.767350e+003, 5.260499e-001
2.769278e+003, 5.266986e-001
2.771207e+003, 5.268562e-001
2.773135e+003, 5.268483e-001
2.775063e+003, 5.268821e-001
2.776992e+003, 5.268502e-001
2.778920e+003, 5.271494e-001
2.780849e+003, 5.278183e-001
2.782777e+003, 5.281098e-001
2.784706e+003, 5.280157e-001
2.786634e+003, 5.280074e-001
2.788563e+003, 5.287749e-001
2.790491e+003, 5.293012e-001
2.792420e+003, 5.289915e-001
2.794348e+003, 5.290852e-001
2.796277e+003, 5.294683e-001
2.798205e+003, 5.299929e-001
2.800134e+003, 5.301763e-001
2.802062e+003, 5.302271e-001
2.803990e+003, 5.305666e-001
2.805919e+003, 5.306431e-001
2.807847e+003, 5.310247e-001
2.809776e+003, 5.313472e-001
2.811704e+003, 5.314041e-001
2.813633e+003, 5.319234e-001
2.815561e+003, 5.326213e-001
2.817490e+003, 5.329832e-001
2.819418e+003, 5.331054e-001
2.821347e+003, 5.330841e-001
2.823275e+003, 5.333010e-001
2.825204e+003, 5.337700e-001
2.827132e+003, 5.340976e-001
2.829061e+003, 5.341911e-001
2.830989e+003, 5.346089e-001
2.832917e+003, 5.353165e-001
2.834846e+003, 5.356214e-001
2.836774e+003, 5.356423e-001
2.838703e+003, 5.358699e-001
2.840631e+003, 5.360556e-001
2.842560e+003, 5.359815e-001
2.844488e+003, 5.360867e-001
2.846417e+003, 5.364025e-001
2.848345e+003, 5.362000e-001
2.850274e+003, 5.362939e-001
2.852202e+003, 5.366184e-001
2.854131e+003, 5.369141e-001
2.856059e+003, 5.370516e-001
2.857988e+003, 5.372067e-001
2.859916e+003, 5.373139e-001
2.861844e+003, 5.374236e-001
2.863773e+003, 5.375764e-001
2.865701e+003, 5.379373e-001
2.867630e+003, 5.382701e-001
2.869558e+003, 5.385663e-001
2.871487e+003, 5.391646e-001
2.873415e+003, 5.396840e-001
2.875344e+003, 5.398046e-001
2.877272e+003, 5.397990e-001
2.879201e+003, 5.400776e-001
2.881129e+003, 5.406735e-001
2.883058e+003, 5.408847e-001
2.884986e+003, 5.406882e-001
2.886915e+003, 5.408257e-001
2.888843e+003, 5.413586e-001
2.890771e+003, 5.417582e-001
2.892700e+003, 5.419441e-001
2.894628e+003, 5.419469e-001
2.896557e+003, 5.423403e-001
2.898485e+003, 5.425745e-001
2.900414e+003, 5.426570e-001
2.902342e+003, 5.431194e-001
2.904271e+003, 5.436639e-001
2.906199e+003, 5.436248e-001
2.908128e+003, 5.433722e-001
2.910056e+003, 5.439463e-001
2.911985e+003, 5.444129e-001
2.913913e+003, 5.441421e-001
2.915842e+003, 5.440860e-001
2.917770e+003, 5.440081e-001
2.919698e+003, 5.443518e-001
2.921627e+003, 5.449622e-001
2.923555e+003, 5.447778e-001
2.925484e+003, 5.443369e-001
2.927412e+003, 5.441893e-001
2.929341e+003, 5.441290e-001
2.931269e+003, 5.440303e-001
2.933198e+003, 5.441530e-001
2.935126e+003, 5.446614e-001
2.937055e+003, 5.450275e-001
2.938983e+003, 5.454207e-001
2.940912e+003, 5.458115e-001
2.942840e+003, 5.461500e-001
2.944769e+003, 5.464653e-001
2.946697e+003, 5.463767e-001
2.948625e+003, 5.459118e-001
2.950554e+003, 5.463032e-001
2.952482e+003, 5.469418e-001
2.954411e+003, 5.469814e-001
2.956339e+003, 5.467484e-001
2.958268e+003, 5.467743e-001
2.960196e+003, 5.471973e-001
2.962125e+003, 5.478609e-001
2.964053e+003, 5.481214e-001
2.965982e+003, 5.476226e-001
2.967910e+003, 5.469966e-001
2.969839e+003, 5.469018e-001
2.971767e+003, 5.470897e-001
2.973696e+003, 5.474355e-001
2.975624e+003, 5.480059e-001
2.977552e+003, 5.483173e-001
2.979481e+003, 5.481243e-001
2.981409e+003, 5.481172e-001
2.983338e+003, 5.483819e-001
2.985266e+003, 5.487334e-001
2.987195e+003, 5.487785e-001
2.989123e+003, 5.485693e-001
2.991052e+003, 5.486255e-001
2.992980e+003, 5.486411e-001
2.994909e+003, 5.492987e-001
2.996837e+003, 5.498539e-001
2.998766e+003, 5.497444e-001
3.000694e+003, 5.497807e-001
3.002623e+003, 5.504268e-001
3.004551e+003, 5.509877e-001
3.006479e+003, 5.512098e-001
3.008408e+003, 5.513334e-001
3.010336e+003, 5.515821e-001
3.012265e+003, 5.517896e-001
3.014193e+003, 5.517365e-001
3.016122e+003, 5.517693e-001
3.018050e+003, 5.520654e-001
3.019979e+003, 5.521443e-001
3.021907e+003, 5.527924e-001
3.023836e+003, 5.538294e-001
3.025764e+003, 5.538245e-001
3.027693e+003, 5.538634e-001
3.029621e+003, 5.543491e-001
3.031550e+003, 5.545064e-001
3.033478e+003, 5.542060e-001
3.035406e+003, 5.547040e-001
3.037335e+003, 5.553957e-001
3.039263e+003, 5.558851e-001
3.041192e+003, 5.559024e-001
3.043120e+003, 5.553393e-001
3.045049e+003, 5.555405e-001
3.046977e+003, 5.562850e-001
3.048906e+003, 5.565677e-001
3.050834e+003, 5.569798e-001
3.052763e+003, 5.574770e-001
3.054691e+003, 5.571378e-001
3.056620e+003, 5.568736e-001
3.058548e+003, 5.573066e-001
3.060477e+003, 5.578876e-001
3.062405e+003, 5.582112e-001
3.064333e+003, 5.588220e-001
3.066262e+003, 5.589738e-001
3.068190e+003, 5.590687e-001
3.070119e+003, 5.593380e-001
3.072047e+003, 5.594569e-001
3.073976e+003, 5.598174e-001
3.075904e+003, 5.599711e-001
3.077833e+003, 5.600744e-001
3.079761e+003, 5.605872e-001
3.081690e+003, 5.610779e-001
3.083618e+003, 5.612928e-001
3.085547e+003, 5.613790e-001
3.087475e+003, 5.615259e-001
3.089404e+003, 5.617645e-001
3.091332e+003, 5.617494e-001
3.093260e+003, 5.621144e-001
3.095189e+003, 5.621156e-001
3.097117e+003, 5.619643e-001
3.099046e+003, 5.623013e-001
3.100974e+003, 5.624235e-001
3.102903e+003, 5.625198e-001
3.104831e+003, 5.628895e-001
3.106760e+003, 5.635856e-001
3.108688e+003, 5.642700e-001
3.110617e+003, 5.643795e-001
3.112545e+003, 5.643803e-001
3.114474e+003, 5.645350e-001
3.116402e+003, 5.645225e-001
3.118331e+003, 5.649968e-001
3.120259e+003, 5.655543e-001
3.122188e+003, 5.659947e-001
3.124116e+003, 5.660475e-001
3.126044e+003, 5.663951e-001
3.127973e+003, 5.670743e-001
3.129901e+003, 5.672253e-001
3.131830e+003, 5.669990e-001
3.133758e+003, 5.664806e-001
3.135687e+003, 5.665745e-001
3.137615e+003, 5.670329e-001
3.139544e+003, 5.676309e-001
3.141472e+003, 5.682105e-001
3.143401e+003, 5.686437e-001
3.145329e+003, 5.687615e-001
3.147258e+003, 5.684634e-001
3.149186e+003, 5.686154e-001
3.151115e+003, 5.689213e-001
3.153043e+003, 5.688466e-001
3.154971e+003, 5.689769e-001
3.156900e+003, 5.695707e-001
3.158828e+003, 5.697887e-001
3.160757e+003, 5.700830e-001
3.162685e+003, 5.707718e-001
3.164614e+003, 5.708012e-001
3.166542e+003, 5.705332e-001
3.168471e+003, 5.710725e-001
3.170399e+003, 5.718169e-001
3.172328e+003, 5.715938e-001
3.174256e+003, 5.711819e-001
3.176185e+003, 5.716228e-001
3.178113e+003, 5.719980e-001
3.180042e+003, 5.721392e-001
3.181970e+003, 5.721245e-001
3.183898e+003, 5.722169e-001
3.185827e+003, 5.729105e-001
3.187755e+003, 5.734771e-001
3.189684e+003, 5.729762e-001
3.191612e+003, 5.728737e-001
3.193541e+003, 5.738438e-001
3.195469e+003, 5.743815e-001
3.197398e+003, 5.741783e-001
3.199326e+003, 5.740366e-001
3.201255e+003, 5.743520e-001
3.203183e+003, 5.747519e-001
3.205112e+003, 5.742205e-001
3.207040e+003, 5.746718e-001
3.208969e+003, 5.754072e-001
3.210897e+003, 5.757887e-001
3.212825e+003, 5.754924e-001
3.214754e+003, 5.756336e-001
3.216682e+003, 5.762371e-001
3.218611e+003, 5.760709e-001
3.220539e+003, 5.763916e-001
3.222468e+003, 5.772028e-001
3.224396e+003, 5.772443e-001
3.226325e+003, 5.769081e-001
3.228253e+003, 5.771899e-001
3.230182e+003, 5.771821e-001
3.232110e+003, 5.780315e-001
3.234039e+003, 5.789318e-001
3.235967e+003, 5.789853e-001
3.237896e+003, 5.785410e-001
3.239824e+003, 5.781208e-001
3.241752e+003, 5.782017e-001
3.243681e+003, 5.784407e-001
3.245609e+003, 5.781379e-001
3.247538e+003, 5.779600e-001
3.249466e+003, 5.790809e-001
3.251395e+003, 5.799357e-001
3.253323e+003, 5.800378e-001
3.255252e+003, 5.809018e-001
3.257180e+003, 5.811148e-001
3.259109e+003, 5.803295e-001
3.261037e+003, 5.807336e-001
3.262966e+003, 5.813376e-001
3.264894e+003, 5.814692e-001
3.266823e+003, 5.818163e-001
3.268751e+003, 5.820314e-001
3.270679e+003, 5.817040e-001
3.272608e+003, 5.816733e-001
3.274536e+003, 5.819297e-001
3.276465e+003, 5.824414e-001
3.278393e+003, 5.824366e-001
3.280322e+003, 5.826249e-001
3.282250e+003, 5.825551e-001
3.284179e+003, 5.828345e-001
3.286107e+003, 5.833327e-001
3.288036e+003, 5.835010e-001
3.289964e+003, 5.835099e-001
3.291893e+003, 5.837379e-001
3.293821e+003, 5.838576e-001
3.295750e+003, 5.840354e-001
3.297678e+003, 5.844006e-001
3.299606e+003, 5.845837e-001
3.301535e+003, 5.847948e-001
3.303463e+003, 5.852802e-001
3.305392e+003, 5.855773e-001
3.307320e+003, 5.856839e-001
3.309249e+003, 5.860146e-001
3.311177e+003, 5.861131e-001
3.313106e+003, 5.860056e-001
3.315034e+003, 5.858547e-001
3.316963e+003, 5.863001e-001
3.318891e+003, 5.872063e-001
3.320820e+003, 5.876101e-001
3.322748e+003, 5.873214e-001
3.324677e+003, 5.866074e-001
3.326605e+003, 5.864071e-001
3.328533e+003, 5.866457e-001
3.330462e+003, 5.869848e-001
3.332390e+003, 5.874911e-001
3.334319e+003, 5.879031e-001
3.336247e+003, 5.879435e-001
3.338176e+003, 5.880244e-001
3.340104e+003, 5.885018e-001
3.342033e+003, 5.887421e-001
3.343961e+003, 5.883036e-001
3.345890e+003, 5.883809e-001
3.347818e+003, 5.890700e-001
3.349747e+003, 5.892569e-001
3.351675e+003, 5.892797e-001
3.353604e+003, 5.892724e-001
3.355532e+003, 5.896862e-001
3.357460e+003, 5.901762e-001
3.359389e+003, 5.901411e-001
3.361317e+003, 5.898719e-001
3.363246e+003, 5.904313e-001
3.365174e+003, 5.911260e-001
3.367103e+003, 5.911499e-001
3.369031e+003, 5.912237e-001
3.370960e+003, 5.911871e-001
3.372888e+003, 5.913160e-001
3.374817e+003, 5.919572e-001
3.376745e+003, 5.923826e-001
3.378674e+003, 5.925985e-001
3.380602e+003, 5.930825e-001
3.382531e+003, 5.931914e-001
3.384459e+003, 5.926426e-001
3.386387e+003, 5.927587e-001
3.388316e+003, 5.929143e-001
3.390244e+003, 5.929028e-001
3.392173e+003, 5.931804e-001
3.394101e+003, 5.934606e-001
3.396030e+003, 5.932087e-001
3.397958e+003, 5.931236e-001
3.399887e+003, 5.935280e-001
3.401815e+003, 5.942274e-001
3.403744e+003, 5.942845e-001
3.405672e+003, 5.945373e-001
3.407601e+003, 5.949414e-001
3.409529e+003, 5.951493e-001
3.411458e+003, 5.943942e-001
3.413386e+003, 5.941167e-001
3.415314e+003, 5.947384e-001
3.417243e+003, 5.951799e-001
3.419171e+003, 5.963111e-001
3.421100e+003, 5.963007e-001
3.423028e+003, 5.959648e-001
3.424957e+003, 5.959226e-001
3.426885e+003, 5.957407e-001
3.428814e+003, 5.957271e-001
3.430742e+003, 5.965099e-001
3.432671e+003, 5.967275e-001
3.434599e+003, 5.967403e-001
3.436528e+003, 5.967905e-001
3.438456e+003, 5.966523e-001
3.440385e+003, 5.965123e-001
3.442313e+003, 5.968400e-001
3.444241e+003, 5.978414e-001
3.446170e+003, 5.982412e-001
3.448098e+003, 5.975935e-001
3.450027e+003, 5.980142e-001
3.451955e+003, 5.985323e-001
3.453884e+003, 5.982966e-001
3.455812e+003, 5.979033e-001
3.457741e+003, 5.979230e-001
3.459669e+003, 5.985168e-001
3.461598e+003, 5.988840e-001
3.463526e+003, 5.986522e-001
3.465455e+003, 5.984723e-001
3.467383e+003, 5.989091e-001
3.469312e+003, 5.991372e-001
3.471240e+003, 5.988408e-001
3.473168e+003, 5.992531e-001
3.475097e+003, 5.999534e-001
3.477025e+003, 5.997044e-001
3.478954e+003, 5.990589e-001
3.480882e+003, 6.001728e-001
3.482811e+003, 6.002671e-001
3.484739e+003, 5.998083e-001
3.486668e+003, 6.007553e-001
3.488596e+003, 6.011287e-001
3.490525e+003, 6.010405e-001
3.492453e+003, 6.012839e-001
3.494382e+003, 6.012467e-001
3.496310e+003, 6.006330e-001
3.498239e+003, 6.003080e-001
3.500167e+003, 6.010079e-001
3.502095e+003, 6.015229e-001
3.504024e+003, 6.015379e-001
3.505952e+003, 6.011442e-001
3.507881e+003, 6.010721e-001
3.509809e+003, 6.011812e-001
3.511738e+003, 6.013324e-001
3.513666e+003, 6.011804e-001
3.515595e+003, 6.014493e-001
3.517523e+003, 6.019928e-001
3.519452e+003, 6.021721e-001
3.521380e+003, 6.025952e-001
3.523309e+003, 6.026006e-001
3.525237e+003, 6.020042e-001
3.527166e+003, 6.018782e-001
3.529094e+003, 6.021239e-001
3.531022e+003, 6.028784e-001
3.532951e+003, 6.032542e-001
3.534879e+003, 6.028875e-001
3.536808e+003, 6.032287e-001
3.538736e+003, 6.033536e-001
3.540665e+003, 6.037033e-001
3.542593e+003, 6.039451e-001
3.544522e+003, 6.036208e-001
3.546450e+003, 6.027125e-001
3.548379e+003, 6.022367e-001
3.550307e+003, 6.032031e-001
3.552236e+003, 6.038296e-001
3.554164e+003, 6.047177e-001
3.556093e+003, 6.047269e-001
3.558021e+003, 6.040762e-001
3.559949e+003, 6.037931e-001
3.561878e+003, 6.037589e-001
3.563806e+003, 6.048689e-001
3.565735e+003, 6.059478e-001
3.567663e+003, 6.065099e-001
3.569592e+003, 6.063537e-001
3.571520e+003, 6.051701e-001
3.573449e+003, 6.044541e-001
3.575377e+003, 6.045284e-001
3.577306e+003, 6.050421e-001
3.579234e+003, 6.054431e-001
3.581163e+003, 6.060908e-001
3.583091e+003, 6.065463e-001
3.585020e+003, 6.075723e-001
3.586948e+003, 6.083521e-001
3.588876e+003, 6.086309e-001
3.590805e+003, 6.080800e-001
3.592733e+003, 6.079959e-001
3.594662e+003, 6.078730e-001
3.596590e+003, 6.075788e-001
3.598519e+003, 6.079352e-001
3.600447e+003, 6.077655e-001
3.602376e+003, 6.077805e-001
3.604304e+003, 6.077533e-001
3.606233e+003, 6.077190e-001
3.608161e+003, 6.082729e-001
3.610090e+003, 6.091247e-001
3.612018e+003, 6.101330e-001
3.613947e+003, 6.106185e-001
3.615875e+003, 6.102124e-001
3.617803e+003, 6.102160e-001
3.619732e+003, 6.106219e-001
3.621660e+003, 6.107517e-001
3.623589e+003, 6.110525e-001
3.625517e+003, 6.112635e-001
3.627446e+003, 6.108821e-001
3.629374e+003, 6.107080e-001
3.631303e+003, 6.111500e-001
3.633231e+003, 6.113228e-001
3.635160e+003, 6.116778e-001
3.637088e+003, 6.134151e-001
3.639017e+003, 6.139140e-001
3.640945e+003, 6.136619e-001
3.642874e+003, 6.129318e-001
3.644802e+003, 6.124008e-001
3.646730e+003, 6.133364e-001
3.648659e+003, 6.138944e-001
3.650587e+003, 6.138608e-001
3.652516e+003, 6.138706e-001
3.654444e+003, 6.138477e-001
3.656373e+003, 6.138194e-001
3.658301e+003, 6.141489e-001
3.660230e+003, 6.146408e-001
3.662158e+003, 6.153790e-001
3.664087e+003, 6.156697e-001
3.666015e+003, 6.164401e-001
3.667944e+003, 6.174378e-001
3.669872e+003, 6.180891e-001
3.671801e+003, 6.172817e-001
3.673729e+003, 6.171929e-001
3.675657e+003, 6.181905e-001
3.677586e+003, 6.180050e-001
3.679514e+003, 6.179005e-001
3.681443e+003, 6.183451e-001
3.683371e+003, 6.188436e-001
3.685300e+003, 6.196880e-001
3.687228e+003, 6.203462e-001
3.689157e+003, 6.202419e-001
3.691085e+003, 6.194034e-001
3.693014e+003, 6.189659e-001
3.694942e+003, 6.197723e-001
3.696871e+003, 6.198931e-001
3.698799e+003, 6.202133e-001
3.700728e+003, 6.209876e-001
3.702656e+003, 6.209300e-001
3.704584e+003, 6.205426e-001
3.706513e+003, 6.206563e-001
3.708441e+003, 6.215801e-001
3.710370e+003, 6.222066e-001
3.712298e+003, 6.215302e-001
3.714227e+003, 6.209309e-001
3.716155e+003, 6.216719e-001
3.718084e+003, 6.228081e-001
3.720012e+003, 6.227018e-001
3.721941e+003, 6.231993e-001
3.723869e+003, 6.243633e-001
3.725798e+003, 6.254568e-001
3.727726e+003, 6.252746e-001
3.729655e+003, 6.251120e-001
3.731583e+003, 6.254575e-001
3.733511e+003, 6.255619e-001
3.735440e+003, 6.263917e-001
3.737368e+003, 6.270540e-001
3.739297e+003, 6.265544e-001
3.741225e+003, 6.261977e-001
3.743154e+003, 6.272600e-001
3.745082e+003, 6.275185e-001
3.747011e+003, 6.268764e-001
3.748939e+003, 6.272241e-001
3.750868e+003, 6.276749e-001
3.752796e+003, 6.271548e-001
3.754725e+003, 6.267591e-001
3.756653e+003, 6.275253e-001
3.758582e+003, 6.272764e-001
3.760510e+003, 6.274694e-001
3.762438e+003, 6.290876e-001
3.764367e+003, 6.299607e-001
3.766295e+003, 6.287692e-001
3.768224e+003, 6.281065e-001
3.770152e+003, 6.288822e-001
3.772081e+003, 6.296713e-001
3.774009e+003, 6.297076e-001
3.775938e+003, 6.297170e-001
3.777866e+003, 6.297804e-001
3.779795e+003, 6.294005e-001
3.781723e+003, 6.291038e-001
3.783652e+003, 6.300829e-001
3.785580e+003, 6.311129e-001
3.787509e+003, 6.306728e-001
3.789437e+003, 6.302444e-001
3.791365e+003, 6.303775e-001
3.793294e+003, 6.314155e-001
3.795222e+003, 6.325852e-001
3.797151e+003, 6.324486e-001
3.799079e+003, 6.314896e-001
3.801008e+003, 6.322420e-001
3.802936e+003, 6.331965e-001
3.804865e+003, 6.334129e-001
3.806793e+003, 6.330763e-001
3.808722e+003, 6.326244e-001
3.810650e+003, 6.328120e-001
3.812579e+003, 6.329612e-001
3.814507e+003, 6.334540e-001
3.816436e+003, 6.341938e-001
3.818364e+003, 6.342797e-001
3.820292e+003, 6.350453e-001
3.822221e+003, 6.353554e-001
3.824149e+003, 6.348187e-001
3.826078e+003, 6.349450e-001
3.828006e+003, 6.356375e-001
3.829935e+003, 6.368526e-001
3.831863e+003, 6.374292e-001
3.833792e+003, 6.370901e-001
3.835720e+003, 6.366419e-001
3.837649e+003, 6.372040e-001
3.839577e+003, 6.373153e-001
3.841506e+003, 6.373429e-001
3.843434e+003, 6.374861e-001
3.845363e+003, 6.376601e-001
3.847291e+003, 6.367781e-001
3.849219e+003, 6.362544e-001
3.851148e+003, 6.370887e-001
3.853076e+003, 6.386606e-001
3.855005e+003, 6.397504e-001
3.856933e+003, 6.394621e-001
3.858862e+003, 6.389199e-001
3.860790e+003, 6.382412e-001
3.862719e+003, 6.389317e-001
3.864647e+003, 6.403380e-001
3.866576e+003, 6.403242e-001
3.868504e+003, 6.404670e-001
3.870433e+003, 6.410706e-001
3.872361e+003, 6.412901e-001
3.874290e+003, 6.405638e-001
3.876218e+003, 6.408147e-001
3.878146e+003, 6.417037e-001
3.880075e+003, 6.418037e-001
3.882003e+003, 6.416571e-001
3.883932e+003, 6.418815e-001
3.885860e+003, 6.427283e-001
3.887789e+003, 6.433212e-001
3.889717e+003, 6.431760e-001
3.891646e+003, 6.430275e-001
3.893574e+003, 6.433882e-001
3.895503e+003, 6.436933e-001
3.897431e+003, 6.438420e-001
3.899360e+003, 6.438244e-001
3.901288e+003, 6.436241e-001
3.903217e+003, 6.435437e-001
3.905145e+003, 6.434011e-001
3.907073e+003, 6.442165e-001
3.909002e+003, 6.445817e-001
3.910930e+003, 6.441280e-001
3.912859e+003, 6.440124e-001
3.914787e+003, 6.449001e-001
3.916716e+003, 6.452329e-001
3.918644e+003, 6.452806e-001
3.920573e+003, 6.454185e-001
3.922501e+003, 6.455235e-001
3.924430e+003, 6.457276e-001
3.926358e+003, 6.462164e-001
3.928287e+003, 6.466678e-001
3.930215e+003, 6.478726e-001
3.932144e+003, 6.477449e-001
3.934072e+003, 6.471030e-001
3.936000e+003, 6.475063e-001
3.937929e+003, 6.482056e-001
3.939857e+003, 6.476481e-001
3.941786e+003, 6.475424e-001
3.943714e+003, 6.481228e-001
3.945643e+003, 6.475564e-001
3.947571e+003, 6.478660e-001
3.949500e+003, 6.486931e-001
3.951428e+003, 6.493731e-001
3.953357e+003, 6.504338e-001
3.955285e+003, 6.502975e-001
3.957214e+003, 6.494074e-001
3.959142e+003, 6.497349e-001
3.961071e+003, 6.502194e-001
3.962999e+003, 6.499700e-001
3.964927e+003, 6.506239e-001
3.966856e+003, 6.506817e-001
3.968784e+003, 6.504111e-001
3.970713e+003, 6.514286e-001
3.972641e+003, 6.514231e-001
3.974570e+003, 6.505462e-001
3.976498e+003, 6.507939e-001
3.978427e+003, 6.517463e-001
3.980355e+003, 6.522792e-001
3.982284e+003, 6.522937e-001
3.984212e+003, 6.523356e-001
3.986141e+003, 6.520815e-001
3.988069e+003, 6.528440e-001
3.989998e+003, 6.530362e-001
3.991926e+003, 6.529278e-001
3.993854e+003, 6.529611e-001
3.995783e+003, 6.537337e-001
3.997711e+003, 6.541186e-001
3.999640e+003, 6.532952e-001
##END=



