##NAMES=Destinezite
##RRUFFID=R050631
##IDEAL CHEMISTRY=Fe^3+^_2_(PO_4_)(S^6+^O_4_)(OH)&#183;6H_2_O
##LOCALITY=Patagonia Mountains, Arizona, USA
##OWNER=RRUFF
##SOURCE=University of Arizona Mineral Museum
##DESCRIPTION=Colorless acicular crystal
##STATUS=The identification of this mineral has been confirmed by X-ray diffraction.
##URL=rruff.info/R050631
3.741225e+002, 2.473017e-001
3.760510e+002, 2.595171e-001
3.779795e+002, 2.543668e-001
3.799079e+002, 2.481547e-001
3.818364e+002, 2.561878e-001
3.837649e+002, 2.704690e-001
3.856933e+002, 2.880252e-001
3.876218e+002, 2.874678e-001
3.895503e+002, 2.923858e-001
3.914787e+002, 3.081281e-001
3.934072e+002, 3.068407e-001
3.953357e+002, 2.936593e-001
3.972641e+002, 2.910336e-001
3.991926e+002, 2.893065e-001
4.011211e+002, 2.887011e-001
4.030495e+002, 2.789316e-001
4.049780e+002, 2.684178e-001
4.069065e+002, 2.625669e-001
4.088349e+002, 2.600620e-001
4.107634e+002, 2.565800e-001
4.126919e+002, 2.441084e-001
4.146203e+002, 2.351079e-001
4.165488e+002, 2.300486e-001
4.184773e+002, 2.239348e-001
4.204057e+002, 2.198127e-001
4.223342e+002, 2.170690e-001
4.242627e+002, 2.128835e-001
4.261911e+002, 2.103197e-001
4.281196e+002, 2.069188e-001
4.300481e+002, 2.023539e-001
4.319765e+002, 1.982343e-001
4.339050e+002, 1.937670e-001
4.358335e+002, 1.900398e-001
4.377619e+002, 1.885070e-001
4.396904e+002, 1.864766e-001
4.416189e+002, 1.851178e-001
4.435473e+002, 1.855290e-001
4.454758e+002, 1.863537e-001
4.474043e+002, 1.877914e-001
4.493327e+002, 1.888927e-001
4.512612e+002, 1.892780e-001
4.531897e+002, 1.909937e-001
4.551181e+002, 1.928064e-001
4.570466e+002, 1.941037e-001
4.589751e+002, 1.955348e-001
4.609035e+002, 1.966002e-001
4.628320e+002, 1.980141e-001
4.647605e+002, 1.989027e-001
4.666889e+002, 2.011369e-001
4.686174e+002, 2.031463e-001
4.705459e+002, 2.046832e-001
4.724743e+002, 2.059155e-001
4.744028e+002, 2.061865e-001
4.763313e+002, 2.049786e-001
4.782597e+002, 2.044539e-001
4.801882e+002, 2.046300e-001
4.821167e+002, 2.040883e-001
4.840451e+002, 2.027011e-001
4.859736e+002, 2.019496e-001
4.879021e+002, 2.022098e-001
4.898305e+002, 2.024290e-001
4.917590e+002, 2.016142e-001
4.936875e+002, 2.005744e-001
4.956159e+002, 1.983930e-001
4.975444e+002, 1.948804e-001
4.994729e+002, 1.913727e-001
5.014013e+002, 1.881710e-001
5.033298e+002, 1.849173e-001
5.052583e+002, 1.826542e-001
5.071867e+002, 1.818648e-001
5.091152e+002, 1.800840e-001
5.110437e+002, 1.797803e-001
5.129721e+002, 1.809549e-001
5.149006e+002, 1.818313e-001
5.168290e+002, 1.836642e-001
5.187575e+002, 1.859883e-001
5.206860e+002, 1.878365e-001
5.226144e+002, 1.898921e-001
5.245429e+002, 1.932657e-001
5.264714e+002, 1.963928e-001
5.283998e+002, 1.983914e-001
5.303283e+002, 1.992215e-001
5.322568e+002, 1.992934e-001
5.341852e+002, 1.992718e-001
5.361137e+002, 1.983078e-001
5.380422e+002, 1.969510e-001
5.399706e+002, 1.950813e-001
5.418991e+002, 1.943303e-001
5.438276e+002, 1.946989e-001
5.457560e+002, 1.957863e-001
5.476845e+002, 1.968418e-001
5.496130e+002, 1.981014e-001
5.515414e+002, 1.987206e-001
5.534699e+002, 1.988890e-001
5.553984e+002, 1.982410e-001
5.573268e+002, 1.956138e-001
5.592553e+002, 1.911481e-001
5.611838e+002, 1.849532e-001
5.631122e+002, 1.780612e-001
5.650407e+002, 1.723305e-001
5.669692e+002, 1.668067e-001
5.688976e+002, 1.624334e-001
5.708261e+002, 1.600009e-001
5.727546e+002, 1.584956e-001
5.746830e+002, 1.576948e-001
5.766115e+002, 1.574289e-001
5.785400e+002, 1.578245e-001
5.804684e+002, 1.590272e-001
5.823969e+002, 1.610700e-001
5.843254e+002, 1.632393e-001
5.862538e+002, 1.659375e-001
5.881823e+002, 1.688874e-001
5.901108e+002, 1.721106e-001
5.920392e+002, 1.762006e-001
5.939677e+002, 1.806069e-001
5.958962e+002, 1.850676e-001
5.978246e+002, 1.896488e-001
5.997531e+002, 1.935241e-001
6.016816e+002, 1.954198e-001
6.036100e+002, 1.948223e-001
6.055385e+002, 1.927548e-001
6.074670e+002, 1.903709e-001
6.093954e+002, 1.878350e-001
6.113239e+002, 1.856314e-001
6.132524e+002, 1.836268e-001
6.151808e+002, 1.810574e-001
6.171093e+002, 1.771570e-001
6.190378e+002, 1.719616e-001
6.209662e+002, 1.666576e-001
6.228947e+002, 1.621546e-001
6.248232e+002, 1.590002e-001
6.267516e+002, 1.572872e-001
6.286801e+002, 1.563152e-001
6.306086e+002, 1.556190e-001
6.325370e+002, 1.553606e-001
6.344655e+002, 1.553963e-001
6.363940e+002, 1.558907e-001
6.383224e+002, 1.560241e-001
6.402509e+002, 1.552020e-001
6.421794e+002, 1.533088e-001
6.441078e+002, 1.509767e-001
6.460363e+002, 1.482200e-001
6.479648e+002, 1.449640e-001
6.498932e+002, 1.411966e-001
6.518217e+002, 1.374352e-001
6.537502e+002, 1.338135e-001
6.556786e+002, 1.305077e-001
6.576071e+002, 1.275429e-001
6.595356e+002, 1.247540e-001
6.614641e+002, 1.223478e-001
6.633925e+002, 1.204763e-001
6.653210e+002, 1.188240e-001
6.672495e+002, 1.173088e-001
6.691779e+002, 1.157725e-001
6.711064e+002, 1.143254e-001
6.730349e+002, 1.134013e-001
6.749633e+002, 1.126017e-001
6.768918e+002, 1.116295e-001
6.788203e+002, 1.107306e-001
6.807487e+002, 1.101146e-001
6.826772e+002, 1.096933e-001
6.846057e+002, 1.091483e-001
6.865341e+002, 1.083961e-001
6.884626e+002, 1.078857e-001
6.903911e+002, 1.074720e-001
6.923195e+002, 1.070400e-001
6.942480e+002, 1.068414e-001
6.961765e+002, 1.067357e-001
6.981049e+002, 1.064701e-001
7.000334e+002, 1.063610e-001
7.019619e+002, 1.061670e-001
7.038903e+002, 1.061995e-001
7.058188e+002, 1.063816e-001
7.077473e+002, 1.064267e-001
7.096757e+002, 1.064461e-001
7.116042e+002, 1.067869e-001
7.135327e+002, 1.072473e-001
7.154611e+002, 1.076103e-001
7.173896e+002, 1.080624e-001
7.193181e+002, 1.086937e-001
7.212465e+002, 1.092809e-001
7.231750e+002, 1.096780e-001
7.251035e+002, 1.103258e-001
7.270319e+002, 1.107708e-001
7.289604e+002, 1.109908e-001
7.308889e+002, 1.113710e-001
7.328173e+002, 1.117944e-001
7.347458e+002, 1.123710e-001
7.366743e+002, 1.129602e-001
7.386027e+002, 1.130113e-001
7.405312e+002, 1.128498e-001
7.424597e+002, 1.127070e-001
7.443881e+002, 1.125656e-001
7.463166e+002, 1.124400e-001
7.482451e+002, 1.118884e-001
7.501735e+002, 1.111332e-001
7.521020e+002, 1.104394e-001
7.540305e+002, 1.097429e-001
7.559589e+002, 1.088601e-001
7.578874e+002, 1.079103e-001
7.598159e+002, 1.069931e-001
7.617443e+002, 1.059611e-001
7.636728e+002, 1.049762e-001
7.656013e+002, 1.042906e-001
7.675297e+002, 1.037747e-001
7.694582e+002, 1.030939e-001
7.713867e+002, 1.024342e-001
7.733151e+002, 1.019172e-001
7.752436e+002, 1.016774e-001
7.771721e+002, 1.017111e-001
7.791005e+002, 1.018781e-001
7.810290e+002, 1.018531e-001
7.829575e+002, 1.020643e-001
7.848859e+002, 1.023124e-001
7.868144e+002, 1.025355e-001
7.887429e+002, 1.027150e-001
7.906713e+002, 1.031991e-001
7.925998e+002, 1.034952e-001
7.945283e+002, 1.035271e-001
7.964567e+002, 1.037098e-001
7.983852e+002, 1.038237e-001
8.003137e+002, 1.040787e-001
8.022421e+002, 1.044370e-001
8.041706e+002, 1.048276e-001
8.060991e+002, 1.051909e-001
8.080275e+002, 1.055633e-001
8.099560e+002, 1.061330e-001
8.118845e+002, 1.069197e-001
8.138129e+002, 1.076601e-001
8.157414e+002, 1.082286e-001
8.176699e+002, 1.088907e-001
8.195983e+002, 1.097633e-001
8.215268e+002, 1.106962e-001
8.234553e+002, 1.113525e-001
8.253837e+002, 1.119175e-001
8.273122e+002, 1.127241e-001
8.292407e+002, 1.135512e-001
8.311691e+002, 1.143507e-001
8.330976e+002, 1.148866e-001
8.350261e+002, 1.153970e-001
8.369545e+002, 1.159258e-001
8.388830e+002, 1.164105e-001
8.408115e+002, 1.165747e-001
8.427399e+002, 1.165263e-001
8.446684e+002, 1.162798e-001
8.465969e+002, 1.155386e-001
8.485253e+002, 1.143588e-001
8.504538e+002, 1.131589e-001
8.523823e+002, 1.117953e-001
8.543107e+002, 1.100632e-001
8.562392e+002, 1.083836e-001
8.581677e+002, 1.069680e-001
8.600961e+002, 1.052422e-001
8.620246e+002, 1.033178e-001
8.639531e+002, 1.016428e-001
8.658815e+002, 1.003539e-001
8.678100e+002, 9.923398e-002
8.697385e+002, 9.811900e-002
8.716669e+002, 9.746943e-002
8.735954e+002, 9.720936e-002
8.755239e+002, 9.722470e-002
8.774523e+002, 9.742132e-002
8.793808e+002, 9.781749e-002
8.813093e+002, 9.857140e-002
8.832377e+002, 9.944494e-002
8.851662e+002, 1.006428e-001
8.870947e+002, 1.022831e-001
8.890231e+002, 1.041501e-001
8.909516e+002, 1.062066e-001
8.928801e+002, 1.084829e-001
8.948085e+002, 1.111402e-001
8.967370e+002, 1.140011e-001
8.986655e+002, 1.171246e-001
9.005939e+002, 1.204982e-001
9.025224e+002, 1.242264e-001
9.044509e+002, 1.281379e-001
9.063793e+002, 1.323306e-001
9.083078e+002, 1.368493e-001
9.102363e+002, 1.415196e-001
9.121647e+002, 1.460253e-001
9.140932e+002, 1.502692e-001
9.160217e+002, 1.546168e-001
9.179501e+002, 1.592496e-001
9.198786e+002, 1.640733e-001
9.218071e+002, 1.689801e-001
9.237355e+002, 1.739755e-001
9.256640e+002, 1.790904e-001
9.275925e+002, 1.844952e-001
9.295209e+002, 1.903343e-001
9.314494e+002, 1.966533e-001
9.333779e+002, 2.035504e-001
9.353063e+002, 2.109174e-001
9.372348e+002, 2.189512e-001
9.391633e+002, 2.276208e-001
9.410917e+002, 2.369671e-001
9.430202e+002, 2.470504e-001
9.449487e+002, 2.580404e-001
9.468771e+002, 2.699761e-001
9.488056e+002, 2.834195e-001
9.507341e+002, 2.983365e-001
9.526625e+002, 3.144767e-001
9.545910e+002, 3.316506e-001
9.565195e+002, 3.504803e-001
9.584479e+002, 3.710023e-001
9.603764e+002, 3.926717e-001
9.623049e+002, 4.151818e-001
9.642333e+002, 4.378715e-001
9.661618e+002, 4.598814e-001
9.680903e+002, 4.791740e-001
9.700187e+002, 4.935160e-001
9.719472e+002, 5.009464e-001
9.738757e+002, 4.995208e-001
9.758041e+002, 4.880307e-001
9.777326e+002, 4.672580e-001
9.796611e+002, 4.412046e-001
9.815895e+002, 4.170966e-001
9.835180e+002, 4.015785e-001
9.854465e+002, 3.993657e-001
9.873749e+002, 4.106208e-001
9.893034e+002, 4.320757e-001
9.912319e+002, 4.588752e-001
9.931603e+002, 4.861068e-001
9.950888e+002, 5.075898e-001
9.970173e+002, 5.179800e-001
9.989457e+002, 5.151970e-001
1.000874e+003, 5.014204e-001
1.002803e+003, 4.803015e-001
1.004731e+003, 4.555847e-001
1.006660e+003, 4.309049e-001
1.008588e+003, 4.092258e-001
1.010517e+003, 3.919202e-001
1.012445e+003, 3.810332e-001
1.014373e+003, 3.783233e-001
1.016302e+003, 3.836504e-001
1.018230e+003, 3.969485e-001
1.020159e+003, 4.176652e-001
1.022087e+003, 4.438546e-001
1.024016e+003, 4.727794e-001
1.025944e+003, 4.990825e-001
1.027873e+003, 5.148893e-001
1.029801e+003, 5.149729e-001
1.031730e+003, 5.016314e-001
1.033658e+003, 4.821049e-001
1.035587e+003, 4.634486e-001
1.037515e+003, 4.490788e-001
1.039443e+003, 4.383172e-001
1.041372e+003, 4.294433e-001
1.043300e+003, 4.215300e-001
1.045229e+003, 4.135749e-001
1.047157e+003, 4.051527e-001
1.049086e+003, 3.964953e-001
1.051014e+003, 3.877295e-001
1.052943e+003, 3.786098e-001
1.054871e+003, 3.690302e-001
1.056800e+003, 3.594748e-001
1.058728e+003, 3.502259e-001
1.060657e+003, 3.411169e-001
1.062585e+003, 3.320728e-001
1.064514e+003, 3.233825e-001
1.066442e+003, 3.150550e-001
1.068370e+003, 3.072007e-001
1.070299e+003, 2.996756e-001
1.072227e+003, 2.924320e-001
1.074156e+003, 2.854325e-001
1.076084e+003, 2.785594e-001
1.078013e+003, 2.718839e-001
1.079941e+003, 2.660629e-001
1.081870e+003, 2.611614e-001
1.083798e+003, 2.571615e-001
1.085727e+003, 2.545052e-001
1.087655e+003, 2.534014e-001
1.089584e+003, 2.539670e-001
1.091512e+003, 2.558734e-001
1.093441e+003, 2.589890e-001
1.095369e+003, 2.631215e-001
1.097297e+003, 2.682205e-001
1.099226e+003, 2.738397e-001
1.101154e+003, 2.797497e-001
1.103083e+003, 2.860579e-001
1.105011e+003, 2.923616e-001
1.106940e+003, 2.980855e-001
1.108868e+003, 3.026561e-001
1.110797e+003, 3.057700e-001
1.112725e+003, 3.069558e-001
1.114654e+003, 3.055860e-001
1.116582e+003, 3.014053e-001
1.118511e+003, 2.946475e-001
1.120439e+003, 2.851093e-001
1.122368e+003, 2.734967e-001
1.124296e+003, 2.606900e-001
1.126224e+003, 2.471978e-001
1.128153e+003, 2.337092e-001
1.130081e+003, 2.207165e-001
1.132010e+003, 2.083040e-001
1.133938e+003, 1.965532e-001
1.135867e+003, 1.858426e-001
1.137795e+003, 1.761311e-001
1.139724e+003, 1.671280e-001
1.141652e+003, 1.591961e-001
1.143581e+003, 1.524726e-001
1.145509e+003, 1.467457e-001
1.147438e+003, 1.418835e-001
1.149366e+003, 1.381021e-001
1.151295e+003, 1.354741e-001
1.153223e+003, 1.337737e-001
1.155151e+003, 1.328479e-001
1.157080e+003, 1.326116e-001
1.159008e+003, 1.329495e-001
1.160937e+003, 1.336460e-001
1.162865e+003, 1.341183e-001
1.164794e+003, 1.341739e-001
1.166722e+003, 1.337377e-001
1.168651e+003, 1.323538e-001
1.170579e+003, 1.299206e-001
1.172508e+003, 1.263293e-001
1.174436e+003, 1.217126e-001
1.176365e+003, 1.162402e-001
1.178293e+003, 1.100107e-001
1.180222e+003, 1.033788e-001
1.182150e+003, 9.646583e-002
1.184078e+003, 8.942321e-002
1.186007e+003, 8.262111e-002
1.187935e+003, 7.623775e-002
1.189864e+003, 7.031687e-002
1.191792e+003, 6.490757e-002
1.193721e+003, 6.007145e-002
1.195649e+003, 5.569446e-002
1.197578e+003, 5.195514e-002
1.199506e+003, 4.872908e-002
1.201435e+003, 4.578503e-002
1.203363e+003, 4.313545e-002
1.205292e+003, 4.073662e-002
1.207220e+003, 3.875225e-002
1.209149e+003, 3.697297e-002
1.211077e+003, 3.517020e-002
1.213005e+003, 3.343707e-002
1.214934e+003, 3.196755e-002
1.216862e+003, 3.074011e-002
1.218791e+003, 2.965848e-002
1.220719e+003, 2.858029e-002
1.222648e+003, 2.750499e-002
1.224576e+003, 2.641415e-002
1.226505e+003, 2.551941e-002
1.228433e+003, 2.472545e-002
1.230362e+003, 2.384096e-002
1.232290e+003, 2.295748e-002
1.234219e+003, 2.226337e-002
1.236147e+003, 2.159833e-002
1.238076e+003, 2.089689e-002
1.240004e+003, 2.029922e-002
1.241932e+003, 1.984630e-002
1.243861e+003, 1.938497e-002
1.245789e+003, 1.900011e-002
1.247718e+003, 1.856298e-002
1.249646e+003, 1.799392e-002
1.251575e+003, 1.760234e-002
1.253503e+003, 1.731053e-002
1.255432e+003, 1.699896e-002
1.257360e+003, 1.673076e-002
1.259289e+003, 1.647561e-002
1.261217e+003, 1.618632e-002
1.263146e+003, 1.602626e-002
1.265074e+003, 1.587309e-002
1.267003e+003, 1.562377e-002
1.268931e+003, 1.552746e-002
1.270859e+003, 1.543392e-002
1.272788e+003, 1.538559e-002
1.274716e+003, 1.536336e-002
1.276645e+003, 1.540483e-002
1.278573e+003, 1.534192e-002
1.280502e+003, 1.526995e-002
1.282430e+003, 1.522929e-002
1.284359e+003, 1.512290e-002
1.286287e+003, 1.516997e-002
1.288216e+003, 1.517614e-002
1.290144e+003, 1.505918e-002
1.292073e+003, 1.504023e-002
1.294001e+003, 1.498594e-002
1.295930e+003, 1.502548e-002
1.297858e+003, 1.499425e-002
1.299786e+003, 1.495843e-002
1.301715e+003, 1.491820e-002
1.303643e+003, 1.489668e-002
1.305572e+003, 1.488663e-002
1.307500e+003, 1.480600e-002
1.309429e+003, 1.470113e-002
1.311357e+003, 1.483040e-002
1.313286e+003, 1.498479e-002
1.315214e+003, 1.494500e-002
1.317143e+003, 1.483941e-002
1.319071e+003, 1.488905e-002
1.321000e+003, 1.496771e-002
1.322928e+003, 1.496700e-002
1.324857e+003, 1.495392e-002
1.326785e+003, 1.508877e-002
1.328714e+003, 1.511878e-002
1.330642e+003, 1.510024e-002
1.332570e+003, 1.504524e-002
1.334499e+003, 1.510951e-002
1.336427e+003, 1.526755e-002
1.338356e+003, 1.539796e-002
1.340284e+003, 1.533678e-002
1.342213e+003, 1.533582e-002
1.344141e+003, 1.536866e-002
1.346070e+003, 1.539894e-002
1.347998e+003, 1.547835e-002
1.349927e+003, 1.561713e-002
1.351855e+003, 1.571491e-002
1.353784e+003, 1.569465e-002
1.355712e+003, 1.570056e-002
1.357641e+003, 1.591916e-002
1.359569e+003, 1.609635e-002
1.361497e+003, 1.622194e-002
1.363426e+003, 1.630197e-002
1.365354e+003, 1.626447e-002
1.367283e+003, 1.626210e-002
1.369211e+003, 1.645220e-002
1.371140e+003, 1.659025e-002
1.373068e+003, 1.657438e-002
1.374997e+003, 1.657038e-002
1.376925e+003, 1.673429e-002
1.378854e+003, 1.691456e-002
1.380782e+003, 1.700940e-002
1.382711e+003, 1.706647e-002
1.384639e+003, 1.723116e-002
1.386568e+003, 1.741998e-002
1.388496e+003, 1.744747e-002
1.390424e+003, 1.759665e-002
1.392353e+003, 1.782303e-002
1.394281e+003, 1.793436e-002
1.396210e+003, 1.798074e-002
1.398138e+003, 1.810282e-002
1.400067e+003, 1.824455e-002
1.401995e+003, 1.836470e-002
1.403924e+003, 1.856457e-002
1.405852e+003, 1.870873e-002
1.407781e+003, 1.893989e-002
1.409709e+003, 1.925230e-002
1.411638e+003, 1.950156e-002
1.413566e+003, 1.959429e-002
1.415495e+003, 1.978398e-002
1.417423e+003, 2.019525e-002
1.419351e+003, 2.053969e-002
1.421280e+003, 2.064667e-002
1.423208e+003, 2.087014e-002
1.425137e+003, 2.111544e-002
1.427065e+003, 2.136885e-002
1.428994e+003, 2.157795e-002
1.430922e+003, 2.163971e-002
1.432851e+003, 2.178411e-002
1.434779e+003, 2.209200e-002
1.436708e+003, 2.239809e-002
1.438636e+003, 2.236318e-002
1.440565e+003, 2.239875e-002
1.442493e+003, 2.246421e-002
1.444422e+003, 2.249052e-002
1.446350e+003, 2.254807e-002
1.448278e+003, 2.262455e-002
1.450207e+003, 2.265756e-002
1.452135e+003, 2.266172e-002
1.454064e+003, 2.282112e-002
1.455992e+003, 2.316748e-002
1.457921e+003, 2.326787e-002
1.459849e+003, 2.303311e-002
1.461778e+003, 2.298525e-002
1.463706e+003, 2.311278e-002
1.465635e+003, 2.328220e-002
1.467563e+003, 2.319675e-002
1.469492e+003, 2.327723e-002
1.471420e+003, 2.367831e-002
1.473349e+003, 2.391815e-002
1.475277e+003, 2.387899e-002
1.477205e+003, 2.386886e-002
1.479134e+003, 2.393269e-002
1.481062e+003, 2.406889e-002
1.482991e+003, 2.426946e-002
1.484919e+003, 2.454619e-002
1.486848e+003, 2.492877e-002
1.488776e+003, 2.523788e-002
1.490705e+003, 2.537633e-002
1.492633e+003, 2.538983e-002
1.494562e+003, 2.566653e-002
1.496490e+003, 2.615164e-002
1.498419e+003, 2.642495e-002
1.500347e+003, 2.648253e-002
1.502276e+003, 2.663884e-002
1.504204e+003, 2.726708e-002
1.506132e+003, 2.806566e-002
1.508061e+003, 2.835278e-002
1.509989e+003, 2.837192e-002
1.511918e+003, 2.858992e-002
1.513846e+003, 2.895215e-002
1.515775e+003, 2.949040e-002
1.517703e+003, 2.998026e-002
1.519632e+003, 3.054514e-002
1.521560e+003, 3.126477e-002
1.523489e+003, 3.159979e-002
1.525417e+003, 3.194110e-002
1.527346e+003, 3.251261e-002
1.529274e+003, 3.316705e-002
1.531203e+003, 3.391233e-002
1.533131e+003, 3.459201e-002
1.535059e+003, 3.513080e-002
1.536988e+003, 3.596275e-002
1.538916e+003, 3.721273e-002
1.540845e+003, 3.795977e-002
1.542773e+003, 3.834241e-002
1.544702e+003, 3.885044e-002
1.546630e+003, 3.940500e-002
1.548559e+003, 3.999197e-002
1.550487e+003, 4.049196e-002
1.552416e+003, 4.110193e-002
1.554344e+003, 4.184234e-002
1.556273e+003, 4.244296e-002
1.558201e+003, 4.321029e-002
1.560130e+003, 4.327900e-002
1.562058e+003, 4.291778e-002
1.563986e+003, 4.288678e-002
1.565915e+003, 4.287144e-002
1.567843e+003, 4.281037e-002
1.569772e+003, 4.280590e-002
1.571700e+003, 4.266309e-002
1.573629e+003, 4.274505e-002
1.575557e+003, 4.314960e-002
1.577486e+003, 4.293752e-002
1.579414e+003, 4.245377e-002
1.581343e+003, 4.253959e-002
1.583271e+003, 4.265507e-002
1.585200e+003, 4.273925e-002
1.587128e+003, 4.282368e-002
1.589057e+003, 4.327694e-002
1.590985e+003, 4.394277e-002
1.592913e+003, 4.457996e-002
1.594842e+003, 4.521703e-002
1.596770e+003, 4.608998e-002
1.598699e+003, 4.713825e-002
1.600627e+003, 4.828402e-002
1.602556e+003, 4.948047e-002
1.604484e+003, 5.083499e-002
1.606413e+003, 5.236565e-002
1.608341e+003, 5.404217e-002
1.610270e+003, 5.579828e-002
1.612198e+003, 5.778656e-002
1.614127e+003, 6.013409e-002
1.616055e+003, 6.290832e-002
1.617984e+003, 6.539650e-002
1.619912e+003, 6.788234e-002
1.621840e+003, 7.073245e-002
1.623769e+003, 7.385146e-002
1.625697e+003, 7.710944e-002
1.627626e+003, 8.045112e-002
1.629554e+003, 8.365329e-002
1.631483e+003, 8.679435e-002
1.633411e+003, 8.986654e-002
1.635340e+003, 9.255931e-002
1.637268e+003, 9.401342e-002
1.639197e+003, 9.451001e-002
1.641125e+003, 9.425224e-002
1.643054e+003, 9.312773e-002
1.644982e+003, 9.136464e-002
1.646911e+003, 8.848654e-002
1.648839e+003, 8.457170e-002
1.650767e+003, 8.081543e-002
1.652696e+003, 7.741119e-002
1.654624e+003, 7.322574e-002
1.656553e+003, 6.933544e-002
1.658481e+003, 6.637461e-002
1.660410e+003, 6.391644e-002
1.662338e+003, 6.204408e-002
1.664267e+003, 6.040170e-002
1.666195e+003, 5.911823e-002
1.668124e+003, 5.843439e-002
1.670052e+003, 5.783555e-002
1.671981e+003, 5.704561e-002
1.673909e+003, 5.654760e-002
1.675838e+003, 5.593510e-002
1.677766e+003, 5.472871e-002
1.679694e+003, 5.359359e-002
1.681623e+003, 5.235664e-002
1.683551e+003, 5.121583e-002
1.685480e+003, 4.934026e-002
1.687408e+003, 4.679038e-002
1.689337e+003, 4.431995e-002
1.691265e+003, 4.192931e-002
1.693194e+003, 3.962810e-002
1.695122e+003, 3.774931e-002
1.697051e+003, 3.551463e-002
1.698979e+003, 3.340030e-002
1.700908e+003, 3.140467e-002
1.702836e+003, 2.902128e-002
1.704765e+003, 2.740700e-002
1.706693e+003, 2.607480e-002
1.708621e+003, 2.484493e-002
1.710550e+003, 2.374220e-002
1.712478e+003, 2.287653e-002
1.714407e+003, 2.208088e-002
1.716335e+003, 2.144944e-002
1.718264e+003, 2.072947e-002
1.720192e+003, 1.986071e-002
1.722121e+003, 1.922398e-002
1.724049e+003, 1.862027e-002
1.725978e+003, 1.791599e-002
1.727906e+003, 1.731466e-002
1.729835e+003, 1.688923e-002
1.731763e+003, 1.660202e-002
1.733692e+003, 1.643566e-002
1.735620e+003, 1.583057e-002
1.737548e+003, 1.508605e-002
1.739477e+003, 1.476630e-002
1.741405e+003, 1.453059e-002
1.743334e+003, 1.425898e-002
1.745262e+003, 1.382487e-002
1.747191e+003, 1.360270e-002
1.749119e+003, 1.340391e-002
1.751048e+003, 1.326411e-002
1.752976e+003, 1.299217e-002
1.754905e+003, 1.295761e-002
1.756833e+003, 1.291466e-002
1.758762e+003, 1.284474e-002
1.760690e+003, 1.291003e-002
1.762619e+003, 1.291619e-002
1.764547e+003, 1.292135e-002
1.766475e+003, 1.271419e-002
1.768404e+003, 1.251251e-002
1.770332e+003, 1.269699e-002
1.772261e+003, 1.296351e-002
1.774189e+003, 1.276117e-002
1.776118e+003, 1.245984e-002
1.778046e+003, 1.212554e-002
1.779975e+003, 1.201972e-002
1.781903e+003, 1.214033e-002
1.783832e+003, 1.235115e-002
1.785760e+003, 1.242336e-002
1.787689e+003, 1.227542e-002
1.789617e+003, 1.233572e-002
1.791546e+003, 1.250210e-002
1.793474e+003, 1.258307e-002
1.795402e+003, 1.254178e-002
1.797331e+003, 1.248070e-002
1.799259e+003, 1.248271e-002
1.801188e+003, 1.245770e-002
1.803116e+003, 1.215952e-002
1.805045e+003, 1.204188e-002
1.806973e+003, 1.204417e-002
1.808902e+003, 1.221060e-002
1.810830e+003, 1.211596e-002
1.812759e+003, 1.181456e-002
1.814687e+003, 1.164727e-002
1.816616e+003, 1.172612e-002
1.818544e+003, 1.205843e-002
1.820473e+003, 1.238126e-002
1.822401e+003, 1.212510e-002
1.824329e+003, 1.201157e-002
1.826258e+003, 1.199467e-002
1.828186e+003, 1.216367e-002
1.830115e+003, 1.224215e-002
1.832043e+003, 1.184357e-002
1.833972e+003, 1.181348e-002
1.835900e+003, 1.196107e-002
1.837829e+003, 1.185794e-002
1.839757e+003, 1.183785e-002
1.841686e+003, 1.176200e-002
1.843614e+003, 1.163691e-002
1.845543e+003, 1.153283e-002
1.847471e+003, 1.183371e-002
1.849400e+003, 1.186809e-002
1.851328e+003, 1.176999e-002
1.853256e+003, 1.167515e-002
1.855185e+003, 1.162363e-002
1.857113e+003, 1.159490e-002
1.859042e+003, 1.163851e-002
1.860970e+003, 1.131743e-002
1.862899e+003, 1.112194e-002
1.864827e+003, 1.116323e-002
1.866756e+003, 1.113509e-002
1.868684e+003, 1.123254e-002
1.870613e+003, 1.116742e-002
1.872541e+003, 1.101516e-002
1.874470e+003, 1.113179e-002
1.876398e+003, 1.132007e-002
1.878327e+003, 1.103841e-002
1.880255e+003, 1.096261e-002
1.882183e+003, 1.106953e-002
1.884112e+003, 1.094273e-002
1.886040e+003, 1.100292e-002
1.887969e+003, 1.124761e-002
1.889897e+003, 1.121285e-002
1.891826e+003, 1.098604e-002
1.893754e+003, 1.101985e-002
1.895683e+003, 1.072059e-002
1.897611e+003, 1.093351e-002
1.899540e+003, 1.117577e-002
1.901468e+003, 1.098466e-002
1.903397e+003, 1.079369e-002
1.905325e+003, 1.136948e-002
1.907254e+003, 1.168710e-002
1.909182e+003, 1.150819e-002
1.911110e+003, 1.124794e-002
1.913039e+003, 1.097859e-002
1.914967e+003, 1.115391e-002
1.916896e+003, 1.132482e-002
1.918824e+003, 1.096228e-002
1.920753e+003, 1.095239e-002
1.922681e+003, 1.082787e-002
1.924610e+003, 1.067277e-002
1.926538e+003, 1.094193e-002
1.928467e+003, 1.128520e-002
1.930395e+003, 1.090899e-002
1.932324e+003, 1.113929e-002
1.934252e+003, 1.151773e-002
1.936181e+003, 1.113877e-002
1.938109e+003, 1.054795e-002
1.940037e+003, 1.000404e-002
1.941966e+003, 1.007260e-002
1.943894e+003, 1.042029e-002
1.945823e+003, 1.028817e-002
1.947751e+003, 1.061424e-002
1.949680e+003, 1.127556e-002
1.951608e+003, 1.132621e-002
1.953537e+003, 1.102409e-002
1.955465e+003, 1.057115e-002
1.957394e+003, 1.070189e-002
1.959322e+003, 1.171653e-002
1.961251e+003, 1.219893e-002
1.963179e+003, 1.235119e-002
1.965108e+003, 1.206709e-002
1.967036e+003, 1.154171e-002
1.968964e+003, 1.090373e-002
1.970893e+003, 1.109764e-002
1.972821e+003, 1.170576e-002
1.974750e+003, 1.231737e-002
1.976678e+003, 1.304566e-002
1.978607e+003, 1.394861e-002
1.980535e+003, 1.353081e-002
1.982464e+003, 1.328732e-002
1.984392e+003, 1.359848e-002
1.986321e+003, 1.314939e-002
1.988249e+003, 1.208100e-002
1.990178e+003, 1.192783e-002
1.992106e+003, 1.254549e-002
1.994035e+003, 1.326903e-002
1.995963e+003, 1.334600e-002
1.997891e+003, 1.376180e-002
1.999820e+003, 1.425385e-002
2.001748e+003, 1.340548e-002
2.003677e+003, 1.246146e-002
2.005605e+003, 1.272522e-002
2.007534e+003, 1.426762e-002
2.009462e+003, 1.539099e-002
2.011391e+003, 1.543420e-002
2.013319e+003, 1.506125e-002
2.015248e+003, 1.509062e-002
2.017176e+003, 1.568549e-002
2.019105e+003, 1.596082e-002
2.021033e+003, 1.541433e-002
2.022962e+003, 1.452998e-002
2.024890e+003, 1.482820e-002
2.026818e+003, 1.494716e-002
2.028747e+003, 1.581476e-002
2.030675e+003, 1.571852e-002
2.032604e+003, 1.549891e-002
2.034532e+003, 1.470541e-002
2.036461e+003, 1.422592e-002
2.038389e+003, 1.477046e-002
2.040318e+003, 1.581665e-002
2.042246e+003, 1.635476e-002
2.044175e+003, 1.610512e-002
2.046103e+003, 1.528641e-002
2.048031e+003, 1.505282e-002
2.049960e+003, 1.608369e-002
2.051888e+003, 1.629326e-002
2.053817e+003, 1.604209e-002
2.055745e+003, 1.612687e-002
2.057674e+003, 1.622066e-002
2.059602e+003, 1.576165e-002
2.061531e+003, 1.573036e-002
2.063459e+003, 1.597551e-002
2.065388e+003, 1.557892e-002
2.067316e+003, 1.568287e-002
2.069245e+003, 1.602389e-002
2.071173e+003, 1.628815e-002
2.073102e+003, 1.594011e-002
2.075030e+003, 1.647487e-002
2.076958e+003, 1.677162e-002
2.078887e+003, 1.689598e-002
2.080815e+003, 1.673718e-002
2.082744e+003, 1.631413e-002
2.084672e+003, 1.651406e-002
2.086601e+003, 1.663283e-002
2.088529e+003, 1.629237e-002
2.090458e+003, 1.649248e-002
2.092386e+003, 1.667879e-002
2.094315e+003, 1.657223e-002
2.096243e+003, 1.672996e-002
2.098172e+003, 1.764393e-002
2.100100e+003, 1.802008e-002
2.102029e+003, 1.770924e-002
2.103957e+003, 1.736427e-002
2.105885e+003, 1.744677e-002
2.107814e+003, 1.764318e-002
2.109742e+003, 1.768241e-002
2.111671e+003, 1.834683e-002
2.113599e+003, 1.875258e-002
2.115528e+003, 1.797475e-002
2.117456e+003, 1.753464e-002
2.119385e+003, 1.763646e-002
2.121313e+003, 1.728420e-002
2.123242e+003, 1.766460e-002
2.125170e+003, 1.840747e-002
2.127099e+003, 1.787485e-002
2.129027e+003, 1.731623e-002
2.130956e+003, 1.704681e-002
2.132884e+003, 1.642202e-002
2.134813e+003, 1.734761e-002
2.136741e+003, 1.857546e-002
2.138669e+003, 1.829722e-002
2.140598e+003, 1.855890e-002
2.142526e+003, 1.907999e-002
2.144455e+003, 1.867367e-002
2.146383e+003, 1.818882e-002
2.148312e+003, 1.833963e-002
2.150240e+003, 1.787963e-002
2.152169e+003, 1.802202e-002
2.154097e+003, 1.931528e-002
2.156026e+003, 1.911333e-002
2.157954e+003, 1.854452e-002
2.159883e+003, 2.019744e-002
2.161811e+003, 2.117836e-002
2.163740e+003, 2.128388e-002
2.165668e+003, 2.177542e-002
2.167596e+003, 2.167272e-002
2.169525e+003, 2.087571e-002
2.171453e+003, 1.993981e-002
2.173382e+003, 2.034992e-002
2.175310e+003, 2.111535e-002
2.177239e+003, 2.125995e-002
2.179167e+003, 2.124840e-002
2.181096e+003, 2.115705e-002
2.183024e+003, 2.169643e-002
2.184953e+003, 2.228953e-002
2.186881e+003, 2.193793e-002
2.188810e+003, 2.178122e-002
2.190738e+003, 2.226195e-002
2.192667e+003, 2.177668e-002
2.194595e+003, 2.213252e-002
2.196523e+003, 2.226941e-002
2.198452e+003, 2.187262e-002
2.200380e+003, 2.214308e-002
2.202309e+003, 2.255460e-002
2.204237e+003, 2.271284e-002
2.206166e+003, 2.220435e-002
2.208094e+003, 2.120587e-002
2.210023e+003, 2.190803e-002
2.211951e+003, 2.275806e-002
2.213880e+003, 2.205722e-002
2.215808e+003, 2.161265e-002
2.217737e+003, 2.220912e-002
2.219665e+003, 2.317777e-002
2.221594e+003, 2.304008e-002
2.223522e+003, 2.193087e-002
2.225450e+003, 2.231094e-002
2.227379e+003, 2.238912e-002
2.229307e+003, 2.179074e-002
2.231236e+003, 2.223336e-002
2.233164e+003, 2.303126e-002
2.235093e+003, 2.310392e-002
2.237021e+003, 2.259062e-002
2.238950e+003, 2.265261e-002
2.240878e+003, 2.362722e-002
2.242807e+003, 2.358586e-002
2.244735e+003, 2.347408e-002
2.246664e+003, 2.371769e-002
2.248592e+003, 2.407758e-002
2.250521e+003, 2.397344e-002
2.252449e+003, 2.357497e-002
2.254377e+003, 2.403379e-002
2.256306e+003, 2.420932e-002
2.258234e+003, 2.394059e-002
2.260163e+003, 2.457425e-002
2.262091e+003, 2.507471e-002
2.264020e+003, 2.502318e-002
2.265948e+003, 2.486917e-002
2.267877e+003, 2.488551e-002
2.269805e+003, 2.498554e-002
2.271734e+003, 2.519471e-002
2.273662e+003, 2.557455e-002
2.275591e+003, 2.606018e-002
2.277519e+003, 2.602672e-002
2.279448e+003, 2.580434e-002
2.281376e+003, 2.560864e-002
2.283304e+003, 2.585291e-002
2.285233e+003, 2.615832e-002
2.287161e+003, 2.645364e-002
2.289090e+003, 2.669681e-002
2.291018e+003, 2.682496e-002
2.292947e+003, 2.668705e-002
2.294875e+003, 2.646472e-002
2.296804e+003, 2.653188e-002
2.298732e+003, 2.673160e-002
2.300661e+003, 2.716052e-002
2.302589e+003, 2.757065e-002
2.304518e+003, 2.739609e-002
2.306446e+003, 2.697699e-002
2.308375e+003, 2.694183e-002
2.310303e+003, 2.750444e-002
2.312231e+003, 2.793572e-002
2.314160e+003, 2.777401e-002
2.316088e+003, 2.792119e-002
2.318017e+003, 2.841592e-002
2.319945e+003, 2.898058e-002
2.321874e+003, 2.938150e-002
2.323802e+003, 2.954917e-002
2.325731e+003, 2.916498e-002
2.327659e+003, 2.872543e-002
2.329588e+003, 2.877593e-002
2.331516e+003, 2.887060e-002
2.333445e+003, 2.870309e-002
2.335373e+003, 2.874461e-002
2.337302e+003, 2.914677e-002
2.339230e+003, 2.918286e-002
2.341158e+003, 2.910824e-002
2.343087e+003, 2.929783e-002
2.345015e+003, 2.929180e-002
2.346944e+003, 2.912964e-002
2.348872e+003, 2.912448e-002
2.350801e+003, 2.929812e-002
2.352729e+003, 2.955725e-002
2.354658e+003, 2.983838e-002
2.356586e+003, 3.026499e-002
2.358515e+003, 3.047842e-002
2.360443e+003, 3.062201e-002
2.362372e+003, 3.087873e-002
2.364300e+003, 3.097935e-002
2.366229e+003, 3.092070e-002
2.368157e+003, 3.084771e-002
2.370085e+003, 3.078225e-002
2.372014e+003, 3.083867e-002
2.373942e+003, 3.098353e-002
2.375871e+003, 3.121584e-002
2.377799e+003, 3.120445e-002
2.379728e+003, 3.103948e-002
2.381656e+003, 3.097979e-002
2.383585e+003, 3.112247e-002
2.385513e+003, 3.151056e-002
2.387442e+003, 3.181759e-002
2.389370e+003, 3.200093e-002
2.391299e+003, 3.215003e-002
2.393227e+003, 3.224562e-002
2.395156e+003, 3.239322e-002
2.397084e+003, 3.237505e-002
2.399012e+003, 3.258163e-002
2.400941e+003, 3.270170e-002
2.402869e+003, 3.271219e-002
2.404798e+003, 3.295362e-002
2.406726e+003, 3.322474e-002
2.408655e+003, 3.322857e-002
2.410583e+003, 3.314334e-002
2.412512e+003, 3.358492e-002
2.414440e+003, 3.417118e-002
2.416369e+003, 3.412594e-002
2.418297e+003, 3.375683e-002
2.420226e+003, 3.379180e-002
2.422154e+003, 3.414218e-002
2.424083e+003, 3.415408e-002
2.426011e+003, 3.432610e-002
2.427939e+003, 3.432878e-002
2.429868e+003, 3.434293e-002
2.431796e+003, 3.435990e-002
2.433725e+003, 3.441593e-002
2.435653e+003, 3.456409e-002
2.437582e+003, 3.428028e-002
2.439510e+003, 3.418437e-002
2.441439e+003, 3.446532e-002
2.443367e+003, 3.430541e-002
2.445296e+003, 3.427626e-002
2.447224e+003, 3.442482e-002
2.449153e+003, 3.465633e-002
2.451081e+003, 3.471291e-002
2.453010e+003, 3.431653e-002
2.454938e+003, 3.409373e-002
2.456866e+003, 3.407657e-002
2.458795e+003, 3.407599e-002
2.460723e+003, 3.402589e-002
2.462652e+003, 3.404096e-002
2.464580e+003, 3.410724e-002
2.466509e+003, 3.409649e-002
2.468437e+003, 3.413404e-002
2.470366e+003, 3.444510e-002
2.472294e+003, 3.458949e-002
2.474223e+003, 3.429119e-002
2.476151e+003, 3.418073e-002
2.478080e+003, 3.427830e-002
2.480008e+003, 3.419752e-002
2.481937e+003, 3.388302e-002
2.483865e+003, 3.395276e-002
2.485793e+003, 3.403786e-002
2.487722e+003, 3.425417e-002
2.489650e+003, 3.387886e-002
2.491579e+003, 3.355388e-002
2.493507e+003, 3.351306e-002
2.495436e+003, 3.388382e-002
2.497364e+003, 3.404885e-002
2.499293e+003, 3.387497e-002
2.501221e+003, 3.383290e-002
2.503150e+003, 3.366053e-002
2.505078e+003, 3.327553e-002
2.507007e+003, 3.324079e-002
2.508935e+003, 3.371701e-002
2.510864e+003, 3.384188e-002
2.512792e+003, 3.350304e-002
2.514720e+003, 3.363902e-002
2.516649e+003, 3.389850e-002
2.518577e+003, 3.419463e-002
2.520506e+003, 3.414596e-002
2.522434e+003, 3.324999e-002
2.524363e+003, 3.284288e-002
2.526291e+003, 3.332769e-002
2.528220e+003, 3.371537e-002
2.530148e+003, 3.374637e-002
2.532077e+003, 3.337233e-002
2.534005e+003, 3.355330e-002
2.535934e+003, 3.367544e-002
2.537862e+003, 3.382600e-002
2.539791e+003, 3.366883e-002
2.541719e+003, 3.342183e-002
2.543647e+003, 3.343008e-002
2.545576e+003, 3.404475e-002
2.547504e+003, 3.405672e-002
2.549433e+003, 3.411954e-002
2.551361e+003, 3.431050e-002
2.553290e+003, 3.425363e-002
2.555218e+003, 3.419362e-002
2.557147e+003, 3.449016e-002
2.559075e+003, 3.469236e-002
2.561004e+003, 3.462442e-002
2.562932e+003, 3.455730e-002
2.564861e+003, 3.494551e-002
2.566789e+003, 3.508063e-002
2.568718e+003, 3.511140e-002
2.570646e+003, 3.545345e-002
2.572574e+003, 3.540115e-002
2.574503e+003, 3.563744e-002
2.576431e+003, 3.593757e-002
2.578360e+003, 3.603789e-002
2.580288e+003, 3.640032e-002
2.582217e+003, 3.655738e-002
2.584145e+003, 3.686674e-002
2.586074e+003, 3.740742e-002
2.588002e+003, 3.757728e-002
2.589931e+003, 3.721772e-002
2.591859e+003, 3.712128e-002
2.593788e+003, 3.740314e-002
2.595716e+003, 3.781041e-002
2.597645e+003, 3.802463e-002
2.599573e+003, 3.813048e-002
2.601501e+003, 3.829930e-002
2.603430e+003, 3.851851e-002
2.605358e+003, 3.895674e-002
2.607287e+003, 3.977985e-002
2.609215e+003, 4.007840e-002
2.611144e+003, 4.006736e-002
2.613072e+003, 4.013725e-002
2.615001e+003, 4.044751e-002
2.616929e+003, 4.070147e-002
2.618858e+003, 4.078276e-002
2.620786e+003, 4.101740e-002
2.622715e+003, 4.142153e-002
2.624643e+003, 4.171284e-002
2.626572e+003, 4.177764e-002
2.628500e+003, 4.190917e-002
2.630428e+003, 4.226437e-002
2.632357e+003, 4.266978e-002
2.634285e+003, 4.288761e-002
2.636214e+003, 4.314549e-002
2.638142e+003, 4.351541e-002
2.640071e+003, 4.358459e-002
2.641999e+003, 4.385363e-002
2.643928e+003, 4.397148e-002
2.645856e+003, 4.439777e-002
2.647785e+003, 4.485752e-002
2.649713e+003, 4.500115e-002
2.651642e+003, 4.512893e-002
2.653570e+003, 4.557861e-002
2.655499e+003, 4.622793e-002
2.657427e+003, 4.669805e-002
2.659355e+003, 4.682133e-002
2.661284e+003, 4.682207e-002
2.663212e+003, 4.697724e-002
2.665141e+003, 4.717683e-002
2.667069e+003, 4.749664e-002
2.668998e+003, 4.788217e-002
2.670926e+003, 4.831953e-002
2.672855e+003, 4.873869e-002
2.674783e+003, 4.916248e-002
2.676712e+003, 4.947324e-002
2.678640e+003, 4.980056e-002
2.680569e+003, 5.026331e-002
2.682497e+003, 5.049476e-002
2.684426e+003, 5.085455e-002
2.686354e+003, 5.142566e-002
2.688282e+003, 5.197058e-002
2.690211e+003, 5.238063e-002
2.692139e+003, 5.278684e-002
2.694068e+003, 5.327255e-002
2.695996e+003, 5.357127e-002
2.697925e+003, 5.379277e-002
2.699853e+003, 5.408734e-002
2.701782e+003, 5.428180e-002
2.703710e+003, 5.465577e-002
2.705639e+003, 5.521706e-002
2.707567e+003, 5.583052e-002
2.709496e+003, 5.639628e-002
2.711424e+003, 5.715154e-002
2.713353e+003, 5.772969e-002
2.715281e+003, 5.800614e-002
2.717209e+003, 5.828287e-002
2.719138e+003, 5.874137e-002
2.721066e+003, 5.918736e-002
2.722995e+003, 5.954144e-002
2.724923e+003, 6.004716e-002
2.726852e+003, 6.065490e-002
2.728780e+003, 6.134445e-002
2.730709e+003, 6.181659e-002
2.732637e+003, 6.209856e-002
2.734566e+003, 6.260067e-002
2.736494e+003, 6.320658e-002
2.738423e+003, 6.387654e-002
2.740351e+003, 6.452510e-002
2.742280e+003, 6.511569e-002
2.744208e+003, 6.572124e-002
2.746136e+003, 6.631031e-002
2.748065e+003, 6.685302e-002
2.749993e+003, 6.760971e-002
2.751922e+003, 6.827040e-002
2.753850e+003, 6.872322e-002
2.755779e+003, 6.915943e-002
2.757707e+003, 6.967746e-002
2.759636e+003, 7.016744e-002
2.761564e+003, 7.093571e-002
2.763493e+003, 7.146844e-002
2.765421e+003, 7.206746e-002
2.767350e+003, 7.275933e-002
2.769278e+003, 7.347038e-002
2.771207e+003, 7.448950e-002
2.773135e+003, 7.510315e-002
2.775063e+003, 7.551061e-002
2.776992e+003, 7.618080e-002
2.778920e+003, 7.677682e-002
2.780849e+003, 7.763634e-002
2.782777e+003, 7.852005e-002
2.784706e+003, 7.932874e-002
2.786634e+003, 7.993247e-002
2.788563e+003, 8.048390e-002
2.790491e+003, 8.140113e-002
2.792420e+003, 8.221591e-002
2.794348e+003, 8.264263e-002
2.796277e+003, 8.328560e-002
2.798205e+003, 8.431783e-002
2.800134e+003, 8.538752e-002
2.802062e+003, 8.616684e-002
2.803990e+003, 8.698589e-002
2.805919e+003, 8.766668e-002
2.807847e+003, 8.828453e-002
2.809776e+003, 8.930141e-002
2.811704e+003, 9.035423e-002
2.813633e+003, 9.123956e-002
2.815561e+003, 9.205546e-002
2.817490e+003, 9.263451e-002
2.819418e+003, 9.332595e-002
2.821347e+003, 9.416384e-002
2.823275e+003, 9.516754e-002
2.825204e+003, 9.606553e-002
2.827132e+003, 9.698651e-002
2.829061e+003, 9.785880e-002
2.830989e+003, 9.883974e-002
2.832917e+003, 9.991752e-002
2.834846e+003, 1.010231e-001
2.836774e+003, 1.022594e-001
2.838703e+003, 1.031007e-001
2.840631e+003, 1.038221e-001
2.842560e+003, 1.047489e-001
2.844488e+003, 1.057482e-001
2.846417e+003, 1.066630e-001
2.848345e+003, 1.072682e-001
2.850274e+003, 1.083130e-001
2.852202e+003, 1.095513e-001
2.854131e+003, 1.105079e-001
2.856059e+003, 1.115362e-001
2.857988e+003, 1.127369e-001
2.859916e+003, 1.140026e-001
2.861844e+003, 1.148620e-001
2.863773e+003, 1.157974e-001
2.865701e+003, 1.169183e-001
2.867630e+003, 1.177559e-001
2.869558e+003, 1.190617e-001
2.871487e+003, 1.200724e-001
2.873415e+003, 1.209686e-001
2.875344e+003, 1.220918e-001
2.877272e+003, 1.232225e-001
2.879201e+003, 1.243052e-001
2.881129e+003, 1.252960e-001
2.883058e+003, 1.260046e-001
2.884986e+003, 1.269570e-001
2.886915e+003, 1.282754e-001
2.888843e+003, 1.299102e-001
2.890771e+003, 1.311405e-001
2.892700e+003, 1.321718e-001
2.894628e+003, 1.332673e-001
2.896557e+003, 1.347656e-001
2.898485e+003, 1.361169e-001
2.900414e+003, 1.371346e-001
2.902342e+003, 1.383991e-001
2.904271e+003, 1.396593e-001
2.906199e+003, 1.406761e-001
2.908128e+003, 1.419483e-001
2.910056e+003, 1.431307e-001
2.911985e+003, 1.443584e-001
2.913913e+003, 1.455282e-001
2.915842e+003, 1.466468e-001
2.917770e+003, 1.478365e-001
2.919698e+003, 1.494974e-001
2.921627e+003, 1.507660e-001
2.923555e+003, 1.520759e-001
2.925484e+003, 1.534452e-001
2.927412e+003, 1.546546e-001
2.929341e+003, 1.559663e-001
2.931269e+003, 1.569561e-001
2.933198e+003, 1.578608e-001
2.935126e+003, 1.591386e-001
2.937055e+003, 1.605574e-001
2.938983e+003, 1.615819e-001
2.940912e+003, 1.624901e-001
2.942840e+003, 1.641733e-001
2.944769e+003, 1.657791e-001
2.946697e+003, 1.674385e-001
2.948625e+003, 1.689627e-001
2.950554e+003, 1.704230e-001
2.952482e+003, 1.718504e-001
2.954411e+003, 1.728521e-001
2.956339e+003, 1.741808e-001
2.958268e+003, 1.758603e-001
2.960196e+003, 1.773020e-001
2.962125e+003, 1.787753e-001
2.964053e+003, 1.799807e-001
2.965982e+003, 1.809303e-001
2.967910e+003, 1.822920e-001
2.969839e+003, 1.840714e-001
2.971767e+003, 1.855280e-001
2.973696e+003, 1.868460e-001
2.975624e+003, 1.880194e-001
2.977552e+003, 1.893106e-001
2.979481e+003, 1.909136e-001
2.981409e+003, 1.926467e-001
2.983338e+003, 1.944430e-001
2.985266e+003, 1.961779e-001
2.987195e+003, 1.975781e-001
2.989123e+003, 1.986244e-001
2.991052e+003, 1.999124e-001
2.992980e+003, 2.017123e-001
2.994909e+003, 2.032031e-001
2.996837e+003, 2.049184e-001
2.998766e+003, 2.066802e-001
3.000694e+003, 2.083712e-001
3.002623e+003, 2.097148e-001
3.004551e+003, 2.114402e-001
3.006479e+003, 2.135152e-001
3.008408e+003, 2.149955e-001
3.010336e+003, 2.163789e-001
3.012265e+003, 2.180426e-001
3.014193e+003, 2.197542e-001
3.016122e+003, 2.214616e-001
3.018050e+003, 2.232564e-001
3.019979e+003, 2.250827e-001
3.021907e+003, 2.268178e-001
3.023836e+003, 2.286446e-001
3.025764e+003, 2.305769e-001
3.027693e+003, 2.321242e-001
3.029621e+003, 2.336922e-001
3.031550e+003, 2.358934e-001
3.033478e+003, 2.380218e-001
3.035406e+003, 2.398421e-001
3.037335e+003, 2.417714e-001
3.039263e+003, 2.436710e-001
3.041192e+003, 2.456152e-001
3.043120e+003, 2.475994e-001
3.045049e+003, 2.492411e-001
3.046977e+003, 2.513976e-001
3.048906e+003, 2.536972e-001
3.050834e+003, 2.561288e-001
3.052763e+003, 2.584013e-001
3.054691e+003, 2.605464e-001
3.056620e+003, 2.624387e-001
3.058548e+003, 2.647700e-001
3.060477e+003, 2.673929e-001
3.062405e+003, 2.695249e-001
3.064333e+003, 2.715048e-001
3.066262e+003, 2.734066e-001
3.068190e+003, 2.751534e-001
3.070119e+003, 2.774492e-001
3.072047e+003, 2.801249e-001
3.073976e+003, 2.824303e-001
3.075904e+003, 2.845538e-001
3.077833e+003, 2.865636e-001
3.079761e+003, 2.886729e-001
3.081690e+003, 2.911223e-001
3.083618e+003, 2.933008e-001
3.085547e+003, 2.956354e-001
3.087475e+003, 2.980270e-001
3.089404e+003, 3.001187e-001
3.091332e+003, 3.017595e-001
3.093260e+003, 3.037314e-001
3.095189e+003, 3.061053e-001
3.097117e+003, 3.082313e-001
3.099046e+003, 3.102879e-001
3.100974e+003, 3.125057e-001
3.102903e+003, 3.144122e-001
3.104831e+003, 3.155415e-001
3.106760e+003, 3.169843e-001
3.108688e+003, 3.190199e-001
3.110617e+003, 3.208405e-001
3.112545e+003, 3.223121e-001
3.114474e+003, 3.230742e-001
3.116402e+003, 3.239362e-001
3.118331e+003, 3.251097e-001
3.120259e+003, 3.262383e-001
3.122188e+003, 3.275081e-001
3.124116e+003, 3.287539e-001
3.126044e+003, 3.292539e-001
3.127973e+003, 3.295238e-001
3.129901e+003, 3.297902e-001
3.131830e+003, 3.304520e-001
3.133758e+003, 3.312106e-001
3.135687e+003, 3.319085e-001
3.137615e+003, 3.323980e-001
3.139544e+003, 3.326566e-001
3.141472e+003, 3.322020e-001
3.143401e+003, 3.316520e-001
3.145329e+003, 3.316259e-001
3.147258e+003, 3.317249e-001
3.149186e+003, 3.315013e-001
3.151115e+003, 3.308658e-001
3.153043e+003, 3.303254e-001
3.154971e+003, 3.299529e-001
3.156900e+003, 3.296290e-001
3.158828e+003, 3.295241e-001
3.160757e+003, 3.290428e-001
3.162685e+003, 3.287675e-001
3.164614e+003, 3.282072e-001
3.166542e+003, 3.275443e-001
3.168471e+003, 3.270223e-001
3.170399e+003, 3.263305e-001
3.172328e+003, 3.253150e-001
3.174256e+003, 3.243030e-001
3.176185e+003, 3.237415e-001
3.178113e+003, 3.230285e-001
3.180042e+003, 3.223413e-001
3.181970e+003, 3.217467e-001
3.183898e+003, 3.210196e-001
3.185827e+003, 3.201888e-001
3.187755e+003, 3.191597e-001
3.189684e+003, 3.183524e-001
3.191612e+003, 3.176822e-001
3.193541e+003, 3.168932e-001
3.195469e+003, 3.157006e-001
3.197398e+003, 3.146066e-001
3.199326e+003, 3.133097e-001
3.201255e+003, 3.126154e-001
3.203183e+003, 3.122320e-001
3.205112e+003, 3.112255e-001
3.207040e+003, 3.102153e-001
3.208969e+003, 3.095660e-001
3.210897e+003, 3.083263e-001
3.212825e+003, 3.067926e-001
3.214754e+003, 3.059804e-001
3.216682e+003, 3.055341e-001
3.218611e+003, 3.043251e-001
3.220539e+003, 3.027695e-001
3.222468e+003, 3.015960e-001
3.224396e+003, 3.006381e-001
3.226325e+003, 2.994137e-001
3.228253e+003, 2.982930e-001
3.230182e+003, 2.971042e-001
3.232110e+003, 2.956893e-001
3.234039e+003, 2.946581e-001
3.235967e+003, 2.944510e-001
3.237896e+003, 2.931601e-001
3.239824e+003, 2.914012e-001
3.241752e+003, 2.904293e-001
3.243681e+003, 2.891343e-001
3.245609e+003, 2.875498e-001
3.247538e+003, 2.865933e-001
3.249466e+003, 2.857378e-001
3.251395e+003, 2.849977e-001
3.253323e+003, 2.840847e-001
3.255252e+003, 2.828614e-001
3.257180e+003, 2.815383e-001
3.259109e+003, 2.802911e-001
3.261037e+003, 2.792337e-001
3.262966e+003, 2.786894e-001
3.264894e+003, 2.781901e-001
3.266823e+003, 2.770008e-001
3.268751e+003, 2.762290e-001
3.270679e+003, 2.756248e-001
3.272608e+003, 2.745698e-001
3.274536e+003, 2.737101e-001
3.276465e+003, 2.727894e-001
3.278393e+003, 2.720039e-001
3.280322e+003, 2.713058e-001
3.282250e+003, 2.702754e-001
3.284179e+003, 2.689323e-001
3.286107e+003, 2.683987e-001
3.288036e+003, 2.687743e-001
3.289964e+003, 2.677524e-001
3.291893e+003, 2.668594e-001
3.293821e+003, 2.664774e-001
3.295750e+003, 2.659434e-001
3.297678e+003, 2.653965e-001
3.299606e+003, 2.647705e-001
3.301535e+003, 2.641492e-001
3.303463e+003, 2.637952e-001
3.305392e+003, 2.633498e-001
3.307320e+003, 2.631168e-001
3.309249e+003, 2.625605e-001
3.311177e+003, 2.617958e-001
3.313106e+003, 2.609711e-001
3.315034e+003, 2.604553e-001
3.316963e+003, 2.602587e-001
3.318891e+003, 2.605570e-001
3.320820e+003, 2.602904e-001
3.322748e+003, 2.595518e-001
3.324677e+003, 2.589625e-001
3.326605e+003, 2.588610e-001
3.328533e+003, 2.584372e-001
3.330462e+003, 2.577900e-001
3.332390e+003, 2.575191e-001
3.334319e+003, 2.569401e-001
3.336247e+003, 2.563855e-001
3.338176e+003, 2.562402e-001
3.340104e+003, 2.554849e-001
3.342033e+003, 2.547915e-001
3.343961e+003, 2.548262e-001
3.345890e+003, 2.542678e-001
3.347818e+003, 2.539254e-001
3.349747e+003, 2.532793e-001
3.351675e+003, 2.524072e-001
3.353604e+003, 2.517142e-001
3.355532e+003, 2.515013e-001
3.357460e+003, 2.511173e-001
3.359389e+003, 2.504564e-001
3.361317e+003, 2.491890e-001
3.363246e+003, 2.480416e-001
3.365174e+003, 2.476122e-001
3.367103e+003, 2.466018e-001
3.369031e+003, 2.447552e-001
3.370960e+003, 2.437418e-001
3.372888e+003, 2.432170e-001
3.374817e+003, 2.416008e-001
3.376745e+003, 2.395482e-001
3.378674e+003, 2.379338e-001
3.380602e+003, 2.367662e-001
3.382531e+003, 2.356611e-001
3.384459e+003, 2.342874e-001
3.386387e+003, 2.327936e-001
3.388316e+003, 2.311180e-001
3.390244e+003, 2.293029e-001
3.392173e+003, 2.276139e-001
3.394101e+003, 2.254851e-001
3.396030e+003, 2.237890e-001
3.397958e+003, 2.221230e-001
3.399887e+003, 2.198779e-001
3.401815e+003, 2.176608e-001
3.403744e+003, 2.164680e-001
3.405672e+003, 2.153861e-001
3.407601e+003, 2.131444e-001
3.409529e+003, 2.106992e-001
3.411458e+003, 2.085269e-001
3.413386e+003, 2.063176e-001
3.415314e+003, 2.035849e-001
3.417243e+003, 2.016423e-001
3.419171e+003, 1.999087e-001
3.421100e+003, 1.973776e-001
3.423028e+003, 1.949166e-001
3.424957e+003, 1.928767e-001
3.426885e+003, 1.909155e-001
3.428814e+003, 1.887400e-001
3.430742e+003, 1.859064e-001
3.432671e+003, 1.833543e-001
3.434599e+003, 1.807849e-001
3.436528e+003, 1.787846e-001
3.438456e+003, 1.766237e-001
3.440385e+003, 1.740692e-001
3.442313e+003, 1.716276e-001
3.444241e+003, 1.690144e-001
3.446170e+003, 1.662736e-001
3.448098e+003, 1.641886e-001
3.450027e+003, 1.622761e-001
3.451955e+003, 1.594182e-001
3.453884e+003, 1.560331e-001
3.455812e+003, 1.532197e-001
3.457741e+003, 1.510022e-001
3.459669e+003, 1.488008e-001
3.461598e+003, 1.466781e-001
3.463526e+003, 1.442659e-001
3.465455e+003, 1.411943e-001
3.467383e+003, 1.383704e-001
3.469312e+003, 1.359529e-001
3.471240e+003, 1.332981e-001
3.473168e+003, 1.301153e-001
3.475097e+003, 1.275552e-001
3.477025e+003, 1.251505e-001
3.478954e+003, 1.223428e-001
3.480882e+003, 1.197782e-001
3.482811e+003, 1.174284e-001
3.484739e+003, 1.148370e-001
3.486668e+003, 1.123765e-001
3.488596e+003, 1.098847e-001
3.490525e+003, 1.069015e-001
3.492453e+003, 1.040123e-001
3.494382e+003, 1.016401e-001
3.496310e+003, 9.928281e-002
3.498239e+003, 9.749343e-002
3.500167e+003, 9.605716e-002
3.502095e+003, 9.379568e-002
3.504024e+003, 9.144937e-002
3.505952e+003, 9.016339e-002
3.507881e+003, 8.875737e-002
3.509809e+003, 8.705635e-002
3.511738e+003, 8.499662e-002
3.513666e+003, 8.376512e-002
3.515595e+003, 8.336662e-002
3.517523e+003, 8.228597e-002
3.519452e+003, 8.139443e-002
3.521380e+003, 8.003999e-002
3.523309e+003, 7.849517e-002
3.525237e+003, 7.732123e-002
3.527166e+003, 7.651421e-002
3.529094e+003, 7.585624e-002
3.531022e+003, 7.517070e-002
3.532951e+003, 7.443725e-002
3.534879e+003, 7.394521e-002
3.536808e+003, 7.324208e-002
3.538736e+003, 7.184541e-002
3.540665e+003, 7.103323e-002
3.542593e+003, 7.019614e-002
3.544522e+003, 6.879824e-002
3.546450e+003, 6.755945e-002
3.548379e+003, 6.676781e-002
3.550307e+003, 6.540440e-002
3.552236e+003, 6.372463e-002
3.554164e+003, 6.242314e-002
3.556093e+003, 6.139091e-002
3.558021e+003, 6.023448e-002
3.559949e+003, 5.897643e-002
3.561878e+003, 5.690586e-002
3.563806e+003, 5.472244e-002
3.565735e+003, 5.311753e-002
3.567663e+003, 5.165544e-002
3.569592e+003, 5.052634e-002
3.571520e+003, 4.826029e-002
3.573449e+003, 4.525452e-002
3.575377e+003, 4.454482e-002
3.577306e+003, 4.401414e-002
3.579234e+003, 4.246640e-002
3.581163e+003, 3.999801e-002
3.583091e+003, 3.806891e-002
3.585020e+003, 3.717522e-002
3.586948e+003, 3.580903e-002
3.588876e+003, 3.390292e-002
3.590805e+003, 3.225240e-002
3.592733e+003, 3.124069e-002
3.594662e+003, 2.978028e-002
3.596590e+003, 2.786773e-002
3.598519e+003, 2.625970e-002
3.600447e+003, 2.533028e-002
3.602376e+003, 2.403508e-002
3.604304e+003, 2.210499e-002
3.606233e+003, 2.155712e-002
3.608161e+003, 2.127638e-002
3.610090e+003, 1.984539e-002
3.612018e+003, 1.927912e-002
3.613947e+003, 1.895458e-002
3.615875e+003, 1.854151e-002
3.617803e+003, 1.821163e-002
3.619732e+003, 1.790962e-002
3.621660e+003, 1.685430e-002
3.623589e+003, 1.522944e-002
3.625517e+003, 1.423048e-002
3.627446e+003, 1.407015e-002
3.629374e+003, 1.350573e-002
3.631303e+003, 1.198783e-002
3.633231e+003, 1.130847e-002
3.635160e+003, 1.085653e-002
3.637088e+003, 1.042985e-002
3.639017e+003, 9.997125e-003
3.640945e+003, 1.006015e-002
3.642874e+003, 1.008694e-002
3.644802e+003, 9.213270e-003
3.646730e+003, 9.184923e-003
3.648659e+003, 1.019188e-002
3.650587e+003, 9.991257e-003
3.652516e+003, 8.519803e-003
3.654444e+003, 7.718923e-003
3.656373e+003, 8.146781e-003
3.658301e+003, 7.789578e-003
3.660230e+003, 6.814581e-003
3.662158e+003, 6.750484e-003
3.664087e+003, 6.825564e-003
3.666015e+003, 7.288592e-003
3.667944e+003, 7.531805e-003
3.669872e+003, 7.293474e-003
3.671801e+003, 6.675288e-003
3.673729e+003, 7.049052e-003
3.675657e+003, 7.841161e-003
3.677586e+003, 7.046685e-003
3.679514e+003, 6.127181e-003
3.681443e+003, 5.958919e-003
3.683371e+003, 6.581591e-003
3.685300e+003, 6.884790e-003
3.687228e+003, 7.765628e-003
3.689157e+003, 8.458604e-003
3.691085e+003, 7.776971e-003
3.693014e+003, 6.853057e-003
3.694942e+003, 6.568534e-003
3.696871e+003, 6.999375e-003
3.698799e+003, 6.918669e-003
3.700728e+003, 6.561947e-003
3.702656e+003, 6.421562e-003
3.704584e+003, 5.734641e-003
3.706513e+003, 4.975094e-003
3.708441e+003, 5.157230e-003
3.710370e+003, 5.678438e-003
3.712298e+003, 5.756754e-003
3.714227e+003, 5.057359e-003
3.716155e+003, 5.030162e-003
3.718084e+003, 5.324152e-003
3.720012e+003, 5.031341e-003
3.721941e+003, 5.201771e-003
3.723869e+003, 5.668068e-003
3.725798e+003, 5.300336e-003
3.727726e+003, 4.952761e-003
3.729655e+003, 5.222908e-003
3.731583e+003, 5.116664e-003
3.733511e+003, 5.201157e-003
3.735440e+003, 5.502944e-003
3.737368e+003, 5.023178e-003
3.739297e+003, 5.216580e-003
3.741225e+003, 4.886813e-003
3.743154e+003, 6.222824e-003
3.745082e+003, 6.537388e-003
3.747011e+003, 5.315924e-003
3.748939e+003, 5.845691e-003
3.750868e+003, 6.483349e-003
3.752796e+003, 6.157561e-003
3.754725e+003, 4.897621e-003
3.756653e+003, 4.735257e-003
3.758582e+003, 4.825540e-003
3.760510e+003, 4.833425e-003
3.762438e+003, 5.077157e-003
3.764367e+003, 5.777097e-003
3.766295e+003, 6.106356e-003
3.768224e+003, 6.022938e-003
3.770152e+003, 6.501439e-003
3.772081e+003, 6.206954e-003
3.774009e+003, 5.088642e-003
3.775938e+003, 5.103593e-003
3.777866e+003, 5.593137e-003
3.779795e+003, 5.905953e-003
3.781723e+003, 6.022580e-003
3.783652e+003, 5.904777e-003
3.785580e+003, 5.602871e-003
3.787509e+003, 5.547844e-003
3.789437e+003, 5.507512e-003
3.791365e+003, 5.219364e-003
3.793294e+003, 5.208697e-003
3.795222e+003, 5.980453e-003
3.797151e+003, 6.377295e-003
3.799079e+003, 6.510248e-003
3.801008e+003, 6.789259e-003
3.802936e+003, 6.364532e-003
3.804865e+003, 6.411481e-003
3.806793e+003, 6.302846e-003
3.808722e+003, 5.889758e-003
3.810650e+003, 5.755311e-003
3.812579e+003, 6.602756e-003
3.814507e+003, 7.468361e-003
3.816436e+003, 6.992751e-003
3.818364e+003, 5.922232e-003
3.820292e+003, 6.479994e-003
3.822221e+003, 6.639083e-003
3.824149e+003, 6.382093e-003
3.826078e+003, 6.438063e-003
3.828006e+003, 5.837167e-003
3.829935e+003, 6.010062e-003
3.831863e+003, 6.649632e-003
3.833792e+003, 7.293008e-003
3.835720e+003, 7.834493e-003
3.837649e+003, 7.150793e-003
3.839577e+003, 6.455842e-003
3.841506e+003, 7.137012e-003
3.843434e+003, 7.352469e-003
3.845363e+003, 6.701499e-003
3.847291e+003, 6.582961e-003
3.849219e+003, 6.955137e-003
3.851148e+003, 7.303285e-003
3.853076e+003, 8.746716e-003
3.855005e+003, 8.599007e-003
3.856933e+003, 7.086389e-003
3.858862e+003, 7.122992e-003
3.860790e+003, 7.322936e-003
3.862719e+003, 6.959577e-003
3.864647e+003, 7.948223e-003
3.866576e+003, 7.667167e-003
3.868504e+003, 6.758482e-003
3.870433e+003, 6.610254e-003
3.872361e+003, 6.617733e-003
3.874290e+003, 7.122770e-003
3.876218e+003, 7.550531e-003
3.878146e+003, 7.278926e-003
3.880075e+003, 6.964374e-003
3.882003e+003, 7.432035e-003
3.883932e+003, 8.123348e-003
3.885860e+003, 7.851654e-003
3.887789e+003, 7.416050e-003
3.889717e+003, 7.464211e-003
3.891646e+003, 7.177110e-003
3.893574e+003, 6.382851e-003
3.895503e+003, 6.716498e-003
3.897431e+003, 7.776638e-003
3.899360e+003, 8.076520e-003
3.901288e+003, 7.400792e-003
3.903217e+003, 7.069565e-003
3.905145e+003, 7.393579e-003
3.907073e+003, 7.604714e-003
3.909002e+003, 7.592408e-003
3.910930e+003, 7.351024e-003
3.912859e+003, 7.734593e-003
3.914787e+003, 7.879488e-003
3.916716e+003, 7.744998e-003
3.918644e+003, 7.747727e-003
3.920573e+003, 7.881348e-003
3.922501e+003, 7.926562e-003
3.924430e+003, 7.686008e-003
3.926358e+003, 7.154268e-003
3.928287e+003, 7.310808e-003
3.930215e+003, 7.774125e-003
3.932144e+003, 8.310798e-003
3.934072e+003, 8.116660e-003
3.936000e+003, 7.129574e-003
3.937929e+003, 7.176399e-003
3.939857e+003, 7.167146e-003
3.941786e+003, 7.229376e-003
3.943714e+003, 7.561364e-003
3.945643e+003, 8.005367e-003
3.947571e+003, 8.232922e-003
3.949500e+003, 8.049658e-003
3.951428e+003, 7.726579e-003
3.953357e+003, 7.725565e-003
3.955285e+003, 7.497353e-003
3.957214e+003, 6.741125e-003
3.959142e+003, 6.690117e-003
3.961071e+003, 7.518090e-003
3.962999e+003, 8.445952e-003
3.964927e+003, 7.896023e-003
3.966856e+003, 7.653838e-003
3.968784e+003, 8.057275e-003
3.970713e+003, 7.605171e-003
3.972641e+003, 6.892519e-003
3.974570e+003, 7.203676e-003
3.976498e+003, 7.898321e-003
3.978427e+003, 7.267911e-003
3.980355e+003, 6.598447e-003
3.982284e+003, 7.677755e-003
3.984212e+003, 8.882045e-003
3.986141e+003, 8.629048e-003
3.988069e+003, 7.804039e-003
3.989998e+003, 7.415779e-003
3.991926e+003, 7.744289e-003
3.993854e+003, 7.856594e-003
3.995783e+003, 7.897336e-003
3.997711e+003, 7.570070e-003
3.999640e+003, 7.416240e-003
##END=



