##NAMES=Dolomite
##RRUFFID=R040030
##IDEAL CHEMISTRY=CaMg(CO_3_)_2_
##LOCALITY=Austria
##OWNER=RRUFF
##SOURCE=University of Arizona Mineral Museum
##DESCRIPTION=Group of colorless tabular crystals
##STATUS=The identification of this mineral has been confirmed by X-ray diffraction and chemical analysis
##URL=rruff.info/R040030
##MEASURED CHEMISTRY=(Ca_0.99_Mg_0.01_)_Î£=1_Mg_1.00_(CO_3_)_2_ ; trace amounts of Mn; CO_2_ estimated by difference
3.991926e+002, 0.000000e+000
4.011211e+002, 8.138441e-002
4.030496e+002, 8.176645e-002
4.049780e+002, 8.058379e-002
4.069065e+002, 7.890530e-002
4.088350e+002, 7.037454e-002
4.107634e+002, 6.706267e-002
4.126919e+002, 6.617036e-002
4.146204e+002, 6.187041e-002
4.165488e+002, 5.770598e-002
4.184773e+002, 5.626538e-002
4.204058e+002, 5.409279e-002
4.223342e+002, 4.924680e-002
4.242627e+002, 4.357623e-002
4.261912e+002, 4.202713e-002
4.281196e+002, 4.258178e-002
4.300481e+002, 3.959101e-002
4.319766e+002, 3.649938e-002
4.339050e+002, 3.581897e-002
4.358335e+002, 3.239102e-002
4.377620e+002, 2.900978e-002
4.396904e+002, 2.785992e-002
4.416189e+002, 2.775554e-002
4.435474e+002, 2.533855e-002
4.454758e+002, 2.408206e-002
4.474043e+002, 2.377839e-002
4.493328e+002, 2.375331e-002
4.512612e+002, 2.175856e-002
4.531897e+002, 2.035557e-002
4.551182e+002, 1.946214e-002
4.570466e+002, 1.972627e-002
4.589751e+002, 1.898898e-002
4.609036e+002, 1.770936e-002
4.628320e+002, 1.795421e-002
4.647605e+002, 1.825086e-002
4.666890e+002, 1.648025e-002
4.686174e+002, 1.635343e-002
4.705459e+002, 1.586958e-002
4.724744e+002, 1.534923e-002
4.744028e+002, 1.439386e-002
4.763313e+002, 1.456845e-002
4.782598e+002, 1.456826e-002
4.801882e+002, 1.414301e-002
4.821167e+002, 1.336241e-002
4.840452e+002, 1.388365e-002
4.859736e+002, 1.471665e-002
4.879021e+002, 1.466916e-002
4.898306e+002, 1.435704e-002
4.917590e+002, 1.502262e-002
4.936875e+002, 1.518116e-002
4.956160e+002, 1.446464e-002
4.975444e+002, 1.360867e-002
4.994729e+002, 1.344322e-002
5.014014e+002, 1.389490e-002
5.033298e+002, 1.379549e-002
5.052583e+002, 1.357104e-002
5.071868e+002, 1.327029e-002
5.091152e+002, 1.284330e-002
5.110437e+002, 1.243463e-002
5.129722e+002, 1.241525e-002
5.149006e+002, 1.250602e-002
5.168291e+002, 1.242279e-002
5.187576e+002, 1.221309e-002
5.206860e+002, 1.190574e-002
5.226145e+002, 1.138934e-002
5.245430e+002, 1.081097e-002
5.264714e+002, 1.015668e-002
5.283999e+002, 9.874260e-003
5.303284e+002, 1.028296e-002
5.322568e+002, 1.037174e-002
5.341853e+002, 9.661389e-003
5.361138e+002, 9.385714e-003
5.380422e+002, 9.935954e-003
5.399707e+002, 9.482589e-003
5.418992e+002, 9.322920e-003
5.438276e+002, 9.339700e-003
5.457561e+002, 9.382457e-003
5.476846e+002, 9.357231e-003
5.496130e+002, 9.142516e-003
5.515415e+002, 8.935656e-003
5.534700e+002, 8.966981e-003
5.553984e+002, 8.892980e-003
5.573269e+002, 8.712584e-003
5.592554e+002, 8.384434e-003
5.611838e+002, 8.604746e-003
5.631123e+002, 8.324965e-003
5.650408e+002, 8.076678e-003
5.669692e+002, 8.297018e-003
5.688977e+002, 8.429569e-003
5.708262e+002, 8.251024e-003
5.727546e+002, 8.406940e-003
5.746831e+002, 8.393892e-003
5.766116e+002, 7.978435e-003
5.785400e+002, 7.723036e-003
5.804685e+002, 8.072997e-003
5.823970e+002, 8.277319e-003
5.843254e+002, 8.331500e-003
5.862539e+002, 8.364764e-003
5.881824e+002, 8.683917e-003
5.901108e+002, 8.834222e-003
5.920393e+002, 9.069434e-003
5.939678e+002, 8.974303e-003
5.958962e+002, 9.193312e-003
5.978247e+002, 9.483128e-003
5.997532e+002, 9.878784e-003
6.016816e+002, 1.047418e-002
6.036101e+002, 1.088169e-002
6.055386e+002, 1.099463e-002
6.074670e+002, 1.024200e-002
6.093955e+002, 9.609200e-003
6.113240e+002, 9.520502e-003
6.132524e+002, 8.929151e-003
6.151809e+002, 8.161821e-003
6.171094e+002, 8.048668e-003
6.190378e+002, 8.045441e-003
6.209663e+002, 8.194475e-003
6.228948e+002, 8.103978e-003
6.248232e+002, 7.941091e-003
6.267517e+002, 7.752963e-003
6.286802e+002, 8.005072e-003
6.306086e+002, 7.911167e-003
6.325371e+002, 7.480748e-003
6.344656e+002, 7.836509e-003
6.363940e+002, 8.150022e-003
6.383225e+002, 7.933103e-003
6.402510e+002, 7.976395e-003
6.421794e+002, 8.044771e-003
6.441079e+002, 8.125305e-003
6.460364e+002, 8.061635e-003
6.479648e+002, 7.942189e-003
6.498933e+002, 7.862409e-003
6.518218e+002, 8.071283e-003
6.537502e+002, 8.546991e-003
6.556787e+002, 8.643034e-003
6.576072e+002, 8.563811e-003
6.595356e+002, 8.556845e-003
6.614641e+002, 8.749384e-003
6.633926e+002, 9.264853e-003
6.653210e+002, 1.038671e-002
6.672495e+002, 1.178958e-002
6.691780e+002, 1.289369e-002
6.711064e+002, 1.314190e-002
6.730349e+002, 1.250938e-002
6.749634e+002, 1.151848e-002
6.768918e+002, 1.093536e-002
6.788203e+002, 1.065198e-002
6.807488e+002, 1.018343e-002
6.826772e+002, 9.643991e-003
6.846057e+002, 9.279564e-003
6.865342e+002, 9.168446e-003
6.884626e+002, 9.006144e-003
6.903911e+002, 8.969875e-003
6.923196e+002, 8.917348e-003
6.942480e+002, 9.019213e-003
6.961765e+002, 9.630521e-003
6.981050e+002, 1.013345e-002
7.000334e+002, 1.009982e-002
7.019619e+002, 1.042337e-002
7.038904e+002, 1.097291e-002
7.058188e+002, 1.155676e-002
7.077473e+002, 1.196539e-002
7.096758e+002, 1.268438e-002
7.116042e+002, 1.369438e-002
7.135327e+002, 1.521126e-002
7.154612e+002, 1.704648e-002
7.173896e+002, 1.969617e-002
7.193181e+002, 2.339065e-002
7.212466e+002, 2.974287e-002
7.231750e+002, 4.094898e-002
7.251035e+002, 5.890143e-002
7.270320e+002, 7.989283e-002
7.289604e+002, 8.786806e-002
7.308889e+002, 7.072348e-002
7.328174e+002, 4.474559e-002
7.347458e+002, 2.681788e-002
7.366743e+002, 1.763143e-002
7.386028e+002, 1.313344e-002
7.405313e+002, 1.063482e-002
7.424597e+002, 9.002090e-003
7.443882e+002, 8.210273e-003
7.463167e+002, 7.719738e-003
7.482451e+002, 7.434568e-003
7.501736e+002, 7.164478e-003
7.521021e+002, 6.931589e-003
7.540305e+002, 6.785493e-003
7.559590e+002, 6.622640e-003
7.578875e+002, 6.488419e-003
7.598159e+002, 6.880624e-003
7.617444e+002, 6.890695e-003
7.636729e+002, 6.882877e-003
7.656013e+002, 7.078161e-003
7.675298e+002, 7.246262e-003
7.694583e+002, 7.271118e-003
7.713867e+002, 7.229977e-003
7.733152e+002, 7.216298e-003
7.752437e+002, 7.405879e-003
7.771721e+002, 7.550261e-003
7.791006e+002, 7.542231e-003
7.810291e+002, 7.745530e-003
7.829575e+002, 8.099542e-003
7.848860e+002, 8.101599e-003
7.868145e+002, 8.287125e-003
7.887429e+002, 8.398918e-003
7.906714e+002, 8.407835e-003
7.925999e+002, 8.463200e-003
7.945283e+002, 8.665967e-003
7.964568e+002, 8.866033e-003
7.983853e+002, 9.167030e-003
8.003137e+002, 9.154654e-003
8.022422e+002, 9.423953e-003
8.041707e+002, 9.632871e-003
8.060991e+002, 9.731708e-003
8.080276e+002, 9.889327e-003
8.099561e+002, 1.027855e-002
8.118845e+002, 1.051222e-002
8.138130e+002, 1.058144e-002
8.157415e+002, 1.048392e-002
8.176699e+002, 1.095172e-002
8.195984e+002, 1.142449e-002
8.215269e+002, 1.185356e-002
8.234553e+002, 1.218902e-002
8.253838e+002, 1.250524e-002
8.273123e+002, 1.284473e-002
8.292407e+002, 1.344303e-002
8.311692e+002, 1.380675e-002
8.330977e+002, 1.429811e-002
8.350261e+002, 1.476419e-002
8.369546e+002, 1.571024e-002
8.388831e+002, 1.668978e-002
8.408115e+002, 1.783375e-002
8.427400e+002, 1.912722e-002
8.446685e+002, 2.116774e-002
8.465969e+002, 2.379621e-002
8.485254e+002, 2.798369e-002
8.504539e+002, 3.536685e-002
8.523823e+002, 4.249097e-002
8.543108e+002, 3.853253e-002
8.562393e+002, 3.587633e-002
8.581677e+002, 4.155513e-002
8.600962e+002, 4.976353e-002
8.620247e+002, 5.987293e-002
8.639531e+002, 7.235785e-002
8.658816e+002, 8.829030e-002
8.678101e+002, 1.083499e-001
8.697385e+002, 1.326429e-001
8.716670e+002, 1.595259e-001
8.735955e+002, 1.834088e-001
8.755239e+002, 1.979407e-001
8.774524e+002, 2.023469e-001
8.793809e+002, 1.975008e-001
8.813093e+002, 1.852381e-001
8.832378e+002, 1.662066e-001
8.851663e+002, 1.415659e-001
8.870947e+002, 1.140889e-001
8.890232e+002, 8.678803e-002
8.909517e+002, 6.210960e-002
8.928801e+002, 4.193497e-002
8.948085e+002, 2.760096e-002
8.967370e+002, 1.919252e-002
8.986655e+002, 1.523151e-002
9.005939e+002, 1.353984e-002
9.025224e+002, 1.284766e-002
9.044509e+002, 1.249184e-002
9.063793e+002, 1.238609e-002
9.083078e+002, 1.238474e-002
9.102363e+002, 1.230011e-002
9.121647e+002, 1.220683e-002
9.140932e+002, 1.218096e-002
9.160217e+002, 1.226303e-002
9.179501e+002, 1.231708e-002
9.198786e+002, 1.226626e-002
9.218071e+002, 1.223772e-002
9.237355e+002, 1.202760e-002
9.256640e+002, 1.224599e-002
9.275925e+002, 1.269555e-002
9.295209e+002, 1.275332e-002
9.314494e+002, 1.277593e-002
9.333779e+002, 1.291230e-002
9.353063e+002, 1.288565e-002
9.372348e+002, 1.315848e-002
9.391633e+002, 1.316428e-002
9.410917e+002, 1.316298e-002
9.430202e+002, 1.352860e-002
9.449487e+002, 1.375401e-002
9.468771e+002, 1.380145e-002
9.488056e+002, 1.403586e-002
9.507341e+002, 1.410038e-002
9.526625e+002, 1.422933e-002
9.545910e+002, 1.427736e-002
9.565195e+002, 1.441296e-002
9.584479e+002, 1.451131e-002
9.603764e+002, 1.461284e-002
9.623049e+002, 1.469674e-002
9.642333e+002, 1.472580e-002
9.661618e+002, 1.490377e-002
9.680903e+002, 1.530317e-002
9.700187e+002, 1.547241e-002
9.719472e+002, 1.552228e-002
9.738757e+002, 1.563404e-002
9.758041e+002, 1.587575e-002
9.777326e+002, 1.611540e-002
9.796611e+002, 1.649440e-002
9.815895e+002, 1.660877e-002
9.835180e+002, 1.671486e-002
9.854465e+002, 1.690974e-002
9.873749e+002, 1.718789e-002
9.893034e+002, 1.746941e-002
9.912319e+002, 1.772939e-002
9.931603e+002, 1.791596e-002
9.950888e+002, 1.821889e-002
9.970173e+002, 1.839381e-002
9.989457e+002, 1.862992e-002
1.000874e+003, 1.885238e-002
1.002803e+003, 1.921514e-002
1.004731e+003, 1.947166e-002
1.006660e+003, 1.959767e-002
1.008588e+003, 1.973505e-002
1.010517e+003, 2.002753e-002
1.012445e+003, 2.021367e-002
1.014373e+003, 2.035161e-002
1.016302e+003, 2.048024e-002
1.018230e+003, 2.053649e-002
1.020159e+003, 2.057893e-002
1.022087e+003, 2.087213e-002
1.024016e+003, 2.114687e-002
1.025944e+003, 2.147433e-002
1.027873e+003, 2.155809e-002
1.029801e+003, 2.165172e-002
1.031730e+003, 2.176694e-002
1.033658e+003, 2.204334e-002
1.035587e+003, 2.239178e-002
1.037515e+003, 2.291039e-002
1.039444e+003, 2.333929e-002
1.041372e+003, 2.355278e-002
1.043301e+003, 2.359014e-002
1.045229e+003, 2.368855e-002
1.047157e+003, 2.386549e-002
1.049086e+003, 2.409704e-002
1.051014e+003, 2.437355e-002
1.052943e+003, 2.478556e-002
1.054871e+003, 2.518215e-002
1.056800e+003, 2.561377e-002
1.058728e+003, 2.587511e-002
1.060657e+003, 2.632100e-002
1.062585e+003, 2.676224e-002
1.064514e+003, 2.722821e-002
1.066442e+003, 2.764393e-002
1.068371e+003, 2.826525e-002
1.070299e+003, 2.873208e-002
1.072228e+003, 2.922888e-002
1.074156e+003, 2.978781e-002
1.076084e+003, 3.033118e-002
1.078013e+003, 3.089868e-002
1.079941e+003, 3.164456e-002
1.081870e+003, 3.225075e-002
1.083798e+003, 3.279511e-002
1.085727e+003, 3.318101e-002
1.087655e+003, 3.380179e-002
1.089584e+003, 3.464752e-002
1.091512e+003, 3.545756e-002
1.093441e+003, 3.629449e-002
1.095369e+003, 3.741503e-002
1.097298e+003, 3.884377e-002
1.099226e+003, 4.035993e-002
1.101155e+003, 4.124700e-002
1.103083e+003, 4.210170e-002
1.105011e+003, 4.320286e-002
1.106940e+003, 4.479167e-002
1.108868e+003, 4.669151e-002
1.110797e+003, 4.901931e-002
1.112725e+003, 5.150216e-002
1.114654e+003, 5.371711e-002
1.116582e+003, 5.558312e-002
1.118511e+003, 5.740066e-002
1.120439e+003, 5.881321e-002
1.122368e+003, 5.971010e-002
1.124296e+003, 5.997872e-002
1.126225e+003, 5.988084e-002
1.128153e+003, 5.978789e-002
1.130082e+003, 5.987842e-002
1.132010e+003, 6.001128e-002
1.133938e+003, 6.074358e-002
1.135867e+003, 6.179821e-002
1.137795e+003, 6.303754e-002
1.139724e+003, 6.473366e-002
1.141652e+003, 6.663232e-002
1.143581e+003, 6.781250e-002
1.145509e+003, 6.882490e-002
1.147438e+003, 6.987716e-002
1.149366e+003, 7.070075e-002
1.151295e+003, 7.105383e-002
1.153223e+003, 7.136258e-002
1.155152e+003, 7.145987e-002
1.157080e+003, 7.167502e-002
1.159009e+003, 7.167970e-002
1.160937e+003, 7.114574e-002
1.162865e+003, 7.053634e-002
1.164794e+003, 7.007474e-002
1.166722e+003, 6.937579e-002
1.168651e+003, 6.855333e-002
1.170579e+003, 6.727156e-002
1.172508e+003, 6.577046e-002
1.174436e+003, 6.391060e-002
1.176365e+003, 6.206094e-002
1.178293e+003, 6.027336e-002
1.180222e+003, 5.863399e-002
1.182150e+003, 5.713561e-002
1.184079e+003, 5.597526e-002
1.186007e+003, 5.516413e-002
1.187936e+003, 5.460894e-002
1.189864e+003, 5.417391e-002
1.191792e+003, 5.392884e-002
1.193721e+003, 5.366308e-002
1.195649e+003, 5.366345e-002
1.197578e+003, 5.347340e-002
1.199506e+003, 5.339290e-002
1.201435e+003, 5.357755e-002
1.203363e+003, 5.403416e-002
1.205292e+003, 5.455416e-002
1.207220e+003, 5.511379e-002
1.209149e+003, 5.581145e-002
1.211077e+003, 5.653296e-002
1.213006e+003, 5.736267e-002
1.214934e+003, 5.834760e-002
1.216863e+003, 5.927456e-002
1.218791e+003, 6.026471e-002
1.220719e+003, 6.111794e-002
1.222648e+003, 6.198016e-002
1.224576e+003, 6.276079e-002
1.226505e+003, 6.367008e-002
1.228433e+003, 6.455217e-002
1.230362e+003, 6.540857e-002
1.232290e+003, 6.595115e-002
1.234219e+003, 6.647635e-002
1.236147e+003, 6.704061e-002
1.238076e+003, 6.795571e-002
1.240004e+003, 6.877600e-002
1.241933e+003, 6.963354e-002
1.243861e+003, 7.058629e-002
1.245790e+003, 7.155140e-002
1.247718e+003, 7.248503e-002
1.249646e+003, 7.351461e-002
1.251575e+003, 7.449570e-002
1.253503e+003, 7.549468e-002
1.255432e+003, 7.648350e-002
1.257360e+003, 7.770516e-002
1.259289e+003, 7.910441e-002
1.261217e+003, 8.045033e-002
1.263146e+003, 8.143230e-002
1.265074e+003, 8.278796e-002
1.267003e+003, 8.416934e-002
1.268931e+003, 8.542730e-002
1.270860e+003, 8.664370e-002
1.272788e+003, 8.826081e-002
1.274717e+003, 8.999425e-002
1.276645e+003, 9.167980e-002
1.278573e+003, 9.344202e-002
1.280502e+003, 9.534338e-002
1.282430e+003, 9.713812e-002
1.284359e+003, 9.900001e-002
1.286287e+003, 1.010360e-001
1.288216e+003, 1.030783e-001
1.290144e+003, 1.049869e-001
1.292073e+003, 1.069459e-001
1.294001e+003, 1.089171e-001
1.295930e+003, 1.108939e-001
1.297858e+003, 1.126164e-001
1.299787e+003, 1.144717e-001
1.301715e+003, 1.164893e-001
1.303644e+003, 1.185417e-001
1.305572e+003, 1.206723e-001
1.307500e+003, 1.230685e-001
1.309429e+003, 1.253809e-001
1.311357e+003, 1.278062e-001
1.313286e+003, 1.303808e-001
1.315214e+003, 1.329654e-001
1.317143e+003, 1.354676e-001
1.319071e+003, 1.381873e-001
1.321000e+003, 1.410859e-001
1.322928e+003, 1.439769e-001
1.324857e+003, 1.469683e-001
1.326785e+003, 1.502611e-001
1.328714e+003, 1.533863e-001
1.330642e+003, 1.564671e-001
1.332571e+003, 1.597436e-001
1.334499e+003, 1.634584e-001
1.336427e+003, 1.670654e-001
1.338356e+003, 1.703592e-001
1.340284e+003, 1.736478e-001
1.342213e+003, 1.770666e-001
1.344141e+003, 1.808084e-001
1.346070e+003, 1.849385e-001
1.347998e+003, 1.890176e-001
1.349927e+003, 1.932959e-001
1.351855e+003, 1.977103e-001
1.353784e+003, 2.024689e-001
1.355712e+003, 2.072659e-001
1.357641e+003, 2.123116e-001
1.359569e+003, 2.175120e-001
1.361498e+003, 2.228952e-001
1.363426e+003, 2.283262e-001
1.365354e+003, 2.337928e-001
1.367283e+003, 2.392638e-001
1.369211e+003, 2.448148e-001
1.371140e+003, 2.504447e-001
1.373068e+003, 2.562864e-001
1.374997e+003, 2.620693e-001
1.376925e+003, 2.681247e-001
1.378854e+003, 2.743298e-001
1.380782e+003, 2.802842e-001
1.382711e+003, 2.859518e-001
1.384639e+003, 2.918655e-001
1.386568e+003, 2.980634e-001
1.388496e+003, 3.049026e-001
1.390424e+003, 3.120733e-001
1.392353e+003, 3.198228e-001
1.394281e+003, 3.277712e-001
1.396210e+003, 3.356639e-001
1.398138e+003, 3.437614e-001
1.400067e+003, 3.518090e-001
1.401995e+003, 3.592916e-001
1.403924e+003, 3.659113e-001
1.405852e+003, 3.717205e-001
1.407781e+003, 3.759103e-001
1.409709e+003, 3.789366e-001
1.411638e+003, 3.829971e-001
1.413566e+003, 3.880709e-001
1.415495e+003, 3.929019e-001
1.417423e+003, 3.964525e-001
1.419351e+003, 3.986372e-001
1.421280e+003, 3.998330e-001
1.423208e+003, 4.008313e-001
1.425137e+003, 4.012250e-001
1.427065e+003, 4.004651e-001
1.428994e+003, 3.984554e-001
1.430922e+003, 3.951184e-001
1.432851e+003, 3.908411e-001
1.434779e+003, 3.861189e-001
1.436708e+003, 3.807336e-001
1.438636e+003, 3.745849e-001
1.440565e+003, 3.680657e-001
1.442493e+003, 3.618130e-001
1.444422e+003, 3.560342e-001
1.446350e+003, 3.502849e-001
1.448278e+003, 3.445687e-001
1.450207e+003, 3.386949e-001
1.452135e+003, 3.320974e-001
1.454064e+003, 3.256855e-001
1.455992e+003, 3.194754e-001
1.457921e+003, 3.130173e-001
1.459849e+003, 3.062561e-001
1.461778e+003, 2.991377e-001
1.463706e+003, 2.920417e-001
1.465635e+003, 2.853014e-001
1.467563e+003, 2.787737e-001
1.469492e+003, 2.724026e-001
1.471420e+003, 2.660644e-001
1.473349e+003, 2.596404e-001
1.475277e+003, 2.535077e-001
1.477205e+003, 2.473683e-001
1.479134e+003, 2.411197e-001
1.481062e+003, 2.352893e-001
1.482991e+003, 2.293691e-001
1.484919e+003, 2.237263e-001
1.486848e+003, 2.183497e-001
1.488776e+003, 2.130146e-001
1.490705e+003, 2.078432e-001
1.492633e+003, 2.028255e-001
1.494562e+003, 1.976353e-001
1.496490e+003, 1.922806e-001
1.498419e+003, 1.869774e-001
1.500347e+003, 1.817385e-001
1.502276e+003, 1.764908e-001
1.504204e+003, 1.712897e-001
1.506132e+003, 1.658845e-001
1.508061e+003, 1.602530e-001
1.509989e+003, 1.546925e-001
1.511918e+003, 1.493225e-001
1.513846e+003, 1.442071e-001
1.515775e+003, 1.390546e-001
1.517703e+003, 1.338765e-001
1.519632e+003, 1.291251e-001
1.521560e+003, 1.242300e-001
1.523489e+003, 1.195024e-001
1.525417e+003, 1.149985e-001
1.527346e+003, 1.102705e-001
1.529274e+003, 1.054688e-001
1.531203e+003, 1.012412e-001
1.533131e+003, 9.693689e-002
1.535059e+003, 9.243401e-002
1.536988e+003, 8.840679e-002
1.538916e+003, 8.463491e-002
1.540845e+003, 8.062199e-002
1.542773e+003, 7.670658e-002
1.544702e+003, 7.269336e-002
1.546630e+003, 6.895520e-002
1.548559e+003, 6.523502e-002
1.550487e+003, 6.160533e-002
1.552416e+003, 5.817690e-002
1.554344e+003, 5.483198e-002
1.556273e+003, 5.123305e-002
1.558201e+003, 4.772925e-002
1.560130e+003, 4.385752e-002
1.562058e+003, 3.979985e-002
1.563986e+003, 3.577585e-002
1.565915e+003, 3.166696e-002
1.567843e+003, 2.751140e-002
1.569772e+003, 2.376622e-002
1.571700e+003, 2.026149e-002
1.573629e+003, 1.732521e-002
1.575557e+003, 1.520730e-002
1.577486e+003, 1.362091e-002
1.579414e+003, 1.241965e-002
1.581343e+003, 1.172771e-002
1.583271e+003, 1.111911e-002
1.585200e+003, 1.089766e-002
1.587128e+003, 1.074804e-002
1.589057e+003, 1.085786e-002
1.590985e+003, 1.088764e-002
1.592913e+003, 1.100674e-002
1.594842e+003, 1.091414e-002
1.596770e+003, 1.082270e-002
1.598699e+003, 1.070316e-002
1.600627e+003, 1.042427e-002
1.602556e+003, 1.024513e-002
1.604484e+003, 1.025083e-002
1.606413e+003, 1.013212e-002
1.608341e+003, 9.987119e-003
1.610270e+003, 9.745358e-003
1.612198e+003, 9.592053e-003
1.614127e+003, 9.394866e-003
1.616055e+003, 9.609521e-003
1.617984e+003, 9.618379e-003
1.619912e+003, 9.637522e-003
1.621840e+003, 9.300796e-003
1.623769e+003, 8.449703e-003
1.625697e+003, 7.923513e-003
1.627626e+003, 7.408177e-003
1.629554e+003, 6.464879e-003
1.631483e+003, 5.793610e-003
1.633411e+003, 5.613650e-003
1.635340e+003, 5.837354e-003
1.637268e+003, 5.636530e-003
1.639197e+003, 5.245559e-003
1.641125e+003, 4.885573e-003
1.643054e+003, 4.554883e-003
1.644982e+003, 4.388283e-003
1.646911e+003, 4.638015e-003
1.648839e+003, 4.382139e-003
1.650767e+003, 4.042463e-003
1.652696e+003, 4.046081e-003
1.654624e+003, 4.100589e-003
1.656553e+003, 3.846525e-003
1.658481e+003, 3.527663e-003
1.660410e+003, 3.232233e-003
1.662338e+003, 3.088279e-003
1.664267e+003, 3.001377e-003
1.666195e+003, 3.069280e-003
1.668124e+003, 2.999902e-003
1.670052e+003, 2.850580e-003
1.671981e+003, 2.713733e-003
1.673909e+003, 2.907230e-003
1.675838e+003, 2.811294e-003
1.677766e+003, 2.557983e-003
1.679694e+003, 2.738664e-003
1.681623e+003, 3.382472e-003
1.683551e+003, 3.657420e-003
1.685480e+003, 3.314656e-003
1.687408e+003, 2.678238e-003
1.689337e+003, 2.202583e-003
1.691265e+003, 1.971315e-003
1.693194e+003, 1.983747e-003
1.695122e+003, 2.209455e-003
1.697051e+003, 2.006645e-003
1.698979e+003, 1.766078e-003
1.700908e+003, 1.886947e-003
1.702836e+003, 1.634253e-003
1.704765e+003, 1.444560e-003
1.706693e+003, 1.091078e-003
1.708621e+003, 9.581816e-004
1.710550e+003, 1.070732e-003
1.712478e+003, 1.031029e-003
1.714407e+003, 1.026048e-003
1.716335e+003, 1.187128e-003
1.718264e+003, 6.387832e-004
1.720192e+003, 1.574234e-005
1.722121e+003, -2.774209e-004
1.724049e+003, -4.642642e-004
1.725978e+003, -6.189647e-004
1.727906e+003, -9.246682e-004
1.729835e+003, -1.281798e-003
1.731763e+003, -1.165615e-003
1.733692e+003, -1.089194e-003
1.735620e+003, -1.310024e-003
1.737548e+003, -1.485305e-003
1.739477e+003, -1.215110e-003
1.741405e+003, -1.092763e-003
1.743334e+003, -8.655800e-004
1.745262e+003, -6.827738e-004
1.747191e+003, -4.616221e-004
1.749119e+003, -1.681870e-004
1.751048e+003, 1.766139e-004
1.752976e+003, 1.724531e-004
1.754905e+003, 3.703588e-004
1.756833e+003, 6.032934e-004
1.758762e+003, 9.573483e-004
1.760690e+003, 1.364472e-003
1.762619e+003, 1.587856e-003
1.764547e+003, 1.280374e-003
1.766475e+003, 1.320002e-003
1.768404e+003, 1.753797e-003
1.770332e+003, 2.016030e-003
1.772261e+003, 2.009218e-003
1.774189e+003, 2.022841e-003
1.776118e+003, 1.932588e-003
1.778046e+003, 1.980050e-003
1.779975e+003, 2.438929e-003
1.781903e+003, 2.659682e-003
1.783832e+003, 2.631783e-003
1.785760e+003, 2.400208e-003
1.787689e+003, 2.324733e-003
1.789617e+003, 2.929186e-003
1.791546e+003, 3.556033e-003
1.793474e+003, 3.612814e-003
1.795402e+003, 3.315424e-003
1.797331e+003, 3.759766e-003
1.799259e+003, 4.225624e-003
1.801188e+003, 4.636849e-003
1.803116e+003, 5.105502e-003
1.805045e+003, 5.536631e-003
1.806973e+003, 6.192032e-003
1.808902e+003, 7.101641e-003
1.810830e+003, 7.944512e-003
1.812759e+003, 8.282382e-003
1.814687e+003, 8.107466e-003
1.816616e+003, 7.957069e-003
1.818544e+003, 7.921513e-003
1.820473e+003, 7.982925e-003
1.822401e+003, 7.354167e-003
1.824329e+003, 6.842484e-003
1.826258e+003, 6.182568e-003
1.828186e+003, 5.832225e-003
1.830115e+003, 5.123257e-003
1.832043e+003, 4.187976e-003
1.833972e+003, 3.240600e-003
1.835900e+003, 2.516404e-003
1.837829e+003, 1.956268e-003
1.839757e+003, 1.468385e-003
1.841686e+003, 1.071732e-003
1.843614e+003, 1.064658e-003
1.845543e+003, 9.165027e-004
1.847471e+003, 9.485977e-004
1.849400e+003, 8.684268e-004
1.851328e+003, 9.151464e-004
1.853256e+003, 6.808063e-004
1.855185e+003, 5.561447e-004
1.857113e+003, 5.623279e-004
1.859042e+003, 5.749335e-004
1.860970e+003, -1.428320e-004
1.862899e+003, -5.108025e-005
1.864827e+003, 3.827700e-005
1.866756e+003, 4.648304e-005
1.868684e+003, 5.222865e-005
1.870613e+003, 2.563021e-004
1.872541e+003, 3.089535e-004
1.874470e+003, 5.795941e-004
1.876398e+003, 3.775145e-004
1.878327e+003, 6.821897e-004
1.880255e+003, 1.268655e-003
1.882183e+003, 1.070044e-003
1.884112e+003, 4.009335e-004
1.886040e+003, 2.933132e-004
1.887969e+003, 5.236230e-004
1.889897e+003, 6.653437e-004
1.891826e+003, 2.617367e-004
1.893754e+003, 5.527970e-004
1.895683e+003, 2.424189e-004
1.897611e+003, 4.689914e-004
1.899540e+003, -3.474511e-005
1.901468e+003, -2.067527e-004
1.903397e+003, -8.577049e-006
1.905325e+003, 6.585009e-005
1.907254e+003, 5.486548e-004
1.909182e+003, 6.865219e-004
1.911110e+003, 5.891179e-004
1.913039e+003, 5.685918e-004
1.914967e+003, 1.550978e-004
1.916896e+003, 5.401238e-004
1.918824e+003, -1.914007e-004
1.920753e+003, -1.233152e-005
1.922681e+003, 4.398325e-004
1.924610e+003, 1.132814e-004
1.926538e+003, -1.082479e-003
1.928467e+003, -1.200526e-003
1.930395e+003, -7.932395e-004
1.932324e+003, 3.943880e-004
1.934252e+003, 1.273041e-003
1.936181e+003, 6.730755e-004
1.938109e+003, -4.862763e-004
1.940037e+003, -5.907634e-004
1.941966e+003, -1.881556e-004
1.943894e+003, -3.655370e-004
1.945823e+003, -6.723427e-004
1.947751e+003, -5.871727e-004
1.949680e+003, -5.129931e-004
1.951608e+003, 5.500846e-005
1.953537e+003, -6.131678e-004
1.955465e+003, -1.521733e-003
1.957394e+003, -1.572627e-003
1.959322e+003, -7.056670e-004
1.961251e+003, -5.367451e-004
1.963179e+003, -2.692699e-004
1.965108e+003, 3.282808e-004
1.967036e+003, 5.465989e-004
1.968964e+003, -8.127057e-004
1.970893e+003, -1.422705e-003
1.972821e+003, -1.860111e-003
1.974750e+003, -1.273401e-003
1.976678e+003, 3.327132e-004
1.978607e+003, 9.504129e-004
1.980535e+003, -3.338248e-004
1.982464e+003, -1.403592e-004
1.984392e+003, -2.015646e-004
1.986321e+003, 1.923383e-004
1.988249e+003, 3.551009e-004
1.990178e+003, 1.899264e-003
1.992106e+003, 1.715372e-003
1.994035e+003, 7.145283e-004
1.995963e+003, 3.087178e-004
1.997891e+003, 1.946601e-004
1.999820e+003, 2.808150e-004
2.001748e+003, 5.818263e-004
2.003677e+003, 1.939669e-004
2.005605e+003, -5.207639e-005
2.007534e+003, -1.977499e-003
2.009462e+003, -1.924723e-003
2.011391e+003, -1.334397e-003
2.013319e+003, -1.255142e-003
2.015248e+003, -1.326485e-003
2.017176e+003, -5.162009e-004
2.019105e+003, 6.150029e-004
2.021033e+003, -1.338182e-004
2.022962e+003, -9.852052e-004
2.024890e+003, 1.026822e-003
2.026818e+003, 1.330815e-003
2.028747e+003, -9.451112e-004
2.030675e+003, -2.329296e-003
2.032604e+003, -4.559887e-004
2.034532e+003, -1.309943e-005
2.036461e+003, 5.053862e-004
2.038389e+003, 3.468678e-004
2.040318e+003, 8.650602e-004
2.042246e+003, 6.691338e-004
2.044175e+003, -6.946025e-004
2.046103e+003, -4.485032e-004
2.048032e+003, 1.619848e-004
2.049960e+003, 2.152276e-005
2.051889e+003, 8.285997e-004
2.053817e+003, 6.143000e-004
2.055746e+003, -3.386091e-004
2.057674e+003, -1.085913e-003
2.059603e+003, -5.665799e-004
2.061531e+003, -9.746182e-004
2.063459e+003, 2.068470e-004
2.065388e+003, 9.245526e-004
2.067316e+003, 8.230495e-004
2.069245e+003, 1.148269e-003
2.071173e+003, 1.348290e-003
2.073102e+003, 5.167081e-004
2.075030e+003, 1.790644e-004
2.076959e+003, 3.125692e-004
2.078887e+003, 1.577824e-003
2.080816e+003, 1.664797e-003
2.082744e+003, 1.666826e-003
2.084673e+003, 1.872052e-003
2.086601e+003, 1.836444e-003
2.088530e+003, 1.928777e-003
2.090458e+003, 1.429330e-003
2.092386e+003, 7.691395e-005
2.094315e+003, 4.779234e-004
2.096243e+003, 1.090253e-003
2.098172e+003, 1.875059e-003
2.100100e+003, 2.307039e-003
2.102029e+003, 1.867970e-003
2.103957e+003, 2.189540e-003
2.105886e+003, 3.128717e-003
2.107814e+003, 2.831552e-003
2.109743e+003, 2.492018e-003
2.111671e+003, 2.250317e-003
2.113600e+003, 2.187999e-003
2.115528e+003, 1.435609e-003
2.117457e+003, 1.212645e-003
2.119385e+003, 8.121916e-004
2.121313e+003, 7.650954e-004
2.123242e+003, 1.054096e-003
2.125170e+003, 1.535258e-003
2.127099e+003, 1.292350e-003
2.129027e+003, 4.846015e-004
2.130956e+003, -7.922417e-004
2.132884e+003, -4.111576e-004
2.134813e+003, -4.866828e-004
2.136741e+003, -1.960322e-004
2.138670e+003, 1.359154e-004
2.140598e+003, 1.659044e-004
2.142527e+003, -1.328144e-003
2.144455e+003, -1.674390e-003
2.146384e+003, -2.151410e-003
2.148312e+003, -2.600578e-003
2.150240e+003, -3.436782e-003
2.152169e+003, -2.400633e-003
2.154097e+003, -2.438378e-003
2.156026e+003, -3.725987e-003
2.157954e+003, -1.806603e-003
2.159883e+003, 1.880417e-003
2.161811e+003, 2.239094e-003
2.163740e+003, 2.693302e-003
2.165668e+003, 2.211731e-003
2.167597e+003, 2.260713e-003
2.169525e+003, 1.635814e-003
2.171454e+003, 3.237699e-004
2.173382e+003, 6.884958e-004
2.175311e+003, 9.243516e-004
2.177239e+003, -7.788870e-005
2.179167e+003, -5.811917e-004
2.181096e+003, -6.081382e-004
2.183024e+003, 1.402430e-003
2.184953e+003, 1.991638e-003
2.186881e+003, 2.145315e-003
2.188810e+003, 1.435640e-003
2.190738e+003, -5.157829e-005
2.192667e+003, 2.589985e-004
2.194595e+003, 1.226374e-003
2.196524e+003, 1.843068e-003
2.198452e+003, 1.202275e-003
2.200381e+003, 1.135663e-003
2.202309e+003, 1.702926e-003
2.204238e+003, 1.140645e-003
2.206166e+003, 8.240508e-004
2.208094e+003, 9.041578e-004
2.210023e+003, 9.174123e-004
2.211951e+003, 1.246561e-004
2.213880e+003, 1.318638e-003
2.215808e+003, 8.733473e-004
2.217737e+003, 3.926927e-004
2.219665e+003, 1.161835e-003
2.221594e+003, 8.668733e-004
2.223522e+003, 1.471706e-004
2.225451e+003, 1.133605e-003
2.227379e+003, 1.448835e-003
2.229308e+003, 1.265859e-003
2.231236e+003, 9.357751e-004
2.233165e+003, 7.166648e-004
2.235093e+003, 1.376542e-003
2.237021e+003, 1.678777e-003
2.238950e+003, 1.015859e-003
2.240878e+003, 1.272157e-003
2.242807e+003, 1.762414e-003
2.244735e+003, 2.024851e-003
2.246664e+003, 2.456542e-003
2.248592e+003, 2.591544e-003
2.250521e+003, 2.576772e-003
2.252449e+003, 2.391250e-003
2.254378e+003, 2.345007e-003
2.256306e+003, 2.341522e-003
2.258235e+003, 1.941004e-003
2.260163e+003, 1.595143e-003
2.262092e+003, 1.390613e-003
2.264020e+003, 1.695611e-003
2.265948e+003, 2.094726e-003
2.267877e+003, 1.915335e-003
2.269805e+003, 1.378871e-003
2.271734e+003, 2.723392e-003
2.273662e+003, 3.514573e-003
2.275591e+003, 3.148113e-003
2.277519e+003, 3.501857e-003
2.279448e+003, 3.647162e-003
2.281376e+003, 3.122546e-003
2.283305e+003, 3.291889e-003
2.285233e+003, 3.654410e-003
2.287162e+003, 3.749844e-003
2.289090e+003, 3.699245e-003
2.291019e+003, 3.858737e-003
2.292947e+003, 4.270717e-003
2.294875e+003, 4.674498e-003
2.296804e+003, 4.279400e-003
2.298732e+003, 3.313891e-003
2.300661e+003, 2.756166e-003
2.302589e+003, 2.992112e-003
2.304518e+003, 3.402029e-003
2.306446e+003, 3.799103e-003
2.308375e+003, 3.438452e-003
2.310303e+003, 2.807837e-003
2.312232e+003, 3.248771e-003
2.314160e+003, 4.033276e-003
2.316089e+003, 4.162518e-003
2.318017e+003, 4.466800e-003
2.319946e+003, 4.896189e-003
2.321874e+003, 5.637674e-003
2.323802e+003, 5.378301e-003
2.325731e+003, 4.085545e-003
2.327659e+003, 3.173636e-003
2.329588e+003, 2.954377e-003
2.331516e+003, 3.157220e-003
2.333445e+003, 3.383118e-003
2.335373e+003, 3.330442e-003
2.337302e+003, 3.412603e-003
2.339230e+003, 3.311374e-003
2.341159e+003, 3.633377e-003
2.343087e+003, 3.609495e-003
2.345016e+003, 3.366081e-003
2.346944e+003, 3.123734e-003
2.348873e+003, 3.027806e-003
2.350801e+003, 3.011805e-003
2.352729e+003, 3.043061e-003
2.354658e+003, 3.597495e-003
2.356586e+003, 4.204441e-003
2.358515e+003, 3.828028e-003
2.360443e+003, 3.122518e-003
2.362372e+003, 3.199246e-003
2.364300e+003, 3.228135e-003
2.366229e+003, 2.640090e-003
2.368157e+003, 2.665593e-003
2.370086e+003, 3.464105e-003
2.372014e+003, 3.496700e-003
2.373942e+003, 2.703607e-003
2.375871e+003, 2.505216e-003
2.377799e+003, 2.965770e-003
2.379728e+003, 3.210688e-003
2.381656e+003, 2.965973e-003
2.383585e+003, 3.314446e-003
2.385513e+003, 3.427866e-003
2.387442e+003, 3.637740e-003
2.389370e+003, 3.102227e-003
2.391299e+003, 2.573201e-003
2.393227e+003, 2.211231e-003
2.395156e+003, 2.340191e-003
2.397084e+003, 2.835327e-003
2.399012e+003, 2.864688e-003
2.400941e+003, 2.872649e-003
2.402869e+003, 2.901264e-003
2.404798e+003, 2.530178e-003
2.406726e+003, 2.856006e-003
2.408655e+003, 3.110810e-003
2.410583e+003, 3.492772e-003
2.412512e+003, 3.869301e-003
2.414440e+003, 3.698165e-003
2.416369e+003, 2.782834e-003
2.418297e+003, 3.308605e-003
2.420226e+003, 3.586562e-003
2.422154e+003, 3.495688e-003
2.424083e+003, 3.095129e-003
2.426011e+003, 3.015926e-003
2.427939e+003, 2.982261e-003
2.429868e+003, 2.878059e-003
2.431796e+003, 2.737345e-003
2.433725e+003, 3.022604e-003
2.435653e+003, 3.479057e-003
2.437582e+003, 3.583270e-003
2.439510e+003, 3.405499e-003
2.441439e+003, 3.919025e-003
2.443367e+003, 3.641815e-003
2.445296e+003, 3.465517e-003
2.447224e+003, 3.448889e-003
2.449153e+003, 3.252079e-003
2.451081e+003, 3.003194e-003
2.453010e+003, 3.806019e-003
2.454938e+003, 4.081946e-003
2.456866e+003, 3.411108e-003
2.458795e+003, 3.457513e-003
2.460723e+003, 3.095303e-003
2.462652e+003, 2.590722e-003
2.464580e+003, 2.801349e-003
2.466509e+003, 3.078730e-003
2.468437e+003, 3.402640e-003
2.470366e+003, 3.207177e-003
2.472294e+003, 3.105586e-003
2.474223e+003, 3.404118e-003
2.476151e+003, 3.110267e-003
2.478080e+003, 2.686135e-003
2.480008e+003, 3.809811e-003
2.481937e+003, 4.614501e-003
2.483865e+003, 4.187299e-003
2.485793e+003, 4.213124e-003
2.487722e+003, 4.443815e-003
2.489650e+003, 4.376689e-003
2.491579e+003, 4.021966e-003
2.493507e+003, 4.340168e-003
2.495436e+003, 4.974795e-003
2.497364e+003, 4.369562e-003
2.499293e+003, 4.205077e-003
2.501221e+003, 4.839973e-003
2.503150e+003, 5.174162e-003
2.505078e+003, 5.311345e-003
2.507007e+003, 5.582333e-003
2.508935e+003, 6.055241e-003
2.510864e+003, 6.800693e-003
2.512792e+003, 7.358920e-003
2.514720e+003, 8.344888e-003
2.516649e+003, 9.242835e-003
2.518577e+003, 9.144051e-003
2.520506e+003, 9.487966e-003
2.522434e+003, 1.057918e-002
2.524363e+003, 1.056886e-002
2.526291e+003, 1.059409e-002
2.528220e+003, 1.039640e-002
2.530148e+003, 1.058495e-002
2.532077e+003, 1.142697e-002
2.534005e+003, 1.180283e-002
2.535934e+003, 1.051948e-002
2.537862e+003, 9.221018e-003
2.539791e+003, 8.438597e-003
2.541719e+003, 8.815668e-003
2.543647e+003, 9.180254e-003
2.545576e+003, 8.510515e-003
2.547504e+003, 8.668638e-003
2.549433e+003, 9.017080e-003
2.551361e+003, 8.266140e-003
2.553290e+003, 8.165765e-003
2.555218e+003, 7.878914e-003
2.557147e+003, 7.140413e-003
2.559075e+003, 6.308421e-003
2.561004e+003, 6.128600e-003
2.562932e+003, 6.766474e-003
2.564861e+003, 6.623827e-003
2.566789e+003, 5.455777e-003
2.568718e+003, 5.022049e-003
2.570646e+003, 5.569773e-003
2.572574e+003, 5.391240e-003
2.574503e+003, 5.596133e-003
2.576431e+003, 5.714869e-003
2.578360e+003, 5.583997e-003
2.580288e+003, 5.034795e-003
2.582217e+003, 4.107133e-003
2.584145e+003, 4.059585e-003
2.586074e+003, 4.624147e-003
2.588002e+003, 5.227820e-003
2.589931e+003, 5.571799e-003
2.591859e+003, 5.018813e-003
2.593788e+003, 4.288750e-003
2.595716e+003, 3.986355e-003
2.597645e+003, 4.445730e-003
2.599573e+003, 4.504981e-003
2.601501e+003, 3.847847e-003
2.603430e+003, 4.452427e-003
2.605358e+003, 4.944111e-003
2.607287e+003, 4.159668e-003
2.609215e+003, 3.746749e-003
2.611144e+003, 3.715578e-003
2.613072e+003, 4.233640e-003
2.615001e+003, 4.577911e-003
2.616929e+003, 5.232332e-003
2.618858e+003, 5.348996e-003
2.620786e+003, 4.818413e-003
2.622715e+003, 4.827020e-003
2.624643e+003, 5.877141e-003
2.626572e+003, 5.888983e-003
2.628500e+003, 5.111197e-003
2.630428e+003, 5.283664e-003
2.632357e+003, 5.485850e-003
2.634285e+003, 5.496271e-003
2.636214e+003, 5.411038e-003
2.638142e+003, 4.791159e-003
2.640071e+003, 4.284056e-003
2.641999e+003, 4.673166e-003
2.643928e+003, 4.965127e-003
2.645856e+003, 4.729372e-003
2.647785e+003, 4.468920e-003
2.649713e+003, 4.173075e-003
2.651642e+003, 3.694404e-003
2.653570e+003, 3.537449e-003
2.655499e+003, 3.465709e-003
2.657427e+003, 3.774636e-003
2.659355e+003, 3.338357e-003
2.661284e+003, 3.155433e-003
2.663212e+003, 3.085873e-003
2.665141e+003, 2.816313e-003
2.667069e+003, 2.468046e-003
2.668998e+003, 2.495265e-003
2.670926e+003, 2.590373e-003
2.672855e+003, 2.713497e-003
2.674783e+003, 2.907973e-003
2.676712e+003, 2.986982e-003
2.678640e+003, 2.615289e-003
2.680569e+003, 2.565632e-003
2.682497e+003, 2.378113e-003
2.684426e+003, 2.165579e-003
2.686354e+003, 2.519252e-003
2.688282e+003, 2.429567e-003
2.690211e+003, 2.211327e-003
2.692139e+003, 2.251163e-003
2.694068e+003, 2.366546e-003
2.695996e+003, 2.324471e-003
2.697925e+003, 2.455660e-003
2.699853e+003, 2.363740e-003
2.701782e+003, 1.840074e-003
2.703710e+003, 1.855384e-003
2.705639e+003, 2.236942e-003
2.707567e+003, 2.189372e-003
2.709496e+003, 1.941633e-003
2.711424e+003, 1.960743e-003
2.713353e+003, 1.629704e-003
2.715281e+003, 1.516270e-003
2.717209e+003, 1.545203e-003
2.719138e+003, 1.614052e-003
2.721066e+003, 1.952363e-003
2.722995e+003, 2.179068e-003
2.724923e+003, 1.870394e-003
2.726852e+003, 2.225876e-003
2.728780e+003, 2.583143e-003
2.730709e+003, 2.042935e-003
2.732637e+003, 1.563133e-003
2.734566e+003, 1.731276e-003
2.736494e+003, 2.203133e-003
2.738423e+003, 2.255866e-003
2.740351e+003, 2.271737e-003
2.742280e+003, 2.213253e-003
2.744208e+003, 1.767886e-003
2.746136e+003, 1.509266e-003
2.748065e+003, 1.702528e-003
2.749993e+003, 2.157496e-003
2.751922e+003, 2.118908e-003
2.753850e+003, 2.186026e-003
2.755779e+003, 2.006537e-003
2.757707e+003, 1.539962e-003
2.759636e+003, 1.305947e-003
2.761564e+003, 1.865118e-003
2.763493e+003, 1.890540e-003
2.765421e+003, 1.448030e-003
2.767350e+003, 1.067379e-003
2.769278e+003, 1.460982e-003
2.771207e+003, 1.885885e-003
2.773135e+003, 1.942232e-003
2.775063e+003, 1.468545e-003
2.776992e+003, 1.919221e-003
2.778920e+003, 1.813026e-003
2.780849e+003, 1.242841e-003
2.782777e+003, 8.756677e-004
2.784706e+003, 7.795108e-004
2.786634e+003, 1.578397e-003
2.788563e+003, 1.583837e-003
2.790491e+003, 1.235581e-003
2.792420e+003, 1.452348e-003
2.794348e+003, 1.324692e-003
2.796277e+003, 1.069541e-003
2.798205e+003, 1.217743e-003
2.800134e+003, 1.583813e-003
2.802062e+003, 1.557387e-003
2.803990e+003, 1.668979e-003
2.805919e+003, 1.247066e-003
2.807847e+003, 6.467263e-004
2.809776e+003, 1.044141e-003
2.811704e+003, 1.124583e-003
2.813633e+003, 9.813814e-004
2.815561e+003, 7.081490e-004
2.817490e+003, 9.788960e-004
2.819418e+003, 1.139544e-003
2.821347e+003, 1.092697e-003
2.823275e+003, 1.352078e-003
2.825204e+003, 1.346348e-003
2.827132e+003, 1.130661e-003
2.829061e+003, 5.263180e-004
2.830989e+003, 2.214455e-004
2.832917e+003, 6.192550e-004
2.834846e+003, 7.520036e-004
2.836774e+003, 8.136060e-006
2.838703e+003, -3.431164e-004
2.840631e+003, 1.052852e-004
2.842560e+003, 8.177600e-004
2.844488e+003, 1.265623e-003
2.846417e+003, 7.174197e-004
2.848345e+003, 2.073227e-004
2.850274e+003, 8.854719e-004
2.852202e+003, 9.323180e-004
2.854131e+003, 7.216349e-004
2.856059e+003, 1.188643e-003
2.857988e+003, 1.336849e-003
2.859916e+003, 1.176116e-003
2.861844e+003, 1.300778e-003
2.863773e+003, 1.850140e-003
2.865701e+003, 2.804209e-003
2.867630e+003, 2.690777e-003
2.869558e+003, 2.733560e-003
2.871487e+003, 3.357349e-003
2.873415e+003, 3.244956e-003
2.875344e+003, 2.680925e-003
2.877272e+003, 3.428545e-003
2.879201e+003, 4.399027e-003
2.881129e+003, 4.027260e-003
2.883058e+003, 3.767394e-003
2.884986e+003, 4.106401e-003
2.886915e+003, 4.138608e-003
2.888843e+003, 4.709167e-003
2.890771e+003, 4.727887e-003
2.892700e+003, 4.463417e-003
2.894628e+003, 4.465334e-003
2.896557e+003, 4.350616e-003
2.898485e+003, 4.326721e-003
2.900414e+003, 4.416008e-003
2.902342e+003, 4.280564e-003
2.904271e+003, 3.959596e-003
2.906199e+003, 3.852302e-003
2.908128e+003, 3.214021e-003
2.910056e+003, 2.852251e-003
2.911985e+003, 2.786934e-003
2.913913e+003, 2.716210e-003
2.915842e+003, 2.160730e-003
2.917770e+003, 1.705434e-003
2.919698e+003, 1.928708e-003
2.921627e+003, 1.989900e-003
2.923555e+003, 2.054279e-003
2.925484e+003, 1.734889e-003
2.927412e+003, 1.739335e-003
2.929341e+003, 2.042011e-003
2.931269e+003, 1.391546e-003
2.933198e+003, 8.086307e-004
2.935126e+003, 7.807467e-004
2.937055e+003, 1.806875e-004
2.938983e+003, 9.152726e-004
2.940912e+003, 2.241390e-003
2.942840e+003, 2.462853e-003
2.944769e+003, 2.344911e-003
2.946697e+003, 2.087360e-003
2.948625e+003, 1.479599e-003
2.950554e+003, 7.290923e-004
2.952482e+003, 5.215835e-004
2.954411e+003, 8.278006e-004
2.956339e+003, 1.385699e-003
2.958268e+003, 1.878010e-003
2.960196e+003, 1.557090e-003
2.962125e+003, 1.857753e-003
2.964053e+003, 2.395099e-003
2.965982e+003, 2.576651e-003
2.967910e+003, 2.912307e-003
2.969839e+003, 2.589368e-003
2.971767e+003, 2.420569e-003
2.973696e+003, 2.632026e-003
2.975624e+003, 2.457296e-003
2.977552e+003, 2.791153e-003
2.979481e+003, 3.752497e-003
2.981409e+003, 4.103017e-003
2.983338e+003, 4.345273e-003
2.985266e+003, 4.621435e-003
2.987195e+003, 4.962687e-003
2.989123e+003, 4.949884e-003
2.991052e+003, 5.040627e-003
2.992980e+003, 5.679991e-003
2.994909e+003, 6.209806e-003
2.996837e+003, 5.943648e-003
2.998766e+003, 5.333150e-003
3.000694e+003, 5.494925e-003
3.002623e+003, 6.540728e-003
3.004551e+003, 6.245703e-003
3.006479e+003, 5.192138e-003
3.008408e+003, 5.511453e-003
3.010336e+003, 5.790472e-003
3.012265e+003, 5.793380e-003
3.014193e+003, 5.915066e-003
3.016122e+003, 5.989927e-003
3.018050e+003, 6.071112e-003
3.019979e+003, 6.166275e-003
3.021907e+003, 5.955148e-003
3.023836e+003, 5.640537e-003
3.025764e+003, 6.196722e-003
3.027693e+003, 7.159774e-003
3.029621e+003, 7.523801e-003
3.031550e+003, 7.117186e-003
3.033478e+003, 6.076599e-003
3.035406e+003, 5.414472e-003
3.037335e+003, 5.470966e-003
3.039263e+003, 4.972062e-003
3.041192e+003, 4.729351e-003
3.043120e+003, 4.840934e-003
3.045049e+003, 4.941321e-003
3.046977e+003, 4.559224e-003
3.048906e+003, 4.355734e-003
3.050834e+003, 4.486487e-003
3.052763e+003, 5.406735e-003
3.054691e+003, 5.811133e-003
3.056620e+003, 5.803511e-003
3.058548e+003, 5.438148e-003
3.060477e+003, 5.822344e-003
3.062405e+003, 6.127104e-003
3.064333e+003, 6.062623e-003
3.066262e+003, 6.424110e-003
3.068190e+003, 6.567802e-003
3.070119e+003, 5.837213e-003
3.072047e+003, 6.531561e-003
3.073976e+003, 6.238051e-003
3.075904e+003, 6.107937e-003
3.077833e+003, 6.560669e-003
3.079761e+003, 5.980594e-003
3.081690e+003, 5.790502e-003
3.083618e+003, 6.190076e-003
3.085547e+003, 6.476944e-003
3.087475e+003, 6.921237e-003
3.089404e+003, 7.079500e-003
3.091332e+003, 6.997221e-003
3.093260e+003, 6.383869e-003
3.095189e+003, 7.211532e-003
3.097117e+003, 8.276640e-003
3.099046e+003, 7.943264e-003
3.100974e+003, 8.152349e-003
3.102903e+003, 8.024925e-003
3.104831e+003, 7.909455e-003
3.106760e+003, 8.364243e-003
3.108688e+003, 8.327771e-003
3.110617e+003, 7.998011e-003
3.112545e+003, 7.808465e-003
3.114474e+003, 8.027756e-003
3.116402e+003, 7.698813e-003
3.118331e+003, 7.643519e-003
3.120259e+003, 7.455286e-003
3.122188e+003, 7.789995e-003
3.124116e+003, 8.479510e-003
3.126044e+003, 9.316633e-003
3.127973e+003, 9.252882e-003
3.129901e+003, 9.532494e-003
3.131830e+003, 9.250603e-003
3.133758e+003, 9.404444e-003
3.135687e+003, 9.775191e-003
3.137615e+003, 9.300663e-003
3.139544e+003, 9.325757e-003
3.141472e+003, 9.496142e-003
3.143401e+003, 8.639178e-003
3.145329e+003, 9.041294e-003
3.147258e+003, 9.910940e-003
3.149186e+003, 9.992796e-003
3.151115e+003, 9.387775e-003
3.153043e+003, 9.594242e-003
3.154971e+003, 9.413476e-003
3.156900e+003, 9.334026e-003
3.158828e+003, 9.583389e-003
3.160757e+003, 9.633535e-003
3.162685e+003, 1.014605e-002
3.164614e+003, 1.101681e-002
3.166542e+003, 1.122068e-002
3.168471e+003, 1.031131e-002
3.170399e+003, 1.015757e-002
3.172328e+003, 1.053336e-002
3.174256e+003, 1.053022e-002
3.176185e+003, 1.085236e-002
3.178113e+003, 9.824936e-003
3.180042e+003, 9.745155e-003
3.181970e+003, 1.048060e-002
3.183898e+003, 1.038565e-002
3.185827e+003, 1.025411e-002
3.187755e+003, 1.050359e-002
3.189684e+003, 1.101683e-002
3.191612e+003, 1.114352e-002
3.193541e+003, 9.817960e-003
3.195469e+003, 1.031437e-002
3.197398e+003, 1.063443e-002
3.199326e+003, 1.074596e-002
3.201255e+003, 1.131813e-002
3.203183e+003, 1.153811e-002
3.205112e+003, 1.111626e-002
3.207040e+003, 1.065740e-002
3.208969e+003, 1.071727e-002
3.210897e+003, 1.068737e-002
3.212825e+003, 1.162523e-002
3.214754e+003, 1.337955e-002
3.216682e+003, 1.299153e-002
3.218611e+003, 1.189341e-002
3.220539e+003, 1.066376e-002
3.222468e+003, 1.074546e-002
3.224396e+003, 1.140651e-002
3.226325e+003, 1.078299e-002
3.228253e+003, 1.032364e-002
3.230182e+003, 1.086491e-002
3.232110e+003, 1.032098e-002
3.234039e+003, 1.134416e-002
3.235967e+003, 1.251651e-002
3.237896e+003, 1.170036e-002
3.239824e+003, 1.115062e-002
3.241752e+003, 1.226711e-002
3.243681e+003, 1.214193e-002
3.245609e+003, 1.163845e-002
3.247538e+003, 1.157072e-002
3.249466e+003, 1.196486e-002
3.251395e+003, 1.329017e-002
3.253323e+003, 1.309687e-002
3.255252e+003, 1.285949e-002
3.257180e+003, 1.281396e-002
3.259109e+003, 1.194308e-002
3.261037e+003, 1.219262e-002
3.262966e+003, 1.280715e-002
3.264894e+003, 1.191115e-002
3.266823e+003, 1.144049e-002
3.268751e+003, 1.238993e-002
3.270679e+003, 1.190833e-002
3.272608e+003, 1.263865e-002
3.274536e+003, 1.383366e-002
3.276465e+003, 1.300333e-002
3.278393e+003, 1.129804e-002
3.280322e+003, 1.130304e-002
3.282250e+003, 1.249266e-002
3.284179e+003, 1.385715e-002
3.286107e+003, 1.320203e-002
3.288036e+003, 1.283619e-002
3.289964e+003, 1.307494e-002
3.291893e+003, 1.284409e-002
3.293821e+003, 1.228162e-002
3.295750e+003, 1.321641e-002
3.297678e+003, 1.397368e-002
3.299606e+003, 1.288676e-002
3.301535e+003, 1.163054e-002
3.303463e+003, 1.157356e-002
3.305392e+003, 1.238431e-002
3.307320e+003, 1.355416e-002
3.309249e+003, 1.324985e-002
3.311177e+003, 1.306824e-002
3.313106e+003, 1.379343e-002
3.315034e+003, 1.392012e-002
3.316963e+003, 1.331789e-002
3.318891e+003, 1.336348e-002
3.320820e+003, 1.319523e-002
3.322748e+003, 1.300647e-002
3.324677e+003, 1.354089e-002
3.326605e+003, 1.520339e-002
3.328533e+003, 1.471108e-002
3.330462e+003, 1.370292e-002
3.332390e+003, 1.302973e-002
3.334319e+003, 1.337911e-002
3.336247e+003, 1.385596e-002
3.338176e+003, 1.388898e-002
3.340104e+003, 1.375421e-002
3.342033e+003, 1.364322e-002
3.343961e+003, 1.411577e-002
3.345890e+003, 1.484468e-002
3.347818e+003, 1.594842e-002
3.349747e+003, 1.628587e-002
3.351675e+003, 1.560294e-002
3.353604e+003, 1.502620e-002
3.355532e+003, 1.444160e-002
3.357460e+003, 1.470002e-002
3.359389e+003, 1.446113e-002
3.361317e+003, 1.488995e-002
3.363246e+003, 1.459658e-002
3.365174e+003, 1.399726e-002
3.367103e+003, 1.444137e-002
3.369031e+003, 1.543316e-002
3.370960e+003, 1.462747e-002
3.372888e+003, 1.576541e-002
3.374817e+003, 1.741531e-002
3.376745e+003, 1.805730e-002
3.378674e+003, 1.597940e-002
3.380602e+003, 1.591220e-002
3.382531e+003, 1.786597e-002
3.384459e+003, 1.856262e-002
3.386387e+003, 1.911679e-002
3.388316e+003, 2.012959e-002
3.390244e+003, 2.010369e-002
3.392173e+003, 2.043739e-002
3.394101e+003, 2.127882e-002
3.396030e+003, 2.154940e-002
3.397958e+003, 2.142295e-002
3.399887e+003, 2.111887e-002
3.401815e+003, 2.216107e-002
3.403744e+003, 2.288727e-002
3.405672e+003, 2.209902e-002
3.407601e+003, 2.238398e-002
3.409529e+003, 2.149865e-002
3.411458e+003, 2.146906e-002
3.413386e+003, 2.131929e-002
3.415314e+003, 2.075273e-002
3.417243e+003, 2.057592e-002
3.419171e+003, 2.089060e-002
3.421100e+003, 1.967120e-002
3.423028e+003, 1.926078e-002
3.424957e+003, 1.892932e-002
3.426885e+003, 1.843325e-002
3.428814e+003, 1.864263e-002
3.430742e+003, 1.826376e-002
3.432671e+003, 1.763180e-002
3.434599e+003, 1.859239e-002
3.436528e+003, 1.764631e-002
3.438456e+003, 1.549111e-002
3.440385e+003, 1.464931e-002
3.442313e+003, 1.593277e-002
3.444241e+003, 1.521325e-002
3.446170e+003, 1.613021e-002
3.448098e+003, 1.657457e-002
3.450027e+003, 1.706580e-002
3.451955e+003, 1.731738e-002
3.453884e+003, 1.649836e-002
3.455812e+003, 1.612523e-002
3.457741e+003, 1.673457e-002
3.459669e+003, 1.617787e-002
3.461598e+003, 1.624486e-002
3.463526e+003, 1.675016e-002
3.465455e+003, 1.690312e-002
3.467383e+003, 1.642056e-002
3.469312e+003, 1.604554e-002
3.471240e+003, 1.550296e-002
3.473168e+003, 1.493057e-002
3.475097e+003, 1.366138e-002
3.477025e+003, 1.519384e-002
3.478954e+003, 1.620898e-002
3.480882e+003, 1.584950e-002
3.482811e+003, 1.473825e-002
3.484739e+003, 1.525718e-002
3.486668e+003, 1.692083e-002
3.488596e+003, 1.860405e-002
3.490525e+003, 1.748759e-002
3.492453e+003, 1.695383e-002
3.494382e+003, 1.789652e-002
3.496310e+003, 1.819104e-002
3.498239e+003, 1.787652e-002
3.500167e+003, 1.810465e-002
3.502095e+003, 1.774324e-002
3.504024e+003, 1.720326e-002
3.505952e+003, 1.589627e-002
3.507881e+003, 1.626281e-002
3.509809e+003, 1.773456e-002
3.511738e+003, 1.826966e-002
3.513666e+003, 1.746115e-002
3.515595e+003, 1.927159e-002
3.517523e+003, 2.017166e-002
3.519452e+003, 2.086692e-002
3.521380e+003, 2.110441e-002
3.523309e+003, 2.173229e-002
3.525237e+003, 2.133112e-002
3.527166e+003, 2.065345e-002
3.529094e+003, 1.983746e-002
3.531022e+003, 2.232989e-002
3.532951e+003, 2.339518e-002
3.534879e+003, 2.424862e-002
3.536808e+003, 2.525651e-002
3.538736e+003, 2.539509e-002
3.540665e+003, 2.537124e-002
3.542593e+003, 2.635578e-002
3.544522e+003, 2.518445e-002
3.546450e+003, 2.543826e-002
3.548379e+003, 2.671616e-002
3.550307e+003, 2.541713e-002
3.552236e+003, 2.378690e-002
3.554164e+003, 2.448847e-002
3.556093e+003, 2.300632e-002
3.558021e+003, 2.132400e-002
3.559949e+003, 2.195674e-002
3.561878e+003, 2.330898e-002
3.563806e+003, 2.333227e-002
3.565735e+003, 2.303104e-002
3.567663e+003, 2.135543e-002
3.569592e+003, 2.120953e-002
3.571520e+003, 1.914176e-002
3.573449e+003, 1.778027e-002
3.575377e+003, 1.900448e-002
3.577306e+003, 2.015109e-002
3.579234e+003, 1.925622e-002
3.581163e+003, 1.902214e-002
3.583091e+003, 1.866695e-002
3.585020e+003, 1.796185e-002
3.586948e+003, 1.625787e-002
3.588876e+003, 1.524953e-002
3.590805e+003, 1.499366e-002
3.592733e+003, 1.456788e-002
3.594662e+003, 1.437915e-002
3.596590e+003, 1.604449e-002
3.598519e+003, 1.550989e-002
3.600447e+003, 1.425866e-002
3.602376e+003, 1.640511e-002
3.604304e+003, 1.747325e-002
3.606233e+003, 1.517414e-002
3.608161e+003, 1.474351e-002
3.610090e+003, 1.495233e-002
3.612018e+003, 1.354196e-002
3.613947e+003, 1.153305e-002
3.615875e+003, 1.256917e-002
3.617803e+003, 1.397662e-002
3.619732e+003, 1.526473e-002
3.621660e+003, 1.525178e-002
3.623589e+003, 1.369131e-002
3.625517e+003, 1.319639e-002
3.627446e+003, 1.401751e-002
3.629374e+003, 1.258191e-002
3.631303e+003, 1.134543e-002
3.633231e+003, 1.163643e-002
3.635160e+003, 1.307591e-002
3.637088e+003, 1.190278e-002
3.639017e+003, 1.246050e-002
3.640945e+003, 1.146755e-002
3.642874e+003, 1.200076e-002
3.644802e+003, 1.118023e-002
3.646730e+003, 9.919642e-003
3.648659e+003, 1.001394e-002
3.650587e+003, 1.302091e-002
3.652516e+003, 1.132821e-002
3.654444e+003, 9.707182e-003
3.656373e+003, 1.084791e-002
3.658301e+003, 1.234536e-002
3.660230e+003, 1.202947e-002
3.662158e+003, 1.076831e-002
3.664087e+003, 1.135848e-002
3.666015e+003, 1.342244e-002
3.667944e+003, 1.207062e-002
3.669872e+003, 1.074925e-002
3.671801e+003, 1.116920e-002
3.673729e+003, 1.167380e-002
3.675657e+003, 1.199354e-002
3.677586e+003, 1.496188e-002
3.679514e+003, 1.422068e-002
3.681443e+003, 1.176626e-002
3.683371e+003, 1.225974e-002
3.685300e+003, 1.367457e-002
3.687228e+003, 1.211352e-002
3.689157e+003, 1.299124e-002
3.691085e+003, 1.245229e-002
3.693014e+003, 1.231477e-002
3.694942e+003, 1.296656e-002
3.696871e+003, 1.190454e-002
3.698799e+003, 1.177606e-002
3.700728e+003, 1.238287e-002
3.702656e+003, 1.202342e-002
3.704584e+003, 1.100058e-002
3.706513e+003, 1.239889e-002
3.708441e+003, 1.388586e-002
3.710370e+003, 1.279565e-002
3.712298e+003, 1.329980e-002
3.714227e+003, 1.287433e-002
3.716155e+003, 1.166015e-002
3.718084e+003, 1.187233e-002
3.720012e+003, 1.292221e-002
3.721941e+003, 1.137226e-002
3.723869e+003, 1.351444e-002
3.725798e+003, 1.451129e-002
3.727726e+003, 1.353293e-002
3.729655e+003, 1.412186e-002
3.731583e+003, 1.417731e-002
3.733511e+003, 1.426001e-002
3.735440e+003, 1.583255e-002
3.737368e+003, 1.699546e-002
3.739297e+003, 1.664769e-002
3.741225e+003, 1.502072e-002
3.743154e+003, 1.515440e-002
3.745082e+003, 1.470223e-002
3.747011e+003, 1.412759e-002
3.748939e+003, 1.319150e-002
3.750868e+003, 1.298442e-002
3.752796e+003, 1.238820e-002
3.754725e+003, 1.294585e-002
3.756653e+003, 1.330159e-002
3.758582e+003, 1.448681e-002
3.760510e+003, 1.425063e-002
3.762438e+003, 1.314650e-002
3.764367e+003, 1.167223e-002
3.766295e+003, 1.280676e-002
3.768224e+003, 1.235282e-002
3.770152e+003, 1.153756e-002
3.772081e+003, 1.210871e-002
3.774009e+003, 1.121983e-002
3.775938e+003, 1.016548e-002
3.777866e+003, 1.396490e-002
3.779795e+003, 1.637887e-002
3.781723e+003, 1.552165e-002
3.783652e+003, 1.464010e-002
3.785580e+003, 1.392320e-002
3.787509e+003, 1.179063e-002
3.789437e+003, 1.133119e-002
3.791365e+003, 1.163765e-002
3.793294e+003, 1.136082e-002
3.795222e+003, 1.413635e-002
3.797151e+003, 1.663403e-002
3.799079e+003, 1.635806e-002
3.801008e+003, 1.513644e-002
3.802936e+003, 1.233014e-002
3.804865e+003, 1.264125e-002
3.806793e+003, 1.282701e-002
3.808722e+003, 1.170999e-002
3.810650e+003, 1.203245e-002
3.812579e+003, 1.401053e-002
3.814507e+003, 1.453380e-002
3.816436e+003, 1.354935e-002
3.818364e+003, 1.361078e-002
3.820292e+003, 1.446148e-002
3.822221e+003, 1.404801e-002
3.824149e+003, 1.418902e-002
3.826078e+003, 1.545493e-002
3.828006e+003, 1.615918e-002
3.829935e+003, 1.435077e-002
3.831863e+003, 1.414171e-002
3.833792e+003, 1.399048e-002
3.835720e+003, 1.489902e-002
3.837649e+003, 1.508922e-002
3.839577e+003, 1.439652e-002
3.841506e+003, 1.411632e-002
3.843434e+003, 1.444310e-002
3.845363e+003, 1.290291e-002
3.847291e+003, 1.308398e-002
3.849219e+003, 1.501542e-002
3.851148e+003, 1.827163e-002
3.853076e+003, 1.716328e-002
3.855005e+003, 1.442538e-002
3.856933e+003, 1.391436e-002
3.858862e+003, 1.530592e-002
3.860790e+003, 1.410526e-002
3.862719e+003, 1.292917e-002
3.864647e+003, 1.398300e-002
3.866576e+003, 1.471797e-002
3.868504e+003, 1.258108e-002
3.870433e+003, 1.111052e-002
3.872361e+003, 1.128371e-002
3.874290e+003, 1.408351e-002
3.876218e+003, 1.323090e-002
3.878146e+003, 1.220441e-002
3.880075e+003, 1.264928e-002
3.882003e+003, 1.557062e-002
3.883932e+003, 1.543548e-002
3.885860e+003, 1.413505e-002
3.887789e+003, 1.245341e-002
3.889717e+003, 1.446025e-002
3.891646e+003, 1.359524e-002
3.893574e+003, 1.260854e-002
3.895503e+003, 1.420592e-002
3.897431e+003, 1.478878e-002
3.899360e+003, 1.482126e-002
3.901288e+003, 1.560622e-002
3.903217e+003, 1.495386e-002
3.905145e+003, 1.501151e-002
3.907073e+003, 1.495505e-002
3.909002e+003, 1.469002e-002
3.910930e+003, 1.407597e-002
3.912859e+003, 1.429301e-002
3.914787e+003, 1.339994e-002
3.916716e+003, 1.281358e-002
3.918644e+003, 1.410623e-002
3.920573e+003, 1.496086e-002
3.922501e+003, 1.275577e-002
3.924430e+003, 1.301334e-002
3.926358e+003, 1.543946e-002
3.928287e+003, 1.662942e-002
3.930215e+003, 1.529287e-002
3.932144e+003, 1.738477e-002
3.934072e+003, 1.621328e-002
3.936000e+003, 1.470176e-002
3.937929e+003, 1.554145e-002
3.939857e+003, 1.586525e-002
3.941786e+003, 1.453171e-002
3.943714e+003, 1.464425e-002
3.945643e+003, 1.548047e-002
3.947571e+003, 1.493009e-002
3.949500e+003, 1.230071e-002
3.951428e+003, 1.438782e-002
3.953357e+003, 1.667722e-002
3.955285e+003, 1.669342e-002
3.957214e+003, 1.645823e-002
3.959142e+003, 1.701373e-002
3.961071e+003, 1.693069e-002
3.962999e+003, 1.578616e-002
3.964927e+003, 1.383614e-002
3.966856e+003, 1.413201e-002
3.968784e+003, 1.355229e-002
3.970713e+003, 1.324848e-002
3.972641e+003, 1.228277e-002
3.974570e+003, 1.294539e-002
3.976498e+003, 1.611959e-002
3.978427e+003, 1.708622e-002
3.980355e+003, 1.575055e-002
3.982284e+003, 1.523149e-002
3.984212e+003, 1.537125e-002
3.986141e+003, 1.724127e-002
3.988069e+003, 1.598844e-002
3.989998e+003, 1.467198e-002
3.991926e+003, 1.473710e-002
3.993854e+003, 1.521820e-002
3.995783e+003, 1.570244e-002
3.997711e+003, 1.728690e-002
3.999640e+003, 1.729524e-002
##END=



