##NAMES=Dravite
##RRUFFID=R050077
##IDEAL CHEMISTRY=NaMg_3_Al_6_(Si_6_O_18_)(BO_3_)_3_(OH)_3_OH
##LOCALITY=Yinnietharra Station, Western Australia, Australia
##OWNER=RRUFF
##SOURCE=Rock Currier
##DESCRIPTION=Dark brown euhedral prismatic single crystal
##STATUS=The identification of this mineral has been confirmed by X-ray diffraction and chemical analysis
##URL=rruff.info/R050077
##MEASURED CHEMISTRY=(Na_0.783_Ca_0.217_)(Mg_0.771_Fe^2+^_0.221_Ti^4+^_0.008_)_3_(Al_0.956_Mg_0.044_)_6_(BO_3_)_3_[Si_6_O_18_]((OH)_0.914_F_0.086_)_4_
3.991926e+002, 0.000000e+000
4.011211e+002, 1.601505e-001
4.030496e+002, 1.608875e-001
4.049780e+002, 1.626413e-001
4.069065e+002, 1.584032e-001
4.088350e+002, 1.571627e-001
4.107634e+002, 1.586554e-001
4.126919e+002, 1.659923e-001
4.146204e+002, 1.664807e-001
4.165488e+002, 1.641608e-001
4.184773e+002, 1.657757e-001
4.204058e+002, 1.688206e-001
4.223342e+002, 1.686794e-001
4.242627e+002, 1.660724e-001
4.261912e+002, 1.613325e-001
4.281196e+002, 1.581648e-001
4.300481e+002, 1.571211e-001
4.319766e+002, 1.549396e-001
4.339050e+002, 1.545669e-001
4.358335e+002, 1.563575e-001
4.377620e+002, 1.588949e-001
4.396904e+002, 1.627429e-001
4.416189e+002, 1.666326e-001
4.435474e+002, 1.683926e-001
4.454758e+002, 1.689962e-001
4.474043e+002, 1.708056e-001
4.493328e+002, 1.714290e-001
4.512612e+002, 1.722350e-001
4.531897e+002, 1.725360e-001
4.551182e+002, 1.733976e-001
4.570466e+002, 1.726732e-001
4.589751e+002, 1.728506e-001
4.609036e+002, 1.727540e-001
4.628320e+002, 1.744282e-001
4.647605e+002, 1.765504e-001
4.666890e+002, 1.770720e-001
4.686174e+002, 1.789449e-001
4.705459e+002, 1.822073e-001
4.724744e+002, 1.832872e-001
4.744028e+002, 1.845517e-001
4.763313e+002, 1.873411e-001
4.782598e+002, 1.893018e-001
4.801882e+002, 1.909314e-001
4.821167e+002, 1.926500e-001
4.840452e+002, 1.925672e-001
4.859736e+002, 1.928662e-001
4.879021e+002, 1.934544e-001
4.898306e+002, 1.923996e-001
4.917590e+002, 1.913225e-001
4.936875e+002, 1.906626e-001
4.956160e+002, 1.887528e-001
4.975444e+002, 1.873873e-001
4.994729e+002, 1.864289e-001
5.014014e+002, 1.845347e-001
5.033298e+002, 1.826648e-001
5.052583e+002, 1.806380e-001
5.071868e+002, 1.765220e-001
5.091152e+002, 1.727295e-001
5.110437e+002, 1.689925e-001
5.129722e+002, 1.648219e-001
5.149006e+002, 1.613519e-001
5.168291e+002, 1.571125e-001
5.187576e+002, 1.525872e-001
5.206860e+002, 1.486341e-001
5.226145e+002, 1.453104e-001
5.245430e+002, 1.421258e-001
5.264714e+002, 1.383017e-001
5.283999e+002, 1.344143e-001
5.303284e+002, 1.312227e-001
5.322568e+002, 1.277289e-001
5.341853e+002, 1.233954e-001
5.361138e+002, 1.196925e-001
5.380422e+002, 1.167172e-001
5.399707e+002, 1.139665e-001
5.418992e+002, 1.116633e-001
5.438276e+002, 1.094702e-001
5.457561e+002, 1.082170e-001
5.476846e+002, 1.075765e-001
5.496130e+002, 1.068038e-001
5.515415e+002, 1.063525e-001
5.534700e+002, 1.065919e-001
5.553984e+002, 1.067593e-001
5.573269e+002, 1.067824e-001
5.592554e+002, 1.067019e-001
5.611838e+002, 1.068642e-001
5.631123e+002, 1.069843e-001
5.650408e+002, 1.070882e-001
5.669692e+002, 1.071645e-001
5.688977e+002, 1.067928e-001
5.708262e+002, 1.063695e-001
5.727546e+002, 1.064607e-001
5.746831e+002, 1.061791e-001
5.766116e+002, 1.053116e-001
5.785400e+002, 1.038115e-001
5.804685e+002, 1.015475e-001
5.823970e+002, 9.906549e-002
5.843254e+002, 9.668224e-002
5.862539e+002, 9.445529e-002
5.881824e+002, 9.264202e-002
5.901108e+002, 9.087664e-002
5.920393e+002, 8.928254e-002
5.939678e+002, 8.807871e-002
5.958962e+002, 8.721694e-002
5.978247e+002, 8.678718e-002
5.997532e+002, 8.680492e-002
6.016816e+002, 8.707146e-002
6.036101e+002, 8.673644e-002
6.055386e+002, 8.604451e-002
6.074670e+002, 8.526413e-002
6.093955e+002, 8.423611e-002
6.113240e+002, 8.236720e-002
6.132524e+002, 7.974704e-002
6.151809e+002, 7.705055e-002
6.171094e+002, 7.409266e-002
6.190378e+002, 7.089132e-002
6.209663e+002, 6.801315e-002
6.228948e+002, 6.499544e-002
6.248232e+002, 6.182133e-002
6.267517e+002, 5.935119e-002
6.286802e+002, 5.739561e-002
6.306086e+002, 5.543227e-002
6.325371e+002, 5.322933e-002
6.344656e+002, 5.138754e-002
6.363940e+002, 5.000095e-002
6.383225e+002, 4.910931e-002
6.402510e+002, 4.901253e-002
6.421794e+002, 4.992721e-002
6.441079e+002, 5.155298e-002
6.460364e+002, 5.337903e-002
6.479648e+002, 5.491940e-002
6.498933e+002, 5.560826e-002
6.518218e+002, 5.576069e-002
6.537502e+002, 5.604715e-002
6.556787e+002, 5.548071e-002
6.576072e+002, 5.446374e-002
6.595356e+002, 5.343658e-002
6.614641e+002, 5.244901e-002
6.633926e+002, 5.201623e-002
6.653210e+002, 5.204250e-002
6.672495e+002, 5.254973e-002
6.691780e+002, 5.319474e-002
6.711064e+002, 5.381590e-002
6.730349e+002, 5.478839e-002
6.749634e+002, 5.596325e-002
6.768918e+002, 5.717249e-002
6.788203e+002, 5.807268e-002
6.807488e+002, 5.860557e-002
6.826772e+002, 5.931626e-002
6.846057e+002, 6.029358e-002
6.865342e+002, 6.128174e-002
6.884626e+002, 6.241220e-002
6.903911e+002, 6.387689e-002
6.923196e+002, 6.577782e-002
6.942480e+002, 6.833077e-002
6.961765e+002, 7.115376e-002
6.981050e+002, 7.413647e-002
7.000334e+002, 7.724109e-002
7.019619e+002, 8.008777e-002
7.038904e+002, 8.259236e-002
7.058188e+002, 8.456609e-002
7.077473e+002, 8.568461e-002
7.096758e+002, 8.591604e-002
7.116042e+002, 8.546332e-002
7.135327e+002, 8.426633e-002
7.154612e+002, 8.210020e-002
7.173896e+002, 7.880585e-002
7.193181e+002, 7.475398e-002
7.212466e+002, 7.030252e-002
7.231750e+002, 6.590624e-002
7.251035e+002, 6.213177e-002
7.270320e+002, 5.936211e-002
7.289604e+002, 5.740590e-002
7.308889e+002, 5.554696e-002
7.328174e+002, 5.395636e-002
7.347458e+002, 5.266330e-002
7.366743e+002, 5.118895e-002
7.386028e+002, 4.980633e-002
7.405313e+002, 4.812114e-002
7.424597e+002, 4.659105e-002
7.443882e+002, 4.636562e-002
7.463167e+002, 4.696443e-002
7.482451e+002, 4.793581e-002
7.501736e+002, 4.928495e-002
7.521021e+002, 5.133275e-002
7.540305e+002, 5.358814e-002
7.559590e+002, 5.507502e-002
7.578875e+002, 5.605665e-002
7.598159e+002, 5.678153e-002
7.617444e+002, 5.695049e-002
7.636729e+002, 5.699077e-002
7.656013e+002, 5.720203e-002
7.675298e+002, 5.783974e-002
7.694583e+002, 5.923328e-002
7.713867e+002, 6.069592e-002
7.733152e+002, 6.184410e-002
7.752437e+002, 6.250961e-002
7.771721e+002, 6.226874e-002
7.791006e+002, 6.132783e-002
7.810291e+002, 6.019246e-002
7.829575e+002, 5.871081e-002
7.848860e+002, 5.669082e-002
7.868145e+002, 5.430482e-002
7.887429e+002, 5.169700e-002
7.906714e+002, 4.848031e-002
7.925999e+002, 4.450378e-002
7.945283e+002, 3.979576e-002
7.964568e+002, 3.474712e-002
7.983853e+002, 3.052679e-002
8.003137e+002, 2.743614e-002
8.022422e+002, 2.516422e-002
8.041707e+002, 2.368319e-002
8.060991e+002, 2.312524e-002
8.080276e+002, 2.314896e-002
8.099561e+002, 2.312084e-002
8.118845e+002, 2.304443e-002
8.138130e+002, 2.313501e-002
8.157415e+002, 2.321795e-002
8.176699e+002, 2.348746e-002
8.195984e+002, 2.362309e-002
8.215269e+002, 2.355390e-002
8.234553e+002, 2.329669e-002
8.253838e+002, 2.307910e-002
8.273123e+002, 2.285234e-002
8.292407e+002, 2.262549e-002
8.311692e+002, 2.225272e-002
8.330977e+002, 2.172452e-002
8.350261e+002, 2.166611e-002
8.369546e+002, 2.197995e-002
8.388831e+002, 2.227441e-002
8.408115e+002, 2.235473e-002
8.427400e+002, 2.230037e-002
8.446685e+002, 2.235811e-002
8.465969e+002, 2.255612e-002
8.485254e+002, 2.273351e-002
8.504539e+002, 2.316803e-002
8.523823e+002, 2.374498e-002
8.543108e+002, 2.439925e-002
8.562393e+002, 2.465559e-002
8.581677e+002, 2.502402e-002
8.600962e+002, 2.559810e-002
8.620247e+002, 2.607168e-002
8.639531e+002, 2.667414e-002
8.658816e+002, 2.714564e-002
8.678101e+002, 2.778525e-002
8.697385e+002, 2.864602e-002
8.716670e+002, 2.982401e-002
8.735955e+002, 3.120234e-002
8.755239e+002, 3.257557e-002
8.774524e+002, 3.387266e-002
8.793809e+002, 3.496084e-002
8.813093e+002, 3.586473e-002
8.832378e+002, 3.699743e-002
8.851663e+002, 3.862699e-002
8.870947e+002, 4.051855e-002
8.890232e+002, 4.238949e-002
8.909517e+002, 4.439662e-002
8.928801e+002, 4.656691e-002
8.948085e+002, 4.860600e-002
8.967370e+002, 5.101789e-002
8.986655e+002, 5.360170e-002
9.005939e+002, 5.588195e-002
9.025224e+002, 5.808727e-002
9.044509e+002, 6.039586e-002
9.063793e+002, 6.274471e-002
9.083078e+002, 6.515612e-002
9.102363e+002, 6.747840e-002
9.121647e+002, 7.005087e-002
9.140932e+002, 7.256567e-002
9.160217e+002, 7.504711e-002
9.179501e+002, 7.761774e-002
9.198786e+002, 8.038544e-002
9.218071e+002, 8.337847e-002
9.237355e+002, 8.679634e-002
9.256640e+002, 9.072860e-002
9.275925e+002, 9.486639e-002
9.295209e+002, 9.893388e-002
9.314494e+002, 1.033042e-001
9.333779e+002, 1.080718e-001
9.353063e+002, 1.128908e-001
9.372348e+002, 1.178479e-001
9.391633e+002, 1.226676e-001
9.410917e+002, 1.273883e-001
9.430202e+002, 1.321908e-001
9.449487e+002, 1.366538e-001
9.468771e+002, 1.413630e-001
9.488056e+002, 1.459951e-001
9.507341e+002, 1.506179e-001
9.526625e+002, 1.548016e-001
9.545910e+002, 1.585343e-001
9.565195e+002, 1.619244e-001
9.584479e+002, 1.650690e-001
9.603764e+002, 1.678389e-001
9.623049e+002, 1.701857e-001
9.642333e+002, 1.719618e-001
9.661618e+002, 1.732049e-001
9.680903e+002, 1.742884e-001
9.700187e+002, 1.750880e-001
9.719472e+002, 1.760402e-001
9.738757e+002, 1.765884e-001
9.758041e+002, 1.768418e-001
9.777326e+002, 1.773211e-001
9.796611e+002, 1.772973e-001
9.815895e+002, 1.767323e-001
9.835180e+002, 1.756862e-001
9.854465e+002, 1.741631e-001
9.873749e+002, 1.722419e-001
9.893034e+002, 1.694585e-001
9.912319e+002, 1.662772e-001
9.931603e+002, 1.630161e-001
9.950888e+002, 1.592797e-001
9.970173e+002, 1.553691e-001
9.989457e+002, 1.514344e-001
1.000874e+003, 1.475681e-001
1.002803e+003, 1.435094e-001
1.004731e+003, 1.395947e-001
1.006660e+003, 1.360626e-001
1.008588e+003, 1.335205e-001
1.010517e+003, 1.317299e-001
1.012445e+003, 1.307413e-001
1.014373e+003, 1.305973e-001
1.016302e+003, 1.313540e-001
1.018230e+003, 1.325696e-001
1.020159e+003, 1.338660e-001
1.022087e+003, 1.351692e-001
1.024016e+003, 1.367483e-001
1.025944e+003, 1.378840e-001
1.027873e+003, 1.386045e-001
1.029801e+003, 1.386840e-001
1.031730e+003, 1.386041e-001
1.033658e+003, 1.387422e-001
1.035587e+003, 1.387374e-001
1.037515e+003, 1.382478e-001
1.039444e+003, 1.372852e-001
1.041372e+003, 1.358879e-001
1.043301e+003, 1.342392e-001
1.045229e+003, 1.318408e-001
1.047157e+003, 1.287016e-001
1.049086e+003, 1.251324e-001
1.051014e+003, 1.212289e-001
1.052943e+003, 1.172401e-001
1.054871e+003, 1.137606e-001
1.056800e+003, 1.105048e-001
1.058728e+003, 1.073141e-001
1.060657e+003, 1.045726e-001
1.062585e+003, 1.026607e-001
1.064514e+003, 1.011952e-001
1.066442e+003, 9.993284e-002
1.068371e+003, 9.879424e-002
1.070299e+003, 9.768730e-002
1.072228e+003, 9.652078e-002
1.074156e+003, 9.581053e-002
1.076084e+003, 9.521195e-002
1.078013e+003, 9.428250e-002
1.079941e+003, 9.353728e-002
1.081870e+003, 9.306568e-002
1.083798e+003, 9.245694e-002
1.085727e+003, 9.168335e-002
1.087655e+003, 9.095032e-002
1.089584e+003, 9.008189e-002
1.091512e+003, 8.857930e-002
1.093441e+003, 8.638616e-002
1.095369e+003, 8.344115e-002
1.097298e+003, 7.997507e-002
1.099226e+003, 7.613791e-002
1.101155e+003, 7.197229e-002
1.103083e+003, 6.794882e-002
1.105011e+003, 6.385274e-002
1.106940e+003, 5.974662e-002
1.108868e+003, 5.577465e-002
1.110797e+003, 5.153432e-002
1.112725e+003, 4.736663e-002
1.114654e+003, 4.348594e-002
1.116582e+003, 3.979253e-002
1.118511e+003, 3.611880e-002
1.120439e+003, 3.258048e-002
1.122368e+003, 2.921086e-002
1.124296e+003, 2.623006e-002
1.126225e+003, 2.356757e-002
1.128153e+003, 2.114427e-002
1.130082e+003, 1.886138e-002
1.132010e+003, 1.685291e-002
1.133938e+003, 1.512524e-002
1.135867e+003, 1.373305e-002
1.137795e+003, 1.272181e-002
1.139724e+003, 1.175819e-002
1.141652e+003, 1.103966e-002
1.143581e+003, 1.039217e-002
1.145509e+003, 9.602328e-003
1.147438e+003, 9.020695e-003
1.149366e+003, 8.770727e-003
1.151295e+003, 8.623214e-003
1.153223e+003, 8.355149e-003
1.155152e+003, 7.953995e-003
1.157080e+003, 7.598663e-003
1.159009e+003, 7.642367e-003
1.160937e+003, 7.714764e-003
1.162865e+003, 7.833114e-003
1.164794e+003, 7.839853e-003
1.166722e+003, 7.797461e-003
1.168651e+003, 7.681407e-003
1.170579e+003, 7.629881e-003
1.172508e+003, 7.711027e-003
1.174436e+003, 7.776276e-003
1.176365e+003, 7.942102e-003
1.178293e+003, 8.245843e-003
1.180222e+003, 8.482187e-003
1.182150e+003, 8.623700e-003
1.184079e+003, 8.693979e-003
1.186007e+003, 8.924678e-003
1.187936e+003, 9.414759e-003
1.189864e+003, 9.935554e-003
1.191792e+003, 1.056995e-002
1.193721e+003, 1.123019e-002
1.195649e+003, 1.187479e-002
1.197578e+003, 1.277534e-002
1.199506e+003, 1.371617e-002
1.201435e+003, 1.497441e-002
1.203363e+003, 1.645379e-002
1.205292e+003, 1.824346e-002
1.207220e+003, 2.021281e-002
1.209149e+003, 2.225085e-002
1.211077e+003, 2.476325e-002
1.213006e+003, 2.770594e-002
1.214934e+003, 3.101523e-002
1.216863e+003, 3.446651e-002
1.218791e+003, 3.807486e-002
1.220719e+003, 4.201576e-002
1.222648e+003, 4.605749e-002
1.224576e+003, 5.027269e-002
1.226505e+003, 5.459324e-002
1.228433e+003, 5.887914e-002
1.230362e+003, 6.301617e-002
1.232290e+003, 6.705415e-002
1.234219e+003, 7.099014e-002
1.236147e+003, 7.447102e-002
1.238076e+003, 7.731022e-002
1.240004e+003, 7.974309e-002
1.241933e+003, 8.178977e-002
1.243861e+003, 8.334929e-002
1.245790e+003, 8.460142e-002
1.247718e+003, 8.547918e-002
1.249646e+003, 8.622222e-002
1.251575e+003, 8.674619e-002
1.253503e+003, 8.684639e-002
1.255432e+003, 8.684874e-002
1.257360e+003, 8.666135e-002
1.259289e+003, 8.633093e-002
1.261217e+003, 8.561940e-002
1.263146e+003, 8.497253e-002
1.265074e+003, 8.430995e-002
1.267003e+003, 8.324399e-002
1.268931e+003, 8.212377e-002
1.270860e+003, 8.108528e-002
1.272788e+003, 7.989303e-002
1.274717e+003, 7.884194e-002
1.276645e+003, 7.767011e-002
1.278573e+003, 7.651267e-002
1.280502e+003, 7.537073e-002
1.282430e+003, 7.414322e-002
1.284359e+003, 7.287106e-002
1.286287e+003, 7.192147e-002
1.288216e+003, 7.120340e-002
1.290144e+003, 7.026391e-002
1.292073e+003, 6.934083e-002
1.294001e+003, 6.841375e-002
1.295930e+003, 6.728373e-002
1.297858e+003, 6.616575e-002
1.299787e+003, 6.502854e-002
1.301715e+003, 6.357862e-002
1.303644e+003, 6.220369e-002
1.305572e+003, 6.111567e-002
1.307500e+003, 6.002796e-002
1.309429e+003, 5.886624e-002
1.311357e+003, 5.768133e-002
1.313286e+003, 5.695885e-002
1.315214e+003, 5.622821e-002
1.317143e+003, 5.528827e-002
1.319071e+003, 5.441383e-002
1.321000e+003, 5.365033e-002
1.322928e+003, 5.294962e-002
1.324857e+003, 5.235097e-002
1.326785e+003, 5.185154e-002
1.328714e+003, 5.147839e-002
1.330642e+003, 5.149426e-002
1.332571e+003, 5.194076e-002
1.334499e+003, 5.245541e-002
1.336427e+003, 5.333304e-002
1.338356e+003, 5.454174e-002
1.340284e+003, 5.569370e-002
1.342213e+003, 5.670572e-002
1.344141e+003, 5.738290e-002
1.346070e+003, 5.772524e-002
1.347998e+003, 5.786106e-002
1.349927e+003, 5.764908e-002
1.351855e+003, 5.696599e-002
1.353784e+003, 5.602121e-002
1.355712e+003, 5.480933e-002
1.357641e+003, 5.330824e-002
1.359569e+003, 5.172056e-002
1.361498e+003, 4.987697e-002
1.363426e+003, 4.849042e-002
1.365354e+003, 4.677505e-002
1.367283e+003, 4.477942e-002
1.369211e+003, 4.317327e-002
1.371140e+003, 4.157396e-002
1.373068e+003, 3.961646e-002
1.374997e+003, 3.763248e-002
1.376925e+003, 3.579276e-002
1.378854e+003, 3.392942e-002
1.380782e+003, 3.234164e-002
1.382711e+003, 3.073549e-002
1.384639e+003, 2.903064e-002
1.386568e+003, 2.752466e-002
1.388496e+003, 2.624933e-002
1.390424e+003, 2.482024e-002
1.392353e+003, 2.372338e-002
1.394281e+003, 2.276712e-002
1.396210e+003, 2.181127e-002
1.398138e+003, 2.089240e-002
1.400067e+003, 1.991762e-002
1.401995e+003, 1.904557e-002
1.403924e+003, 1.851012e-002
1.405852e+003, 1.793730e-002
1.407781e+003, 1.719275e-002
1.409709e+003, 1.625374e-002
1.411638e+003, 1.573196e-002
1.413566e+003, 1.536338e-002
1.415495e+003, 1.469912e-002
1.417423e+003, 1.429091e-002
1.419351e+003, 1.400078e-002
1.421280e+003, 1.380138e-002
1.423208e+003, 1.352091e-002
1.425137e+003, 1.294514e-002
1.427065e+003, 1.223562e-002
1.428994e+003, 1.147804e-002
1.430922e+003, 1.093189e-002
1.432851e+003, 1.048090e-002
1.434779e+003, 9.666147e-003
1.436708e+003, 9.038325e-003
1.438636e+003, 8.585410e-003
1.440565e+003, 8.269936e-003
1.442493e+003, 7.955370e-003
1.444422e+003, 7.529718e-003
1.446350e+003, 7.279056e-003
1.448278e+003, 6.954894e-003
1.450207e+003, 6.572741e-003
1.452135e+003, 6.372978e-003
1.454064e+003, 6.110200e-003
1.455992e+003, 5.797288e-003
1.457921e+003, 5.740212e-003
1.459849e+003, 5.678947e-003
1.461778e+003, 5.730355e-003
1.463706e+003, 5.634745e-003
1.465635e+003, 5.297389e-003
1.467563e+003, 5.287514e-003
1.469492e+003, 5.341447e-003
1.471420e+003, 5.249223e-003
1.473349e+003, 5.203462e-003
1.475277e+003, 5.062286e-003
1.477205e+003, 4.793691e-003
1.479134e+003, 4.585872e-003
1.481062e+003, 4.714537e-003
1.482991e+003, 4.591054e-003
1.484919e+003, 4.275382e-003
1.486848e+003, 4.221979e-003
1.488776e+003, 4.209594e-003
1.490705e+003, 4.104627e-003
1.492633e+003, 3.934929e-003
1.494562e+003, 3.735443e-003
1.496490e+003, 3.692193e-003
1.498419e+003, 3.576658e-003
1.500347e+003, 3.491242e-003
1.502276e+003, 3.363756e-003
1.504204e+003, 3.075190e-003
1.506132e+003, 3.046254e-003
1.508061e+003, 3.008125e-003
1.509989e+003, 2.948919e-003
1.511918e+003, 2.841180e-003
1.513846e+003, 2.830681e-003
1.515775e+003, 2.741543e-003
1.517703e+003, 2.515925e-003
1.519632e+003, 2.486917e-003
1.521560e+003, 2.627900e-003
1.523489e+003, 2.544391e-003
1.525417e+003, 2.449306e-003
1.527346e+003, 2.369623e-003
1.529274e+003, 2.258080e-003
1.531203e+003, 2.250577e-003
1.533131e+003, 2.136965e-003
1.535059e+003, 2.153195e-003
1.536988e+003, 2.152657e-003
1.538916e+003, 1.832101e-003
1.540845e+003, 1.805169e-003
1.542773e+003, 1.988194e-003
1.544702e+003, 2.156515e-003
1.546630e+003, 2.229735e-003
1.548559e+003, 2.200012e-003
1.550487e+003, 2.077386e-003
1.552416e+003, 1.837951e-003
1.554344e+003, 1.908134e-003
1.556273e+003, 2.099785e-003
1.558201e+003, 2.130126e-003
1.560130e+003, 2.274655e-003
1.562058e+003, 2.395019e-003
1.563986e+003, 2.519224e-003
1.565915e+003, 2.561832e-003
1.567843e+003, 2.389283e-003
1.569772e+003, 2.216866e-003
1.571700e+003, 2.199915e-003
1.573629e+003, 2.167430e-003
1.575557e+003, 2.212394e-003
1.577486e+003, 2.421960e-003
1.579414e+003, 2.586428e-003
1.581343e+003, 2.576407e-003
1.583271e+003, 2.318694e-003
1.585200e+003, 2.393610e-003
1.587128e+003, 2.618726e-003
1.589057e+003, 2.839288e-003
1.590985e+003, 2.841169e-003
1.592913e+003, 2.761042e-003
1.594842e+003, 2.768893e-003
1.596770e+003, 2.590431e-003
1.598699e+003, 2.727147e-003
1.600627e+003, 2.768670e-003
1.602556e+003, 2.531109e-003
1.604484e+003, 2.666980e-003
1.606413e+003, 2.861809e-003
1.608341e+003, 2.731726e-003
1.610270e+003, 2.795045e-003
1.612198e+003, 2.833113e-003
1.614127e+003, 2.784336e-003
1.616055e+003, 2.891167e-003
1.617984e+003, 3.190719e-003
1.619912e+003, 3.290011e-003
1.621840e+003, 3.035740e-003
1.623769e+003, 2.967527e-003
1.625697e+003, 3.135387e-003
1.627626e+003, 3.054972e-003
1.629554e+003, 2.869769e-003
1.631483e+003, 3.085779e-003
1.633411e+003, 2.877068e-003
1.635340e+003, 2.646295e-003
1.637268e+003, 2.853951e-003
1.639197e+003, 3.023399e-003
1.641125e+003, 2.859022e-003
1.643054e+003, 2.930154e-003
1.644982e+003, 2.856447e-003
1.646911e+003, 2.750285e-003
1.648839e+003, 2.801964e-003
1.650767e+003, 2.777917e-003
1.652696e+003, 2.826336e-003
1.654624e+003, 2.954405e-003
1.656553e+003, 2.925222e-003
1.658481e+003, 2.975288e-003
1.660410e+003, 2.901179e-003
1.662338e+003, 2.962877e-003
1.664267e+003, 2.990530e-003
1.666195e+003, 2.763154e-003
1.668124e+003, 2.810949e-003
1.670052e+003, 3.040238e-003
1.671981e+003, 3.187221e-003
1.673909e+003, 3.049111e-003
1.675838e+003, 2.739536e-003
1.677766e+003, 2.700348e-003
1.679694e+003, 3.049976e-003
1.681623e+003, 2.907204e-003
1.683551e+003, 2.826120e-003
1.685480e+003, 2.931066e-003
1.687408e+003, 2.770679e-003
1.689337e+003, 2.919521e-003
1.691265e+003, 3.036551e-003
1.693194e+003, 2.854337e-003
1.695122e+003, 2.621609e-003
1.697051e+003, 2.661516e-003
1.698979e+003, 2.757947e-003
1.700908e+003, 2.760409e-003
1.702836e+003, 2.507981e-003
1.704765e+003, 2.552161e-003
1.706693e+003, 2.727323e-003
1.708621e+003, 2.609763e-003
1.710550e+003, 2.680017e-003
1.712478e+003, 2.435198e-003
1.714407e+003, 2.309986e-003
1.716335e+003, 2.397814e-003
1.718264e+003, 2.476983e-003
1.720192e+003, 2.443145e-003
1.722121e+003, 2.469048e-003
1.724049e+003, 2.367271e-003
1.725978e+003, 2.417764e-003
1.727906e+003, 2.324014e-003
1.729835e+003, 2.115638e-003
1.731763e+003, 2.204383e-003
1.733692e+003, 2.259139e-003
1.735620e+003, 1.955013e-003
1.737548e+003, 1.836907e-003
1.739477e+003, 1.962709e-003
1.741405e+003, 1.712486e-003
1.743334e+003, 1.554740e-003
1.745262e+003, 1.705912e-003
1.747191e+003, 1.714154e-003
1.749119e+003, 1.885909e-003
1.751048e+003, 1.978772e-003
1.752976e+003, 1.875358e-003
1.754905e+003, 2.005653e-003
1.756833e+003, 2.245734e-003
1.758762e+003, 2.121392e-003
1.760690e+003, 1.941207e-003
1.762619e+003, 2.041290e-003
1.764547e+003, 2.183562e-003
1.766475e+003, 2.199851e-003
1.768404e+003, 2.200046e-003
1.770332e+003, 2.219430e-003
1.772261e+003, 2.182298e-003
1.774189e+003, 2.333126e-003
1.776118e+003, 2.259124e-003
1.778046e+003, 2.044870e-003
1.779975e+003, 2.035349e-003
1.781903e+003, 2.253668e-003
1.783832e+003, 2.343794e-003
1.785760e+003, 2.301952e-003
1.787689e+003, 2.293846e-003
1.789617e+003, 2.363200e-003
1.791546e+003, 2.246614e-003
1.793474e+003, 1.998207e-003
1.795402e+003, 1.940224e-003
1.797331e+003, 2.300416e-003
1.799259e+003, 2.292481e-003
1.801188e+003, 2.261482e-003
1.803116e+003, 2.563500e-003
1.805045e+003, 2.646538e-003
1.806973e+003, 2.653107e-003
1.808902e+003, 2.425896e-003
1.810830e+003, 1.825353e-003
1.812759e+003, 1.755296e-003
1.814687e+003, 1.866003e-003
1.816616e+003, 1.742937e-003
1.818544e+003, 2.443678e-003
1.820473e+003, 2.796301e-003
1.822401e+003, 2.118252e-003
1.824329e+003, 2.038794e-003
1.826258e+003, 2.542189e-003
1.828186e+003, 2.625878e-003
1.830115e+003, 2.422305e-003
1.832043e+003, 2.172328e-003
1.833972e+003, 2.216544e-003
1.835900e+003, 2.182798e-003
1.837829e+003, 1.531127e-003
1.839757e+003, 1.540706e-003
1.841686e+003, 1.706220e-003
1.843614e+003, 1.550480e-003
1.845543e+003, 1.687860e-003
1.847471e+003, 1.966108e-003
1.849400e+003, 1.940384e-003
1.851328e+003, 1.733390e-003
1.853256e+003, 1.737634e-003
1.855185e+003, 1.841510e-003
1.857113e+003, 1.756482e-003
1.859042e+003, 1.801573e-003
1.860970e+003, 1.927053e-003
1.862899e+003, 2.248566e-003
1.864827e+003, 1.798735e-003
1.866756e+003, 1.431423e-003
1.868684e+003, 1.659982e-003
1.870613e+003, 1.501496e-003
1.872541e+003, 1.569355e-003
1.874470e+003, 1.809338e-003
1.876398e+003, 1.816600e-003
1.878327e+003, 1.615341e-003
1.880255e+003, 2.082085e-003
1.882183e+003, 1.710794e-003
1.884112e+003, 9.957503e-004
1.886040e+003, 1.252863e-003
1.887969e+003, 1.854316e-003
1.889897e+003, 1.642089e-003
1.891826e+003, 1.457981e-003
1.893754e+003, 1.437339e-003
1.895683e+003, 1.218363e-003
1.897611e+003, 1.205422e-003
1.899540e+003, 1.514396e-003
1.901468e+003, 2.016904e-003
1.903397e+003, 1.884601e-003
1.905325e+003, 1.394599e-003
1.907254e+003, 1.824204e-003
1.909182e+003, 1.608026e-003
1.911110e+003, 1.259239e-003
1.913039e+003, 1.622786e-003
1.914967e+003, 1.806744e-003
1.916896e+003, 2.145771e-003
1.918824e+003, 1.536343e-003
1.920753e+003, 5.600392e-004
1.922681e+003, 1.667743e-004
1.924610e+003, 8.888176e-005
1.926538e+003, 3.104500e-005
1.928467e+003, -2.421406e-004
1.930395e+003, -4.820697e-004
1.932324e+003, -2.022489e-004
1.934252e+003, 9.278000e-004
1.936181e+003, 6.447441e-004
1.938109e+003, -3.044761e-005
1.940037e+003, 2.878212e-005
1.941966e+003, -5.280055e-004
1.943894e+003, -5.294161e-004
1.945823e+003, -4.306629e-004
1.947751e+003, -1.300956e-004
1.949680e+003, 6.795547e-005
1.951608e+003, -5.860711e-004
1.953537e+003, -8.414649e-004
1.955465e+003, -1.137903e-003
1.957394e+003, -1.351287e-003
1.959322e+003, -1.706265e-003
1.961251e+003, -1.879111e-003
1.963179e+003, -7.887638e-004
1.965108e+003, -7.146744e-004
1.967036e+003, -1.727256e-003
1.968964e+003, -2.792005e-003
1.970893e+003, -2.039314e-003
1.972821e+003, -1.237950e-003
1.974750e+003, -2.626996e-003
1.976678e+003, -2.435648e-003
1.978607e+003, 6.724377e-004
1.980535e+003, 1.918150e-003
1.982464e+003, 7.275231e-004
1.984392e+003, 2.778306e-004
1.986321e+003, -1.017766e-003
1.988249e+003, -1.556357e-003
1.990178e+003, -7.778481e-004
1.992106e+003, -7.831597e-004
1.994035e+003, -3.033421e-004
1.995963e+003, 1.307381e-003
1.997891e+003, 4.851355e-004
1.999820e+003, -6.988624e-004
2.001748e+003, -1.104206e-003
2.003677e+003, -1.089067e-003
2.005605e+003, -1.232494e-003
2.007534e+003, -2.078968e-003
2.009462e+003, -2.198830e-003
2.011391e+003, -1.032781e-003
2.013319e+003, -1.336644e-003
2.015248e+003, -2.771915e-003
2.017176e+003, -2.304341e-003
2.019105e+003, -4.861387e-005
2.021033e+003, -4.284371e-004
2.022962e+003, -1.283448e-003
2.024890e+003, 2.451101e-005
2.026818e+003, 1.642724e-003
2.028747e+003, -5.384598e-004
2.030675e+003, -6.204732e-004
2.032604e+003, 1.421719e-003
2.034532e+003, 9.150046e-004
2.036461e+003, 6.990664e-004
2.038389e+003, 1.437056e-003
2.040318e+003, 7.581667e-005
2.042246e+003, -1.214577e-003
2.044175e+003, -5.683586e-004
2.046103e+003, 5.101535e-004
2.048032e+003, 2.191698e-003
2.049960e+003, 2.977393e-003
2.051889e+003, 1.711865e-003
2.053817e+003, 1.670345e-003
2.055746e+003, 1.881944e-003
2.057674e+003, 8.692006e-004
2.059603e+003, 7.510155e-004
2.061531e+003, 8.439415e-004
2.063459e+003, -2.636545e-004
2.065388e+003, -1.141642e-003
2.067316e+003, -4.330290e-004
2.069245e+003, 2.724312e-004
2.071173e+003, 1.434553e-003
2.073102e+003, 1.986197e-003
2.075030e+003, 2.376972e-003
2.076959e+003, 1.743858e-003
2.078887e+003, 9.726357e-004
2.080816e+003, 1.541459e-003
2.082744e+003, 2.453487e-003
2.084673e+003, 1.584474e-003
2.086601e+003, 1.071852e-003
2.088530e+003, 1.082825e-003
2.090458e+003, 1.461260e-003
2.092386e+003, 1.037608e-003
2.094315e+003, 1.299815e-003
2.096243e+003, 8.780983e-004
2.098172e+003, 3.875066e-004
2.100100e+003, 1.534667e-003
2.102029e+003, 1.630516e-003
2.103957e+003, 1.484126e-003
2.105886e+003, 1.392442e-003
2.107814e+003, 7.955952e-004
2.109743e+003, 8.317627e-004
2.111671e+003, 1.934696e-003
2.113600e+003, 2.551326e-003
2.115528e+003, 2.121706e-003
2.117457e+003, 7.027924e-004
2.119385e+003, -1.470865e-004
2.121313e+003, -4.568640e-004
2.123242e+003, -7.550751e-004
2.125170e+003, -7.612421e-004
2.127099e+003, 7.757285e-005
2.129027e+003, 2.172008e-004
2.130956e+003, -1.229696e-003
2.132884e+003, -2.390532e-003
2.134813e+003, -1.648493e-003
2.136741e+003, 1.658589e-004
2.138670e+003, 1.374246e-003
2.140598e+003, 8.686343e-004
2.142527e+003, -3.260269e-005
2.144455e+003, -1.622656e-004
2.146384e+003, -7.045706e-004
2.148312e+003, -1.413197e-003
2.150240e+003, -2.287356e-003
2.152169e+003, -3.431987e-003
2.154097e+003, -3.121409e-003
2.156026e+003, -2.103739e-003
2.157954e+003, -2.077505e-003
2.159883e+003, 9.479495e-004
2.161811e+003, 1.544462e-003
2.163740e+003, 9.975104e-004
2.165668e+003, 2.479588e-006
2.167597e+003, 1.563627e-004
2.169525e+003, 5.184370e-005
2.171454e+003, 2.311914e-004
2.173382e+003, 1.066443e-003
2.175311e+003, 2.419008e-004
2.177239e+003, -2.118609e-004
2.179167e+003, 1.221518e-003
2.181096e+003, 2.463072e-003
2.183024e+003, 2.254857e-003
2.184953e+003, 1.539436e-003
2.186881e+003, 2.440579e-003
2.188810e+003, 1.727665e-003
2.190738e+003, 8.621354e-004
2.192667e+003, 2.899616e-003
2.194595e+003, 3.678399e-003
2.196524e+003, 1.814644e-003
2.198452e+003, 1.630452e-003
2.200381e+003, 2.768865e-003
2.202309e+003, 4.276766e-003
2.204238e+003, 4.468775e-003
2.206166e+003, 3.456838e-003
2.208094e+003, 3.507511e-003
2.210023e+003, 1.429213e-003
2.211951e+003, 9.620207e-004
2.213880e+003, 2.092741e-003
2.215808e+003, 2.914792e-003
2.217737e+003, 4.043523e-003
2.219665e+003, 5.083430e-003
2.221594e+003, 4.489681e-003
2.223522e+003, 4.721887e-003
2.225451e+003, 5.301208e-003
2.227379e+003, 4.106359e-003
2.229308e+003, 2.809741e-003
2.231236e+003, 3.651677e-003
2.233165e+003, 5.606312e-003
2.235093e+003, 5.659646e-003
2.237021e+003, 3.436883e-003
2.238950e+003, 4.137173e-003
2.240878e+003, 5.011466e-003
2.242807e+003, 4.086639e-003
2.244735e+003, 4.902520e-003
2.246664e+003, 5.685118e-003
2.248592e+003, 5.475066e-003
2.250521e+003, 4.574577e-003
2.252449e+003, 4.915458e-003
2.254378e+003, 5.664725e-003
2.256306e+003, 6.209339e-003
2.258235e+003, 6.032150e-003
2.260163e+003, 4.985158e-003
2.262092e+003, 4.527221e-003
2.264020e+003, 4.964774e-003
2.265948e+003, 5.724313e-003
2.267877e+003, 5.964893e-003
2.269805e+003, 5.489215e-003
2.271734e+003, 5.260815e-003
2.273662e+003, 6.146905e-003
2.275591e+003, 5.918672e-003
2.277519e+003, 5.587394e-003
2.279448e+003, 6.269329e-003
2.281376e+003, 6.494433e-003
2.283305e+003, 6.127085e-003
2.285233e+003, 6.707587e-003
2.287162e+003, 6.940186e-003
2.289090e+003, 6.433461e-003
2.291019e+003, 5.993572e-003
2.292947e+003, 6.582048e-003
2.294875e+003, 6.674699e-003
2.296804e+003, 6.504813e-003
2.298732e+003, 6.491220e-003
2.300661e+003, 6.364499e-003
2.302589e+003, 5.739723e-003
2.304518e+003, 5.485031e-003
2.306446e+003, 5.695427e-003
2.308375e+003, 6.154426e-003
2.310303e+003, 6.552770e-003
2.312232e+003, 6.669730e-003
2.314160e+003, 6.730459e-003
2.316089e+003, 6.721628e-003
2.318017e+003, 6.285250e-003
2.319946e+003, 6.674332e-003
2.321874e+003, 7.530522e-003
2.323802e+003, 7.421376e-003
2.325731e+003, 6.227491e-003
2.327659e+003, 5.721343e-003
2.329588e+003, 5.874916e-003
2.331516e+003, 5.999246e-003
2.333445e+003, 6.172158e-003
2.335373e+003, 6.025147e-003
2.337302e+003, 5.513923e-003
2.339230e+003, 5.302798e-003
2.341159e+003, 5.582542e-003
2.343087e+003, 5.885853e-003
2.345016e+003, 6.369109e-003
2.346944e+003, 5.816042e-003
2.348873e+003, 4.680179e-003
2.350801e+003, 4.713587e-003
2.352729e+003, 5.257680e-003
2.354658e+003, 5.684258e-003
2.356586e+003, 5.668065e-003
2.358515e+003, 5.562669e-003
2.360443e+003, 5.590325e-003
2.362372e+003, 5.360708e-003
2.364300e+003, 4.512826e-003
2.366229e+003, 4.203335e-003
2.368157e+003, 4.455697e-003
2.370086e+003, 4.712962e-003
2.372014e+003, 4.810888e-003
2.373942e+003, 4.878251e-003
2.375871e+003, 5.141283e-003
2.377799e+003, 5.322135e-003
2.379728e+003, 4.636713e-003
2.381656e+003, 4.391658e-003
2.383585e+003, 4.862805e-003
2.385513e+003, 4.237631e-003
2.387442e+003, 4.063464e-003
2.389370e+003, 4.674072e-003
2.391299e+003, 4.717904e-003
2.393227e+003, 4.287209e-003
2.395156e+003, 3.932893e-003
2.397084e+003, 4.130800e-003
2.399012e+003, 4.404576e-003
2.400941e+003, 4.821929e-003
2.402869e+003, 4.979216e-003
2.404798e+003, 4.978224e-003
2.406726e+003, 4.380710e-003
2.408655e+003, 3.855067e-003
2.410583e+003, 4.298448e-003
2.412512e+003, 4.241925e-003
2.414440e+003, 4.168285e-003
2.416369e+003, 4.506506e-003
2.418297e+003, 4.511771e-003
2.420226e+003, 4.426690e-003
2.422154e+003, 4.884073e-003
2.424083e+003, 4.988106e-003
2.426011e+003, 3.891558e-003
2.427939e+003, 3.975490e-003
2.429868e+003, 4.951297e-003
2.431796e+003, 4.954490e-003
2.433725e+003, 4.538731e-003
2.435653e+003, 4.875805e-003
2.437582e+003, 4.934485e-003
2.439510e+003, 4.924131e-003
2.441439e+003, 5.320106e-003
2.443367e+003, 5.337453e-003
2.445296e+003, 5.011981e-003
2.447224e+003, 4.458813e-003
2.449153e+003, 4.116972e-003
2.451081e+003, 4.793441e-003
2.453010e+003, 4.799052e-003
2.454938e+003, 4.214303e-003
2.456866e+003, 4.233663e-003
2.458795e+003, 4.025613e-003
2.460723e+003, 4.158794e-003
2.462652e+003, 4.401304e-003
2.464580e+003, 4.184233e-003
2.466509e+003, 4.016151e-003
2.468437e+003, 3.899871e-003
2.470366e+003, 3.416940e-003
2.472294e+003, 3.695607e-003
2.474223e+003, 3.654846e-003
2.476151e+003, 3.297469e-003
2.478080e+003, 3.371243e-003
2.480008e+003, 3.791282e-003
2.481937e+003, 3.650745e-003
2.483865e+003, 3.145116e-003
2.485793e+003, 3.045334e-003
2.487722e+003, 2.743116e-003
2.489650e+003, 1.938040e-003
2.491579e+003, 2.262261e-003
2.493507e+003, 3.135586e-003
2.495436e+003, 3.135565e-003
2.497364e+003, 3.204655e-003
2.499293e+003, 3.812835e-003
2.501221e+003, 4.073568e-003
2.503150e+003, 3.071358e-003
2.505078e+003, 2.519893e-003
2.507007e+003, 3.187560e-003
2.508935e+003, 3.449389e-003
2.510864e+003, 3.426608e-003
2.512792e+003, 2.486898e-003
2.514720e+003, 3.120203e-003
2.516649e+003, 3.980035e-003
2.518577e+003, 3.808534e-003
2.520506e+003, 3.228788e-003
2.522434e+003, 3.424170e-003
2.524363e+003, 3.565796e-003
2.526291e+003, 3.257609e-003
2.528220e+003, 2.746919e-003
2.530148e+003, 3.325517e-003
2.532077e+003, 3.684914e-003
2.534005e+003, 2.996174e-003
2.535934e+003, 2.873064e-003
2.537862e+003, 3.426232e-003
2.539791e+003, 3.174957e-003
2.541719e+003, 2.723869e-003
2.543647e+003, 3.282104e-003
2.545576e+003, 3.865251e-003
2.547504e+003, 3.701411e-003
2.549433e+003, 3.521386e-003
2.551361e+003, 4.298641e-003
2.553290e+003, 3.888920e-003
2.555218e+003, 3.371657e-003
2.557147e+003, 4.035818e-003
2.559075e+003, 4.030891e-003
2.561004e+003, 4.179635e-003
2.562932e+003, 4.249041e-003
2.564861e+003, 3.855222e-003
2.566789e+003, 3.699792e-003
2.568718e+003, 4.236519e-003
2.570646e+003, 3.974171e-003
2.572574e+003, 3.121916e-003
2.574503e+003, 3.037336e-003
2.576431e+003, 3.983967e-003
2.578360e+003, 3.919573e-003
2.580288e+003, 3.483896e-003
2.582217e+003, 3.514797e-003
2.584145e+003, 4.494383e-003
2.586074e+003, 5.077264e-003
2.588002e+003, 4.507154e-003
2.589931e+003, 3.966350e-003
2.591859e+003, 4.022681e-003
2.593788e+003, 4.264202e-003
2.595716e+003, 4.101758e-003
2.597645e+003, 4.697951e-003
2.599573e+003, 5.607178e-003
2.601501e+003, 4.992748e-003
2.603430e+003, 4.402072e-003
2.605358e+003, 4.794505e-003
2.607287e+003, 4.997030e-003
2.609215e+003, 4.812583e-003
2.611144e+003, 4.810330e-003
2.613072e+003, 4.319995e-003
2.615001e+003, 4.132687e-003
2.616929e+003, 4.513327e-003
2.618858e+003, 4.834969e-003
2.620786e+003, 4.942129e-003
2.622715e+003, 3.954161e-003
2.624643e+003, 4.324113e-003
2.626572e+003, 5.192917e-003
2.628500e+003, 4.499793e-003
2.630428e+003, 4.042349e-003
2.632357e+003, 4.230181e-003
2.634285e+003, 4.858510e-003
2.636214e+003, 5.071798e-003
2.638142e+003, 4.858239e-003
2.640071e+003, 5.065787e-003
2.641999e+003, 5.385190e-003
2.643928e+003, 5.250501e-003
2.645856e+003, 5.202004e-003
2.647785e+003, 4.974519e-003
2.649713e+003, 4.587049e-003
2.651642e+003, 4.680122e-003
2.653570e+003, 5.219394e-003
2.655499e+003, 5.106653e-003
2.657427e+003, 5.173105e-003
2.659355e+003, 5.232865e-003
2.661284e+003, 4.928863e-003
2.663212e+003, 5.122025e-003
2.665141e+003, 5.004651e-003
2.667069e+003, 4.450893e-003
2.668998e+003, 4.217520e-003
2.670926e+003, 4.096744e-003
2.672855e+003, 4.153147e-003
2.674783e+003, 4.706171e-003
2.676712e+003, 4.468898e-003
2.678640e+003, 4.175401e-003
2.680569e+003, 3.890563e-003
2.682497e+003, 3.830955e-003
2.684426e+003, 4.234330e-003
2.686354e+003, 4.009816e-003
2.688282e+003, 3.854550e-003
2.690211e+003, 4.507439e-003
2.692139e+003, 4.299538e-003
2.694068e+003, 3.700807e-003
2.695996e+003, 3.891164e-003
2.697925e+003, 3.981812e-003
2.699853e+003, 4.069610e-003
2.701782e+003, 4.043649e-003
2.703710e+003, 4.080817e-003
2.705639e+003, 4.009680e-003
2.707567e+003, 3.692691e-003
2.709496e+003, 3.296214e-003
2.711424e+003, 3.499866e-003
2.713353e+003, 3.436810e-003
2.715281e+003, 4.124720e-003
2.717209e+003, 4.663026e-003
2.719138e+003, 4.631862e-003
2.721066e+003, 4.328355e-003
2.722995e+003, 4.754253e-003
2.724923e+003, 5.175521e-003
2.726852e+003, 4.845569e-003
2.728780e+003, 4.536488e-003
2.730709e+003, 4.773742e-003
2.732637e+003, 4.538343e-003
2.734566e+003, 4.671479e-003
2.736494e+003, 4.784090e-003
2.738423e+003, 4.881680e-003
2.740351e+003, 4.687832e-003
2.742280e+003, 3.991001e-003
2.744208e+003, 4.195456e-003
2.746136e+003, 4.470068e-003
2.748065e+003, 4.339256e-003
2.749993e+003, 4.671767e-003
2.751922e+003, 5.103602e-003
2.753850e+003, 5.212804e-003
2.755779e+003, 4.999331e-003
2.757707e+003, 4.803899e-003
2.759636e+003, 4.694339e-003
2.761564e+003, 4.919186e-003
2.763493e+003, 5.262204e-003
2.765421e+003, 5.200043e-003
2.767350e+003, 5.152212e-003
2.769278e+003, 4.487623e-003
2.771207e+003, 3.923611e-003
2.773135e+003, 4.297533e-003
2.775063e+003, 4.464243e-003
2.776992e+003, 4.998366e-003
2.778920e+003, 5.291180e-003
2.780849e+003, 5.359472e-003
2.782777e+003, 5.462687e-003
2.784706e+003, 5.437307e-003
2.786634e+003, 5.527511e-003
2.788563e+003, 5.225909e-003
2.790491e+003, 4.294057e-003
2.792420e+003, 4.486201e-003
2.794348e+003, 4.687079e-003
2.796277e+003, 4.364864e-003
2.798205e+003, 4.610715e-003
2.800134e+003, 5.129725e-003
2.802062e+003, 5.716877e-003
2.803990e+003, 5.727474e-003
2.805919e+003, 5.640589e-003
2.807847e+003, 5.191345e-003
2.809776e+003, 4.790316e-003
2.811704e+003, 5.230248e-003
2.813633e+003, 5.712780e-003
2.815561e+003, 5.712752e-003
2.817490e+003, 5.147493e-003
2.819418e+003, 4.839278e-003
2.821347e+003, 4.403840e-003
2.823275e+003, 4.830394e-003
2.825204e+003, 5.381143e-003
2.827132e+003, 5.697261e-003
2.829061e+003, 5.667860e-003
2.830989e+003, 5.649120e-003
2.832917e+003, 5.602143e-003
2.834846e+003, 4.583908e-003
2.836774e+003, 4.485168e-003
2.838703e+003, 5.081776e-003
2.840631e+003, 5.535347e-003
2.842560e+003, 5.814218e-003
2.844488e+003, 5.481887e-003
2.846417e+003, 4.359758e-003
2.848345e+003, 3.750886e-003
2.850274e+003, 3.694457e-003
2.852202e+003, 3.895588e-003
2.854131e+003, 4.165419e-003
2.856059e+003, 4.463393e-003
2.857988e+003, 4.255050e-003
2.859916e+003, 4.218210e-003
2.861844e+003, 4.373515e-003
2.863773e+003, 4.101155e-003
2.865701e+003, 4.025131e-003
2.867630e+003, 4.382787e-003
2.869558e+003, 4.734982e-003
2.871487e+003, 4.510708e-003
2.873415e+003, 4.526909e-003
2.875344e+003, 4.477053e-003
2.877272e+003, 5.315164e-003
2.879201e+003, 6.173226e-003
2.881129e+003, 5.840464e-003
2.883058e+003, 5.569935e-003
2.884986e+003, 5.322442e-003
2.886915e+003, 4.274494e-003
2.888843e+003, 3.880630e-003
2.890771e+003, 4.883768e-003
2.892700e+003, 5.229191e-003
2.894628e+003, 4.143178e-003
2.896557e+003, 4.366333e-003
2.898485e+003, 4.687857e-003
2.900414e+003, 4.573792e-003
2.902342e+003, 4.868672e-003
2.904271e+003, 4.576158e-003
2.906199e+003, 4.275065e-003
2.908128e+003, 4.547160e-003
2.910056e+003, 4.712193e-003
2.911985e+003, 4.734647e-003
2.913913e+003, 5.022820e-003
2.915842e+003, 4.491873e-003
2.917770e+003, 3.426014e-003
2.919698e+003, 2.766730e-003
2.921627e+003, 2.863040e-003
2.923555e+003, 3.162287e-003
2.925484e+003, 3.042659e-003
2.927412e+003, 3.065838e-003
2.929341e+003, 2.748061e-003
2.931269e+003, 3.041392e-003
2.933198e+003, 3.924645e-003
2.935126e+003, 4.028332e-003
2.937055e+003, 3.921587e-003
2.938983e+003, 4.040464e-003
2.940912e+003, 3.920481e-003
2.942840e+003, 4.140070e-003
2.944769e+003, 4.368742e-003
2.946697e+003, 4.638968e-003
2.948625e+003, 4.987599e-003
2.950554e+003, 4.614365e-003
2.952482e+003, 3.901897e-003
2.954411e+003, 3.566378e-003
2.956339e+003, 3.829367e-003
2.958268e+003, 4.506599e-003
2.960196e+003, 4.217056e-003
2.962125e+003, 4.303086e-003
2.964053e+003, 4.741762e-003
2.965982e+003, 5.142618e-003
2.967910e+003, 5.085699e-003
2.969839e+003, 4.561894e-003
2.971767e+003, 5.700343e-003
2.973696e+003, 6.567366e-003
2.975624e+003, 6.032240e-003
2.977552e+003, 5.650672e-003
2.979481e+003, 6.199268e-003
2.981409e+003, 6.080482e-003
2.983338e+003, 5.663571e-003
2.985266e+003, 5.384733e-003
2.987195e+003, 5.475405e-003
2.989123e+003, 6.360073e-003
2.991052e+003, 6.950897e-003
2.992980e+003, 7.145314e-003
2.994909e+003, 6.839883e-003
2.996837e+003, 6.445839e-003
2.998766e+003, 6.053031e-003
3.000694e+003, 6.150740e-003
3.002623e+003, 6.291077e-003
3.004551e+003, 6.078233e-003
3.006479e+003, 5.347914e-003
3.008408e+003, 6.088579e-003
3.010336e+003, 6.988141e-003
3.012265e+003, 6.669072e-003
3.014193e+003, 6.090954e-003
3.016122e+003, 5.892529e-003
3.018050e+003, 5.458827e-003
3.019979e+003, 5.846405e-003
3.021907e+003, 6.738381e-003
3.023836e+003, 6.339906e-003
3.025764e+003, 5.958952e-003
3.027693e+003, 6.472826e-003
3.029621e+003, 6.295598e-003
3.031550e+003, 6.568111e-003
3.033478e+003, 6.739314e-003
3.035406e+003, 5.964293e-003
3.037335e+003, 6.087973e-003
3.039263e+003, 6.870658e-003
3.041192e+003, 6.210015e-003
3.043120e+003, 5.553293e-003
3.045049e+003, 5.807200e-003
3.046977e+003, 6.383064e-003
3.048906e+003, 6.821100e-003
3.050834e+003, 6.093148e-003
3.052763e+003, 5.568072e-003
3.054691e+003, 6.033047e-003
3.056620e+003, 6.740864e-003
3.058548e+003, 7.813664e-003
3.060477e+003, 7.933503e-003
3.062405e+003, 6.761543e-003
3.064333e+003, 6.855590e-003
3.066262e+003, 7.457571e-003
3.068190e+003, 7.269247e-003
3.070119e+003, 6.628556e-003
3.072047e+003, 6.463091e-003
3.073976e+003, 6.737795e-003
3.075904e+003, 6.921809e-003
3.077833e+003, 6.950028e-003
3.079761e+003, 7.536080e-003
3.081690e+003, 7.999793e-003
3.083618e+003, 7.390638e-003
3.085547e+003, 6.781291e-003
3.087475e+003, 6.194684e-003
3.089404e+003, 6.197877e-003
3.091332e+003, 6.570227e-003
3.093260e+003, 6.925235e-003
3.095189e+003, 6.794173e-003
3.097117e+003, 7.080790e-003
3.099046e+003, 6.864331e-003
3.100974e+003, 5.550546e-003
3.102903e+003, 5.577443e-003
3.104831e+003, 6.154952e-003
3.106760e+003, 6.015392e-003
3.108688e+003, 5.535881e-003
3.110617e+003, 6.203546e-003
3.112545e+003, 7.438073e-003
3.114474e+003, 8.871988e-003
3.116402e+003, 9.392939e-003
3.118331e+003, 7.652784e-003
3.120259e+003, 7.259347e-003
3.122188e+003, 7.812480e-003
3.124116e+003, 7.682078e-003
3.126044e+003, 7.346264e-003
3.127973e+003, 7.250612e-003
3.129901e+003, 7.516738e-003
3.131830e+003, 8.075035e-003
3.133758e+003, 7.828543e-003
3.135687e+003, 7.456767e-003
3.137615e+003, 6.502699e-003
3.139544e+003, 6.728068e-003
3.141472e+003, 7.201875e-003
3.143401e+003, 8.200093e-003
3.145329e+003, 9.111172e-003
3.147258e+003, 8.621261e-003
3.149186e+003, 7.870639e-003
3.151115e+003, 7.281471e-003
3.153043e+003, 8.960729e-003
3.154971e+003, 1.028813e-002
3.156900e+003, 9.354311e-003
3.158828e+003, 7.468557e-003
3.160757e+003, 6.616220e-003
3.162685e+003, 7.830396e-003
3.164614e+003, 8.133437e-003
3.166542e+003, 7.268506e-003
3.168471e+003, 7.194184e-003
3.170399e+003, 7.687323e-003
3.172328e+003, 7.211501e-003
3.174256e+003, 7.520607e-003
3.176185e+003, 7.897519e-003
3.178113e+003, 7.689003e-003
3.180042e+003, 7.333935e-003
3.181970e+003, 7.953294e-003
3.183898e+003, 7.861857e-003
3.185827e+003, 7.739584e-003
3.187755e+003, 7.704964e-003
3.189684e+003, 7.791572e-003
3.191612e+003, 7.437004e-003
3.193541e+003, 7.612239e-003
3.195469e+003, 8.726897e-003
3.197398e+003, 8.361083e-003
3.199326e+003, 7.083089e-003
3.201255e+003, 7.688167e-003
3.203183e+003, 7.029216e-003
3.205112e+003, 6.577805e-003
3.207040e+003, 7.579691e-003
3.208969e+003, 7.732799e-003
3.210897e+003, 7.958510e-003
3.212825e+003, 7.756758e-003
3.214754e+003, 6.537428e-003
3.216682e+003, 6.118831e-003
3.218611e+003, 6.416562e-003
3.220539e+003, 7.402153e-003
3.222468e+003, 7.903310e-003
3.224396e+003, 7.682403e-003
3.226325e+003, 7.376771e-003
3.228253e+003, 7.978137e-003
3.230182e+003, 7.330570e-003
3.232110e+003, 7.256803e-003
3.234039e+003, 7.958984e-003
3.235967e+003, 8.433766e-003
3.237896e+003, 8.981492e-003
3.239824e+003, 9.215314e-003
3.241752e+003, 8.526623e-003
3.243681e+003, 7.152262e-003
3.245609e+003, 6.043065e-003
3.247538e+003, 4.953080e-003
3.249466e+003, 7.084122e-003
3.251395e+003, 8.227092e-003
3.253323e+003, 7.281041e-003
3.255252e+003, 7.609744e-003
3.257180e+003, 9.205991e-003
3.259109e+003, 8.938152e-003
3.261037e+003, 7.840783e-003
3.262966e+003, 7.964206e-003
3.264894e+003, 8.525186e-003
3.266823e+003, 8.527943e-003
3.268751e+003, 8.646101e-003
3.270679e+003, 8.377885e-003
3.272608e+003, 8.268693e-003
3.274536e+003, 8.728921e-003
3.276465e+003, 8.711924e-003
3.278393e+003, 8.442645e-003
3.280322e+003, 7.887789e-003
3.282250e+003, 7.526295e-003
3.284179e+003, 7.630568e-003
3.286107e+003, 8.380012e-003
3.288036e+003, 8.881057e-003
3.289964e+003, 8.867428e-003
3.291893e+003, 8.415099e-003
3.293821e+003, 7.686085e-003
3.295750e+003, 8.047215e-003
3.297678e+003, 8.022428e-003
3.299606e+003, 7.829718e-003
3.301535e+003, 7.841607e-003
3.303463e+003, 8.696302e-003
3.305392e+003, 8.906901e-003
3.307320e+003, 9.789907e-003
3.309249e+003, 8.856692e-003
3.311177e+003, 7.105998e-003
3.313106e+003, 8.145975e-003
3.315034e+003, 8.865424e-003
3.316963e+003, 7.714409e-003
3.318891e+003, 6.891766e-003
3.320820e+003, 7.291694e-003
3.322748e+003, 7.460381e-003
3.324677e+003, 7.440316e-003
3.326605e+003, 7.336736e-003
3.328533e+003, 7.767173e-003
3.330462e+003, 7.179539e-003
3.332390e+003, 7.438834e-003
3.334319e+003, 7.867103e-003
3.336247e+003, 8.363170e-003
3.338176e+003, 9.391057e-003
3.340104e+003, 9.425069e-003
3.342033e+003, 9.265112e-003
3.343961e+003, 1.001539e-002
3.345890e+003, 9.404339e-003
3.347818e+003, 8.295236e-003
3.349747e+003, 8.122116e-003
3.351675e+003, 9.050261e-003
3.353604e+003, 9.451746e-003
3.355532e+003, 7.711223e-003
3.357460e+003, 6.948476e-003
3.359389e+003, 8.511858e-003
3.361317e+003, 9.519231e-003
3.363246e+003, 9.933027e-003
3.365174e+003, 9.349431e-003
3.367103e+003, 8.726186e-003
3.369031e+003, 8.924964e-003
3.370960e+003, 8.827404e-003
3.372888e+003, 7.742333e-003
3.374817e+003, 7.755478e-003
3.376745e+003, 8.278128e-003
3.378674e+003, 9.188809e-003
3.380602e+003, 8.929268e-003
3.382531e+003, 7.992090e-003
3.384459e+003, 8.105176e-003
3.386387e+003, 8.740064e-003
3.388316e+003, 9.153198e-003
3.390244e+003, 1.003957e-002
3.392173e+003, 9.537193e-003
3.394101e+003, 8.393520e-003
3.396030e+003, 7.834407e-003
3.397958e+003, 7.284910e-003
3.399887e+003, 7.993123e-003
3.401815e+003, 9.914046e-003
3.403744e+003, 9.589517e-003
3.405672e+003, 7.752476e-003
3.407601e+003, 8.765823e-003
3.409529e+003, 8.709385e-003
3.411458e+003, 7.466075e-003
3.413386e+003, 8.520186e-003
3.415314e+003, 1.071349e-002
3.417243e+003, 1.042436e-002
3.419171e+003, 9.149746e-003
3.421100e+003, 8.996360e-003
3.423028e+003, 9.043106e-003
3.424957e+003, 8.525629e-003
3.426885e+003, 8.008445e-003
3.428814e+003, 8.981263e-003
3.430742e+003, 9.041769e-003
3.432671e+003, 9.215388e-003
3.434599e+003, 8.978832e-003
3.436528e+003, 9.608143e-003
3.438456e+003, 1.040183e-002
3.440385e+003, 1.160797e-002
3.442313e+003, 1.124856e-002
3.444241e+003, 1.001876e-002
3.446170e+003, 9.111305e-003
3.448098e+003, 9.708151e-003
3.450027e+003, 1.070958e-002
3.451955e+003, 1.136831e-002
3.453884e+003, 1.114829e-002
3.455812e+003, 1.092667e-002
3.457741e+003, 1.056513e-002
3.459669e+003, 1.136594e-002
3.461598e+003, 1.120032e-002
3.463526e+003, 1.105116e-002
3.465455e+003, 1.112738e-002
3.467383e+003, 1.079120e-002
3.469312e+003, 1.158331e-002
3.471240e+003, 1.291809e-002
3.473168e+003, 1.325047e-002
3.475097e+003, 1.235584e-002
3.477025e+003, 1.131109e-002
3.478954e+003, 9.773925e-003
3.480882e+003, 9.651698e-003
3.482811e+003, 1.153632e-002
3.484739e+003, 1.208832e-002
3.486668e+003, 1.147809e-002
3.488596e+003, 1.273709e-002
3.490525e+003, 1.422235e-002
3.492453e+003, 1.493225e-002
3.494382e+003, 1.523183e-002
3.496310e+003, 1.508726e-002
3.498239e+003, 1.363618e-002
3.500167e+003, 1.301525e-002
3.502095e+003, 1.301478e-002
3.504024e+003, 1.484646e-002
3.505952e+003, 1.594113e-002
3.507881e+003, 1.586111e-002
3.509809e+003, 1.621761e-002
3.511738e+003, 1.646979e-002
3.513666e+003, 1.619483e-002
3.515595e+003, 1.563806e-002
3.517523e+003, 1.649253e-002
3.519452e+003, 1.663146e-002
3.521380e+003, 1.723265e-002
3.523309e+003, 1.575729e-002
3.525237e+003, 1.573999e-002
3.527166e+003, 1.599698e-002
3.529094e+003, 1.522839e-002
3.531022e+003, 1.544464e-002
3.532951e+003, 1.622856e-002
3.534879e+003, 1.706109e-002
3.536808e+003, 1.804348e-002
3.538736e+003, 1.823596e-002
3.540665e+003, 1.824931e-002
3.542593e+003, 1.770499e-002
3.544522e+003, 1.813855e-002
3.546450e+003, 1.955321e-002
3.548379e+003, 1.969807e-002
3.550307e+003, 1.956077e-002
3.552236e+003, 1.971729e-002
3.554164e+003, 1.879908e-002
3.556093e+003, 1.913969e-002
3.558021e+003, 2.005136e-002
3.559949e+003, 1.931384e-002
3.561878e+003, 1.860696e-002
3.563806e+003, 2.080663e-002
3.565735e+003, 2.113399e-002
3.567663e+003, 1.973797e-002
3.569592e+003, 2.041336e-002
3.571520e+003, 2.050221e-002
3.573449e+003, 2.036988e-002
3.575377e+003, 2.023687e-002
3.577306e+003, 1.900968e-002
3.579234e+003, 1.792987e-002
3.581163e+003, 1.604169e-002
3.583091e+003, 1.543657e-002
3.585020e+003, 1.471456e-002
3.586948e+003, 1.398687e-002
3.588876e+003, 1.383062e-002
3.590805e+003, 1.371992e-002
3.592733e+003, 1.276021e-002
3.594662e+003, 1.313241e-002
3.596590e+003, 1.310987e-002
3.598519e+003, 1.077928e-002
3.600447e+003, 8.868096e-003
3.602376e+003, 9.814662e-003
3.604304e+003, 1.009660e-002
3.606233e+003, 9.511340e-003
3.608161e+003, 9.250063e-003
3.610090e+003, 7.286008e-003
3.612018e+003, 6.613826e-003
3.613947e+003, 7.751984e-003
3.615875e+003, 6.546588e-003
3.617803e+003, 4.714320e-003
3.619732e+003, 5.769846e-003
3.621660e+003, 6.990120e-003
3.623589e+003, 6.433014e-003
3.625517e+003, 5.451684e-003
3.627446e+003, 5.429033e-003
3.629374e+003, 8.462267e-003
3.631303e+003, 8.529641e-003
3.633231e+003, 6.470237e-003
3.635160e+003, 7.580919e-003
3.637088e+003, 8.691993e-003
3.639017e+003, 7.617022e-003
3.640945e+003, 6.981532e-003
3.642874e+003, 6.644271e-003
3.644802e+003, 8.935826e-003
3.646730e+003, 9.242117e-003
3.648659e+003, 7.466870e-003
3.650587e+003, 6.250639e-003
3.652516e+003, 4.755910e-003
3.654444e+003, 5.050111e-003
3.656373e+003, 6.014312e-003
3.658301e+003, 5.585046e-003
3.660230e+003, 5.815086e-003
3.662158e+003, 5.051481e-003
3.664087e+003, 6.411614e-003
3.666015e+003, 6.755867e-003
3.667944e+003, 5.596111e-003
3.669872e+003, 6.326262e-003
3.671801e+003, 6.157411e-003
3.673729e+003, 5.206529e-003
3.675657e+003, 6.264147e-003
3.677586e+003, 7.373194e-003
3.679514e+003, 7.322417e-003
3.681443e+003, 7.601595e-003
3.683371e+003, 6.891164e-003
3.685300e+003, 6.943337e-003
3.687228e+003, 6.442895e-003
3.689157e+003, 4.751410e-003
3.691085e+003, 4.495101e-003
3.693014e+003, 4.375738e-003
3.694942e+003, 4.273199e-003
3.696871e+003, 4.477557e-003
3.698799e+003, 5.326058e-003
3.700728e+003, 6.193389e-003
3.702656e+003, 5.730187e-003
3.704584e+003, 4.864491e-003
3.706513e+003, 6.419830e-003
3.708441e+003, 6.090032e-003
3.710370e+003, 5.326464e-003
3.712298e+003, 5.211349e-003
3.714227e+003, 5.781547e-003
3.716155e+003, 6.771900e-003
3.718084e+003, 5.668139e-003
3.720012e+003, 4.056465e-003
3.721941e+003, 5.914909e-003
3.723869e+003, 6.960587e-003
3.725798e+003, 5.884767e-003
3.727726e+003, 5.530183e-003
3.729655e+003, 5.383762e-003
3.731583e+003, 5.201485e-003
3.733511e+003, 4.829868e-003
3.735440e+003, 3.641970e-003
3.737368e+003, 4.650185e-003
3.739297e+003, 5.411428e-003
3.741225e+003, 6.574897e-003
3.743154e+003, 6.903548e-003
3.745082e+003, 5.484621e-003
3.747011e+003, 4.113912e-003
3.748939e+003, 4.019519e-003
3.750868e+003, 3.318312e-003
3.752796e+003, 5.702375e-003
3.754725e+003, 7.619259e-003
3.756653e+003, 5.111402e-003
3.758582e+003, 4.624279e-003
3.760510e+003, 5.529480e-003
3.762438e+003, 5.547196e-003
3.764367e+003, 5.377304e-003
3.766295e+003, 6.754743e-003
3.768224e+003, 6.554119e-003
3.770152e+003, 4.826061e-003
3.772081e+003, 4.853972e-003
3.774009e+003, 5.860057e-003
3.775938e+003, 5.267069e-003
3.777866e+003, 3.232384e-003
3.779795e+003, 3.918878e-003
3.781723e+003, 6.220590e-003
3.783652e+003, 7.554681e-003
3.785580e+003, 7.543609e-003
3.787509e+003, 6.261236e-003
3.789437e+003, 4.792642e-003
3.791365e+003, 5.565020e-003
3.793294e+003, 6.306575e-003
3.795222e+003, 5.802338e-003
3.797151e+003, 5.163360e-003
3.799079e+003, 5.722060e-003
3.801008e+003, 7.148109e-003
3.802936e+003, 4.254585e-003
3.804865e+003, 3.085303e-003
3.806793e+003, 5.675017e-003
3.808722e+003, 7.665417e-003
3.810650e+003, 8.617166e-003
3.812579e+003, 9.486857e-003
3.814507e+003, 7.194875e-003
3.816436e+003, 6.711921e-003
3.818364e+003, 9.574760e-003
3.820292e+003, 8.596434e-003
3.822221e+003, 7.415680e-003
3.824149e+003, 7.486388e-003
3.826078e+003, 7.987689e-003
3.828006e+003, 7.718544e-003
3.829935e+003, 6.103554e-003
3.831863e+003, 5.490751e-003
3.833792e+003, 5.838036e-003
3.835720e+003, 6.222097e-003
3.837649e+003, 6.485051e-003
3.839577e+003, 8.317568e-003
3.841506e+003, 8.384246e-003
3.843434e+003, 6.872392e-003
3.845363e+003, 5.838185e-003
3.847291e+003, 6.926572e-003
3.849219e+003, 7.851876e-003
3.851148e+003, 7.947613e-003
3.853076e+003, 7.075843e-003
3.855005e+003, 6.474454e-003
3.856933e+003, 6.534696e-003
3.858862e+003, 6.822418e-003
3.860790e+003, 5.313985e-003
3.862719e+003, 4.077564e-003
3.864647e+003, 2.913668e-003
3.866576e+003, 2.963777e-003
3.868504e+003, 5.722981e-003
3.870433e+003, 5.898589e-003
3.872361e+003, 4.702524e-003
3.874290e+003, 4.632490e-003
3.876218e+003, 4.844784e-003
3.878146e+003, 5.848804e-003
3.880075e+003, 4.493505e-003
3.882003e+003, 4.744951e-003
3.883932e+003, 6.049504e-003
3.885860e+003, 7.339185e-003
3.887789e+003, 7.370011e-003
3.889717e+003, 5.555561e-003
3.891646e+003, 6.102494e-003
3.893574e+003, 6.681502e-003
3.895503e+003, 6.921030e-003
3.897431e+003, 6.046205e-003
3.899360e+003, 5.408751e-003
3.901288e+003, 7.739823e-003
3.903217e+003, 8.838716e-003
3.905145e+003, 7.694792e-003
3.907073e+003, 6.878296e-003
3.909002e+003, 3.946005e-003
3.910930e+003, 3.563328e-003
3.912859e+003, 5.347056e-003
3.914787e+003, 5.462962e-003
3.916716e+003, 5.800613e-003
3.918644e+003, 4.585118e-003
3.920573e+003, 4.175329e-003
3.922501e+003, 5.351397e-003
3.924430e+003, 5.732358e-003
3.926358e+003, 4.645672e-003
3.928287e+003, 4.409938e-003
3.930215e+003, 5.123442e-003
3.932144e+003, 4.452600e-003
3.934072e+003, 4.302447e-003
3.936000e+003, 2.293850e-003
3.937929e+003, 7.865988e-004
3.939857e+003, 2.731506e-003
3.941786e+003, 6.500953e-003
3.943714e+003, 7.449850e-003
3.945643e+003, 7.435885e-003
3.947571e+003, 6.907570e-003
3.949500e+003, 5.535799e-003
3.951428e+003, 5.403150e-003
3.953357e+003, 5.223162e-003
3.955285e+003, 4.005332e-003
3.957214e+003, 4.682345e-003
3.959142e+003, 5.095571e-003
3.961071e+003, 5.777732e-003
3.962999e+003, 6.383515e-003
3.964927e+003, 4.614992e-003
3.966856e+003, 3.933650e-003
3.968784e+003, 6.947850e-003
3.970713e+003, 8.712455e-003
3.972641e+003, 7.631706e-003
3.974570e+003, 6.700302e-003
3.976498e+003, 7.443661e-003
3.978427e+003, 7.482269e-003
3.980355e+003, 6.127411e-003
3.982284e+003, 6.240113e-003
3.984212e+003, 6.679115e-003
3.986141e+003, 6.304894e-003
3.988069e+003, 8.360201e-003
3.989998e+003, 8.958580e-003
3.991926e+003, 6.788110e-003
3.993854e+003, 4.922678e-003
3.995783e+003, 2.073875e-003
3.997711e+003, 1.494989e-003
3.999640e+003, 1.496066e-003
##END=



