##NAMES=Elbaite
##RRUFFID=R070077
##IDEAL CHEMISTRY=Na(Al_1.5_Li_1.5_)Al_6_(Si_6_O_18_)(BO_3_)_3_(OH)_3_OH
##LOCALITY=Canary mine, Lundazi area of eastern Zambia
##OWNER=RRUFF
##SOURCE=Tommy Wu
##DESCRIPTION=Green crystal fragments
##STATUS=The identification of this mineral has been made only by X-ray diffraction.
##URL=rruff.info/R070077
3.741225e+002, 2.127755e-001
3.760510e+002, 2.101695e-001
3.779795e+002, 2.017759e-001
3.799079e+002, 2.038143e-001
3.818364e+002, 2.115857e-001
3.837649e+002, 2.141102e-001
3.856933e+002, 2.110316e-001
3.876218e+002, 2.004176e-001
3.895503e+002, 1.982168e-001
3.914787e+002, 2.025610e-001
3.934072e+002, 2.020323e-001
3.953357e+002, 2.027954e-001
3.972641e+002, 2.072721e-001
3.991926e+002, 2.103107e-001
4.011211e+002, 2.087392e-001
4.030495e+002, 2.073780e-001
4.049780e+002, 2.075027e-001
4.069065e+002, 2.106280e-001
4.088349e+002, 2.088084e-001
4.107634e+002, 2.087412e-001
4.126919e+002, 2.115739e-001
4.146203e+002, 2.140088e-001
4.165488e+002, 2.169151e-001
4.184773e+002, 2.185225e-001
4.204057e+002, 2.213518e-001
4.223342e+002, 2.236468e-001
4.242627e+002, 2.243145e-001
4.261911e+002, 2.223390e-001
4.281196e+002, 2.222561e-001
4.300481e+002, 2.234820e-001
4.319765e+002, 2.241039e-001
4.339050e+002, 2.237925e-001
4.358335e+002, 2.242690e-001
4.377619e+002, 2.269584e-001
4.396904e+002, 2.291921e-001
4.416189e+002, 2.301625e-001
4.435473e+002, 2.305028e-001
4.454758e+002, 2.310409e-001
4.474043e+002, 2.314953e-001
4.493327e+002, 2.307739e-001
4.512612e+002, 2.309237e-001
4.531897e+002, 2.288508e-001
4.551181e+002, 2.261378e-001
4.570466e+002, 2.253305e-001
4.589751e+002, 2.247816e-001
4.609035e+002, 2.231805e-001
4.628320e+002, 2.230586e-001
4.647605e+002, 2.226219e-001
4.666889e+002, 2.225654e-001
4.686174e+002, 2.226692e-001
4.705459e+002, 2.223331e-001
4.724743e+002, 2.218223e-001
4.744028e+002, 2.216895e-001
4.763313e+002, 2.224713e-001
4.782597e+002, 2.237556e-001
4.801882e+002, 2.243623e-001
4.821167e+002, 2.247034e-001
4.840451e+002, 2.250358e-001
4.859736e+002, 2.259221e-001
4.879021e+002, 2.272342e-001
4.898305e+002, 2.291173e-001
4.917590e+002, 2.300779e-001
4.936875e+002, 2.293334e-001
4.956159e+002, 2.293974e-001
4.975444e+002, 2.300861e-001
4.994729e+002, 2.302855e-001
5.014013e+002, 2.295714e-001
5.033298e+002, 2.278407e-001
5.052583e+002, 2.252610e-001
5.071867e+002, 2.229715e-001
5.091152e+002, 2.206515e-001
5.110437e+002, 2.180347e-001
5.129721e+002, 2.150315e-001
5.149006e+002, 2.114751e-001
5.168290e+002, 2.085147e-001
5.187575e+002, 2.054688e-001
5.206860e+002, 2.018604e-001
5.226144e+002, 1.991080e-001
5.245429e+002, 1.961501e-001
5.264714e+002, 1.923187e-001
5.283998e+002, 1.890054e-001
5.303283e+002, 1.862797e-001
5.322568e+002, 1.832476e-001
5.341852e+002, 1.806884e-001
5.361137e+002, 1.785545e-001
5.380422e+002, 1.761815e-001
5.399706e+002, 1.748121e-001
5.418991e+002, 1.742792e-001
5.438276e+002, 1.731522e-001
5.457560e+002, 1.719117e-001
5.476845e+002, 1.711643e-001
5.496130e+002, 1.702616e-001
5.515414e+002, 1.689011e-001
5.534699e+002, 1.671044e-001
5.553984e+002, 1.654257e-001
5.573268e+002, 1.637046e-001
5.592553e+002, 1.616855e-001
5.611838e+002, 1.594041e-001
5.631122e+002, 1.572046e-001
5.650407e+002, 1.556576e-001
5.669692e+002, 1.545267e-001
5.688976e+002, 1.529317e-001
5.708261e+002, 1.521474e-001
5.727546e+002, 1.521994e-001
5.746830e+002, 1.522949e-001
5.766115e+002, 1.524744e-001
5.785400e+002, 1.528961e-001
5.804684e+002, 1.532752e-001
5.823969e+002, 1.533354e-001
5.843254e+002, 1.527915e-001
5.862538e+002, 1.518291e-001
5.881823e+002, 1.503844e-001
5.901108e+002, 1.485527e-001
5.920392e+002, 1.463434e-001
5.939677e+002, 1.438889e-001
5.958962e+002, 1.413647e-001
5.978246e+002, 1.393308e-001
5.997531e+002, 1.374714e-001
6.016816e+002, 1.360878e-001
6.036100e+002, 1.354460e-001
6.055385e+002, 1.349145e-001
6.074670e+002, 1.344936e-001
6.093954e+002, 1.343081e-001
6.113239e+002, 1.349275e-001
6.132524e+002, 1.361339e-001
6.151808e+002, 1.376229e-001
6.171093e+002, 1.389187e-001
6.190378e+002, 1.396062e-001
6.209662e+002, 1.399917e-001
6.228947e+002, 1.393161e-001
6.248232e+002, 1.373784e-001
6.267516e+002, 1.348277e-001
6.286801e+002, 1.320128e-001
6.306086e+002, 1.292447e-001
6.325370e+002, 1.265227e-001
6.344655e+002, 1.241096e-001
6.363940e+002, 1.216988e-001
6.383224e+002, 1.194643e-001
6.402509e+002, 1.177437e-001
6.421794e+002, 1.165560e-001
6.441078e+002, 1.159470e-001
6.460363e+002, 1.154745e-001
6.479648e+002, 1.150807e-001
6.498932e+002, 1.148633e-001
6.518217e+002, 1.145718e-001
6.537502e+002, 1.139443e-001
6.556786e+002, 1.133982e-001
6.576071e+002, 1.126150e-001
6.595356e+002, 1.112312e-001
6.614641e+002, 1.093487e-001
6.633925e+002, 1.070589e-001
6.653210e+002, 1.046647e-001
6.672495e+002, 1.024587e-001
6.691779e+002, 1.007097e-001
6.711064e+002, 9.926373e-002
6.730349e+002, 9.819181e-002
6.749633e+002, 9.750213e-002
6.768918e+002, 9.679092e-002
6.788203e+002, 9.617482e-002
6.807487e+002, 9.585202e-002
6.826772e+002, 9.597909e-002
6.846057e+002, 9.657131e-002
6.865341e+002, 9.756715e-002
6.884626e+002, 9.892965e-002
6.903911e+002, 1.006955e-001
6.923195e+002, 1.027960e-001
6.942480e+002, 1.052600e-001
6.961765e+002, 1.079739e-001
6.981049e+002, 1.104458e-001
7.000334e+002, 1.127978e-001
7.019619e+002, 1.150756e-001
7.038903e+002, 1.172569e-001
7.058188e+002, 1.186793e-001
7.077473e+002, 1.195893e-001
7.096757e+002, 1.201361e-001
7.116042e+002, 1.202242e-001
7.135327e+002, 1.196472e-001
7.154611e+002, 1.179206e-001
7.173896e+002, 1.152268e-001
7.193181e+002, 1.118330e-001
7.212465e+002, 1.077765e-001
7.231750e+002, 1.035395e-001
7.251035e+002, 9.918416e-002
7.270319e+002, 9.498809e-002
7.289604e+002, 9.132687e-002
7.308889e+002, 8.824865e-002
7.328173e+002, 8.583338e-002
7.347458e+002, 8.398364e-002
7.366743e+002, 8.268227e-002
7.386027e+002, 8.190748e-002
7.405312e+002, 8.199203e-002
7.424597e+002, 8.273775e-002
7.443881e+002, 8.433288e-002
7.463166e+002, 8.678062e-002
7.482451e+002, 8.931608e-002
7.501735e+002, 9.124272e-002
7.521020e+002, 9.174422e-002
7.540305e+002, 9.101888e-002
7.559589e+002, 9.003352e-002
7.578874e+002, 8.924042e-002
7.598159e+002, 8.895786e-002
7.617443e+002, 8.904107e-002
7.636728e+002, 8.922552e-002
7.656013e+002, 8.983016e-002
7.675297e+002, 9.129430e-002
7.694582e+002, 9.345458e-002
7.713867e+002, 9.619547e-002
7.733151e+002, 9.937005e-002
7.752436e+002, 1.024030e-001
7.771721e+002, 1.047295e-001
7.791005e+002, 1.059883e-001
7.810290e+002, 1.058238e-001
7.829575e+002, 1.045193e-001
7.848859e+002, 1.024880e-001
7.868144e+002, 9.983207e-002
7.887429e+002, 9.679355e-002
7.906713e+002, 9.338209e-002
7.925998e+002, 8.914380e-002
7.945283e+002, 8.435740e-002
7.964567e+002, 7.944358e-002
7.983852e+002, 7.448597e-002
8.003137e+002, 6.996479e-002
8.022421e+002, 6.639014e-002
8.041706e+002, 6.396008e-002
8.060991e+002, 6.239162e-002
8.080275e+002, 6.152676e-002
8.099560e+002, 6.117231e-002
8.118845e+002, 6.085710e-002
8.138129e+002, 6.075775e-002
8.157414e+002, 6.091150e-002
8.176699e+002, 6.115576e-002
8.195983e+002, 6.161773e-002
8.215268e+002, 6.231272e-002
8.234553e+002, 6.302652e-002
8.253837e+002, 6.376091e-002
8.273122e+002, 6.471159e-002
8.292407e+002, 6.576391e-002
8.311691e+002, 6.678957e-002
8.330976e+002, 6.777938e-002
8.350261e+002, 6.897803e-002
8.369545e+002, 7.027331e-002
8.388830e+002, 7.153426e-002
8.408115e+002, 7.279280e-002
8.427399e+002, 7.376260e-002
8.446684e+002, 7.454127e-002
8.465969e+002, 7.498766e-002
8.485253e+002, 7.485908e-002
8.504538e+002, 7.456060e-002
8.523823e+002, 7.408713e-002
8.543107e+002, 7.339352e-002
8.562392e+002, 7.265478e-002
8.581677e+002, 7.188219e-002
8.600961e+002, 7.084631e-002
8.620246e+002, 6.998672e-002
8.639531e+002, 6.951395e-002
8.658815e+002, 6.928147e-002
8.678100e+002, 6.913718e-002
8.697385e+002, 6.924272e-002
8.716669e+002, 6.980412e-002
8.735954e+002, 7.079118e-002
8.755239e+002, 7.192774e-002
8.774523e+002, 7.324725e-002
8.793808e+002, 7.469559e-002
8.813093e+002, 7.635043e-002
8.832377e+002, 7.792826e-002
8.851662e+002, 7.959479e-002
8.870947e+002, 8.128389e-002
8.890231e+002, 8.302957e-002
8.909516e+002, 8.492047e-002
8.928801e+002, 8.694290e-002
8.948085e+002, 8.905944e-002
8.967370e+002, 9.113601e-002
8.986655e+002, 9.332918e-002
9.005939e+002, 9.567549e-002
9.025224e+002, 9.802801e-002
9.044509e+002, 1.004864e-001
9.063793e+002, 1.032477e-001
9.083078e+002, 1.062679e-001
9.102363e+002, 1.094692e-001
9.121647e+002, 1.129043e-001
9.140932e+002, 1.165722e-001
9.160217e+002, 1.203679e-001
9.179501e+002, 1.241451e-001
9.198786e+002, 1.279465e-001
9.218071e+002, 1.318010e-001
9.237355e+002, 1.357127e-001
9.256640e+002, 1.394901e-001
9.275925e+002, 1.430050e-001
9.295209e+002, 1.463930e-001
9.314494e+002, 1.498426e-001
9.333779e+002, 1.534073e-001
9.353063e+002, 1.569152e-001
9.372348e+002, 1.604990e-001
9.391633e+002, 1.642721e-001
9.410917e+002, 1.680477e-001
9.430202e+002, 1.718474e-001
9.449487e+002, 1.754864e-001
9.468771e+002, 1.790159e-001
9.488056e+002, 1.824859e-001
9.507341e+002, 1.856318e-001
9.526625e+002, 1.883210e-001
9.545910e+002, 1.907619e-001
9.565195e+002, 1.930872e-001
9.584479e+002, 1.950880e-001
9.603764e+002, 1.965568e-001
9.623049e+002, 1.977081e-001
9.642333e+002, 1.988162e-001
9.661618e+002, 1.996657e-001
9.680903e+002, 2.002113e-001
9.700187e+002, 2.007361e-001
9.719472e+002, 2.010786e-001
9.738757e+002, 2.012705e-001
9.758041e+002, 2.011968e-001
9.777326e+002, 2.007267e-001
9.796611e+002, 2.000145e-001
9.815895e+002, 1.988194e-001
9.835180e+002, 1.971975e-001
9.854465e+002, 1.953600e-001
9.873749e+002, 1.932804e-001
9.893034e+002, 1.907471e-001
9.912319e+002, 1.880275e-001
9.931603e+002, 1.853110e-001
9.950888e+002, 1.823758e-001
9.970173e+002, 1.794877e-001
9.989457e+002, 1.765455e-001
1.000874e+003, 1.738673e-001
1.002803e+003, 1.717221e-001
1.004731e+003, 1.699139e-001
1.006660e+003, 1.685935e-001
1.008588e+003, 1.677307e-001
1.010517e+003, 1.672713e-001
1.012445e+003, 1.670546e-001
1.014373e+003, 1.669845e-001
1.016302e+003, 1.671328e-001
1.018230e+003, 1.669779e-001
1.020159e+003, 1.662368e-001
1.022087e+003, 1.649134e-001
1.024016e+003, 1.629881e-001
1.025944e+003, 1.605952e-001
1.027873e+003, 1.579112e-001
1.029801e+003, 1.547721e-001
1.031730e+003, 1.513835e-001
1.033658e+003, 1.481839e-001
1.035587e+003, 1.453290e-001
1.037515e+003, 1.427039e-001
1.039443e+003, 1.405491e-001
1.041372e+003, 1.389123e-001
1.043300e+003, 1.375421e-001
1.045229e+003, 1.360206e-001
1.047157e+003, 1.343981e-001
1.049086e+003, 1.328501e-001
1.051014e+003, 1.309204e-001
1.052943e+003, 1.286241e-001
1.054871e+003, 1.261390e-001
1.056800e+003, 1.231353e-001
1.058728e+003, 1.197838e-001
1.060657e+003, 1.158683e-001
1.062585e+003, 1.116071e-001
1.064514e+003, 1.074681e-001
1.066442e+003, 1.034303e-001
1.068370e+003, 9.976055e-002
1.070299e+003, 9.646046e-002
1.072227e+003, 9.378734e-002
1.074156e+003, 9.200745e-002
1.076084e+003, 9.099071e-002
1.078013e+003, 9.112244e-002
1.079941e+003, 9.248430e-002
1.081870e+003, 9.489650e-002
1.083798e+003, 9.809299e-002
1.085727e+003, 1.017559e-001
1.087655e+003, 1.054482e-001
1.089584e+003, 1.087076e-001
1.091512e+003, 1.112944e-001
1.093441e+003, 1.133970e-001
1.095369e+003, 1.149088e-001
1.097297e+003, 1.156166e-001
1.099226e+003, 1.153214e-001
1.101154e+003, 1.142614e-001
1.103083e+003, 1.124658e-001
1.105011e+003, 1.100578e-001
1.106940e+003, 1.071167e-001
1.108868e+003, 1.035188e-001
1.110797e+003, 9.955849e-002
1.112725e+003, 9.559139e-002
1.114654e+003, 9.140921e-002
1.116582e+003, 8.712984e-002
1.118511e+003, 8.276965e-002
1.120439e+003, 7.838025e-002
1.122368e+003, 7.392927e-002
1.124296e+003, 6.950623e-002
1.126224e+003, 6.528572e-002
1.128153e+003, 6.127081e-002
1.130081e+003, 5.754079e-002
1.132010e+003, 5.426250e-002
1.133938e+003, 5.129130e-002
1.135867e+003, 4.856446e-002
1.137795e+003, 4.629304e-002
1.139724e+003, 4.446834e-002
1.141652e+003, 4.272899e-002
1.143581e+003, 4.100031e-002
1.145509e+003, 3.949070e-002
1.147438e+003, 3.826446e-002
1.149366e+003, 3.718724e-002
1.151295e+003, 3.609748e-002
1.153223e+003, 3.509064e-002
1.155151e+003, 3.432877e-002
1.157080e+003, 3.373400e-002
1.159008e+003, 3.313893e-002
1.160937e+003, 3.265681e-002
1.162865e+003, 3.233485e-002
1.164794e+003, 3.202621e-002
1.166722e+003, 3.171883e-002
1.168651e+003, 3.153579e-002
1.170579e+003, 3.150127e-002
1.172508e+003, 3.147077e-002
1.174436e+003, 3.144394e-002
1.176365e+003, 3.154613e-002
1.178293e+003, 3.182893e-002
1.180222e+003, 3.197999e-002
1.182150e+003, 3.212572e-002
1.184078e+003, 3.229262e-002
1.186007e+003, 3.249269e-002
1.187935e+003, 3.281144e-002
1.189864e+003, 3.315013e-002
1.191792e+003, 3.350478e-002
1.193721e+003, 3.394371e-002
1.195649e+003, 3.436074e-002
1.197578e+003, 3.497671e-002
1.199506e+003, 3.585974e-002
1.201435e+003, 3.686658e-002
1.203363e+003, 3.799029e-002
1.205292e+003, 3.932850e-002
1.207220e+003, 4.098035e-002
1.209149e+003, 4.286832e-002
1.211077e+003, 4.500992e-002
1.213005e+003, 4.746490e-002
1.214934e+003, 5.028979e-002
1.216862e+003, 5.337759e-002
1.218791e+003, 5.632352e-002
1.220719e+003, 5.912993e-002
1.222648e+003, 6.162414e-002
1.224576e+003, 6.349777e-002
1.226505e+003, 6.474506e-002
1.228433e+003, 6.555726e-002
1.230362e+003, 6.597638e-002
1.232290e+003, 6.608509e-002
1.234219e+003, 6.586309e-002
1.236147e+003, 6.555881e-002
1.238076e+003, 6.554930e-002
1.240004e+003, 6.593013e-002
1.241932e+003, 6.657951e-002
1.243861e+003, 6.762994e-002
1.245789e+003, 6.901541e-002
1.247718e+003, 7.070881e-002
1.249646e+003, 7.262820e-002
1.251575e+003, 7.464272e-002
1.253503e+003, 7.661172e-002
1.255432e+003, 7.842866e-002
1.257360e+003, 8.005260e-002
1.259289e+003, 8.155012e-002
1.261217e+003, 8.303648e-002
1.263146e+003, 8.444487e-002
1.265074e+003, 8.570642e-002
1.267003e+003, 8.686571e-002
1.268931e+003, 8.806999e-002
1.270859e+003, 8.936563e-002
1.272788e+003, 9.080505e-002
1.274716e+003, 9.225553e-002
1.276645e+003, 9.362927e-002
1.278573e+003, 9.502254e-002
1.280502e+003, 9.630855e-002
1.282430e+003, 9.751070e-002
1.284359e+003, 9.847921e-002
1.286287e+003, 9.910700e-002
1.288216e+003, 9.945855e-002
1.290144e+003, 9.941925e-002
1.292073e+003, 9.902201e-002
1.294001e+003, 9.820282e-002
1.295930e+003, 9.693225e-002
1.297858e+003, 9.551436e-002
1.299786e+003, 9.394614e-002
1.301715e+003, 9.227721e-002
1.303643e+003, 9.061667e-002
1.305572e+003, 8.900835e-002
1.307500e+003, 8.732262e-002
1.309429e+003, 8.539198e-002
1.311357e+003, 8.352185e-002
1.313286e+003, 8.178671e-002
1.315214e+003, 7.999056e-002
1.317143e+003, 7.821746e-002
1.319071e+003, 7.662600e-002
1.321000e+003, 7.520813e-002
1.322928e+003, 7.390130e-002
1.324857e+003, 7.280021e-002
1.326785e+003, 7.198897e-002
1.328714e+003, 7.124083e-002
1.330642e+003, 7.055003e-002
1.332570e+003, 7.014198e-002
1.334499e+003, 6.980256e-002
1.336427e+003, 6.960548e-002
1.338356e+003, 6.953658e-002
1.340284e+003, 6.952886e-002
1.342213e+003, 6.948578e-002
1.344141e+003, 6.919000e-002
1.346070e+003, 6.846919e-002
1.347998e+003, 6.750074e-002
1.349927e+003, 6.634251e-002
1.351855e+003, 6.481549e-002
1.353784e+003, 6.289211e-002
1.355712e+003, 6.092626e-002
1.357641e+003, 5.899026e-002
1.359569e+003, 5.697647e-002
1.361497e+003, 5.488085e-002
1.363426e+003, 5.274421e-002
1.365354e+003, 5.073269e-002
1.367283e+003, 4.902955e-002
1.369211e+003, 4.760050e-002
1.371140e+003, 4.623162e-002
1.373068e+003, 4.487254e-002
1.374997e+003, 4.383458e-002
1.376925e+003, 4.298091e-002
1.378854e+003, 4.226642e-002
1.380782e+003, 4.197588e-002
1.382711e+003, 4.189835e-002
1.384639e+003, 4.185306e-002
1.386568e+003, 4.171152e-002
1.388496e+003, 4.136432e-002
1.390424e+003, 4.070890e-002
1.392353e+003, 3.981101e-002
1.394281e+003, 3.843368e-002
1.396210e+003, 3.679868e-002
1.398138e+003, 3.524972e-002
1.400067e+003, 3.370378e-002
1.401995e+003, 3.229838e-002
1.403924e+003, 3.114782e-002
1.405852e+003, 3.004209e-002
1.407781e+003, 2.898985e-002
1.409709e+003, 2.801157e-002
1.411638e+003, 2.711503e-002
1.413566e+003, 2.622413e-002
1.415495e+003, 2.549903e-002
1.417423e+003, 2.483406e-002
1.419351e+003, 2.438700e-002
1.421280e+003, 2.411174e-002
1.423208e+003, 2.387519e-002
1.425137e+003, 2.377855e-002
1.427065e+003, 2.369944e-002
1.428994e+003, 2.369370e-002
1.430922e+003, 2.377037e-002
1.432851e+003, 2.368829e-002
1.434779e+003, 2.338660e-002
1.436708e+003, 2.299924e-002
1.438636e+003, 2.248128e-002
1.440565e+003, 2.180427e-002
1.442493e+003, 2.102068e-002
1.444422e+003, 2.026964e-002
1.446350e+003, 1.962072e-002
1.448278e+003, 1.903789e-002
1.450207e+003, 1.851263e-002
1.452135e+003, 1.800196e-002
1.454064e+003, 1.747889e-002
1.455992e+003, 1.707231e-002
1.457921e+003, 1.666857e-002
1.459849e+003, 1.635936e-002
1.461778e+003, 1.618191e-002
1.463706e+003, 1.595639e-002
1.465635e+003, 1.574316e-002
1.467563e+003, 1.555070e-002
1.469492e+003, 1.539923e-002
1.471420e+003, 1.526930e-002
1.473349e+003, 1.524891e-002
1.475277e+003, 1.528730e-002
1.477205e+003, 1.528196e-002
1.479134e+003, 1.527547e-002
1.481062e+003, 1.511833e-002
1.482991e+003, 1.498619e-002
1.484919e+003, 1.490509e-002
1.486848e+003, 1.480232e-002
1.488776e+003, 1.477932e-002
1.490705e+003, 1.476352e-002
1.492633e+003, 1.467574e-002
1.494562e+003, 1.453996e-002
1.496490e+003, 1.456588e-002
1.498419e+003, 1.461433e-002
1.500347e+003, 1.452713e-002
1.502276e+003, 1.448358e-002
1.504204e+003, 1.436105e-002
1.506132e+003, 1.420953e-002
1.508061e+003, 1.420980e-002
1.509989e+003, 1.419932e-002
1.511918e+003, 1.412441e-002
1.513846e+003, 1.392956e-002
1.515775e+003, 1.383778e-002
1.517703e+003, 1.390294e-002
1.519632e+003, 1.388699e-002
1.521560e+003, 1.373829e-002
1.523489e+003, 1.358400e-002
1.525417e+003, 1.348608e-002
1.527346e+003, 1.347693e-002
1.529274e+003, 1.360224e-002
1.531203e+003, 1.369050e-002
1.533131e+003, 1.360593e-002
1.535059e+003, 1.348013e-002
1.536988e+003, 1.340554e-002
1.538916e+003, 1.335967e-002
1.540845e+003, 1.333927e-002
1.542773e+003, 1.332824e-002
1.544702e+003, 1.336224e-002
1.546630e+003, 1.351202e-002
1.548559e+003, 1.361179e-002
1.550487e+003, 1.359630e-002
1.552416e+003, 1.352255e-002
1.554344e+003, 1.348119e-002
1.556273e+003, 1.342474e-002
1.558201e+003, 1.345078e-002
1.560130e+003, 1.352644e-002
1.562058e+003, 1.359434e-002
1.563986e+003, 1.358694e-002
1.565915e+003, 1.352760e-002
1.567843e+003, 1.344480e-002
1.569772e+003, 1.353647e-002
1.571700e+003, 1.366862e-002
1.573629e+003, 1.364522e-002
1.575557e+003, 1.357311e-002
1.577486e+003, 1.358199e-002
1.579414e+003, 1.359931e-002
1.581343e+003, 1.353983e-002
1.583271e+003, 1.355715e-002
1.585200e+003, 1.367419e-002
1.587128e+003, 1.373348e-002
1.589057e+003, 1.379284e-002
1.590985e+003, 1.388665e-002
1.592913e+003, 1.393467e-002
1.594842e+003, 1.398387e-002
1.596770e+003, 1.398324e-002
1.598699e+003, 1.388738e-002
1.600627e+003, 1.391486e-002
1.602556e+003, 1.414582e-002
1.604484e+003, 1.428817e-002
1.606413e+003, 1.430512e-002
1.608341e+003, 1.435613e-002
1.610270e+003, 1.444843e-002
1.612198e+003, 1.456997e-002
1.614127e+003, 1.467222e-002
1.616055e+003, 1.468302e-002
1.617984e+003, 1.468682e-002
1.619912e+003, 1.481328e-002
1.621840e+003, 1.498290e-002
1.623769e+003, 1.495845e-002
1.625697e+003, 1.496167e-002
1.627626e+003, 1.512541e-002
1.629554e+003, 1.519542e-002
1.631483e+003, 1.529801e-002
1.633411e+003, 1.531801e-002
1.635340e+003, 1.518735e-002
1.637268e+003, 1.520356e-002
1.639197e+003, 1.518005e-002
1.641125e+003, 1.495364e-002
1.643054e+003, 1.477745e-002
1.644982e+003, 1.472164e-002
1.646911e+003, 1.459801e-002
1.648839e+003, 1.445636e-002
1.650767e+003, 1.430307e-002
1.652696e+003, 1.414797e-002
1.654624e+003, 1.406640e-002
1.656553e+003, 1.404504e-002
1.658481e+003, 1.390713e-002
1.660410e+003, 1.371929e-002
1.662338e+003, 1.362933e-002
1.664267e+003, 1.354362e-002
1.666195e+003, 1.336288e-002
1.668124e+003, 1.320931e-002
1.670052e+003, 1.304504e-002
1.671981e+003, 1.282761e-002
1.673909e+003, 1.258175e-002
1.675838e+003, 1.249265e-002
1.677766e+003, 1.244603e-002
1.679694e+003, 1.227472e-002
1.681623e+003, 1.207709e-002
1.683551e+003, 1.174708e-002
1.685480e+003, 1.151710e-002
1.687408e+003, 1.152774e-002
1.689337e+003, 1.144094e-002
1.691265e+003, 1.131183e-002
1.693194e+003, 1.104832e-002
1.695122e+003, 1.082863e-002
1.697051e+003, 1.082966e-002
1.698979e+003, 1.081771e-002
1.700908e+003, 1.055502e-002
1.702836e+003, 1.028404e-002
1.704765e+003, 1.011923e-002
1.706693e+003, 9.930004e-003
1.708621e+003, 9.915370e-003
1.710550e+003, 9.819218e-003
1.712478e+003, 9.682510e-003
1.714407e+003, 9.623651e-003
1.716335e+003, 9.400803e-003
1.718264e+003, 9.242967e-003
1.720192e+003, 9.132965e-003
1.722121e+003, 8.946558e-003
1.724049e+003, 8.730247e-003
1.725978e+003, 8.683858e-003
1.727906e+003, 8.504387e-003
1.729835e+003, 8.176116e-003
1.731763e+003, 7.888758e-003
1.733692e+003, 7.791398e-003
1.735620e+003, 7.665803e-003
1.737548e+003, 7.497169e-003
1.739477e+003, 7.393825e-003
1.741405e+003, 7.299390e-003
1.743334e+003, 7.367832e-003
1.745262e+003, 7.407242e-003
1.747191e+003, 7.375864e-003
1.749119e+003, 7.280035e-003
1.751048e+003, 7.415644e-003
1.752976e+003, 7.531966e-003
1.754905e+003, 7.505819e-003
1.756833e+003, 7.665950e-003
1.758762e+003, 7.789643e-003
1.760690e+003, 7.688065e-003
1.762619e+003, 7.542563e-003
1.764547e+003, 7.602015e-003
1.766475e+003, 7.699231e-003
1.768404e+003, 7.634370e-003
1.770332e+003, 7.430527e-003
1.772261e+003, 7.378841e-003
1.774189e+003, 7.457087e-003
1.776118e+003, 7.510790e-003
1.778046e+003, 7.408191e-003
1.779975e+003, 7.253961e-003
1.781903e+003, 7.205493e-003
1.783832e+003, 7.256391e-003
1.785760e+003, 7.366484e-003
1.787689e+003, 7.346188e-003
1.789617e+003, 7.251156e-003
1.791546e+003, 7.252622e-003
1.793474e+003, 7.218568e-003
1.795402e+003, 7.150121e-003
1.797331e+003, 7.048619e-003
1.799259e+003, 7.089986e-003
1.801188e+003, 7.257136e-003
1.803116e+003, 7.260416e-003
1.805045e+003, 6.951801e-003
1.806973e+003, 6.744876e-003
1.808902e+003, 6.841744e-003
1.810830e+003, 6.974805e-003
1.812759e+003, 6.854153e-003
1.814687e+003, 6.539079e-003
1.816616e+003, 6.415094e-003
1.818544e+003, 6.518945e-003
1.820473e+003, 6.563653e-003
1.822401e+003, 6.747295e-003
1.824329e+003, 6.928300e-003
1.826258e+003, 6.837479e-003
1.828186e+003, 6.656650e-003
1.830115e+003, 6.629894e-003
1.832043e+003, 6.564319e-003
1.833972e+003, 6.453407e-003
1.835900e+003, 6.414685e-003
1.837829e+003, 6.443445e-003
1.839757e+003, 6.419620e-003
1.841686e+003, 6.471558e-003
1.843614e+003, 6.393374e-003
1.845543e+003, 6.357342e-003
1.847471e+003, 6.231628e-003
1.849400e+003, 6.048278e-003
1.851328e+003, 6.003989e-003
1.853256e+003, 5.905183e-003
1.855185e+003, 5.760164e-003
1.857113e+003, 5.648009e-003
1.859042e+003, 5.915495e-003
1.860970e+003, 6.099422e-003
1.862899e+003, 5.778959e-003
1.864827e+003, 5.579053e-003
1.866756e+003, 5.448162e-003
1.868684e+003, 5.371870e-003
1.870613e+003, 5.443957e-003
1.872541e+003, 5.506893e-003
1.874470e+003, 5.523581e-003
1.876398e+003, 5.524832e-003
1.878327e+003, 5.434184e-003
1.880255e+003, 5.246405e-003
1.882183e+003, 4.964130e-003
1.884112e+003, 4.844756e-003
1.886040e+003, 5.071907e-003
1.887969e+003, 5.246992e-003
1.889897e+003, 5.360868e-003
1.891826e+003, 5.303663e-003
1.893754e+003, 5.291008e-003
1.895683e+003, 5.216733e-003
1.897611e+003, 5.024152e-003
1.899540e+003, 4.883701e-003
1.901468e+003, 4.835846e-003
1.903397e+003, 4.725993e-003
1.905325e+003, 4.522207e-003
1.907254e+003, 4.665758e-003
1.909182e+003, 4.814387e-003
1.911110e+003, 4.854144e-003
1.913039e+003, 4.703664e-003
1.914967e+003, 4.537600e-003
1.916896e+003, 4.537127e-003
1.918824e+003, 4.342066e-003
1.920753e+003, 4.439472e-003
1.922681e+003, 4.847944e-003
1.924610e+003, 4.353440e-003
1.926538e+003, 3.976636e-003
1.928467e+003, 4.053312e-003
1.930395e+003, 3.955022e-003
1.932324e+003, 3.922570e-003
1.934252e+003, 3.782559e-003
1.936181e+003, 3.621786e-003
1.938109e+003, 3.678299e-003
1.940037e+003, 3.785457e-003
1.941966e+003, 3.777594e-003
1.943894e+003, 3.914891e-003
1.945823e+003, 3.753874e-003
1.947751e+003, 3.151105e-003
1.949680e+003, 2.864579e-003
1.951608e+003, 3.157202e-003
1.953537e+003, 2.958789e-003
1.955465e+003, 2.450293e-003
1.957394e+003, 2.327215e-003
1.959322e+003, 2.751502e-003
1.961251e+003, 3.214216e-003
1.963179e+003, 2.720259e-003
1.965108e+003, 2.220714e-003
1.967036e+003, 1.904839e-003
1.968964e+003, 2.044730e-003
1.970893e+003, 2.403765e-003
1.972821e+003, 2.015623e-003
1.974750e+003, 2.294780e-003
1.976678e+003, 3.548745e-003
1.978607e+003, 4.549059e-003
1.980535e+003, 4.918818e-003
1.982464e+003, 4.362985e-003
1.984392e+003, 3.440414e-003
1.986321e+003, 3.190286e-003
1.988249e+003, 2.982992e-003
1.990178e+003, 2.676102e-003
1.992106e+003, 3.092718e-003
1.994035e+003, 3.387285e-003
1.995963e+003, 3.443422e-003
1.997891e+003, 3.435062e-003
1.999820e+003, 2.775814e-003
2.001748e+003, 1.961732e-003
2.003677e+003, 1.921169e-003
2.005605e+003, 2.081211e-003
2.007534e+003, 2.129253e-003
2.009462e+003, 2.829296e-003
2.011391e+003, 2.802743e-003
2.013319e+003, 2.714187e-003
2.015248e+003, 2.561058e-003
2.017176e+003, 2.316051e-003
2.019105e+003, 2.092117e-003
2.021033e+003, 1.732881e-003
2.022962e+003, 1.085827e-003
2.024890e+003, 5.304708e-004
2.026818e+003, 2.297079e-004
2.028747e+003, 1.028258e-003
2.030675e+003, 1.434895e-003
2.032604e+003, 1.352716e-003
2.034532e+003, 2.275385e-003
2.036461e+003, 2.830670e-003
2.038389e+003, 3.142932e-003
2.040318e+003, 2.900101e-003
2.042246e+003, 2.967059e-003
2.044175e+003, 2.146144e-003
2.046103e+003, 1.640157e-003
2.048031e+003, 2.466487e-003
2.049960e+003, 3.347242e-003
2.051888e+003, 2.392924e-003
2.053817e+003, 1.377686e-003
2.055745e+003, 1.469839e-003
2.057674e+003, 1.539407e-003
2.059602e+003, 1.296266e-003
2.061531e+003, 1.150461e-003
2.063459e+003, 1.300072e-003
2.065388e+003, 1.767759e-003
2.067316e+003, 1.826229e-003
2.069245e+003, 1.462960e-003
2.071173e+003, 1.411890e-003
2.073102e+003, 1.741781e-003
2.075030e+003, 2.269936e-003
2.076958e+003, 2.080368e-003
2.078887e+003, 1.753995e-003
2.080815e+003, 1.890735e-003
2.082744e+003, 1.907728e-003
2.084672e+003, 2.221642e-003
2.086601e+003, 2.474774e-003
2.088529e+003, 2.156778e-003
2.090458e+003, 1.528555e-003
2.092386e+003, 1.048127e-003
2.094315e+003, 1.143908e-003
2.096243e+003, 1.638739e-003
2.098172e+003, 1.819328e-003
2.100100e+003, 2.105177e-003
2.102029e+003, 2.083368e-003
2.103957e+003, 1.802811e-003
2.105885e+003, 2.198655e-003
2.107814e+003, 2.457591e-003
2.109742e+003, 2.160975e-003
2.111671e+003, 1.731617e-003
2.113599e+003, 1.437065e-003
2.115528e+003, 1.608873e-003
2.117456e+003, 1.605883e-003
2.119385e+003, 1.589791e-003
2.121313e+003, 1.385389e-003
2.123242e+003, 9.351946e-004
2.125170e+003, 6.469475e-004
2.127099e+003, 8.636862e-004
2.129027e+003, 8.852900e-004
2.130956e+003, 3.291097e-004
2.132884e+003, 4.496449e-005
2.134813e+003, 8.281812e-005
2.136741e+003, 5.759694e-004
2.138669e+003, 6.985392e-004
2.140598e+003, 6.745116e-004
2.142526e+003, 1.130227e-003
2.144455e+003, 1.342899e-003
2.146383e+003, 9.387285e-004
2.148312e+003, 9.763470e-004
2.150240e+003, 1.131134e-003
2.152169e+003, 7.661763e-004
2.154097e+003, 3.890487e-004
2.156026e+003, -8.579172e-004
2.157954e+003, 6.461173e-004
2.159883e+003, 4.140594e-003
2.161811e+003, 4.679552e-003
2.163740e+003, 4.312532e-003
2.165668e+003, 4.170020e-003
2.167596e+003, 3.707954e-003
2.169525e+003, 2.906045e-003
2.171453e+003, 1.842117e-003
2.173382e+003, 1.368866e-003
2.175310e+003, 1.225279e-003
2.177239e+003, 1.371893e-003
2.179167e+003, 1.078796e-003
2.181096e+003, 9.587407e-004
2.183024e+003, 1.468642e-003
2.184953e+003, 2.405646e-003
2.186881e+003, 2.637138e-003
2.188810e+003, 1.920779e-003
2.190738e+003, 1.398292e-003
2.192667e+003, 1.507712e-003
2.194595e+003, 1.992873e-003
2.196523e+003, 2.006487e-003
2.198452e+003, 1.997860e-003
2.200380e+003, 2.461395e-003
2.202309e+003, 2.505433e-003
2.204237e+003, 1.395475e-003
2.206166e+003, 1.050297e-003
2.208094e+003, 1.089294e-003
2.210023e+003, 7.714076e-004
2.211951e+003, 2.506041e-004
2.213880e+003, 1.126118e-003
2.215808e+003, 2.135337e-003
2.217737e+003, 2.217237e-003
2.219665e+003, 2.178655e-003
2.221594e+003, 1.940115e-003
2.223522e+003, 1.684296e-003
2.225450e+003, 1.573514e-003
2.227379e+003, 1.574996e-003
2.229307e+003, 1.842607e-003
2.231236e+003, 2.088945e-003
2.233164e+003, 1.931777e-003
2.235093e+003, 1.820477e-003
2.237021e+003, 2.269845e-003
2.238950e+003, 2.654180e-003
2.240878e+003, 2.646486e-003
2.242807e+003, 2.670601e-003
2.244735e+003, 2.342756e-003
2.246664e+003, 1.924504e-003
2.248592e+003, 2.284414e-003
2.250521e+003, 2.633654e-003
2.252449e+003, 2.351106e-003
2.254377e+003, 2.258882e-003
2.256306e+003, 2.326797e-003
2.258234e+003, 2.723517e-003
2.260163e+003, 3.211532e-003
2.262091e+003, 3.032171e-003
2.264020e+003, 2.759779e-003
2.265948e+003, 2.933257e-003
2.267877e+003, 3.017885e-003
2.269805e+003, 3.512779e-003
2.271734e+003, 3.704849e-003
2.273662e+003, 3.052842e-003
2.275591e+003, 2.787553e-003
2.277519e+003, 2.839284e-003
2.279448e+003, 3.227181e-003
2.281376e+003, 3.677164e-003
2.283304e+003, 3.739527e-003
2.285233e+003, 3.962221e-003
2.287161e+003, 3.972240e-003
2.289090e+003, 3.703354e-003
2.291018e+003, 3.367186e-003
2.292947e+003, 3.027756e-003
2.294875e+003, 2.707401e-003
2.296804e+003, 2.651362e-003
2.298732e+003, 2.745713e-003
2.300661e+003, 2.926918e-003
2.302589e+003, 3.001291e-003
2.304518e+003, 2.677160e-003
2.306446e+003, 2.723474e-003
2.308375e+003, 3.075195e-003
2.310303e+003, 3.096266e-003
2.312231e+003, 3.238220e-003
2.314160e+003, 3.545199e-003
2.316088e+003, 3.423273e-003
2.318017e+003, 3.146532e-003
2.319945e+003, 3.248470e-003
2.321874e+003, 3.883305e-003
2.323802e+003, 4.199798e-003
2.325731e+003, 3.389713e-003
2.327659e+003, 2.529806e-003
2.329588e+003, 2.268751e-003
2.331516e+003, 2.157558e-003
2.333445e+003, 2.278442e-003
2.335373e+003, 2.460165e-003
2.337302e+003, 2.559448e-003
2.339230e+003, 2.521699e-003
2.341158e+003, 2.519184e-003
2.343087e+003, 2.419668e-003
2.345015e+003, 2.231734e-003
2.346944e+003, 2.352543e-003
2.348872e+003, 2.576200e-003
2.350801e+003, 2.608689e-003
2.352729e+003, 2.571546e-003
2.354658e+003, 2.675117e-003
2.356586e+003, 2.707186e-003
2.358515e+003, 2.479013e-003
2.360443e+003, 2.260200e-003
2.362372e+003, 2.042321e-003
2.364300e+003, 2.206488e-003
2.366229e+003, 2.341626e-003
2.368157e+003, 2.232694e-003
2.370085e+003, 2.021835e-003
2.372014e+003, 1.936817e-003
2.373942e+003, 1.992536e-003
2.375871e+003, 2.002004e-003
2.377799e+003, 2.170483e-003
2.379728e+003, 2.722718e-003
2.381656e+003, 2.829351e-003
2.383585e+003, 2.612320e-003
2.385513e+003, 2.617451e-003
2.387442e+003, 2.482229e-003
2.389370e+003, 2.260287e-003
2.391299e+003, 2.372874e-003
2.393227e+003, 2.770625e-003
2.395156e+003, 2.876675e-003
2.397084e+003, 2.801113e-003
2.399012e+003, 2.755010e-003
2.400941e+003, 2.752737e-003
2.402869e+003, 2.618636e-003
2.404798e+003, 2.650113e-003
2.406726e+003, 2.960052e-003
2.408655e+003, 2.843741e-003
2.410583e+003, 2.738749e-003
2.412512e+003, 2.928136e-003
2.414440e+003, 2.987948e-003
2.416369e+003, 3.164092e-003
2.418297e+003, 3.055288e-003
2.420226e+003, 2.680986e-003
2.422154e+003, 2.442182e-003
2.424083e+003, 2.623679e-003
2.426011e+003, 2.690171e-003
2.427939e+003, 2.836728e-003
2.429868e+003, 2.877586e-003
2.431796e+003, 3.115795e-003
2.433725e+003, 2.999754e-003
2.435653e+003, 2.931403e-003
2.437582e+003, 2.663411e-003
2.439510e+003, 2.463430e-003
2.441439e+003, 2.807732e-003
2.443367e+003, 2.950158e-003
2.445296e+003, 2.951044e-003
2.447224e+003, 3.402510e-003
2.449153e+003, 3.154628e-003
2.451081e+003, 2.580597e-003
2.453010e+003, 2.504278e-003
2.454938e+003, 2.735705e-003
2.456866e+003, 2.740414e-003
2.458795e+003, 2.571958e-003
2.460723e+003, 2.282441e-003
2.462652e+003, 2.359127e-003
2.464580e+003, 2.680146e-003
2.466509e+003, 2.765544e-003
2.468437e+003, 2.699205e-003
2.470366e+003, 2.313293e-003
2.472294e+003, 2.053323e-003
2.474223e+003, 2.129172e-003
2.476151e+003, 2.481829e-003
2.478080e+003, 2.425319e-003
2.480008e+003, 2.204801e-003
2.481937e+003, 2.142380e-003
2.483865e+003, 2.325389e-003
2.485793e+003, 2.657983e-003
2.487722e+003, 2.627149e-003
2.489650e+003, 2.781928e-003
2.491579e+003, 2.639563e-003
2.493507e+003, 2.587222e-003
2.495436e+003, 2.188433e-003
2.497364e+003, 1.870838e-003
2.499293e+003, 2.058182e-003
2.501221e+003, 2.038109e-003
2.503150e+003, 1.807422e-003
2.505078e+003, 1.731075e-003
2.507007e+003, 1.769633e-003
2.508935e+003, 1.988757e-003
2.510864e+003, 1.990585e-003
2.512792e+003, 1.987128e-003
2.514720e+003, 2.105385e-003
2.516649e+003, 2.085232e-003
2.518577e+003, 2.217838e-003
2.520506e+003, 2.128377e-003
2.522434e+003, 1.766634e-003
2.524363e+003, 1.682538e-003
2.526291e+003, 1.620298e-003
2.528220e+003, 1.543299e-003
2.530148e+003, 1.755793e-003
2.532077e+003, 1.725902e-003
2.534005e+003, 1.684154e-003
2.535934e+003, 2.001612e-003
2.537862e+003, 2.058955e-003
2.539791e+003, 1.385797e-003
2.541719e+003, 9.051710e-004
2.543647e+003, 1.153118e-003
2.545576e+003, 1.123813e-003
2.547504e+003, 9.973086e-004
2.549433e+003, 1.052399e-003
2.551361e+003, 1.279389e-003
2.553290e+003, 1.070000e-003
2.555218e+003, 7.779940e-004
2.557147e+003, 1.072743e-003
2.559075e+003, 1.203165e-003
2.561004e+003, 1.058582e-003
2.562932e+003, 1.049208e-003
2.564861e+003, 1.236282e-003
2.566789e+003, 1.474310e-003
2.568718e+003, 1.617479e-003
2.570646e+003, 1.526524e-003
2.572574e+003, 1.330826e-003
2.574503e+003, 1.429435e-003
2.576431e+003, 1.358298e-003
2.578360e+003, 1.322091e-003
2.580288e+003, 1.448092e-003
2.582217e+003, 1.270477e-003
2.584145e+003, 1.442286e-003
2.586074e+003, 1.598855e-003
2.588002e+003, 1.374651e-003
2.589931e+003, 1.463133e-003
2.591859e+003, 1.644145e-003
2.593788e+003, 1.539177e-003
2.595716e+003, 1.318091e-003
2.597645e+003, 1.606123e-003
2.599573e+003, 1.841745e-003
2.601501e+003, 1.670251e-003
2.603430e+003, 1.806677e-003
2.605358e+003, 1.806669e-003
2.607287e+003, 1.719593e-003
2.609215e+003, 2.026155e-003
2.611144e+003, 2.219781e-003
2.613072e+003, 2.220869e-003
2.615001e+003, 2.130397e-003
2.616929e+003, 2.306314e-003
2.618858e+003, 2.568824e-003
2.620786e+003, 2.584056e-003
2.622715e+003, 2.585534e-003
2.624643e+003, 2.402157e-003
2.626572e+003, 2.394414e-003
2.628500e+003, 2.573131e-003
2.630428e+003, 2.429109e-003
2.632357e+003, 2.316912e-003
2.634285e+003, 2.593018e-003
2.636214e+003, 2.926166e-003
2.638142e+003, 2.947694e-003
2.640071e+003, 2.965280e-003
2.641999e+003, 2.987191e-003
2.643928e+003, 2.868647e-003
2.645856e+003, 2.751954e-003
2.647785e+003, 2.790777e-003
2.649713e+003, 2.900794e-003
2.651642e+003, 2.881045e-003
2.653570e+003, 2.917112e-003
2.655499e+003, 3.024425e-003
2.657427e+003, 3.070472e-003
2.659355e+003, 3.104833e-003
2.661284e+003, 2.984154e-003
2.663212e+003, 2.752408e-003
2.665141e+003, 2.429383e-003
2.667069e+003, 2.464255e-003
2.668998e+003, 2.536390e-003
2.670926e+003, 2.470478e-003
2.672855e+003, 2.517153e-003
2.674783e+003, 2.742193e-003
2.676712e+003, 2.964226e-003
2.678640e+003, 2.749658e-003
2.680569e+003, 2.658998e-003
2.682497e+003, 2.679380e-003
2.684426e+003, 2.597629e-003
2.686354e+003, 2.500745e-003
2.688282e+003, 2.565286e-003
2.690211e+003, 2.676906e-003
2.692139e+003, 2.861463e-003
2.694068e+003, 2.786694e-003
2.695996e+003, 2.740968e-003
2.697925e+003, 2.952000e-003
2.699853e+003, 3.190378e-003
2.701782e+003, 3.416888e-003
2.703710e+003, 3.432900e-003
2.705639e+003, 3.545234e-003
2.707567e+003, 3.503504e-003
2.709496e+003, 3.443153e-003
2.711424e+003, 3.581285e-003
2.713353e+003, 3.818613e-003
2.715281e+003, 4.050705e-003
2.717209e+003, 4.047472e-003
2.719138e+003, 3.867307e-003
2.721066e+003, 3.938135e-003
2.722995e+003, 4.117744e-003
2.724923e+003, 4.143426e-003
2.726852e+003, 4.225074e-003
2.728780e+003, 4.151125e-003
2.730709e+003, 4.098590e-003
2.732637e+003, 4.223632e-003
2.734566e+003, 4.562213e-003
2.736494e+003, 4.764653e-003
2.738423e+003, 4.759123e-003
2.740351e+003, 4.778867e-003
2.742280e+003, 4.785750e-003
2.744208e+003, 4.704314e-003
2.746136e+003, 4.999564e-003
2.748065e+003, 5.177642e-003
2.749993e+003, 5.162198e-003
2.751922e+003, 5.028365e-003
2.753850e+003, 4.981008e-003
2.755779e+003, 5.313776e-003
2.757707e+003, 5.587457e-003
2.759636e+003, 5.606148e-003
2.761564e+003, 5.475181e-003
2.763493e+003, 5.428033e-003
2.765421e+003, 5.435510e-003
2.767350e+003, 5.575238e-003
2.769278e+003, 5.703630e-003
2.771207e+003, 5.712800e-003
2.773135e+003, 5.618948e-003
2.775063e+003, 5.615124e-003
2.776992e+003, 5.890734e-003
2.778920e+003, 6.045297e-003
2.780849e+003, 6.038493e-003
2.782777e+003, 6.067519e-003
2.784706e+003, 6.241962e-003
2.786634e+003, 6.184494e-003
2.788563e+003, 6.376787e-003
2.790491e+003, 6.395064e-003
2.792420e+003, 6.343392e-003
2.794348e+003, 6.795274e-003
2.796277e+003, 7.086005e-003
2.798205e+003, 6.916367e-003
2.800134e+003, 6.800035e-003
2.802062e+003, 6.762257e-003
2.803990e+003, 6.887662e-003
2.805919e+003, 7.318660e-003
2.807847e+003, 7.669436e-003
2.809776e+003, 7.524061e-003
2.811704e+003, 7.476058e-003
2.813633e+003, 7.566262e-003
2.815561e+003, 7.691120e-003
2.817490e+003, 7.906713e-003
2.819418e+003, 7.780492e-003
2.821347e+003, 7.670705e-003
2.823275e+003, 7.710573e-003
2.825204e+003, 7.858929e-003
2.827132e+003, 8.233137e-003
2.829061e+003, 8.531555e-003
2.830989e+003, 8.572257e-003
2.832917e+003, 8.584613e-003
2.834846e+003, 8.676571e-003
2.836774e+003, 8.743274e-003
2.838703e+003, 8.725476e-003
2.840631e+003, 8.817961e-003
2.842560e+003, 8.918332e-003
2.844488e+003, 8.796467e-003
2.846417e+003, 8.912220e-003
2.848345e+003, 9.233471e-003
2.850274e+003, 9.322586e-003
2.852202e+003, 8.992026e-003
2.854131e+003, 8.744609e-003
2.856059e+003, 8.785313e-003
2.857988e+003, 8.685359e-003
2.859916e+003, 8.804151e-003
2.861844e+003, 8.707127e-003
2.863773e+003, 8.689340e-003
2.865701e+003, 8.784117e-003
2.867630e+003, 8.985029e-003
2.869558e+003, 9.255230e-003
2.871487e+003, 9.354834e-003
2.873415e+003, 9.299871e-003
2.875344e+003, 9.409470e-003
2.877272e+003, 9.454024e-003
2.879201e+003, 9.669595e-003
2.881129e+003, 1.008615e-002
2.883058e+003, 1.024359e-002
2.884986e+003, 1.021058e-002
2.886915e+003, 1.008788e-002
2.888843e+003, 1.002551e-002
2.890771e+003, 1.007343e-002
2.892700e+003, 1.013657e-002
2.894628e+003, 1.018209e-002
2.896557e+003, 1.042619e-002
2.898485e+003, 1.024370e-002
2.900414e+003, 1.049677e-002
2.902342e+003, 1.083893e-002
2.904271e+003, 1.067589e-002
2.906199e+003, 1.061833e-002
2.908128e+003, 1.098211e-002
2.910056e+003, 1.127363e-002
2.911985e+003, 1.138694e-002
2.913913e+003, 1.161886e-002
2.915842e+003, 1.124754e-002
2.917770e+003, 1.112117e-002
2.919698e+003, 1.137615e-002
2.921627e+003, 1.134600e-002
2.923555e+003, 1.111183e-002
2.925484e+003, 1.059173e-002
2.927412e+003, 1.059828e-002
2.929341e+003, 1.072464e-002
2.931269e+003, 1.058284e-002
2.933198e+003, 1.047836e-002
2.935126e+003, 1.049491e-002
2.937055e+003, 1.063818e-002
2.938983e+003, 1.077616e-002
2.940912e+003, 1.079149e-002
2.942840e+003, 1.099067e-002
2.944769e+003, 1.101452e-002
2.946697e+003, 1.093294e-002
2.948625e+003, 1.102841e-002
2.950554e+003, 1.125675e-002
2.952482e+003, 1.124008e-002
2.954411e+003, 1.105801e-002
2.956339e+003, 1.099758e-002
2.958268e+003, 1.105593e-002
2.960196e+003, 1.145882e-002
2.962125e+003, 1.170844e-002
2.964053e+003, 1.192563e-002
2.965982e+003, 1.223882e-002
2.967910e+003, 1.229541e-002
2.969839e+003, 1.234192e-002
2.971767e+003, 1.247958e-002
2.973696e+003, 1.263376e-002
2.975624e+003, 1.247271e-002
2.977552e+003, 1.239822e-002
2.979481e+003, 1.288333e-002
2.981409e+003, 1.319826e-002
2.983338e+003, 1.306492e-002
2.985266e+003, 1.297876e-002
2.987195e+003, 1.301677e-002
2.989123e+003, 1.296464e-002
2.991052e+003, 1.318196e-002
2.992980e+003, 1.334370e-002
2.994909e+003, 1.325828e-002
2.996837e+003, 1.352826e-002
2.998766e+003, 1.383097e-002
3.000694e+003, 1.385056e-002
3.002623e+003, 1.372906e-002
3.004551e+003, 1.327811e-002
3.006479e+003, 1.330192e-002
3.008408e+003, 1.369590e-002
3.010336e+003, 1.392969e-002
3.012265e+003, 1.413587e-002
3.014193e+003, 1.386666e-002
3.016122e+003, 1.383677e-002
3.018050e+003, 1.434671e-002
3.019979e+003, 1.428901e-002
3.021907e+003, 1.399095e-002
3.023836e+003, 1.412068e-002
3.025764e+003, 1.444130e-002
3.027693e+003, 1.473979e-002
3.029621e+003, 1.482284e-002
3.031550e+003, 1.458468e-002
3.033478e+003, 1.467694e-002
3.035406e+003, 1.457499e-002
3.037335e+003, 1.431219e-002
3.039263e+003, 1.471760e-002
3.041192e+003, 1.512510e-002
3.043120e+003, 1.509299e-002
3.045049e+003, 1.519632e-002
3.046977e+003, 1.530502e-002
3.048906e+003, 1.539731e-002
3.050834e+003, 1.532559e-002
3.052763e+003, 1.503752e-002
3.054691e+003, 1.510288e-002
3.056620e+003, 1.535046e-002
3.058548e+003, 1.547990e-002
3.060477e+003, 1.578830e-002
3.062405e+003, 1.570305e-002
3.064333e+003, 1.563618e-002
3.066262e+003, 1.552027e-002
3.068190e+003, 1.561638e-002
3.070119e+003, 1.568384e-002
3.072047e+003, 1.561208e-002
3.073976e+003, 1.572437e-002
3.075904e+003, 1.593052e-002
3.077833e+003, 1.613811e-002
3.079761e+003, 1.634652e-002
3.081690e+003, 1.652052e-002
3.083618e+003, 1.627395e-002
3.085547e+003, 1.616786e-002
3.087475e+003, 1.656561e-002
3.089404e+003, 1.668820e-002
3.091332e+003, 1.645368e-002
3.093260e+003, 1.645846e-002
3.095189e+003, 1.672038e-002
3.097117e+003, 1.693263e-002
3.099046e+003, 1.688994e-002
3.100974e+003, 1.670774e-002
3.102903e+003, 1.664154e-002
3.104831e+003, 1.650962e-002
3.106760e+003, 1.671294e-002
3.108688e+003, 1.699184e-002
3.110617e+003, 1.716061e-002
3.112545e+003, 1.715852e-002
3.114474e+003, 1.715650e-002
3.116402e+003, 1.714880e-002
3.118331e+003, 1.711551e-002
3.120259e+003, 1.681526e-002
3.122188e+003, 1.665166e-002
3.124116e+003, 1.690455e-002
3.126044e+003, 1.711723e-002
3.127973e+003, 1.705582e-002
3.129901e+003, 1.685036e-002
3.131830e+003, 1.706984e-002
3.133758e+003, 1.710862e-002
3.135687e+003, 1.692749e-002
3.137615e+003, 1.709653e-002
3.139544e+003, 1.721462e-002
3.141472e+003, 1.712624e-002
3.143401e+003, 1.742136e-002
3.145329e+003, 1.764496e-002
3.147258e+003, 1.710111e-002
3.149186e+003, 1.673260e-002
3.151115e+003, 1.682789e-002
3.153043e+003, 1.682779e-002
3.154971e+003, 1.669683e-002
3.156900e+003, 1.689719e-002
3.158828e+003, 1.672877e-002
3.160757e+003, 1.680212e-002
3.162685e+003, 1.681057e-002
3.164614e+003, 1.671277e-002
3.166542e+003, 1.678446e-002
3.168471e+003, 1.677640e-002
3.170399e+003, 1.662931e-002
3.172328e+003, 1.655593e-002
3.174256e+003, 1.647093e-002
3.176185e+003, 1.692522e-002
3.178113e+003, 1.716015e-002
3.180042e+003, 1.688019e-002
3.181970e+003, 1.699424e-002
3.183898e+003, 1.675854e-002
3.185827e+003, 1.646597e-002
3.187755e+003, 1.653077e-002
3.189684e+003, 1.678967e-002
3.191612e+003, 1.680756e-002
3.193541e+003, 1.667450e-002
3.195469e+003, 1.630383e-002
3.197398e+003, 1.626599e-002
3.199326e+003, 1.635551e-002
3.201255e+003, 1.646922e-002
3.203183e+003, 1.666520e-002
3.205112e+003, 1.642742e-002
3.207040e+003, 1.623562e-002
3.208969e+003, 1.637686e-002
3.210897e+003, 1.652947e-002
3.212825e+003, 1.660124e-002
3.214754e+003, 1.646035e-002
3.216682e+003, 1.619738e-002
3.218611e+003, 1.612291e-002
3.220539e+003, 1.655639e-002
3.222468e+003, 1.668775e-002
3.224396e+003, 1.641383e-002
3.226325e+003, 1.596452e-002
3.228253e+003, 1.570435e-002
3.230182e+003, 1.533546e-002
3.232110e+003, 1.529732e-002
3.234039e+003, 1.567138e-002
3.235967e+003, 1.591072e-002
3.237896e+003, 1.606647e-002
3.239824e+003, 1.591414e-002
3.241752e+003, 1.587068e-002
3.243681e+003, 1.567211e-002
3.245609e+003, 1.567641e-002
3.247538e+003, 1.562515e-002
3.249466e+003, 1.531143e-002
3.251395e+003, 1.489346e-002
3.253323e+003, 1.529138e-002
3.255252e+003, 1.544233e-002
3.257180e+003, 1.493867e-002
3.259109e+003, 1.511210e-002
3.261037e+003, 1.546909e-002
3.262966e+003, 1.547542e-002
3.264894e+003, 1.527070e-002
3.266823e+003, 1.529914e-002
3.268751e+003, 1.520322e-002
3.270679e+003, 1.515310e-002
3.272608e+003, 1.504079e-002
3.274536e+003, 1.494197e-002
3.276465e+003, 1.518003e-002
3.278393e+003, 1.518933e-002
3.280322e+003, 1.513664e-002
3.282250e+003, 1.497708e-002
3.284179e+003, 1.493737e-002
3.286107e+003, 1.487066e-002
3.288036e+003, 1.478535e-002
3.289964e+003, 1.507474e-002
3.291893e+003, 1.529254e-002
3.293821e+003, 1.514614e-002
3.295750e+003, 1.483239e-002
3.297678e+003, 1.461398e-002
3.299606e+003, 1.471184e-002
3.301535e+003, 1.463202e-002
3.303463e+003, 1.452069e-002
3.305392e+003, 1.466931e-002
3.307320e+003, 1.505495e-002
3.309249e+003, 1.523312e-002
3.311177e+003, 1.523863e-002
3.313106e+003, 1.507482e-002
3.315034e+003, 1.491735e-002
3.316963e+003, 1.482913e-002
3.318891e+003, 1.472546e-002
3.320820e+003, 1.517445e-002
3.322748e+003, 1.552215e-002
3.324677e+003, 1.549808e-002
3.326605e+003, 1.502539e-002
3.328533e+003, 1.478234e-002
3.330462e+003, 1.486290e-002
3.332390e+003, 1.459757e-002
3.334319e+003, 1.475883e-002
3.336247e+003, 1.491543e-002
3.338176e+003, 1.512427e-002
3.340104e+003, 1.501303e-002
3.342033e+003, 1.469773e-002
3.343961e+003, 1.488513e-002
3.345890e+003, 1.473586e-002
3.347818e+003, 1.465918e-002
3.349747e+003, 1.466984e-002
3.351675e+003, 1.496595e-002
3.353604e+003, 1.532202e-002
3.355532e+003, 1.535869e-002
3.357460e+003, 1.484177e-002
3.359389e+003, 1.460046e-002
3.361317e+003, 1.455370e-002
3.363246e+003, 1.466663e-002
3.365174e+003, 1.483067e-002
3.367103e+003, 1.480056e-002
3.369031e+003, 1.502025e-002
3.370960e+003, 1.503330e-002
3.372888e+003, 1.435936e-002
3.374817e+003, 1.395563e-002
3.376745e+003, 1.428504e-002
3.378674e+003, 1.443160e-002
3.380602e+003, 1.447164e-002
3.382531e+003, 1.453504e-002
3.384459e+003, 1.442850e-002
3.386387e+003, 1.430854e-002
3.388316e+003, 1.426132e-002
3.390244e+003, 1.410430e-002
3.392173e+003, 1.410671e-002
3.394101e+003, 1.451562e-002
3.396030e+003, 1.438559e-002
3.397958e+003, 1.414269e-002
3.399887e+003, 1.450379e-002
3.401815e+003, 1.403069e-002
3.403744e+003, 1.335519e-002
3.405672e+003, 1.362568e-002
3.407601e+003, 1.382842e-002
3.409529e+003, 1.359612e-002
3.411458e+003, 1.398740e-002
3.413386e+003, 1.459778e-002
3.415314e+003, 1.436613e-002
3.417243e+003, 1.423329e-002
3.419171e+003, 1.466042e-002
3.421100e+003, 1.459911e-002
3.423028e+003, 1.397805e-002
3.424957e+003, 1.364279e-002
3.426885e+003, 1.391453e-002
3.428814e+003, 1.443433e-002
3.430742e+003, 1.441101e-002
3.432671e+003, 1.408456e-002
3.434599e+003, 1.432344e-002
3.436528e+003, 1.450414e-002
3.438456e+003, 1.501201e-002
3.440385e+003, 1.538502e-002
3.442313e+003, 1.553331e-002
3.444241e+003, 1.581503e-002
3.446170e+003, 1.589039e-002
3.448098e+003, 1.549309e-002
3.450027e+003, 1.519000e-002
3.451955e+003, 1.533753e-002
3.453884e+003, 1.606412e-002
3.455812e+003, 1.668249e-002
3.457741e+003, 1.667281e-002
3.459669e+003, 1.649607e-002
3.461598e+003, 1.672937e-002
3.463526e+003, 1.694426e-002
3.465455e+003, 1.685900e-002
3.467383e+003, 1.709824e-002
3.469312e+003, 1.796886e-002
3.471240e+003, 1.788706e-002
3.473168e+003, 1.784211e-002
3.475097e+003, 1.814388e-002
3.477025e+003, 1.857288e-002
3.478954e+003, 1.882924e-002
3.480882e+003, 1.881058e-002
3.482811e+003, 1.880191e-002
3.484739e+003, 1.876554e-002
3.486668e+003, 1.934489e-002
3.488596e+003, 2.002111e-002
3.490525e+003, 1.969245e-002
3.492453e+003, 1.925918e-002
3.494382e+003, 1.916116e-002
3.496310e+003, 1.902746e-002
3.498239e+003, 1.897294e-002
3.500167e+003, 1.876691e-002
3.502095e+003, 1.801056e-002
3.504024e+003, 1.730664e-002
3.505952e+003, 1.694621e-002
3.507881e+003, 1.625052e-002
3.509809e+003, 1.552390e-002
3.511738e+003, 1.556954e-002
3.513666e+003, 1.490640e-002
3.515595e+003, 1.419656e-002
3.517523e+003, 1.331166e-002
3.519452e+003, 1.299252e-002
3.521380e+003, 1.299510e-002
3.523309e+003, 1.217158e-002
3.525237e+003, 1.159905e-002
3.527166e+003, 1.182468e-002
3.529094e+003, 1.222453e-002
3.531022e+003, 1.186476e-002
3.532951e+003, 1.101091e-002
3.534879e+003, 1.060488e-002
3.536808e+003, 1.114244e-002
3.538736e+003, 1.141111e-002
3.540665e+003, 1.122440e-002
3.542593e+003, 1.124504e-002
3.544522e+003, 1.128733e-002
3.546450e+003, 1.169570e-002
3.548379e+003, 1.227639e-002
3.550307e+003, 1.260174e-002
3.552236e+003, 1.326275e-002
3.554164e+003, 1.363465e-002
3.556093e+003, 1.388364e-002
3.558021e+003, 1.466412e-002
3.559949e+003, 1.520841e-002
3.561878e+003, 1.510346e-002
3.563806e+003, 1.518000e-002
3.565735e+003, 1.578530e-002
3.567663e+003, 1.561543e-002
3.569592e+003, 1.519793e-002
3.571520e+003, 1.452232e-002
3.573449e+003, 1.396233e-002
3.575377e+003, 1.391342e-002
3.577306e+003, 1.310005e-002
3.579234e+003, 1.213485e-002
3.581163e+003, 1.187024e-002
3.583091e+003, 1.144859e-002
3.585020e+003, 1.139891e-002
3.586948e+003, 1.127760e-002
3.588876e+003, 1.081604e-002
3.590805e+003, 1.040552e-002
3.592733e+003, 1.077793e-002
3.594662e+003, 1.088456e-002
3.596590e+003, 1.023412e-002
3.598519e+003, 9.317308e-003
3.600447e+003, 9.196323e-003
3.602376e+003, 8.899430e-003
3.604304e+003, 7.288782e-003
3.606233e+003, 5.891838e-003
3.608161e+003, 5.286583e-003
3.610090e+003, 5.070031e-003
3.612018e+003, 4.207955e-003
3.613947e+003, 3.197836e-003
3.615875e+003, 2.627461e-003
3.617803e+003, 2.154855e-003
3.619732e+003, 2.046816e-003
3.621660e+003, 2.012307e-003
3.623589e+003, 2.022435e-003
3.625517e+003, 2.285764e-003
3.627446e+003, 1.782585e-003
3.629374e+003, 1.259205e-003
3.631303e+003, 1.486327e-003
3.633231e+003, 1.416080e-003
3.635160e+003, 1.145273e-003
3.637088e+003, 1.192411e-003
3.639017e+003, 1.432722e-003
3.640945e+003, 1.990979e-003
3.642874e+003, 1.855482e-003
3.644802e+003, 1.346425e-003
3.646730e+003, 1.397371e-003
3.648659e+003, 1.996610e-003
3.650587e+003, 2.277123e-003
3.652516e+003, 2.089148e-003
3.654444e+003, 1.889332e-003
3.656373e+003, 1.355803e-003
3.658301e+003, 1.004514e-003
3.660230e+003, 1.123900e-003
3.662158e+003, 1.096319e-003
3.664087e+003, 1.220490e-003
3.666015e+003, 1.428069e-003
3.667944e+003, 1.461999e-003
3.669872e+003, 1.574412e-003
3.671801e+003, 1.639057e-003
3.673729e+003, 1.573797e-003
3.675657e+003, 1.523176e-003
3.677586e+003, 1.289793e-003
3.679514e+003, 1.158654e-003
3.681443e+003, 1.568760e-003
3.683371e+003, 1.831657e-003
3.685300e+003, 1.451058e-003
3.687228e+003, 1.256816e-003
3.689157e+003, 1.362663e-003
3.691085e+003, 1.039062e-003
3.693014e+003, 1.031458e-003
3.694942e+003, 1.020885e-003
3.696871e+003, 1.030461e-003
3.698799e+003, 1.127399e-003
3.700728e+003, 7.920092e-004
3.702656e+003, 6.608571e-004
3.704584e+003, 8.923520e-004
3.706513e+003, 9.767577e-004
3.708441e+003, 1.063374e-003
3.710370e+003, 1.066953e-003
3.712298e+003, 1.218130e-003
3.714227e+003, 1.475423e-003
3.716155e+003, 1.573366e-003
3.718084e+003, 1.613046e-003
3.720012e+003, 1.671083e-003
3.721941e+003, 2.118394e-003
3.723869e+003, 2.584391e-003
3.725798e+003, 2.456667e-003
3.727726e+003, 1.896549e-003
3.729655e+003, 1.363484e-003
3.731583e+003, 1.583396e-003
3.733511e+003, 1.757742e-003
3.735440e+003, 1.299915e-003
3.737368e+003, 1.930384e-003
3.739297e+003, 2.439127e-003
3.741225e+003, 1.977248e-003
3.743154e+003, 1.887254e-003
3.745082e+003, 2.017670e-003
3.747011e+003, 2.165065e-003
3.748939e+003, 2.001861e-003
3.750868e+003, 1.774224e-003
3.752796e+003, 1.613950e-003
3.754725e+003, 1.327783e-003
3.756653e+003, 1.515204e-003
3.758582e+003, 2.649695e-003
3.760510e+003, 3.231901e-003
3.762438e+003, 3.332841e-003
3.764367e+003, 3.173023e-003
3.766295e+003, 2.543144e-003
3.768224e+003, 2.385647e-003
3.770152e+003, 2.839027e-003
3.772081e+003, 2.875553e-003
3.774009e+003, 2.180871e-003
3.775938e+003, 2.026017e-003
3.777866e+003, 2.267158e-003
3.779795e+003, 2.113431e-003
3.781723e+003, 2.506760e-003
3.783652e+003, 3.436420e-003
3.785580e+003, 3.195508e-003
3.787509e+003, 2.602106e-003
3.789437e+003, 2.441049e-003
3.791365e+003, 2.569691e-003
3.793294e+003, 2.753723e-003
3.795222e+003, 3.076360e-003
3.797151e+003, 3.338251e-003
3.799079e+003, 3.083845e-003
3.801008e+003, 2.300857e-003
3.802936e+003, 2.336677e-003
3.804865e+003, 2.668780e-003
3.806793e+003, 2.639515e-003
3.808722e+003, 2.376255e-003
3.810650e+003, 2.246203e-003
3.812579e+003, 2.912994e-003
3.814507e+003, 3.740996e-003
3.816436e+003, 3.167150e-003
3.818364e+003, 2.378679e-003
3.820292e+003, 2.693876e-003
3.822221e+003, 3.379976e-003
3.824149e+003, 3.956070e-003
3.826078e+003, 3.753381e-003
3.828006e+003, 3.529340e-003
3.829935e+003, 3.166295e-003
3.831863e+003, 3.202141e-003
3.833792e+003, 3.610197e-003
3.835720e+003, 3.709663e-003
3.837649e+003, 3.839224e-003
3.839577e+003, 3.393456e-003
3.841506e+003, 3.084096e-003
3.843434e+003, 3.048968e-003
3.845363e+003, 3.467650e-003
3.847291e+003, 3.859732e-003
3.849219e+003, 4.213314e-003
3.851148e+003, 4.274534e-003
3.853076e+003, 4.026993e-003
3.855005e+003, 3.852619e-003
3.856933e+003, 4.176566e-003
3.858862e+003, 4.146968e-003
3.860790e+003, 3.871840e-003
3.862719e+003, 3.591187e-003
3.864647e+003, 4.138997e-003
3.866576e+003, 4.886595e-003
3.868504e+003, 4.278294e-003
3.870433e+003, 3.407629e-003
3.872361e+003, 3.623509e-003
3.874290e+003, 3.736671e-003
3.876218e+003, 3.720237e-003
3.878146e+003, 3.662469e-003
3.880075e+003, 4.081288e-003
3.882003e+003, 4.460160e-003
3.883932e+003, 4.735390e-003
3.885860e+003, 5.122413e-003
3.887789e+003, 4.567408e-003
3.889717e+003, 3.906797e-003
3.891646e+003, 3.864897e-003
3.893574e+003, 3.796630e-003
3.895503e+003, 3.925365e-003
3.897431e+003, 4.348011e-003
3.899360e+003, 4.260478e-003
3.901288e+003, 4.572019e-003
3.903217e+003, 5.192917e-003
3.905145e+003, 5.159431e-003
3.907073e+003, 5.046190e-003
3.909002e+003, 5.145443e-003
3.910930e+003, 4.749939e-003
3.912859e+003, 4.264723e-003
3.914787e+003, 4.649036e-003
3.916716e+003, 4.843855e-003
3.918644e+003, 4.451959e-003
3.920573e+003, 4.710655e-003
3.922501e+003, 4.702939e-003
3.924430e+003, 4.402333e-003
3.926358e+003, 3.769128e-003
3.928287e+003, 3.031548e-003
3.930215e+003, 3.545067e-003
3.932144e+003, 4.156255e-003
3.934072e+003, 4.423755e-003
3.936000e+003, 4.893756e-003
3.937929e+003, 5.473999e-003
3.939857e+003, 5.493286e-003
3.941786e+003, 5.087343e-003
3.943714e+003, 5.391364e-003
3.945643e+003, 5.589227e-003
3.947571e+003, 5.310485e-003
3.949500e+003, 5.724648e-003
3.951428e+003, 5.919882e-003
3.953357e+003, 5.408327e-003
3.955285e+003, 5.260622e-003
3.957214e+003, 5.554304e-003
3.959142e+003, 5.396979e-003
3.961071e+003, 5.249102e-003
3.962999e+003, 5.612544e-003
3.964927e+003, 5.686673e-003
3.966856e+003, 6.015991e-003
3.968784e+003, 5.792348e-003
3.970713e+003, 5.757897e-003
3.972641e+003, 5.960871e-003
3.974570e+003, 5.907636e-003
3.976498e+003, 5.915638e-003
3.978427e+003, 5.679989e-003
3.980355e+003, 5.856468e-003
3.982284e+003, 6.315780e-003
3.984212e+003, 6.489127e-003
3.986141e+003, 6.123981e-003
3.988069e+003, 5.641649e-003
3.989998e+003, 5.558125e-003
3.991926e+003, 5.663443e-003
3.993854e+003, 6.097103e-003
3.995783e+003, 5.937575e-003
3.997711e+003, 5.355356e-003
3.999640e+003, 5.397371e-003
##END=



