##NAMES=Eosphorite
##RRUFFID=R050557
##IDEAL CHEMISTRY=Mn^2+^AlPO_4_(OH)_2_&#183;H_2_O
##LOCALITY=Minas Gerais, Brazil
##OWNER=RRUFF
##SOURCE=Dave Bunk Minerals
##DESCRIPTION=A radial group of light brown bladed crystals
##STATUS=The identification of this mineral has been confirmed by X-ray diffraction and chemical analysis
##URL=rruff.info/R050557
##MEASURED CHEMISTRY=(Mn^2+^_0.46_Fe^2+^_0.32_Ca_0.16_Mg_0.06_)_Σ=1_Al_1.00_(P_1.00_O_4_)(OH)_2_·H_2_O
399.1926, 0.2178607
401.1211, 0.2028289
403.0496, 0.2038040
404.9780, 0.1928462
406.9065, 0.1963772
408.8350, 0.1990942
410.7634, 0.1968918
412.6919, 0.1926561
414.6204, 0.1856464
416.5488, 0.1867428
418.4773, 0.1910752
420.4058, 0.1933142
422.3342, 0.1935453
424.2627, 0.1935099
426.1912, 0.1935163
428.1196, 0.2016718
430.0481, 0.2079962
431.9766, 0.2042184
433.9050, 0.2051274
435.8335, 0.2066949
437.7620, 0.2034393
439.6904, 0.1991149
441.6189, 0.1962705
443.5474, 0.1946854
445.4758, 0.1949577
447.4043, 0.1939625
449.3328, 0.1908207
451.2612, 0.1871147
453.1897, 0.1828784
455.1182, 0.1797631
457.0466, 0.1767239
458.9751, 0.1735975
460.9036, 0.1728590
462.8320, 0.1708918
464.7605, 0.1696002
466.6890, 0.1682434
468.6174, 0.1665203
470.5459, 0.1630728
472.4744, 0.1572405
474.4028, 0.1504452
476.3313, 0.1453173
478.2598, 0.1399884
480.1882, 0.1325929
482.1167, 0.1260300
484.0452, 0.1209725
485.9736, 0.1160102
487.9021, 0.1113474
489.8306, 0.1068098
491.7590, 0.1036921
493.6875, 0.1018049
495.6160, 0.1013402
497.5444, 0.1002210
499.4729, 0.1001593
501.4014, 0.1021967
503.3298, 0.1035125
505.2583, 0.1049697
507.1868, 0.1069933
509.1152, 0.1097480
511.0437, 0.1123270
512.9722, 0.1150807
514.9006, 0.1172849
516.8291, 0.1185702
518.7576, 0.1195876
520.6860, 0.1209905
522.6145, 0.1227207
524.5430, 0.1247092
526.4714, 0.1254816
528.3999, 0.1267583
530.3284, 0.1301721
532.2568, 0.1338014
534.1853, 0.1360960
536.1138, 0.1390253
538.0422, 0.1427374
539.9707, 0.1467528
541.8992, 0.1522853
543.8276, 0.1589230
545.7561, 0.1662219
547.6846, 0.1748053
549.6130, 0.1848912
551.5415, 0.1958582
553.4700, 0.2078779
555.3984, 0.2190335
557.3269, 0.2303306
559.2554, 0.2434161
561.1838, 0.2561399
563.1123, 0.2659250
565.0408, 0.2736320
566.9692, 0.2785819
568.8977, 0.2789851
570.8262, 0.2754176
572.7546, 0.2680860
574.6831, 0.2581813
576.6116, 0.2466786
578.5400, 0.2360183
580.4685, 0.2269683
582.3970, 0.2230117
584.3254, 0.2250629
586.2539, 0.2312858
588.1824, 0.2410268
590.1108, 0.2508793
592.0393, 0.2585132
593.9678, 0.2613308
595.8962, 0.2609549
597.8247, 0.2585978
599.7532, 0.2554389
601.6816, 0.2515904
603.6101, 0.2459085
605.5386, 0.2405732
607.4670, 0.2369982
609.3955, 0.2325258
611.3240, 0.2270639
613.2524, 0.2224103
615.1809, 0.2176789
617.1094, 0.2119745
619.0378, 0.2060231
620.9663, 0.2006374
622.8948, 0.1949835
624.8232, 0.1890850
626.7517, 0.1836029
628.6802, 0.1784357
630.6086, 0.1742401
632.5371, 0.1717699
634.4656, 0.1710178
636.3940, 0.1731204
638.3225, 0.1768516
640.2510, 0.1816058
642.1794, 0.1873041
644.1079, 0.1920193
646.0364, 0.1960617
647.9648, 0.1994551
649.8933, 0.2010580
651.8218, 0.2000306
653.7502, 0.1976877
655.6787, 0.1939531
657.6072, 0.1881213
659.5356, 0.1814083
661.4641, 0.1746146
663.3926, 0.1679868
665.3210, 0.1620895
667.2495, 0.1570435
669.1780, 0.1529149
671.1064, 0.1497005
673.0349, 0.1472828
674.9634, 0.1453797
676.8918, 0.1441590
678.8203, 0.1431986
680.7488, 0.1425690
682.6772, 0.1417788
684.6057, 0.1404705
686.5342, 0.1389425
688.4626, 0.1378224
690.3911, 0.1363150
692.3196, 0.1338075
694.2480, 0.1307839
696.1765, 0.1278542
698.1050, 0.1241502
700.0334, 0.1194510
701.9619, 0.1147200
703.8904, 0.1098398
705.8188, 0.1046872
707.7473, 9.9174298E-02
709.6758, 9.3578041E-02
711.6042, 8.8174120E-02
713.5327, 8.3188452E-02
715.4612, 7.8513548E-02
717.3896, 7.4264087E-02
719.3181, 7.0689693E-02
721.2466, 6.7924842E-02
723.1750, 6.5791316E-02
725.1035, 6.3864999E-02
727.0320, 6.1935171E-02
728.9604, 6.0701650E-02
730.8889, 5.9742879E-02
732.8174, 5.9084579E-02
734.7458, 5.8654629E-02
736.6743, 5.8608159E-02
738.6028, 5.8754679E-02
740.5313, 5.9103031E-02
742.4597, 5.9474841E-02
744.3882, 5.9544589E-02
746.3167, 5.9784841E-02
748.2451, 5.9975609E-02
750.1736, 6.0179520E-02
752.1021, 6.1046928E-02
754.0305, 6.2178571E-02
755.9590, 6.2762477E-02
757.8875, 6.3350983E-02
759.8159, 6.4535558E-02
761.7444, 6.5538406E-02
763.6729, 6.6366330E-02
765.6013, 6.7596428E-02
767.5298, 6.8802677E-02
769.4583, 6.9810793E-02
771.3867, 7.1327828E-02
773.3152, 7.3002897E-02
775.2437, 7.4405402E-02
777.1721, 7.6209530E-02
779.1006, 7.7924900E-02
781.0291, 7.9671450E-02
782.9575, 8.1341319E-02
784.8860, 8.3386518E-02
786.8145, 8.5238792E-02
788.7429, 8.6920373E-02
790.6714, 8.8822477E-02
792.5999, 9.1129668E-02
794.5283, 9.3333431E-02
796.4568, 9.5382936E-02
798.3853, 9.7395420E-02
800.3137, 9.9373616E-02
802.2422, 0.1014985
804.1707, 0.1035278
806.0991, 0.1058149
808.0276, 0.1080114
809.9561, 0.1100979
811.8845, 0.1126253
813.8130, 0.1155005
815.7415, 0.1184382
817.6699, 0.1214545
819.5984, 0.1247730
821.5269, 0.1280468
823.4553, 0.1312635
825.3838, 0.1350641
827.3123, 0.1386700
829.2407, 0.1423703
831.1692, 0.1468087
833.0977, 0.1515852
835.0261, 0.1558760
836.9546, 0.1603388
838.8831, 0.1654566
840.8115, 0.1704455
842.7400, 0.1753872
844.6685, 0.1804573
846.5969, 0.1855071
848.5254, 0.1904392
850.4539, 0.1954486
852.3823, 0.2004026
854.3108, 0.2054685
856.2393, 0.2108298
858.1677, 0.2167558
860.0962, 0.2224907
862.0247, 0.2278472
863.9531, 0.2335552
865.8816, 0.2401130
867.8101, 0.2463306
869.7385, 0.2526116
871.6670, 0.2593630
873.5955, 0.2660465
875.5239, 0.2722687
877.4524, 0.2783166
879.3809, 0.2838961
881.3093, 0.2893943
883.2378, 0.2946254
885.1663, 0.2999458
887.0947, 0.3047905
889.0232, 0.3081460
890.9517, 0.3111309
892.8801, 0.3145725
894.8085, 0.3171960
896.7370, 0.3184416
898.6655, 0.3194076
900.5939, 0.3203599
902.5224, 0.3206351
904.4509, 0.3196986
906.3793, 0.3180060
908.3078, 0.3158148
910.2363, 0.3131507
912.1647, 0.3103328
914.0932, 0.3072450
916.0217, 0.3041329
917.9501, 0.3005892
919.8786, 0.2970846
921.8071, 0.2932079
923.7355, 0.2893974
925.6640, 0.2858555
927.5925, 0.2822203
929.5209, 0.2781994
931.4494, 0.2742664
933.3779, 0.2702792
935.3063, 0.2660677
937.2348, 0.2616973
939.1633, 0.2563687
941.0917, 0.2503803
943.0202, 0.2445095
944.9487, 0.2382460
946.8771, 0.2320462
948.8056, 0.2265594
950.7341, 0.2217471
952.6625, 0.2180782
954.5910, 0.2160174
956.5195, 0.2155281
958.4479, 0.2166502
960.3764, 0.2194813
962.3049, 0.2237901
964.2333, 0.2294991
966.1618, 0.2369599
968.0903, 0.2462354
970.0187, 0.2571239
971.9472, 0.2701466
973.8757, 0.2849113
975.8041, 0.3008998
977.7326, 0.3168281
979.6611, 0.3307506
981.5895, 0.3401620
983.5180, 0.3437268
985.4465, 0.3432934
987.3749, 0.3414581
989.3034, 0.3406657
991.2319, 0.3424461
993.1603, 0.3468300
995.0888, 0.3546490
997.0173, 0.3654793
998.9457, 0.3783667
1000.874, 0.3926329
1002.803, 0.4068951
1004.731, 0.4201416
1006.660, 0.4311102
1008.588, 0.4397152
1010.517, 0.4467076
1012.445, 0.4518701
1014.373, 0.4549369
1016.302, 0.4563086
1018.230, 0.4558094
1020.159, 0.4532436
1022.087, 0.4490578
1024.016, 0.4429098
1025.944, 0.4349003
1027.873, 0.4255639
1029.801, 0.4146414
1031.730, 0.4014843
1033.658, 0.3873844
1035.587, 0.3735982
1037.515, 0.3591945
1039.444, 0.3439848
1041.372, 0.3287447
1043.301, 0.3134392
1045.229, 0.2986653
1047.157, 0.2847627
1049.086, 0.2723629
1051.014, 0.2616319
1052.943, 0.2524751
1054.871, 0.2446629
1056.800, 0.2381814
1058.728, 0.2334148
1060.657, 0.2300366
1062.585, 0.2280436
1064.514, 0.2277417
1066.442, 0.2288694
1068.371, 0.2309911
1070.299, 0.2340241
1072.228, 0.2365999
1074.156, 0.2381481
1076.084, 0.2375338
1078.013, 0.2343377
1079.941, 0.2289718
1081.870, 0.2214474
1083.798, 0.2126678
1085.727, 0.2028961
1087.655, 0.1922100
1089.584, 0.1814937
1091.512, 0.1713678
1093.441, 0.1615942
1095.369, 0.1523784
1097.298, 0.1438265
1099.226, 0.1356803
1101.155, 0.1278031
1103.083, 0.1204797
1105.011, 0.1136831
1106.940, 0.1073904
1108.868, 0.1014702
1110.797, 9.6145503E-02
1112.725, 9.1274180E-02
1114.654, 8.6680621E-02
1116.582, 8.2319953E-02
1118.511, 7.8194939E-02
1120.439, 7.4750900E-02
1122.368, 7.2074220E-02
1124.296, 6.9656260E-02
1126.225, 6.7492887E-02
1128.153, 6.6108227E-02
1130.082, 6.5040983E-02
1132.010, 6.4129852E-02
1133.938, 6.3363373E-02
1135.867, 6.3111670E-02
1137.795, 6.3062370E-02
1139.724, 6.3139647E-02
1141.652, 6.3345939E-02
1143.581, 6.3941859E-02
1145.509, 6.4424507E-02
1147.438, 6.5167971E-02
1149.366, 6.6386349E-02
1151.295, 6.7865841E-02
1153.223, 7.0118047E-02
1155.152, 7.3242173E-02
1157.080, 7.6947339E-02
1159.009, 8.1236392E-02
1160.937, 8.5318327E-02
1162.865, 8.8164747E-02
1164.794, 8.9261413E-02
1166.722, 8.8195048E-02
1168.651, 8.4965207E-02
1170.579, 8.0684043E-02
1172.508, 7.6471493E-02
1174.436, 7.2663337E-02
1176.365, 6.9311298E-02
1178.293, 6.6506073E-02
1180.222, 6.4279728E-02
1182.150, 6.2394179E-02
1184.079, 6.0509309E-02
1186.007, 5.9280571E-02
1187.936, 5.8344599E-02
1189.864, 5.7382010E-02
1191.792, 5.6411952E-02
1193.721, 5.5479359E-02
1195.649, 5.4787930E-02
1197.578, 5.4269359E-02
1199.506, 5.3658418E-02
1201.435, 5.2543290E-02
1203.363, 5.1501729E-02
1205.292, 5.0915420E-02
1207.220, 5.0546121E-02
1209.149, 4.9996700E-02
1211.077, 4.9430098E-02
1213.006, 4.8718549E-02
1214.934, 4.7997300E-02
1216.863, 4.7426421E-02
1218.791, 4.7030222E-02
1220.719, 4.6581760E-02
1222.648, 4.6175562E-02
1224.576, 4.6108060E-02
1226.505, 4.6019070E-02
1228.433, 4.5620531E-02
1230.362, 4.5331292E-02
1232.290, 4.5183450E-02
1234.219, 4.4872109E-02
1236.147, 4.4653140E-02
1238.076, 4.4570129E-02
1240.004, 4.4507891E-02
1241.933, 4.4500679E-02
1243.861, 4.4091258E-02
1245.790, 4.3752778E-02
1247.718, 4.3921638E-02
1249.646, 4.4171900E-02
1251.575, 4.4223960E-02
1253.503, 4.3952949E-02
1255.432, 4.3546509E-02
1257.360, 4.3483458E-02
1259.289, 4.3502212E-02
1261.217, 4.3569461E-02
1263.146, 4.3846618E-02
1265.074, 4.3922100E-02
1267.003, 4.3863341E-02
1268.931, 4.3795969E-02
1270.860, 4.4156861E-02
1272.788, 4.4603501E-02
1274.717, 4.4647411E-02
1276.645, 4.4477042E-02
1278.573, 4.4252899E-02
1280.502, 4.4285830E-02
1282.430, 4.4564929E-02
1284.359, 4.4578511E-02
1286.287, 4.4368841E-02
1288.216, 4.4127259E-02
1290.144, 4.4107381E-02
1292.073, 4.4049978E-02
1294.001, 4.4125509E-02
1295.930, 4.4324029E-02
1297.858, 4.4296201E-02
1299.787, 4.4224139E-02
1301.715, 4.4428028E-02
1303.644, 4.4395871E-02
1305.572, 4.4381861E-02
1307.500, 4.4352230E-02
1309.429, 4.4403899E-02
1311.357, 4.4672519E-02
1313.286, 4.4674821E-02
1315.214, 4.4653188E-02
1317.143, 4.4597398E-02
1319.071, 4.4547752E-02
1321.000, 4.4573519E-02
1322.928, 4.4789732E-02
1324.857, 4.4651520E-02
1326.785, 4.4484571E-02
1328.714, 4.4592280E-02
1330.642, 4.4913311E-02
1332.571, 4.5080300E-02
1334.499, 4.4980749E-02
1336.427, 4.4733480E-02
1338.356, 4.4707231E-02
1340.284, 4.4991922E-02
1342.213, 4.5241430E-02
1344.141, 4.5358989E-02
1346.070, 4.5188829E-02
1347.998, 4.5144480E-02
1349.927, 4.5027141E-02
1351.855, 4.5099352E-02
1353.784, 4.5329168E-02
1355.712, 4.5540672E-02
1357.641, 4.5586649E-02
1359.569, 4.5378391E-02
1361.498, 4.5454100E-02
1363.426, 4.5528289E-02
1365.354, 4.5622680E-02
1367.283, 4.5683689E-02
1369.211, 4.5947041E-02
1371.140, 4.5856241E-02
1373.068, 4.5676671E-02
1374.997, 4.6016969E-02
1376.925, 4.6358760E-02
1378.854, 4.6291050E-02
1380.782, 4.6278391E-02
1382.711, 4.6262849E-02
1384.639, 4.6259739E-02
1386.568, 4.6509359E-02
1388.496, 4.6751849E-02
1390.424, 4.6407491E-02
1392.353, 4.6272311E-02
1394.281, 4.6567019E-02
1396.210, 4.6568129E-02
1398.138, 4.6615880E-02
1400.067, 4.6545152E-02
1401.995, 4.6481341E-02
1403.924, 4.6499450E-02
1405.852, 4.6695460E-02
1407.781, 4.7069050E-02
1409.709, 4.7034651E-02
1411.638, 4.6999909E-02
1413.566, 4.6906419E-02
1415.495, 4.6759240E-02
1417.423, 4.6863232E-02
1419.351, 4.7251869E-02
1421.280, 4.7408711E-02
1423.208, 4.7076080E-02
1425.137, 4.6888500E-02
1427.065, 4.7203202E-02
1428.994, 4.7475759E-02
1430.922, 4.7559779E-02
1432.851, 4.7296919E-02
1434.779, 4.7269139E-02
1436.708, 4.7262471E-02
1438.636, 4.7319371E-02
1440.565, 4.7619902E-02
1442.493, 4.7780659E-02
1444.422, 4.7698230E-02
1446.350, 4.7775000E-02
1448.278, 4.7994580E-02
1450.207, 4.7783099E-02
1452.135, 4.7756381E-02
1454.064, 4.7805302E-02
1455.992, 4.7884580E-02
1457.921, 4.7884591E-02
1459.849, 4.7711011E-02
1461.778, 4.7628149E-02
1463.706, 4.7414452E-02
1465.635, 4.7403991E-02
1467.563, 4.7438130E-02
1469.492, 4.7411822E-02
1471.420, 4.7499780E-02
1473.349, 4.7514860E-02
1475.277, 4.7349650E-02
1477.205, 4.7087580E-02
1479.134, 4.6905790E-02
1481.062, 4.7149520E-02
1482.991, 4.7314931E-02
1484.919, 4.7241449E-02
1486.848, 4.7280539E-02
1488.776, 4.7238261E-02
1490.705, 4.7245249E-02
1492.633, 4.7194440E-02
1494.562, 4.7189958E-02
1496.490, 4.7343381E-02
1498.419, 4.7333751E-02
1500.347, 4.7326501E-02
1502.276, 4.7522072E-02
1504.204, 4.7380101E-02
1506.132, 4.7484640E-02
1508.061, 4.7448400E-02
1509.989, 4.7238030E-02
1511.918, 4.7425210E-02
1513.846, 4.7542371E-02
1515.775, 4.7395319E-02
1517.703, 4.7539119E-02
1519.632, 4.7786150E-02
1521.560, 4.7857091E-02
1523.489, 4.7888432E-02
1525.417, 4.7898579E-02
1527.346, 4.7846261E-02
1529.274, 4.7789589E-02
1531.203, 4.7890801E-02
1533.131, 4.8248000E-02
1535.059, 4.8234209E-02
1536.988, 4.8254739E-02
1538.916, 4.8498660E-02
1540.845, 4.8755169E-02
1542.773, 4.8920549E-02
1544.702, 4.8987091E-02
1546.630, 4.8957031E-02
1548.559, 4.8994280E-02
1550.487, 4.9340919E-02
1552.416, 4.9718231E-02
1554.344, 4.9651880E-02
1556.273, 4.9414519E-02
1558.201, 4.9681850E-02
1560.130, 5.0097130E-02
1562.058, 5.0276089E-02
1563.986, 5.0323989E-02
1565.915, 5.0451480E-02
1567.843, 5.0669439E-02
1569.772, 5.0951101E-02
1571.700, 5.1383391E-02
1573.629, 5.1549941E-02
1575.557, 5.1937789E-02
1577.486, 5.2192502E-02
1579.414, 5.2574269E-02
1581.343, 5.3207058E-02
1583.271, 5.3442258E-02
1585.200, 5.3753480E-02
1587.128, 5.3966559E-02
1589.057, 5.4351360E-02
1590.985, 5.4987449E-02
1592.913, 5.5382282E-02
1594.842, 5.5888679E-02
1596.770, 5.6769501E-02
1598.699, 5.7463489E-02
1600.627, 5.8418222E-02
1602.556, 5.8853701E-02
1604.484, 5.9083000E-02
1606.413, 5.9377529E-02
1608.341, 6.0095560E-02
1610.270, 6.0823601E-02
1612.198, 6.1754979E-02
1614.127, 6.2538818E-02
1616.055, 6.3155562E-02
1617.984, 6.3647106E-02
1619.912, 6.3921273E-02
1621.840, 6.4425103E-02
1623.769, 6.4263619E-02
1625.697, 6.3929088E-02
1627.626, 6.3932188E-02
1629.554, 6.3555174E-02
1631.483, 6.2612712E-02
1633.411, 6.1436690E-02
1635.340, 6.0459070E-02
1637.268, 5.9692550E-02
1639.197, 5.8482841E-02
1641.125, 5.7336312E-02
1643.054, 5.6337859E-02
1644.982, 5.5358559E-02
1646.911, 5.4178320E-02
1648.839, 5.3077921E-02
1650.767, 5.2059211E-02
1652.696, 5.1553529E-02
1654.624, 5.0749801E-02
1656.553, 4.9306210E-02
1658.481, 4.8472110E-02
1660.410, 4.8617572E-02
1662.338, 4.7991991E-02
1664.267, 4.6829991E-02
1666.195, 4.6456039E-02
1668.124, 4.6058029E-02
1670.052, 4.5494489E-02
1671.981, 4.4933181E-02
1673.909, 4.4636790E-02
1675.838, 4.4361070E-02
1677.766, 4.3811660E-02
1679.694, 4.3088991E-02
1681.623, 4.2671520E-02
1683.551, 4.2943500E-02
1685.480, 4.3052811E-02
1687.408, 4.2630561E-02
1689.337, 4.2433240E-02
1691.265, 4.2460371E-02
1693.194, 4.2205099E-02
1695.122, 4.2201541E-02
1697.051, 4.2264439E-02
1698.979, 4.2331491E-02
1700.908, 4.2187311E-02
1702.836, 4.2085279E-02
1704.765, 4.2413361E-02
1706.693, 4.2129241E-02
1708.621, 4.1591190E-02
1710.550, 4.1269030E-02
1712.478, 4.1754931E-02
1714.407, 4.2045642E-02
1716.335, 4.2032219E-02
1718.264, 4.1538130E-02
1720.192, 4.0754959E-02
1722.121, 4.0346660E-02
1724.049, 4.0878009E-02
1725.978, 4.1531090E-02
1727.906, 4.1515350E-02
1729.835, 4.1522741E-02
1731.763, 4.1840199E-02
1733.692, 4.1817870E-02
1735.620, 4.1390110E-02
1737.548, 4.1104019E-02
1739.477, 4.1329090E-02
1741.405, 4.1032359E-02
1743.334, 4.0415742E-02
1745.262, 4.0239479E-02
1747.191, 4.0335588E-02
1749.119, 4.0464770E-02
1751.048, 4.0777951E-02
1752.976, 4.0595960E-02
1754.905, 4.0868629E-02
1756.833, 4.1221540E-02
1758.762, 4.0950209E-02
1760.690, 4.1013699E-02
1762.619, 4.1163631E-02
1764.547, 4.0900979E-02
1766.475, 4.0708769E-02
1768.404, 4.0897250E-02
1770.332, 4.1275442E-02
1772.261, 4.1303430E-02
1774.189, 4.1080091E-02
1776.118, 4.0990680E-02
1778.046, 4.1247070E-02
1779.975, 4.1582219E-02
1781.903, 4.1102659E-02
1783.832, 4.1057508E-02
1785.760, 4.1382890E-02
1787.689, 4.1070782E-02
1789.617, 4.1063569E-02
1791.546, 4.1659798E-02
1793.474, 4.1920088E-02
1795.402, 4.1980799E-02
1797.331, 4.2036321E-02
1799.259, 4.2572699E-02
1801.188, 4.2626198E-02
1803.116, 4.1987799E-02
1805.045, 4.1497141E-02
1806.973, 4.1610040E-02
1808.902, 4.1634850E-02
1810.830, 4.1654948E-02
1812.759, 4.0985949E-02
1814.687, 4.0556218E-02
1816.616, 4.1129079E-02
1818.544, 4.2008460E-02
1820.473, 4.2373061E-02
1822.401, 4.2295191E-02
1824.329, 4.2206369E-02
1826.258, 4.2398110E-02
1828.186, 4.2330991E-02
1830.115, 4.2390361E-02
1832.043, 4.2193551E-02
1833.972, 4.2212460E-02
1835.900, 4.2209640E-02
1837.829, 4.1082129E-02
1839.757, 4.1464239E-02
1841.686, 4.1824430E-02
1843.614, 4.2028390E-02
1845.543, 4.2719390E-02
1847.471, 4.2917252E-02
1849.400, 4.2269159E-02
1851.328, 4.1487161E-02
1853.256, 4.1642819E-02
1855.185, 4.1158870E-02
1857.113, 4.1414350E-02
1859.042, 4.1899391E-02
1860.970, 4.1690510E-02
1862.899, 4.1617189E-02
1864.827, 4.1769691E-02
1866.756, 4.1624960E-02
1868.684, 4.1569348E-02
1870.613, 4.1653879E-02
1872.541, 4.1909091E-02
1874.470, 4.1519791E-02
1876.398, 4.1292999E-02
1878.327, 4.1566711E-02
1880.255, 4.2100631E-02
1882.183, 4.1694261E-02
1884.112, 4.1042421E-02
1886.040, 4.0724900E-02
1887.969, 4.1695189E-02
1889.897, 4.2138658E-02
1891.826, 4.2567249E-02
1893.754, 4.1852470E-02
1895.683, 4.1288070E-02
1897.611, 4.0958680E-02
1899.540, 4.0341031E-02
1901.468, 3.9580438E-02
1903.397, 3.9760530E-02
1905.325, 3.9603170E-02
1907.254, 3.9008271E-02
1909.182, 4.0220231E-02
1911.110, 4.1173071E-02
1913.039, 4.0461659E-02
1914.967, 3.8940139E-02
1916.896, 3.8808111E-02
1918.824, 3.9226141E-02
1920.753, 3.8605001E-02
1922.681, 3.8222101E-02
1924.610, 3.8548149E-02
1926.538, 3.9351579E-02
1928.467, 3.9367329E-02
1930.395, 3.8742259E-02
1932.324, 3.6816370E-02
1934.252, 3.6126070E-02
1936.181, 3.6650330E-02
1938.109, 3.7363648E-02
1940.037, 3.6505200E-02
1941.966, 3.6430761E-02
1943.894, 3.7006881E-02
1945.823, 3.7033219E-02
1947.751, 3.4894399E-02
1949.680, 3.3310071E-02
1951.608, 3.4155902E-02
1953.537, 3.5012141E-02
1955.465, 3.3848088E-02
1957.394, 3.3490092E-02
1959.322, 3.2883491E-02
1961.251, 3.1089520E-02
1963.179, 3.0531449E-02
1965.108, 3.1319238E-02
1967.036, 3.2649308E-02
1968.964, 3.2009330E-02
1970.893, 2.9605109E-02
1972.821, 2.8549230E-02
1974.750, 2.8278049E-02
1976.678, 3.0435290E-02
1978.607, 3.2598238E-02
1980.535, 3.4400798E-02
1982.464, 3.2628771E-02
1984.392, 3.0490501E-02
1986.321, 2.9397789E-02
1988.249, 3.0091580E-02
1990.178, 3.1693898E-02
1992.106, 3.2214731E-02
1994.035, 3.2584209E-02
1995.963, 3.3078749E-02
1997.891, 3.3309691E-02
1999.820, 3.2675300E-02
2001.748, 2.9743001E-02
2003.677, 2.6502769E-02
2005.605, 2.7679240E-02
2007.534, 3.1112880E-02
2009.462, 3.0709350E-02
2011.391, 2.8542140E-02
2013.319, 2.6600260E-02
2015.248, 2.6180141E-02
2017.176, 2.6844859E-02
2019.105, 2.5997980E-02
2021.033, 2.5400961E-02
2022.962, 2.5973070E-02
2024.890, 2.4169330E-02
2026.818, 2.6160531E-02
2028.747, 2.7473960E-02
2030.675, 2.4223169E-02
2032.604, 2.3486281E-02
2034.532, 2.7113650E-02
2036.461, 2.9213140E-02
2038.389, 2.8543269E-02
2040.318, 2.9398579E-02
2042.246, 2.9792359E-02
2044.175, 2.7246270E-02
2046.103, 2.5831280E-02
2048.032, 2.9065659E-02
2049.960, 3.3561621E-02
2051.889, 3.2788519E-02
2053.817, 3.2082550E-02
2055.746, 3.0548209E-02
2057.674, 2.9710131E-02
2059.603, 2.8639549E-02
2061.531, 2.8859779E-02
2063.459, 2.9897571E-02
2065.388, 2.9014699E-02
2067.316, 2.9567979E-02
2069.245, 2.9408440E-02
2071.173, 2.9286960E-02
2073.102, 3.1143749E-02
2075.030, 3.3232778E-02
2076.959, 3.2858972E-02
2078.887, 3.0835779E-02
2080.816, 2.9729990E-02
2082.744, 3.0347960E-02
2084.673, 3.1674311E-02
2086.601, 3.2158021E-02
2088.530, 3.2323841E-02
2090.458, 3.1155780E-02
2092.386, 3.0009380E-02
2094.315, 2.9247919E-02
2096.243, 2.9284820E-02
2098.172, 2.9367549E-02
2100.100, 3.0158561E-02
2102.029, 3.1198779E-02
2103.957, 3.2381009E-02
2105.886, 3.1744469E-02
2107.814, 3.0849410E-02
2109.743, 2.9764449E-02
2111.671, 2.9526221E-02
2113.600, 2.9514920E-02
2115.528, 2.8073300E-02
2117.457, 2.8268529E-02
2119.385, 2.9480711E-02
2121.313, 2.7949721E-02
2123.242, 2.7521120E-02
2125.170, 2.7474159E-02
2127.099, 2.6747230E-02
2129.027, 2.5669180E-02
2130.956, 2.2408420E-02
2132.884, 2.0380870E-02
2134.813, 2.3207810E-02
2136.741, 2.5174141E-02
2138.670, 2.3614051E-02
2140.598, 2.0831680E-02
2142.527, 1.9991850E-02
2144.455, 2.1099590E-02
2146.384, 2.0669810E-02
2148.312, 2.0138931E-02
2150.240, 1.9547639E-02
2152.169, 1.6875420E-02
2154.097, 1.5785890E-02
2156.026, 1.4194960E-02
2157.954, 1.2625280E-02
2159.883, 1.4948970E-02
2161.811, 1.9732200E-02
2163.740, 2.4953449E-02
2165.668, 2.3941820E-02
2167.597, 2.0702060E-02
2169.525, 2.2536321E-02
2171.454, 2.3667600E-02
2173.382, 2.3381259E-02
2175.311, 2.4028750E-02
2177.239, 2.0307271E-02
2179.167, 1.8132120E-02
2181.096, 2.2548821E-02
2183.024, 2.5850169E-02
2184.953, 2.5476551E-02
2186.881, 2.4287021E-02
2188.810, 2.4421159E-02
2190.738, 2.4630450E-02
2192.667, 2.5173360E-02
2194.595, 2.3438940E-02
2196.524, 2.2215860E-02
2198.452, 2.2281591E-02
2200.381, 2.3947069E-02
2202.309, 2.5753209E-02
2204.238, 2.6179580E-02
2206.166, 2.5265740E-02
2208.094, 2.4608551E-02
2210.023, 2.4183869E-02
2211.951, 2.4627620E-02
2213.880, 2.5869830E-02
2215.808, 2.6525430E-02
2217.737, 2.5096221E-02
2219.665, 2.7009580E-02
2221.594, 2.9706080E-02
2223.522, 3.0279061E-02
2225.451, 2.9808991E-02
2227.379, 2.9773319E-02
2229.308, 3.0521650E-02
2231.236, 3.0261980E-02
2233.165, 2.8697349E-02
2235.093, 2.6363170E-02
2237.021, 2.7691379E-02
2238.950, 2.9609621E-02
2240.878, 2.8880380E-02
2242.807, 2.8799981E-02
2244.735, 2.9754151E-02
2246.664, 3.2048721E-02
2248.592, 3.1950202E-02
2250.521, 3.0259609E-02
2252.449, 3.0466231E-02
2254.378, 3.0772541E-02
2256.306, 3.0138399E-02
2258.235, 3.0703200E-02
2260.163, 3.1344369E-02
2262.092, 3.1890109E-02
2264.020, 3.2593101E-02
2265.948, 3.3339489E-02
2267.877, 3.3598289E-02
2269.805, 3.3525161E-02
2271.734, 3.3381160E-02
2273.662, 3.2998439E-02
2275.591, 3.2302350E-02
2277.519, 3.3381481E-02
2279.448, 3.3692271E-02
2281.376, 3.4041479E-02
2283.305, 3.4692381E-02
2285.233, 3.4803320E-02
2287.162, 3.5056241E-02
2289.090, 3.5263710E-02
2291.019, 3.6490429E-02
2292.947, 3.6236592E-02
2294.875, 3.5676692E-02
2296.804, 3.6115639E-02
2298.732, 3.7356120E-02
2300.661, 3.7580650E-02
2302.589, 3.6332801E-02
2304.518, 3.5951961E-02
2306.446, 3.5600360E-02
2308.375, 3.6493331E-02
2310.303, 3.6253542E-02
2312.232, 3.5942938E-02
2314.160, 3.7276380E-02
2316.089, 3.7028581E-02
2318.017, 3.6608420E-02
2319.946, 3.6545210E-02
2321.874, 3.5883222E-02
2323.802, 3.5667550E-02
2325.731, 3.6019892E-02
2327.659, 3.5745759E-02
2329.588, 3.4678832E-02
2331.516, 3.3648480E-02
2333.445, 3.3292331E-02
2335.373, 3.3250030E-02
2337.302, 3.3687379E-02
2339.230, 3.3779599E-02
2341.159, 3.3713382E-02
2343.087, 3.3594139E-02
2345.016, 3.3915762E-02
2346.944, 3.4943391E-02
2348.873, 3.4846310E-02
2350.801, 3.3918910E-02
2352.729, 3.3903290E-02
2354.658, 3.3152372E-02
2356.586, 3.2998540E-02
2358.515, 3.3620540E-02
2360.443, 3.4267459E-02
2362.372, 3.3921689E-02
2364.300, 3.3712242E-02
2366.229, 3.3648830E-02
2368.157, 3.3879939E-02
2370.086, 3.3592440E-02
2372.014, 3.3547509E-02
2373.942, 3.4253530E-02
2375.871, 3.4330029E-02
2377.799, 3.4730598E-02
2379.728, 3.5399679E-02
2381.656, 3.5700839E-02
2383.585, 3.4621790E-02
2385.513, 3.4159862E-02
2387.442, 3.4743659E-02
2389.370, 3.5792131E-02
2391.299, 3.6391500E-02
2393.227, 3.5558641E-02
2395.156, 3.4941919E-02
2397.084, 3.4721289E-02
2399.012, 3.3801898E-02
2400.941, 3.4541290E-02
2402.869, 3.5222359E-02
2404.798, 3.5506971E-02
2406.726, 3.5253160E-02
2408.655, 3.5137132E-02
2410.583, 3.5499100E-02
2412.512, 3.5436291E-02
2414.440, 3.5312701E-02
2416.369, 3.5357960E-02
2418.297, 3.5294279E-02
2420.226, 3.5432640E-02
2422.154, 3.5822019E-02
2424.083, 3.5419662E-02
2426.011, 3.5302371E-02
2427.939, 3.6816470E-02
2429.868, 3.7499730E-02
2431.796, 3.6716111E-02
2433.725, 3.6714502E-02
2435.653, 3.6655109E-02
2437.582, 3.6095310E-02
2439.510, 3.5049550E-02
2441.439, 3.5141218E-02
2443.367, 3.6725100E-02
2445.296, 3.7561528E-02
2447.224, 3.7487410E-02
2449.153, 3.7863690E-02
2451.081, 3.7348140E-02
2453.010, 3.6317371E-02
2454.938, 3.6389519E-02
2456.866, 3.6117692E-02
2458.795, 3.5320889E-02
2460.723, 3.5262801E-02
2462.652, 3.5303850E-02
2464.580, 3.4561101E-02
2466.509, 3.4511331E-02
2468.437, 3.6292281E-02
2470.366, 3.7744481E-02
2472.294, 3.8100671E-02
2474.223, 3.7060060E-02
2476.151, 3.6794979E-02
2478.080, 3.6419600E-02
2480.008, 3.5864148E-02
2481.937, 3.6107671E-02
2483.865, 3.6815580E-02
2485.793, 3.6870159E-02
2487.722, 3.6269151E-02
2489.650, 3.5909530E-02
2491.579, 3.5994262E-02
2493.507, 3.6983039E-02
2495.436, 3.6001261E-02
2497.364, 3.4398071E-02
2499.293, 3.5045650E-02
2501.221, 3.6500931E-02
2503.150, 3.7918810E-02
2505.078, 3.7506841E-02
2507.007, 3.5112381E-02
2508.935, 3.4512050E-02
2510.864, 3.4284849E-02
2512.792, 3.5627130E-02
2514.720, 3.6757208E-02
2516.649, 3.6298759E-02
2518.577, 3.4882359E-02
2520.506, 3.4639232E-02
2522.434, 3.4731042E-02
2524.363, 3.5121299E-02
2526.291, 3.6483269E-02
2528.220, 3.7484009E-02
2530.148, 3.7253011E-02
2532.077, 3.5967469E-02
2534.005, 3.5711829E-02
2535.934, 3.6468782E-02
2537.862, 3.6397599E-02
2539.791, 3.5564851E-02
2541.719, 3.6082249E-02
2543.647, 3.6926411E-02
2545.576, 3.7063248E-02
2547.504, 3.6073331E-02
2549.433, 3.6547311E-02
2551.361, 3.7399281E-02
2553.290, 3.7353609E-02
2555.218, 3.7993900E-02
2557.147, 3.8542021E-02
2559.075, 3.8285028E-02
2561.004, 3.8056649E-02
2562.932, 3.7980478E-02
2564.861, 3.8446441E-02
2566.789, 3.8777702E-02
2568.718, 3.8309831E-02
2570.646, 3.8224701E-02
2572.574, 3.8570799E-02
2574.503, 3.8267668E-02
2576.431, 3.7858080E-02
2578.360, 3.8497049E-02
2580.288, 3.9530519E-02
2582.217, 4.1391969E-02
2584.145, 4.1771822E-02
2586.074, 4.1789390E-02
2588.002, 4.1468251E-02
2589.931, 4.0471919E-02
2591.859, 3.9993651E-02
2593.788, 3.9697800E-02
2595.716, 4.0067431E-02
2597.645, 4.0856771E-02
2599.573, 4.0662602E-02
2601.501, 4.0587500E-02
2603.430, 4.0078890E-02
2605.358, 4.0630579E-02
2607.287, 4.1321632E-02
2609.215, 4.1936889E-02
2611.144, 4.2670630E-02
2613.072, 4.2547069E-02
2615.001, 4.1956149E-02
2616.929, 4.2492840E-02
2618.858, 4.2994469E-02
2620.786, 4.3195240E-02
2622.715, 4.2313751E-02
2624.643, 4.1165009E-02
2626.572, 4.1429419E-02
2628.500, 4.1584119E-02
2630.428, 4.1910421E-02
2632.357, 4.1977350E-02
2634.285, 4.2746041E-02
2636.214, 4.2842079E-02
2638.142, 4.2813249E-02
2640.071, 4.3783691E-02
2641.999, 4.4148769E-02
2643.928, 4.3770660E-02
2645.856, 4.2747431E-02
2647.785, 4.2818651E-02
2649.713, 4.3823939E-02
2651.642, 4.3936159E-02
2653.570, 4.3834940E-02
2655.499, 4.3904901E-02
2657.427, 4.3761101E-02
2659.355, 4.2866770E-02
2661.284, 4.2195238E-02
2663.212, 4.2602409E-02
2665.141, 4.3207400E-02
2667.069, 4.3637399E-02
2668.998, 4.3542322E-02
2670.926, 4.3406378E-02
2672.855, 4.3137390E-02
2674.783, 4.3021079E-02
2676.712, 4.3605652E-02
2678.640, 4.3512579E-02
2680.569, 4.2619109E-02
2682.497, 4.2354129E-02
2684.426, 4.3013271E-02
2686.354, 4.3401450E-02
2688.282, 4.3464780E-02
2690.211, 4.3321211E-02
2692.139, 4.3558430E-02
2694.068, 4.3012641E-02
2695.996, 4.2066310E-02
2697.925, 4.2934742E-02
2699.853, 4.3587420E-02
2701.782, 4.3819170E-02
2703.710, 4.3396909E-02
2705.639, 4.3034621E-02
2707.567, 4.3694548E-02
2709.496, 4.4277210E-02
2711.424, 4.3997839E-02
2713.353, 4.4210300E-02
2715.281, 4.4487409E-02
2717.209, 4.4912871E-02
2719.138, 4.4845629E-02
2721.066, 4.4679198E-02
2722.995, 4.5557741E-02
2724.923, 4.5987751E-02
2726.852, 4.5331791E-02
2728.780, 4.4920892E-02
2730.709, 4.5154139E-02
2732.637, 4.5202289E-02
2734.566, 4.5610290E-02
2736.494, 4.5844100E-02
2738.423, 4.5539130E-02
2740.351, 4.5450740E-02
2742.280, 4.5869339E-02
2744.208, 4.5811649E-02
2746.136, 4.5878261E-02
2748.065, 4.6182171E-02
2749.993, 4.5971289E-02
2751.922, 4.6580471E-02
2753.850, 4.6849661E-02
2755.779, 4.6973251E-02
2757.707, 4.8100911E-02
2759.636, 4.8725311E-02
2761.564, 4.7818191E-02
2763.493, 4.6343889E-02
2765.421, 4.5879669E-02
2767.350, 4.6566311E-02
2769.278, 4.8165381E-02
2771.207, 4.8723549E-02
2773.135, 4.7668621E-02
2775.063, 4.6545580E-02
2776.992, 4.7013920E-02
2778.920, 4.7615569E-02
2780.849, 4.7384679E-02
2782.777, 4.7581431E-02
2784.706, 4.8628978E-02
2786.634, 4.9674559E-02
2788.563, 4.9313340E-02
2790.491, 4.8954211E-02
2792.420, 4.9064249E-02
2794.348, 4.9542282E-02
2796.277, 4.9769219E-02
2798.205, 5.0450221E-02
2800.134, 5.0873641E-02
2802.062, 5.0494209E-02
2803.990, 5.0575159E-02
2805.919, 5.1186711E-02
2807.847, 5.1536400E-02
2809.776, 5.1899999E-02
2811.704, 5.1170621E-02
2813.633, 5.0910410E-02
2815.561, 5.2097689E-02
2817.490, 5.2884601E-02
2819.418, 5.2637171E-02
2821.347, 5.3206619E-02
2823.275, 5.3812310E-02
2825.204, 5.3958021E-02
2827.132, 5.3491149E-02
2829.061, 5.4207329E-02
2830.989, 5.4888628E-02
2832.917, 5.4694701E-02
2834.846, 5.4025289E-02
2836.774, 5.3857390E-02
2838.703, 5.4393560E-02
2840.631, 5.5141032E-02
2842.560, 5.5145372E-02
2844.488, 5.4897990E-02
2846.417, 5.6205221E-02
2848.345, 5.6325190E-02
2850.274, 5.6015842E-02
2852.202, 5.6940321E-02
2854.131, 5.6845549E-02
2856.059, 5.7068549E-02
2857.988, 5.7960209E-02
2859.916, 5.7254761E-02
2861.844, 5.7114448E-02
2863.773, 5.7317872E-02
2865.701, 5.7958070E-02
2867.630, 5.7659961E-02
2869.558, 5.7387859E-02
2871.487, 5.7161450E-02
2873.415, 5.7555132E-02
2875.344, 5.9020460E-02
2877.272, 5.9915312E-02
2879.201, 5.9647549E-02
2881.129, 5.9946951E-02
2883.058, 5.9784159E-02
2884.986, 5.9749950E-02
2886.915, 5.9757590E-02
2888.843, 5.9352040E-02
2890.771, 6.0152002E-02
2892.700, 6.1558452E-02
2894.628, 6.2390950E-02
2896.557, 6.2661476E-02
2898.485, 6.2349550E-02
2900.414, 6.2664934E-02
2902.342, 6.3406497E-02
2904.271, 6.4008273E-02
2906.199, 6.4637780E-02
2908.128, 6.5264992E-02
2910.056, 6.5672122E-02
2911.985, 6.6781104E-02
2913.913, 6.6872247E-02
2915.842, 6.6171333E-02
2917.770, 6.5769836E-02
2919.698, 6.6080913E-02
2921.627, 6.7147657E-02
2923.555, 6.7724720E-02
2925.484, 6.7145042E-02
2927.412, 6.8308838E-02
2929.341, 6.8013750E-02
2931.269, 6.6086702E-02
2933.198, 6.6230409E-02
2935.126, 6.7416288E-02
2937.055, 6.6730373E-02
2938.983, 6.6292197E-02
2940.912, 6.6912979E-02
2942.840, 6.7675911E-02
2944.769, 6.8597808E-02
2946.697, 6.9422171E-02
2948.625, 6.9249988E-02
2950.554, 6.9006369E-02
2952.482, 6.8455897E-02
2954.411, 6.8767682E-02
2956.339, 6.9459803E-02
2958.268, 6.9024593E-02
2960.196, 6.8933703E-02
2962.125, 6.9969483E-02
2964.053, 7.0235103E-02
2965.982, 6.9840409E-02
2967.910, 6.9943637E-02
2969.839, 7.1219727E-02
2971.767, 7.2179198E-02
2973.696, 7.2727233E-02
2975.624, 7.3296748E-02
2977.552, 7.2556883E-02
2979.481, 7.2447047E-02
2981.409, 7.2237372E-02
2983.338, 7.1923971E-02
2985.266, 7.1975060E-02
2987.195, 7.1723193E-02
2989.123, 7.2601803E-02
2991.052, 7.3606923E-02
2992.980, 7.4387237E-02
2994.909, 7.5187653E-02
2996.837, 7.5534567E-02
2998.766, 7.4366070E-02
3000.694, 7.3201463E-02
3002.623, 7.2904319E-02
3004.551, 7.3422447E-02
3006.479, 7.4480481E-02
3008.408, 7.4900411E-02
3010.336, 7.4423663E-02
3012.265, 7.4516773E-02
3014.193, 7.4648418E-02
3016.122, 7.4206628E-02
3018.050, 7.4450523E-02
3019.979, 7.5517237E-02
3021.907, 7.5420283E-02
3023.836, 7.4442647E-02
3025.764, 7.4589007E-02
3027.693, 7.5692281E-02
3029.621, 7.6215781E-02
3031.550, 7.5259909E-02
3033.478, 7.5795077E-02
3035.406, 7.6290451E-02
3037.335, 7.5681247E-02
3039.263, 7.4594289E-02
3041.192, 7.4603774E-02
3043.120, 7.5684778E-02
3045.049, 7.6607101E-02
3046.977, 7.6157823E-02
3048.906, 7.5555913E-02
3050.834, 7.5494759E-02
3052.763, 7.4356332E-02
3054.691, 7.3658109E-02
3056.620, 7.2472692E-02
3058.548, 7.3141262E-02
3060.477, 7.5640827E-02
3062.405, 7.5720929E-02
3064.333, 7.5057037E-02
3066.262, 7.5441644E-02
3068.190, 7.5454883E-02
3070.119, 7.6694436E-02
3072.047, 7.7686012E-02
3073.976, 7.6843753E-02
3075.904, 7.5159863E-02
3077.833, 7.4031577E-02
3079.761, 7.5486757E-02
3081.690, 7.6068059E-02
3083.618, 7.5440980E-02
3085.547, 7.6251127E-02
3087.475, 7.7375412E-02
3089.404, 7.7060387E-02
3091.332, 7.6606311E-02
3093.260, 7.6527148E-02
3095.189, 7.6991387E-02
3097.117, 7.6763369E-02
3099.046, 7.6195426E-02
3100.974, 7.6205216E-02
3102.903, 7.5283267E-02
3104.831, 7.5123273E-02
3106.760, 7.5934827E-02
3108.688, 7.6858781E-02
3110.617, 7.6240323E-02
3112.545, 7.4403323E-02
3114.474, 7.4158333E-02
3116.402, 7.5486638E-02
3118.331, 7.6026812E-02
3120.259, 7.5351059E-02
3122.188, 7.5232834E-02
3124.116, 7.6257654E-02
3126.044, 7.6932028E-02
3127.973, 7.6343462E-02
3129.901, 7.5870544E-02
3131.830, 7.4308433E-02
3133.758, 7.4497864E-02
3135.687, 7.6976478E-02
3137.615, 7.6817237E-02
3139.544, 7.7238157E-02
3141.472, 7.6968491E-02
3143.401, 7.5729899E-02
3145.329, 7.5915940E-02
3147.258, 7.5833172E-02
3149.186, 7.5694136E-02
3151.115, 7.5734846E-02
3153.043, 7.5591408E-02
3154.971, 7.5084187E-02
3156.900, 7.5443476E-02
3158.828, 7.5958088E-02
3160.757, 7.6418392E-02
3162.685, 7.6721087E-02
3164.614, 7.7444836E-02
3166.542, 7.8438662E-02
3168.471, 7.7738836E-02
3170.399, 7.6785132E-02
3172.328, 7.7781640E-02
3174.256, 7.8222036E-02
3176.185, 7.7502117E-02
3178.113, 7.6941133E-02
3180.042, 7.7332653E-02
3181.970, 7.7074073E-02
3183.898, 7.6681033E-02
3185.827, 7.6035969E-02
3187.755, 7.6558009E-02
3189.684, 7.6936208E-02
3191.612, 7.7723987E-02
3193.541, 7.7860817E-02
3195.469, 7.7771440E-02
3197.398, 7.7146336E-02
3199.326, 7.6831073E-02
3201.255, 7.6792531E-02
3203.183, 7.8847259E-02
3205.112, 7.9097733E-02
3207.040, 7.7586830E-02
3208.969, 7.8346618E-02
3210.897, 7.8209139E-02
3212.825, 8.0197923E-02
3214.754, 8.3012544E-02
3216.682, 8.2812950E-02
3218.611, 8.1562221E-02
3220.539, 8.1187516E-02
3222.468, 8.1540890E-02
3224.396, 8.3215497E-02
3226.325, 8.5112937E-02
3228.253, 8.4907293E-02
3230.182, 8.2180083E-02
3232.110, 8.2419023E-02
3234.039, 8.4476002E-02
3235.967, 8.5032947E-02
3237.896, 8.6158141E-02
3239.824, 8.7515160E-02
3241.752, 8.7725118E-02
3243.681, 8.6473562E-02
3245.609, 8.6294122E-02
3247.538, 8.7384157E-02
3249.466, 8.7035187E-02
3251.395, 8.6554348E-02
3253.323, 8.7490298E-02
3255.252, 8.9467362E-02
3257.180, 8.8416003E-02
3259.109, 8.7627038E-02
3261.037, 9.0037256E-02
3262.966, 9.1448687E-02
3264.894, 8.9846008E-02
3266.823, 8.9598693E-02
3268.751, 9.1872178E-02
3270.679, 9.3014978E-02
3272.608, 9.3164407E-02
3274.536, 9.4128199E-02
3276.465, 9.4706737E-02
3278.393, 9.4728462E-02
3280.322, 9.4097801E-02
3282.250, 9.5264457E-02
3284.179, 9.6370444E-02
3286.107, 9.7005181E-02
3288.036, 9.7049281E-02
3289.964, 9.6697778E-02
3291.893, 9.7771138E-02
3293.821, 9.9552937E-02
3295.750, 0.1019334
3297.678, 0.1033172
3299.606, 0.1024394
3301.535, 0.1001029
3303.463, 9.8803423E-02
3305.392, 9.9119373E-02
3307.320, 0.1001886
3309.249, 9.8584287E-02
3311.177, 9.6507363E-02
3313.106, 9.9353977E-02
3315.034, 0.1013012
3316.963, 0.1006469
3318.891, 0.1001200
3320.820, 0.1004842
3322.748, 0.1003085
3324.677, 9.8079473E-02
3326.605, 9.6021399E-02
3328.533, 9.5457569E-02
3330.462, 9.6262217E-02
3332.390, 9.9285640E-02
3334.319, 9.8906420E-02
3336.247, 9.6811712E-02
3338.176, 9.5767058E-02
3340.104, 9.5153719E-02
3342.033, 9.5931306E-02
3343.961, 9.6219510E-02
3345.890, 9.5118731E-02
3347.818, 9.3551360E-02
3349.747, 9.1707297E-02
3351.675, 9.0643004E-02
3353.604, 8.9388639E-02
3355.532, 9.0634547E-02
3357.460, 9.3163341E-02
3359.389, 9.3670301E-02
3361.317, 9.1022067E-02
3363.246, 9.0577647E-02
3365.174, 9.0317734E-02
3367.103, 8.9603022E-02
3369.031, 8.7850399E-02
3370.960, 8.5570037E-02
3372.888, 8.5043639E-02
3374.817, 8.5102446E-02
3376.745, 8.5089900E-02
3378.674, 8.6809017E-02
3380.602, 8.8618569E-02
3382.531, 8.8998690E-02
3384.459, 9.0197600E-02
3386.387, 8.9965560E-02
3388.316, 8.8393077E-02
3390.244, 8.7797828E-02
3392.173, 8.8681452E-02
3394.101, 8.9320824E-02
3396.030, 8.9058258E-02
3397.958, 8.8799819E-02
3399.887, 8.8170707E-02
3401.815, 8.9703113E-02
3403.744, 9.3818031E-02
3405.672, 9.5922537E-02
3407.601, 9.9448003E-02
3409.529, 0.1007800
3411.458, 0.1011677
3413.386, 0.1037431
3415.314, 0.1063156
3417.243, 0.1083232
3419.171, 0.1110951
3421.100, 0.1165464
3423.028, 0.1204750
3424.957, 0.1227465
3426.885, 0.1303487
3428.814, 0.1359995
3430.742, 0.1386838
3432.671, 0.1435017
3434.599, 0.1471370
3436.528, 0.1499496
3438.456, 0.1536679
3440.385, 0.1561805
3442.313, 0.1574658
3444.241, 0.1586301
3446.170, 0.1594005
3448.098, 0.1573924
3450.027, 0.1559070
3451.955, 0.1534338
3453.884, 0.1492369
3455.812, 0.1435900
3457.741, 0.1391837
3459.669, 0.1344391
3461.598, 0.1292722
3463.526, 0.1247481
3465.455, 0.1215480
3467.383, 0.1170338
3469.312, 0.1097633
3471.240, 0.1026975
3473.168, 9.4649248E-02
3475.097, 8.6681403E-02
3477.025, 8.0290668E-02
3478.954, 7.7619411E-02
3480.882, 7.7927142E-02
3482.811, 7.3431537E-02
3484.739, 6.6786528E-02
3486.668, 5.9789129E-02
3488.596, 5.5073410E-02
3490.525, 5.1931500E-02
3492.453, 4.9905561E-02
3494.382, 4.7538180E-02
3496.310, 4.4032499E-02
3498.239, 4.0421240E-02
3500.167, 3.9004151E-02
3502.095, 3.7001990E-02
3504.024, 3.5876241E-02
3505.952, 3.4748308E-02
3507.881, 3.1899441E-02
3509.809, 2.9869599E-02
3511.738, 2.8502220E-02
3513.666, 2.9669020E-02
3515.595, 3.0980600E-02
3517.523, 3.1216810E-02
3519.452, 3.0779811E-02
3521.380, 2.9638991E-02
3523.309, 2.8268719E-02
3525.237, 2.7281839E-02
3527.166, 2.8980531E-02
3529.094, 2.9737649E-02
3531.022, 3.1025929E-02
3532.951, 3.1054350E-02
3534.879, 2.9072560E-02
3536.808, 2.6397530E-02
3538.736, 2.6718641E-02
3540.665, 2.7780700E-02
3542.593, 2.6097670E-02
3544.522, 2.6316149E-02
3546.450, 2.6512420E-02
3548.379, 2.4001591E-02
3550.307, 2.4245970E-02
3552.236, 2.5894580E-02
3554.164, 2.6158830E-02
3556.093, 2.7716519E-02
3558.021, 2.5135040E-02
3559.949, 2.2907989E-02
3561.878, 2.4967009E-02
3563.806, 2.6152700E-02
3565.735, 2.4694860E-02
3567.663, 2.1268809E-02
3569.592, 1.9466650E-02
3571.520, 2.0420309E-02
3573.449, 2.1251200E-02
3575.377, 2.2657780E-02
3577.306, 2.2121171E-02
3579.234, 1.8870750E-02
3581.163, 1.9048721E-02
3583.091, 2.2072529E-02
3585.020, 2.0343080E-02
3586.948, 1.5307500E-02
3588.876, 1.6116209E-02
3590.805, 1.8911880E-02
3592.733, 2.0472361E-02
3594.662, 1.9838341E-02
3596.590, 1.7287910E-02
3598.519, 1.5420820E-02
3600.447, 1.3450120E-02
3602.376, 1.5285950E-02
3604.304, 1.6161470E-02
3606.233, 1.4375790E-02
3608.161, 1.6596770E-02
3610.090, 1.9145070E-02
3612.018, 1.7806860E-02
3613.947, 1.7898111E-02
3615.875, 1.4983340E-02
3617.803, 1.3122660E-02
3619.732, 1.6983850E-02
3621.660, 1.7152300E-02
3623.589, 1.6193720E-02
3625.517, 1.8159440E-02
3627.446, 1.7636759E-02
3629.374, 1.6178019E-02
3631.303, 1.6629281E-02
3633.231, 1.7142721E-02
3635.160, 1.7362971E-02
3637.088, 1.7488910E-02
3639.017, 1.5422310E-02
3640.945, 1.3466590E-02
3642.874, 1.4031250E-02
3644.802, 1.4518930E-02
3646.730, 1.6192030E-02
3648.659, 1.7292021E-02
3650.587, 1.6638270E-02
3652.516, 1.6299879E-02
3654.444, 1.3987860E-02
3656.373, 1.5269930E-02
3658.301, 1.7815471E-02
3660.230, 1.7521340E-02
3662.158, 1.6621349E-02
3664.087, 1.8171851E-02
3666.015, 1.6693849E-02
3667.944, 1.2144990E-02
3669.872, 9.9606048E-03
3671.801, 1.0078600E-02
3673.729, 1.5477240E-02
3675.657, 2.0013141E-02
3677.586, 1.8878611E-02
3679.514, 1.7296020E-02
3681.443, 1.6885400E-02
3683.371, 1.4576130E-02
3685.300, 1.6302841E-02
3687.228, 1.9558970E-02
3689.157, 1.7257700E-02
3691.085, 1.3991530E-02
3693.014, 1.3972050E-02
3694.942, 1.4858540E-02
3696.871, 1.4896090E-02
3698.799, 1.4348050E-02
3700.728, 1.3220180E-02
3702.656, 1.5523170E-02
3704.584, 1.6630599E-02
3706.513, 1.7403441E-02
3708.441, 1.7505160E-02
3710.370, 1.5315710E-02
3712.298, 1.4077150E-02
3714.227, 1.4192350E-02
3716.155, 1.6582521E-02
3718.084, 1.9492200E-02
3720.012, 1.7851260E-02
3721.941, 1.4164100E-02
3723.869, 1.5342900E-02
3725.798, 1.5097000E-02
3727.726, 1.3815470E-02
3729.655, 1.6283579E-02
3731.583, 1.7213089E-02
3733.511, 1.7356271E-02
3735.440, 1.7649749E-02
3737.368, 1.8393880E-02
3739.297, 2.0520739E-02
3741.225, 1.8289121E-02
3743.154, 1.3922680E-02
3745.082, 1.2989570E-02
3747.011, 1.5422210E-02
3748.939, 1.6828461E-02
3750.868, 1.5102370E-02
3752.796, 1.4342360E-02
3754.725, 1.6060309E-02
3756.653, 2.1154080E-02
3758.582, 1.8720990E-02
3760.510, 1.4477310E-02
3762.438, 1.6674301E-02
3764.367, 1.9768929E-02
3766.295, 2.0202249E-02
3768.224, 2.1080110E-02
3770.152, 1.8501541E-02
3772.081, 1.5744319E-02
3774.009, 1.7889891E-02
3775.938, 1.9709010E-02
3777.866, 1.8956590E-02
3779.795, 1.9250210E-02
3781.723, 2.1095470E-02
3783.652, 1.8851571E-02
3785.580, 1.9297320E-02
3787.509, 2.2214320E-02
3789.437, 2.0389810E-02
3791.365, 1.7696589E-02
3793.294, 1.6227569E-02
3795.222, 1.6165210E-02
3797.151, 1.7274600E-02
3799.079, 1.6401950E-02
3801.008, 1.9063409E-02
3802.936, 2.0386539E-02
3804.865, 1.7650390E-02
3806.793, 1.9648850E-02
3808.722, 1.9862760E-02
3810.650, 1.9717310E-02
3812.579, 1.5442780E-02
3814.507, 1.4216760E-02
3816.436, 1.7465070E-02
3818.364, 2.0661389E-02
3820.292, 1.6896810E-02
3822.221, 1.3019690E-02
3824.149, 1.3460650E-02
3826.078, 1.3610580E-02
3828.006, 1.7640060E-02
3829.935, 2.3112969E-02
3831.863, 2.1958491E-02
3833.792, 2.1960020E-02
3835.720, 2.4245851E-02
3837.649, 2.1597041E-02
3839.577, 1.9640921E-02
3841.506, 1.7805699E-02
3843.434, 1.8485500E-02
3845.363, 1.9330069E-02
3847.291, 2.1994850E-02
3849.219, 2.3284189E-02
3851.148, 2.2074301E-02
3853.076, 1.9979080E-02
3855.005, 1.9515650E-02
3856.933, 1.9026671E-02
3858.862, 1.9773990E-02
3860.790, 2.0895500E-02
3862.719, 1.9495910E-02
3864.647, 1.9710209E-02
3866.576, 2.1656130E-02
3868.504, 2.1431031E-02
3870.433, 2.2180030E-02
3872.361, 2.1881299E-02
3874.290, 2.1090999E-02
3876.218, 2.1033879E-02
3878.146, 2.0723511E-02
3880.075, 1.9706169E-02
3882.003, 1.9760471E-02
3883.932, 1.7861350E-02
3885.860, 1.7989419E-02
3887.789, 2.2168029E-02
3889.717, 2.0377651E-02
3891.646, 1.7060781E-02
3893.574, 1.8807931E-02
3895.503, 1.9760629E-02
3897.431, 2.1205740E-02
3899.360, 2.4505490E-02
3901.288, 2.1669069E-02
3903.217, 1.8545510E-02
3905.145, 1.6799111E-02
3907.073, 1.6948219E-02
3909.002, 1.9253140E-02
3910.930, 1.9258831E-02
3912.859, 2.1180591E-02
3914.787, 2.1427451E-02
3916.716, 1.9482510E-02
3918.644, 2.0418670E-02
3920.573, 2.1822641E-02
3922.501, 2.3293151E-02
3924.430, 2.3607820E-02
3926.358, 2.2663860E-02
3928.287, 1.8244240E-02
3930.215, 1.8798340E-02
3932.144, 2.0375879E-02
3934.072, 2.0130631E-02
3936.000, 2.2399589E-02
3937.929, 2.2858519E-02
3939.857, 1.9883269E-02
3941.786, 1.9458471E-02
3943.714, 2.1783890E-02
3945.643, 1.9882711E-02
3947.571, 1.9428290E-02
3949.500, 2.1325920E-02
3951.428, 1.9741930E-02
3953.357, 1.8596500E-02
3955.285, 2.0375380E-02
3957.214, 2.2280140E-02
3959.142, 2.1408010E-02
3961.071, 1.7416971E-02
3962.999, 1.8692160E-02
3964.927, 2.0439800E-02
3966.856, 2.1173460E-02
3968.784, 2.2258431E-02
3970.713, 2.0817420E-02
3972.641, 2.3408091E-02
3974.570, 2.4991510E-02
3976.498, 2.3416519E-02
3978.427, 2.0643860E-02
3980.355, 2.2294329E-02
3982.284, 2.4090709E-02
3984.212, 2.4446040E-02
3986.141, 1.9116450E-02
3988.069, 1.3935720E-02
3989.998, 1.6285250E-02
3991.926, 1.7956341E-02
3993.854, 1.7829310E-02
3995.783, 2.0172739E-02
3997.711, 2.3637580E-02
3999.640, 2.3648979E-02
##END=



