##NAMES=Ferro-pargasite
##RRUFFID=R090015
##IDEAL CHEMISTRY=NaCa_2_(Fe^2+^_4_Al)(Si_6_Al_2_)O_22_(OH)_2_
##LOCALITY=Basha Valley, Skardu District, Baltistan, Northern Areas, Pakistan
##OWNER=RRUFF
##SOURCE=Herb Obodda
##DESCRIPTION=Black bladed single crystal with striations
##STATUS=The identification of this mineral has been confirmed only by X-ray diffraction
##URL=rruff.info/R090015
3.741225e+002, 2.785467e-001
3.760510e+002, 2.689421e-001
3.779795e+002, 2.688665e-001
3.799079e+002, 2.799328e-001
3.818364e+002, 2.833734e-001
3.837649e+002, 2.837030e-001
3.856933e+002, 2.980352e-001
3.876218e+002, 2.977696e-001
3.895503e+002, 2.875696e-001
3.914787e+002, 2.832577e-001
3.934072e+002, 2.923323e-001
3.953357e+002, 2.958872e-001
3.972641e+002, 3.055785e-001
3.991926e+002, 3.040312e-001
4.011211e+002, 2.971157e-001
4.030495e+002, 2.942608e-001
4.049780e+002, 2.925627e-001
4.069065e+002, 2.875960e-001
4.088349e+002, 2.879571e-001
4.107634e+002, 2.880009e-001
4.126919e+002, 2.911853e-001
4.146203e+002, 2.940873e-001
4.165488e+002, 2.947117e-001
4.184773e+002, 2.968793e-001
4.204057e+002, 3.008232e-001
4.223342e+002, 3.010391e-001
4.242627e+002, 3.008930e-001
4.261911e+002, 3.010747e-001
4.281196e+002, 3.025243e-001
4.300481e+002, 3.026401e-001
4.319765e+002, 2.999727e-001
4.339050e+002, 2.979909e-001
4.358335e+002, 2.990845e-001
4.377619e+002, 2.982380e-001
4.396904e+002, 2.973445e-001
4.416189e+002, 2.982827e-001
4.435473e+002, 2.999897e-001
4.454758e+002, 3.007928e-001
4.474043e+002, 3.001297e-001
4.493327e+002, 2.987153e-001
4.512612e+002, 2.957435e-001
4.531897e+002, 2.917035e-001
4.551181e+002, 2.889377e-001
4.570466e+002, 2.840898e-001
4.589751e+002, 2.782562e-001
4.609035e+002, 2.734119e-001
4.628320e+002, 2.665323e-001
4.647605e+002, 2.581725e-001
4.666889e+002, 2.520097e-001
4.686174e+002, 2.455040e-001
4.705459e+002, 2.364384e-001
4.724743e+002, 2.287713e-001
4.744028e+002, 2.236930e-001
4.763313e+002, 2.157315e-001
4.782597e+002, 2.086000e-001
4.801882e+002, 2.049163e-001
4.821167e+002, 2.014063e-001
4.840451e+002, 1.974403e-001
4.859736e+002, 1.948008e-001
4.879021e+002, 1.938511e-001
4.898305e+002, 1.943653e-001
4.917590e+002, 1.955427e-001
4.936875e+002, 1.962718e-001
4.956159e+002, 1.972712e-001
4.975444e+002, 1.988015e-001
4.994729e+002, 1.993711e-001
5.014013e+002, 1.996496e-001
5.033298e+002, 1.993213e-001
5.052583e+002, 1.981568e-001
5.071867e+002, 1.967312e-001
5.091152e+002, 1.946653e-001
5.110437e+002, 1.925817e-001
5.129721e+002, 1.899068e-001
5.149006e+002, 1.864666e-001
5.168290e+002, 1.831590e-001
5.187575e+002, 1.799461e-001
5.206860e+002, 1.757465e-001
5.226144e+002, 1.716952e-001
5.245429e+002, 1.685941e-001
5.264714e+002, 1.654200e-001
5.283998e+002, 1.614900e-001
5.303283e+002, 1.571195e-001
5.322568e+002, 1.523104e-001
5.341852e+002, 1.474633e-001
5.361137e+002, 1.423906e-001
5.380422e+002, 1.368256e-001
5.399706e+002, 1.309755e-001
5.418991e+002, 1.246493e-001
5.438276e+002, 1.190167e-001
5.457560e+002, 1.131990e-001
5.476845e+002, 1.074078e-001
5.496130e+002, 1.022796e-001
5.515414e+002, 9.706089e-002
5.534699e+002, 9.222233e-002
5.553984e+002, 8.808059e-002
5.573268e+002, 8.355674e-002
5.592553e+002, 7.942939e-002
5.611838e+002, 7.599729e-002
5.631122e+002, 7.243069e-002
5.650407e+002, 6.909788e-002
5.669692e+002, 6.619900e-002
5.688976e+002, 6.349521e-002
5.708261e+002, 6.128387e-002
5.727546e+002, 5.913256e-002
5.746830e+002, 5.749699e-002
5.766115e+002, 5.632060e-002
5.785400e+002, 5.547035e-002
5.804684e+002, 5.501552e-002
5.823969e+002, 5.512327e-002
5.843254e+002, 5.522293e-002
5.862538e+002, 5.561995e-002
5.881823e+002, 5.625364e-002
5.901108e+002, 5.707598e-002
5.920392e+002, 5.851762e-002
5.939677e+002, 6.005242e-002
5.958962e+002, 6.133828e-002
5.978246e+002, 6.284018e-002
5.997531e+002, 6.465442e-002
6.016816e+002, 6.649771e-002
6.036100e+002, 6.810386e-002
6.055385e+002, 7.003773e-002
6.074670e+002, 7.185618e-002
6.093954e+002, 7.295968e-002
6.113239e+002, 7.402303e-002
6.132524e+002, 7.513222e-002
6.151808e+002, 7.577834e-002
6.171093e+002, 7.600126e-002
6.190378e+002, 7.607622e-002
6.209662e+002, 7.587007e-002
6.228947e+002, 7.582382e-002
6.248232e+002, 7.568471e-002
6.267516e+002, 7.533521e-002
6.286801e+002, 7.484114e-002
6.306086e+002, 7.458243e-002
6.325370e+002, 7.445113e-002
6.344655e+002, 7.433368e-002
6.363940e+002, 7.442644e-002
6.383224e+002, 7.418770e-002
6.402509e+002, 7.358225e-002
6.421794e+002, 7.352405e-002
6.441078e+002, 7.424104e-002
6.460363e+002, 7.494703e-002
6.479648e+002, 7.580377e-002
6.498932e+002, 7.717221e-002
6.518217e+002, 7.881262e-002
6.537502e+002, 8.035484e-002
6.556786e+002, 8.203617e-002
6.576071e+002, 8.378164e-002
6.595356e+002, 8.528022e-002
6.614641e+002, 8.645269e-002
6.633925e+002, 8.765568e-002
6.653210e+002, 8.914189e-002
6.672495e+002, 9.078083e-002
6.691779e+002, 9.185491e-002
6.711064e+002, 9.233578e-002
6.730349e+002, 9.209150e-002
6.749633e+002, 9.090673e-002
6.768918e+002, 8.915871e-002
6.788203e+002, 8.690896e-002
6.807487e+002, 8.465709e-002
6.826772e+002, 8.263576e-002
6.846057e+002, 8.079829e-002
6.865341e+002, 7.944605e-002
6.884626e+002, 7.852327e-002
6.903911e+002, 7.773897e-002
6.923195e+002, 7.710696e-002
6.942480e+002, 7.638245e-002
6.961765e+002, 7.555705e-002
6.981049e+002, 7.437149e-002
7.000334e+002, 7.271772e-002
7.019619e+002, 7.094660e-002
7.038903e+002, 6.944553e-002
7.058188e+002, 6.812120e-002
7.077473e+002, 6.744082e-002
7.096757e+002, 6.748362e-002
7.116042e+002, 6.807293e-002
7.135327e+002, 6.896524e-002
7.154611e+002, 7.015429e-002
7.173896e+002, 7.166418e-002
7.193181e+002, 7.316113e-002
7.212465e+002, 7.483581e-002
7.231750e+002, 7.689173e-002
7.251035e+002, 7.907766e-002
7.270319e+002, 8.089975e-002
7.289604e+002, 8.199193e-002
7.308889e+002, 8.242226e-002
7.328173e+002, 8.204672e-002
7.347458e+002, 8.110245e-002
7.366743e+002, 8.007336e-002
7.386027e+002, 7.904413e-002
7.405312e+002, 7.818410e-002
7.424597e+002, 7.764911e-002
7.443881e+002, 7.742359e-002
7.463166e+002, 7.729588e-002
7.482451e+002, 7.715968e-002
7.501735e+002, 7.733739e-002
7.521020e+002, 7.788022e-002
7.540305e+002, 7.890162e-002
7.559589e+002, 8.022275e-002
7.578874e+002, 8.188435e-002
7.598159e+002, 8.404735e-002
7.617443e+002, 8.665539e-002
7.636728e+002, 8.951014e-002
7.656013e+002, 9.254716e-002
7.675297e+002, 9.573682e-002
7.694582e+002, 9.868363e-002
7.713867e+002, 1.014735e-001
7.733151e+002, 1.044604e-001
7.752436e+002, 1.075863e-001
7.771721e+002, 1.105375e-001
7.791005e+002, 1.132885e-001
7.810290e+002, 1.158104e-001
7.829575e+002, 1.181334e-001
7.848859e+002, 1.203003e-001
7.868144e+002, 1.220797e-001
7.887429e+002, 1.235646e-001
7.906713e+002, 1.245752e-001
7.925998e+002, 1.249448e-001
7.945283e+002, 1.248877e-001
7.964567e+002, 1.246838e-001
7.983852e+002, 1.240345e-001
8.003137e+002, 1.230625e-001
8.022421e+002, 1.219846e-001
8.041706e+002, 1.209419e-001
8.060991e+002, 1.201174e-001
8.080275e+002, 1.194187e-001
8.099560e+002, 1.192496e-001
8.118845e+002, 1.200042e-001
8.138129e+002, 1.212645e-001
8.157414e+002, 1.231288e-001
8.176699e+002, 1.259228e-001
8.195983e+002, 1.298379e-001
8.215268e+002, 1.346918e-001
8.234553e+002, 1.402995e-001
8.253837e+002, 1.467028e-001
8.273122e+002, 1.537966e-001
8.292407e+002, 1.615521e-001
8.311691e+002, 1.697078e-001
8.330976e+002, 1.785005e-001
8.350261e+002, 1.879864e-001
8.369545e+002, 1.980063e-001
8.388830e+002, 2.081571e-001
8.408115e+002, 2.185754e-001
8.427399e+002, 2.291281e-001
8.446684e+002, 2.392767e-001
8.465969e+002, 2.488632e-001
8.485253e+002, 2.577468e-001
8.504538e+002, 2.658735e-001
8.523823e+002, 2.734186e-001
8.543107e+002, 2.803679e-001
8.562392e+002, 2.863580e-001
8.581677e+002, 2.916737e-001
8.600961e+002, 2.962490e-001
8.620246e+002, 3.002697e-001
8.639531e+002, 3.036198e-001
8.658815e+002, 3.062455e-001
8.678100e+002, 3.084133e-001
8.697385e+002, 3.104753e-001
8.716669e+002, 3.121870e-001
8.735954e+002, 3.138286e-001
8.755239e+002, 3.159644e-001
8.774523e+002, 3.183185e-001
8.793808e+002, 3.209500e-001
8.813093e+002, 3.240877e-001
8.832377e+002, 3.275649e-001
8.851662e+002, 3.315615e-001
8.870947e+002, 3.355476e-001
8.890231e+002, 3.396704e-001
8.909516e+002, 3.444262e-001
8.928801e+002, 3.494982e-001
8.948085e+002, 3.547551e-001
8.967370e+002, 3.601739e-001
8.986655e+002, 3.658220e-001
9.005939e+002, 3.716474e-001
9.025224e+002, 3.770747e-001
9.044509e+002, 3.819011e-001
9.063793e+002, 3.860413e-001
9.083078e+002, 3.893840e-001
9.102363e+002, 3.920583e-001
9.121647e+002, 3.938576e-001
9.140932e+002, 3.948921e-001
9.160217e+002, 3.957600e-001
9.179501e+002, 3.963779e-001
9.198786e+002, 3.967009e-001
9.218071e+002, 3.967182e-001
9.237355e+002, 3.962523e-001
9.256640e+002, 3.951862e-001
9.275925e+002, 3.939433e-001
9.295209e+002, 3.920611e-001
9.314494e+002, 3.895095e-001
9.333779e+002, 3.865053e-001
9.353063e+002, 3.832068e-001
9.372348e+002, 3.795367e-001
9.391633e+002, 3.752261e-001
9.410917e+002, 3.708746e-001
9.430202e+002, 3.663511e-001
9.449487e+002, 3.613148e-001
9.468771e+002, 3.563946e-001
9.488056e+002, 3.513775e-001
9.507341e+002, 3.464455e-001
9.526625e+002, 3.417637e-001
9.545910e+002, 3.369326e-001
9.565195e+002, 3.321615e-001
9.584479e+002, 3.275956e-001
9.603764e+002, 3.227549e-001
9.623049e+002, 3.178232e-001
9.642333e+002, 3.130115e-001
9.661618e+002, 3.081648e-001
9.680903e+002, 3.026966e-001
9.700187e+002, 2.968504e-001
9.719472e+002, 2.906794e-001
9.738757e+002, 2.842395e-001
9.758041e+002, 2.773067e-001
9.777326e+002, 2.699384e-001
9.796611e+002, 2.624871e-001
9.815895e+002, 2.548195e-001
9.835180e+002, 2.470399e-001
9.854465e+002, 2.393907e-001
9.873749e+002, 2.315931e-001
9.893034e+002, 2.238168e-001
9.912319e+002, 2.161070e-001
9.931603e+002, 2.089069e-001
9.950888e+002, 2.020637e-001
9.970173e+002, 1.954301e-001
9.989457e+002, 1.892108e-001
1.000874e+003, 1.836430e-001
1.002803e+003, 1.786161e-001
1.004731e+003, 1.741784e-001
1.006660e+003, 1.704544e-001
1.008588e+003, 1.674762e-001
1.010517e+003, 1.651092e-001
1.012445e+003, 1.633475e-001
1.014373e+003, 1.620859e-001
1.016302e+003, 1.612185e-001
1.018230e+003, 1.605684e-001
1.020159e+003, 1.601402e-001
1.022087e+003, 1.598379e-001
1.024016e+003, 1.595244e-001
1.025944e+003, 1.589916e-001
1.027873e+003, 1.583320e-001
1.029801e+003, 1.577888e-001
1.031730e+003, 1.571347e-001
1.033658e+003, 1.562480e-001
1.035587e+003, 1.555810e-001
1.037515e+003, 1.549461e-001
1.039443e+003, 1.539920e-001
1.041372e+003, 1.528600e-001
1.043300e+003, 1.517047e-001
1.045229e+003, 1.504223e-001
1.047157e+003, 1.485342e-001
1.049086e+003, 1.460444e-001
1.051014e+003, 1.432672e-001
1.052943e+003, 1.399871e-001
1.054871e+003, 1.364060e-001
1.056800e+003, 1.327491e-001
1.058728e+003, 1.290800e-001
1.060657e+003, 1.255955e-001
1.062585e+003, 1.221479e-001
1.064514e+003, 1.189206e-001
1.066442e+003, 1.160192e-001
1.068370e+003, 1.131137e-001
1.070299e+003, 1.102817e-001
1.072227e+003, 1.075169e-001
1.074156e+003, 1.045672e-001
1.076084e+003, 1.016483e-001
1.078013e+003, 9.886220e-002
1.079941e+003, 9.606297e-002
1.081870e+003, 9.314729e-002
1.083798e+003, 9.005100e-002
1.085727e+003, 8.682775e-002
1.087655e+003, 8.353388e-002
1.089584e+003, 8.028298e-002
1.091512e+003, 7.693885e-002
1.093441e+003, 7.354038e-002
1.095369e+003, 7.010607e-002
1.097297e+003, 6.669863e-002
1.099226e+003, 6.356173e-002
1.101154e+003, 6.055830e-002
1.103083e+003, 5.766961e-002
1.105011e+003, 5.486835e-002
1.106940e+003, 5.205045e-002
1.108868e+003, 4.921072e-002
1.110797e+003, 4.641075e-002
1.112725e+003, 4.365742e-002
1.114654e+003, 4.084696e-002
1.116582e+003, 3.795523e-002
1.118511e+003, 3.518505e-002
1.120439e+003, 3.255168e-002
1.122368e+003, 2.984530e-002
1.124296e+003, 2.714209e-002
1.126224e+003, 2.458894e-002
1.128153e+003, 2.219152e-002
1.130081e+003, 1.989291e-002
1.132010e+003, 1.789598e-002
1.133938e+003, 1.603261e-002
1.135867e+003, 1.441164e-002
1.137795e+003, 1.309842e-002
1.139724e+003, 1.205607e-002
1.141652e+003, 1.121924e-002
1.143581e+003, 1.055444e-002
1.145509e+003, 9.937450e-003
1.147438e+003, 9.282758e-003
1.149366e+003, 8.780828e-003
1.151295e+003, 8.484335e-003
1.153223e+003, 8.155226e-003
1.155151e+003, 7.854828e-003
1.157080e+003, 7.612693e-003
1.159008e+003, 7.291134e-003
1.160937e+003, 6.904027e-003
1.162865e+003, 6.523829e-003
1.164794e+003, 6.381183e-003
1.166722e+003, 6.369001e-003
1.168651e+003, 6.227999e-003
1.170579e+003, 6.005964e-003
1.172508e+003, 5.803430e-003
1.174436e+003, 5.607682e-003
1.176365e+003, 5.441907e-003
1.178293e+003, 5.276610e-003
1.180222e+003, 5.053180e-003
1.182150e+003, 4.829017e-003
1.184078e+003, 4.637214e-003
1.186007e+003, 4.537080e-003
1.187935e+003, 4.370090e-003
1.189864e+003, 4.303831e-003
1.191792e+003, 4.218162e-003
1.193721e+003, 4.032863e-003
1.195649e+003, 3.886529e-003
1.197578e+003, 3.838909e-003
1.199506e+003, 3.872639e-003
1.201435e+003, 3.754399e-003
1.203363e+003, 3.611857e-003
1.205292e+003, 3.693974e-003
1.207220e+003, 3.706694e-003
1.209149e+003, 3.594613e-003
1.211077e+003, 3.464252e-003
1.213005e+003, 3.338184e-003
1.214934e+003, 3.232386e-003
1.216862e+003, 3.264251e-003
1.218791e+003, 3.373984e-003
1.220719e+003, 3.296051e-003
1.222648e+003, 3.078947e-003
1.224576e+003, 3.027085e-003
1.226505e+003, 3.069252e-003
1.228433e+003, 3.046083e-003
1.230362e+003, 3.049308e-003
1.232290e+003, 3.046085e-003
1.234219e+003, 2.971774e-003
1.236147e+003, 2.912712e-003
1.238076e+003, 2.845380e-003
1.240004e+003, 2.786381e-003
1.241932e+003, 2.830757e-003
1.243861e+003, 2.825217e-003
1.245789e+003, 2.752263e-003
1.247718e+003, 2.776475e-003
1.249646e+003, 2.759672e-003
1.251575e+003, 2.731428e-003
1.253503e+003, 2.782898e-003
1.255432e+003, 2.786560e-003
1.257360e+003, 2.627608e-003
1.259289e+003, 2.485596e-003
1.261217e+003, 2.577866e-003
1.263146e+003, 2.647877e-003
1.265074e+003, 2.685666e-003
1.267003e+003, 2.634763e-003
1.268931e+003, 2.595314e-003
1.270859e+003, 2.655196e-003
1.272788e+003, 2.597034e-003
1.274716e+003, 2.553539e-003
1.276645e+003, 2.564467e-003
1.278573e+003, 2.570732e-003
1.280502e+003, 2.698538e-003
1.282430e+003, 2.695697e-003
1.284359e+003, 2.669616e-003
1.286287e+003, 2.679203e-003
1.288216e+003, 2.462659e-003
1.290144e+003, 2.261424e-003
1.292073e+003, 2.382127e-003
1.294001e+003, 2.544252e-003
1.295930e+003, 2.457180e-003
1.297858e+003, 2.348005e-003
1.299786e+003, 2.403188e-003
1.301715e+003, 2.505358e-003
1.303643e+003, 2.530733e-003
1.305572e+003, 2.461017e-003
1.307500e+003, 2.528238e-003
1.309429e+003, 2.645295e-003
1.311357e+003, 2.687315e-003
1.313286e+003, 2.728095e-003
1.315214e+003, 2.743894e-003
1.317143e+003, 2.821915e-003
1.319071e+003, 2.919048e-003
1.321000e+003, 2.863021e-003
1.322928e+003, 2.646515e-003
1.324857e+003, 2.645006e-003
1.326785e+003, 2.717504e-003
1.328714e+003, 2.775351e-003
1.330642e+003, 2.869467e-003
1.332570e+003, 2.918102e-003
1.334499e+003, 2.847820e-003
1.336427e+003, 2.901526e-003
1.338356e+003, 2.976459e-003
1.340284e+003, 2.980454e-003
1.342213e+003, 3.038939e-003
1.344141e+003, 3.210197e-003
1.346070e+003, 3.239129e-003
1.347998e+003, 3.240960e-003
1.349927e+003, 3.233922e-003
1.351855e+003, 3.204375e-003
1.353784e+003, 3.283793e-003
1.355712e+003, 3.407253e-003
1.357641e+003, 3.441078e-003
1.359569e+003, 3.538699e-003
1.361497e+003, 3.640229e-003
1.363426e+003, 3.732138e-003
1.365354e+003, 3.733976e-003
1.367283e+003, 3.785865e-003
1.369211e+003, 3.848619e-003
1.371140e+003, 4.095491e-003
1.373068e+003, 4.240867e-003
1.374997e+003, 4.177979e-003
1.376925e+003, 4.288298e-003
1.378854e+003, 4.384611e-003
1.380782e+003, 4.352560e-003
1.382711e+003, 4.394428e-003
1.384639e+003, 4.450769e-003
1.386568e+003, 4.629003e-003
1.388496e+003, 4.806745e-003
1.390424e+003, 4.837730e-003
1.392353e+003, 4.914690e-003
1.394281e+003, 5.101604e-003
1.396210e+003, 5.210256e-003
1.398138e+003, 5.173229e-003
1.400067e+003, 5.174261e-003
1.401995e+003, 5.356751e-003
1.403924e+003, 5.534138e-003
1.405852e+003, 5.704049e-003
1.407781e+003, 5.797078e-003
1.409709e+003, 5.851588e-003
1.411638e+003, 5.895979e-003
1.413566e+003, 5.952297e-003
1.415495e+003, 6.034658e-003
1.417423e+003, 6.168456e-003
1.419351e+003, 6.236019e-003
1.421280e+003, 6.110243e-003
1.423208e+003, 6.128708e-003
1.425137e+003, 6.246925e-003
1.427065e+003, 6.247046e-003
1.428994e+003, 6.208170e-003
1.430922e+003, 6.293871e-003
1.432851e+003, 6.279027e-003
1.434779e+003, 6.265419e-003
1.436708e+003, 6.374710e-003
1.438636e+003, 6.231477e-003
1.440565e+003, 6.007294e-003
1.442493e+003, 5.944387e-003
1.444422e+003, 6.081569e-003
1.446350e+003, 6.222223e-003
1.448278e+003, 6.118851e-003
1.450207e+003, 6.053330e-003
1.452135e+003, 6.202208e-003
1.454064e+003, 6.220889e-003
1.455992e+003, 6.501474e-003
1.457921e+003, 6.555652e-003
1.459849e+003, 6.180722e-003
1.461778e+003, 5.951368e-003
1.463706e+003, 6.064315e-003
1.465635e+003, 6.283679e-003
1.467563e+003, 6.212087e-003
1.469492e+003, 6.177363e-003
1.471420e+003, 6.375990e-003
1.473349e+003, 6.477228e-003
1.475277e+003, 6.408422e-003
1.477205e+003, 6.300464e-003
1.479134e+003, 6.236964e-003
1.481062e+003, 6.198505e-003
1.482991e+003, 6.139291e-003
1.484919e+003, 6.147803e-003
1.486848e+003, 6.265401e-003
1.488776e+003, 6.414787e-003
1.490705e+003, 6.440690e-003
1.492633e+003, 6.334382e-003
1.494562e+003, 6.416416e-003
1.496490e+003, 6.620511e-003
1.498419e+003, 6.585843e-003
1.500347e+003, 6.508290e-003
1.502276e+003, 6.480546e-003
1.504204e+003, 6.633385e-003
1.506132e+003, 7.007319e-003
1.508061e+003, 6.967234e-003
1.509989e+003, 6.603160e-003
1.511918e+003, 6.426506e-003
1.513846e+003, 6.355172e-003
1.515775e+003, 6.397130e-003
1.517703e+003, 6.531047e-003
1.519632e+003, 6.681989e-003
1.521560e+003, 6.658571e-003
1.523489e+003, 6.297632e-003
1.525417e+003, 6.294468e-003
1.527346e+003, 6.376856e-003
1.529274e+003, 6.330875e-003
1.531203e+003, 6.342432e-003
1.533131e+003, 6.457552e-003
1.535059e+003, 6.274380e-003
1.536988e+003, 6.272742e-003
1.538916e+003, 6.771920e-003
1.540845e+003, 6.790092e-003
1.542773e+003, 6.364123e-003
1.544702e+003, 6.222818e-003
1.546630e+003, 6.121910e-003
1.548559e+003, 6.037005e-003
1.550487e+003, 5.984541e-003
1.552416e+003, 5.981026e-003
1.554344e+003, 6.127194e-003
1.556273e+003, 6.344885e-003
1.558201e+003, 6.878893e-003
1.560130e+003, 6.768183e-003
1.562058e+003, 5.998701e-003
1.563986e+003, 5.824500e-003
1.565915e+003, 5.880500e-003
1.567843e+003, 5.945009e-003
1.569772e+003, 5.969890e-003
1.571700e+003, 5.902886e-003
1.573629e+003, 5.982802e-003
1.575557e+003, 6.258285e-003
1.577486e+003, 6.135135e-003
1.579414e+003, 5.963547e-003
1.581343e+003, 5.985937e-003
1.583271e+003, 5.874068e-003
1.585200e+003, 5.783856e-003
1.587128e+003, 5.617125e-003
1.589057e+003, 5.744285e-003
1.590985e+003, 6.004104e-003
1.592913e+003, 5.945682e-003
1.594842e+003, 5.908317e-003
1.596770e+003, 5.988670e-003
1.598699e+003, 6.031695e-003
1.600627e+003, 6.132003e-003
1.602556e+003, 6.089134e-003
1.604484e+003, 6.080153e-003
1.606413e+003, 6.054220e-003
1.608341e+003, 5.985748e-003
1.610270e+003, 5.957566e-003
1.612198e+003, 5.996052e-003
1.614127e+003, 6.342811e-003
1.616055e+003, 6.706650e-003
1.617984e+003, 6.445377e-003
1.619912e+003, 6.084809e-003
1.621840e+003, 6.148423e-003
1.623769e+003, 6.312922e-003
1.625697e+003, 6.388953e-003
1.627626e+003, 6.323768e-003
1.629554e+003, 6.187176e-003
1.631483e+003, 6.222852e-003
1.633411e+003, 6.456168e-003
1.635340e+003, 6.663780e-003
1.637268e+003, 6.498287e-003
1.639197e+003, 6.194239e-003
1.641125e+003, 6.128515e-003
1.643054e+003, 6.182328e-003
1.644982e+003, 6.525689e-003
1.646911e+003, 6.608015e-003
1.648839e+003, 6.370038e-003
1.650767e+003, 6.644133e-003
1.652696e+003, 7.152644e-003
1.654624e+003, 6.567466e-003
1.656553e+003, 6.054902e-003
1.658481e+003, 6.098968e-003
1.660410e+003, 6.023504e-003
1.662338e+003, 6.001729e-003
1.664267e+003, 6.009691e-003
1.666195e+003, 5.915734e-003
1.668124e+003, 6.076613e-003
1.670052e+003, 6.070859e-003
1.671981e+003, 5.923588e-003
1.673909e+003, 5.920914e-003
1.675838e+003, 5.754774e-003
1.677766e+003, 5.383615e-003
1.679694e+003, 5.388962e-003
1.681623e+003, 5.655022e-003
1.683551e+003, 6.068737e-003
1.685480e+003, 5.872038e-003
1.687408e+003, 5.378503e-003
1.689337e+003, 5.304812e-003
1.691265e+003, 5.178292e-003
1.693194e+003, 5.252394e-003
1.695122e+003, 5.853370e-003
1.697051e+003, 5.766687e-003
1.698979e+003, 5.600671e-003
1.700908e+003, 5.556150e-003
1.702836e+003, 4.915017e-003
1.704765e+003, 4.861963e-003
1.706693e+003, 4.823408e-003
1.708621e+003, 4.747373e-003
1.710550e+003, 4.688736e-003
1.712478e+003, 4.663590e-003
1.714407e+003, 4.799471e-003
1.716335e+003, 5.179119e-003
1.718264e+003, 5.122168e-003
1.720192e+003, 4.646064e-003
1.722121e+003, 4.539030e-003
1.724049e+003, 4.415447e-003
1.725978e+003, 4.234889e-003
1.727906e+003, 4.288450e-003
1.729835e+003, 4.406980e-003
1.731763e+003, 4.725193e-003
1.733692e+003, 5.049903e-003
1.735620e+003, 4.679123e-003
1.737548e+003, 4.202670e-003
1.739477e+003, 4.152802e-003
1.741405e+003, 3.971893e-003
1.743334e+003, 3.640044e-003
1.745262e+003, 3.531590e-003
1.747191e+003, 3.416740e-003
1.749119e+003, 3.539688e-003
1.751048e+003, 3.701168e-003
1.752976e+003, 3.518150e-003
1.754905e+003, 3.499360e-003
1.756833e+003, 3.742132e-003
1.758762e+003, 3.700920e-003
1.760690e+003, 3.659201e-003
1.762619e+003, 3.661975e-003
1.764547e+003, 3.538870e-003
1.766475e+003, 3.456369e-003
1.768404e+003, 3.624322e-003
1.770332e+003, 3.813359e-003
1.772261e+003, 4.054199e-003
1.774189e+003, 3.909532e-003
1.776118e+003, 3.562399e-003
1.778046e+003, 3.469924e-003
1.779975e+003, 3.379444e-003
1.781903e+003, 3.211042e-003
1.783832e+003, 3.316733e-003
1.785760e+003, 3.500456e-003
1.787689e+003, 3.438432e-003
1.789617e+003, 3.367225e-003
1.791546e+003, 3.573530e-003
1.793474e+003, 3.575175e-003
1.795402e+003, 3.458197e-003
1.797331e+003, 3.469934e-003
1.799259e+003, 3.405042e-003
1.801188e+003, 3.370572e-003
1.803116e+003, 3.088390e-003
1.805045e+003, 3.022173e-003
1.806973e+003, 3.054620e-003
1.808902e+003, 3.056685e-003
1.810830e+003, 3.161512e-003
1.812759e+003, 3.416402e-003
1.814687e+003, 3.233096e-003
1.816616e+003, 2.826146e-003
1.818544e+003, 2.959603e-003
1.820473e+003, 3.140411e-003
1.822401e+003, 2.943896e-003
1.824329e+003, 2.907523e-003
1.826258e+003, 3.104673e-003
1.828186e+003, 3.285303e-003
1.830115e+003, 3.312708e-003
1.832043e+003, 3.137079e-003
1.833972e+003, 2.799065e-003
1.835900e+003, 2.639777e-003
1.837829e+003, 2.988440e-003
1.839757e+003, 3.002232e-003
1.841686e+003, 2.787724e-003
1.843614e+003, 2.592435e-003
1.845543e+003, 2.746518e-003
1.847471e+003, 2.961830e-003
1.849400e+003, 2.855216e-003
1.851328e+003, 2.715951e-003
1.853256e+003, 2.629949e-003
1.855185e+003, 2.479515e-003
1.857113e+003, 2.366195e-003
1.859042e+003, 2.369776e-003
1.860970e+003, 2.583279e-003
1.862899e+003, 2.494575e-003
1.864827e+003, 2.555865e-003
1.866756e+003, 2.757161e-003
1.868684e+003, 2.796112e-003
1.870613e+003, 2.536218e-003
1.872541e+003, 2.336096e-003
1.874470e+003, 2.090399e-003
1.876398e+003, 2.087620e-003
1.878327e+003, 2.365682e-003
1.880255e+003, 2.306105e-003
1.882183e+003, 2.226831e-003
1.884112e+003, 2.118681e-003
1.886040e+003, 2.285170e-003
1.887969e+003, 2.547069e-003
1.889897e+003, 2.457290e-003
1.891826e+003, 2.337307e-003
1.893754e+003, 2.268731e-003
1.895683e+003, 2.514436e-003
1.897611e+003, 2.785493e-003
1.899540e+003, 2.467129e-003
1.901468e+003, 2.232805e-003
1.903397e+003, 2.208874e-003
1.905325e+003, 2.203066e-003
1.907254e+003, 2.150690e-003
1.909182e+003, 2.327872e-003
1.911110e+003, 2.285349e-003
1.913039e+003, 2.360674e-003
1.914967e+003, 1.992556e-003
1.916896e+003, 2.120113e-003
1.918824e+003, 2.489194e-003
1.920753e+003, 2.649595e-003
1.922681e+003, 2.424684e-003
1.924610e+003, 1.829467e-003
1.926538e+003, 1.453748e-003
1.928467e+003, 1.390292e-003
1.930395e+003, 1.585276e-003
1.932324e+003, 1.676201e-003
1.934252e+003, 1.381358e-003
1.936181e+003, 1.290544e-003
1.938109e+003, 1.644445e-003
1.940037e+003, 1.373562e-003
1.941966e+003, 1.275867e-003
1.943894e+003, 1.362514e-003
1.945823e+003, 1.041678e-003
1.947751e+003, 6.950079e-004
1.949680e+003, 4.297901e-004
1.951608e+003, 1.600431e-004
1.953537e+003, 6.212542e-004
1.955465e+003, 7.301485e-004
1.957394e+003, 4.146806e-004
1.959322e+003, 1.026280e-003
1.961251e+003, 1.335812e-003
1.963179e+003, 1.120589e-003
1.965108e+003, 6.698617e-004
1.967036e+003, -6.311806e-004
1.968964e+003, -2.851125e-004
1.970893e+003, 9.394551e-004
1.972821e+003, 1.677348e-003
1.974750e+003, 1.293696e-003
1.976678e+003, 1.449238e-003
1.978607e+003, 3.292385e-003
1.980535e+003, 5.294108e-003
1.982464e+003, 4.107298e-003
1.984392e+003, 2.956218e-003
1.986321e+003, 3.438416e-003
1.988249e+003, 2.775776e-003
1.990178e+003, 2.421022e-003
1.992106e+003, 3.315904e-003
1.994035e+003, 3.341621e-003
1.995963e+003, 3.684357e-003
1.997891e+003, 4.094332e-003
1.999820e+003, 3.390040e-003
2.001748e+003, 2.716715e-003
2.003677e+003, 1.837049e-003
2.005605e+003, 1.740194e-003
2.007534e+003, 3.134605e-003
2.009462e+003, 2.863188e-003
2.011391e+003, 2.538153e-003
2.013319e+003, 2.694542e-003
2.015248e+003, 2.462923e-003
2.017176e+003, 2.821522e-003
2.019105e+003, 3.028261e-003
2.021033e+003, 2.435214e-003
2.022962e+003, 2.769331e-003
2.024890e+003, 3.369024e-003
2.026818e+003, 3.526614e-003
2.028747e+003, 3.459145e-003
2.030675e+003, 3.841696e-003
2.032604e+003, 3.407121e-003
2.034532e+003, 3.571563e-003
2.036461e+003, 4.255207e-003
2.038389e+003, 4.789551e-003
2.040318e+003, 5.313864e-003
2.042246e+003, 4.939275e-003
2.044175e+003, 3.885498e-003
2.046103e+003, 3.000112e-003
2.048031e+003, 3.762802e-003
2.049960e+003, 5.862923e-003
2.051888e+003, 5.326281e-003
2.053817e+003, 3.641325e-003
2.055745e+003, 3.010860e-003
2.057674e+003, 3.081813e-003
2.059602e+003, 3.153052e-003
2.061531e+003, 2.956805e-003
2.063459e+003, 2.879898e-003
2.065388e+003, 3.617917e-003
2.067316e+003, 4.032047e-003
2.069245e+003, 3.766976e-003
2.071173e+003, 4.093640e-003
2.073102e+003, 4.235848e-003
2.075030e+003, 4.135006e-003
2.076958e+003, 4.008840e-003
2.078887e+003, 4.248545e-003
2.080815e+003, 4.214765e-003
2.082744e+003, 3.749589e-003
2.084672e+003, 3.737566e-003
2.086601e+003, 3.982421e-003
2.088529e+003, 4.061596e-003
2.090458e+003, 3.682906e-003
2.092386e+003, 3.116961e-003
2.094315e+003, 3.107180e-003
2.096243e+003, 3.823270e-003
2.098172e+003, 4.374761e-003
2.100100e+003, 4.687687e-003
2.102029e+003, 5.009861e-003
2.103957e+003, 4.808345e-003
2.105885e+003, 4.999504e-003
2.107814e+003, 5.200398e-003
2.109742e+003, 5.127573e-003
2.111671e+003, 5.096703e-003
2.113599e+003, 4.864692e-003
2.115528e+003, 4.662533e-003
2.117456e+003, 4.447024e-003
2.119385e+003, 4.075611e-003
2.121313e+003, 3.515001e-003
2.123242e+003, 3.100348e-003
2.125170e+003, 3.011258e-003
2.127099e+003, 2.804890e-003
2.129027e+003, 2.398151e-003
2.130956e+003, 2.365506e-003
2.132884e+003, 2.041782e-003
2.134813e+003, 2.130279e-003
2.136741e+003, 3.555446e-003
2.138669e+003, 4.190076e-003
2.140598e+003, 3.675022e-003
2.142526e+003, 3.247783e-003
2.144455e+003, 3.004245e-003
2.146383e+003, 2.404081e-003
2.148312e+003, 2.615978e-003
2.150240e+003, 2.960579e-003
2.152169e+003, 2.650293e-003
2.154097e+003, 2.482225e-003
2.156026e+003, 2.612012e-003
2.157954e+003, 4.925909e-003
2.159883e+003, 8.570814e-003
2.161811e+003, 9.562363e-003
2.163740e+003, 8.945011e-003
2.165668e+003, 8.732034e-003
2.167596e+003, 8.388340e-003
2.169525e+003, 7.691312e-003
2.171453e+003, 7.446215e-003
2.173382e+003, 6.704138e-003
2.175310e+003, 6.304288e-003
2.177239e+003, 7.830730e-003
2.179167e+003, 7.174594e-003
2.181096e+003, 6.774269e-003
2.183024e+003, 7.941529e-003
2.184953e+003, 8.378831e-003
2.186881e+003, 8.067803e-003
2.188810e+003, 7.049637e-003
2.190738e+003, 7.215272e-003
2.192667e+003, 8.256766e-003
2.194595e+003, 8.481981e-003
2.196523e+003, 8.667779e-003
2.198452e+003, 8.306395e-003
2.200380e+003, 7.977197e-003
2.202309e+003, 7.950570e-003
2.204237e+003, 8.361088e-003
2.206166e+003, 8.298024e-003
2.208094e+003, 8.500828e-003
2.210023e+003, 8.738264e-003
2.211951e+003, 8.434304e-003
2.213880e+003, 7.892604e-003
2.215808e+003, 8.048628e-003
2.217737e+003, 8.365796e-003
2.219665e+003, 8.306287e-003
2.221594e+003, 8.275062e-003
2.223522e+003, 8.745803e-003
2.225450e+003, 9.148411e-003
2.227379e+003, 9.050986e-003
2.229307e+003, 9.089449e-003
2.231236e+003, 9.290405e-003
2.233164e+003, 9.441596e-003
2.235093e+003, 9.430510e-003
2.237021e+003, 9.427398e-003
2.238950e+003, 9.394976e-003
2.240878e+003, 9.716036e-003
2.242807e+003, 9.538585e-003
2.244735e+003, 8.981350e-003
2.246664e+003, 8.966918e-003
2.248592e+003, 8.936356e-003
2.250521e+003, 8.984754e-003
2.252449e+003, 9.067758e-003
2.254377e+003, 9.213417e-003
2.256306e+003, 9.300431e-003
2.258234e+003, 9.311141e-003
2.260163e+003, 9.146173e-003
2.262091e+003, 9.212611e-003
2.264020e+003, 9.325563e-003
2.265948e+003, 9.347386e-003
2.267877e+003, 9.388900e-003
2.269805e+003, 9.711568e-003
2.271734e+003, 9.589584e-003
2.273662e+003, 9.362169e-003
2.275591e+003, 1.000443e-002
2.277519e+003, 1.031062e-002
2.279448e+003, 1.011357e-002
2.281376e+003, 1.018472e-002
2.283304e+003, 1.018105e-002
2.285233e+003, 1.024778e-002
2.287161e+003, 9.904159e-003
2.289090e+003, 9.909957e-003
2.291018e+003, 1.011972e-002
2.292947e+003, 9.927404e-003
2.294875e+003, 9.640862e-003
2.296804e+003, 9.370725e-003
2.298732e+003, 9.338493e-003
2.300661e+003, 9.390322e-003
2.302589e+003, 9.160444e-003
2.304518e+003, 9.277799e-003
2.306446e+003, 9.657196e-003
2.308375e+003, 9.708018e-003
2.310303e+003, 9.628703e-003
2.312231e+003, 9.704543e-003
2.314160e+003, 9.767087e-003
2.316088e+003, 9.986361e-003
2.318017e+003, 1.004765e-002
2.319945e+003, 1.030742e-002
2.321874e+003, 1.114972e-002
2.323802e+003, 1.164005e-002
2.325731e+003, 1.068856e-002
2.327659e+003, 9.652338e-003
2.329588e+003, 9.580363e-003
2.331516e+003, 9.893054e-003
2.333445e+003, 9.832800e-003
2.335373e+003, 9.638584e-003
2.337302e+003, 9.665879e-003
2.339230e+003, 9.551818e-003
2.341158e+003, 9.586710e-003
2.343087e+003, 9.587146e-003
2.345015e+003, 9.183597e-003
2.346944e+003, 8.587581e-003
2.348872e+003, 8.452066e-003
2.350801e+003, 8.825309e-003
2.352729e+003, 9.251597e-003
2.354658e+003, 9.553328e-003
2.356586e+003, 9.835086e-003
2.358515e+003, 9.985565e-003
2.360443e+003, 1.021163e-002
2.362372e+003, 1.026796e-002
2.364300e+003, 1.009634e-002
2.366229e+003, 9.690810e-003
2.368157e+003, 9.128979e-003
2.370085e+003, 9.099533e-003
2.372014e+003, 9.073539e-003
2.373942e+003, 8.565949e-003
2.375871e+003, 8.334278e-003
2.377799e+003, 8.262549e-003
2.379728e+003, 8.243560e-003
2.381656e+003, 8.118398e-003
2.383585e+003, 7.973379e-003
2.385513e+003, 8.000007e-003
2.387442e+003, 8.226104e-003
2.389370e+003, 8.471939e-003
2.391299e+003, 8.391047e-003
2.393227e+003, 8.298220e-003
2.395156e+003, 8.056168e-003
2.397084e+003, 7.742018e-003
2.399012e+003, 8.007707e-003
2.400941e+003, 8.231539e-003
2.402869e+003, 7.868983e-003
2.404798e+003, 7.949592e-003
2.406726e+003, 8.581678e-003
2.408655e+003, 8.994358e-003
2.410583e+003, 8.700019e-003
2.412512e+003, 8.428218e-003
2.414440e+003, 8.352451e-003
2.416369e+003, 8.298550e-003
2.418297e+003, 8.213107e-003
2.420226e+003, 8.464848e-003
2.422154e+003, 8.893682e-003
2.424083e+003, 8.712109e-003
2.426011e+003, 8.464856e-003
2.427939e+003, 8.649580e-003
2.429868e+003, 9.012497e-003
2.431796e+003, 9.264963e-003
2.433725e+003, 9.418950e-003
2.435653e+003, 8.898884e-003
2.437582e+003, 8.302063e-003
2.439510e+003, 8.441153e-003
2.441439e+003, 8.889830e-003
2.443367e+003, 9.203743e-003
2.445296e+003, 9.139708e-003
2.447224e+003, 9.276277e-003
2.449153e+003, 9.083921e-003
2.451081e+003, 8.801118e-003
2.453010e+003, 8.998320e-003
2.454938e+003, 9.087801e-003
2.456866e+003, 9.249846e-003
2.458795e+003, 9.348620e-003
2.460723e+003, 8.934479e-003
2.462652e+003, 8.994366e-003
2.464580e+003, 9.358333e-003
2.466509e+003, 9.497706e-003
2.468437e+003, 9.076428e-003
2.470366e+003, 9.057487e-003
2.472294e+003, 9.061631e-003
2.474223e+003, 9.194175e-003
2.476151e+003, 9.407871e-003
2.478080e+003, 9.212085e-003
2.480008e+003, 9.263648e-003
2.481937e+003, 9.320750e-003
2.483865e+003, 8.664970e-003
2.485793e+003, 8.523636e-003
2.487722e+003, 9.008366e-003
2.489650e+003, 9.424821e-003
2.491579e+003, 9.538352e-003
2.493507e+003, 9.354183e-003
2.495436e+003, 9.016580e-003
2.497364e+003, 9.030277e-003
2.499293e+003, 9.258603e-003
2.501221e+003, 9.371371e-003
2.503150e+003, 1.012747e-002
2.505078e+003, 1.012065e-002
2.507007e+003, 9.476406e-003
2.508935e+003, 9.534896e-003
2.510864e+003, 9.611604e-003
2.512792e+003, 9.377914e-003
2.514720e+003, 9.396769e-003
2.516649e+003, 9.957831e-003
2.518577e+003, 1.031859e-002
2.520506e+003, 1.027251e-002
2.522434e+003, 1.021445e-002
2.524363e+003, 1.012903e-002
2.526291e+003, 1.000377e-002
2.528220e+003, 1.009253e-002
2.530148e+003, 1.011957e-002
2.532077e+003, 1.009956e-002
2.534005e+003, 1.009392e-002
2.535934e+003, 1.015398e-002
2.537862e+003, 1.043022e-002
2.539791e+003, 1.028530e-002
2.541719e+003, 1.005662e-002
2.543647e+003, 9.994817e-003
2.545576e+003, 1.009310e-002
2.547504e+003, 9.964091e-003
2.549433e+003, 9.800631e-003
2.551361e+003, 1.005904e-002
2.553290e+003, 1.063268e-002
2.555218e+003, 1.074086e-002
2.557147e+003, 1.075903e-002
2.559075e+003, 1.048034e-002
2.561004e+003, 1.037985e-002
2.562932e+003, 1.061600e-002
2.564861e+003, 1.088610e-002
2.566789e+003, 1.072388e-002
2.568718e+003, 1.060946e-002
2.570646e+003, 1.066391e-002
2.572574e+003, 1.053283e-002
2.574503e+003, 1.035160e-002
2.576431e+003, 1.065111e-002
2.578360e+003, 1.073736e-002
2.580288e+003, 1.072076e-002
2.582217e+003, 1.083560e-002
2.584145e+003, 1.119860e-002
2.586074e+003, 1.117482e-002
2.588002e+003, 1.085476e-002
2.589931e+003, 1.052487e-002
2.591859e+003, 1.048336e-002
2.593788e+003, 1.082314e-002
2.595716e+003, 1.090549e-002
2.597645e+003, 1.073238e-002
2.599573e+003, 1.059815e-002
2.601501e+003, 1.071388e-002
2.603430e+003, 1.093046e-002
2.605358e+003, 1.085791e-002
2.607287e+003, 1.074703e-002
2.609215e+003, 1.086667e-002
2.611144e+003, 1.113815e-002
2.613072e+003, 1.152168e-002
2.615001e+003, 1.133927e-002
2.616929e+003, 1.115626e-002
2.618858e+003, 1.104353e-002
2.620786e+003, 1.134146e-002
2.622715e+003, 1.151023e-002
2.624643e+003, 1.150909e-002
2.626572e+003, 1.141000e-002
2.628500e+003, 1.112001e-002
2.630428e+003, 1.121800e-002
2.632357e+003, 1.153125e-002
2.634285e+003, 1.123738e-002
2.636214e+003, 1.097137e-002
2.638142e+003, 1.111740e-002
2.640071e+003, 1.122143e-002
2.641999e+003, 1.140349e-002
2.643928e+003, 1.150247e-002
2.645856e+003, 1.139439e-002
2.647785e+003, 1.135686e-002
2.649713e+003, 1.141246e-002
2.651642e+003, 1.116432e-002
2.653570e+003, 1.109429e-002
2.655499e+003, 1.118645e-002
2.657427e+003, 1.101976e-002
2.659355e+003, 1.067862e-002
2.661284e+003, 1.043290e-002
2.663212e+003, 1.036057e-002
2.665141e+003, 1.028598e-002
2.667069e+003, 1.008585e-002
2.668998e+003, 1.021319e-002
2.670926e+003, 1.036143e-002
2.672855e+003, 1.046548e-002
2.674783e+003, 1.046772e-002
2.676712e+003, 1.048768e-002
2.678640e+003, 1.045231e-002
2.680569e+003, 1.057748e-002
2.682497e+003, 1.048837e-002
2.684426e+003, 1.053969e-002
2.686354e+003, 1.073236e-002
2.688282e+003, 1.042571e-002
2.690211e+003, 1.001944e-002
2.692139e+003, 1.012178e-002
2.694068e+003, 1.029226e-002
2.695996e+003, 1.065020e-002
2.697925e+003, 1.064796e-002
2.699853e+003, 1.044396e-002
2.701782e+003, 1.049980e-002
2.703710e+003, 1.077051e-002
2.705639e+003, 1.083507e-002
2.707567e+003, 1.064721e-002
2.709496e+003, 1.053881e-002
2.711424e+003, 1.060665e-002
2.713353e+003, 1.039212e-002
2.715281e+003, 1.059146e-002
2.717209e+003, 1.088469e-002
2.719138e+003, 1.078354e-002
2.721066e+003, 1.047521e-002
2.722995e+003, 1.048725e-002
2.724923e+003, 1.063457e-002
2.726852e+003, 1.060086e-002
2.728780e+003, 1.059975e-002
2.730709e+003, 1.070974e-002
2.732637e+003, 1.093757e-002
2.734566e+003, 1.107987e-002
2.736494e+003, 1.118375e-002
2.738423e+003, 1.109709e-002
2.740351e+003, 1.091619e-002
2.742280e+003, 1.103242e-002
2.744208e+003, 1.101757e-002
2.746136e+003, 1.098396e-002
2.748065e+003, 1.095195e-002
2.749993e+003, 1.099353e-002
2.751922e+003, 1.107290e-002
2.753850e+003, 1.115145e-002
2.755779e+003, 1.122357e-002
2.757707e+003, 1.128047e-002
2.759636e+003, 1.096023e-002
2.761564e+003, 1.096482e-002
2.763493e+003, 1.107271e-002
2.765421e+003, 1.117040e-002
2.767350e+003, 1.114225e-002
2.769278e+003, 1.105090e-002
2.771207e+003, 1.103466e-002
2.773135e+003, 1.112483e-002
2.775063e+003, 1.110517e-002
2.776992e+003, 1.123247e-002
2.778920e+003, 1.136153e-002
2.780849e+003, 1.117649e-002
2.782777e+003, 1.126974e-002
2.784706e+003, 1.151345e-002
2.786634e+003, 1.149371e-002
2.788563e+003, 1.138225e-002
2.790491e+003, 1.148483e-002
2.792420e+003, 1.176850e-002
2.794348e+003, 1.173854e-002
2.796277e+003, 1.156786e-002
2.798205e+003, 1.140920e-002
2.800134e+003, 1.143849e-002
2.802062e+003, 1.170353e-002
2.803990e+003, 1.165865e-002
2.805919e+003, 1.152820e-002
2.807847e+003, 1.156924e-002
2.809776e+003, 1.167688e-002
2.811704e+003, 1.179821e-002
2.813633e+003, 1.202016e-002
2.815561e+003, 1.224753e-002
2.817490e+003, 1.224448e-002
2.819418e+003, 1.210848e-002
2.821347e+003, 1.206433e-002
2.823275e+003, 1.203467e-002
2.825204e+003, 1.222362e-002
2.827132e+003, 1.249262e-002
2.829061e+003, 1.221072e-002
2.830989e+003, 1.204660e-002
2.832917e+003, 1.241635e-002
2.834846e+003, 1.237724e-002
2.836774e+003, 1.224475e-002
2.838703e+003, 1.257218e-002
2.840631e+003, 1.278951e-002
2.842560e+003, 1.280455e-002
2.844488e+003, 1.275683e-002
2.846417e+003, 1.263910e-002
2.848345e+003, 1.240319e-002
2.850274e+003, 1.230921e-002
2.852202e+003, 1.244896e-002
2.854131e+003, 1.240863e-002
2.856059e+003, 1.250674e-002
2.857988e+003, 1.268773e-002
2.859916e+003, 1.243819e-002
2.861844e+003, 1.235652e-002
2.863773e+003, 1.270192e-002
2.865701e+003, 1.286038e-002
2.867630e+003, 1.297673e-002
2.869558e+003, 1.293759e-002
2.871487e+003, 1.258138e-002
2.873415e+003, 1.249681e-002
2.875344e+003, 1.296147e-002
2.877272e+003, 1.346431e-002
2.879201e+003, 1.356973e-002
2.881129e+003, 1.313564e-002
2.883058e+003, 1.273323e-002
2.884986e+003, 1.283984e-002
2.886915e+003, 1.314617e-002
2.888843e+003, 1.328435e-002
2.890771e+003, 1.336909e-002
2.892700e+003, 1.312333e-002
2.894628e+003, 1.306092e-002
2.896557e+003, 1.308763e-002
2.898485e+003, 1.334904e-002
2.900414e+003, 1.357644e-002
2.902342e+003, 1.367876e-002
2.904271e+003, 1.396296e-002
2.906199e+003, 1.364237e-002
2.908128e+003, 1.335056e-002
2.910056e+003, 1.359259e-002
2.911985e+003, 1.363668e-002
2.913913e+003, 1.361924e-002
2.915842e+003, 1.366884e-002
2.917770e+003, 1.336909e-002
2.919698e+003, 1.325814e-002
2.921627e+003, 1.348210e-002
2.923555e+003, 1.366035e-002
2.925484e+003, 1.349122e-002
2.927412e+003, 1.343088e-002
2.929341e+003, 1.358252e-002
2.931269e+003, 1.382922e-002
2.933198e+003, 1.413434e-002
2.935126e+003, 1.413073e-002
2.937055e+003, 1.384954e-002
2.938983e+003, 1.368104e-002
2.940912e+003, 1.370220e-002
2.942840e+003, 1.363014e-002
2.944769e+003, 1.332125e-002
2.946697e+003, 1.330133e-002
2.948625e+003, 1.338573e-002
2.950554e+003, 1.367683e-002
2.952482e+003, 1.378136e-002
2.954411e+003, 1.400814e-002
2.956339e+003, 1.412906e-002
2.958268e+003, 1.435074e-002
2.960196e+003, 1.454605e-002
2.962125e+003, 1.448265e-002
2.964053e+003, 1.429898e-002
2.965982e+003, 1.412722e-002
2.967910e+003, 1.392513e-002
2.969839e+003, 1.375501e-002
2.971767e+003, 1.368819e-002
2.973696e+003, 1.345040e-002
2.975624e+003, 1.328736e-002
2.977552e+003, 1.332355e-002
2.979481e+003, 1.329415e-002
2.981409e+003, 1.330153e-002
2.983338e+003, 1.313635e-002
2.985266e+003, 1.279954e-002
2.987195e+003, 1.291493e-002
2.989123e+003, 1.341669e-002
2.991052e+003, 1.348270e-002
2.992980e+003, 1.340179e-002
2.994909e+003, 1.356231e-002
2.996837e+003, 1.320834e-002
2.998766e+003, 1.294745e-002
3.000694e+003, 1.304763e-002
3.002623e+003, 1.325597e-002
3.004551e+003, 1.332843e-002
3.006479e+003, 1.351449e-002
3.008408e+003, 1.368630e-002
3.010336e+003, 1.360544e-002
3.012265e+003, 1.296492e-002
3.014193e+003, 1.235553e-002
3.016122e+003, 1.246531e-002
3.018050e+003, 1.283139e-002
3.019979e+003, 1.296285e-002
3.021907e+003, 1.331627e-002
3.023836e+003, 1.362365e-002
3.025764e+003, 1.388326e-002
3.027693e+003, 1.366226e-002
3.029621e+003, 1.350623e-002
3.031550e+003, 1.381278e-002
3.033478e+003, 1.391072e-002
3.035406e+003, 1.377624e-002
3.037335e+003, 1.340905e-002
3.039263e+003, 1.329079e-002
3.041192e+003, 1.336718e-002
3.043120e+003, 1.342484e-002
3.045049e+003, 1.363178e-002
3.046977e+003, 1.356327e-002
3.048906e+003, 1.376965e-002
3.050834e+003, 1.395688e-002
3.052763e+003, 1.384046e-002
3.054691e+003, 1.399748e-002
3.056620e+003, 1.406096e-002
3.058548e+003, 1.389846e-002
3.060477e+003, 1.417150e-002
3.062405e+003, 1.464609e-002
3.064333e+003, 1.482499e-002
3.066262e+003, 1.438295e-002
3.068190e+003, 1.422602e-002
3.070119e+003, 1.447247e-002
3.072047e+003, 1.451260e-002
3.073976e+003, 1.422796e-002
3.075904e+003, 1.371039e-002
3.077833e+003, 1.380293e-002
3.079761e+003, 1.453481e-002
3.081690e+003, 1.482426e-002
3.083618e+003, 1.456070e-002
3.085547e+003, 1.433054e-002
3.087475e+003, 1.435302e-002
3.089404e+003, 1.447908e-002
3.091332e+003, 1.480683e-002
3.093260e+003, 1.448209e-002
3.095189e+003, 1.452644e-002
3.097117e+003, 1.485418e-002
3.099046e+003, 1.491033e-002
3.100974e+003, 1.504436e-002
3.102903e+003, 1.504901e-002
3.104831e+003, 1.451385e-002
3.106760e+003, 1.479913e-002
3.108688e+003, 1.565280e-002
3.110617e+003, 1.568386e-002
3.112545e+003, 1.519556e-002
3.114474e+003, 1.479331e-002
3.116402e+003, 1.485986e-002
3.118331e+003, 1.508017e-002
3.120259e+003, 1.533758e-002
3.122188e+003, 1.527023e-002
3.124116e+003, 1.502277e-002
3.126044e+003, 1.514125e-002
3.127973e+003, 1.510854e-002
3.129901e+003, 1.530670e-002
3.131830e+003, 1.576104e-002
3.133758e+003, 1.579173e-002
3.135687e+003, 1.585902e-002
3.137615e+003, 1.612572e-002
3.139544e+003, 1.612918e-002
3.141472e+003, 1.584113e-002
3.143401e+003, 1.579710e-002
3.145329e+003, 1.625639e-002
3.147258e+003, 1.635845e-002
3.149186e+003, 1.571811e-002
3.151115e+003, 1.541819e-002
3.153043e+003, 1.572040e-002
3.154971e+003, 1.605625e-002
3.156900e+003, 1.596433e-002
3.158828e+003, 1.582614e-002
3.160757e+003, 1.586576e-002
3.162685e+003, 1.629040e-002
3.164614e+003, 1.643709e-002
3.166542e+003, 1.619566e-002
3.168471e+003, 1.609748e-002
3.170399e+003, 1.623192e-002
3.172328e+003, 1.648237e-002
3.174256e+003, 1.685910e-002
3.176185e+003, 1.669174e-002
3.178113e+003, 1.674512e-002
3.180042e+003, 1.668007e-002
3.181970e+003, 1.655198e-002
3.183898e+003, 1.663949e-002
3.185827e+003, 1.673438e-002
3.187755e+003, 1.693532e-002
3.189684e+003, 1.662526e-002
3.191612e+003, 1.632763e-002
3.193541e+003, 1.683692e-002
3.195469e+003, 1.685574e-002
3.197398e+003, 1.649801e-002
3.199326e+003, 1.639606e-002
3.201255e+003, 1.631039e-002
3.203183e+003, 1.633287e-002
3.205112e+003, 1.668377e-002
3.207040e+003, 1.684682e-002
3.208969e+003, 1.714699e-002
3.210897e+003, 1.706874e-002
3.212825e+003, 1.701679e-002
3.214754e+003, 1.713976e-002
3.216682e+003, 1.685916e-002
3.218611e+003, 1.690811e-002
3.220539e+003, 1.714623e-002
3.222468e+003, 1.683614e-002
3.224396e+003, 1.719051e-002
3.226325e+003, 1.766998e-002
3.228253e+003, 1.726192e-002
3.230182e+003, 1.703558e-002
3.232110e+003, 1.692487e-002
3.234039e+003, 1.717389e-002
3.235967e+003, 1.755915e-002
3.237896e+003, 1.760631e-002
3.239824e+003, 1.751090e-002
3.241752e+003, 1.682456e-002
3.243681e+003, 1.652721e-002
3.245609e+003, 1.761169e-002
3.247538e+003, 1.764337e-002
3.249466e+003, 1.732287e-002
3.251395e+003, 1.734643e-002
3.253323e+003, 1.754681e-002
3.255252e+003, 1.800696e-002
3.257180e+003, 1.779639e-002
3.259109e+003, 1.746292e-002
3.261037e+003, 1.761763e-002
3.262966e+003, 1.774538e-002
3.264894e+003, 1.761968e-002
3.266823e+003, 1.700519e-002
3.268751e+003, 1.667589e-002
3.270679e+003, 1.684931e-002
3.272608e+003, 1.749720e-002
3.274536e+003, 1.723193e-002
3.276465e+003, 1.734095e-002
3.278393e+003, 1.777706e-002
3.280322e+003, 1.775096e-002
3.282250e+003, 1.777062e-002
3.284179e+003, 1.805596e-002
3.286107e+003, 1.804459e-002
3.288036e+003, 1.785118e-002
3.289964e+003, 1.775533e-002
3.291893e+003, 1.791304e-002
3.293821e+003, 1.770682e-002
3.295750e+003, 1.758925e-002
3.297678e+003, 1.764542e-002
3.299606e+003, 1.790477e-002
3.301535e+003, 1.776458e-002
3.303463e+003, 1.724764e-002
3.305392e+003, 1.726522e-002
3.307320e+003, 1.777766e-002
3.309249e+003, 1.750228e-002
3.311177e+003, 1.744505e-002
3.313106e+003, 1.800120e-002
3.315034e+003, 1.812043e-002
3.316963e+003, 1.793175e-002
3.318891e+003, 1.749650e-002
3.320820e+003, 1.758506e-002
3.322748e+003, 1.777011e-002
3.324677e+003, 1.755336e-002
3.326605e+003, 1.760993e-002
3.328533e+003, 1.758283e-002
3.330462e+003, 1.744723e-002
3.332390e+003, 1.748301e-002
3.334319e+003, 1.759274e-002
3.336247e+003, 1.725819e-002
3.338176e+003, 1.735187e-002
3.340104e+003, 1.759978e-002
3.342033e+003, 1.779846e-002
3.343961e+003, 1.768993e-002
3.345890e+003, 1.791637e-002
3.347818e+003, 1.819690e-002
3.349747e+003, 1.817297e-002
3.351675e+003, 1.780619e-002
3.353604e+003, 1.782091e-002
3.355532e+003, 1.813595e-002
3.357460e+003, 1.815457e-002
3.359389e+003, 1.746773e-002
3.361317e+003, 1.733043e-002
3.363246e+003, 1.757796e-002
3.365174e+003, 1.750835e-002
3.367103e+003, 1.771257e-002
3.369031e+003, 1.767355e-002
3.370960e+003, 1.738319e-002
3.372888e+003, 1.775267e-002
3.374817e+003, 1.805563e-002
3.376745e+003, 1.842028e-002
3.378674e+003, 1.897116e-002
3.380602e+003, 1.850638e-002
3.382531e+003, 1.750430e-002
3.384459e+003, 1.745672e-002
3.386387e+003, 1.774167e-002
3.388316e+003, 1.772732e-002
3.390244e+003, 1.726245e-002
3.392173e+003, 1.756158e-002
3.394101e+003, 1.810460e-002
3.396030e+003, 1.812295e-002
3.397958e+003, 1.794996e-002
3.399887e+003, 1.766185e-002
3.401815e+003, 1.753953e-002
3.403744e+003, 1.762283e-002
3.405672e+003, 1.788930e-002
3.407601e+003, 1.783358e-002
3.409529e+003, 1.787441e-002
3.411458e+003, 1.803976e-002
3.413386e+003, 1.804855e-002
3.415314e+003, 1.824981e-002
3.417243e+003, 1.720405e-002
3.419171e+003, 1.636861e-002
3.421100e+003, 1.712596e-002
3.423028e+003, 1.750932e-002
3.424957e+003, 1.790376e-002
3.426885e+003, 1.817839e-002
3.428814e+003, 1.754839e-002
3.430742e+003, 1.708408e-002
3.432671e+003, 1.731526e-002
3.434599e+003, 1.745944e-002
3.436528e+003, 1.747002e-002
3.438456e+003, 1.714844e-002
3.440385e+003, 1.782098e-002
3.442313e+003, 1.858809e-002
3.444241e+003, 1.808646e-002
3.446170e+003, 1.771326e-002
3.448098e+003, 1.779217e-002
3.450027e+003, 1.796464e-002
3.451955e+003, 1.799363e-002
3.453884e+003, 1.763574e-002
3.455812e+003, 1.745071e-002
3.457741e+003, 1.749647e-002
3.459669e+003, 1.786775e-002
3.461598e+003, 1.826284e-002
3.463526e+003, 1.811641e-002
3.465455e+003, 1.767400e-002
3.467383e+003, 1.815224e-002
3.469312e+003, 1.815812e-002
3.471240e+003, 1.749143e-002
3.473168e+003, 1.704796e-002
3.475097e+003, 1.713310e-002
3.477025e+003, 1.724128e-002
3.478954e+003, 1.774467e-002
3.480882e+003, 1.805373e-002
3.482811e+003, 1.765992e-002
3.484739e+003, 1.721906e-002
3.486668e+003, 1.691486e-002
3.488596e+003, 1.704296e-002
3.490525e+003, 1.710253e-002
3.492453e+003, 1.717703e-002
3.494382e+003, 1.700652e-002
3.496310e+003, 1.705607e-002
3.498239e+003, 1.715091e-002
3.500167e+003, 1.716410e-002
3.502095e+003, 1.694857e-002
3.504024e+003, 1.699816e-002
3.505952e+003, 1.706798e-002
3.507881e+003, 1.666837e-002
3.509809e+003, 1.692290e-002
3.511738e+003, 1.683841e-002
3.513666e+003, 1.643946e-002
3.515595e+003, 1.637074e-002
3.517523e+003, 1.672090e-002
3.519452e+003, 1.662536e-002
3.521380e+003, 1.614656e-002
3.523309e+003, 1.635407e-002
3.525237e+003, 1.682173e-002
3.527166e+003, 1.675458e-002
3.529094e+003, 1.681739e-002
3.531022e+003, 1.642751e-002
3.532951e+003, 1.575070e-002
3.534879e+003, 1.614995e-002
3.536808e+003, 1.657209e-002
3.538736e+003, 1.671469e-002
3.540665e+003, 1.626120e-002
3.542593e+003, 1.612175e-002
3.544522e+003, 1.645549e-002
3.546450e+003, 1.677301e-002
3.548379e+003, 1.741077e-002
3.550307e+003, 1.785998e-002
3.552236e+003, 1.723527e-002
3.554164e+003, 1.658323e-002
3.556093e+003, 1.740753e-002
3.558021e+003, 1.732777e-002
3.559949e+003, 1.646065e-002
3.561878e+003, 1.615312e-002
3.563806e+003, 1.604228e-002
3.565735e+003, 1.611529e-002
3.567663e+003, 1.623424e-002
3.569592e+003, 1.644284e-002
3.571520e+003, 1.611363e-002
3.573449e+003, 1.575698e-002
3.575377e+003, 1.594558e-002
3.577306e+003, 1.611631e-002
3.579234e+003, 1.591062e-002
3.581163e+003, 1.552626e-002
3.583091e+003, 1.540678e-002
3.585020e+003, 1.591479e-002
3.586948e+003, 1.646385e-002
3.588876e+003, 1.643855e-002
3.590805e+003, 1.572213e-002
3.592733e+003, 1.542985e-002
3.594662e+003, 1.593365e-002
3.596590e+003, 1.607485e-002
3.598519e+003, 1.573282e-002
3.600447e+003, 1.477004e-002
3.602376e+003, 1.460346e-002
3.604304e+003, 1.523857e-002
3.606233e+003, 1.515887e-002
3.608161e+003, 1.526557e-002
3.610090e+003, 1.513711e-002
3.612018e+003, 1.532125e-002
3.613947e+003, 1.586577e-002
3.615875e+003, 1.579761e-002
3.617803e+003, 1.570527e-002
3.619732e+003, 1.599433e-002
3.621660e+003, 1.560465e-002
3.623589e+003, 1.551800e-002
3.625517e+003, 1.558920e-002
3.627446e+003, 1.624314e-002
3.629374e+003, 1.626208e-002
3.631303e+003, 1.578839e-002
3.633231e+003, 1.587580e-002
3.635160e+003, 1.586643e-002
3.637088e+003, 1.559281e-002
3.639017e+003, 1.596812e-002
3.640945e+003, 1.534202e-002
3.642874e+003, 1.514733e-002
3.644802e+003, 1.532164e-002
3.646730e+003, 1.606108e-002
3.648659e+003, 1.684658e-002
3.650587e+003, 1.647752e-002
3.652516e+003, 1.579947e-002
3.654444e+003, 1.574762e-002
3.656373e+003, 1.592159e-002
3.658301e+003, 1.584683e-002
3.660230e+003, 1.548687e-002
3.662158e+003, 1.511435e-002
3.664087e+003, 1.550584e-002
3.666015e+003, 1.617525e-002
3.667944e+003, 1.709767e-002
3.669872e+003, 1.799736e-002
3.671801e+003, 1.772506e-002
3.673729e+003, 1.808285e-002
3.675657e+003, 1.821808e-002
3.677586e+003, 1.738136e-002
3.679514e+003, 1.737357e-002
3.681443e+003, 1.733443e-002
3.683371e+003, 1.661525e-002
3.685300e+003, 1.572842e-002
3.687228e+003, 1.672569e-002
3.689157e+003, 1.767838e-002
3.691085e+003, 1.717166e-002
3.693014e+003, 1.583170e-002
3.694942e+003, 1.548945e-002
3.696871e+003, 1.559956e-002
3.698799e+003, 1.523374e-002
3.700728e+003, 1.510290e-002
3.702656e+003, 1.511731e-002
3.704584e+003, 1.521091e-002
3.706513e+003, 1.534849e-002
3.708441e+003, 1.494838e-002
3.710370e+003, 1.472237e-002
3.712298e+003, 1.497841e-002
3.714227e+003, 1.397935e-002
3.716155e+003, 1.364394e-002
3.718084e+003, 1.352528e-002
3.720012e+003, 1.290446e-002
3.721941e+003, 1.300349e-002
3.723869e+003, 1.309753e-002
3.725798e+003, 1.276420e-002
3.727726e+003, 1.272958e-002
3.729655e+003, 1.342033e-002
3.731583e+003, 1.466669e-002
3.733511e+003, 1.505315e-002
3.735440e+003, 1.492624e-002
3.737368e+003, 1.386953e-002
3.739297e+003, 1.360308e-002
3.741225e+003, 1.389643e-002
3.743154e+003, 1.423440e-002
3.745082e+003, 1.420748e-002
3.747011e+003, 1.432192e-002
3.748939e+003, 1.513530e-002
3.750868e+003, 1.547898e-002
3.752796e+003, 1.466056e-002
3.754725e+003, 1.356822e-002
3.756653e+003, 1.299333e-002
3.758582e+003, 1.331253e-002
3.760510e+003, 1.394850e-002
3.762438e+003, 1.350852e-002
3.764367e+003, 1.287008e-002
3.766295e+003, 1.270025e-002
3.768224e+003, 1.289933e-002
3.770152e+003, 1.309737e-002
3.772081e+003, 1.342705e-002
3.774009e+003, 1.374678e-002
3.775938e+003, 1.310183e-002
3.777866e+003, 1.264506e-002
3.779795e+003, 1.281273e-002
3.781723e+003, 1.283990e-002
3.783652e+003, 1.316682e-002
3.785580e+003, 1.320254e-002
3.787509e+003, 1.280378e-002
3.789437e+003, 1.236941e-002
3.791365e+003, 1.290643e-002
3.793294e+003, 1.361319e-002
3.795222e+003, 1.335455e-002
3.797151e+003, 1.282139e-002
3.799079e+003, 1.294340e-002
3.801008e+003, 1.374989e-002
3.802936e+003, 1.318080e-002
3.804865e+003, 1.293543e-002
3.806793e+003, 1.362076e-002
3.808722e+003, 1.338916e-002
3.810650e+003, 1.275877e-002
3.812579e+003, 1.242554e-002
3.814507e+003, 1.358574e-002
3.816436e+003, 1.430729e-002
3.818364e+003, 1.321236e-002
3.820292e+003, 1.373540e-002
3.822221e+003, 1.482332e-002
3.824149e+003, 1.385618e-002
3.826078e+003, 1.246964e-002
3.828006e+003, 1.217837e-002
3.829935e+003, 1.261055e-002
3.831863e+003, 1.299133e-002
3.833792e+003, 1.315731e-002
3.835720e+003, 1.361342e-002
3.837649e+003, 1.429619e-002
3.839577e+003, 1.366261e-002
3.841506e+003, 1.320003e-002
3.843434e+003, 1.340722e-002
3.845363e+003, 1.323637e-002
3.847291e+003, 1.278429e-002
3.849219e+003, 1.236412e-002
3.851148e+003, 1.291398e-002
3.853076e+003, 1.452215e-002
3.855005e+003, 1.420533e-002
3.856933e+003, 1.301378e-002
3.858862e+003, 1.270789e-002
3.860790e+003, 1.275168e-002
3.862719e+003, 1.281188e-002
3.864647e+003, 1.338217e-002
3.866576e+003, 1.339226e-002
3.868504e+003, 1.353609e-002
3.870433e+003, 1.332572e-002
3.872361e+003, 1.280264e-002
3.874290e+003, 1.302549e-002
3.876218e+003, 1.279389e-002
3.878146e+003, 1.252882e-002
3.880075e+003, 1.301350e-002
3.882003e+003, 1.370756e-002
3.883932e+003, 1.387726e-002
3.885860e+003, 1.346261e-002
3.887789e+003, 1.283321e-002
3.889717e+003, 1.287587e-002
3.891646e+003, 1.299120e-002
3.893574e+003, 1.311132e-002
3.895503e+003, 1.307065e-002
3.897431e+003, 1.260068e-002
3.899360e+003, 1.261843e-002
3.901288e+003, 1.325270e-002
3.903217e+003, 1.337128e-002
3.905145e+003, 1.297448e-002
3.907073e+003, 1.289942e-002
3.909002e+003, 1.289853e-002
3.910930e+003, 1.297325e-002
3.912859e+003, 1.325238e-002
3.914787e+003, 1.257998e-002
3.916716e+003, 1.274627e-002
3.918644e+003, 1.372107e-002
3.920573e+003, 1.347031e-002
3.922501e+003, 1.343377e-002
3.924430e+003, 1.341763e-002
3.926358e+003, 1.295781e-002
3.928287e+003, 1.234701e-002
3.930215e+003, 1.239787e-002
3.932144e+003, 1.238275e-002
3.934072e+003, 1.200501e-002
3.936000e+003, 1.181803e-002
3.937929e+003, 1.151858e-002
3.939857e+003, 1.143267e-002
3.941786e+003, 1.247343e-002
3.943714e+003, 1.335396e-002
3.945643e+003, 1.341523e-002
3.947571e+003, 1.302075e-002
3.949500e+003, 1.284706e-002
3.951428e+003, 1.253592e-002
3.953357e+003, 1.225513e-002
3.955285e+003, 1.214542e-002
3.957214e+003, 1.269435e-002
3.959142e+003, 1.316585e-002
3.961071e+003, 1.382594e-002
3.962999e+003, 1.477931e-002
3.964927e+003, 1.455827e-002
3.966856e+003, 1.354704e-002
3.968784e+003, 1.350996e-002
3.970713e+003, 1.367213e-002
3.972641e+003, 1.330858e-002
3.974570e+003, 1.262023e-002
3.976498e+003, 1.246144e-002
3.978427e+003, 1.257803e-002
3.980355e+003, 1.238732e-002
3.982284e+003, 1.269564e-002
3.984212e+003, 1.320927e-002
3.986141e+003, 1.301332e-002
3.988069e+003, 1.292876e-002
3.989998e+003, 1.336162e-002
3.991926e+003, 1.372195e-002
3.993854e+003, 1.316038e-002
3.995783e+003, 1.262420e-002
3.997711e+003, 1.264918e-002
3.999640e+003, 1.273038e-002
##END=



