##NAMES=Grandidierite
##RRUFFID=R050196
##IDEAL CHEMISTRY=MgAl_3_O_2_(BO_3_)SiO_4_
##LOCALITY=Madagascar
##OWNER=RRUFF
##SOURCE=Marcus Origlieri
##DESCRIPTION=Aggregate of anhedral blue-green crystals
##STATUS=The identification of this mineral has been confirmed by X-ray diffraction and chemical analysis
##URL=rruff.info/R050196
##MEASURED CHEMISTRY=(Mg_0.829_Fe^2+^_0.169_Mn_0.002_)Al_3_(BO_3_)(SiO_4_)O_2_
3.741225e+002, 2.755285e-001
3.760510e+002, 2.620736e-001
3.779795e+002, 2.567056e-001
3.799079e+002, 2.260012e-001
3.818364e+002, 1.987489e-001
3.837649e+002, 1.972197e-001
3.856933e+002, 1.834873e-001
3.876218e+002, 1.701872e-001
3.895503e+002, 1.744342e-001
3.914787e+002, 1.891738e-001
3.934072e+002, 2.017484e-001
3.953357e+002, 2.076108e-001
3.972641e+002, 2.163670e-001
3.991926e+002, 2.297753e-001
4.011211e+002, 2.323643e-001
4.030495e+002, 2.316591e-001
4.049780e+002, 2.335496e-001
4.069065e+002, 2.450463e-001
4.088349e+002, 2.514923e-001
4.107634e+002, 2.589740e-001
4.126919e+002, 2.591202e-001
4.146203e+002, 2.621605e-001
4.165488e+002, 2.700617e-001
4.184773e+002, 2.757741e-001
4.204057e+002, 2.790352e-001
4.223342e+002, 2.822697e-001
4.242627e+002, 2.801498e-001
4.261911e+002, 2.734286e-001
4.281196e+002, 2.636377e-001
4.300481e+002, 2.558485e-001
4.319765e+002, 2.482070e-001
4.339050e+002, 2.428179e-001
4.358335e+002, 2.445091e-001
4.377619e+002, 2.500728e-001
4.396904e+002, 2.554106e-001
4.416189e+002, 2.592371e-001
4.435473e+002, 2.513779e-001
4.454758e+002, 2.395014e-001
4.474043e+002, 2.308354e-001
4.493327e+002, 2.260483e-001
4.512612e+002, 2.228873e-001
4.531897e+002, 2.229461e-001
4.551181e+002, 2.255485e-001
4.570466e+002, 2.252085e-001
4.589751e+002, 2.201356e-001
4.609035e+002, 2.163389e-001
4.628320e+002, 2.161772e-001
4.647605e+002, 2.181256e-001
4.666889e+002, 2.191639e-001
4.686174e+002, 2.182345e-001
4.705459e+002, 2.202283e-001
4.724743e+002, 2.253495e-001
4.744028e+002, 2.313451e-001
4.763313e+002, 2.377401e-001
4.782597e+002, 2.446356e-001
4.801882e+002, 2.502447e-001
4.821167e+002, 2.533889e-001
4.840451e+002, 2.553070e-001
4.859736e+002, 2.558639e-001
4.879021e+002, 2.573747e-001
4.898305e+002, 2.608840e-001
4.917590e+002, 2.655554e-001
4.936875e+002, 2.695704e-001
4.956159e+002, 2.739894e-001
4.975444e+002, 2.774855e-001
4.994729e+002, 2.769690e-001
5.014013e+002, 2.733445e-001
5.033298e+002, 2.705113e-001
5.052583e+002, 2.700808e-001
5.071867e+002, 2.716354e-001
5.091152e+002, 2.741790e-001
5.110437e+002, 2.783186e-001
5.129721e+002, 2.838365e-001
5.149006e+002, 2.879455e-001
5.168290e+002, 2.916847e-001
5.187575e+002, 2.962959e-001
5.206860e+002, 2.999451e-001
5.226144e+002, 3.004924e-001
5.245429e+002, 3.015105e-001
5.264714e+002, 3.020505e-001
5.283998e+002, 3.010808e-001
5.303283e+002, 2.993315e-001
5.322568e+002, 2.982579e-001
5.341852e+002, 3.007627e-001
5.361137e+002, 3.048709e-001
5.380422e+002, 3.068669e-001
5.399706e+002, 3.080188e-001
5.418991e+002, 3.088839e-001
5.438276e+002, 3.069314e-001
5.457560e+002, 3.037728e-001
5.476845e+002, 3.003188e-001
5.496130e+002, 2.938162e-001
5.515414e+002, 2.837957e-001
5.534699e+002, 2.742490e-001
5.553984e+002, 2.678786e-001
5.573268e+002, 2.633013e-001
5.592553e+002, 2.608327e-001
5.611838e+002, 2.613943e-001
5.631122e+002, 2.643611e-001
5.650407e+002, 2.679232e-001
5.669692e+002, 2.676778e-001
5.688976e+002, 2.602646e-001
5.708261e+002, 2.486612e-001
5.727546e+002, 2.348469e-001
5.746830e+002, 2.217737e-001
5.766115e+002, 2.106020e-001
5.785400e+002, 2.006064e-001
5.804684e+002, 1.903469e-001
5.823969e+002, 1.811986e-001
5.843254e+002, 1.741118e-001
5.862538e+002, 1.703856e-001
5.881823e+002, 1.706725e-001
5.901108e+002, 1.752240e-001
5.920392e+002, 1.841802e-001
5.939677e+002, 1.972944e-001
5.958962e+002, 2.091160e-001
5.978246e+002, 2.123366e-001
5.997531e+002, 2.075765e-001
6.016816e+002, 1.982033e-001
6.036100e+002, 1.879732e-001
6.055385e+002, 1.787635e-001
6.074670e+002, 1.718253e-001
6.093954e+002, 1.690700e-001
6.113239e+002, 1.707674e-001
6.132524e+002, 1.747721e-001
6.151808e+002, 1.790168e-001
6.171093e+002, 1.802031e-001
6.190378e+002, 1.776608e-001
6.209662e+002, 1.733934e-001
6.228947e+002, 1.692811e-001
6.248232e+002, 1.667191e-001
6.267516e+002, 1.663192e-001
6.286801e+002, 1.656983e-001
6.306086e+002, 1.624196e-001
6.325370e+002, 1.560475e-001
6.344655e+002, 1.481106e-001
6.363940e+002, 1.413580e-001
6.383224e+002, 1.367500e-001
6.402509e+002, 1.344583e-001
6.421794e+002, 1.341176e-001
6.441078e+002, 1.353127e-001
6.460363e+002, 1.376386e-001
6.479648e+002, 1.412188e-001
6.498932e+002, 1.456749e-001
6.518217e+002, 1.507454e-001
6.537502e+002, 1.567903e-001
6.556786e+002, 1.638358e-001
6.576071e+002, 1.703246e-001
6.595356e+002, 1.762090e-001
6.614641e+002, 1.809296e-001
6.633925e+002, 1.830145e-001
6.653210e+002, 1.818295e-001
6.672495e+002, 1.770071e-001
6.691779e+002, 1.687316e-001
6.711064e+002, 1.586711e-001
6.730349e+002, 1.485105e-001
6.749633e+002, 1.392128e-001
6.768918e+002, 1.312657e-001
6.788203e+002, 1.264477e-001
6.807487e+002, 1.258408e-001
6.826772e+002, 1.256845e-001
6.846057e+002, 1.240489e-001
6.865341e+002, 1.220537e-001
6.884626e+002, 1.199615e-001
6.903911e+002, 1.183959e-001
6.923195e+002, 1.174964e-001
6.942480e+002, 1.167696e-001
6.961765e+002, 1.159874e-001
6.981049e+002, 1.152046e-001
7.000334e+002, 1.144586e-001
7.019619e+002, 1.136054e-001
7.038903e+002, 1.130977e-001
7.058188e+002, 1.128886e-001
7.077473e+002, 1.132436e-001
7.096757e+002, 1.140840e-001
7.116042e+002, 1.153657e-001
7.135327e+002, 1.165535e-001
7.154611e+002, 1.173500e-001
7.173896e+002, 1.179768e-001
7.193181e+002, 1.183960e-001
7.212465e+002, 1.184848e-001
7.231750e+002, 1.183172e-001
7.251035e+002, 1.177556e-001
7.270319e+002, 1.166450e-001
7.289604e+002, 1.156449e-001
7.308889e+002, 1.148562e-001
7.328173e+002, 1.150449e-001
7.347458e+002, 1.165586e-001
7.366743e+002, 1.187077e-001
7.386027e+002, 1.183176e-001
7.405312e+002, 1.141076e-001
7.424597e+002, 1.074584e-001
7.443881e+002, 9.974984e-002
7.463166e+002, 9.217480e-002
7.482451e+002, 8.499726e-002
7.501735e+002, 7.844487e-002
7.521020e+002, 7.232382e-002
7.540305e+002, 6.625453e-002
7.559589e+002, 6.108085e-002
7.578874e+002, 5.698169e-002
7.598159e+002, 5.384763e-002
7.617443e+002, 5.173526e-002
7.636728e+002, 5.013376e-002
7.656013e+002, 4.830783e-002
7.675297e+002, 4.585164e-002
7.694582e+002, 4.314952e-002
7.713867e+002, 4.084671e-002
7.733151e+002, 3.910898e-002
7.752436e+002, 3.815364e-002
7.771721e+002, 3.797399e-002
7.791005e+002, 3.863565e-002
7.810290e+002, 4.035090e-002
7.829575e+002, 4.297924e-002
7.848859e+002, 4.613343e-002
7.868144e+002, 4.972459e-002
7.887429e+002, 5.262652e-002
7.906713e+002, 5.374305e-002
7.925998e+002, 5.260341e-002
7.945283e+002, 4.968007e-002
7.964567e+002, 4.597924e-002
7.983852e+002, 4.214528e-002
8.003137e+002, 3.862766e-002
8.022421e+002, 3.586462e-002
8.041706e+002, 3.392983e-002
8.060991e+002, 3.250577e-002
8.080275e+002, 3.125112e-002
8.099560e+002, 3.030141e-002
8.118845e+002, 2.964023e-002
8.138129e+002, 2.910564e-002
8.157414e+002, 2.870651e-002
8.176699e+002, 2.838538e-002
8.195983e+002, 2.815442e-002
8.215268e+002, 2.831538e-002
8.234553e+002, 2.875385e-002
8.253837e+002, 2.888031e-002
8.273122e+002, 2.875345e-002
8.292407e+002, 2.915721e-002
8.311691e+002, 2.992178e-002
8.330976e+002, 3.049288e-002
8.350261e+002, 3.148464e-002
8.369545e+002, 3.233419e-002
8.388830e+002, 3.312740e-002
8.408115e+002, 3.427887e-002
8.427399e+002, 3.580536e-002
8.446684e+002, 3.749797e-002
8.465969e+002, 3.937132e-002
8.485253e+002, 4.137092e-002
8.504538e+002, 4.367733e-002
8.523823e+002, 4.656441e-002
8.543107e+002, 4.994396e-002
8.562392e+002, 5.375574e-002
8.581677e+002, 5.835721e-002
8.600961e+002, 6.351449e-002
8.620246e+002, 6.920125e-002
8.639531e+002, 7.573697e-002
8.658815e+002, 8.301213e-002
8.678100e+002, 9.058917e-002
8.697385e+002, 9.861258e-002
8.716669e+002, 1.065767e-001
8.735954e+002, 1.141009e-001
8.755239e+002, 1.206914e-001
8.774523e+002, 1.258289e-001
8.793808e+002, 1.293143e-001
8.813093e+002, 1.308617e-001
8.832377e+002, 1.304316e-001
8.851662e+002, 1.281942e-001
8.870947e+002, 1.244867e-001
8.890231e+002, 1.194155e-001
8.909516e+002, 1.134313e-001
8.928801e+002, 1.068162e-001
8.948085e+002, 1.000841e-001
8.967370e+002, 9.332546e-002
8.986655e+002, 8.652534e-002
9.005939e+002, 8.034235e-002
9.025224e+002, 7.514440e-002
9.044509e+002, 7.056684e-002
9.063793e+002, 6.679234e-002
9.083078e+002, 6.356524e-002
9.102363e+002, 6.091322e-002
9.121647e+002, 5.900876e-002
9.140932e+002, 5.791002e-002
9.160217e+002, 5.760771e-002
9.179501e+002, 5.806590e-002
9.198786e+002, 5.931545e-002
9.218071e+002, 6.106953e-002
9.237355e+002, 6.363075e-002
9.256640e+002, 6.705182e-002
9.275925e+002, 7.098850e-002
9.295209e+002, 7.543029e-002
9.314494e+002, 8.081394e-002
9.333779e+002, 8.733775e-002
9.353063e+002, 9.504890e-002
9.372348e+002, 1.041968e-001
9.391633e+002, 1.152101e-001
9.410917e+002, 1.281658e-001
9.430202e+002, 1.430291e-001
9.449487e+002, 1.592229e-001
9.468771e+002, 1.761034e-001
9.488056e+002, 1.930943e-001
9.507341e+002, 2.091289e-001
9.526625e+002, 2.229340e-001
9.545910e+002, 2.327958e-001
9.565195e+002, 2.372640e-001
9.584479e+002, 2.355303e-001
9.603764e+002, 2.286763e-001
9.623049e+002, 2.185424e-001
9.642333e+002, 2.075801e-001
9.661618e+002, 1.977019e-001
9.680903e+002, 1.903554e-001
9.700187e+002, 1.866302e-001
9.719472e+002, 1.865514e-001
9.738757e+002, 1.890930e-001
9.758041e+002, 1.929729e-001
9.777326e+002, 1.972505e-001
9.796611e+002, 2.004577e-001
9.815895e+002, 2.019337e-001
9.835180e+002, 2.016121e-001
9.854465e+002, 1.997498e-001
9.873749e+002, 1.967401e-001
9.893034e+002, 1.926200e-001
9.912319e+002, 1.878226e-001
9.931603e+002, 1.825496e-001
9.950888e+002, 1.769284e-001
9.970173e+002, 1.711371e-001
9.989457e+002, 1.650579e-001
1.000874e+003, 1.589850e-001
1.002803e+003, 1.529154e-001
1.004731e+003, 1.469479e-001
1.006660e+003, 1.413630e-001
1.008588e+003, 1.361350e-001
1.010517e+003, 1.312421e-001
1.012445e+003, 1.265409e-001
1.014373e+003, 1.219981e-001
1.016302e+003, 1.178045e-001
1.018230e+003, 1.137717e-001
1.020159e+003, 1.093942e-001
1.022087e+003, 1.048384e-001
1.024016e+003, 9.997332e-002
1.025944e+003, 9.458595e-002
1.027873e+003, 8.904655e-002
1.029801e+003, 8.327219e-002
1.031730e+003, 7.750878e-002
1.033658e+003, 7.212685e-002
1.035587e+003, 6.707089e-002
1.037515e+003, 6.260654e-002
1.039443e+003, 5.872968e-002
1.041372e+003, 5.521080e-002
1.043300e+003, 5.224469e-002
1.045229e+003, 4.980600e-002
1.047157e+003, 4.770373e-002
1.049086e+003, 4.630751e-002
1.051014e+003, 4.570457e-002
1.052943e+003, 4.518885e-002
1.054871e+003, 4.488561e-002
1.056800e+003, 4.474699e-002
1.058728e+003, 4.434814e-002
1.060657e+003, 4.345771e-002
1.062585e+003, 4.200457e-002
1.064514e+003, 4.018143e-002
1.066442e+003, 3.833978e-002
1.068370e+003, 3.667452e-002
1.070299e+003, 3.505484e-002
1.072227e+003, 3.362139e-002
1.074156e+003, 3.227320e-002
1.076084e+003, 3.091254e-002
1.078013e+003, 2.969408e-002
1.079941e+003, 2.865136e-002
1.081870e+003, 2.750576e-002
1.083798e+003, 2.645836e-002
1.085727e+003, 2.548715e-002
1.087655e+003, 2.467104e-002
1.089584e+003, 2.397620e-002
1.091512e+003, 2.307695e-002
1.093441e+003, 2.222848e-002
1.095369e+003, 2.161942e-002
1.097297e+003, 2.107454e-002
1.099226e+003, 2.039592e-002
1.101154e+003, 1.965059e-002
1.103083e+003, 1.895079e-002
1.105011e+003, 1.839082e-002
1.106940e+003, 1.779738e-002
1.108868e+003, 1.731705e-002
1.110797e+003, 1.687298e-002
1.112725e+003, 1.643457e-002
1.114654e+003, 1.608736e-002
1.116582e+003, 1.574278e-002
1.118511e+003, 1.532942e-002
1.120439e+003, 1.486786e-002
1.122368e+003, 1.442098e-002
1.124296e+003, 1.397357e-002
1.126224e+003, 1.372018e-002
1.128153e+003, 1.372071e-002
1.130081e+003, 1.349985e-002
1.132010e+003, 1.313747e-002
1.133938e+003, 1.289351e-002
1.135867e+003, 1.263491e-002
1.137795e+003, 1.239397e-002
1.139724e+003, 1.236753e-002
1.141652e+003, 1.224062e-002
1.143581e+003, 1.204602e-002
1.145509e+003, 1.193931e-002
1.147438e+003, 1.190655e-002
1.149366e+003, 1.182051e-002
1.151295e+003, 1.163844e-002
1.153223e+003, 1.148916e-002
1.155151e+003, 1.126441e-002
1.157080e+003, 1.106659e-002
1.159008e+003, 1.102685e-002
1.160937e+003, 1.110794e-002
1.162865e+003, 1.105754e-002
1.164794e+003, 1.097040e-002
1.166722e+003, 1.100424e-002
1.168651e+003, 1.081618e-002
1.170579e+003, 1.072484e-002
1.172508e+003, 1.082793e-002
1.174436e+003, 1.091927e-002
1.176365e+003, 1.094141e-002
1.178293e+003, 1.086646e-002
1.180222e+003, 1.087856e-002
1.182150e+003, 1.104198e-002
1.184078e+003, 1.112717e-002
1.186007e+003, 1.109092e-002
1.187935e+003, 1.112978e-002
1.189864e+003, 1.130415e-002
1.191792e+003, 1.135380e-002
1.193721e+003, 1.147874e-002
1.195649e+003, 1.155528e-002
1.197578e+003, 1.175554e-002
1.199506e+003, 1.211247e-002
1.201435e+003, 1.226730e-002
1.203363e+003, 1.240921e-002
1.205292e+003, 1.271850e-002
1.207220e+003, 1.307029e-002
1.209149e+003, 1.330174e-002
1.211077e+003, 1.355109e-002
1.213005e+003, 1.395744e-002
1.214934e+003, 1.432091e-002
1.216862e+003, 1.471852e-002
1.218791e+003, 1.521071e-002
1.220719e+003, 1.581775e-002
1.222648e+003, 1.638751e-002
1.224576e+003, 1.683394e-002
1.226505e+003, 1.733349e-002
1.228433e+003, 1.790301e-002
1.230362e+003, 1.858674e-002
1.232290e+003, 1.939530e-002
1.234219e+003, 2.013117e-002
1.236147e+003, 2.101574e-002
1.238076e+003, 2.180531e-002
1.240004e+003, 2.239307e-002
1.241932e+003, 2.313154e-002
1.243861e+003, 2.387579e-002
1.245789e+003, 2.468628e-002
1.247718e+003, 2.568425e-002
1.249646e+003, 2.679415e-002
1.251575e+003, 2.800709e-002
1.253503e+003, 2.932930e-002
1.255432e+003, 3.089524e-002
1.257360e+003, 3.270762e-002
1.259289e+003, 3.471099e-002
1.261217e+003, 3.679042e-002
1.263146e+003, 3.907319e-002
1.265074e+003, 4.161156e-002
1.267003e+003, 4.457045e-002
1.268931e+003, 4.772956e-002
1.270859e+003, 5.094038e-002
1.272788e+003, 5.445962e-002
1.274716e+003, 5.843315e-002
1.276645e+003, 6.262562e-002
1.278573e+003, 6.699855e-002
1.280502e+003, 7.181437e-002
1.282430e+003, 7.717309e-002
1.284359e+003, 8.307431e-002
1.286287e+003, 8.943676e-002
1.288216e+003, 9.617842e-002
1.290144e+003, 1.031938e-001
1.292073e+003, 1.104695e-001
1.294001e+003, 1.178437e-001
1.295930e+003, 1.246868e-001
1.297858e+003, 1.307045e-001
1.299786e+003, 1.358525e-001
1.301715e+003, 1.399756e-001
1.303643e+003, 1.427969e-001
1.305572e+003, 1.443137e-001
1.307500e+003, 1.448483e-001
1.309429e+003, 1.448140e-001
1.311357e+003, 1.438327e-001
1.313286e+003, 1.422310e-001
1.315214e+003, 1.399812e-001
1.317143e+003, 1.371226e-001
1.319071e+003, 1.335101e-001
1.321000e+003, 1.295412e-001
1.322928e+003, 1.251201e-001
1.324857e+003, 1.203912e-001
1.326785e+003, 1.155083e-001
1.328714e+003, 1.102969e-001
1.330642e+003, 1.049780e-001
1.332570e+003, 9.973024e-002
1.334499e+003, 9.428366e-002
1.336427e+003, 8.878942e-002
1.338356e+003, 8.354267e-002
1.340284e+003, 7.858159e-002
1.342213e+003, 7.390153e-002
1.344141e+003, 6.986301e-002
1.346070e+003, 6.659170e-002
1.347998e+003, 6.422885e-002
1.349927e+003, 6.275763e-002
1.351855e+003, 6.269649e-002
1.353784e+003, 6.402913e-002
1.355712e+003, 6.643224e-002
1.357641e+003, 6.977965e-002
1.359569e+003, 7.299537e-002
1.361497e+003, 7.563855e-002
1.363426e+003, 7.865828e-002
1.365354e+003, 8.251705e-002
1.367283e+003, 8.652092e-002
1.369211e+003, 8.937799e-002
1.371140e+003, 9.010121e-002
1.373068e+003, 8.868451e-002
1.374997e+003, 8.599681e-002
1.376925e+003, 8.285448e-002
1.378854e+003, 8.002561e-002
1.380782e+003, 7.811709e-002
1.382711e+003, 7.752317e-002
1.384639e+003, 7.827823e-002
1.386568e+003, 8.037416e-002
1.388496e+003, 8.358459e-002
1.390424e+003, 8.776966e-002
1.392353e+003, 9.262738e-002
1.394281e+003, 9.775322e-002
1.396210e+003, 1.030110e-001
1.398138e+003, 1.078188e-001
1.400067e+003, 1.116467e-001
1.401995e+003, 1.146312e-001
1.403924e+003, 1.169159e-001
1.405852e+003, 1.183456e-001
1.407781e+003, 1.188979e-001
1.409709e+003, 1.185752e-001
1.411638e+003, 1.171283e-001
1.413566e+003, 1.145884e-001
1.415495e+003, 1.111906e-001
1.417423e+003, 1.073996e-001
1.419351e+003, 1.032954e-001
1.421280e+003, 9.857123e-002
1.423208e+003, 9.318238e-002
1.425137e+003, 8.715903e-002
1.427065e+003, 8.092897e-002
1.428994e+003, 7.476565e-002
1.430922e+003, 6.854051e-002
1.432851e+003, 6.231261e-002
1.434779e+003, 5.636203e-002
1.436708e+003, 5.072906e-002
1.438636e+003, 4.536642e-002
1.440565e+003, 4.014447e-002
1.442493e+003, 3.544277e-002
1.444422e+003, 3.176581e-002
1.446350e+003, 2.976747e-002
1.448278e+003, 3.047327e-002
1.450207e+003, 3.370161e-002
1.452135e+003, 3.825869e-002
1.454064e+003, 4.319436e-002
1.455992e+003, 4.785598e-002
1.457921e+003, 5.151706e-002
1.459849e+003, 5.418250e-002
1.461778e+003, 5.572747e-002
1.463706e+003, 5.537412e-002
1.465635e+003, 5.304487e-002
1.467563e+003, 4.913679e-002
1.469492e+003, 4.477979e-002
1.471420e+003, 4.045592e-002
1.473349e+003, 3.608771e-002
1.475277e+003, 3.165172e-002
1.477205e+003, 2.720853e-002
1.479134e+003, 2.291176e-002
1.481062e+003, 1.895704e-002
1.482991e+003, 1.533978e-002
1.484919e+003, 1.215666e-002
1.486848e+003, 9.896128e-003
1.488776e+003, 8.292496e-003
1.490705e+003, 7.125920e-003
1.492633e+003, 6.444119e-003
1.494562e+003, 6.091545e-003
1.496490e+003, 5.728286e-003
1.498419e+003, 5.297453e-003
1.500347e+003, 4.765933e-003
1.502276e+003, 4.501309e-003
1.504204e+003, 4.403066e-003
1.506132e+003, 4.322306e-003
1.508061e+003, 4.300975e-003
1.509989e+003, 4.091474e-003
1.511918e+003, 3.742077e-003
1.513846e+003, 3.526294e-003
1.515775e+003, 3.521650e-003
1.517703e+003, 3.478159e-003
1.519632e+003, 3.510118e-003
1.521560e+003, 3.481219e-003
1.523489e+003, 3.292327e-003
1.525417e+003, 3.136162e-003
1.527346e+003, 3.050344e-003
1.529274e+003, 3.143643e-003
1.531203e+003, 3.193542e-003
1.533131e+003, 3.147448e-003
1.535059e+003, 3.057536e-003
1.536988e+003, 3.078931e-003
1.538916e+003, 3.316683e-003
1.540845e+003, 3.462313e-003
1.542773e+003, 3.364196e-003
1.544702e+003, 3.269303e-003
1.546630e+003, 3.202890e-003
1.548559e+003, 3.350578e-003
1.550487e+003, 3.605103e-003
1.552416e+003, 3.531255e-003
1.554344e+003, 3.398471e-003
1.556273e+003, 3.447578e-003
1.558201e+003, 3.488444e-003
1.560130e+003, 3.394669e-003
1.562058e+003, 3.396794e-003
1.563986e+003, 3.400528e-003
1.565915e+003, 3.294715e-003
1.567843e+003, 3.341536e-003
1.569772e+003, 3.495628e-003
1.571700e+003, 3.510507e-003
1.573629e+003, 3.444540e-003
1.575557e+003, 3.446149e-003
1.577486e+003, 3.451429e-003
1.579414e+003, 3.335227e-003
1.581343e+003, 3.315092e-003
1.583271e+003, 3.491592e-003
1.585200e+003, 3.453837e-003
1.587128e+003, 3.370535e-003
1.589057e+003, 3.352572e-003
1.590985e+003, 3.486180e-003
1.592913e+003, 3.510630e-003
1.594842e+003, 3.373950e-003
1.596770e+003, 3.298248e-003
1.598699e+003, 3.374792e-003
1.600627e+003, 3.418688e-003
1.602556e+003, 3.379592e-003
1.604484e+003, 3.425930e-003
1.606413e+003, 3.453758e-003
1.608341e+003, 3.440355e-003
1.610270e+003, 3.556456e-003
1.612198e+003, 3.718006e-003
1.614127e+003, 3.803070e-003
1.616055e+003, 3.765629e-003
1.617984e+003, 3.640365e-003
1.619912e+003, 3.501493e-003
1.621840e+003, 3.607269e-003
1.623769e+003, 3.735153e-003
1.625697e+003, 3.676631e-003
1.627626e+003, 3.699812e-003
1.629554e+003, 3.797303e-003
1.631483e+003, 3.924814e-003
1.633411e+003, 4.069129e-003
1.635340e+003, 3.868696e-003
1.637268e+003, 3.809517e-003
1.639197e+003, 3.763298e-003
1.641125e+003, 3.783369e-003
1.643054e+003, 3.965008e-003
1.644982e+003, 4.154187e-003
1.646911e+003, 4.085259e-003
1.648839e+003, 3.968426e-003
1.650767e+003, 4.097288e-003
1.652696e+003, 4.138885e-003
1.654624e+003, 4.014268e-003
1.656553e+003, 4.007929e-003
1.658481e+003, 3.796920e-003
1.660410e+003, 3.431511e-003
1.662338e+003, 3.256510e-003
1.664267e+003, 3.335204e-003
1.666195e+003, 3.390173e-003
1.668124e+003, 3.396887e-003
1.670052e+003, 3.243910e-003
1.671981e+003, 3.355475e-003
1.673909e+003, 3.260027e-003
1.675838e+003, 3.237481e-003
1.677766e+003, 3.384580e-003
1.679694e+003, 3.393638e-003
1.681623e+003, 3.185312e-003
1.683551e+003, 3.200531e-003
1.685480e+003, 3.175448e-003
1.687408e+003, 3.130647e-003
1.689337e+003, 3.078938e-003
1.691265e+003, 2.998355e-003
1.693194e+003, 3.044105e-003
1.695122e+003, 3.000554e-003
1.697051e+003, 2.852078e-003
1.698979e+003, 2.876424e-003
1.700908e+003, 2.848316e-003
1.702836e+003, 2.638526e-003
1.704765e+003, 2.566888e-003
1.706693e+003, 2.549845e-003
1.708621e+003, 2.466345e-003
1.710550e+003, 2.478368e-003
1.712478e+003, 2.626831e-003
1.714407e+003, 2.633123e-003
1.716335e+003, 2.348823e-003
1.718264e+003, 2.224313e-003
1.720192e+003, 2.270628e-003
1.722121e+003, 2.414459e-003
1.724049e+003, 2.397593e-003
1.725978e+003, 2.114363e-003
1.727906e+003, 1.992695e-003
1.729835e+003, 1.926449e-003
1.731763e+003, 2.009514e-003
1.733692e+003, 2.233217e-003
1.735620e+003, 2.073779e-003
1.737548e+003, 1.535774e-003
1.739477e+003, 1.164462e-003
1.741405e+003, 1.136082e-003
1.743334e+003, 1.272173e-003
1.745262e+003, 1.500128e-003
1.747191e+003, 1.510982e-003
1.749119e+003, 1.405947e-003
1.751048e+003, 1.313894e-003
1.752976e+003, 1.370241e-003
1.754905e+003, 1.470873e-003
1.756833e+003, 1.276466e-003
1.758762e+003, 1.336215e-003
1.760690e+003, 1.477165e-003
1.762619e+003, 1.535978e-003
1.764547e+003, 1.573194e-003
1.766475e+003, 1.960081e-003
1.768404e+003, 2.080868e-003
1.770332e+003, 1.843001e-003
1.772261e+003, 1.819379e-003
1.774189e+003, 1.828229e-003
1.776118e+003, 1.829003e-003
1.778046e+003, 1.753137e-003
1.779975e+003, 1.592003e-003
1.781903e+003, 1.607785e-003
1.783832e+003, 1.681052e-003
1.785760e+003, 1.647091e-003
1.787689e+003, 1.801700e-003
1.789617e+003, 2.107212e-003
1.791546e+003, 1.932462e-003
1.793474e+003, 1.704784e-003
1.795402e+003, 1.673030e-003
1.797331e+003, 1.558317e-003
1.799259e+003, 1.612118e-003
1.801188e+003, 1.822077e-003
1.803116e+003, 2.046384e-003
1.805045e+003, 1.953213e-003
1.806973e+003, 2.085115e-003
1.808902e+003, 2.116525e-003
1.810830e+003, 1.965785e-003
1.812759e+003, 2.058604e-003
1.814687e+003, 1.839550e-003
1.816616e+003, 1.633607e-003
1.818544e+003, 1.972615e-003
1.820473e+003, 2.253079e-003
1.822401e+003, 2.228862e-003
1.824329e+003, 2.447573e-003
1.826258e+003, 2.621327e-003
1.828186e+003, 2.064948e-003
1.830115e+003, 1.572499e-003
1.832043e+003, 1.891025e-003
1.833972e+003, 2.181696e-003
1.835900e+003, 2.084918e-003
1.837829e+003, 1.899676e-003
1.839757e+003, 2.121286e-003
1.841686e+003, 2.335819e-003
1.843614e+003, 2.014650e-003
1.845543e+003, 1.555193e-003
1.847471e+003, 1.806584e-003
1.849400e+003, 2.130519e-003
1.851328e+003, 2.026450e-003
1.853256e+003, 2.063756e-003
1.855185e+003, 2.012940e-003
1.857113e+003, 1.962151e-003
1.859042e+003, 2.008321e-003
1.860970e+003, 1.962729e-003
1.862899e+003, 1.937212e-003
1.864827e+003, 1.749014e-003
1.866756e+003, 1.813353e-003
1.868684e+003, 2.106788e-003
1.870613e+003, 1.755872e-003
1.872541e+003, 1.461935e-003
1.874470e+003, 1.268885e-003
1.876398e+003, 1.350256e-003
1.878327e+003, 1.462565e-003
1.880255e+003, 1.640708e-003
1.882183e+003, 1.371093e-003
1.884112e+003, 1.041475e-003
1.886040e+003, 1.235206e-003
1.887969e+003, 1.401369e-003
1.889897e+003, 9.217773e-004
1.891826e+003, 8.539132e-004
1.893754e+003, 1.069439e-003
1.895683e+003, 5.561525e-004
1.897611e+003, 4.492991e-006
1.899540e+003, 1.594718e-004
1.901468e+003, 2.272528e-004
1.903397e+003, 4.024382e-004
1.905325e+003, 3.063781e-004
1.907254e+003, -2.131363e-004
1.909182e+003, -2.710089e-004
1.911110e+003, 9.880091e-005
1.913039e+003, -9.088192e-005
1.914967e+003, -1.902954e-005
1.916896e+003, 2.868623e-004
1.918824e+003, 3.137515e-005
1.920753e+003, -4.570117e-004
1.922681e+003, -3.311798e-004
1.924610e+003, -2.791954e-005
1.926538e+003, 6.842078e-005
1.928467e+003, 2.746503e-004
1.930395e+003, 6.283681e-004
1.932324e+003, 9.831080e-004
1.934252e+003, 8.179012e-004
1.936181e+003, 8.652322e-004
1.938109e+003, 1.414699e-003
1.940037e+003, 1.159166e-003
1.941966e+003, 5.200717e-004
1.943894e+003, -6.895408e-005
1.945823e+003, -7.440995e-004
1.947751e+003, -6.053105e-004
1.949680e+003, 2.265048e-004
1.951608e+003, 1.832857e-004
1.953537e+003, 5.875304e-004
1.955465e+003, 2.037220e-004
1.957394e+003, -1.928557e-004
1.959322e+003, -9.088847e-004
1.961251e+003, -6.194848e-004
1.963179e+003, 1.045153e-005
1.965108e+003, -1.511306e-004
1.967036e+003, -9.521889e-005
1.968964e+003, -1.024095e-003
1.970893e+003, -1.598410e-003
1.972821e+003, -9.724859e-004
1.974750e+003, -5.929710e-004
1.976678e+003, 6.438908e-004
1.978607e+003, 2.189848e-003
1.980535e+003, 2.579391e-003
1.982464e+003, 1.995420e-003
1.984392e+003, 2.241897e-003
1.986321e+003, 1.046448e-003
1.988249e+003, -4.227445e-004
1.990178e+003, 6.808124e-004
1.992106e+003, 1.387607e-003
1.994035e+003, 1.138940e-003
1.995963e+003, 1.594160e-003
1.997891e+003, 1.369618e-003
1.999820e+003, 5.684767e-004
2.001748e+003, -3.340519e-004
2.003677e+003, -3.177375e-004
2.005605e+003, 6.479002e-005
2.007534e+003, 1.080796e-003
2.009462e+003, 9.170282e-004
2.011391e+003, -6.211773e-004
2.013319e+003, 1.932459e-004
2.015248e+003, 7.873573e-004
2.017176e+003, 5.456167e-004
2.019105e+003, 2.128226e-004
2.021033e+003, 6.992288e-004
2.022962e+003, 4.944226e-004
2.024890e+003, 2.870345e-004
2.026818e+003, 1.688363e-003
2.028747e+003, 2.843041e-003
2.030675e+003, 2.616890e-003
2.032604e+003, 2.678367e-003
2.034532e+003, 3.422583e-003
2.036461e+003, 3.965032e-003
2.038389e+003, 3.750586e-003
2.040318e+003, 3.496433e-003
2.042246e+003, 3.418652e-003
2.044175e+003, 3.270537e-003
2.046103e+003, 2.812635e-003
2.048031e+003, 3.693728e-003
2.049960e+003, 4.913596e-003
2.051888e+003, 3.999264e-003
2.053817e+003, 2.820779e-003
2.055745e+003, 3.163919e-003
2.057674e+003, 3.591054e-003
2.059602e+003, 3.349097e-003
2.061531e+003, 3.553526e-003
2.063459e+003, 4.119271e-003
2.065388e+003, 3.909146e-003
2.067316e+003, 3.582539e-003
2.069245e+003, 3.852491e-003
2.071173e+003, 4.181807e-003
2.073102e+003, 4.336736e-003
2.075030e+003, 4.172183e-003
2.076958e+003, 3.908822e-003
2.078887e+003, 3.736117e-003
2.080815e+003, 3.813123e-003
2.082744e+003, 3.963794e-003
2.084672e+003, 3.990997e-003
2.086601e+003, 4.283778e-003
2.088529e+003, 4.319948e-003
2.090458e+003, 3.879141e-003
2.092386e+003, 2.879226e-003
2.094315e+003, 2.662142e-003
2.096243e+003, 3.698320e-003
2.098172e+003, 4.227421e-003
2.100100e+003, 4.337264e-003
2.102029e+003, 4.760010e-003
2.103957e+003, 5.202034e-003
2.105885e+003, 4.703352e-003
2.107814e+003, 4.417149e-003
2.109742e+003, 4.606389e-003
2.111671e+003, 4.340312e-003
2.113599e+003, 3.456809e-003
2.115528e+003, 3.565797e-003
2.117456e+003, 3.654920e-003
2.119385e+003, 3.901142e-003
2.121313e+003, 3.961562e-003
2.123242e+003, 3.567758e-003
2.125170e+003, 3.314217e-003
2.127099e+003, 2.639082e-003
2.129027e+003, 2.278326e-003
2.130956e+003, 1.917823e-003
2.132884e+003, 1.987438e-003
2.134813e+003, 3.768829e-003
2.136741e+003, 4.984487e-003
2.138669e+003, 4.212275e-003
2.140598e+003, 3.272580e-003
2.142526e+003, 2.836334e-003
2.144455e+003, 2.966224e-003
2.146383e+003, 3.504979e-003
2.148312e+003, 4.000731e-003
2.150240e+003, 4.483430e-003
2.152169e+003, 4.518797e-003
2.154097e+003, 3.377669e-003
2.156026e+003, 1.871713e-003
2.157954e+003, 3.653610e-003
2.159883e+003, 7.496916e-003
2.161811e+003, 8.131247e-003
2.163740e+003, 7.525419e-003
2.165668e+003, 8.230969e-003
2.167596e+003, 7.879569e-003
2.169525e+003, 7.552497e-003
2.171453e+003, 6.934797e-003
2.173382e+003, 5.751640e-003
2.175310e+003, 6.202645e-003
2.177239e+003, 7.695924e-003
2.179167e+003, 7.408655e-003
2.181096e+003, 6.295922e-003
2.183024e+003, 6.215922e-003
2.184953e+003, 6.914172e-003
2.186881e+003, 6.872796e-003
2.188810e+003, 6.002037e-003
2.190738e+003, 5.946127e-003
2.192667e+003, 6.064497e-003
2.194595e+003, 6.535337e-003
2.196523e+003, 6.697970e-003
2.198452e+003, 6.958406e-003
2.200380e+003, 7.589341e-003
2.202309e+003, 6.328414e-003
2.204237e+003, 4.870797e-003
2.206166e+003, 5.101067e-003
2.208094e+003, 5.423196e-003
2.210023e+003, 5.760804e-003
2.211951e+003, 6.741871e-003
2.213880e+003, 6.881348e-003
2.215808e+003, 6.104833e-003
2.217737e+003, 6.151718e-003
2.219665e+003, 6.105414e-003
2.221594e+003, 5.696837e-003
2.223522e+003, 5.131822e-003
2.225450e+003, 5.088390e-003
2.227379e+003, 6.356352e-003
2.229307e+003, 6.423021e-003
2.231236e+003, 5.746172e-003
2.233164e+003, 6.132502e-003
2.235093e+003, 6.794849e-003
2.237021e+003, 7.016599e-003
2.238950e+003, 6.779309e-003
2.240878e+003, 6.656918e-003
2.242807e+003, 7.272695e-003
2.244735e+003, 7.594579e-003
2.246664e+003, 6.821060e-003
2.248592e+003, 6.339000e-003
2.250521e+003, 6.266088e-003
2.252449e+003, 6.001626e-003
2.254377e+003, 6.322584e-003
2.256306e+003, 6.529875e-003
2.258234e+003, 5.646565e-003
2.260163e+003, 5.639461e-003
2.262091e+003, 6.763987e-003
2.264020e+003, 6.812628e-003
2.265948e+003, 6.918797e-003
2.267877e+003, 7.359419e-003
2.269805e+003, 7.662115e-003
2.271734e+003, 7.229498e-003
2.273662e+003, 6.982741e-003
2.275591e+003, 6.981882e-003
2.277519e+003, 7.114231e-003
2.279448e+003, 7.317078e-003
2.281376e+003, 7.397521e-003
2.283304e+003, 7.163422e-003
2.285233e+003, 7.090956e-003
2.287161e+003, 6.657333e-003
2.289090e+003, 6.740072e-003
2.291018e+003, 7.259151e-003
2.292947e+003, 7.306737e-003
2.294875e+003, 6.836863e-003
2.296804e+003, 6.623508e-003
2.298732e+003, 6.471552e-003
2.300661e+003, 6.331621e-003
2.302589e+003, 6.480892e-003
2.304518e+003, 6.641550e-003
2.306446e+003, 6.391228e-003
2.308375e+003, 6.231644e-003
2.310303e+003, 6.351361e-003
2.312231e+003, 6.377405e-003
2.314160e+003, 6.532164e-003
2.316088e+003, 6.885201e-003
2.318017e+003, 6.924438e-003
2.319945e+003, 6.842182e-003
2.321874e+003, 7.357573e-003
2.323802e+003, 7.940914e-003
2.325731e+003, 7.138495e-003
2.327659e+003, 6.313260e-003
2.329588e+003, 5.810792e-003
2.331516e+003, 5.740044e-003
2.333445e+003, 5.918726e-003
2.335373e+003, 6.099267e-003
2.337302e+003, 6.270654e-003
2.339230e+003, 5.999909e-003
2.341158e+003, 6.147439e-003
2.343087e+003, 6.158757e-003
2.345015e+003, 5.837108e-003
2.346944e+003, 5.826002e-003
2.348872e+003, 5.479242e-003
2.350801e+003, 5.588996e-003
2.352729e+003, 5.898679e-003
2.354658e+003, 5.950070e-003
2.356586e+003, 6.055253e-003
2.358515e+003, 6.338032e-003
2.360443e+003, 6.302924e-003
2.362372e+003, 5.968460e-003
2.364300e+003, 5.749059e-003
2.366229e+003, 5.753104e-003
2.368157e+003, 5.797209e-003
2.370085e+003, 5.755471e-003
2.372014e+003, 5.560332e-003
2.373942e+003, 5.261747e-003
2.375871e+003, 5.421953e-003
2.377799e+003, 5.750404e-003
2.379728e+003, 5.729416e-003
2.381656e+003, 5.311877e-003
2.383585e+003, 5.412815e-003
2.385513e+003, 5.780249e-003
2.387442e+003, 5.695336e-003
2.389370e+003, 5.365162e-003
2.391299e+003, 5.220228e-003
2.393227e+003, 5.738491e-003
2.395156e+003, 6.342064e-003
2.397084e+003, 6.327724e-003
2.399012e+003, 5.970780e-003
2.400941e+003, 5.628776e-003
2.402869e+003, 5.492494e-003
2.404798e+003, 5.442813e-003
2.406726e+003, 5.507219e-003
2.408655e+003, 6.012451e-003
2.410583e+003, 6.036373e-003
2.412512e+003, 5.848760e-003
2.414440e+003, 6.088894e-003
2.416369e+003, 6.070104e-003
2.418297e+003, 5.927776e-003
2.420226e+003, 5.513974e-003
2.422154e+003, 5.147397e-003
2.424083e+003, 5.483803e-003
2.426011e+003, 5.764981e-003
2.427939e+003, 5.746380e-003
2.429868e+003, 5.522951e-003
2.431796e+003, 5.494559e-003
2.433725e+003, 5.579391e-003
2.435653e+003, 5.964879e-003
2.437582e+003, 5.980366e-003
2.439510e+003, 5.935709e-003
2.441439e+003, 5.680638e-003
2.443367e+003, 5.772495e-003
2.445296e+003, 5.866850e-003
2.447224e+003, 6.169555e-003
2.449153e+003, 6.471916e-003
2.451081e+003, 6.025701e-003
2.453010e+003, 5.523666e-003
2.454938e+003, 5.758791e-003
2.456866e+003, 5.728648e-003
2.458795e+003, 5.409692e-003
2.460723e+003, 5.836316e-003
2.462652e+003, 6.233658e-003
2.464580e+003, 5.902106e-003
2.466509e+003, 5.830668e-003
2.468437e+003, 5.947836e-003
2.470366e+003, 5.798206e-003
2.472294e+003, 5.606023e-003
2.474223e+003, 5.415638e-003
2.476151e+003, 5.240567e-003
2.478080e+003, 5.518220e-003
2.480008e+003, 5.152600e-003
2.481937e+003, 5.261659e-003
2.483865e+003, 5.887042e-003
2.485793e+003, 5.962778e-003
2.487722e+003, 5.766635e-003
2.489650e+003, 5.781103e-003
2.491579e+003, 5.750584e-003
2.493507e+003, 5.582824e-003
2.495436e+003, 5.236176e-003
2.497364e+003, 5.056274e-003
2.499293e+003, 5.505645e-003
2.501221e+003, 5.479278e-003
2.503150e+003, 5.169749e-003
2.505078e+003, 5.222547e-003
2.507007e+003, 5.145982e-003
2.508935e+003, 5.068704e-003
2.510864e+003, 4.769534e-003
2.512792e+003, 4.821727e-003
2.514720e+003, 5.287954e-003
2.516649e+003, 5.394684e-003
2.518577e+003, 5.129947e-003
2.520506e+003, 4.796754e-003
2.522434e+003, 4.545968e-003
2.524363e+003, 4.418888e-003
2.526291e+003, 4.627878e-003
2.528220e+003, 4.924146e-003
2.530148e+003, 4.880271e-003
2.532077e+003, 4.904254e-003
2.534005e+003, 4.644177e-003
2.535934e+003, 4.306568e-003
2.537862e+003, 4.135153e-003
2.539791e+003, 4.593369e-003
2.541719e+003, 5.115491e-003
2.543647e+003, 4.876765e-003
2.545576e+003, 4.580395e-003
2.547504e+003, 4.691381e-003
2.549433e+003, 4.782934e-003
2.551361e+003, 5.043614e-003
2.553290e+003, 5.008875e-003
2.555218e+003, 4.892365e-003
2.557147e+003, 4.853453e-003
2.559075e+003, 4.804866e-003
2.561004e+003, 4.734557e-003
2.562932e+003, 4.655520e-003
2.564861e+003, 5.055271e-003
2.566789e+003, 5.119686e-003
2.568718e+003, 4.930442e-003
2.570646e+003, 4.525832e-003
2.572574e+003, 4.439665e-003
2.574503e+003, 5.121847e-003
2.576431e+003, 5.326157e-003
2.578360e+003, 4.722284e-003
2.580288e+003, 4.242251e-003
2.582217e+003, 3.788411e-003
2.584145e+003, 3.378206e-003
2.586074e+003, 3.857077e-003
2.588002e+003, 4.861382e-003
2.589931e+003, 5.002863e-003
2.591859e+003, 4.813427e-003
2.593788e+003, 4.280676e-003
2.595716e+003, 3.736952e-003
2.597645e+003, 4.073134e-003
2.599573e+003, 4.695390e-003
2.601501e+003, 4.563802e-003
2.603430e+003, 4.247514e-003
2.605358e+003, 4.686974e-003
2.607287e+003, 4.806374e-003
2.609215e+003, 4.288397e-003
2.611144e+003, 4.106909e-003
2.613072e+003, 4.191668e-003
2.615001e+003, 4.248539e-003
2.616929e+003, 4.384011e-003
2.618858e+003, 4.610907e-003
2.620786e+003, 4.705190e-003
2.622715e+003, 4.680074e-003
2.624643e+003, 4.461952e-003
2.626572e+003, 4.850280e-003
2.628500e+003, 5.207896e-003
2.630428e+003, 5.069137e-003
2.632357e+003, 5.082534e-003
2.634285e+003, 5.360033e-003
2.636214e+003, 5.326441e-003
2.638142e+003, 5.322478e-003
2.640071e+003, 5.370530e-003
2.641999e+003, 5.251288e-003
2.643928e+003, 5.362614e-003
2.645856e+003, 5.148153e-003
2.647785e+003, 4.980035e-003
2.649713e+003, 5.370679e-003
2.651642e+003, 5.985777e-003
2.653570e+003, 6.013065e-003
2.655499e+003, 5.626787e-003
2.657427e+003, 5.391784e-003
2.659355e+003, 5.367768e-003
2.661284e+003, 5.423166e-003
2.663212e+003, 5.173624e-003
2.665141e+003, 4.968005e-003
2.667069e+003, 5.078591e-003
2.668998e+003, 5.190756e-003
2.670926e+003, 5.225842e-003
2.672855e+003, 5.389444e-003
2.674783e+003, 5.393814e-003
2.676712e+003, 5.522051e-003
2.678640e+003, 5.776762e-003
2.680569e+003, 5.478690e-003
2.682497e+003, 5.726747e-003
2.684426e+003, 5.902804e-003
2.686354e+003, 5.775237e-003
2.688282e+003, 5.750427e-003
2.690211e+003, 5.613079e-003
2.692139e+003, 5.652902e-003
2.694068e+003, 6.005517e-003
2.695996e+003, 6.148761e-003
2.697925e+003, 6.201643e-003
2.699853e+003, 6.116827e-003
2.701782e+003, 5.860302e-003
2.703710e+003, 6.020566e-003
2.705639e+003, 6.259470e-003
2.707567e+003, 6.316381e-003
2.709496e+003, 6.062900e-003
2.711424e+003, 5.888298e-003
2.713353e+003, 5.927320e-003
2.715281e+003, 5.963408e-003
2.717209e+003, 6.297017e-003
2.719138e+003, 6.526535e-003
2.721066e+003, 6.704290e-003
2.722995e+003, 6.821143e-003
2.724923e+003, 6.626444e-003
2.726852e+003, 6.508251e-003
2.728780e+003, 6.535812e-003
2.730709e+003, 6.388649e-003
2.732637e+003, 6.344500e-003
2.734566e+003, 6.500064e-003
2.736494e+003, 6.566226e-003
2.738423e+003, 6.403863e-003
2.740351e+003, 6.135507e-003
2.742280e+003, 6.217872e-003
2.744208e+003, 6.454382e-003
2.746136e+003, 6.307930e-003
2.748065e+003, 6.020723e-003
2.749993e+003, 6.134337e-003
2.751922e+003, 6.438053e-003
2.753850e+003, 6.632606e-003
2.755779e+003, 6.684127e-003
2.757707e+003, 6.804082e-003
2.759636e+003, 6.794813e-003
2.761564e+003, 6.795193e-003
2.763493e+003, 6.761490e-003
2.765421e+003, 6.740191e-003
2.767350e+003, 6.937108e-003
2.769278e+003, 6.883300e-003
2.771207e+003, 6.570979e-003
2.773135e+003, 6.503626e-003
2.775063e+003, 7.079550e-003
2.776992e+003, 7.019078e-003
2.778920e+003, 6.602601e-003
2.780849e+003, 6.488369e-003
2.782777e+003, 6.725802e-003
2.784706e+003, 6.667518e-003
2.786634e+003, 6.700031e-003
2.788563e+003, 6.669322e-003
2.790491e+003, 6.831950e-003
2.792420e+003, 6.990442e-003
2.794348e+003, 6.844280e-003
2.796277e+003, 6.531190e-003
2.798205e+003, 6.433392e-003
2.800134e+003, 6.541972e-003
2.802062e+003, 6.602069e-003
2.803990e+003, 6.715204e-003
2.805919e+003, 6.662851e-003
2.807847e+003, 6.516693e-003
2.809776e+003, 6.610234e-003
2.811704e+003, 6.824832e-003
2.813633e+003, 7.084772e-003
2.815561e+003, 7.216923e-003
2.817490e+003, 7.285025e-003
2.819418e+003, 7.036924e-003
2.821347e+003, 6.918435e-003
2.823275e+003, 7.092938e-003
2.825204e+003, 6.996722e-003
2.827132e+003, 6.949259e-003
2.829061e+003, 6.940383e-003
2.830989e+003, 6.764340e-003
2.832917e+003, 6.925402e-003
2.834846e+003, 7.436653e-003
2.836774e+003, 7.469472e-003
2.838703e+003, 7.380359e-003
2.840631e+003, 7.880810e-003
2.842560e+003, 7.880822e-003
2.844488e+003, 7.829778e-003
2.846417e+003, 7.843588e-003
2.848345e+003, 7.993984e-003
2.850274e+003, 8.048973e-003
2.852202e+003, 7.813275e-003
2.854131e+003, 7.486714e-003
2.856059e+003, 7.423188e-003
2.857988e+003, 7.941150e-003
2.859916e+003, 8.071119e-003
2.861844e+003, 8.018485e-003
2.863773e+003, 8.273224e-003
2.865701e+003, 8.289260e-003
2.867630e+003, 8.434845e-003
2.869558e+003, 8.591729e-003
2.871487e+003, 8.791656e-003
2.873415e+003, 8.709411e-003
2.875344e+003, 8.567474e-003
2.877272e+003, 8.456750e-003
2.879201e+003, 8.613264e-003
2.881129e+003, 9.205276e-003
2.883058e+003, 9.111322e-003
2.884986e+003, 8.196818e-003
2.886915e+003, 8.464842e-003
2.888843e+003, 9.316432e-003
2.890771e+003, 9.376843e-003
2.892700e+003, 9.303290e-003
2.894628e+003, 9.302506e-003
2.896557e+003, 9.274727e-003
2.898485e+003, 9.531647e-003
2.900414e+003, 9.884940e-003
2.902342e+003, 9.647148e-003
2.904271e+003, 9.451165e-003
2.906199e+003, 9.629898e-003
2.908128e+003, 9.646054e-003
2.910056e+003, 9.989113e-003
2.911985e+003, 1.032005e-002
2.913913e+003, 1.022192e-002
2.915842e+003, 9.922171e-003
2.917770e+003, 1.004173e-002
2.919698e+003, 1.026159e-002
2.921627e+003, 1.005999e-002
2.923555e+003, 1.031354e-002
2.925484e+003, 1.058496e-002
2.927412e+003, 1.002797e-002
2.929341e+003, 9.567784e-003
2.931269e+003, 9.757244e-003
2.933198e+003, 1.008370e-002
2.935126e+003, 9.894459e-003
2.937055e+003, 9.475544e-003
2.938983e+003, 9.360289e-003
2.940912e+003, 9.281684e-003
2.942840e+003, 9.276132e-003
2.944769e+003, 9.577933e-003
2.946697e+003, 9.875358e-003
2.948625e+003, 1.034568e-002
2.950554e+003, 9.943171e-003
2.952482e+003, 9.331637e-003
2.954411e+003, 9.410466e-003
2.956339e+003, 1.003609e-002
2.958268e+003, 9.631908e-003
2.960196e+003, 9.286885e-003
2.962125e+003, 9.867380e-003
2.964053e+003, 1.022097e-002
2.965982e+003, 1.013993e-002
2.967910e+003, 9.892285e-003
2.969839e+003, 9.901341e-003
2.971767e+003, 1.007523e-002
2.973696e+003, 9.616385e-003
2.975624e+003, 9.583250e-003
2.977552e+003, 9.516760e-003
2.979481e+003, 9.312171e-003
2.981409e+003, 9.499954e-003
2.983338e+003, 9.980118e-003
2.985266e+003, 1.050405e-002
2.987195e+003, 1.048116e-002
2.989123e+003, 9.816018e-003
2.991052e+003, 9.643285e-003
2.992980e+003, 9.928531e-003
2.994909e+003, 1.004949e-002
2.996837e+003, 1.012706e-002
2.998766e+003, 1.032241e-002
3.000694e+003, 1.000444e-002
3.002623e+003, 9.807937e-003
3.004551e+003, 1.041806e-002
3.006479e+003, 1.087583e-002
3.008408e+003, 1.085069e-002
3.010336e+003, 1.074980e-002
3.012265e+003, 1.070221e-002
3.014193e+003, 1.039440e-002
3.016122e+003, 1.059000e-002
3.018050e+003, 1.101566e-002
3.019979e+003, 1.157806e-002
3.021907e+003, 1.164582e-002
3.023836e+003, 1.126612e-002
3.025764e+003, 1.141049e-002
3.027693e+003, 1.133768e-002
3.029621e+003, 1.128735e-002
3.031550e+003, 1.120818e-002
3.033478e+003, 1.090268e-002
3.035406e+003, 1.107985e-002
3.037335e+003, 1.123431e-002
3.039263e+003, 1.129229e-002
3.041192e+003, 1.155473e-002
3.043120e+003, 1.206012e-002
3.045049e+003, 1.270871e-002
3.046977e+003, 1.275739e-002
3.048906e+003, 1.235862e-002
3.050834e+003, 1.242210e-002
3.052763e+003, 1.287116e-002
3.054691e+003, 1.279330e-002
3.056620e+003, 1.265686e-002
3.058548e+003, 1.272895e-002
3.060477e+003, 1.257764e-002
3.062405e+003, 1.282821e-002
3.064333e+003, 1.296481e-002
3.066262e+003, 1.275833e-002
3.068190e+003, 1.258579e-002
3.070119e+003, 1.296894e-002
3.072047e+003, 1.334628e-002
3.073976e+003, 1.320371e-002
3.075904e+003, 1.314928e-002
3.077833e+003, 1.310372e-002
3.079761e+003, 1.301925e-002
3.081690e+003, 1.344727e-002
3.083618e+003, 1.387224e-002
3.085547e+003, 1.367666e-002
3.087475e+003, 1.347591e-002
3.089404e+003, 1.399764e-002
3.091332e+003, 1.452074e-002
3.093260e+003, 1.458581e-002
3.095189e+003, 1.405638e-002
3.097117e+003, 1.405701e-002
3.099046e+003, 1.424524e-002
3.100974e+003, 1.410631e-002
3.102903e+003, 1.367212e-002
3.104831e+003, 1.335607e-002
3.106760e+003, 1.334187e-002
3.108688e+003, 1.380883e-002
3.110617e+003, 1.394262e-002
3.112545e+003, 1.403375e-002
3.114474e+003, 1.425086e-002
3.116402e+003, 1.391564e-002
3.118331e+003, 1.465295e-002
3.120259e+003, 1.506544e-002
3.122188e+003, 1.481468e-002
3.124116e+003, 1.465030e-002
3.126044e+003, 1.421941e-002
3.127973e+003, 1.332430e-002
3.129901e+003, 1.347250e-002
3.131830e+003, 1.425327e-002
3.133758e+003, 1.466687e-002
3.135687e+003, 1.491889e-002
3.137615e+003, 1.426172e-002
3.139544e+003, 1.410899e-002
3.141472e+003, 1.468292e-002
3.143401e+003, 1.445662e-002
3.145329e+003, 1.363733e-002
3.147258e+003, 1.398441e-002
3.149186e+003, 1.427549e-002
3.151115e+003, 1.400992e-002
3.153043e+003, 1.418131e-002
3.154971e+003, 1.473782e-002
3.156900e+003, 1.490465e-002
3.158828e+003, 1.459813e-002
3.160757e+003, 1.409427e-002
3.162685e+003, 1.392371e-002
3.164614e+003, 1.431798e-002
3.166542e+003, 1.502496e-002
3.168471e+003, 1.547802e-002
3.170399e+003, 1.541133e-002
3.172328e+003, 1.523775e-002
3.174256e+003, 1.450967e-002
3.176185e+003, 1.403209e-002
3.178113e+003, 1.460556e-002
3.180042e+003, 1.484653e-002
3.181970e+003, 1.459795e-002
3.183898e+003, 1.428108e-002
3.185827e+003, 1.413453e-002
3.187755e+003, 1.522620e-002
3.189684e+003, 1.653480e-002
3.191612e+003, 1.634753e-002
3.193541e+003, 1.608277e-002
3.195469e+003, 1.618382e-002
3.197398e+003, 1.567562e-002
3.199326e+003, 1.546507e-002
3.201255e+003, 1.538769e-002
3.203183e+003, 1.551411e-002
3.205112e+003, 1.604434e-002
3.207040e+003, 1.610931e-002
3.208969e+003, 1.578330e-002
3.210897e+003, 1.535972e-002
3.212825e+003, 1.512106e-002
3.214754e+003, 1.493953e-002
3.216682e+003, 1.532985e-002
3.218611e+003, 1.543745e-002
3.220539e+003, 1.574210e-002
3.222468e+003, 1.569869e-002
3.224396e+003, 1.512744e-002
3.226325e+003, 1.585340e-002
3.228253e+003, 1.598519e-002
3.230182e+003, 1.610004e-002
3.232110e+003, 1.634200e-002
3.234039e+003, 1.684256e-002
3.235967e+003, 1.697356e-002
3.237896e+003, 1.667898e-002
3.239824e+003, 1.658525e-002
3.241752e+003, 1.654465e-002
3.243681e+003, 1.626773e-002
3.245609e+003, 1.645209e-002
3.247538e+003, 1.692730e-002
3.249466e+003, 1.658932e-002
3.251395e+003, 1.674291e-002
3.253323e+003, 1.705368e-002
3.255252e+003, 1.726746e-002
3.257180e+003, 1.737631e-002
3.259109e+003, 1.732688e-002
3.261037e+003, 1.727452e-002
3.262966e+003, 1.729882e-002
3.264894e+003, 1.703461e-002
3.266823e+003, 1.777595e-002
3.268751e+003, 1.845600e-002
3.270679e+003, 1.752607e-002
3.272608e+003, 1.764449e-002
3.274536e+003, 1.832434e-002
3.276465e+003, 1.881519e-002
3.278393e+003, 1.886420e-002
3.280322e+003, 1.905259e-002
3.282250e+003, 1.889667e-002
3.284179e+003, 1.856650e-002
3.286107e+003, 1.896006e-002
3.288036e+003, 1.869706e-002
3.289964e+003, 1.780318e-002
3.291893e+003, 1.818823e-002
3.293821e+003, 1.825457e-002
3.295750e+003, 1.884644e-002
3.297678e+003, 1.982892e-002
3.299606e+003, 1.979447e-002
3.301535e+003, 1.988309e-002
3.303463e+003, 1.933309e-002
3.305392e+003, 1.861933e-002
3.307320e+003, 1.856000e-002
3.309249e+003, 1.943551e-002
3.311177e+003, 1.987634e-002
3.313106e+003, 1.966740e-002
3.315034e+003, 1.935193e-002
3.316963e+003, 1.940058e-002
3.318891e+003, 1.930003e-002
3.320820e+003, 1.884093e-002
3.322748e+003, 1.871988e-002
3.324677e+003, 1.859412e-002
3.326605e+003, 1.876911e-002
3.328533e+003, 1.877270e-002
3.330462e+003, 1.856120e-002
3.332390e+003, 1.855759e-002
3.334319e+003, 1.878171e-002
3.336247e+003, 1.882310e-002
3.338176e+003, 1.934320e-002
3.340104e+003, 1.938293e-002
3.342033e+003, 1.905455e-002
3.343961e+003, 1.938953e-002
3.345890e+003, 1.961056e-002
3.347818e+003, 1.900550e-002
3.349747e+003, 1.863581e-002
3.351675e+003, 1.836544e-002
3.353604e+003, 1.786889e-002
3.355532e+003, 1.838165e-002
3.357460e+003, 1.885336e-002
3.359389e+003, 1.897183e-002
3.361317e+003, 1.876460e-002
3.363246e+003, 1.878775e-002
3.365174e+003, 1.905647e-002
3.367103e+003, 1.908328e-002
3.369031e+003, 1.844392e-002
3.370960e+003, 1.812105e-002
3.372888e+003, 1.819745e-002
3.374817e+003, 1.790624e-002
3.376745e+003, 1.793739e-002
3.378674e+003, 1.752915e-002
3.380602e+003, 1.736296e-002
3.382531e+003, 1.764322e-002
3.384459e+003, 1.816837e-002
3.386387e+003, 1.805760e-002
3.388316e+003, 1.749923e-002
3.390244e+003, 1.771525e-002
3.392173e+003, 1.801256e-002
3.394101e+003, 1.838641e-002
3.396030e+003, 1.852125e-002
3.397958e+003, 1.797559e-002
3.399887e+003, 1.822102e-002
3.401815e+003, 1.917979e-002
3.403744e+003, 1.865282e-002
3.405672e+003, 1.759905e-002
3.407601e+003, 1.708953e-002
3.409529e+003, 1.690765e-002
3.411458e+003, 1.722877e-002
3.413386e+003, 1.767321e-002
3.415314e+003, 1.779952e-002
3.417243e+003, 1.803552e-002
3.419171e+003, 1.845040e-002
3.421100e+003, 1.847443e-002
3.423028e+003, 1.776072e-002
3.424957e+003, 1.703402e-002
3.426885e+003, 1.663740e-002
3.428814e+003, 1.721035e-002
3.430742e+003, 1.792197e-002
3.432671e+003, 1.791601e-002
3.434599e+003, 1.765032e-002
3.436528e+003, 1.752644e-002
3.438456e+003, 1.747652e-002
3.440385e+003, 1.717342e-002
3.442313e+003, 1.783271e-002
3.444241e+003, 1.828863e-002
3.446170e+003, 1.778815e-002
3.448098e+003, 1.770742e-002
3.450027e+003, 1.829460e-002
3.451955e+003, 1.768885e-002
3.453884e+003, 1.667135e-002
3.455812e+003, 1.689831e-002
3.457741e+003, 1.794017e-002
3.459669e+003, 1.750567e-002
3.461598e+003, 1.598352e-002
3.463526e+003, 1.548875e-002
3.465455e+003, 1.568204e-002
3.467383e+003, 1.723296e-002
3.469312e+003, 1.783888e-002
3.471240e+003, 1.690844e-002
3.473168e+003, 1.703174e-002
3.475097e+003, 1.596659e-002
3.477025e+003, 1.554794e-002
3.478954e+003, 1.641312e-002
3.480882e+003, 1.676862e-002
3.482811e+003, 1.711326e-002
3.484739e+003, 1.731937e-002
3.486668e+003, 1.698973e-002
3.488596e+003, 1.577967e-002
3.490525e+003, 1.607740e-002
3.492453e+003, 1.662384e-002
3.494382e+003, 1.608104e-002
3.496310e+003, 1.620826e-002
3.498239e+003, 1.651746e-002
3.500167e+003, 1.737219e-002
3.502095e+003, 1.698318e-002
3.504024e+003, 1.627157e-002
3.505952e+003, 1.637559e-002
3.507881e+003, 1.595264e-002
3.509809e+003, 1.555483e-002
3.511738e+003, 1.511177e-002
3.513666e+003, 1.529559e-002
3.515595e+003, 1.537937e-002
3.517523e+003, 1.575677e-002
3.519452e+003, 1.625912e-002
3.521380e+003, 1.596981e-002
3.523309e+003, 1.503190e-002
3.525237e+003, 1.515794e-002
3.527166e+003, 1.598673e-002
3.529094e+003, 1.593198e-002
3.531022e+003, 1.467684e-002
3.532951e+003, 1.422054e-002
3.534879e+003, 1.411195e-002
3.536808e+003, 1.428460e-002
3.538736e+003, 1.434763e-002
3.540665e+003, 1.413979e-002
3.542593e+003, 1.482225e-002
3.544522e+003, 1.528036e-002
3.546450e+003, 1.547141e-002
3.548379e+003, 1.502681e-002
3.550307e+003, 1.487090e-002
3.552236e+003, 1.472909e-002
3.554164e+003, 1.429045e-002
3.556093e+003, 1.309348e-002
3.558021e+003, 1.320018e-002
3.559949e+003, 1.497602e-002
3.561878e+003, 1.539933e-002
3.563806e+003, 1.464680e-002
3.565735e+003, 1.387439e-002
3.567663e+003, 1.395033e-002
3.569592e+003, 1.409484e-002
3.571520e+003, 1.470954e-002
3.573449e+003, 1.510012e-002
3.575377e+003, 1.468865e-002
3.577306e+003, 1.362443e-002
3.579234e+003, 1.280037e-002
3.581163e+003, 1.243401e-002
3.583091e+003, 1.335883e-002
3.585020e+003, 1.381042e-002
3.586948e+003, 1.307732e-002
3.588876e+003, 1.269669e-002
3.590805e+003, 1.180854e-002
3.592733e+003, 1.152917e-002
3.594662e+003, 1.223764e-002
3.596590e+003, 1.300775e-002
3.598519e+003, 1.365951e-002
3.600447e+003, 1.346089e-002
3.602376e+003, 1.342052e-002
3.604304e+003, 1.353210e-002
3.606233e+003, 1.235680e-002
3.608161e+003, 1.208950e-002
3.610090e+003, 1.189139e-002
3.612018e+003, 1.130428e-002
3.613947e+003, 1.178952e-002
3.615875e+003, 1.204917e-002
3.617803e+003, 1.206897e-002
3.619732e+003, 1.234684e-002
3.621660e+003, 1.201187e-002
3.623589e+003, 1.228237e-002
3.625517e+003, 1.134895e-002
3.627446e+003, 9.778813e-003
3.629374e+003, 9.893492e-003
3.631303e+003, 1.119027e-002
3.633231e+003, 1.204387e-002
3.635160e+003, 1.145053e-002
3.637088e+003, 1.075196e-002
3.639017e+003, 1.036799e-002
3.640945e+003, 1.020964e-002
3.642874e+003, 9.744463e-003
3.644802e+003, 9.488720e-003
3.646730e+003, 9.668273e-003
3.648659e+003, 1.012736e-002
3.650587e+003, 9.657870e-003
3.652516e+003, 8.864273e-003
3.654444e+003, 8.855520e-003
3.656373e+003, 9.028169e-003
3.658301e+003, 8.489416e-003
3.660230e+003, 8.565920e-003
3.662158e+003, 8.261896e-003
3.664087e+003, 7.910154e-003
3.666015e+003, 7.293053e-003
3.667944e+003, 5.784995e-003
3.669872e+003, 5.995240e-003
3.671801e+003, 6.488854e-003
3.673729e+003, 7.420893e-003
3.675657e+003, 7.909473e-003
3.677586e+003, 8.737449e-003
3.679514e+003, 8.684509e-003
3.681443e+003, 7.784042e-003
3.683371e+003, 7.104646e-003
3.685300e+003, 6.712704e-003
3.687228e+003, 6.210928e-003
3.689157e+003, 6.449881e-003
3.691085e+003, 7.385608e-003
3.693014e+003, 7.380708e-003
3.694942e+003, 6.813822e-003
3.696871e+003, 7.259390e-003
3.698799e+003, 7.196669e-003
3.700728e+003, 7.376532e-003
3.702656e+003, 7.140640e-003
3.704584e+003, 6.686732e-003
3.706513e+003, 6.194497e-003
3.708441e+003, 6.796654e-003
3.710370e+003, 7.416701e-003
3.712298e+003, 7.269151e-003
3.714227e+003, 7.815936e-003
3.716155e+003, 8.155414e-003
3.718084e+003, 8.315387e-003
3.720012e+003, 7.663165e-003
3.721941e+003, 6.741280e-003
3.723869e+003, 7.110672e-003
3.725798e+003, 7.960168e-003
3.727726e+003, 8.407311e-003
3.729655e+003, 8.652377e-003
3.731583e+003, 8.059531e-003
3.733511e+003, 7.452360e-003
3.735440e+003, 8.083466e-003
3.737368e+003, 9.076877e-003
3.739297e+003, 8.920388e-003
3.741225e+003, 7.529015e-003
3.743154e+003, 6.572801e-003
3.745082e+003, 5.958137e-003
3.747011e+003, 7.012154e-003
3.748939e+003, 8.608682e-003
3.750868e+003, 7.895298e-003
3.752796e+003, 7.113677e-003
3.754725e+003, 7.324819e-003
3.756653e+003, 8.440537e-003
3.758582e+003, 9.096123e-003
3.760510e+003, 8.390690e-003
3.762438e+003, 8.256214e-003
3.764367e+003, 8.292343e-003
3.766295e+003, 8.710469e-003
3.768224e+003, 8.598378e-003
3.770152e+003, 7.843636e-003
3.772081e+003, 8.412173e-003
3.774009e+003, 8.762961e-003
3.775938e+003, 7.529267e-003
3.777866e+003, 6.995170e-003
3.779795e+003, 7.780281e-003
3.781723e+003, 8.102358e-003
3.783652e+003, 7.260883e-003
3.785580e+003, 7.617071e-003
3.787509e+003, 7.949592e-003
3.789437e+003, 7.445199e-003
3.791365e+003, 7.336110e-003
3.793294e+003, 7.215797e-003
3.795222e+003, 8.114617e-003
3.797151e+003, 8.507879e-003
3.799079e+003, 8.905687e-003
3.801008e+003, 8.687926e-003
3.802936e+003, 7.561865e-003
3.804865e+003, 7.892168e-003
3.806793e+003, 8.020048e-003
3.808722e+003, 7.846395e-003
3.810650e+003, 8.168494e-003
3.812579e+003, 8.785595e-003
3.814507e+003, 9.324348e-003
3.816436e+003, 8.932031e-003
3.818364e+003, 7.139228e-003
3.820292e+003, 6.743885e-003
3.822221e+003, 7.093777e-003
3.824149e+003, 8.136746e-003
3.826078e+003, 9.754144e-003
3.828006e+003, 9.561758e-003
3.829935e+003, 8.481607e-003
3.831863e+003, 7.658704e-003
3.833792e+003, 7.074800e-003
3.835720e+003, 7.099359e-003
3.837649e+003, 7.738668e-003
3.839577e+003, 8.995274e-003
3.841506e+003, 1.021565e-002
3.843434e+003, 9.138372e-003
3.845363e+003, 7.346068e-003
3.847291e+003, 7.684802e-003
3.849219e+003, 8.455361e-003
3.851148e+003, 8.764804e-003
3.853076e+003, 8.645680e-003
3.855005e+003, 7.660706e-003
3.856933e+003, 7.683995e-003
3.858862e+003, 7.878913e-003
3.860790e+003, 8.253375e-003
3.862719e+003, 7.435769e-003
3.864647e+003, 6.296502e-003
3.866576e+003, 5.803921e-003
3.868504e+003, 6.740556e-003
3.870433e+003, 8.255136e-003
3.872361e+003, 7.973611e-003
3.874290e+003, 6.869044e-003
3.876218e+003, 6.747709e-003
3.878146e+003, 7.131511e-003
3.880075e+003, 7.065545e-003
3.882003e+003, 7.667791e-003
3.883932e+003, 8.300467e-003
3.885860e+003, 7.302324e-003
3.887789e+003, 7.994193e-003
3.889717e+003, 8.424583e-003
3.891646e+003, 8.383861e-003
3.893574e+003, 8.453700e-003
3.895503e+003, 7.961975e-003
3.897431e+003, 8.020361e-003
3.899360e+003, 8.380002e-003
3.901288e+003, 7.646645e-003
3.903217e+003, 7.929065e-003
3.905145e+003, 8.109733e-003
3.907073e+003, 7.849650e-003
3.909002e+003, 8.246351e-003
3.910930e+003, 8.531922e-003
3.912859e+003, 7.900055e-003
3.914787e+003, 7.209319e-003
3.916716e+003, 7.165513e-003
3.918644e+003, 7.995341e-003
3.920573e+003, 9.390060e-003
3.922501e+003, 1.022822e-002
3.924430e+003, 8.316522e-003
3.926358e+003, 7.241691e-003
3.928287e+003, 8.491629e-003
3.930215e+003, 9.016057e-003
3.932144e+003, 9.705582e-003
3.934072e+003, 9.654713e-003
3.936000e+003, 7.920762e-003
3.937929e+003, 7.204824e-003
3.939857e+003, 7.417670e-003
3.941786e+003, 7.538925e-003
3.943714e+003, 8.133947e-003
3.945643e+003, 8.558402e-003
3.947571e+003, 8.445156e-003
3.949500e+003, 6.731517e-003
3.951428e+003, 6.534726e-003
3.953357e+003, 8.667504e-003
3.955285e+003, 9.247398e-003
3.957214e+003, 8.142360e-003
3.959142e+003, 8.148131e-003
3.961071e+003, 8.196499e-003
3.962999e+003, 8.815251e-003
3.964927e+003, 9.894457e-003
3.966856e+003, 9.439633e-003
3.968784e+003, 8.104201e-003
3.970713e+003, 8.446124e-003
3.972641e+003, 9.413699e-003
3.974570e+003, 9.302767e-003
3.976498e+003, 8.755844e-003
3.978427e+003, 7.983687e-003
3.980355e+003, 7.614304e-003
3.982284e+003, 7.719478e-003
3.984212e+003, 7.676634e-003
3.986141e+003, 7.384095e-003
3.988069e+003, 8.011864e-003
3.989998e+003, 9.738814e-003
3.991926e+003, 9.988651e-003
3.993854e+003, 1.001845e-002
3.995783e+003, 9.181190e-003
3.997711e+003, 8.051917e-003
3.999640e+003, 9.200896e-003
##END=



