##NAMES=Grossular
##RRUFFID=R040065
##IDEAL CHEMISTRY=Ca_3_Al_2_(SiO_4_)_3_
##LOCALITY=Feng Tien mine, Taiwan
##OWNER=RRUFF
##SOURCE=University of Arizona Mineral Museum
##DESCRIPTION=Orange-brown trapezohedral crystals
##STATUS=The identification of this mineral has been confirmed by X-ray diffraction and chemical analysis
##URL=rruff.info/R040065
##MEASURED CHEMISTRY=(Ca_2.90_Fe^2+^_0.05_Mn_0.05_)_Σ=3_(Al_1.95_Fe^3+^_0.03_Ti_0.02_)_Σ=2_((Si_0.99_Al_0.01_)_Σ=1_O_4_)_3_
3.991926e+002, 0.000000e+000
4.011211e+002, 2.048614e-001
4.030496e+002, 2.057835e-001
4.049780e+002, 1.969587e-001
4.069065e+002, 1.992692e-001
4.088350e+002, 2.115787e-001
4.107634e+002, 2.283253e-001
4.126919e+002, 2.438369e-001
4.146204e+002, 2.666464e-001
4.165488e+002, 2.846060e-001
4.184773e+002, 2.928950e-001
4.204058e+002, 2.957456e-001
4.223342e+002, 2.967432e-001
4.242627e+002, 3.032692e-001
4.261912e+002, 3.067911e-001
4.281196e+002, 3.040851e-001
4.300481e+002, 3.007556e-001
4.319766e+002, 2.996592e-001
4.339050e+002, 3.010553e-001
4.358335e+002, 2.983523e-001
4.377620e+002, 2.950566e-001
4.396904e+002, 2.951860e-001
4.416189e+002, 2.948203e-001
4.435474e+002, 2.913160e-001
4.454758e+002, 2.886387e-001
4.474043e+002, 2.838411e-001
4.493328e+002, 2.779495e-001
4.512612e+002, 2.716271e-001
4.531897e+002, 2.651530e-001
4.551182e+002, 2.567660e-001
4.570466e+002, 2.462743e-001
4.589751e+002, 2.378551e-001
4.609036e+002, 2.302704e-001
4.628320e+002, 2.198672e-001
4.647605e+002, 2.096467e-001
4.666890e+002, 2.060955e-001
4.686174e+002, 2.156105e-001
4.705459e+002, 2.286741e-001
4.724744e+002, 2.276709e-001
4.744028e+002, 2.178203e-001
4.763313e+002, 2.077840e-001
4.782598e+002, 1.986172e-001
4.801882e+002, 1.910578e-001
4.821167e+002, 1.837867e-001
4.840452e+002, 1.774000e-001
4.859736e+002, 1.711405e-001
4.879021e+002, 1.651705e-001
4.898306e+002, 1.595882e-001
4.917590e+002, 1.538174e-001
4.936875e+002, 1.489212e-001
4.956160e+002, 1.446582e-001
4.975444e+002, 1.393321e-001
4.994729e+002, 1.335447e-001
5.014014e+002, 1.290513e-001
5.033298e+002, 1.273438e-001
5.052583e+002, 1.259923e-001
5.071868e+002, 1.224184e-001
5.091152e+002, 1.174293e-001
5.110437e+002, 1.106650e-001
5.129722e+002, 1.028194e-001
5.149006e+002, 9.573279e-002
5.168291e+002, 8.971668e-002
5.187576e+002, 8.415242e-002
5.206860e+002, 7.781352e-002
5.226145e+002, 7.113170e-002
5.245430e+002, 6.621946e-002
5.264714e+002, 6.391022e-002
5.283999e+002, 6.429096e-002
5.303284e+002, 6.958411e-002
5.322568e+002, 8.178571e-002
5.341853e+002, 1.009430e-001
5.361138e+002, 1.245907e-001
5.380422e+002, 1.449851e-001
5.399707e+002, 1.542104e-001
5.418992e+002, 1.515295e-001
5.438276e+002, 1.418415e-001
5.457561e+002, 1.298766e-001
5.476846e+002, 1.182736e-001
5.496130e+002, 1.081468e-001
5.515415e+002, 9.866828e-002
5.534700e+002, 9.010343e-002
5.553984e+002, 8.178461e-002
5.573269e+002, 7.437824e-002
5.592554e+002, 6.789531e-002
5.611838e+002, 6.140740e-002
5.631123e+002, 5.504947e-002
5.650408e+002, 4.941377e-002
5.669692e+002, 4.437898e-002
5.688977e+002, 3.974013e-002
5.708262e+002, 3.585658e-002
5.727546e+002, 3.224264e-002
5.746831e+002, 2.926599e-002
5.766116e+002, 2.725554e-002
5.785400e+002, 2.529201e-002
5.804685e+002, 2.368652e-002
5.823970e+002, 2.256114e-002
5.843254e+002, 2.178840e-002
5.862539e+002, 2.130999e-002
5.881824e+002, 2.065290e-002
5.901108e+002, 2.024764e-002
5.920393e+002, 2.018179e-002
5.939678e+002, 2.028144e-002
5.958962e+002, 2.042746e-002
5.978247e+002, 2.079509e-002
5.997532e+002, 2.169978e-002
6.016816e+002, 2.307861e-002
6.036101e+002, 2.533187e-002
6.055386e+002, 2.851828e-002
6.074670e+002, 3.286477e-002
6.093955e+002, 3.937921e-002
6.113240e+002, 4.865468e-002
6.132524e+002, 6.140947e-002
6.151809e+002, 7.544646e-002
6.171094e+002, 8.408063e-002
6.190378e+002, 8.125557e-002
6.209663e+002, 6.848841e-002
6.228948e+002, 5.334247e-002
6.248232e+002, 4.063115e-002
6.267517e+002, 3.181652e-002
6.286802e+002, 2.638945e-002
6.306086e+002, 2.270594e-002
6.325371e+002, 2.011415e-002
6.344656e+002, 1.831131e-002
6.363940e+002, 1.702161e-002
6.383225e+002, 1.631275e-002
6.402510e+002, 1.553281e-002
6.421794e+002, 1.481154e-002
6.441079e+002, 1.471984e-002
6.460364e+002, 1.467129e-002
6.479648e+002, 1.434877e-002
6.498933e+002, 1.423793e-002
6.518218e+002, 1.403116e-002
6.537502e+002, 1.389033e-002
6.556787e+002, 1.399116e-002
6.576072e+002, 1.412254e-002
6.595356e+002, 1.397196e-002
6.614641e+002, 1.417742e-002
6.633926e+002, 1.453167e-002
6.653210e+002, 1.467021e-002
6.672495e+002, 1.503227e-002
6.691780e+002, 1.571462e-002
6.711064e+002, 1.605403e-002
6.730349e+002, 1.623197e-002
6.749634e+002, 1.663005e-002
6.768918e+002, 1.723412e-002
6.788203e+002, 1.755518e-002
6.807488e+002, 1.803360e-002
6.826772e+002, 1.869544e-002
6.846057e+002, 1.906480e-002
6.865342e+002, 1.933480e-002
6.884626e+002, 1.974614e-002
6.903911e+002, 2.043289e-002
6.923196e+002, 2.104746e-002
6.942480e+002, 2.146901e-002
6.961765e+002, 2.239626e-002
6.981050e+002, 2.313952e-002
7.000334e+002, 2.368975e-002
7.019619e+002, 2.452951e-002
7.038904e+002, 2.524341e-002
7.058188e+002, 2.609224e-002
7.077473e+002, 2.725673e-002
7.096758e+002, 2.844295e-002
7.116042e+002, 2.959628e-002
7.135327e+002, 3.095073e-002
7.154612e+002, 3.237677e-002
7.173896e+002, 3.387843e-002
7.193181e+002, 3.559146e-002
7.212466e+002, 3.719129e-002
7.231750e+002, 3.895633e-002
7.251035e+002, 4.098845e-002
7.270320e+002, 4.299109e-002
7.289604e+002, 4.504768e-002
7.308889e+002, 4.768035e-002
7.328174e+002, 5.037761e-002
7.347458e+002, 5.303760e-002
7.366743e+002, 5.593207e-002
7.386028e+002, 5.899804e-002
7.405313e+002, 6.223938e-002
7.424597e+002, 6.589433e-002
7.443882e+002, 6.990709e-002
7.463167e+002, 7.414994e-002
7.482451e+002, 7.874805e-002
7.501736e+002, 8.341137e-002
7.521021e+002, 8.805136e-002
7.540305e+002, 9.337876e-002
7.559590e+002, 9.923401e-002
7.578875e+002, 1.051612e-001
7.598159e+002, 1.106952e-001
7.617444e+002, 1.160733e-001
7.636729e+002, 1.214927e-001
7.656013e+002, 1.269495e-001
7.675298e+002, 1.321507e-001
7.694583e+002, 1.374693e-001
7.713867e+002, 1.433232e-001
7.733152e+002, 1.492840e-001
7.752437e+002, 1.558130e-001
7.771721e+002, 1.627002e-001
7.791006e+002, 1.691720e-001
7.810291e+002, 1.760223e-001
7.829575e+002, 1.832283e-001
7.848860e+002, 1.903110e-001
7.868145e+002, 1.974260e-001
7.887429e+002, 2.048399e-001
7.906714e+002, 2.119353e-001
7.925999e+002, 2.190115e-001
7.945283e+002, 2.269263e-001
7.964568e+002, 2.347644e-001
7.983853e+002, 2.415923e-001
8.003137e+002, 2.484053e-001
8.022422e+002, 2.555323e-001
8.041707e+002, 2.625456e-001
8.060991e+002, 2.689738e-001
8.080276e+002, 2.756011e-001
8.099561e+002, 2.821430e-001
8.118845e+002, 2.882664e-001
8.138130e+002, 2.942442e-001
8.157415e+002, 3.000787e-001
8.176699e+002, 3.051631e-001
8.195984e+002, 3.100239e-001
8.215269e+002, 3.148998e-001
8.234553e+002, 3.196540e-001
8.253838e+002, 3.234189e-001
8.273123e+002, 3.266411e-001
8.292407e+002, 3.290091e-001
8.311692e+002, 3.302036e-001
8.330977e+002, 3.301627e-001
8.350261e+002, 3.291620e-001
8.369546e+002, 3.274307e-001
8.388831e+002, 3.245820e-001
8.408115e+002, 3.197701e-001
8.427400e+002, 3.123093e-001
8.446685e+002, 3.019626e-001
8.465969e+002, 2.899530e-001
8.485254e+002, 2.792074e-001
8.504539e+002, 2.737021e-001
8.523823e+002, 2.752458e-001
8.543108e+002, 2.812917e-001
8.562393e+002, 2.862112e-001
8.581677e+002, 2.860224e-001
8.600962e+002, 2.795955e-001
8.620247e+002, 2.684558e-001
8.639531e+002, 2.548323e-001
8.658816e+002, 2.401249e-001
8.678101e+002, 2.256537e-001
8.697385e+002, 2.114486e-001
8.716670e+002, 1.975971e-001
8.735955e+002, 1.843062e-001
8.755239e+002, 1.708173e-001
8.774524e+002, 1.577476e-001
8.793809e+002, 1.451658e-001
8.813093e+002, 1.335074e-001
8.832378e+002, 1.239842e-001
8.851663e+002, 1.174066e-001
8.870947e+002, 1.148989e-001
8.890232e+002, 1.173948e-001
8.909517e+002, 1.257894e-001
8.928801e+002, 1.413202e-001
8.948085e+002, 1.637390e-001
8.967370e+002, 1.915275e-001
8.986655e+002, 2.215255e-001
9.005939e+002, 2.492077e-001
9.025224e+002, 2.711049e-001
9.044509e+002, 2.863103e-001
9.063793e+002, 2.945494e-001
9.083078e+002, 2.965093e-001
9.102363e+002, 2.931507e-001
9.121647e+002, 2.858723e-001
9.140932e+002, 2.752604e-001
9.160217e+002, 2.623392e-001
9.179501e+002, 2.492825e-001
9.198786e+002, 2.365482e-001
9.218071e+002, 2.245447e-001
9.237355e+002, 2.135859e-001
9.256640e+002, 2.036379e-001
9.275925e+002, 1.945472e-001
9.295209e+002, 1.860337e-001
9.314494e+002, 1.782077e-001
9.333779e+002, 1.708462e-001
9.353063e+002, 1.636569e-001
9.372348e+002, 1.569613e-001
9.391633e+002, 1.505842e-001
9.410917e+002, 1.444731e-001
9.430202e+002, 1.388909e-001
9.449487e+002, 1.335070e-001
9.468771e+002, 1.281328e-001
9.488056e+002, 1.230619e-001
9.507341e+002, 1.181597e-001
9.526625e+002, 1.131648e-001
9.545910e+002, 1.081389e-001
9.565195e+002, 1.029747e-001
9.584479e+002, 9.816578e-002
9.603764e+002, 9.330850e-002
9.623049e+002, 8.849875e-002
9.642333e+002, 8.378413e-002
9.661618e+002, 7.927600e-002
9.680903e+002, 7.541149e-002
9.700187e+002, 7.156895e-002
9.719472e+002, 6.752199e-002
9.738757e+002, 6.350918e-002
9.758041e+002, 5.956281e-002
9.777326e+002, 5.558956e-002
9.796611e+002, 5.160679e-002
9.815895e+002, 4.759369e-002
9.835180e+002, 4.376760e-002
9.854465e+002, 4.032779e-002
9.873749e+002, 3.706215e-002
9.893034e+002, 3.409677e-002
9.912319e+002, 3.139525e-002
9.931603e+002, 2.891964e-002
9.950888e+002, 2.679578e-002
9.970173e+002, 2.492299e-002
9.989457e+002, 2.332007e-002
1.000874e+003, 2.229018e-002
1.002803e+003, 2.139646e-002
1.004731e+003, 2.057266e-002
1.006660e+003, 1.973002e-002
1.008588e+003, 1.887519e-002
1.010517e+003, 1.823684e-002
1.012445e+003, 1.765907e-002
1.014373e+003, 1.713572e-002
1.016302e+003, 1.672403e-002
1.018230e+003, 1.627128e-002
1.020159e+003, 1.603214e-002
1.022087e+003, 1.578263e-002
1.024016e+003, 1.538132e-002
1.025944e+003, 1.519683e-002
1.027873e+003, 1.508008e-002
1.029801e+003, 1.455994e-002
1.031730e+003, 1.452952e-002
1.033658e+003, 1.453690e-002
1.035587e+003, 1.435530e-002
1.037515e+003, 1.428744e-002
1.039444e+003, 1.425668e-002
1.041372e+003, 1.401902e-002
1.043301e+003, 1.372185e-002
1.045229e+003, 1.364779e-002
1.047157e+003, 1.361640e-002
1.049086e+003, 1.334013e-002
1.051014e+003, 1.329593e-002
1.052943e+003, 1.345956e-002
1.054871e+003, 1.340253e-002
1.056800e+003, 1.314699e-002
1.058728e+003, 1.308675e-002
1.060657e+003, 1.299604e-002
1.062585e+003, 1.287815e-002
1.064514e+003, 1.280772e-002
1.066442e+003, 1.258776e-002
1.068371e+003, 1.236256e-002
1.070299e+003, 1.246992e-002
1.072228e+003, 1.247489e-002
1.074156e+003, 1.222950e-002
1.076084e+003, 1.220137e-002
1.078013e+003, 1.218370e-002
1.079941e+003, 1.189895e-002
1.081870e+003, 1.152249e-002
1.083798e+003, 1.140123e-002
1.085727e+003, 1.130328e-002
1.087655e+003, 1.097999e-002
1.089584e+003, 1.088103e-002
1.091512e+003, 1.090979e-002
1.093441e+003, 1.071692e-002
1.095369e+003, 1.043640e-002
1.097298e+003, 1.022090e-002
1.099226e+003, 9.955749e-003
1.101155e+003, 9.821224e-003
1.103083e+003, 9.591193e-003
1.105011e+003, 9.324437e-003
1.106940e+003, 9.024231e-003
1.108868e+003, 8.572530e-003
1.110797e+003, 8.317139e-003
1.112725e+003, 8.260335e-003
1.114654e+003, 7.912861e-003
1.116582e+003, 7.489402e-003
1.118511e+003, 7.374142e-003
1.120439e+003, 7.202896e-003
1.122368e+003, 7.020146e-003
1.124296e+003, 6.915728e-003
1.126225e+003, 6.761860e-003
1.128153e+003, 6.667615e-003
1.130082e+003, 6.461282e-003
1.132010e+003, 6.332907e-003
1.133938e+003, 6.336449e-003
1.135867e+003, 6.238149e-003
1.137795e+003, 6.061220e-003
1.139724e+003, 5.796679e-003
1.141652e+003, 5.553892e-003
1.143581e+003, 5.359712e-003
1.145509e+003, 5.254603e-003
1.147438e+003, 5.119942e-003
1.149366e+003, 4.946722e-003
1.151295e+003, 4.910738e-003
1.153223e+003, 4.901234e-003
1.155152e+003, 4.946443e-003
1.157080e+003, 4.771344e-003
1.159009e+003, 4.721670e-003
1.160937e+003, 4.758165e-003
1.162865e+003, 4.680176e-003
1.164794e+003, 4.497161e-003
1.166722e+003, 4.166499e-003
1.168651e+003, 4.104072e-003
1.170579e+003, 4.121580e-003
1.172508e+003, 4.109708e-003
1.174436e+003, 3.996852e-003
1.176365e+003, 3.898872e-003
1.178293e+003, 3.749990e-003
1.180222e+003, 3.779272e-003
1.182150e+003, 3.879035e-003
1.184079e+003, 3.809805e-003
1.186007e+003, 3.675943e-003
1.187936e+003, 3.560963e-003
1.189864e+003, 3.500869e-003
1.191792e+003, 3.547038e-003
1.193721e+003, 3.580796e-003
1.195649e+003, 3.385069e-003
1.197578e+003, 3.380683e-003
1.199506e+003, 3.467001e-003
1.201435e+003, 3.638210e-003
1.203363e+003, 3.696992e-003
1.205292e+003, 3.668389e-003
1.207220e+003, 3.752632e-003
1.209149e+003, 3.757194e-003
1.211077e+003, 3.777069e-003
1.213006e+003, 3.695023e-003
1.214934e+003, 3.410898e-003
1.216863e+003, 3.320854e-003
1.218791e+003, 3.458309e-003
1.220719e+003, 3.426916e-003
1.222648e+003, 3.499713e-003
1.224576e+003, 3.533721e-003
1.226505e+003, 3.570195e-003
1.228433e+003, 3.696723e-003
1.230362e+003, 3.631944e-003
1.232290e+003, 3.426354e-003
1.234219e+003, 3.356999e-003
1.236147e+003, 3.520764e-003
1.238076e+003, 3.484077e-003
1.240004e+003, 3.407277e-003
1.241933e+003, 3.569154e-003
1.243861e+003, 3.736294e-003
1.245790e+003, 3.831607e-003
1.247718e+003, 3.732930e-003
1.249646e+003, 3.619552e-003
1.251575e+003, 3.591017e-003
1.253503e+003, 3.665559e-003
1.255432e+003, 3.697371e-003
1.257360e+003, 3.750013e-003
1.259289e+003, 3.818574e-003
1.261217e+003, 3.865305e-003
1.263146e+003, 4.052779e-003
1.265074e+003, 4.245152e-003
1.267003e+003, 4.171534e-003
1.268931e+003, 4.140052e-003
1.270860e+003, 4.155005e-003
1.272788e+003, 4.225554e-003
1.274717e+003, 4.310764e-003
1.276645e+003, 4.293542e-003
1.278573e+003, 4.261920e-003
1.280502e+003, 4.298701e-003
1.282430e+003, 4.268775e-003
1.284359e+003, 4.244923e-003
1.286287e+003, 4.265867e-003
1.288216e+003, 4.306144e-003
1.290144e+003, 4.312219e-003
1.292073e+003, 4.384763e-003
1.294001e+003, 4.594738e-003
1.295930e+003, 4.590527e-003
1.297858e+003, 4.476779e-003
1.299787e+003, 4.659744e-003
1.301715e+003, 4.875183e-003
1.303644e+003, 4.733500e-003
1.305572e+003, 4.771065e-003
1.307500e+003, 4.870868e-003
1.309429e+003, 4.931644e-003
1.311357e+003, 5.059833e-003
1.313286e+003, 5.222578e-003
1.315214e+003, 5.509405e-003
1.317143e+003, 5.724370e-003
1.319071e+003, 5.794583e-003
1.321000e+003, 5.807699e-003
1.322928e+003, 5.844192e-003
1.324857e+003, 5.941667e-003
1.326785e+003, 6.008998e-003
1.328714e+003, 6.118158e-003
1.330642e+003, 6.178272e-003
1.332571e+003, 6.224179e-003
1.334499e+003, 6.286613e-003
1.336427e+003, 6.515695e-003
1.338356e+003, 6.366702e-003
1.340284e+003, 6.414740e-003
1.342213e+003, 6.632959e-003
1.344141e+003, 6.656978e-003
1.346070e+003, 6.631716e-003
1.347998e+003, 6.649024e-003
1.349927e+003, 6.740560e-003
1.351855e+003, 6.884997e-003
1.353784e+003, 7.081593e-003
1.355712e+003, 7.214729e-003
1.357641e+003, 7.344038e-003
1.359569e+003, 7.424960e-003
1.361498e+003, 7.436129e-003
1.363426e+003, 7.634856e-003
1.365354e+003, 7.912544e-003
1.367283e+003, 7.844557e-003
1.369211e+003, 7.774702e-003
1.371140e+003, 7.881491e-003
1.373068e+003, 7.802208e-003
1.374997e+003, 7.867668e-003
1.376925e+003, 7.823233e-003
1.378854e+003, 7.731472e-003
1.380782e+003, 7.849709e-003
1.382711e+003, 7.879413e-003
1.384639e+003, 7.772466e-003
1.386568e+003, 7.716481e-003
1.388496e+003, 7.785359e-003
1.390424e+003, 7.777200e-003
1.392353e+003, 7.791741e-003
1.394281e+003, 7.847112e-003
1.396210e+003, 7.822113e-003
1.398138e+003, 7.736470e-003
1.400067e+003, 7.952523e-003
1.401995e+003, 8.023188e-003
1.403924e+003, 8.265223e-003
1.405852e+003, 8.376295e-003
1.407781e+003, 8.349510e-003
1.409709e+003, 8.463115e-003
1.411638e+003, 8.675146e-003
1.413566e+003, 8.675111e-003
1.415495e+003, 8.643678e-003
1.417423e+003, 8.778286e-003
1.419351e+003, 9.077749e-003
1.421280e+003, 9.049441e-003
1.423208e+003, 8.864714e-003
1.425137e+003, 9.075893e-003
1.427065e+003, 9.332163e-003
1.428994e+003, 9.371144e-003
1.430922e+003, 9.292318e-003
1.432851e+003, 9.076728e-003
1.434779e+003, 9.108184e-003
1.436708e+003, 9.467001e-003
1.438636e+003, 9.519977e-003
1.440565e+003, 9.434403e-003
1.442493e+003, 9.539850e-003
1.444422e+003, 9.515822e-003
1.446350e+003, 9.404399e-003
1.448278e+003, 9.566098e-003
1.450207e+003, 9.616676e-003
1.452135e+003, 9.460486e-003
1.454064e+003, 9.233574e-003
1.455992e+003, 9.251198e-003
1.457921e+003, 9.858955e-003
1.459849e+003, 9.359300e-003
1.461778e+003, 9.043326e-003
1.463706e+003, 8.968520e-003
1.465635e+003, 9.205457e-003
1.467563e+003, 8.940029e-003
1.469492e+003, 8.716913e-003
1.471420e+003, 8.440462e-003
1.473349e+003, 8.758522e-003
1.475277e+003, 8.625009e-003
1.477205e+003, 8.382329e-003
1.479134e+003, 8.110763e-003
1.481062e+003, 8.224878e-003
1.482991e+003, 8.174499e-003
1.484919e+003, 7.927573e-003
1.486848e+003, 7.608043e-003
1.488776e+003, 7.591206e-003
1.490705e+003, 7.918461e-003
1.492633e+003, 7.955644e-003
1.494562e+003, 7.781560e-003
1.496490e+003, 7.781261e-003
1.498419e+003, 7.722916e-003
1.500347e+003, 7.833823e-003
1.502276e+003, 7.684453e-003
1.504204e+003, 7.480203e-003
1.506132e+003, 7.658676e-003
1.508061e+003, 7.860436e-003
1.509989e+003, 7.535424e-003
1.511918e+003, 7.450247e-003
1.513846e+003, 7.590187e-003
1.515775e+003, 7.483586e-003
1.517703e+003, 7.704959e-003
1.519632e+003, 7.584616e-003
1.521560e+003, 8.226486e-003
1.523489e+003, 8.256282e-003
1.525417e+003, 8.208600e-003
1.527346e+003, 8.061862e-003
1.529274e+003, 8.121758e-003
1.531203e+003, 8.189505e-003
1.533131e+003, 8.454721e-003
1.535059e+003, 8.934834e-003
1.536988e+003, 8.796703e-003
1.538916e+003, 9.188254e-003
1.540845e+003, 9.768312e-003
1.542773e+003, 9.631122e-003
1.544702e+003, 9.787015e-003
1.546630e+003, 1.002388e-002
1.548559e+003, 1.001655e-002
1.550487e+003, 1.042026e-002
1.552416e+003, 1.047768e-002
1.554344e+003, 1.072069e-002
1.556273e+003, 1.058515e-002
1.558201e+003, 1.077152e-002
1.560130e+003, 1.124502e-002
1.562058e+003, 1.102301e-002
1.563986e+003, 1.103286e-002
1.565915e+003, 1.121490e-002
1.567843e+003, 1.115425e-002
1.569772e+003, 1.138083e-002
1.571700e+003, 1.128674e-002
1.573629e+003, 1.122289e-002
1.575557e+003, 1.118170e-002
1.577486e+003, 1.166658e-002
1.579414e+003, 1.138766e-002
1.581343e+003, 1.160319e-002
1.583271e+003, 1.188781e-002
1.585200e+003, 1.193016e-002
1.587128e+003, 1.196946e-002
1.589057e+003, 1.211537e-002
1.590985e+003, 1.213347e-002
1.592913e+003, 1.219247e-002
1.594842e+003, 1.240927e-002
1.596770e+003, 1.239243e-002
1.598699e+003, 1.217149e-002
1.600627e+003, 1.211988e-002
1.602556e+003, 1.211706e-002
1.604484e+003, 1.198597e-002
1.606413e+003, 1.187342e-002
1.608341e+003, 1.183617e-002
1.610270e+003, 1.178762e-002
1.612198e+003, 1.172980e-002
1.614127e+003, 1.173609e-002
1.616055e+003, 1.167785e-002
1.617984e+003, 1.195612e-002
1.619912e+003, 1.152040e-002
1.621840e+003, 1.138096e-002
1.623769e+003, 1.126722e-002
1.625697e+003, 1.103630e-002
1.627626e+003, 1.104725e-002
1.629554e+003, 1.103384e-002
1.631483e+003, 1.080075e-002
1.633411e+003, 1.048195e-002
1.635340e+003, 1.066586e-002
1.637268e+003, 1.057160e-002
1.639197e+003, 1.004553e-002
1.641125e+003, 1.005904e-002
1.643054e+003, 1.007359e-002
1.644982e+003, 1.000171e-002
1.646911e+003, 1.045824e-002
1.648839e+003, 1.016170e-002
1.650767e+003, 9.672835e-003
1.652696e+003, 1.015614e-002
1.654624e+003, 1.071740e-002
1.656553e+003, 9.866435e-003
1.658481e+003, 9.661052e-003
1.660410e+003, 9.656556e-003
1.662338e+003, 9.646671e-003
1.664267e+003, 9.651216e-003
1.666195e+003, 9.538580e-003
1.668124e+003, 1.007882e-002
1.670052e+003, 1.049736e-002
1.671981e+003, 9.978007e-003
1.673909e+003, 9.609951e-003
1.675838e+003, 1.017603e-002
1.677766e+003, 9.692976e-003
1.679694e+003, 9.529573e-003
1.681623e+003, 9.655633e-003
1.683551e+003, 9.985596e-003
1.685480e+003, 1.047623e-002
1.687408e+003, 9.614942e-003
1.689337e+003, 9.757641e-003
1.691265e+003, 9.904835e-003
1.693194e+003, 9.786368e-003
1.695122e+003, 9.862705e-003
1.697051e+003, 1.058005e-002
1.698979e+003, 1.002159e-002
1.700908e+003, 1.065948e-002
1.702836e+003, 9.929669e-003
1.704765e+003, 9.977210e-003
1.706693e+003, 9.618837e-003
1.708621e+003, 9.289421e-003
1.710550e+003, 9.337369e-003
1.712478e+003, 9.108262e-003
1.714407e+003, 9.226689e-003
1.716335e+003, 9.274619e-003
1.718264e+003, 9.868438e-003
1.720192e+003, 9.622002e-003
1.722121e+003, 9.381343e-003
1.724049e+003, 9.404977e-003
1.725978e+003, 9.460625e-003
1.727906e+003, 9.375031e-003
1.729835e+003, 9.154721e-003
1.731763e+003, 8.905087e-003
1.733692e+003, 9.068779e-003
1.735620e+003, 9.133114e-003
1.737548e+003, 8.739821e-003
1.739477e+003, 9.021056e-003
1.741405e+003, 9.158398e-003
1.743334e+003, 8.872317e-003
1.745262e+003, 8.661876e-003
1.747191e+003, 8.673531e-003
1.749119e+003, 8.993385e-003
1.751048e+003, 9.059569e-003
1.752976e+003, 9.120909e-003
1.754905e+003, 8.993998e-003
1.756833e+003, 8.970994e-003
1.758762e+003, 9.273886e-003
1.760690e+003, 9.333531e-003
1.762619e+003, 9.565689e-003
1.764547e+003, 9.139407e-003
1.766475e+003, 9.016828e-003
1.768404e+003, 9.289523e-003
1.770332e+003, 9.224760e-003
1.772261e+003, 9.260210e-003
1.774189e+003, 8.785683e-003
1.776118e+003, 8.924225e-003
1.778046e+003, 9.429916e-003
1.779975e+003, 9.377473e-003
1.781903e+003, 9.103253e-003
1.783832e+003, 8.931776e-003
1.785760e+003, 9.162989e-003
1.787689e+003, 9.210018e-003
1.789617e+003, 9.162442e-003
1.791546e+003, 9.277284e-003
1.793474e+003, 9.245944e-003
1.795402e+003, 8.867284e-003
1.797331e+003, 8.984792e-003
1.799259e+003, 8.864044e-003
1.801188e+003, 8.588460e-003
1.803116e+003, 8.225486e-003
1.805045e+003, 7.978597e-003
1.806973e+003, 7.941469e-003
1.808902e+003, 7.855595e-003
1.810830e+003, 8.191606e-003
1.812759e+003, 8.073381e-003
1.814687e+003, 7.726750e-003
1.816616e+003, 7.849459e-003
1.818544e+003, 8.127648e-003
1.820473e+003, 8.256102e-003
1.822401e+003, 8.606707e-003
1.824329e+003, 9.257630e-003
1.826258e+003, 9.213616e-003
1.828186e+003, 8.352376e-003
1.830115e+003, 8.366203e-003
1.832043e+003, 8.304015e-003
1.833972e+003, 8.221260e-003
1.835900e+003, 8.165758e-003
1.837829e+003, 7.952606e-003
1.839757e+003, 7.955521e-003
1.841686e+003, 8.230832e-003
1.843614e+003, 8.027199e-003
1.845543e+003, 8.288111e-003
1.847471e+003, 8.688218e-003
1.849400e+003, 9.089337e-003
1.851328e+003, 8.723941e-003
1.853256e+003, 8.235187e-003
1.855185e+003, 8.142440e-003
1.857113e+003, 8.449369e-003
1.859042e+003, 8.238846e-003
1.860970e+003, 7.800909e-003
1.862899e+003, 8.183536e-003
1.864827e+003, 8.173143e-003
1.866756e+003, 8.071819e-003
1.868684e+003, 8.081382e-003
1.870613e+003, 7.840922e-003
1.872541e+003, 8.061990e-003
1.874470e+003, 8.551612e-003
1.876398e+003, 8.429679e-003
1.878327e+003, 8.252373e-003
1.880255e+003, 8.510247e-003
1.882183e+003, 8.390243e-003
1.884112e+003, 7.989442e-003
1.886040e+003, 7.909496e-003
1.887969e+003, 7.982658e-003
1.889897e+003, 8.128958e-003
1.891826e+003, 8.267662e-003
1.893754e+003, 8.133486e-003
1.895683e+003, 8.009973e-003
1.897611e+003, 7.813492e-003
1.899540e+003, 7.869352e-003
1.901468e+003, 7.856539e-003
1.903397e+003, 7.547094e-003
1.905325e+003, 7.889449e-003
1.907254e+003, 8.769661e-003
1.909182e+003, 8.973182e-003
1.911110e+003, 8.477869e-003
1.913039e+003, 8.110974e-003
1.914967e+003, 8.099945e-003
1.916896e+003, 8.729469e-003
1.918824e+003, 8.901120e-003
1.920753e+003, 8.497134e-003
1.922681e+003, 8.970653e-003
1.924610e+003, 8.496835e-003
1.926538e+003, 8.386415e-003
1.928467e+003, 8.140114e-003
1.930395e+003, 7.715983e-003
1.932324e+003, 7.987872e-003
1.934252e+003, 8.515208e-003
1.936181e+003, 9.007584e-003
1.938109e+003, 7.935084e-003
1.940037e+003, 7.006164e-003
1.941966e+003, 7.794851e-003
1.943894e+003, 8.500185e-003
1.945823e+003, 8.720091e-003
1.947751e+003, 8.853250e-003
1.949680e+003, 8.621090e-003
1.951608e+003, 8.161815e-003
1.953537e+003, 8.325327e-003
1.955465e+003, 7.538868e-003
1.957394e+003, 5.991929e-003
1.959322e+003, 7.103165e-003
1.961251e+003, 8.998595e-003
1.963179e+003, 8.943087e-003
1.965108e+003, 8.884748e-003
1.967036e+003, 1.001980e-002
1.968964e+003, 1.138128e-002
1.970893e+003, 1.064787e-002
1.972821e+003, 8.196754e-003
1.974750e+003, 7.773182e-003
1.976678e+003, 8.884329e-003
1.978607e+003, 9.888115e-003
1.980535e+003, 1.047327e-002
1.982464e+003, 1.081475e-002
1.984392e+003, 1.004659e-002
1.986321e+003, 9.803206e-003
1.988249e+003, 1.027676e-002
1.990178e+003, 1.130628e-002
1.992106e+003, 1.094647e-002
1.994035e+003, 1.030577e-002
1.995963e+003, 1.072619e-002
1.997891e+003, 1.073876e-002
1.999820e+003, 9.217414e-003
2.001748e+003, 8.246438e-003
2.003677e+003, 8.275490e-003
2.005605e+003, 9.227825e-003
2.007534e+003, 9.843472e-003
2.009462e+003, 1.068746e-002
2.011391e+003, 1.185486e-002
2.013319e+003, 9.897443e-003
2.015248e+003, 8.420737e-003
2.017176e+003, 7.603814e-003
2.019105e+003, 8.388651e-003
2.021033e+003, 1.057550e-002
2.022962e+003, 1.096702e-002
2.024890e+003, 1.053000e-002
2.026818e+003, 1.075589e-002
2.028747e+003, 1.204491e-002
2.030675e+003, 1.280180e-002
2.032604e+003, 1.174780e-002
2.034532e+003, 1.137448e-002
2.036461e+003, 1.148836e-002
2.038389e+003, 1.195137e-002
2.040318e+003, 1.187352e-002
2.042246e+003, 1.118723e-002
2.044175e+003, 1.226090e-002
2.046103e+003, 1.283075e-002
2.048032e+003, 1.293856e-002
2.049960e+003, 1.319822e-002
2.051889e+003, 1.236137e-002
2.053817e+003, 1.239257e-002
2.055746e+003, 1.299443e-002
2.057674e+003, 1.341645e-002
2.059603e+003, 1.286465e-002
2.061531e+003, 1.314577e-002
2.063459e+003, 1.300589e-002
2.065388e+003, 1.350937e-002
2.067316e+003, 1.417146e-002
2.069245e+003, 1.389241e-002
2.071173e+003, 1.351355e-002
2.073102e+003, 1.330637e-002
2.075030e+003, 1.367490e-002
2.076959e+003, 1.395511e-002
2.078887e+003, 1.338741e-002
2.080816e+003, 1.311550e-002
2.082744e+003, 1.273962e-002
2.084673e+003, 1.229703e-002
2.086601e+003, 1.253677e-002
2.088530e+003, 1.328799e-002
2.090458e+003, 1.348465e-002
2.092386e+003, 1.332267e-002
2.094315e+003, 1.279029e-002
2.096243e+003, 1.191326e-002
2.098172e+003, 1.197895e-002
2.100100e+003, 1.252237e-002
2.102029e+003, 1.289265e-002
2.103957e+003, 1.282437e-002
2.105886e+003, 1.263512e-002
2.107814e+003, 1.289747e-002
2.109743e+003, 1.288737e-002
2.111671e+003, 1.293584e-002
2.113600e+003, 1.357951e-002
2.115528e+003, 1.332190e-002
2.117457e+003, 1.312635e-002
2.119385e+003, 1.226597e-002
2.121313e+003, 1.137258e-002
2.123242e+003, 1.150138e-002
2.125170e+003, 1.135634e-002
2.127099e+003, 1.109427e-002
2.129027e+003, 1.168917e-002
2.130956e+003, 1.122008e-002
2.132884e+003, 1.004462e-002
2.134813e+003, 9.983415e-003
2.136741e+003, 9.687331e-003
2.138670e+003, 9.846177e-003
2.140598e+003, 1.086411e-002
2.142527e+003, 1.292872e-002
2.144455e+003, 1.217134e-002
2.146384e+003, 1.004186e-002
2.148312e+003, 1.053957e-002
2.150240e+003, 1.093483e-002
2.152169e+003, 8.538715e-003
2.154097e+003, 7.357849e-003
2.156026e+003, 6.953541e-003
2.157954e+003, 7.877505e-003
2.159883e+003, 1.228010e-002
2.161811e+003, 1.528740e-002
2.163740e+003, 1.591357e-002
2.165668e+003, 1.358318e-002
2.167597e+003, 1.400203e-002
2.169525e+003, 1.486884e-002
2.171454e+003, 1.301315e-002
2.173382e+003, 1.122627e-002
2.175311e+003, 1.174373e-002
2.177239e+003, 1.280261e-002
2.179167e+003, 1.207188e-002
2.181096e+003, 1.231697e-002
2.183024e+003, 1.312812e-002
2.184953e+003, 1.365789e-002
2.186881e+003, 1.413002e-002
2.188810e+003, 1.492478e-002
2.190738e+003, 1.450792e-002
2.192667e+003, 1.397835e-002
2.194595e+003, 1.329321e-002
2.196524e+003, 1.330755e-002
2.198452e+003, 1.334398e-002
2.200381e+003, 1.402621e-002
2.202309e+003, 1.548076e-002
2.204238e+003, 1.518033e-002
2.206166e+003, 1.567914e-002
2.208094e+003, 1.563166e-002
2.210023e+003, 1.507211e-002
2.211951e+003, 1.482438e-002
2.213880e+003, 1.362507e-002
2.215808e+003, 1.289055e-002
2.217737e+003, 1.466456e-002
2.219665e+003, 1.548919e-002
2.221594e+003, 1.548197e-002
2.223522e+003, 1.589790e-002
2.225451e+003, 1.581135e-002
2.227379e+003, 1.573302e-002
2.229308e+003, 1.568088e-002
2.231236e+003, 1.489670e-002
2.233165e+003, 1.405666e-002
2.235093e+003, 1.495956e-002
2.237021e+003, 1.611027e-002
2.238950e+003, 1.642768e-002
2.240878e+003, 1.684773e-002
2.242807e+003, 1.605054e-002
2.244735e+003, 1.524607e-002
2.246664e+003, 1.579264e-002
2.248592e+003, 1.647741e-002
2.250521e+003, 1.628114e-002
2.252449e+003, 1.620775e-002
2.254378e+003, 1.682080e-002
2.256306e+003, 1.640271e-002
2.258235e+003, 1.540753e-002
2.260163e+003, 1.529827e-002
2.262092e+003, 1.536690e-002
2.264020e+003, 1.573870e-002
2.265948e+003, 1.596122e-002
2.267877e+003, 1.549818e-002
2.269805e+003, 1.604585e-002
2.271734e+003, 1.684824e-002
2.273662e+003, 1.756939e-002
2.275591e+003, 1.768927e-002
2.277519e+003, 1.691804e-002
2.279448e+003, 1.698115e-002
2.281376e+003, 1.759943e-002
2.283305e+003, 1.770050e-002
2.285233e+003, 1.763530e-002
2.287162e+003, 1.703321e-002
2.289090e+003, 1.653179e-002
2.291019e+003, 1.678512e-002
2.292947e+003, 1.690410e-002
2.294875e+003, 1.740654e-002
2.296804e+003, 1.804224e-002
2.298732e+003, 1.728235e-002
2.300661e+003, 1.595583e-002
2.302589e+003, 1.610724e-002
2.304518e+003, 1.696615e-002
2.306446e+003, 1.712717e-002
2.308375e+003, 1.735582e-002
2.310303e+003, 1.770798e-002
2.312232e+003, 1.754068e-002
2.314160e+003, 1.709873e-002
2.316089e+003, 1.730101e-002
2.318017e+003, 1.743543e-002
2.319946e+003, 1.754612e-002
2.321874e+003, 1.840259e-002
2.323802e+003, 1.894012e-002
2.325731e+003, 1.814329e-002
2.327659e+003, 1.708256e-002
2.329588e+003, 1.699383e-002
2.331516e+003, 1.724841e-002
2.333445e+003, 1.728798e-002
2.335373e+003, 1.720601e-002
2.337302e+003, 1.710041e-002
2.339230e+003, 1.684732e-002
2.341159e+003, 1.718350e-002
2.343087e+003, 1.714090e-002
2.345016e+003, 1.693919e-002
2.346944e+003, 1.689014e-002
2.348873e+003, 1.653049e-002
2.350801e+003, 1.654001e-002
2.352729e+003, 1.704927e-002
2.354658e+003, 1.728700e-002
2.356586e+003, 1.717553e-002
2.358515e+003, 1.714387e-002
2.360443e+003, 1.721546e-002
2.362372e+003, 1.664257e-002
2.364300e+003, 1.656273e-002
2.366229e+003, 1.665770e-002
2.368157e+003, 1.672059e-002
2.370086e+003, 1.656602e-002
2.372014e+003, 1.642126e-002
2.373942e+003, 1.633791e-002
2.375871e+003, 1.627409e-002
2.377799e+003, 1.580059e-002
2.379728e+003, 1.551491e-002
2.381656e+003, 1.564372e-002
2.383585e+003, 1.609492e-002
2.385513e+003, 1.586479e-002
2.387442e+003, 1.601426e-002
2.389370e+003, 1.639803e-002
2.391299e+003, 1.630257e-002
2.393227e+003, 1.606387e-002
2.395156e+003, 1.574605e-002
2.397084e+003, 1.552891e-002
2.399012e+003, 1.542764e-002
2.400941e+003, 1.586613e-002
2.402869e+003, 1.597276e-002
2.404798e+003, 1.637696e-002
2.406726e+003, 1.696830e-002
2.408655e+003, 1.703698e-002
2.410583e+003, 1.640979e-002
2.412512e+003, 1.604702e-002
2.414440e+003, 1.667669e-002
2.416369e+003, 1.682042e-002
2.418297e+003, 1.580215e-002
2.420226e+003, 1.626153e-002
2.422154e+003, 1.742323e-002
2.424083e+003, 1.727607e-002
2.426011e+003, 1.674836e-002
2.427939e+003, 1.693586e-002
2.429868e+003, 1.724455e-002
2.431796e+003, 1.738749e-002
2.433725e+003, 1.725806e-002
2.435653e+003, 1.723433e-002
2.437582e+003, 1.771963e-002
2.439510e+003, 1.795165e-002
2.441439e+003, 1.737748e-002
2.443367e+003, 1.681693e-002
2.445296e+003, 1.733854e-002
2.447224e+003, 1.852836e-002
2.449153e+003, 1.801501e-002
2.451081e+003, 1.675269e-002
2.453010e+003, 1.595346e-002
2.454938e+003, 1.620441e-002
2.456866e+003, 1.670052e-002
2.458795e+003, 1.729622e-002
2.460723e+003, 1.698724e-002
2.462652e+003, 1.697203e-002
2.464580e+003, 1.673213e-002
2.466509e+003, 1.727622e-002
2.468437e+003, 1.721775e-002
2.470366e+003, 1.652658e-002
2.472294e+003, 1.661826e-002
2.474223e+003, 1.713198e-002
2.476151e+003, 1.690736e-002
2.478080e+003, 1.691535e-002
2.480008e+003, 1.720218e-002
2.481937e+003, 1.715080e-002
2.483865e+003, 1.690769e-002
2.485793e+003, 1.645523e-002
2.487722e+003, 1.685105e-002
2.489650e+003, 1.717141e-002
2.491579e+003, 1.750685e-002
2.493507e+003, 1.822983e-002
2.495436e+003, 1.801733e-002
2.497364e+003, 1.735367e-002
2.499293e+003, 1.673203e-002
2.501221e+003, 1.610127e-002
2.503150e+003, 1.649517e-002
2.505078e+003, 1.725403e-002
2.507007e+003, 1.761651e-002
2.508935e+003, 1.679717e-002
2.510864e+003, 1.668124e-002
2.512792e+003, 1.709545e-002
2.514720e+003, 1.760017e-002
2.516649e+003, 1.739006e-002
2.518577e+003, 1.745909e-002
2.520506e+003, 1.754477e-002
2.522434e+003, 1.708999e-002
2.524363e+003, 1.713321e-002
2.526291e+003, 1.741995e-002
2.528220e+003, 1.782942e-002
2.530148e+003, 1.777972e-002
2.532077e+003, 1.731553e-002
2.534005e+003, 1.729272e-002
2.535934e+003, 1.801304e-002
2.537862e+003, 1.748648e-002
2.539791e+003, 1.679651e-002
2.541719e+003, 1.751759e-002
2.543647e+003, 1.802722e-002
2.545576e+003, 1.817952e-002
2.547504e+003, 1.783785e-002
2.549433e+003, 1.750690e-002
2.551361e+003, 1.753956e-002
2.553290e+003, 1.763404e-002
2.555218e+003, 1.759050e-002
2.557147e+003, 1.763511e-002
2.559075e+003, 1.759241e-002
2.561004e+003, 1.772964e-002
2.562932e+003, 1.840267e-002
2.564861e+003, 1.799521e-002
2.566789e+003, 1.786026e-002
2.568718e+003, 1.845234e-002
2.570646e+003, 1.844229e-002
2.572574e+003, 1.838784e-002
2.574503e+003, 1.922871e-002
2.576431e+003, 1.964052e-002
2.578360e+003, 1.897987e-002
2.580288e+003, 1.836075e-002
2.582217e+003, 1.819741e-002
2.584145e+003, 1.865448e-002
2.586074e+003, 1.940414e-002
2.588002e+003, 1.983231e-002
2.589931e+003, 1.976604e-002
2.591859e+003, 2.008102e-002
2.593788e+003, 2.001285e-002
2.595716e+003, 2.003465e-002
2.597645e+003, 1.995439e-002
2.599573e+003, 1.947992e-002
2.601501e+003, 1.917554e-002
2.603430e+003, 1.954507e-002
2.605358e+003, 1.996013e-002
2.607287e+003, 2.002106e-002
2.609215e+003, 1.948040e-002
2.611144e+003, 1.868989e-002
2.613072e+003, 1.907414e-002
2.615001e+003, 1.999484e-002
2.616929e+003, 1.963176e-002
2.618858e+003, 1.919059e-002
2.620786e+003, 1.878610e-002
2.622715e+003, 1.893766e-002
2.624643e+003, 1.938122e-002
2.626572e+003, 1.977856e-002
2.628500e+003, 1.985840e-002
2.630428e+003, 1.969250e-002
2.632357e+003, 1.971652e-002
2.634285e+003, 1.960230e-002
2.636214e+003, 1.955525e-002
2.638142e+003, 1.943049e-002
2.640071e+003, 1.964579e-002
2.641999e+003, 1.965088e-002
2.643928e+003, 1.979686e-002
2.645856e+003, 1.995276e-002
2.647785e+003, 1.955210e-002
2.649713e+003, 1.963734e-002
2.651642e+003, 2.008624e-002
2.653570e+003, 2.006935e-002
2.655499e+003, 1.973946e-002
2.657427e+003, 1.964220e-002
2.659355e+003, 1.970414e-002
2.661284e+003, 1.936937e-002
2.663212e+003, 1.923024e-002
2.665141e+003, 1.902852e-002
2.667069e+003, 1.867922e-002
2.668998e+003, 1.864653e-002
2.670926e+003, 1.873286e-002
2.672855e+003, 1.920234e-002
2.674783e+003, 1.886890e-002
2.676712e+003, 1.877496e-002
2.678640e+003, 1.898929e-002
2.680569e+003, 1.934030e-002
2.682497e+003, 1.953587e-002
2.684426e+003, 1.949465e-002
2.686354e+003, 1.900968e-002
2.688282e+003, 1.932938e-002
2.690211e+003, 1.983092e-002
2.692139e+003, 1.935294e-002
2.694068e+003, 1.925164e-002
2.695996e+003, 1.935251e-002
2.697925e+003, 1.876023e-002
2.699853e+003, 1.853541e-002
2.701782e+003, 1.825838e-002
2.703710e+003, 1.828415e-002
2.705639e+003, 1.870137e-002
2.707567e+003, 1.931381e-002
2.709496e+003, 1.945635e-002
2.711424e+003, 1.914051e-002
2.713353e+003, 1.917925e-002
2.715281e+003, 1.882039e-002
2.717209e+003, 1.887364e-002
2.719138e+003, 1.910824e-002
2.721066e+003, 1.892123e-002
2.722995e+003, 1.921026e-002
2.724923e+003, 1.957327e-002
2.726852e+003, 1.983398e-002
2.728780e+003, 1.995089e-002
2.730709e+003, 1.984059e-002
2.732637e+003, 1.989493e-002
2.734566e+003, 1.980301e-002
2.736494e+003, 1.969104e-002
2.738423e+003, 1.955226e-002
2.740351e+003, 1.917684e-002
2.742280e+003, 1.935138e-002
2.744208e+003, 1.985740e-002
2.746136e+003, 1.977097e-002
2.748065e+003, 1.961758e-002
2.749993e+003, 1.987535e-002
2.751922e+003, 1.959450e-002
2.753850e+003, 1.903310e-002
2.755779e+003, 1.946984e-002
2.757707e+003, 2.009250e-002
2.759636e+003, 1.991324e-002
2.761564e+003, 1.965255e-002
2.763493e+003, 1.954760e-002
2.765421e+003, 1.931455e-002
2.767350e+003, 1.994811e-002
2.769278e+003, 2.022830e-002
2.771207e+003, 1.980340e-002
2.773135e+003, 1.948777e-002
2.775063e+003, 1.933368e-002
2.776992e+003, 1.998927e-002
2.778920e+003, 2.026015e-002
2.780849e+003, 1.981610e-002
2.782777e+003, 2.005191e-002
2.784706e+003, 1.962862e-002
2.786634e+003, 1.947031e-002
2.788563e+003, 1.999149e-002
2.790491e+003, 2.010881e-002
2.792420e+003, 1.956677e-002
2.794348e+003, 1.989958e-002
2.796277e+003, 2.019675e-002
2.798205e+003, 2.060112e-002
2.800134e+003, 2.107317e-002
2.802062e+003, 2.083397e-002
2.803990e+003, 2.065297e-002
2.805919e+003, 2.080259e-002
2.807847e+003, 2.064088e-002
2.809776e+003, 2.064057e-002
2.811704e+003, 2.004922e-002
2.813633e+003, 1.960872e-002
2.815561e+003, 1.950481e-002
2.817490e+003, 1.925023e-002
2.819418e+003, 1.960414e-002
2.821347e+003, 2.069314e-002
2.823275e+003, 2.141904e-002
2.825204e+003, 2.039530e-002
2.827132e+003, 1.964540e-002
2.829061e+003, 2.014934e-002
2.830989e+003, 2.037297e-002
2.832917e+003, 2.066202e-002
2.834846e+003, 2.135638e-002
2.836774e+003, 2.095027e-002
2.838703e+003, 2.033409e-002
2.840631e+003, 2.068181e-002
2.842560e+003, 2.061836e-002
2.844488e+003, 2.025797e-002
2.846417e+003, 1.979665e-002
2.848345e+003, 2.036632e-002
2.850274e+003, 2.057137e-002
2.852202e+003, 2.035585e-002
2.854131e+003, 2.015544e-002
2.856059e+003, 1.988429e-002
2.857988e+003, 1.964235e-002
2.859916e+003, 1.987156e-002
2.861844e+003, 1.993121e-002
2.863773e+003, 1.999391e-002
2.865701e+003, 2.074247e-002
2.867630e+003, 2.019755e-002
2.869558e+003, 1.963744e-002
2.871487e+003, 2.090286e-002
2.873415e+003, 2.170980e-002
2.875344e+003, 2.083706e-002
2.877272e+003, 2.074431e-002
2.879201e+003, 2.151939e-002
2.881129e+003, 2.091665e-002
2.883058e+003, 1.966316e-002
2.884986e+003, 1.996426e-002
2.886915e+003, 2.094892e-002
2.888843e+003, 2.165816e-002
2.890771e+003, 2.189795e-002
2.892700e+003, 2.150620e-002
2.894628e+003, 2.103767e-002
2.896557e+003, 2.113874e-002
2.898485e+003, 2.152576e-002
2.900414e+003, 2.211935e-002
2.902342e+003, 2.236544e-002
2.904271e+003, 2.205543e-002
2.906199e+003, 2.160665e-002
2.908128e+003, 2.120877e-002
2.910056e+003, 2.137738e-002
2.911985e+003, 2.202986e-002
2.913913e+003, 2.170623e-002
2.915842e+003, 2.126090e-002
2.917770e+003, 2.137210e-002
2.919698e+003, 2.155871e-002
2.921627e+003, 2.161037e-002
2.923555e+003, 2.124513e-002
2.925484e+003, 2.132332e-002
2.927412e+003, 2.105372e-002
2.929341e+003, 2.064471e-002
2.931269e+003, 2.164572e-002
2.933198e+003, 2.202015e-002
2.935126e+003, 2.135433e-002
2.937055e+003, 2.088048e-002
2.938983e+003, 2.082628e-002
2.940912e+003, 2.106025e-002
2.942840e+003, 2.076432e-002
2.944769e+003, 2.064722e-002
2.946697e+003, 2.107190e-002
2.948625e+003, 2.134872e-002
2.950554e+003, 2.139529e-002
2.952482e+003, 2.160575e-002
2.954411e+003, 2.097490e-002
2.956339e+003, 2.096958e-002
2.958268e+003, 2.183930e-002
2.960196e+003, 2.172654e-002
2.962125e+003, 2.033599e-002
2.964053e+003, 2.054291e-002
2.965982e+003, 2.093558e-002
2.967910e+003, 2.096329e-002
2.969839e+003, 2.168092e-002
2.971767e+003, 2.238432e-002
2.973696e+003, 2.210072e-002
2.975624e+003, 2.138881e-002
2.977552e+003, 2.129454e-002
2.979481e+003, 2.178193e-002
2.981409e+003, 2.136009e-002
2.983338e+003, 2.081598e-002
2.985266e+003, 2.149995e-002
2.987195e+003, 2.149894e-002
2.989123e+003, 2.210556e-002
2.991052e+003, 2.235715e-002
2.992980e+003, 2.183008e-002
2.994909e+003, 2.195879e-002
2.996837e+003, 2.245969e-002
2.998766e+003, 2.311067e-002
3.000694e+003, 2.320690e-002
3.002623e+003, 2.205370e-002
3.004551e+003, 2.147112e-002
3.006479e+003, 2.153645e-002
3.008408e+003, 2.109118e-002
3.010336e+003, 2.122655e-002
3.012265e+003, 2.132891e-002
3.014193e+003, 2.204188e-002
3.016122e+003, 2.259719e-002
3.018050e+003, 2.256647e-002
3.019979e+003, 2.240509e-002
3.021907e+003, 2.158527e-002
3.023836e+003, 2.124424e-002
3.025764e+003, 2.196857e-002
3.027693e+003, 2.252048e-002
3.029621e+003, 2.259620e-002
3.031550e+003, 2.171062e-002
3.033478e+003, 2.043612e-002
3.035406e+003, 2.141303e-002
3.037335e+003, 2.274260e-002
3.039263e+003, 2.276217e-002
3.041192e+003, 2.223070e-002
3.043120e+003, 2.166330e-002
3.045049e+003, 2.186350e-002
3.046977e+003, 2.147638e-002
3.048906e+003, 2.178448e-002
3.050834e+003, 2.273415e-002
3.052763e+003, 2.271817e-002
3.054691e+003, 2.287987e-002
3.056620e+003, 2.305589e-002
3.058548e+003, 2.334868e-002
3.060477e+003, 2.367542e-002
3.062405e+003, 2.296345e-002
3.064333e+003, 2.218788e-002
3.066262e+003, 2.229017e-002
3.068190e+003, 2.249463e-002
3.070119e+003, 2.254942e-002
3.072047e+003, 2.231950e-002
3.073976e+003, 2.338559e-002
3.075904e+003, 2.305109e-002
3.077833e+003, 2.159995e-002
3.079761e+003, 2.213223e-002
3.081690e+003, 2.295441e-002
3.083618e+003, 2.298613e-002
3.085547e+003, 2.329488e-002
3.087475e+003, 2.332578e-002
3.089404e+003, 2.324973e-002
3.091332e+003, 2.337941e-002
3.093260e+003, 2.334790e-002
3.095189e+003, 2.302449e-002
3.097117e+003, 2.354440e-002
3.099046e+003, 2.449558e-002
3.100974e+003, 2.396704e-002
3.102903e+003, 2.316450e-002
3.104831e+003, 2.359331e-002
3.106760e+003, 2.320397e-002
3.108688e+003, 2.281960e-002
3.110617e+003, 2.273292e-002
3.112545e+003, 2.299015e-002
3.114474e+003, 2.415299e-002
3.116402e+003, 2.424417e-002
3.118331e+003, 2.361156e-002
3.120259e+003, 2.363404e-002
3.122188e+003, 2.355496e-002
3.124116e+003, 2.392505e-002
3.126044e+003, 2.413444e-002
3.127973e+003, 2.376293e-002
3.129901e+003, 2.376048e-002
3.131830e+003, 2.426572e-002
3.133758e+003, 2.391487e-002
3.135687e+003, 2.343365e-002
3.137615e+003, 2.449365e-002
3.139544e+003, 2.487765e-002
3.141472e+003, 2.497360e-002
3.143401e+003, 2.559774e-002
3.145329e+003, 2.523292e-002
3.147258e+003, 2.446095e-002
3.149186e+003, 2.442930e-002
3.151115e+003, 2.396167e-002
3.153043e+003, 2.381804e-002
3.154971e+003, 2.354926e-002
3.156900e+003, 2.297647e-002
3.158828e+003, 2.225599e-002
3.160757e+003, 2.307079e-002
3.162685e+003, 2.464785e-002
3.164614e+003, 2.494474e-002
3.166542e+003, 2.516328e-002
3.168471e+003, 2.577932e-002
3.170399e+003, 2.527802e-002
3.172328e+003, 2.462678e-002
3.174256e+003, 2.362750e-002
3.176185e+003, 2.334801e-002
3.178113e+003, 2.409099e-002
3.180042e+003, 2.450014e-002
3.181970e+003, 2.466514e-002
3.183898e+003, 2.427398e-002
3.185827e+003, 2.403195e-002
3.187755e+003, 2.435992e-002
3.189684e+003, 2.465629e-002
3.191612e+003, 2.453072e-002
3.193541e+003, 2.391960e-002
3.195469e+003, 2.428245e-002
3.197398e+003, 2.484049e-002
3.199326e+003, 2.490252e-002
3.201255e+003, 2.510685e-002
3.203183e+003, 2.568026e-002
3.205112e+003, 2.538832e-002
3.207040e+003, 2.508244e-002
3.208969e+003, 2.505638e-002
3.210897e+003, 2.591128e-002
3.212825e+003, 2.622664e-002
3.214754e+003, 2.520545e-002
3.216682e+003, 2.419030e-002
3.218611e+003, 2.443605e-002
3.220539e+003, 2.491011e-002
3.222468e+003, 2.489481e-002
3.224396e+003, 2.567469e-002
3.226325e+003, 2.704473e-002
3.228253e+003, 2.638581e-002
3.230182e+003, 2.542177e-002
3.232110e+003, 2.516314e-002
3.234039e+003, 2.420710e-002
3.235967e+003, 2.425165e-002
3.237896e+003, 2.399149e-002
3.239824e+003, 2.323540e-002
3.241752e+003, 2.327129e-002
3.243681e+003, 2.452073e-002
3.245609e+003, 2.635311e-002
3.247538e+003, 2.655724e-002
3.249466e+003, 2.567824e-002
3.251395e+003, 2.488065e-002
3.253323e+003, 2.661081e-002
3.255252e+003, 2.696230e-002
3.257180e+003, 2.591736e-002
3.259109e+003, 2.602972e-002
3.261037e+003, 2.561398e-002
3.262966e+003, 2.590669e-002
3.264894e+003, 2.641148e-002
3.266823e+003, 2.595825e-002
3.268751e+003, 2.616751e-002
3.270679e+003, 2.586507e-002
3.272608e+003, 2.636839e-002
3.274536e+003, 2.650219e-002
3.276465e+003, 2.485494e-002
3.278393e+003, 2.594775e-002
3.280322e+003, 2.650527e-002
3.282250e+003, 2.623902e-002
3.284179e+003, 2.636761e-002
3.286107e+003, 2.569082e-002
3.288036e+003, 2.529198e-002
3.289964e+003, 2.488878e-002
3.291893e+003, 2.510472e-002
3.293821e+003, 2.627938e-002
3.295750e+003, 2.608667e-002
3.297678e+003, 2.542432e-002
3.299606e+003, 2.594942e-002
3.301535e+003, 2.536898e-002
3.303463e+003, 2.594197e-002
3.305392e+003, 2.761168e-002
3.307320e+003, 2.756434e-002
3.309249e+003, 2.640425e-002
3.311177e+003, 2.540365e-002
3.313106e+003, 2.512026e-002
3.315034e+003, 2.570672e-002
3.316963e+003, 2.603734e-002
3.318891e+003, 2.643526e-002
3.320820e+003, 2.631580e-002
3.322748e+003, 2.628601e-002
3.324677e+003, 2.654372e-002
3.326605e+003, 2.567302e-002
3.328533e+003, 2.631661e-002
3.330462e+003, 2.640907e-002
3.332390e+003, 2.633935e-002
3.334319e+003, 2.623871e-002
3.336247e+003, 2.582339e-002
3.338176e+003, 2.700844e-002
3.340104e+003, 2.821295e-002
3.342033e+003, 2.808032e-002
3.343961e+003, 2.745604e-002
3.345890e+003, 2.702952e-002
3.347818e+003, 2.625571e-002
3.349747e+003, 2.571016e-002
3.351675e+003, 2.700006e-002
3.353604e+003, 2.754981e-002
3.355532e+003, 2.783730e-002
3.357460e+003, 2.795013e-002
3.359389e+003, 2.570086e-002
3.361317e+003, 2.476133e-002
3.363246e+003, 2.582685e-002
3.365174e+003, 2.700300e-002
3.367103e+003, 2.694039e-002
3.369031e+003, 2.595617e-002
3.370960e+003, 2.580808e-002
3.372888e+003, 2.628197e-002
3.374817e+003, 2.611461e-002
3.376745e+003, 2.611610e-002
3.378674e+003, 2.752022e-002
3.380602e+003, 2.821757e-002
3.382531e+003, 2.689594e-002
3.384459e+003, 2.628126e-002
3.386387e+003, 2.569173e-002
3.388316e+003, 2.630880e-002
3.390244e+003, 2.695152e-002
3.392173e+003, 2.621600e-002
3.394101e+003, 2.601361e-002
3.396030e+003, 2.664676e-002
3.397958e+003, 2.655972e-002
3.399887e+003, 2.676915e-002
3.401815e+003, 2.642754e-002
3.403744e+003, 2.661741e-002
3.405672e+003, 2.614428e-002
3.407601e+003, 2.516665e-002
3.409529e+003, 2.666854e-002
3.411458e+003, 2.768769e-002
3.413386e+003, 2.710100e-002
3.415314e+003, 2.689299e-002
3.417243e+003, 2.672949e-002
3.419171e+003, 2.651498e-002
3.421100e+003, 2.664114e-002
3.423028e+003, 2.582796e-002
3.424957e+003, 2.429609e-002
3.426885e+003, 2.462425e-002
3.428814e+003, 2.476858e-002
3.430742e+003, 2.467824e-002
3.432671e+003, 2.597174e-002
3.434599e+003, 2.734728e-002
3.436528e+003, 2.732507e-002
3.438456e+003, 2.642618e-002
3.440385e+003, 2.679843e-002
3.442313e+003, 2.669962e-002
3.444241e+003, 2.695012e-002
3.446170e+003, 2.651876e-002
3.448098e+003, 2.512161e-002
3.450027e+003, 2.477606e-002
3.451955e+003, 2.560705e-002
3.453884e+003, 2.606078e-002
3.455812e+003, 2.583468e-002
3.457741e+003, 2.524874e-002
3.459669e+003, 2.625546e-002
3.461598e+003, 2.741640e-002
3.463526e+003, 2.717074e-002
3.465455e+003, 2.511759e-002
3.467383e+003, 2.534002e-002
3.469312e+003, 2.669345e-002
3.471240e+003, 2.708726e-002
3.473168e+003, 2.723569e-002
3.475097e+003, 2.765439e-002
3.477025e+003, 2.722005e-002
3.478954e+003, 2.680286e-002
3.480882e+003, 2.632013e-002
3.482811e+003, 2.712368e-002
3.484739e+003, 2.756896e-002
3.486668e+003, 2.657899e-002
3.488596e+003, 2.618269e-002
3.490525e+003, 2.695391e-002
3.492453e+003, 2.813033e-002
3.494382e+003, 2.724883e-002
3.496310e+003, 2.710054e-002
3.498239e+003, 2.568454e-002
3.500167e+003, 2.243373e-002
3.502095e+003, 2.344912e-002
3.504024e+003, 2.712106e-002
3.505952e+003, 2.806957e-002
3.507881e+003, 2.749549e-002
3.509809e+003, 2.774602e-002
3.511738e+003, 2.718306e-002
3.513666e+003, 2.675300e-002
3.515595e+003, 2.758970e-002
3.517523e+003, 2.713983e-002
3.519452e+003, 2.684943e-002
3.521380e+003, 2.756699e-002
3.523309e+003, 2.778426e-002
3.525237e+003, 2.762278e-002
3.527166e+003, 2.698553e-002
3.529094e+003, 2.614578e-002
3.531022e+003, 2.641019e-002
3.532951e+003, 2.650873e-002
3.534879e+003, 2.680071e-002
3.536808e+003, 2.785853e-002
3.538736e+003, 2.781592e-002
3.540665e+003, 2.748875e-002
3.542593e+003, 2.827335e-002
3.544522e+003, 2.746936e-002
3.546450e+003, 2.661329e-002
3.548379e+003, 2.766094e-002
3.550307e+003, 2.743936e-002
3.552236e+003, 2.752132e-002
3.554164e+003, 2.894744e-002
3.556093e+003, 2.794000e-002
3.558021e+003, 2.598052e-002
3.559949e+003, 2.624645e-002
3.561878e+003, 2.785156e-002
3.563806e+003, 2.852206e-002
3.565735e+003, 2.736530e-002
3.567663e+003, 2.693106e-002
3.569592e+003, 2.692304e-002
3.571520e+003, 2.657687e-002
3.573449e+003, 2.756374e-002
3.575377e+003, 2.852794e-002
3.577306e+003, 2.892015e-002
3.579234e+003, 2.784300e-002
3.581163e+003, 2.742613e-002
3.583091e+003, 2.673246e-002
3.585020e+003, 2.612170e-002
3.586948e+003, 2.631729e-002
3.588876e+003, 2.637203e-002
3.590805e+003, 2.576878e-002
3.592733e+003, 2.543030e-002
3.594662e+003, 2.652110e-002
3.596590e+003, 2.704038e-002
3.598519e+003, 2.585236e-002
3.600447e+003, 2.800011e-002
3.602376e+003, 2.956469e-002
3.604304e+003, 2.928277e-002
3.606233e+003, 2.843210e-002
3.608161e+003, 2.590144e-002
3.610090e+003, 2.620592e-002
3.612018e+003, 2.782580e-002
3.613947e+003, 2.833712e-002
3.615875e+003, 2.872055e-002
3.617803e+003, 2.865626e-002
3.619732e+003, 2.797507e-002
3.621660e+003, 2.974981e-002
3.623589e+003, 3.068224e-002
3.625517e+003, 2.871097e-002
3.627446e+003, 2.729696e-002
3.629374e+003, 2.724657e-002
3.631303e+003, 2.733778e-002
3.633231e+003, 2.641132e-002
3.635160e+003, 2.534959e-002
3.637088e+003, 2.662948e-002
3.639017e+003, 2.732975e-002
3.640945e+003, 2.629984e-002
3.642874e+003, 2.517564e-002
3.644802e+003, 2.354647e-002
3.646730e+003, 2.353916e-002
3.648659e+003, 2.427538e-002
3.650587e+003, 2.429052e-002
3.652516e+003, 2.531458e-002
3.654444e+003, 2.641352e-002
3.656373e+003, 2.595341e-002
3.658301e+003, 2.533682e-002
3.660230e+003, 2.544593e-002
3.662158e+003, 2.549473e-002
3.664087e+003, 2.447966e-002
3.666015e+003, 2.415545e-002
3.667944e+003, 2.551133e-002
3.669872e+003, 2.646061e-002
3.671801e+003, 2.585918e-002
3.673729e+003, 2.638063e-002
3.675657e+003, 2.659716e-002
3.677586e+003, 2.458560e-002
3.679514e+003, 2.416116e-002
3.681443e+003, 2.667047e-002
3.683371e+003, 2.909650e-002
3.685300e+003, 2.808459e-002
3.687228e+003, 2.619574e-002
3.689157e+003, 2.440464e-002
3.691085e+003, 2.472949e-002
3.693014e+003, 2.662946e-002
3.694942e+003, 2.771322e-002
3.696871e+003, 2.775048e-002
3.698799e+003, 2.692167e-002
3.700728e+003, 2.639632e-002
3.702656e+003, 2.797256e-002
3.704584e+003, 2.768495e-002
3.706513e+003, 2.671049e-002
3.708441e+003, 2.635921e-002
3.710370e+003, 2.553651e-002
3.712298e+003, 2.686459e-002
3.714227e+003, 2.683012e-002
3.716155e+003, 2.701100e-002
3.718084e+003, 2.633932e-002
3.720012e+003, 2.523740e-002
3.721941e+003, 2.651291e-002
3.723869e+003, 2.668116e-002
3.725798e+003, 2.651393e-002
3.727726e+003, 2.646592e-002
3.729655e+003, 2.824998e-002
3.731583e+003, 2.932739e-002
3.733511e+003, 2.945034e-002
3.735440e+003, 2.721758e-002
3.737368e+003, 2.457075e-002
3.739297e+003, 2.392916e-002
3.741225e+003, 2.586772e-002
3.743154e+003, 2.692568e-002
3.745082e+003, 2.425374e-002
3.747011e+003, 2.437257e-002
3.748939e+003, 2.607736e-002
3.750868e+003, 2.848616e-002
3.752796e+003, 2.694822e-002
3.754725e+003, 2.344006e-002
3.756653e+003, 2.449720e-002
3.758582e+003, 2.604761e-002
3.760510e+003, 2.665006e-002
3.762438e+003, 2.675039e-002
3.764367e+003, 2.611464e-002
3.766295e+003, 2.589865e-002
3.768224e+003, 2.503532e-002
3.770152e+003, 2.403607e-002
3.772081e+003, 2.451696e-002
3.774009e+003, 2.646864e-002
3.775938e+003, 2.698289e-002
3.777866e+003, 2.626334e-002
3.779795e+003, 2.601661e-002
3.781723e+003, 2.532420e-002
3.783652e+003, 2.717246e-002
3.785580e+003, 2.741403e-002
3.787509e+003, 2.837500e-002
3.789437e+003, 2.792284e-002
3.791365e+003, 2.623875e-002
3.793294e+003, 2.430967e-002
3.795222e+003, 2.525770e-002
3.797151e+003, 2.654169e-002
3.799079e+003, 2.522321e-002
3.801008e+003, 2.505311e-002
3.802936e+003, 2.600652e-002
3.804865e+003, 2.517444e-002
3.806793e+003, 2.484647e-002
3.808722e+003, 2.665270e-002
3.810650e+003, 2.854331e-002
3.812579e+003, 2.905826e-002
3.814507e+003, 2.681594e-002
3.816436e+003, 2.456851e-002
3.818364e+003, 2.489897e-002
3.820292e+003, 2.673417e-002
3.822221e+003, 2.685010e-002
3.824149e+003, 2.697526e-002
3.826078e+003, 2.755327e-002
3.828006e+003, 2.631732e-002
3.829935e+003, 2.636958e-002
3.831863e+003, 2.805443e-002
3.833792e+003, 3.011715e-002
3.835720e+003, 3.065529e-002
3.837649e+003, 2.768400e-002
3.839577e+003, 2.631843e-002
3.841506e+003, 2.798640e-002
3.843434e+003, 2.880684e-002
3.845363e+003, 2.789097e-002
3.847291e+003, 2.794454e-002
3.849219e+003, 2.741942e-002
3.851148e+003, 2.658414e-002
3.853076e+003, 2.528324e-002
3.855005e+003, 2.536252e-002
3.856933e+003, 2.535167e-002
3.858862e+003, 2.616666e-002
3.860790e+003, 2.797703e-002
3.862719e+003, 2.878591e-002
3.864647e+003, 2.990802e-002
3.866576e+003, 3.028829e-002
3.868504e+003, 2.832272e-002
3.870433e+003, 2.602451e-002
3.872361e+003, 2.552944e-002
3.874290e+003, 2.702445e-002
3.876218e+003, 2.837803e-002
3.878146e+003, 2.819545e-002
3.880075e+003, 2.807790e-002
3.882003e+003, 2.865677e-002
3.883932e+003, 2.770642e-002
3.885860e+003, 2.694222e-002
3.887789e+003, 2.748799e-002
3.889717e+003, 2.660931e-002
3.891646e+003, 2.637167e-002
3.893574e+003, 2.854535e-002
3.895503e+003, 3.020188e-002
3.897431e+003, 3.020800e-002
3.899360e+003, 2.793262e-002
3.901288e+003, 2.615969e-002
3.903217e+003, 2.679050e-002
3.905145e+003, 2.728192e-002
3.907073e+003, 2.590896e-002
3.909002e+003, 2.471795e-002
3.910930e+003, 2.402719e-002
3.912859e+003, 2.564160e-002
3.914787e+003, 2.546795e-002
3.916716e+003, 2.800290e-002
3.918644e+003, 3.008987e-002
3.920573e+003, 2.841169e-002
3.922501e+003, 2.691917e-002
3.924430e+003, 2.548125e-002
3.926358e+003, 2.564085e-002
3.928287e+003, 2.699226e-002
3.930215e+003, 2.882417e-002
3.932144e+003, 2.968128e-002
3.934072e+003, 2.834354e-002
3.936000e+003, 2.858072e-002
3.937929e+003, 2.859261e-002
3.939857e+003, 2.692723e-002
3.941786e+003, 2.754140e-002
3.943714e+003, 2.815820e-002
3.945643e+003, 2.781999e-002
3.947571e+003, 2.663292e-002
3.949500e+003, 2.592918e-002
3.951428e+003, 2.628064e-002
3.953357e+003, 2.651602e-002
3.955285e+003, 2.638640e-002
3.957214e+003, 2.766361e-002
3.959142e+003, 2.708099e-002
3.961071e+003, 2.523078e-002
3.962999e+003, 2.622343e-002
3.964927e+003, 2.871223e-002
3.966856e+003, 2.777205e-002
3.968784e+003, 2.448675e-002
3.970713e+003, 2.564326e-002
3.972641e+003, 2.798027e-002
3.974570e+003, 2.734875e-002
3.976498e+003, 2.804015e-002
3.978427e+003, 2.859943e-002
3.980355e+003, 2.939157e-002
3.982284e+003, 2.948387e-002
3.984212e+003, 2.984231e-002
3.986141e+003, 2.877081e-002
3.988069e+003, 2.624134e-002
3.989998e+003, 2.477674e-002
3.991926e+003, 2.911514e-002
3.993854e+003, 2.989298e-002
3.995783e+003, 2.709301e-002
3.997711e+003, 2.693336e-002
3.999640e+003, 2.694576e-002
##END=



