##NAMES=Hubnerite
##RRUFFID=R050556
##IDEAL CHEMISTRY=Mn^2+^W^6+^O_4_
##LOCALITY=Pasto Bueno, Ancash Department, Peru
##OWNER=RRUFF
##SOURCE=Dave Bunk Minerals
##DESCRIPTION=Blackish brown bladed crystal associated with quartz
##STATUS=The identification of this mineral has been confirmed by X-ray diffraction and chemical analysis
##URL=rruff.info/R050556
##MEASURED CHEMISTRY=Mn^2+^_0.98_W_1.00_O_4_
399.1926, 0.1355206
401.1211, 0.1555534
403.0496, 0.1563012
404.9780, 0.1664581
406.9065, 0.1764330
408.8350, 0.1838425
410.7634, 0.1872604
412.6919, 0.1914081
414.6204, 0.1966166
416.5488, 0.1925784
418.4773, 0.1847562
420.4058, 0.1834378
422.3342, 0.1864708
424.2627, 0.1822510
426.1912, 0.1723953
428.1196, 0.1598507
430.0481, 0.1531011
431.9766, 0.1581996
433.9050, 0.1673423
435.8335, 0.1737893
437.7620, 0.1818960
439.6904, 0.1902391
441.6189, 0.1976231
443.5474, 0.2077939
445.4758, 0.2126034
447.4043, 0.2161399
449.3328, 0.2255132
451.2612, 0.2323664
453.1897, 0.2301074
455.1182, 0.2271537
457.0466, 0.2220784
458.9751, 0.2182144
460.9036, 0.2159151
462.8320, 0.2123160
464.7605, 0.2065676
466.6890, 0.2005418
468.6174, 0.2007015
470.5459, 0.2021004
472.4744, 0.2008776
474.4028, 0.2039302
476.3313, 0.2095781
478.2598, 0.2141915
480.1882, 0.2181285
482.1167, 0.2220618
484.0452, 0.2283884
485.9736, 0.2340512
487.9021, 0.2381062
489.8306, 0.2441391
491.7590, 0.2489788
493.6875, 0.2524321
495.6160, 0.2547204
497.5444, 0.2557230
499.4729, 0.2565585
501.4014, 0.2582252
503.3298, 0.2576670
505.2583, 0.2555785
507.1868, 0.2537563
509.1152, 0.2511122
511.0437, 0.2494689
512.9722, 0.2475484
514.9006, 0.2455278
516.8291, 0.2415885
518.7576, 0.2358490
520.6860, 0.2318822
522.6145, 0.2286631
524.5430, 0.2232678
526.4714, 0.2193185
528.3999, 0.2173848
530.3284, 0.2158343
532.2568, 0.2140866
534.1853, 0.2144591
536.1138, 0.2171589
538.0422, 0.2196345
539.9707, 0.2210385
541.8992, 0.2230236
543.8276, 0.2269342
545.7561, 0.2301801
547.6846, 0.2330340
549.6130, 0.2358672
551.5415, 0.2378719
553.4700, 0.2422083
555.3984, 0.2467282
557.3269, 0.2482926
559.2554, 0.2505501
561.1838, 0.2542835
563.1123, 0.2580640
565.0408, 0.2605456
566.9692, 0.2634444
568.8977, 0.2665482
570.8262, 0.2698873
572.7546, 0.2724790
574.6831, 0.2736196
576.6116, 0.2746974
578.5400, 0.2764376
580.4685, 0.2778775
582.3970, 0.2793140
584.3254, 0.2799401
586.2539, 0.2793247
588.1824, 0.2792912
590.1108, 0.2803789
592.0393, 0.2807433
593.9678, 0.2813104
595.8962, 0.2806104
597.8247, 0.2785345
599.7532, 0.2784575
601.6816, 0.2791899
603.6101, 0.2792601
605.5386, 0.2789443
607.4670, 0.2776270
609.3955, 0.2760750
611.3240, 0.2751446
613.2524, 0.2740213
615.1809, 0.2727763
617.1094, 0.2716136
619.0378, 0.2695323
620.9663, 0.2682008
622.8948, 0.2669893
624.8232, 0.2657619
626.7517, 0.2644369
628.6802, 0.2623426
630.6086, 0.2599570
632.5371, 0.2592072
634.4656, 0.2573291
636.3940, 0.2545839
638.3225, 0.2524604
640.2510, 0.2510191
642.1794, 0.2500159
644.1079, 0.2472005
646.0364, 0.2443208
647.9648, 0.2425545
649.8933, 0.2409099
651.8218, 0.2390164
653.7502, 0.2374651
655.6787, 0.2357932
657.6072, 0.2344881
659.5356, 0.2327272
661.4641, 0.2305879
663.3926, 0.2288443
665.3210, 0.2268232
667.2495, 0.2242582
669.1780, 0.2224732
671.1064, 0.2205646
673.0349, 0.2183124
674.9634, 0.2159988
676.8918, 0.2138344
678.8203, 0.2116141
680.7488, 0.2092044
682.6772, 0.2070369
684.6057, 0.2049456
686.5342, 0.2023862
688.4626, 0.1995896
690.3911, 0.1972710
692.3196, 0.1950735
694.2480, 0.1931506
696.1765, 0.1915450
698.1050, 0.1893698
700.0334, 0.1863971
701.9619, 0.1839777
703.8904, 0.1816658
705.8188, 0.1791210
707.7473, 0.1763763
709.6758, 0.1733838
711.6042, 0.1706333
713.5327, 0.1677310
715.4612, 0.1643627
717.3896, 0.1605497
719.3181, 0.1568221
721.2466, 0.1534916
723.1750, 0.1502015
725.1035, 0.1466345
727.0320, 0.1429171
728.9604, 0.1392020
730.8889, 0.1354766
732.8174, 0.1316154
734.7458, 0.1275772
736.6743, 0.1236427
738.6028, 0.1202495
740.5313, 0.1168664
742.4597, 0.1138285
744.3882, 0.1110948
746.3167, 0.1088500
748.2451, 0.1079951
750.1736, 0.1085703
752.1021, 0.1100802
754.0305, 0.1124396
755.9590, 0.1152407
757.8875, 0.1184678
759.8159, 0.1220223
761.7444, 0.1259560
763.6729, 0.1300033
765.6013, 0.1339182
767.5298, 0.1381278
769.4583, 0.1417743
771.3867, 0.1451146
773.3152, 0.1490693
775.2437, 0.1531113
777.1721, 0.1567734
779.1006, 0.1604028
781.0291, 0.1639188
782.9575, 0.1672030
784.8860, 0.1705282
786.8145, 0.1737753
788.7429, 0.1768404
790.6714, 0.1794062
792.5999, 0.1814602
794.5283, 0.1833442
796.4568, 0.1848073
798.3853, 0.1860640
800.3137, 0.1875280
802.2422, 0.1887835
804.1707, 0.1891490
806.0991, 0.1894699
808.0276, 0.1897652
809.9561, 0.1895163
811.8845, 0.1889833
813.8130, 0.1881959
815.7415, 0.1870419
817.6699, 0.1859402
819.5984, 0.1847622
821.5269, 0.1829964
823.4553, 0.1811224
825.3838, 0.1787377
827.3123, 0.1764674
829.2407, 0.1744929
831.1692, 0.1721095
833.0977, 0.1697764
835.0261, 0.1673898
836.9546, 0.1649714
838.8831, 0.1626821
840.8115, 0.1602434
842.7400, 0.1575731
844.6685, 0.1549464
846.5969, 0.1520541
848.5254, 0.1488470
850.4539, 0.1466797
852.3823, 0.1450011
854.3108, 0.1426534
856.2393, 0.1396763
858.1677, 0.1366513
860.0962, 0.1336099
862.0247, 0.1302385
863.9531, 0.1260188
865.8816, 0.1214840
867.8101, 0.1174071
869.7385, 0.1135411
871.6670, 0.1086058
873.5955, 0.1027060
875.5239, 9.7192921E-02
877.4524, 9.1579393E-02
879.3809, 8.5140213E-02
881.3093, 7.8151159E-02
883.2378, 7.0984557E-02
885.1663, 6.3358843E-02
887.0947, 5.5509910E-02
889.0232, 4.7896951E-02
890.9517, 4.0502191E-02
892.8801, 3.3828951E-02
894.8085, 2.8283190E-02
896.7370, 2.3620090E-02
898.6655, 2.0184619E-02
900.5939, 1.8089719E-02
902.5224, 1.6594000E-02
904.4509, 1.5500640E-02
906.3793, 1.4765600E-02
908.3078, 1.4379700E-02
910.2363, 1.4042360E-02
912.1647, 1.3499210E-02
914.0932, 1.2950030E-02
916.0217, 1.2576010E-02
917.9501, 1.2297910E-02
919.8786, 1.2244640E-02
921.8071, 1.2153730E-02
923.7355, 1.1995890E-02
925.6640, 1.2025740E-02
927.5925, 1.2309700E-02
929.5209, 1.2348470E-02
931.4494, 1.2156110E-02
933.3779, 1.1792170E-02
935.3063, 1.1424290E-02
937.2348, 1.1083640E-02
939.1633, 1.0897040E-02
941.0917, 1.0573330E-02
943.0202, 1.0033980E-02
944.9487, 9.5430119E-03
946.8771, 9.5187835E-03
948.8056, 9.5722442E-03
950.7341, 9.6252002E-03
952.6625, 9.7656129E-03
954.5910, 9.8089902E-03
956.5195, 9.6595734E-03
958.4479, 9.5223086E-03
960.3764, 9.5321881E-03
962.3049, 9.5040621E-03
964.2333, 9.4378116E-03
966.1618, 9.1509856E-03
968.0903, 9.0003163E-03
970.0187, 9.1480650E-03
971.9472, 9.5158191E-03
973.8757, 9.7848447E-03
975.8041, 9.9396436E-03
977.7326, 9.9780597E-03
979.6611, 9.9715870E-03
981.5895, 9.9231983E-03
983.5180, 9.9397264E-03
985.4465, 1.0057150E-02
987.3749, 1.0136620E-02
989.3034, 1.0382130E-02
991.2319, 1.0365250E-02
993.1603, 1.0484670E-02
995.0888, 1.0545570E-02
997.0173, 1.0713320E-02
998.9457, 1.0890680E-02
1000.874, 1.0996150E-02
1002.803, 1.1204880E-02
1004.731, 1.0941710E-02
1006.660, 1.0879160E-02
1008.588, 1.1048680E-02
1010.517, 1.0942540E-02
1012.445, 1.0907540E-02
1014.373, 1.1108890E-02
1016.302, 1.1162720E-02
1018.230, 1.0990410E-02
1020.159, 1.0805440E-02
1022.087, 1.0921930E-02
1024.016, 1.1122220E-02
1025.944, 1.1276750E-02
1027.873, 1.1427630E-02
1029.801, 1.1509180E-02
1031.730, 1.1703340E-02
1033.658, 1.1694800E-02
1035.587, 1.1770510E-02
1037.515, 1.2280670E-02
1039.444, 1.2380190E-02
1041.372, 1.2285720E-02
1043.301, 1.2348900E-02
1045.229, 1.2242840E-02
1047.157, 1.2292620E-02
1049.086, 1.2658560E-02
1051.014, 1.2987920E-02
1052.943, 1.3197510E-02
1054.871, 1.3426540E-02
1056.800, 1.3555730E-02
1058.728, 1.3573240E-02
1060.657, 1.3499230E-02
1062.585, 1.3573050E-02
1064.514, 1.3878200E-02
1066.442, 1.4341800E-02
1068.371, 1.4399100E-02
1070.299, 1.4620440E-02
1072.228, 1.4738010E-02
1074.156, 1.4692010E-02
1076.084, 1.4937080E-02
1078.013, 1.5129500E-02
1079.941, 1.5604040E-02
1081.870, 1.5861509E-02
1083.798, 1.5913110E-02
1085.727, 1.5822440E-02
1087.655, 1.5981710E-02
1089.584, 1.6313599E-02
1091.512, 1.6352991E-02
1093.441, 1.6378660E-02
1095.369, 1.6456010E-02
1097.298, 1.6707210E-02
1099.226, 1.6659221E-02
1101.155, 1.6545160E-02
1103.083, 1.6965861E-02
1105.011, 1.7527070E-02
1106.940, 1.7698130E-02
1108.868, 1.7853331E-02
1110.797, 1.7839151E-02
1112.725, 1.7803401E-02
1114.654, 1.7882161E-02
1116.582, 1.8097401E-02
1118.511, 1.8578431E-02
1120.439, 1.8788150E-02
1122.368, 1.8974589E-02
1124.296, 1.9464079E-02
1126.225, 2.0030251E-02
1128.153, 2.0473661E-02
1130.082, 2.0523019E-02
1132.010, 2.0625200E-02
1133.938, 2.1047801E-02
1135.867, 2.1329230E-02
1137.795, 2.1330610E-02
1139.724, 2.1574359E-02
1141.652, 2.1953089E-02
1143.581, 2.1978490E-02
1145.509, 2.2119300E-02
1147.438, 2.2721879E-02
1149.366, 2.2905100E-02
1151.295, 2.2994010E-02
1153.223, 2.3323560E-02
1155.152, 2.3599610E-02
1157.080, 2.3664281E-02
1159.009, 2.3522090E-02
1160.937, 2.3527570E-02
1162.865, 2.3944020E-02
1164.794, 2.4187289E-02
1166.722, 2.4306171E-02
1168.651, 2.4712950E-02
1170.579, 2.5243880E-02
1172.508, 2.5265470E-02
1174.436, 2.5407430E-02
1176.365, 2.5835499E-02
1178.293, 2.5936499E-02
1180.222, 2.6094981E-02
1182.150, 2.6228789E-02
1184.079, 2.6247840E-02
1186.007, 2.6615949E-02
1187.936, 2.7082469E-02
1189.864, 2.7217180E-02
1191.792, 2.7264500E-02
1193.721, 2.7433541E-02
1195.649, 2.7809789E-02
1197.578, 2.8213870E-02
1199.506, 2.8546389E-02
1201.435, 2.8785370E-02
1203.363, 2.9042879E-02
1205.292, 2.9178720E-02
1207.220, 2.9388430E-02
1209.149, 2.9399401E-02
1211.077, 2.9466240E-02
1213.006, 2.9823851E-02
1214.934, 3.0267470E-02
1216.863, 3.0392511E-02
1218.791, 3.0663529E-02
1220.719, 3.1087330E-02
1222.648, 3.1279769E-02
1224.576, 3.1421769E-02
1226.505, 3.1791169E-02
1228.433, 3.2021780E-02
1230.362, 3.2199379E-02
1232.290, 3.2603059E-02
1234.219, 3.2764141E-02
1236.147, 3.3029862E-02
1238.076, 3.3531401E-02
1240.004, 3.3817019E-02
1241.933, 3.3907041E-02
1243.861, 3.4083989E-02
1245.790, 3.4442980E-02
1247.718, 3.4616150E-02
1249.646, 3.4811530E-02
1251.575, 3.5117868E-02
1253.503, 3.5445150E-02
1255.432, 3.5786148E-02
1257.360, 3.5984930E-02
1259.289, 3.6265239E-02
1261.217, 3.6705650E-02
1263.146, 3.6930650E-02
1265.074, 3.6964569E-02
1267.003, 3.7242789E-02
1268.931, 3.7685610E-02
1270.860, 3.8289730E-02
1272.788, 3.8564522E-02
1274.717, 3.8720101E-02
1276.645, 3.9051861E-02
1278.573, 3.9346311E-02
1280.502, 3.9679669E-02
1282.430, 4.0015899E-02
1284.359, 4.0410481E-02
1286.287, 4.0654339E-02
1288.216, 4.0727861E-02
1290.144, 4.0833939E-02
1292.073, 4.1274998E-02
1294.001, 4.1698199E-02
1295.930, 4.1733429E-02
1297.858, 4.2040449E-02
1299.787, 4.2298298E-02
1301.715, 4.2579640E-02
1303.644, 4.2952850E-02
1305.572, 4.3549821E-02
1307.500, 4.3764390E-02
1309.429, 4.3792669E-02
1311.357, 4.4210222E-02
1313.286, 4.4573180E-02
1315.214, 4.4873010E-02
1317.143, 4.5179490E-02
1319.071, 4.5404010E-02
1321.000, 4.5502659E-02
1322.928, 4.5895170E-02
1324.857, 4.6108920E-02
1326.785, 4.6123311E-02
1328.714, 4.6618961E-02
1330.642, 4.7047619E-02
1332.571, 4.7176149E-02
1334.499, 4.7215689E-02
1336.427, 4.7271810E-02
1338.356, 4.7537260E-02
1340.284, 4.7647201E-02
1342.213, 4.7791250E-02
1344.141, 4.8086058E-02
1346.070, 4.8289020E-02
1347.998, 4.8043121E-02
1349.927, 4.7768772E-02
1351.855, 4.7705092E-02
1353.784, 4.7617819E-02
1355.712, 4.7480851E-02
1357.641, 4.7323890E-02
1359.569, 4.7229711E-02
1361.498, 4.7314011E-02
1363.426, 4.7541998E-02
1365.354, 4.8080530E-02
1367.283, 4.8394829E-02
1369.211, 4.8650701E-02
1371.140, 4.8889451E-02
1373.068, 4.9096610E-02
1374.997, 4.9604211E-02
1376.925, 5.0077312E-02
1378.854, 5.0350670E-02
1380.782, 5.0649449E-02
1382.711, 5.0956629E-02
1384.639, 5.1502690E-02
1386.568, 5.2084450E-02
1388.496, 5.2406251E-02
1390.424, 5.2596081E-02
1392.353, 5.3097419E-02
1394.281, 5.3543009E-02
1396.210, 5.3923462E-02
1398.138, 5.4187290E-02
1400.067, 5.4226931E-02
1401.995, 5.4424539E-02
1403.924, 5.4888211E-02
1405.852, 5.5372771E-02
1407.781, 5.5483300E-02
1409.709, 5.5746268E-02
1411.638, 5.6010328E-02
1413.566, 5.6198630E-02
1415.495, 5.6530330E-02
1417.423, 5.6959171E-02
1419.351, 5.7092480E-02
1421.280, 5.7158481E-02
1423.208, 5.7560999E-02
1425.137, 5.7922930E-02
1427.065, 5.7843380E-02
1428.994, 5.7698380E-02
1430.922, 5.8028601E-02
1432.851, 5.8640718E-02
1434.779, 5.9136651E-02
1436.708, 5.8958448E-02
1438.636, 5.8701370E-02
1440.565, 5.9019521E-02
1442.493, 5.9429139E-02
1444.422, 5.9448201E-02
1446.350, 5.9317801E-02
1448.278, 5.9537832E-02
1450.207, 5.9838090E-02
1452.135, 5.9946869E-02
1454.064, 6.0154080E-02
1455.992, 6.0496800E-02
1457.921, 6.0153671E-02
1459.849, 6.0146071E-02
1461.778, 6.0537718E-02
1463.706, 6.0723070E-02
1465.635, 6.0753170E-02
1467.563, 6.1084859E-02
1469.492, 6.1559170E-02
1471.420, 6.2580243E-02
1473.349, 6.3879617E-02
1475.277, 6.4589567E-02
1477.205, 6.4822301E-02
1479.134, 6.4891689E-02
1481.062, 6.5516703E-02
1482.991, 6.6135190E-02
1484.919, 6.6420831E-02
1486.848, 6.6724539E-02
1488.776, 6.6861622E-02
1490.705, 6.7125008E-02
1492.633, 6.7706868E-02
1494.562, 6.7970447E-02
1496.490, 6.8136290E-02
1498.419, 6.8509817E-02
1500.347, 6.8773203E-02
1502.276, 6.8958923E-02
1504.204, 6.9543473E-02
1506.132, 7.0161536E-02
1508.061, 7.0364408E-02
1509.989, 7.0354573E-02
1511.918, 7.0577674E-02
1513.846, 7.0737392E-02
1515.775, 7.1080081E-02
1517.703, 7.1246527E-02
1519.632, 7.1583383E-02
1521.560, 7.1727440E-02
1523.489, 7.1643881E-02
1525.417, 7.1872696E-02
1527.346, 7.2237469E-02
1529.274, 7.2743751E-02
1531.203, 7.2771519E-02
1533.131, 7.2811089E-02
1535.059, 7.3073663E-02
1536.988, 7.3259689E-02
1538.916, 7.3662549E-02
1540.845, 7.3687829E-02
1542.773, 7.3758133E-02
1544.702, 7.3942788E-02
1546.630, 7.4121453E-02
1548.559, 7.4239656E-02
1550.487, 7.4459083E-02
1552.416, 7.5233810E-02
1554.344, 7.5739682E-02
1556.273, 7.5677231E-02
1558.201, 7.5912394E-02
1560.130, 7.6256722E-02
1562.058, 7.6228827E-02
1563.986, 7.6419666E-02
1565.915, 7.6700076E-02
1567.843, 7.7111773E-02
1569.772, 7.7560157E-02
1571.700, 7.7708900E-02
1573.629, 7.7795647E-02
1575.557, 7.8073829E-02
1577.486, 7.8264780E-02
1579.414, 7.8273401E-02
1581.343, 7.8386120E-02
1583.271, 7.8616798E-02
1585.200, 7.8698829E-02
1587.128, 7.8658871E-02
1589.057, 7.8666463E-02
1590.985, 7.8714430E-02
1592.913, 7.9379417E-02
1594.842, 8.0295101E-02
1596.770, 8.0359533E-02
1598.699, 8.0078222E-02
1600.627, 8.0452234E-02
1602.556, 8.0948323E-02
1604.484, 8.0885880E-02
1606.413, 8.0825433E-02
1608.341, 8.1268162E-02
1610.270, 8.1808977E-02
1612.198, 8.2107909E-02
1614.127, 8.1962854E-02
1616.055, 8.1968568E-02
1617.984, 8.2573712E-02
1619.912, 8.2856998E-02
1621.840, 8.3231181E-02
1623.769, 8.3550647E-02
1625.697, 8.3562247E-02
1627.626, 8.3823912E-02
1629.554, 8.4483027E-02
1631.483, 8.4898181E-02
1633.411, 8.5005127E-02
1635.340, 8.5259072E-02
1637.268, 8.5741773E-02
1639.197, 8.5803919E-02
1641.125, 8.5734531E-02
1643.054, 8.5830182E-02
1644.982, 8.6478777E-02
1646.911, 8.6960956E-02
1648.839, 8.6987153E-02
1650.767, 8.7188713E-02
1652.696, 8.7320477E-02
1654.624, 8.7010384E-02
1656.553, 8.6569831E-02
1658.481, 8.6705640E-02
1660.410, 8.7067813E-02
1662.338, 8.7245941E-02
1664.267, 8.7579429E-02
1666.195, 8.7490611E-02
1668.124, 8.7046362E-02
1670.052, 8.6794697E-02
1671.981, 8.7082841E-02
1673.909, 8.7686568E-02
1675.838, 8.7957323E-02
1677.766, 8.8145003E-02
1679.694, 8.8321872E-02
1681.623, 8.8401958E-02
1683.551, 8.8777453E-02
1685.480, 8.9110717E-02
1687.408, 8.9380227E-02
1689.337, 8.9561939E-02
1691.265, 9.0007871E-02
1693.194, 9.0356022E-02
1695.122, 9.0280287E-02
1697.051, 9.0172634E-02
1698.979, 9.0446517E-02
1700.908, 9.0680242E-02
1702.836, 9.0687297E-02
1704.765, 9.0821490E-02
1706.693, 9.0887018E-02
1708.621, 9.0938658E-02
1710.550, 9.1062687E-02
1712.478, 9.1078252E-02
1714.407, 9.1337241E-02
1716.335, 9.1710687E-02
1718.264, 9.1761731E-02
1720.192, 9.1857433E-02
1722.121, 9.1833241E-02
1724.049, 9.1597259E-02
1725.978, 9.1264173E-02
1727.906, 9.1252208E-02
1729.835, 9.1210701E-02
1731.763, 9.0336859E-02
1733.692, 8.9214839E-02
1735.620, 8.8917963E-02
1737.548, 8.8935003E-02
1739.477, 8.8514231E-02
1741.405, 8.7951213E-02
1743.334, 8.8338897E-02
1745.262, 8.9273103E-02
1747.191, 8.9817673E-02
1749.119, 9.0248443E-02
1751.048, 9.1467157E-02
1752.976, 9.2491508E-02
1754.905, 9.3582779E-02
1756.833, 9.4991073E-02
1758.762, 9.6279673E-02
1760.690, 9.6940592E-02
1762.619, 9.6938238E-02
1764.547, 9.7296841E-02
1766.475, 9.8118551E-02
1768.404, 9.8022662E-02
1770.332, 9.8471656E-02
1772.261, 9.8583117E-02
1774.189, 9.8770507E-02
1776.118, 9.9438228E-02
1778.046, 9.9643908E-02
1779.975, 9.9402867E-02
1781.903, 9.9601887E-02
1783.832, 9.9752113E-02
1785.760, 9.9989571E-02
1787.689, 0.1002798
1789.617, 0.1003604
1791.546, 0.1010664
1793.474, 0.1010860
1795.402, 0.1007580
1797.331, 0.1009191
1799.259, 0.1015768
1801.188, 0.1021027
1803.116, 0.1019420
1805.045, 0.1017100
1806.973, 0.1021743
1808.902, 0.1025143
1810.830, 0.1023220
1812.759, 0.1027863
1814.687, 0.1029871
1816.616, 0.1033197
1818.544, 0.1036903
1820.473, 0.1045142
1822.401, 0.1048401
1824.329, 0.1046156
1826.258, 0.1046998
1828.186, 0.1046691
1830.115, 0.1052701
1832.043, 0.1062560
1833.972, 0.1070096
1835.900, 0.1066834
1837.829, 0.1068872
1839.757, 0.1075568
1841.686, 0.1077973
1843.614, 0.1081009
1845.543, 0.1082307
1847.471, 0.1079189
1849.400, 0.1080553
1851.328, 0.1086660
1853.256, 0.1091103
1855.185, 0.1093286
1857.113, 0.1081057
1859.042, 0.1072775
1860.970, 0.1084043
1862.899, 0.1089069
1864.827, 0.1087068
1866.756, 0.1093738
1868.684, 0.1095670
1870.613, 0.1093398
1872.541, 0.1097952
1874.470, 0.1108479
1876.398, 0.1110135
1878.327, 0.1102125
1880.255, 0.1106602
1882.183, 0.1120108
1884.112, 0.1121338
1886.040, 0.1111870
1887.969, 0.1110528
1889.897, 0.1132605
1891.826, 0.1132724
1893.754, 0.1122118
1895.683, 0.1125223
1897.611, 0.1132063
1899.540, 0.1135984
1901.468, 0.1129131
1903.397, 0.1134202
1905.325, 0.1133368
1907.254, 0.1133024
1909.182, 0.1142093
1911.110, 0.1135570
1913.039, 0.1133042
1914.967, 0.1138823
1916.896, 0.1153841
1918.824, 0.1155982
1920.753, 0.1141008
1922.681, 0.1144092
1924.610, 0.1143874
1926.538, 0.1150654
1928.467, 0.1155330
1930.395, 0.1150048
1932.324, 0.1144943
1934.252, 0.1152579
1936.181, 0.1169192
1938.109, 0.1160905
1940.037, 0.1150661
1941.966, 0.1161541
1943.894, 0.1180178
1945.823, 0.1186887
1947.751, 0.1194371
1949.680, 0.1196320
1951.608, 0.1183339
1953.537, 0.1160906
1955.465, 0.1161275
1957.394, 0.1183983
1959.322, 0.1201990
1961.251, 0.1207447
1963.179, 0.1206116
1965.108, 0.1198846
1967.036, 0.1206925
1968.964, 0.1218825
1970.893, 0.1242297
1972.821, 0.1240019
1974.750, 0.1197292
1976.678, 0.1223610
1978.607, 0.1242691
1980.535, 0.1209392
1982.464, 0.1197151
1984.392, 0.1199197
1986.321, 0.1193522
1988.249, 0.1219719
1990.178, 0.1238444
1992.106, 0.1241990
1994.035, 0.1231715
1995.963, 0.1225601
1997.891, 0.1205091
1999.820, 0.1184012
2001.748, 0.1205132
2003.677, 0.1221152
2005.605, 0.1230778
2007.534, 0.1232906
2009.462, 0.1225137
2011.391, 0.1220561
2013.319, 0.1243605
2015.248, 0.1235369
2017.176, 0.1209916
2019.105, 0.1214066
2021.033, 0.1234127
2022.962, 0.1232412
2024.890, 0.1230782
2026.818, 0.1243588
2028.747, 0.1264132
2030.675, 0.1271222
2032.604, 0.1282629
2034.532, 0.1281783
2036.461, 0.1284281
2038.389, 0.1299953
2040.318, 0.1297539
2042.246, 0.1293328
2044.175, 0.1305656
2046.103, 0.1291386
2048.032, 0.1284778
2049.960, 0.1304599
2051.889, 0.1288768
2053.817, 0.1292064
2055.746, 0.1305687
2057.674, 0.1302275
2059.603, 0.1291746
2061.531, 0.1279122
2063.459, 0.1270940
2065.388, 0.1283168
2067.316, 0.1293665
2069.245, 0.1287032
2071.173, 0.1298748
2073.102, 0.1309383
2075.030, 0.1298468
2076.959, 0.1296008
2078.887, 0.1306126
2080.816, 0.1305846
2082.744, 0.1305348
2084.673, 0.1301659
2086.601, 0.1312048
2088.530, 0.1311273
2090.458, 0.1309440
2092.386, 0.1307221
2094.315, 0.1323238
2096.243, 0.1329232
2098.172, 0.1327667
2100.100, 0.1332514
2102.029, 0.1333832
2103.957, 0.1339899
2105.886, 0.1339726
2107.814, 0.1341244
2109.743, 0.1347191
2111.671, 0.1344462
2113.600, 0.1325626
2115.528, 0.1323175
2117.457, 0.1336114
2119.385, 0.1347576
2121.313, 0.1337422
2123.242, 0.1328889
2125.170, 0.1330460
2127.099, 0.1328391
2129.027, 0.1330687
2130.956, 0.1332352
2132.884, 0.1336636
2134.813, 0.1342485
2136.741, 0.1331092
2138.670, 0.1324042
2140.598, 0.1327336
2142.527, 0.1333360
2144.455, 0.1332240
2146.384, 0.1331045
2148.312, 0.1338435
2150.240, 0.1340177
2152.169, 0.1323164
2154.097, 0.1279555
2156.026, 0.1281724
2157.954, 0.1318399
2159.883, 0.1406360
2161.811, 0.1451942
2163.740, 0.1437544
2165.668, 0.1416871
2167.597, 0.1425789
2169.525, 0.1407899
2171.454, 0.1395243
2173.382, 0.1382982
2175.311, 0.1358553
2177.239, 0.1352394
2179.167, 0.1355349
2181.096, 0.1372010
2183.024, 0.1396363
2184.953, 0.1393918
2186.881, 0.1394907
2188.810, 0.1402356
2190.738, 0.1423291
2192.667, 0.1445864
2194.595, 0.1429309
2196.524, 0.1396696
2198.452, 0.1396133
2200.381, 0.1400404
2202.309, 0.1425099
2204.238, 0.1442696
2206.166, 0.1430421
2208.094, 0.1426314
2210.023, 0.1425288
2211.951, 0.1421849
2213.880, 0.1418181
2215.808, 0.1428888
2217.737, 0.1420378
2219.665, 0.1401814
2221.594, 0.1412487
2223.522, 0.1440972
2225.451, 0.1455040
2227.379, 0.1463419
2229.308, 0.1464866
2231.236, 0.1464009
2233.165, 0.1462434
2235.093, 0.1456553
2237.021, 0.1447706
2238.950, 0.1432383
2240.878, 0.1429992
2242.807, 0.1448124
2244.735, 0.1450721
2246.664, 0.1460941
2248.592, 0.1480757
2250.521, 0.1480292
2252.449, 0.1479752
2254.378, 0.1479472
2256.306, 0.1472199
2258.235, 0.1473296
2260.163, 0.1466667
2262.092, 0.1458685
2264.020, 0.1469921
2265.948, 0.1483072
2267.877, 0.1484387
2269.805, 0.1482749
2271.734, 0.1479759
2273.662, 0.1489626
2275.591, 0.1504007
2277.519, 0.1509240
2279.448, 0.1506168
2281.376, 0.1502911
2283.305, 0.1515706
2285.233, 0.1515717
2287.162, 0.1500649
2289.090, 0.1504362
2291.019, 0.1501950
2292.947, 0.1501935
2294.875, 0.1515923
2296.804, 0.1526546
2298.732, 0.1517289
2300.661, 0.1502165
2302.589, 0.1503307
2304.518, 0.1516173
2306.446, 0.1519776
2308.375, 0.1520987
2310.303, 0.1520154
2312.232, 0.1521181
2314.160, 0.1517478
2316.089, 0.1526633
2318.017, 0.1533322
2319.946, 0.1528828
2321.874, 0.1534322
2323.802, 0.1539060
2325.731, 0.1531000
2327.659, 0.1522381
2329.588, 0.1525481
2331.516, 0.1529874
2333.445, 0.1532280
2335.373, 0.1529427
2337.302, 0.1530646
2339.230, 0.1524984
2341.159, 0.1519471
2343.087, 0.1528134
2345.016, 0.1535355
2346.944, 0.1525279
2348.873, 0.1525080
2350.801, 0.1536420
2352.729, 0.1538790
2354.658, 0.1532545
2356.586, 0.1538696
2358.515, 0.1545134
2360.443, 0.1547805
2362.372, 0.1552123
2364.300, 0.1554769
2366.229, 0.1555478
2368.157, 0.1554714
2370.086, 0.1558445
2372.014, 0.1556759
2373.942, 0.1557548
2375.871, 0.1561360
2377.799, 0.1555507
2379.728, 0.1553458
2381.656, 0.1569039
2383.585, 0.1573954
2385.513, 0.1573987
2387.442, 0.1570971
2389.370, 0.1566764
2391.299, 0.1562396
2393.227, 0.1563299
2395.156, 0.1566020
2397.084, 0.1567735
2399.012, 0.1576765
2400.941, 0.1589992
2402.869, 0.1586081
2404.798, 0.1581125
2406.726, 0.1585843
2408.655, 0.1585376
2410.583, 0.1588045
2412.512, 0.1595024
2414.440, 0.1594265
2416.369, 0.1595026
2418.297, 0.1603715
2420.226, 0.1611948
2422.154, 0.1608766
2424.083, 0.1607811
2426.011, 0.1612040
2427.939, 0.1604901
2429.868, 0.1595933
2431.796, 0.1602936
2433.725, 0.1613269
2435.653, 0.1617449
2437.582, 0.1620382
2439.510, 0.1617375
2441.439, 0.1624267
2443.367, 0.1624780
2445.296, 0.1625087
2447.224, 0.1619380
2449.153, 0.1626283
2451.081, 0.1631870
2453.010, 0.1640621
2454.938, 0.1638163
2456.866, 0.1625262
2458.795, 0.1628978
2460.723, 0.1633891
2462.652, 0.1632744
2464.580, 0.1634608
2466.509, 0.1628039
2468.437, 0.1630195
2470.366, 0.1644918
2472.294, 0.1647146
2474.223, 0.1640216
2476.151, 0.1639439
2478.080, 0.1644155
2480.008, 0.1654518
2481.937, 0.1660304
2483.865, 0.1645899
2485.793, 0.1636578
2487.722, 0.1645402
2489.650, 0.1650725
2491.579, 0.1641751
2493.507, 0.1640604
2495.436, 0.1657218
2497.364, 0.1665838
2499.293, 0.1668561
2501.221, 0.1674946
2503.150, 0.1664326
2505.078, 0.1660308
2507.007, 0.1675006
2508.935, 0.1680488
2510.864, 0.1678541
2512.792, 0.1681646
2514.720, 0.1680620
2516.649, 0.1671411
2518.577, 0.1668147
2520.506, 0.1682552
2522.434, 0.1697635
2524.363, 0.1684555
2526.291, 0.1680284
2528.220, 0.1686000
2530.148, 0.1685717
2532.077, 0.1676275
2534.005, 0.1679536
2535.934, 0.1689816
2537.862, 0.1691087
2539.791, 0.1693054
2541.719, 0.1698725
2543.647, 0.1698607
2545.576, 0.1694931
2547.504, 0.1701314
2549.433, 0.1703666
2551.361, 0.1713328
2553.290, 0.1713637
2555.218, 0.1712499
2557.147, 0.1719300
2559.075, 0.1734773
2561.004, 0.1737645
2562.932, 0.1721618
2564.861, 0.1709291
2566.789, 0.1713283
2568.718, 0.1732610
2570.646, 0.1728196
2572.574, 0.1726492
2574.503, 0.1733614
2576.431, 0.1732156
2578.360, 0.1731202
2580.288, 0.1735787
2582.217, 0.1734876
2584.145, 0.1737256
2586.074, 0.1750789
2588.002, 0.1752481
2589.931, 0.1742461
2591.859, 0.1745942
2593.788, 0.1751705
2595.716, 0.1751941
2597.645, 0.1755346
2599.573, 0.1763989
2601.501, 0.1767856
2603.430, 0.1759113
2605.358, 0.1746800
2607.287, 0.1746678
2609.215, 0.1760294
2611.144, 0.1761696
2613.072, 0.1768477
2615.001, 0.1761278
2616.929, 0.1748808
2618.858, 0.1755673
2620.786, 0.1771031
2622.715, 0.1772640
2624.643, 0.1767543
2626.572, 0.1772605
2628.500, 0.1783848
2630.428, 0.1787047
2632.357, 0.1781583
2634.285, 0.1775466
2636.214, 0.1773569
2638.142, 0.1772451
2640.071, 0.1777688
2641.999, 0.1783279
2643.928, 0.1791838
2645.856, 0.1798393
2647.785, 0.1794566
2649.713, 0.1794055
2651.642, 0.1789737
2653.570, 0.1784070
2655.499, 0.1783870
2657.427, 0.1788820
2659.355, 0.1789878
2661.284, 0.1791481
2663.212, 0.1789602
2665.141, 0.1786085
2667.069, 0.1784973
2668.998, 0.1782735
2670.926, 0.1778757
2672.855, 0.1779093
2674.783, 0.1782020
2676.712, 0.1789569
2678.640, 0.1798759
2680.569, 0.1804226
2682.497, 0.1811309
2684.426, 0.1808793
2686.354, 0.1801123
2688.282, 0.1807272
2690.211, 0.1810600
2692.139, 0.1813153
2694.068, 0.1814642
2695.996, 0.1814234
2697.925, 0.1817579
2699.853, 0.1826700
2701.782, 0.1821989
2703.710, 0.1812795
2705.639, 0.1821097
2707.567, 0.1830672
2709.496, 0.1838446
2711.424, 0.1826560
2713.353, 0.1831335
2715.281, 0.1849113
2717.209, 0.1843474
2719.138, 0.1833226
2721.066, 0.1839670
2722.995, 0.1852030
2724.923, 0.1853132
2726.852, 0.1851322
2728.780, 0.1856213
2730.709, 0.1854958
2732.637, 0.1845094
2734.566, 0.1843688
2736.494, 0.1859865
2738.423, 0.1863713
2740.351, 0.1854034
2742.280, 0.1841264
2744.208, 0.1847209
2746.136, 0.1859491
2748.065, 0.1855081
2749.993, 0.1855166
2751.922, 0.1860679
2753.850, 0.1868474
2755.779, 0.1872997
2757.707, 0.1880816
2759.636, 0.1875592
2761.564, 0.1877076
2763.493, 0.1880080
2765.421, 0.1880671
2767.350, 0.1885764
2769.278, 0.1876221
2771.207, 0.1871992
2773.135, 0.1868027
2775.063, 0.1869948
2776.992, 0.1880875
2778.920, 0.1895752
2780.849, 0.1902481
2782.777, 0.1897230
2784.706, 0.1897058
2786.634, 0.1896474
2788.563, 0.1881346
2790.491, 0.1877125
2792.420, 0.1896259
2794.348, 0.1903658
2796.277, 0.1891398
2798.205, 0.1897735
2800.134, 0.1909546
2802.062, 0.1911287
2803.990, 0.1905195
2805.919, 0.1916827
2807.847, 0.1919820
2809.776, 0.1920024
2811.704, 0.1923872
2813.633, 0.1921615
2815.561, 0.1915907
2817.490, 0.1910796
2819.418, 0.1908934
2821.347, 0.1920217
2823.275, 0.1930221
2825.204, 0.1930500
2827.132, 0.1927931
2829.061, 0.1919167
2830.989, 0.1920289
2832.917, 0.1925409
2834.846, 0.1923272
2836.774, 0.1930575
2838.703, 0.1930798
2840.631, 0.1912413
2842.560, 0.1919940
2844.488, 0.1922931
2846.417, 0.1913067
2848.345, 0.1917207
2850.274, 0.1922156
2852.202, 0.1933273
2854.131, 0.1932146
2856.059, 0.1935561
2857.988, 0.1956983
2859.916, 0.1972769
2861.844, 0.1970277
2863.773, 0.1974468
2865.701, 0.1970683
2867.630, 0.1964908
2869.558, 0.1953309
2871.487, 0.1958416
2873.415, 0.1969955
2875.344, 0.1971304
2877.272, 0.1983867
2879.201, 0.1979996
2881.129, 0.1982712
2883.058, 0.1970718
2884.986, 0.1965633
2886.915, 0.1970711
2888.843, 0.1989550
2890.771, 0.1998362
2892.700, 0.1992853
2894.628, 0.1988391
2896.557, 0.1995538
2898.485, 0.2005652
2900.414, 0.2000728
2902.342, 0.1988795
2904.271, 0.1976595
2906.199, 0.1978988
2908.128, 0.1994997
2910.056, 0.2006457
2911.985, 0.2000718
2913.913, 0.1989356
2915.842, 0.1984967
2917.770, 0.1992114
2919.698, 0.2022071
2921.627, 0.2014933
2923.555, 0.1991644
2925.484, 0.2008770
2927.412, 0.2029068
2929.341, 0.2035118
2931.269, 0.2034622
2933.198, 0.2040122
2935.126, 0.2043252
2937.055, 0.2039506
2938.983, 0.2031745
2940.912, 0.2041738
2942.840, 0.2041516
2944.769, 0.2031292
2946.697, 0.2017543
2948.625, 0.2022230
2950.554, 0.2026825
2952.482, 0.2023105
2954.411, 0.2018238
2956.339, 0.2023611
2958.268, 0.2045433
2960.196, 0.2057043
2962.125, 0.2063986
2964.053, 0.2068216
2965.982, 0.2056347
2967.910, 0.2053023
2969.839, 0.2068734
2971.767, 0.2065914
2973.696, 0.2054120
2975.624, 0.2062619
2977.552, 0.2069053
2979.481, 0.2065224
2981.409, 0.2055295
2983.338, 0.2076351
2985.266, 0.2106591
2987.195, 0.2105597
2989.123, 0.2093454
2991.052, 0.2075491
2992.980, 0.2082528
2994.909, 0.2063422
2996.837, 0.2061839
2998.766, 0.2093153
3000.694, 0.2090777
3002.623, 0.2081245
3004.551, 0.2091916
3006.479, 0.2094906
3008.408, 0.2087816
3010.336, 0.2097184
3012.265, 0.2103670
3014.193, 0.2100055
3016.122, 0.2100015
3018.050, 0.2098068
3019.979, 0.2096696
3021.907, 0.2113114
3023.836, 0.2107351
3025.764, 0.2094551
3027.693, 0.2092403
3029.621, 0.2099302
3031.550, 0.2079878
3033.478, 0.2074441
3035.406, 0.2098188
3037.335, 0.2104091
3039.263, 0.2112208
3041.192, 0.2119278
3043.120, 0.2117186
3045.049, 0.2093265
3046.977, 0.2076301
3048.906, 0.2073424
3050.834, 0.2093584
3052.763, 0.2102523
3054.691, 0.2103367
3056.620, 0.2121171
3058.548, 0.2121109
3060.477, 0.2105988
3062.405, 0.2119899
3064.333, 0.2111334
3066.262, 0.2104358
3068.190, 0.2125632
3070.119, 0.2114066
3072.047, 0.2112060
3073.976, 0.2120900
3075.904, 0.2120490
3077.833, 0.2123261
3079.761, 0.2112748
3081.690, 0.2113556
3083.618, 0.2123738
3085.547, 0.2126945
3087.475, 0.2145750
3089.404, 0.2154123
3091.332, 0.2141875
3093.260, 0.2149633
3095.189, 0.2158374
3097.117, 0.2162852
3099.046, 0.2161694
3100.974, 0.2152720
3102.903, 0.2165034
3104.831, 0.2170375
3106.760, 0.2155874
3108.688, 0.2152767
3110.617, 0.2153215
3112.545, 0.2156772
3114.474, 0.2169344
3116.402, 0.2167509
3118.331, 0.2158238
3120.259, 0.2146349
3122.188, 0.2130230
3124.116, 0.2129618
3126.044, 0.2171982
3127.973, 0.2175230
3129.901, 0.2154684
3131.830, 0.2174837
3133.758, 0.2174114
3135.687, 0.2175143
3137.615, 0.2184597
3139.544, 0.2197264
3141.472, 0.2187603
3143.401, 0.2207283
3145.329, 0.2205707
3147.258, 0.2200292
3149.186, 0.2214367
3151.115, 0.2213657
3153.043, 0.2191284
3154.971, 0.2172029
3156.900, 0.2185866
3158.828, 0.2188447
3160.757, 0.2180447
3162.685, 0.2194676
3164.614, 0.2196711
3166.542, 0.2182408
3168.471, 0.2186033
3170.399, 0.2201564
3172.328, 0.2206139
3174.256, 0.2189259
3176.185, 0.2181050
3178.113, 0.2178371
3180.042, 0.2197604
3181.970, 0.2208455
3183.898, 0.2207039
3185.827, 0.2213045
3187.755, 0.2212913
3189.684, 0.2208899
3191.612, 0.2221145
3193.541, 0.2226526
3195.469, 0.2222147
3197.398, 0.2228808
3199.326, 0.2239225
3201.255, 0.2219519
3203.183, 0.2196249
3205.112, 0.2215322
3207.040, 0.2252327
3208.969, 0.2266695
3210.897, 0.2243779
3212.825, 0.2237329
3214.754, 0.2239325
3216.682, 0.2249119
3218.611, 0.2256822
3220.539, 0.2246459
3222.468, 0.2246225
3224.396, 0.2258220
3226.325, 0.2270264
3228.253, 0.2257066
3230.182, 0.2254893
3232.110, 0.2252509
3234.039, 0.2250247
3235.967, 0.2260254
3237.896, 0.2267146
3239.824, 0.2261516
3241.752, 0.2262937
3243.681, 0.2283611
3245.609, 0.2295429
3247.538, 0.2303002
3249.466, 0.2305152
3251.395, 0.2278361
3253.323, 0.2265361
3255.252, 0.2277164
3257.180, 0.2296635
3259.109, 0.2298068
3261.037, 0.2278115
3262.966, 0.2270876
3264.894, 0.2271579
3266.823, 0.2286200
3268.751, 0.2287802
3270.679, 0.2277817
3272.608, 0.2273658
3274.536, 0.2284145
3276.465, 0.2310385
3278.393, 0.2306249
3280.322, 0.2283732
3282.250, 0.2282176
3284.179, 0.2299109
3286.107, 0.2305542
3288.036, 0.2294137
3289.964, 0.2278262
3291.893, 0.2294548
3293.821, 0.2309306
3295.750, 0.2314466
3297.678, 0.2301069
3299.606, 0.2294287
3301.535, 0.2299299
3303.463, 0.2319667
3305.392, 0.2332936
3307.320, 0.2336405
3309.249, 0.2325249
3311.177, 0.2327290
3313.106, 0.2345662
3315.034, 0.2346010
3316.963, 0.2343477
3318.891, 0.2349603
3320.820, 0.2344998
3322.748, 0.2344896
3324.677, 0.2339638
3326.605, 0.2325312
3328.533, 0.2327409
3330.462, 0.2349540
3332.390, 0.2359871
3334.319, 0.2346341
3336.247, 0.2338403
3338.176, 0.2340464
3340.104, 0.2333881
3342.033, 0.2331178
3343.961, 0.2340452
3345.890, 0.2358198
3347.818, 0.2349588
3349.747, 0.2343788
3351.675, 0.2337178
3353.604, 0.2346606
3355.532, 0.2354739
3357.460, 0.2349993
3359.389, 0.2365679
3361.317, 0.2374139
3363.246, 0.2373933
3365.174, 0.2354521
3367.103, 0.2341614
3369.031, 0.2383647
3370.960, 0.2396451
3372.888, 0.2378888
3374.817, 0.2373521
3376.745, 0.2386523
3378.674, 0.2371753
3380.602, 0.2363318
3382.531, 0.2365992
3384.459, 0.2356185
3386.387, 0.2359733
3388.316, 0.2372302
3390.244, 0.2356645
3392.173, 0.2353353
3394.101, 0.2380267
3396.030, 0.2379132
3397.958, 0.2352180
3399.887, 0.2339136
3401.815, 0.2362222
3403.744, 0.2377562
3405.672, 0.2384230
3407.601, 0.2378630
3409.529, 0.2356218
3411.458, 0.2363844
3413.386, 0.2387854
3415.314, 0.2385191
3417.243, 0.2388334
3419.171, 0.2409246
3421.100, 0.2410540
3423.028, 0.2398715
3424.957, 0.2400456
3426.885, 0.2410985
3428.814, 0.2404274
3430.742, 0.2401997
3432.671, 0.2394924
3434.599, 0.2387659
3436.528, 0.2392945
3438.456, 0.2405039
3440.385, 0.2399361
3442.313, 0.2417291
3444.241, 0.2433139
3446.170, 0.2431985
3448.098, 0.2412556
3450.027, 0.2412346
3451.955, 0.2395457
3453.884, 0.2395550
3455.812, 0.2415362
3457.741, 0.2418371
3459.669, 0.2404813
3461.598, 0.2406844
3463.526, 0.2415264
3465.455, 0.2397475
3467.383, 0.2371458
3469.312, 0.2361027
3471.240, 0.2379152
3473.168, 0.2405307
3475.097, 0.2432360
3477.025, 0.2428988
3478.954, 0.2421344
3480.882, 0.2424996
3482.811, 0.2426059
3484.739, 0.2409724
3486.668, 0.2390552
3488.596, 0.2404248
3490.525, 0.2413365
3492.453, 0.2432398
3494.382, 0.2440689
3496.310, 0.2406844
3498.239, 0.2391195
3500.167, 0.2402907
3502.095, 0.2414015
3504.024, 0.2415638
3505.952, 0.2432002
3507.881, 0.2451664
3509.809, 0.2420543
3511.738, 0.2407550
3513.666, 0.2406620
3515.595, 0.2401019
3517.523, 0.2415540
3519.452, 0.2423426
3521.380, 0.2404179
3523.309, 0.2406299
3525.237, 0.2413465
3527.166, 0.2448586
3529.094, 0.2456706
3531.022, 0.2442851
3532.951, 0.2454513
3534.879, 0.2463040
3536.808, 0.2427464
3538.736, 0.2416972
3540.665, 0.2442136
3542.593, 0.2427377
3544.522, 0.2408114
3546.450, 0.2399809
3548.379, 0.2409306
3550.307, 0.2438818
3552.236, 0.2474976
3554.164, 0.2462673
3556.093, 0.2442646
3558.021, 0.2447905
3559.949, 0.2472588
3561.878, 0.2458481
3563.806, 0.2448864
3565.735, 0.2457990
3567.663, 0.2454721
3569.592, 0.2447779
3571.520, 0.2445520
3573.449, 0.2447868
3575.377, 0.2446782
3577.306, 0.2470030
3579.234, 0.2486189
3581.163, 0.2482723
3583.091, 0.2489341
3585.020, 0.2492031
3586.948, 0.2455663
3588.876, 0.2435837
3590.805, 0.2492425
3592.733, 0.2520367
3594.662, 0.2495330
3596.590, 0.2493893
3598.519, 0.2482469
3600.447, 0.2492379
3602.376, 0.2521007
3604.304, 0.2492215
3606.233, 0.2457353
3608.161, 0.2474929
3610.090, 0.2469670
3612.018, 0.2476219
3613.947, 0.2488270
3615.875, 0.2509625
3617.803, 0.2524309
3619.732, 0.2533603
3621.660, 0.2527243
3623.589, 0.2512763
3625.517, 0.2490415
3627.446, 0.2476947
3629.374, 0.2528520
3631.303, 0.2560911
3633.231, 0.2503830
3635.160, 0.2471339
3637.088, 0.2489166
3639.017, 0.2502221
3640.945, 0.2515472
3642.874, 0.2537070
3644.802, 0.2543013
3646.730, 0.2522086
3648.659, 0.2535608
3650.587, 0.2530412
3652.516, 0.2540488
3654.444, 0.2544575
3656.373, 0.2529809
3658.301, 0.2537530
3660.230, 0.2517132
3662.158, 0.2508878
3664.087, 0.2516650
3666.015, 0.2514366
3667.944, 0.2509074
3669.872, 0.2552356
3671.801, 0.2555951
3673.729, 0.2526521
3675.657, 0.2538967
3677.586, 0.2542513
3679.514, 0.2554754
3681.443, 0.2568688
3683.371, 0.2543330
3685.300, 0.2533962
3687.228, 0.2561231
3689.157, 0.2549376
3691.085, 0.2541601
3693.014, 0.2557499
3694.942, 0.2574162
3696.871, 0.2557658
3698.799, 0.2531975
3700.728, 0.2541775
3702.656, 0.2560820
3704.584, 0.2574252
3706.513, 0.2599283
3708.441, 0.2540679
3710.370, 0.2511311
3712.298, 0.2549237
3714.227, 0.2595415
3716.155, 0.2595792
3718.084, 0.2575838
3720.012, 0.2574632
3721.941, 0.2582807
3723.869, 0.2580134
3725.798, 0.2573490
3727.726, 0.2589668
3729.655, 0.2622485
3731.583, 0.2611168
3733.511, 0.2609981
3735.440, 0.2601359
3737.368, 0.2569203
3739.297, 0.2578770
3741.225, 0.2620890
3743.154, 0.2646632
3745.082, 0.2611570
3747.011, 0.2585401
3748.939, 0.2639094
3750.868, 0.2636294
3752.796, 0.2598505
3754.725, 0.2605274
3756.653, 0.2626440
3758.582, 0.2652158
3760.510, 0.2636510
3762.438, 0.2613434
3764.367, 0.2625975
3766.295, 0.2587759
3768.224, 0.2594602
3770.152, 0.2613610
3772.081, 0.2615353
3774.009, 0.2638154
3775.938, 0.2624141
3777.866, 0.2607646
3779.795, 0.2597553
3781.723, 0.2589908
3783.652, 0.2650410
3785.580, 0.2711741
3787.509, 0.2687632
3789.437, 0.2654046
3791.365, 0.2661167
3793.294, 0.2677251
3795.222, 0.2671241
3797.151, 0.2645302
3799.079, 0.2646543
3801.008, 0.2651971
3802.936, 0.2655323
3804.865, 0.2638611
3806.793, 0.2639807
3808.722, 0.2676295
3810.650, 0.2655682
3812.579, 0.2601681
3814.507, 0.2607371
3816.436, 0.2676602
3818.364, 0.2688185
3820.292, 0.2686428
3822.221, 0.2685858
3824.149, 0.2664915
3826.078, 0.2663796
3828.006, 0.2654264
3829.935, 0.2680611
3831.863, 0.2694319
3833.792, 0.2694470
3835.720, 0.2710654
3837.649, 0.2682632
3839.577, 0.2683949
3841.506, 0.2730105
3843.434, 0.2737854
3845.363, 0.2734787
3847.291, 0.2724966
3849.219, 0.2731308
3851.148, 0.2736199
3853.076, 0.2738666
3855.005, 0.2686099
3856.933, 0.2662704
3858.862, 0.2689441
3860.790, 0.2704735
3862.719, 0.2717398
3864.647, 0.2706667
3866.576, 0.2679862
3868.504, 0.2683752
3870.433, 0.2717558
3872.361, 0.2737744
3874.290, 0.2712411
3876.218, 0.2704405
3878.146, 0.2725003
3880.075, 0.2718988
3882.003, 0.2712956
3883.932, 0.2717394
3885.860, 0.2719540
3887.789, 0.2717160
3889.717, 0.2717914
3891.646, 0.2761737
3893.574, 0.2775740
3895.503, 0.2733070
3897.431, 0.2721563
3899.360, 0.2741128
3901.288, 0.2766028
3903.217, 0.2756227
3905.145, 0.2732488
3907.073, 0.2720776
3909.002, 0.2745857
3910.930, 0.2758400
3912.859, 0.2709700
3914.787, 0.2740811
3916.716, 0.2790108
3918.644, 0.2778130
3920.573, 0.2751166
3922.501, 0.2730547
3924.430, 0.2728896
3926.358, 0.2733073
3928.287, 0.2728254
3930.215, 0.2739526
3932.144, 0.2735017
3934.072, 0.2713924
3936.000, 0.2685166
3937.929, 0.2729550
3939.857, 0.2776774
3941.786, 0.2771362
3943.714, 0.2731879
3945.643, 0.2732718
3947.571, 0.2780432
3949.500, 0.2808609
3951.428, 0.2810200
3953.357, 0.2814192
3955.285, 0.2815395
3957.214, 0.2812238
3959.142, 0.2792470
3961.071, 0.2771063
3962.999, 0.2796582
3964.927, 0.2789743
3966.856, 0.2779961
3968.784, 0.2802648
3970.713, 0.2786970
3972.641, 0.2769385
3974.570, 0.2756842
3976.498, 0.2781266
3978.427, 0.2823569
3980.355, 0.2827286
3982.284, 0.2798442
3984.212, 0.2770444
3986.141, 0.2772049
3988.069, 0.2786770
3989.998, 0.2795177
3991.926, 0.2821826
3993.854, 0.2873783
3995.783, 0.2855401
3997.711, 0.2844568
3999.640, 0.2845940
##END=



