##NAMES=Inderite
##RRUFFID=R050195
##IDEAL CHEMISTRY=MgB_3_O_3_(OH)_5_&#183;5H_2_O
##LOCALITY=Boron, Kern County, California, USA
##OWNER=RRUFF
##SOURCE=Dave Bunk Minerals
##DESCRIPTION=Colorless prismatic crystal
##STATUS=The identification of this mineral has been confirmed by X-ray diffraction and chemical analysis
##URL=rruff.info/R050195
##MEASURED CHEMISTRY=Mg_1.00_B_3.00_O_3_(OH)_5_Â·5H_2_O ; Mg measured, only
3.741225e+002, 1.314613e-001
3.760510e+002, 1.401532e-001
3.779795e+002, 1.428255e-001
3.799079e+002, 1.318851e-001
3.818364e+002, 1.343408e-001
3.837649e+002, 1.485902e-001
3.856933e+002, 1.578393e-001
3.876218e+002, 1.632197e-001
3.895503e+002, 1.656079e-001
3.914787e+002, 1.568534e-001
3.934072e+002, 1.497656e-001
3.953357e+002, 1.565487e-001
3.972641e+002, 1.672593e-001
3.991926e+002, 1.664267e-001
4.011211e+002, 1.625358e-001
4.030495e+002, 1.650493e-001
4.049780e+002, 1.649563e-001
4.069065e+002, 1.616117e-001
4.088349e+002, 1.593970e-001
4.107634e+002, 1.597936e-001
4.126919e+002, 1.630522e-001
4.146203e+002, 1.662095e-001
4.165488e+002, 1.637083e-001
4.184773e+002, 1.606120e-001
4.204057e+002, 1.611081e-001
4.223342e+002, 1.625322e-001
4.242627e+002, 1.652675e-001
4.261911e+002, 1.732000e-001
4.281196e+002, 1.793641e-001
4.300481e+002, 1.836149e-001
4.319765e+002, 1.880506e-001
4.339050e+002, 1.893970e-001
4.358335e+002, 1.876498e-001
4.377619e+002, 1.857230e-001
4.396904e+002, 1.803573e-001
4.416189e+002, 1.747798e-001
4.435473e+002, 1.702581e-001
4.454758e+002, 1.680997e-001
4.474043e+002, 1.676786e-001
4.493327e+002, 1.676917e-001
4.512612e+002, 1.674480e-001
4.531897e+002, 1.687952e-001
4.551181e+002, 1.704754e-001
4.570466e+002, 1.682925e-001
4.589751e+002, 1.612187e-001
4.609035e+002, 1.523892e-001
4.628320e+002, 1.442177e-001
4.647605e+002, 1.383610e-001
4.666889e+002, 1.352767e-001
4.686174e+002, 1.339341e-001
4.705459e+002, 1.331633e-001
4.724743e+002, 1.326574e-001
4.744028e+002, 1.335298e-001
4.763313e+002, 1.366155e-001
4.782597e+002, 1.394681e-001
4.801882e+002, 1.436915e-001
4.821167e+002, 1.507333e-001
4.840451e+002, 1.581860e-001
4.859736e+002, 1.648530e-001
4.879021e+002, 1.692359e-001
4.898305e+002, 1.678629e-001
4.917590e+002, 1.609216e-001
4.936875e+002, 1.518876e-001
4.956159e+002, 1.445269e-001
4.975444e+002, 1.408350e-001
4.994729e+002, 1.393274e-001
5.014013e+002, 1.393100e-001
5.033298e+002, 1.397832e-001
5.052583e+002, 1.402438e-001
5.071867e+002, 1.412219e-001
5.091152e+002, 1.416358e-001
5.110437e+002, 1.421802e-001
5.129721e+002, 1.428038e-001
5.149006e+002, 1.435350e-001
5.168290e+002, 1.437176e-001
5.187575e+002, 1.439811e-001
5.206860e+002, 1.446356e-001
5.226144e+002, 1.448745e-001
5.245429e+002, 1.461842e-001
5.264714e+002, 1.474802e-001
5.283998e+002, 1.482258e-001
5.303283e+002, 1.501131e-001
5.322568e+002, 1.512457e-001
5.341852e+002, 1.522043e-001
5.361137e+002, 1.533128e-001
5.380422e+002, 1.542988e-001
5.399706e+002, 1.560158e-001
5.418991e+002, 1.584771e-001
5.438276e+002, 1.609044e-001
5.457560e+002, 1.629075e-001
5.476845e+002, 1.656604e-001
5.496130e+002, 1.689657e-001
5.515414e+002, 1.725447e-001
5.534699e+002, 1.768366e-001
5.553984e+002, 1.808648e-001
5.573268e+002, 1.844733e-001
5.592553e+002, 1.885715e-001
5.611838e+002, 1.919860e-001
5.631122e+002, 1.939583e-001
5.650407e+002, 1.950286e-001
5.669692e+002, 1.932468e-001
5.688976e+002, 1.896149e-001
5.708261e+002, 1.856290e-001
5.727546e+002, 1.818859e-001
5.746830e+002, 1.791712e-001
5.766115e+002, 1.775327e-001
5.785400e+002, 1.768119e-001
5.804684e+002, 1.753059e-001
5.823969e+002, 1.730779e-001
5.843254e+002, 1.695904e-001
5.862538e+002, 1.633092e-001
5.881823e+002, 1.540491e-001
5.901108e+002, 1.454370e-001
5.920392e+002, 1.394805e-001
5.939677e+002, 1.363176e-001
5.958962e+002, 1.354523e-001
5.978246e+002, 1.359030e-001
5.997531e+002, 1.376044e-001
6.016816e+002, 1.397078e-001
6.036100e+002, 1.423596e-001
6.055385e+002, 1.452515e-001
6.074670e+002, 1.479344e-001
6.093954e+002, 1.503342e-001
6.113239e+002, 1.524335e-001
6.132524e+002, 1.542814e-001
6.151808e+002, 1.563483e-001
6.171093e+002, 1.581716e-001
6.190378e+002, 1.600495e-001
6.209662e+002, 1.618126e-001
6.228947e+002, 1.630066e-001
6.248232e+002, 1.635228e-001
6.267516e+002, 1.645187e-001
6.286801e+002, 1.656030e-001
6.306086e+002, 1.668545e-001
6.325370e+002, 1.681877e-001
6.344655e+002, 1.696459e-001
6.363940e+002, 1.716030e-001
6.383224e+002, 1.737422e-001
6.402509e+002, 1.753759e-001
6.421794e+002, 1.768624e-001
6.441078e+002, 1.778117e-001
6.460363e+002, 1.782971e-001
6.479648e+002, 1.783770e-001
6.498932e+002, 1.784044e-001
6.518217e+002, 1.781600e-001
6.537502e+002, 1.773529e-001
6.556786e+002, 1.761488e-001
6.576071e+002, 1.748106e-001
6.595356e+002, 1.733581e-001
6.614641e+002, 1.716120e-001
6.633925e+002, 1.695802e-001
6.653210e+002, 1.677490e-001
6.672495e+002, 1.659628e-001
6.691779e+002, 1.638482e-001
6.711064e+002, 1.616933e-001
6.730349e+002, 1.594596e-001
6.749633e+002, 1.572785e-001
6.768918e+002, 1.549630e-001
6.788203e+002, 1.524646e-001
6.807487e+002, 1.497475e-001
6.826772e+002, 1.466762e-001
6.846057e+002, 1.438212e-001
6.865341e+002, 1.407075e-001
6.884626e+002, 1.370363e-001
6.903911e+002, 1.336980e-001
6.923195e+002, 1.309098e-001
6.942480e+002, 1.284292e-001
6.961765e+002, 1.265936e-001
6.981049e+002, 1.251404e-001
7.000334e+002, 1.243196e-001
7.019619e+002, 1.237196e-001
7.038903e+002, 1.237946e-001
7.058188e+002, 1.239022e-001
7.077473e+002, 1.240484e-001
7.096757e+002, 1.244161e-001
7.116042e+002, 1.247899e-001
7.135327e+002, 1.247987e-001
7.154611e+002, 1.247666e-001
7.173896e+002, 1.250542e-001
7.193181e+002, 1.256257e-001
7.212465e+002, 1.263901e-001
7.231750e+002, 1.274242e-001
7.251035e+002, 1.288281e-001
7.270319e+002, 1.304187e-001
7.289604e+002, 1.327785e-001
7.308889e+002, 1.358148e-001
7.328173e+002, 1.397629e-001
7.347458e+002, 1.448391e-001
7.366743e+002, 1.509449e-001
7.386027e+002, 1.584066e-001
7.405312e+002, 1.670505e-001
7.424597e+002, 1.759100e-001
7.443881e+002, 1.834930e-001
7.463166e+002, 1.875126e-001
7.482451e+002, 1.845841e-001
7.501735e+002, 1.743508e-001
7.521020e+002, 1.591402e-001
7.540305e+002, 1.419565e-001
7.559589e+002, 1.263855e-001
7.578874e+002, 1.146511e-001
7.598159e+002, 1.070443e-001
7.617443e+002, 1.025620e-001
7.636728e+002, 1.003572e-001
7.656013e+002, 1.000555e-001
7.675297e+002, 1.011528e-001
7.694582e+002, 1.032312e-001
7.713867e+002, 1.063026e-001
7.733151e+002, 1.101811e-001
7.752436e+002, 1.147817e-001
7.771721e+002, 1.201506e-001
7.791005e+002, 1.263064e-001
7.810290e+002, 1.334038e-001
7.829575e+002, 1.413360e-001
7.848859e+002, 1.500364e-001
7.868144e+002, 1.597798e-001
7.887429e+002, 1.705454e-001
7.906713e+002, 1.824366e-001
7.925998e+002, 1.950181e-001
7.945283e+002, 2.070522e-001
7.964567e+002, 2.169371e-001
7.983852e+002, 2.225087e-001
8.003137e+002, 2.210774e-001
8.022421e+002, 2.109815e-001
8.041706e+002, 1.940116e-001
8.060991e+002, 1.731828e-001
8.080275e+002, 1.520727e-001
8.099560e+002, 1.335967e-001
8.118845e+002, 1.196708e-001
8.138129e+002, 1.100810e-001
8.157414e+002, 1.042242e-001
8.176699e+002, 1.013240e-001
8.195983e+002, 1.003718e-001
8.215268e+002, 1.008123e-001
8.234553e+002, 1.025971e-001
8.253837e+002, 1.053180e-001
8.273122e+002, 1.086218e-001
8.292407e+002, 1.127318e-001
8.311691e+002, 1.176375e-001
8.330976e+002, 1.233454e-001
8.350261e+002, 1.303798e-001
8.369545e+002, 1.385050e-001
8.388830e+002, 1.478559e-001
8.408115e+002, 1.591322e-001
8.427399e+002, 1.723620e-001
8.446684e+002, 1.875393e-001
8.465969e+002, 2.049100e-001
8.485253e+002, 2.237467e-001
8.504538e+002, 2.433495e-001
8.523823e+002, 2.629111e-001
8.543107e+002, 2.802981e-001
8.562392e+002, 2.936527e-001
8.581677e+002, 3.025188e-001
8.600961e+002, 3.060977e-001
8.620246e+002, 3.052474e-001
8.639531e+002, 3.015302e-001
8.658815e+002, 2.955993e-001
8.678100e+002, 2.877850e-001
8.697385e+002, 2.792952e-001
8.716669e+002, 2.705890e-001
8.735954e+002, 2.619738e-001
8.755239e+002, 2.538125e-001
8.774523e+002, 2.461417e-001
8.793808e+002, 2.388043e-001
8.813093e+002, 2.317885e-001
8.832377e+002, 2.251531e-001
8.851662e+002, 2.194517e-001
8.870947e+002, 2.143454e-001
8.890231e+002, 2.094689e-001
8.909516e+002, 2.046429e-001
8.928801e+002, 1.994999e-001
8.948085e+002, 1.934530e-001
8.967370e+002, 1.865548e-001
8.986655e+002, 1.794249e-001
9.005939e+002, 1.725733e-001
9.025224e+002, 1.658310e-001
9.044509e+002, 1.595611e-001
9.063793e+002, 1.536629e-001
9.083078e+002, 1.480713e-001
9.102363e+002, 1.430601e-001
9.121647e+002, 1.391468e-001
9.140932e+002, 1.361019e-001
9.160217e+002, 1.338984e-001
9.179501e+002, 1.330349e-001
9.198786e+002, 1.331079e-001
9.218071e+002, 1.336996e-001
9.237355e+002, 1.350973e-001
9.256640e+002, 1.370378e-001
9.275925e+002, 1.397326e-001
9.295209e+002, 1.432912e-001
9.314494e+002, 1.475326e-001
9.333779e+002, 1.522832e-001
9.353063e+002, 1.577263e-001
9.372348e+002, 1.640832e-001
9.391633e+002, 1.712953e-001
9.410917e+002, 1.790795e-001
9.430202e+002, 1.875764e-001
9.449487e+002, 1.962002e-001
9.468771e+002, 2.045158e-001
9.488056e+002, 2.120729e-001
9.507341e+002, 2.183896e-001
9.526625e+002, 2.236491e-001
9.545910e+002, 2.278210e-001
9.565195e+002, 2.307235e-001
9.584479e+002, 2.331102e-001
9.603764e+002, 2.362220e-001
9.623049e+002, 2.409108e-001
9.642333e+002, 2.472459e-001
9.661618e+002, 2.548583e-001
9.680903e+002, 2.630504e-001
9.700187e+002, 2.713984e-001
9.719472e+002, 2.798939e-001
9.738757e+002, 2.884231e-001
9.758041e+002, 2.965205e-001
9.777326e+002, 3.041747e-001
9.796611e+002, 3.107005e-001
9.815895e+002, 3.151519e-001
9.835180e+002, 3.169048e-001
9.854465e+002, 3.166217e-001
9.873749e+002, 3.151823e-001
9.893034e+002, 3.126317e-001
9.912319e+002, 3.094206e-001
9.931603e+002, 3.060367e-001
9.950888e+002, 3.021673e-001
9.970173e+002, 2.976124e-001
9.989457e+002, 2.919019e-001
1.000874e+003, 2.848713e-001
1.002803e+003, 2.768637e-001
1.004731e+003, 2.681237e-001
1.006660e+003, 2.589008e-001
1.008588e+003, 2.496407e-001
1.010517e+003, 2.408760e-001
1.012445e+003, 2.330226e-001
1.014373e+003, 2.261738e-001
1.016302e+003, 2.203818e-001
1.018230e+003, 2.157141e-001
1.020159e+003, 2.125587e-001
1.022087e+003, 2.112352e-001
1.024016e+003, 2.117813e-001
1.025944e+003, 2.142357e-001
1.027873e+003, 2.191403e-001
1.029801e+003, 2.256271e-001
1.031730e+003, 2.330368e-001
1.033658e+003, 2.404943e-001
1.035587e+003, 2.468155e-001
1.037515e+003, 2.515911e-001
1.039443e+003, 2.543568e-001
1.041372e+003, 2.548005e-001
1.043300e+003, 2.535604e-001
1.045229e+003, 2.507589e-001
1.047157e+003, 2.463029e-001
1.049086e+003, 2.409681e-001
1.051014e+003, 2.351255e-001
1.052943e+003, 2.285530e-001
1.054871e+003, 2.214602e-001
1.056800e+003, 2.140760e-001
1.058728e+003, 2.067207e-001
1.060657e+003, 1.991229e-001
1.062585e+003, 1.913902e-001
1.064514e+003, 1.834454e-001
1.066442e+003, 1.757648e-001
1.068370e+003, 1.681504e-001
1.070299e+003, 1.604605e-001
1.072227e+003, 1.530784e-001
1.074156e+003, 1.460416e-001
1.076084e+003, 1.395142e-001
1.078013e+003, 1.335867e-001
1.079941e+003, 1.281958e-001
1.081870e+003, 1.235072e-001
1.083798e+003, 1.191847e-001
1.085727e+003, 1.152235e-001
1.087655e+003, 1.115779e-001
1.089584e+003, 1.082195e-001
1.091512e+003, 1.046276e-001
1.093441e+003, 1.009005e-001
1.095369e+003, 9.710749e-002
1.097297e+003, 9.331392e-002
1.099226e+003, 8.987331e-002
1.101154e+003, 8.698169e-002
1.103083e+003, 8.490688e-002
1.105011e+003, 8.362507e-002
1.106940e+003, 8.329768e-002
1.108868e+003, 8.394982e-002
1.110797e+003, 8.518926e-002
1.112725e+003, 8.709047e-002
1.114654e+003, 8.984219e-002
1.116582e+003, 9.316659e-002
1.118511e+003, 9.710164e-002
1.120439e+003, 1.013922e-001
1.122368e+003, 1.060278e-001
1.124296e+003, 1.109742e-001
1.126224e+003, 1.159012e-001
1.128153e+003, 1.202656e-001
1.130081e+003, 1.232424e-001
1.132010e+003, 1.250998e-001
1.133938e+003, 1.259027e-001
1.135867e+003, 1.255386e-001
1.137795e+003, 1.239248e-001
1.139724e+003, 1.213895e-001
1.141652e+003, 1.182337e-001
1.143581e+003, 1.145704e-001
1.145509e+003, 1.105857e-001
1.147438e+003, 1.069338e-001
1.149366e+003, 1.034943e-001
1.151295e+003, 1.003137e-001
1.153223e+003, 9.757150e-002
1.155151e+003, 9.528723e-002
1.157080e+003, 9.351341e-002
1.159008e+003, 9.253065e-002
1.160937e+003, 9.221810e-002
1.162865e+003, 9.229410e-002
1.164794e+003, 9.298176e-002
1.166722e+003, 9.436676e-002
1.168651e+003, 9.620712e-002
1.170579e+003, 9.843823e-002
1.172508e+003, 1.005671e-001
1.174436e+003, 1.024755e-001
1.176365e+003, 1.039484e-001
1.178293e+003, 1.047544e-001
1.180222e+003, 1.046120e-001
1.182150e+003, 1.034902e-001
1.184078e+003, 1.013414e-001
1.186007e+003, 9.830146e-002
1.187935e+003, 9.455179e-002
1.189864e+003, 9.019063e-002
1.191792e+003, 8.555096e-002
1.193721e+003, 8.103673e-002
1.195649e+003, 7.651983e-002
1.197578e+003, 7.221624e-002
1.199506e+003, 6.823983e-002
1.201435e+003, 6.449840e-002
1.203363e+003, 6.121831e-002
1.205292e+003, 5.840757e-002
1.207220e+003, 5.581418e-002
1.209149e+003, 5.345980e-002
1.211077e+003, 5.135112e-002
1.213005e+003, 4.976805e-002
1.214934e+003, 4.848916e-002
1.216862e+003, 4.736178e-002
1.218791e+003, 4.652530e-002
1.220719e+003, 4.602212e-002
1.222648e+003, 4.579185e-002
1.224576e+003, 4.574846e-002
1.226505e+003, 4.586829e-002
1.228433e+003, 4.634755e-002
1.230362e+003, 4.709880e-002
1.232290e+003, 4.801901e-002
1.234219e+003, 4.901343e-002
1.236147e+003, 5.047946e-002
1.238076e+003, 5.228146e-002
1.240004e+003, 5.416932e-002
1.241932e+003, 5.639264e-002
1.243861e+003, 5.907530e-002
1.245789e+003, 6.206451e-002
1.247718e+003, 6.524705e-002
1.249646e+003, 6.836774e-002
1.251575e+003, 7.126619e-002
1.253503e+003, 7.386472e-002
1.255432e+003, 7.592050e-002
1.257360e+003, 7.739998e-002
1.259289e+003, 7.871604e-002
1.261217e+003, 8.013667e-002
1.263146e+003, 8.198546e-002
1.265074e+003, 8.463784e-002
1.267003e+003, 8.823799e-002
1.268931e+003, 9.246255e-002
1.270859e+003, 9.695841e-002
1.272788e+003, 1.012964e-001
1.274716e+003, 1.050441e-001
1.276645e+003, 1.075444e-001
1.278573e+003, 1.085702e-001
1.280502e+003, 1.080545e-001
1.282430e+003, 1.061827e-001
1.284359e+003, 1.031395e-001
1.286287e+003, 9.940907e-002
1.288216e+003, 9.523693e-002
1.290144e+003, 9.080738e-002
1.292073e+003, 8.634171e-002
1.294001e+003, 8.222242e-002
1.295930e+003, 7.818162e-002
1.297858e+003, 7.436426e-002
1.299786e+003, 7.146522e-002
1.301715e+003, 6.931212e-002
1.303643e+003, 6.744386e-002
1.305572e+003, 6.613843e-002
1.307500e+003, 6.546819e-002
1.309429e+003, 6.550886e-002
1.311357e+003, 6.592327e-002
1.313286e+003, 6.681854e-002
1.315214e+003, 6.827094e-002
1.317143e+003, 7.046968e-002
1.319071e+003, 7.330716e-002
1.321000e+003, 7.719272e-002
1.322928e+003, 8.198415e-002
1.324857e+003, 8.805979e-002
1.326785e+003, 9.568642e-002
1.328714e+003, 1.049562e-001
1.330642e+003, 1.161088e-001
1.332570e+003, 1.292992e-001
1.334499e+003, 1.440005e-001
1.336427e+003, 1.593893e-001
1.338356e+003, 1.739921e-001
1.340284e+003, 1.862518e-001
1.342213e+003, 1.951998e-001
1.344141e+003, 2.007607e-001
1.346070e+003, 2.027845e-001
1.347998e+003, 2.017208e-001
1.349927e+003, 1.980601e-001
1.351855e+003, 1.921642e-001
1.353784e+003, 1.842840e-001
1.355712e+003, 1.747999e-001
1.357641e+003, 1.643163e-001
1.359569e+003, 1.535660e-001
1.361497e+003, 1.431161e-001
1.363426e+003, 1.336211e-001
1.365354e+003, 1.251586e-001
1.367283e+003, 1.183917e-001
1.369211e+003, 1.134360e-001
1.371140e+003, 1.103170e-001
1.373068e+003, 1.091676e-001
1.374997e+003, 1.099353e-001
1.376925e+003, 1.126476e-001
1.378854e+003, 1.173709e-001
1.380782e+003, 1.239947e-001
1.382711e+003, 1.327590e-001
1.384639e+003, 1.434272e-001
1.386568e+003, 1.554338e-001
1.388496e+003, 1.678936e-001
1.390424e+003, 1.799055e-001
1.392353e+003, 1.902965e-001
1.394281e+003, 1.976431e-001
1.396210e+003, 2.013872e-001
1.398138e+003, 2.015780e-001
1.400067e+003, 1.982984e-001
1.401995e+003, 1.925597e-001
1.403924e+003, 1.855134e-001
1.405852e+003, 1.777453e-001
1.407781e+003, 1.695933e-001
1.409709e+003, 1.610282e-001
1.411638e+003, 1.515372e-001
1.413566e+003, 1.410074e-001
1.415495e+003, 1.296458e-001
1.417423e+003, 1.180153e-001
1.419351e+003, 1.063778e-001
1.421280e+003, 9.550453e-002
1.423208e+003, 8.600009e-002
1.425137e+003, 7.791913e-002
1.427065e+003, 7.155978e-002
1.428994e+003, 6.713984e-002
1.430922e+003, 6.428586e-002
1.432851e+003, 6.293380e-002
1.434779e+003, 6.323485e-002
1.436708e+003, 6.504737e-002
1.438636e+003, 6.782565e-002
1.440565e+003, 7.127868e-002
1.442493e+003, 7.482708e-002
1.444422e+003, 7.758766e-002
1.446350e+003, 7.836618e-002
1.448278e+003, 7.681746e-002
1.450207e+003, 7.324682e-002
1.452135e+003, 6.809819e-002
1.454064e+003, 6.188921e-002
1.455992e+003, 5.582009e-002
1.457921e+003, 4.985536e-002
1.459849e+003, 4.438389e-002
1.461778e+003, 3.996481e-002
1.463706e+003, 3.635628e-002
1.465635e+003, 3.332163e-002
1.467563e+003, 3.059925e-002
1.469492e+003, 2.858829e-002
1.471420e+003, 2.730712e-002
1.473349e+003, 2.611471e-002
1.475277e+003, 2.499031e-002
1.477205e+003, 2.391332e-002
1.479134e+003, 2.288492e-002
1.481062e+003, 2.224147e-002
1.482991e+003, 2.184354e-002
1.484919e+003, 2.129567e-002
1.486848e+003, 2.087957e-002
1.488776e+003, 2.049968e-002
1.490705e+003, 1.998424e-002
1.492633e+003, 1.964661e-002
1.494562e+003, 1.949386e-002
1.496490e+003, 1.936190e-002
1.498419e+003, 1.895810e-002
1.500347e+003, 1.834110e-002
1.502276e+003, 1.802270e-002
1.504204e+003, 1.821395e-002
1.506132e+003, 1.854385e-002
1.508061e+003, 1.835808e-002
1.509989e+003, 1.792048e-002
1.511918e+003, 1.752010e-002
1.513846e+003, 1.735129e-002
1.515775e+003, 1.737916e-002
1.517703e+003, 1.732071e-002
1.519632e+003, 1.731624e-002
1.521560e+003, 1.734083e-002
1.523489e+003, 1.708697e-002
1.525417e+003, 1.698682e-002
1.527346e+003, 1.688955e-002
1.529274e+003, 1.684880e-002
1.531203e+003, 1.669886e-002
1.533131e+003, 1.680614e-002
1.535059e+003, 1.687364e-002
1.536988e+003, 1.709824e-002
1.538916e+003, 1.762709e-002
1.540845e+003, 1.770153e-002
1.542773e+003, 1.735137e-002
1.544702e+003, 1.725112e-002
1.546630e+003, 1.728525e-002
1.548559e+003, 1.727925e-002
1.550487e+003, 1.726323e-002
1.552416e+003, 1.732021e-002
1.554344e+003, 1.742906e-002
1.556273e+003, 1.758536e-002
1.558201e+003, 1.817589e-002
1.560130e+003, 1.819832e-002
1.562058e+003, 1.780386e-002
1.563986e+003, 1.790068e-002
1.565915e+003, 1.799338e-002
1.567843e+003, 1.810937e-002
1.569772e+003, 1.838828e-002
1.571700e+003, 1.839728e-002
1.573629e+003, 1.860530e-002
1.575557e+003, 1.907562e-002
1.577486e+003, 1.914454e-002
1.579414e+003, 1.914943e-002
1.581343e+003, 1.935235e-002
1.583271e+003, 1.962528e-002
1.585200e+003, 1.980441e-002
1.587128e+003, 1.992668e-002
1.589057e+003, 2.030524e-002
1.590985e+003, 2.081772e-002
1.592913e+003, 2.107389e-002
1.594842e+003, 2.133134e-002
1.596770e+003, 2.165859e-002
1.598699e+003, 2.203586e-002
1.600627e+003, 2.248360e-002
1.602556e+003, 2.296213e-002
1.604484e+003, 2.345133e-002
1.606413e+003, 2.389393e-002
1.608341e+003, 2.441795e-002
1.610270e+003, 2.516238e-002
1.612198e+003, 2.597179e-002
1.614127e+003, 2.692235e-002
1.616055e+003, 2.797749e-002
1.617984e+003, 2.850083e-002
1.619912e+003, 2.905218e-002
1.621840e+003, 3.024288e-002
1.623769e+003, 3.148250e-002
1.625697e+003, 3.256756e-002
1.627626e+003, 3.396524e-002
1.629554e+003, 3.558626e-002
1.631483e+003, 3.737501e-002
1.633411e+003, 3.944949e-002
1.635340e+003, 4.165352e-002
1.637268e+003, 4.365755e-002
1.639197e+003, 4.549039e-002
1.641125e+003, 4.762512e-002
1.643054e+003, 5.003923e-002
1.644982e+003, 5.227857e-002
1.646911e+003, 5.359097e-002
1.648839e+003, 5.397666e-002
1.650767e+003, 5.409872e-002
1.652696e+003, 5.397552e-002
1.654624e+003, 5.265348e-002
1.656553e+003, 5.108700e-002
1.658481e+003, 4.999653e-002
1.660410e+003, 4.951649e-002
1.662338e+003, 4.973473e-002
1.664267e+003, 5.030799e-002
1.666195e+003, 5.123822e-002
1.668124e+003, 5.278463e-002
1.670052e+003, 5.471797e-002
1.671981e+003, 5.707550e-002
1.673909e+003, 5.969199e-002
1.675838e+003, 6.244252e-002
1.677766e+003, 6.486174e-002
1.679694e+003, 6.701228e-002
1.681623e+003, 6.856019e-002
1.683551e+003, 6.995216e-002
1.685480e+003, 7.005241e-002
1.687408e+003, 6.897148e-002
1.689337e+003, 6.754199e-002
1.691265e+003, 6.592254e-002
1.693194e+003, 6.415710e-002
1.695122e+003, 6.264845e-002
1.697051e+003, 6.083548e-002
1.698979e+003, 5.935528e-002
1.700908e+003, 5.771958e-002
1.702836e+003, 5.572110e-002
1.704765e+003, 5.415662e-002
1.706693e+003, 5.235435e-002
1.708621e+003, 5.047635e-002
1.710550e+003, 4.860782e-002
1.712478e+003, 4.670735e-002
1.714407e+003, 4.470441e-002
1.716335e+003, 4.257629e-002
1.718264e+003, 3.979690e-002
1.720192e+003, 3.672909e-002
1.722121e+003, 3.421762e-002
1.724049e+003, 3.173184e-002
1.725978e+003, 2.911554e-002
1.727906e+003, 2.687315e-002
1.729835e+003, 2.471625e-002
1.731763e+003, 2.282902e-002
1.733692e+003, 2.146842e-002
1.735620e+003, 1.952798e-002
1.737548e+003, 1.759224e-002
1.739477e+003, 1.609802e-002
1.741405e+003, 1.480693e-002
1.743334e+003, 1.353166e-002
1.745262e+003, 1.233231e-002
1.747191e+003, 1.158295e-002
1.749119e+003, 1.103797e-002
1.751048e+003, 1.031296e-002
1.752976e+003, 9.606508e-003
1.754905e+003, 9.114678e-003
1.756833e+003, 8.597644e-003
1.758762e+003, 8.222532e-003
1.760690e+003, 7.991420e-003
1.762619e+003, 7.458492e-003
1.764547e+003, 7.178262e-003
1.766475e+003, 7.367583e-003
1.768404e+003, 7.274074e-003
1.770332e+003, 6.977006e-003
1.772261e+003, 6.828795e-003
1.774189e+003, 6.586178e-003
1.776118e+003, 6.329797e-003
1.778046e+003, 6.194442e-003
1.779975e+003, 6.175318e-003
1.781903e+003, 5.994104e-003
1.783832e+003, 5.875476e-003
1.785760e+003, 5.595609e-003
1.787689e+003, 5.242820e-003
1.789617e+003, 5.423909e-003
1.791546e+003, 5.761423e-003
1.793474e+003, 5.651752e-003
1.795402e+003, 5.467504e-003
1.797331e+003, 5.365337e-003
1.799259e+003, 5.177011e-003
1.801188e+003, 5.157579e-003
1.803116e+003, 5.286357e-003
1.805045e+003, 5.011732e-003
1.806973e+003, 4.911728e-003
1.808902e+003, 4.896788e-003
1.810830e+003, 4.933789e-003
1.812759e+003, 4.925225e-003
1.814687e+003, 4.707125e-003
1.816616e+003, 4.486143e-003
1.818544e+003, 4.610681e-003
1.820473e+003, 4.880593e-003
1.822401e+003, 4.918840e-003
1.824329e+003, 5.171112e-003
1.826258e+003, 5.198407e-003
1.828186e+003, 4.601423e-003
1.830115e+003, 4.323963e-003
1.832043e+003, 4.471620e-003
1.833972e+003, 4.544908e-003
1.835900e+003, 4.435256e-003
1.837829e+003, 4.256384e-003
1.839757e+003, 4.257443e-003
1.841686e+003, 4.243333e-003
1.843614e+003, 4.221212e-003
1.845543e+003, 4.033206e-003
1.847471e+003, 3.932435e-003
1.849400e+003, 3.903438e-003
1.851328e+003, 3.575486e-003
1.853256e+003, 3.732278e-003
1.855185e+003, 3.885640e-003
1.857113e+003, 3.891994e-003
1.859042e+003, 3.910671e-003
1.860970e+003, 3.613375e-003
1.862899e+003, 3.231281e-003
1.864827e+003, 3.036474e-003
1.866756e+003, 3.082980e-003
1.868684e+003, 3.273408e-003
1.870613e+003, 3.174203e-003
1.872541e+003, 3.056739e-003
1.874470e+003, 2.808093e-003
1.876398e+003, 2.792334e-003
1.878327e+003, 2.698246e-003
1.880255e+003, 2.703363e-003
1.882183e+003, 2.336690e-003
1.884112e+003, 2.217317e-003
1.886040e+003, 2.777268e-003
1.887969e+003, 3.004917e-003
1.889897e+003, 2.397774e-003
1.891826e+003, 2.186445e-003
1.893754e+003, 2.199461e-003
1.895683e+003, 2.141733e-003
1.897611e+003, 1.983795e-003
1.899540e+003, 1.983591e-003
1.901468e+003, 2.252885e-003
1.903397e+003, 2.765236e-003
1.905325e+003, 2.691363e-003
1.907254e+003, 2.189366e-003
1.909182e+003, 1.971516e-003
1.911110e+003, 2.086380e-003
1.913039e+003, 1.365707e-003
1.914967e+003, 1.163778e-003
1.916896e+003, 1.757620e-003
1.918824e+003, 2.143558e-003
1.920753e+003, 1.768400e-003
1.922681e+003, 1.337532e-003
1.924610e+003, 1.110908e-003
1.926538e+003, 1.127809e-003
1.928467e+003, 8.381162e-004
1.930395e+003, 7.832856e-004
1.932324e+003, 1.624836e-003
1.934252e+003, 1.797226e-003
1.936181e+003, 1.329511e-003
1.938109e+003, 1.204957e-003
1.940037e+003, 5.858056e-004
1.941966e+003, 1.266144e-004
1.943894e+003, 4.581447e-004
1.945823e+003, 4.859915e-004
1.947751e+003, -1.507297e-004
1.949680e+003, -2.423867e-004
1.951608e+003, 2.289753e-004
1.953537e+003, 9.945689e-004
1.955465e+003, 7.803460e-004
1.957394e+003, 4.132318e-004
1.959322e+003, -2.210275e-004
1.961251e+003, -1.122986e-004
1.963179e+003, -2.685010e-004
1.965108e+003, -8.826395e-004
1.967036e+003, -8.790721e-004
1.968964e+003, -1.171566e-003
1.970893e+003, -9.631945e-004
1.972821e+003, -1.023696e-004
1.974750e+003, 1.646993e-004
1.976678e+003, 1.394174e-003
1.978607e+003, 2.697433e-003
1.980535e+003, 2.318623e-003
1.982464e+003, 1.233548e-003
1.984392e+003, 2.162419e-003
1.986321e+003, 1.827199e-003
1.988249e+003, 5.177588e-004
1.990178e+003, 5.556808e-004
1.992106e+003, 1.348429e-003
1.994035e+003, 1.742921e-003
1.995963e+003, 2.362227e-003
1.997891e+003, 1.918045e-003
1.999820e+003, 1.005345e-003
2.001748e+003, 5.191604e-004
2.003677e+003, 7.150213e-004
2.005605e+003, 1.196736e-003
2.007534e+003, 2.041750e-003
2.009462e+003, 2.086194e-003
2.011391e+003, 1.565751e-003
2.013319e+003, 1.974740e-003
2.015248e+003, 1.445812e-003
2.017176e+003, 6.673012e-004
2.019105e+003, 8.802461e-004
2.021033e+003, 8.380483e-004
2.022962e+003, 1.275385e-003
2.024890e+003, 2.082924e-003
2.026818e+003, 3.439452e-003
2.028747e+003, 3.947710e-003
2.030675e+003, 2.922160e-003
2.032604e+003, 2.592902e-003
2.034532e+003, 2.894057e-003
2.036461e+003, 3.891633e-003
2.038389e+003, 4.878160e-003
2.040318e+003, 4.439677e-003
2.042246e+003, 3.722891e-003
2.044175e+003, 3.552848e-003
2.046103e+003, 3.888027e-003
2.048031e+003, 5.355151e-003
2.049960e+003, 6.214506e-003
2.051888e+003, 5.195219e-003
2.053817e+003, 4.280708e-003
2.055745e+003, 4.427922e-003
2.057674e+003, 4.646905e-003
2.059602e+003, 3.969396e-003
2.061531e+003, 3.652921e-003
2.063459e+003, 3.346221e-003
2.065388e+003, 3.310865e-003
2.067316e+003, 3.349366e-003
2.069245e+003, 3.307795e-003
2.071173e+003, 3.744934e-003
2.073102e+003, 3.770342e-003
2.075030e+003, 3.830717e-003
2.076958e+003, 4.351069e-003
2.078887e+003, 4.729915e-003
2.080815e+003, 4.841050e-003
2.082744e+003, 4.358742e-003
2.084672e+003, 4.512388e-003
2.086601e+003, 4.635874e-003
2.088529e+003, 4.839063e-003
2.090458e+003, 4.569770e-003
2.092386e+003, 3.034968e-003
2.094315e+003, 2.930328e-003
2.096243e+003, 3.687974e-003
2.098172e+003, 4.179755e-003
2.100100e+003, 5.337558e-003
2.102029e+003, 5.523013e-003
2.103957e+003, 5.679483e-003
2.105885e+003, 5.563506e-003
2.107814e+003, 5.165447e-003
2.109742e+003, 5.473190e-003
2.111671e+003, 5.388593e-003
2.113599e+003, 4.983573e-003
2.115528e+003, 4.965696e-003
2.117456e+003, 4.785188e-003
2.119385e+003, 4.466431e-003
2.121313e+003, 4.620525e-003
2.123242e+003, 4.974938e-003
2.125170e+003, 5.180445e-003
2.127099e+003, 5.307144e-003
2.129027e+003, 4.848011e-003
2.130956e+003, 4.505231e-003
2.132884e+003, 4.821093e-003
2.134813e+003, 6.164152e-003
2.136741e+003, 6.743419e-003
2.138669e+003, 6.129031e-003
2.140598e+003, 5.832194e-003
2.142526e+003, 5.755334e-003
2.144455e+003, 4.947274e-003
2.146383e+003, 4.210364e-003
2.148312e+003, 5.352036e-003
2.150240e+003, 6.344763e-003
2.152169e+003, 6.019611e-003
2.154097e+003, 5.565146e-003
2.156026e+003, 4.819574e-003
2.157954e+003, 6.314737e-003
2.159883e+003, 8.926440e-003
2.161811e+003, 9.292479e-003
2.163740e+003, 7.910248e-003
2.165668e+003, 7.687451e-003
2.167596e+003, 7.745547e-003
2.169525e+003, 8.299942e-003
2.171453e+003, 7.411744e-003
2.173382e+003, 7.236643e-003
2.175310e+003, 8.455267e-003
2.177239e+003, 9.775157e-003
2.179167e+003, 9.944654e-003
2.181096e+003, 8.738352e-003
2.183024e+003, 8.369012e-003
2.184953e+003, 9.161583e-003
2.186881e+003, 9.381790e-003
2.188810e+003, 9.341676e-003
2.190738e+003, 9.524105e-003
2.192667e+003, 9.145227e-003
2.194595e+003, 9.795394e-003
2.196523e+003, 9.518124e-003
2.198452e+003, 8.837925e-003
2.200380e+003, 1.000294e-002
2.202309e+003, 1.051279e-002
2.204237e+003, 9.962043e-003
2.206166e+003, 9.910271e-003
2.208094e+003, 9.460319e-003
2.210023e+003, 8.702750e-003
2.211951e+003, 1.005820e-002
2.213880e+003, 1.081554e-002
2.215808e+003, 9.823759e-003
2.217737e+003, 9.936483e-003
2.219665e+003, 1.019721e-002
2.221594e+003, 1.024618e-002
2.223522e+003, 9.325422e-003
2.225450e+003, 8.556645e-003
2.227379e+003, 9.687616e-003
2.229307e+003, 1.035785e-002
2.231236e+003, 1.038268e-002
2.233164e+003, 1.105431e-002
2.235093e+003, 1.181014e-002
2.237021e+003, 1.173104e-002
2.238950e+003, 1.125352e-002
2.240878e+003, 1.141882e-002
2.242807e+003, 1.195005e-002
2.244735e+003, 1.180083e-002
2.246664e+003, 1.077158e-002
2.248592e+003, 1.003139e-002
2.250521e+003, 1.001745e-002
2.252449e+003, 9.895840e-003
2.254377e+003, 9.919940e-003
2.256306e+003, 1.003322e-002
2.258234e+003, 9.895968e-003
2.260163e+003, 1.014798e-002
2.262091e+003, 1.062303e-002
2.264020e+003, 1.024065e-002
2.265948e+003, 1.057363e-002
2.267877e+003, 1.091028e-002
2.269805e+003, 1.133918e-002
2.271734e+003, 1.155206e-002
2.273662e+003, 1.137942e-002
2.275591e+003, 1.090860e-002
2.277519e+003, 1.115394e-002
2.279448e+003, 1.184012e-002
2.281376e+003, 1.194365e-002
2.283304e+003, 1.163324e-002
2.285233e+003, 1.188934e-002
2.287161e+003, 1.180032e-002
2.289090e+003, 1.175445e-002
2.291018e+003, 1.258033e-002
2.292947e+003, 1.293172e-002
2.294875e+003, 1.250011e-002
2.296804e+003, 1.248632e-002
2.298732e+003, 1.242057e-002
2.300661e+003, 1.254065e-002
2.302589e+003, 1.288789e-002
2.304518e+003, 1.295090e-002
2.306446e+003, 1.273551e-002
2.308375e+003, 1.266384e-002
2.310303e+003, 1.273813e-002
2.312231e+003, 1.287679e-002
2.314160e+003, 1.327634e-002
2.316088e+003, 1.368020e-002
2.318017e+003, 1.393828e-002
2.319945e+003, 1.426998e-002
2.321874e+003, 1.460063e-002
2.323802e+003, 1.506776e-002
2.325731e+003, 1.471744e-002
2.327659e+003, 1.399701e-002
2.329588e+003, 1.378888e-002
2.331516e+003, 1.411131e-002
2.333445e+003, 1.449145e-002
2.335373e+003, 1.444696e-002
2.337302e+003, 1.398805e-002
2.339230e+003, 1.377446e-002
2.341158e+003, 1.391908e-002
2.343087e+003, 1.437388e-002
2.345015e+003, 1.442243e-002
2.346944e+003, 1.392801e-002
2.348872e+003, 1.338700e-002
2.350801e+003, 1.343911e-002
2.352729e+003, 1.364040e-002
2.354658e+003, 1.384588e-002
2.356586e+003, 1.421439e-002
2.358515e+003, 1.431608e-002
2.360443e+003, 1.441745e-002
2.362372e+003, 1.421640e-002
2.364300e+003, 1.402356e-002
2.366229e+003, 1.385661e-002
2.368157e+003, 1.355987e-002
2.370085e+003, 1.320388e-002
2.372014e+003, 1.329621e-002
2.373942e+003, 1.341146e-002
2.375871e+003, 1.329985e-002
2.377799e+003, 1.309524e-002
2.379728e+003, 1.259876e-002
2.381656e+003, 1.231845e-002
2.383585e+003, 1.247858e-002
2.385513e+003, 1.282983e-002
2.387442e+003, 1.272487e-002
2.389370e+003, 1.261314e-002
2.391299e+003, 1.268829e-002
2.393227e+003, 1.288265e-002
2.395156e+003, 1.303711e-002
2.397084e+003, 1.327552e-002
2.399012e+003, 1.273955e-002
2.400941e+003, 1.222969e-002
2.402869e+003, 1.192723e-002
2.404798e+003, 1.207626e-002
2.406726e+003, 1.224102e-002
2.408655e+003, 1.213130e-002
2.410583e+003, 1.199154e-002
2.412512e+003, 1.238111e-002
2.414440e+003, 1.248739e-002
2.416369e+003, 1.234297e-002
2.418297e+003, 1.245404e-002
2.420226e+003, 1.246419e-002
2.422154e+003, 1.204265e-002
2.424083e+003, 1.220749e-002
2.426011e+003, 1.209031e-002
2.427939e+003, 1.204224e-002
2.429868e+003, 1.184148e-002
2.431796e+003, 1.139784e-002
2.433725e+003, 1.152410e-002
2.435653e+003, 1.240321e-002
2.437582e+003, 1.253908e-002
2.439510e+003, 1.222731e-002
2.441439e+003, 1.184902e-002
2.443367e+003, 1.203500e-002
2.445296e+003, 1.201018e-002
2.447224e+003, 1.230353e-002
2.449153e+003, 1.247991e-002
2.451081e+003, 1.239978e-002
2.453010e+003, 1.194040e-002
2.454938e+003, 1.221116e-002
2.456866e+003, 1.227611e-002
2.458795e+003, 1.158386e-002
2.460723e+003, 1.163311e-002
2.462652e+003, 1.212633e-002
2.464580e+003, 1.202427e-002
2.466509e+003, 1.204147e-002
2.468437e+003, 1.204817e-002
2.470366e+003, 1.190672e-002
2.472294e+003, 1.173772e-002
2.474223e+003, 1.184089e-002
2.476151e+003, 1.204667e-002
2.478080e+003, 1.184743e-002
2.480008e+003, 1.156653e-002
2.481937e+003, 1.213176e-002
2.483865e+003, 1.280700e-002
2.485793e+003, 1.276295e-002
2.487722e+003, 1.213718e-002
2.489650e+003, 1.194911e-002
2.491579e+003, 1.186949e-002
2.493507e+003, 1.138851e-002
2.495436e+003, 1.128729e-002
2.497364e+003, 1.175107e-002
2.499293e+003, 1.185007e-002
2.501221e+003, 1.191897e-002
2.503150e+003, 1.198966e-002
2.505078e+003, 1.195930e-002
2.507007e+003, 1.157339e-002
2.508935e+003, 1.164448e-002
2.510864e+003, 1.188935e-002
2.512792e+003, 1.206575e-002
2.514720e+003, 1.219022e-002
2.516649e+003, 1.262624e-002
2.518577e+003, 1.260480e-002
2.520506e+003, 1.193244e-002
2.522434e+003, 1.161507e-002
2.524363e+003, 1.205906e-002
2.526291e+003, 1.209055e-002
2.528220e+003, 1.227794e-002
2.530148e+003, 1.208448e-002
2.532077e+003, 1.202010e-002
2.534005e+003, 1.212486e-002
2.535934e+003, 1.192633e-002
2.537862e+003, 1.123345e-002
2.539791e+003, 1.134191e-002
2.541719e+003, 1.222932e-002
2.543647e+003, 1.217053e-002
2.545576e+003, 1.174045e-002
2.547504e+003, 1.158935e-002
2.549433e+003, 1.174556e-002
2.551361e+003, 1.179532e-002
2.553290e+003, 1.162249e-002
2.555218e+003, 1.199265e-002
2.557147e+003, 1.198776e-002
2.559075e+003, 1.163023e-002
2.561004e+003, 1.116324e-002
2.562932e+003, 1.137831e-002
2.564861e+003, 1.181445e-002
2.566789e+003, 1.188826e-002
2.568718e+003, 1.191056e-002
2.570646e+003, 1.192383e-002
2.572574e+003, 1.220723e-002
2.574503e+003, 1.268071e-002
2.576431e+003, 1.282978e-002
2.578360e+003, 1.262357e-002
2.580288e+003, 1.245295e-002
2.582217e+003, 1.215625e-002
2.584145e+003, 1.163283e-002
2.586074e+003, 1.194400e-002
2.588002e+003, 1.282156e-002
2.589931e+003, 1.294234e-002
2.591859e+003, 1.250212e-002
2.593788e+003, 1.235443e-002
2.595716e+003, 1.258192e-002
2.597645e+003, 1.270504e-002
2.599573e+003, 1.306195e-002
2.601501e+003, 1.350555e-002
2.603430e+003, 1.347439e-002
2.605358e+003, 1.373052e-002
2.607287e+003, 1.338995e-002
2.609215e+003, 1.328809e-002
2.611144e+003, 1.400790e-002
2.613072e+003, 1.429548e-002
2.615001e+003, 1.403207e-002
2.616929e+003, 1.423270e-002
2.618858e+003, 1.416204e-002
2.620786e+003, 1.393478e-002
2.622715e+003, 1.429664e-002
2.624643e+003, 1.453105e-002
2.626572e+003, 1.467389e-002
2.628500e+003, 1.498882e-002
2.630428e+003, 1.511783e-002
2.632357e+003, 1.514503e-002
2.634285e+003, 1.517066e-002
2.636214e+003, 1.499160e-002
2.638142e+003, 1.517177e-002
2.640071e+003, 1.557351e-002
2.641999e+003, 1.564579e-002
2.643928e+003, 1.587119e-002
2.645856e+003, 1.566291e-002
2.647785e+003, 1.573261e-002
2.649713e+003, 1.618992e-002
2.651642e+003, 1.659562e-002
2.653570e+003, 1.648214e-002
2.655499e+003, 1.619261e-002
2.657427e+003, 1.595351e-002
2.659355e+003, 1.594378e-002
2.661284e+003, 1.642545e-002
2.663212e+003, 1.649933e-002
2.665141e+003, 1.630692e-002
2.667069e+003, 1.648609e-002
2.668998e+003, 1.623490e-002
2.670926e+003, 1.639825e-002
2.672855e+003, 1.655394e-002
2.674783e+003, 1.660717e-002
2.676712e+003, 1.685563e-002
2.678640e+003, 1.700387e-002
2.680569e+003, 1.690044e-002
2.682497e+003, 1.706549e-002
2.684426e+003, 1.715885e-002
2.686354e+003, 1.739055e-002
2.688282e+003, 1.773536e-002
2.690211e+003, 1.790977e-002
2.692139e+003, 1.810525e-002
2.694068e+003, 1.853807e-002
2.695996e+003, 1.888429e-002
2.697925e+003, 1.904674e-002
2.699853e+003, 1.915505e-002
2.701782e+003, 1.947026e-002
2.703710e+003, 2.002506e-002
2.705639e+003, 2.062686e-002
2.707567e+003, 2.074569e-002
2.709496e+003, 2.086293e-002
2.711424e+003, 2.136394e-002
2.713353e+003, 2.179176e-002
2.715281e+003, 2.214459e-002
2.717209e+003, 2.232476e-002
2.719138e+003, 2.231143e-002
2.721066e+003, 2.280690e-002
2.722995e+003, 2.343215e-002
2.724923e+003, 2.376240e-002
2.726852e+003, 2.421857e-002
2.728780e+003, 2.456458e-002
2.730709e+003, 2.481903e-002
2.732637e+003, 2.519527e-002
2.734566e+003, 2.563500e-002
2.736494e+003, 2.572362e-002
2.738423e+003, 2.576525e-002
2.740351e+003, 2.604642e-002
2.742280e+003, 2.653146e-002
2.744208e+003, 2.679275e-002
2.746136e+003, 2.674479e-002
2.748065e+003, 2.687415e-002
2.749993e+003, 2.744281e-002
2.751922e+003, 2.803844e-002
2.753850e+003, 2.812445e-002
2.755779e+003, 2.800790e-002
2.757707e+003, 2.819021e-002
2.759636e+003, 2.838278e-002
2.761564e+003, 2.880475e-002
2.763493e+003, 2.911774e-002
2.765421e+003, 2.934654e-002
2.767350e+003, 2.993976e-002
2.769278e+003, 3.012539e-002
2.771207e+003, 2.986608e-002
2.773135e+003, 2.970201e-002
2.775063e+003, 3.034072e-002
2.776992e+003, 3.054565e-002
2.778920e+003, 3.043310e-002
2.780849e+003, 3.071168e-002
2.782777e+003, 3.123191e-002
2.784706e+003, 3.137840e-002
2.786634e+003, 3.132560e-002
2.788563e+003, 3.120832e-002
2.790491e+003, 3.156157e-002
2.792420e+003, 3.213139e-002
2.794348e+003, 3.285401e-002
2.796277e+003, 3.288825e-002
2.798205e+003, 3.297041e-002
2.800134e+003, 3.326966e-002
2.802062e+003, 3.341065e-002
2.803990e+003, 3.383404e-002
2.805919e+003, 3.418670e-002
2.807847e+003, 3.429070e-002
2.809776e+003, 3.466499e-002
2.811704e+003, 3.507648e-002
2.813633e+003, 3.551752e-002
2.815561e+003, 3.628413e-002
2.817490e+003, 3.676195e-002
2.819418e+003, 3.669937e-002
2.821347e+003, 3.709348e-002
2.823275e+003, 3.815013e-002
2.825204e+003, 3.832969e-002
2.827132e+003, 3.849468e-002
2.829061e+003, 3.910434e-002
2.830989e+003, 3.947620e-002
2.832917e+003, 4.027044e-002
2.834846e+003, 4.102523e-002
2.836774e+003, 4.134251e-002
2.838703e+003, 4.164128e-002
2.840631e+003, 4.254239e-002
2.842560e+003, 4.339371e-002
2.844488e+003, 4.379761e-002
2.846417e+003, 4.390533e-002
2.848345e+003, 4.448617e-002
2.850274e+003, 4.514038e-002
2.852202e+003, 4.579233e-002
2.854131e+003, 4.666240e-002
2.856059e+003, 4.757146e-002
2.857988e+003, 4.865405e-002
2.859916e+003, 4.979142e-002
2.861844e+003, 5.083387e-002
2.863773e+003, 5.158532e-002
2.865701e+003, 5.200653e-002
2.867630e+003, 5.285560e-002
2.869558e+003, 5.429655e-002
2.871487e+003, 5.536206e-002
2.873415e+003, 5.589563e-002
2.875344e+003, 5.681605e-002
2.877272e+003, 5.771831e-002
2.879201e+003, 5.875580e-002
2.881129e+003, 5.985853e-002
2.883058e+003, 6.046744e-002
2.884986e+003, 6.086320e-002
2.886915e+003, 6.215179e-002
2.888843e+003, 6.379621e-002
2.890771e+003, 6.474194e-002
2.892700e+003, 6.557408e-002
2.894628e+003, 6.642973e-002
2.896557e+003, 6.780414e-002
2.898485e+003, 6.915341e-002
2.900414e+003, 7.019320e-002
2.902342e+003, 7.139038e-002
2.904271e+003, 7.257078e-002
2.906199e+003, 7.373052e-002
2.908128e+003, 7.479540e-002
2.910056e+003, 7.621110e-002
2.911985e+003, 7.761706e-002
2.913913e+003, 7.866685e-002
2.915842e+003, 7.918095e-002
2.917770e+003, 8.012091e-002
2.919698e+003, 8.140144e-002
2.921627e+003, 8.236114e-002
2.923555e+003, 8.318687e-002
2.925484e+003, 8.427799e-002
2.927412e+003, 8.556002e-002
2.929341e+003, 8.648533e-002
2.931269e+003, 8.748325e-002
2.933198e+003, 8.825090e-002
2.935126e+003, 8.933080e-002
2.937055e+003, 9.021261e-002
2.938983e+003, 9.051316e-002
2.940912e+003, 9.096660e-002
2.942840e+003, 9.179883e-002
2.944769e+003, 9.239989e-002
2.946697e+003, 9.262397e-002
2.948625e+003, 9.365811e-002
2.950554e+003, 9.429541e-002
2.952482e+003, 9.462510e-002
2.954411e+003, 9.515433e-002
2.956339e+003, 9.613154e-002
2.958268e+003, 9.612459e-002
2.960196e+003, 9.612304e-002
2.962125e+003, 9.659117e-002
2.964053e+003, 9.687486e-002
2.965982e+003, 9.700269e-002
2.967910e+003, 9.689090e-002
2.969839e+003, 9.675808e-002
2.971767e+003, 9.717540e-002
2.973696e+003, 9.750050e-002
2.975624e+003, 9.739158e-002
2.977552e+003, 9.756687e-002
2.979481e+003, 9.775680e-002
2.981409e+003, 9.806168e-002
2.983338e+003, 9.886481e-002
2.985266e+003, 9.973598e-002
2.987195e+003, 1.003341e-001
2.989123e+003, 9.997576e-002
2.991052e+003, 9.961610e-002
2.992980e+003, 1.001287e-001
2.994909e+003, 1.016644e-001
2.996837e+003, 1.026935e-001
2.998766e+003, 1.027856e-001
3.000694e+003, 1.024595e-001
3.002623e+003, 1.031399e-001
3.004551e+003, 1.046808e-001
3.006479e+003, 1.055525e-001
3.008408e+003, 1.060346e-001
3.010336e+003, 1.067906e-001
3.012265e+003, 1.074396e-001
3.014193e+003, 1.079361e-001
3.016122e+003, 1.087709e-001
3.018050e+003, 1.095708e-001
3.019979e+003, 1.107756e-001
3.021907e+003, 1.118480e-001
3.023836e+003, 1.120433e-001
3.025764e+003, 1.128931e-001
3.027693e+003, 1.137339e-001
3.029621e+003, 1.148195e-001
3.031550e+003, 1.157803e-001
3.033478e+003, 1.163920e-001
3.035406e+003, 1.175424e-001
3.037335e+003, 1.185283e-001
3.039263e+003, 1.195769e-001
3.041192e+003, 1.202291e-001
3.043120e+003, 1.212440e-001
3.045049e+003, 1.224818e-001
3.046977e+003, 1.237409e-001
3.048906e+003, 1.244595e-001
3.050834e+003, 1.251654e-001
3.052763e+003, 1.266341e-001
3.054691e+003, 1.273220e-001
3.056620e+003, 1.281431e-001
3.058548e+003, 1.289705e-001
3.060477e+003, 1.291718e-001
3.062405e+003, 1.293250e-001
3.064333e+003, 1.298834e-001
3.066262e+003, 1.312641e-001
3.068190e+003, 1.323215e-001
3.070119e+003, 1.331971e-001
3.072047e+003, 1.339212e-001
3.073976e+003, 1.344563e-001
3.075904e+003, 1.348711e-001
3.077833e+003, 1.351347e-001
3.079761e+003, 1.359850e-001
3.081690e+003, 1.371291e-001
3.083618e+003, 1.377191e-001
3.085547e+003, 1.381121e-001
3.087475e+003, 1.389295e-001
3.089404e+003, 1.401673e-001
3.091332e+003, 1.412406e-001
3.093260e+003, 1.418913e-001
3.095189e+003, 1.428184e-001
3.097117e+003, 1.442094e-001
3.099046e+003, 1.445656e-001
3.100974e+003, 1.452511e-001
3.102903e+003, 1.463790e-001
3.104831e+003, 1.475931e-001
3.106760e+003, 1.490085e-001
3.108688e+003, 1.501131e-001
3.110617e+003, 1.512599e-001
3.112545e+003, 1.531635e-001
3.114474e+003, 1.544728e-001
3.116402e+003, 1.551431e-001
3.118331e+003, 1.569568e-001
3.120259e+003, 1.584782e-001
3.122188e+003, 1.601602e-001
3.124116e+003, 1.620783e-001
3.126044e+003, 1.632204e-001
3.127973e+003, 1.641960e-001
3.129901e+003, 1.663144e-001
3.131830e+003, 1.690323e-001
3.133758e+003, 1.713838e-001
3.135687e+003, 1.729832e-001
3.137615e+003, 1.739397e-001
3.139544e+003, 1.760158e-001
3.141472e+003, 1.788011e-001
3.143401e+003, 1.805626e-001
3.145329e+003, 1.821601e-001
3.147258e+003, 1.848012e-001
3.149186e+003, 1.871587e-001
3.151115e+003, 1.887783e-001
3.153043e+003, 1.908477e-001
3.154971e+003, 1.933961e-001
3.156900e+003, 1.953005e-001
3.158828e+003, 1.971889e-001
3.160757e+003, 1.994737e-001
3.162685e+003, 2.021499e-001
3.164614e+003, 2.048371e-001
3.166542e+003, 2.070993e-001
3.168471e+003, 2.090316e-001
3.170399e+003, 2.107331e-001
3.172328e+003, 2.127360e-001
3.174256e+003, 2.143088e-001
3.176185e+003, 2.159024e-001
3.178113e+003, 2.180798e-001
3.180042e+003, 2.202496e-001
3.181970e+003, 2.214235e-001
3.183898e+003, 2.219878e-001
3.185827e+003, 2.234804e-001
3.187755e+003, 2.251276e-001
3.189684e+003, 2.265453e-001
3.191612e+003, 2.276030e-001
3.193541e+003, 2.281570e-001
3.195469e+003, 2.286480e-001
3.197398e+003, 2.294826e-001
3.199326e+003, 2.296465e-001
3.201255e+003, 2.298025e-001
3.203183e+003, 2.307179e-001
3.205112e+003, 2.313142e-001
3.207040e+003, 2.318717e-001
3.208969e+003, 2.320586e-001
3.210897e+003, 2.315555e-001
3.212825e+003, 2.315197e-001
3.214754e+003, 2.325563e-001
3.216682e+003, 2.336149e-001
3.218611e+003, 2.339285e-001
3.220539e+003, 2.336069e-001
3.222468e+003, 2.338323e-001
3.224396e+003, 2.341859e-001
3.226325e+003, 2.348201e-001
3.228253e+003, 2.353930e-001
3.230182e+003, 2.359880e-001
3.232110e+003, 2.362315e-001
3.234039e+003, 2.363998e-001
3.235967e+003, 2.370559e-001
3.237896e+003, 2.376404e-001
3.239824e+003, 2.385246e-001
3.241752e+003, 2.390284e-001
3.243681e+003, 2.384886e-001
3.245609e+003, 2.388486e-001
3.247538e+003, 2.403435e-001
3.249466e+003, 2.415610e-001
3.251395e+003, 2.423981e-001
3.253323e+003, 2.423588e-001
3.255252e+003, 2.424448e-001
3.257180e+003, 2.435202e-001
3.259109e+003, 2.442496e-001
3.261037e+003, 2.439163e-001
3.262966e+003, 2.430067e-001
3.264894e+003, 2.421757e-001
3.266823e+003, 2.414774e-001
3.268751e+003, 2.405400e-001
3.270679e+003, 2.390693e-001
3.272608e+003, 2.379353e-001
3.274536e+003, 2.368825e-001
3.276465e+003, 2.356988e-001
3.278393e+003, 2.338103e-001
3.280322e+003, 2.329081e-001
3.282250e+003, 2.318490e-001
3.284179e+003, 2.304067e-001
3.286107e+003, 2.296759e-001
3.288036e+003, 2.290386e-001
3.289964e+003, 2.271098e-001
3.291893e+003, 2.257657e-001
3.293821e+003, 2.241478e-001
3.295750e+003, 2.230092e-001
3.297678e+003, 2.224198e-001
3.299606e+003, 2.207997e-001
3.301535e+003, 2.192304e-001
3.303463e+003, 2.174853e-001
3.305392e+003, 2.158599e-001
3.307320e+003, 2.144617e-001
3.309249e+003, 2.136613e-001
3.311177e+003, 2.123771e-001
3.313106e+003, 2.107701e-001
3.315034e+003, 2.100662e-001
3.316963e+003, 2.096003e-001
3.318891e+003, 2.093761e-001
3.320820e+003, 2.091035e-001
3.322748e+003, 2.091510e-001
3.324677e+003, 2.081911e-001
3.326605e+003, 2.075005e-001
3.328533e+003, 2.076978e-001
3.330462e+003, 2.079035e-001
3.332390e+003, 2.072044e-001
3.334319e+003, 2.066828e-001
3.336247e+003, 2.061587e-001
3.338176e+003, 2.064847e-001
3.340104e+003, 2.061404e-001
3.342033e+003, 2.050930e-001
3.343961e+003, 2.041685e-001
3.345890e+003, 2.038160e-001
3.347818e+003, 2.030695e-001
3.349747e+003, 2.018515e-001
3.351675e+003, 2.011226e-001
3.353604e+003, 2.005656e-001
3.355532e+003, 1.998543e-001
3.357460e+003, 1.989932e-001
3.359389e+003, 1.973365e-001
3.361317e+003, 1.953159e-001
3.363246e+003, 1.934581e-001
3.365174e+003, 1.920923e-001
3.367103e+003, 1.911172e-001
3.369031e+003, 1.904215e-001
3.370960e+003, 1.890275e-001
3.372888e+003, 1.871835e-001
3.374817e+003, 1.852413e-001
3.376745e+003, 1.839567e-001
3.378674e+003, 1.829993e-001
3.380602e+003, 1.813785e-001
3.382531e+003, 1.793837e-001
3.384459e+003, 1.778890e-001
3.386387e+003, 1.766231e-001
3.388316e+003, 1.752160e-001
3.390244e+003, 1.736842e-001
3.392173e+003, 1.728591e-001
3.394101e+003, 1.721974e-001
3.396030e+003, 1.713387e-001
3.397958e+003, 1.700433e-001
3.399887e+003, 1.691833e-001
3.401815e+003, 1.688806e-001
3.403744e+003, 1.684262e-001
3.405672e+003, 1.677583e-001
3.407601e+003, 1.678510e-001
3.409529e+003, 1.680006e-001
3.411458e+003, 1.684916e-001
3.413386e+003, 1.692144e-001
3.415314e+003, 1.691249e-001
3.417243e+003, 1.693185e-001
3.419171e+003, 1.707369e-001
3.421100e+003, 1.714178e-001
3.423028e+003, 1.709046e-001
3.424957e+003, 1.714036e-001
3.426885e+003, 1.728690e-001
3.428814e+003, 1.737689e-001
3.430742e+003, 1.748375e-001
3.432671e+003, 1.753654e-001
3.434599e+003, 1.756774e-001
3.436528e+003, 1.755634e-001
3.438456e+003, 1.755228e-001
3.440385e+003, 1.743716e-001
3.442313e+003, 1.730687e-001
3.444241e+003, 1.723387e-001
3.446170e+003, 1.708398e-001
3.448098e+003, 1.693435e-001
3.450027e+003, 1.677687e-001
3.451955e+003, 1.651789e-001
3.453884e+003, 1.622369e-001
3.455812e+003, 1.607401e-001
3.457741e+003, 1.595910e-001
3.459669e+003, 1.567596e-001
3.461598e+003, 1.531460e-001
3.463526e+003, 1.508758e-001
3.465455e+003, 1.497335e-001
3.467383e+003, 1.499780e-001
3.469312e+003, 1.492740e-001
3.471240e+003, 1.472218e-001
3.473168e+003, 1.465843e-001
3.475097e+003, 1.449226e-001
3.477025e+003, 1.430899e-001
3.478954e+003, 1.409303e-001
3.480882e+003, 1.387687e-001
3.482811e+003, 1.366449e-001
3.484739e+003, 1.325347e-001
3.486668e+003, 1.274700e-001
3.488596e+003, 1.221779e-001
3.490525e+003, 1.174472e-001
3.492453e+003, 1.128930e-001
3.494382e+003, 1.072594e-001
3.496310e+003, 1.023441e-001
3.498239e+003, 9.788788e-002
3.500167e+003, 9.400193e-002
3.502095e+003, 9.004080e-002
3.504024e+003, 8.539063e-002
3.505952e+003, 8.121686e-002
3.507881e+003, 7.782827e-002
3.509809e+003, 7.435314e-002
3.511738e+003, 7.121187e-002
3.513666e+003, 6.865866e-002
3.515595e+003, 6.628847e-002
3.517523e+003, 6.410845e-002
3.519452e+003, 6.238523e-002
3.521380e+003, 5.975012e-002
3.523309e+003, 5.716471e-002
3.525237e+003, 5.523903e-002
3.527166e+003, 5.320191e-002
3.529094e+003, 5.099653e-002
3.531022e+003, 5.025469e-002
3.532951e+003, 4.926190e-002
3.534879e+003, 4.706318e-002
3.536808e+003, 4.551876e-002
3.538736e+003, 4.433709e-002
3.540665e+003, 4.334341e-002
3.542593e+003, 4.355037e-002
3.544522e+003, 4.363650e-002
3.546450e+003, 4.314918e-002
3.548379e+003, 4.324698e-002
3.550307e+003, 4.428253e-002
3.552236e+003, 4.428814e-002
3.554164e+003, 4.396376e-002
3.556093e+003, 4.490930e-002
3.558021e+003, 4.717387e-002
3.559949e+003, 5.020059e-002
3.561878e+003, 5.252652e-002
3.563806e+003, 5.550335e-002
3.565735e+003, 5.755240e-002
3.567663e+003, 5.868831e-002
3.569592e+003, 6.038620e-002
3.571520e+003, 6.172463e-002
3.573449e+003, 6.157645e-002
3.575377e+003, 5.947170e-002
3.577306e+003, 5.644386e-002
3.579234e+003, 5.280859e-002
3.581163e+003, 4.902617e-002
3.583091e+003, 4.640438e-002
3.585020e+003, 4.290718e-002
3.586948e+003, 3.857842e-002
3.588876e+003, 3.474693e-002
3.590805e+003, 3.165434e-002
3.592733e+003, 2.891868e-002
3.594662e+003, 2.614372e-002
3.596590e+003, 2.353455e-002
3.598519e+003, 2.157626e-002
3.600447e+003, 2.009411e-002
3.602376e+003, 2.010266e-002
3.604304e+003, 2.063712e-002
3.606233e+003, 2.134857e-002
3.608161e+003, 2.450255e-002
3.610090e+003, 2.841513e-002
3.612018e+003, 3.421341e-002
3.613947e+003, 4.610287e-002
3.615875e+003, 6.549241e-002
3.617803e+003, 8.649254e-002
3.619732e+003, 8.340360e-002
3.621660e+003, 5.238520e-002
3.623589e+003, 2.455297e-002
3.625517e+003, 9.636754e-003
3.627446e+003, 3.020589e-003
3.629374e+003, 1.044368e-004
3.631303e+003, -2.283653e-003
3.633231e+003, -3.697067e-003
3.635160e+003, -4.291973e-003
3.637088e+003, -4.640734e-003
3.639017e+003, -5.280266e-003
3.640945e+003, -6.099656e-003
3.642874e+003, -7.539335e-003
3.644802e+003, -8.742783e-003
3.646730e+003, -8.348335e-003
3.648659e+003, -7.285145e-003
3.650587e+003, -7.876725e-003
3.652516e+003, -9.558939e-003
3.654444e+003, -1.037383e-002
3.656373e+003, -1.024574e-002
3.658301e+003, -1.023951e-002
3.660230e+003, -1.103774e-002
3.662158e+003, -1.131024e-002
3.664087e+003, -1.134963e-002
3.666015e+003, -1.162951e-002
3.667944e+003, -1.204739e-002
3.669872e+003, -1.184533e-002
3.671801e+003, -1.223835e-002
3.673729e+003, -1.116286e-002
3.675657e+003, -1.072123e-002
3.677586e+003, -1.136801e-002
3.679514e+003, -1.250240e-002
3.681443e+003, -1.331872e-002
3.683371e+003, -1.254453e-002
3.685300e+003, -1.180407e-002
3.687228e+003, -1.157038e-002
3.689157e+003, -1.153826e-002
3.691085e+003, -1.152065e-002
3.693014e+003, -1.120291e-002
3.694942e+003, -1.165261e-002
3.696871e+003, -1.176841e-002
3.698799e+003, -1.192471e-002
3.700728e+003, -1.154388e-002
3.702656e+003, -1.227134e-002
3.704584e+003, -1.356043e-002
3.706513e+003, -1.358873e-002
3.708441e+003, -1.222942e-002
3.710370e+003, -1.224765e-002
3.712298e+003, -1.196010e-002
3.714227e+003, -1.067696e-002
3.716155e+003, -1.029929e-002
3.718084e+003, -1.161539e-002
3.720012e+003, -1.276585e-002
3.721941e+003, -1.295456e-002
3.723869e+003, -1.234723e-002
3.725798e+003, -1.087957e-002
3.727726e+003, -1.036325e-002
3.729655e+003, -1.157190e-002
3.731583e+003, -1.115164e-002
3.733511e+003, -1.080519e-002
3.735440e+003, -1.182688e-002
3.737368e+003, -1.227833e-002
3.739297e+003, -1.267703e-002
3.741225e+003, -1.252577e-002
3.743154e+003, -1.205086e-002
3.745082e+003, -1.272121e-002
3.747011e+003, -1.235537e-002
3.748939e+003, -1.087978e-002
3.750868e+003, -1.065934e-002
3.752796e+003, -1.198647e-002
3.754725e+003, -1.247088e-002
3.756653e+003, -1.150947e-002
3.758582e+003, -1.124777e-002
3.760510e+003, -1.098206e-002
3.762438e+003, -1.096579e-002
3.764367e+003, -1.198183e-002
3.766295e+003, -1.185494e-002
3.768224e+003, -1.111949e-002
3.770152e+003, -1.105424e-002
3.772081e+003, -1.104712e-002
3.774009e+003, -1.081281e-002
3.775938e+003, -1.245726e-002
3.777866e+003, -1.386097e-002
3.779795e+003, -1.341237e-002
3.781723e+003, -1.288609e-002
3.783652e+003, -1.179896e-002
3.785580e+003, -1.150632e-002
3.787509e+003, -1.242429e-002
3.789437e+003, -1.277626e-002
3.791365e+003, -1.190737e-002
3.793294e+003, -1.148814e-002
3.795222e+003, -1.132665e-002
3.797151e+003, -1.156532e-002
3.799079e+003, -1.122030e-002
3.801008e+003, -1.078151e-002
3.802936e+003, -1.133321e-002
3.804865e+003, -1.121350e-002
3.806793e+003, -1.141964e-002
3.808722e+003, -1.101456e-002
3.810650e+003, -1.102655e-002
3.812579e+003, -1.137844e-002
3.814507e+003, -1.126044e-002
3.816436e+003, -1.165218e-002
3.818364e+003, -1.228710e-002
3.820292e+003, -1.164083e-002
3.822221e+003, -1.186829e-002
3.824149e+003, -1.239316e-002
3.826078e+003, -1.165521e-002
3.828006e+003, -1.079535e-002
3.829935e+003, -1.085323e-002
3.831863e+003, -1.152925e-002
3.833792e+003, -1.235837e-002
3.835720e+003, -1.254372e-002
3.837649e+003, -1.111955e-002
3.839577e+003, -9.363435e-003
3.841506e+003, -8.846215e-003
3.843434e+003, -1.058595e-002
3.845363e+003, -1.224596e-002
3.847291e+003, -1.237181e-002
3.849219e+003, -1.211466e-002
3.851148e+003, -1.142878e-002
3.853076e+003, -1.085265e-002
3.855005e+003, -1.198425e-002
3.856933e+003, -1.252003e-002
3.858862e+003, -1.239735e-002
3.860790e+003, -1.159245e-002
3.862719e+003, -1.159480e-002
3.864647e+003, -1.250822e-002
3.866576e+003, -1.280830e-002
3.868504e+003, -1.258673e-002
3.870433e+003, -1.237444e-002
3.872361e+003, -1.268715e-002
3.874290e+003, -1.215190e-002
3.876218e+003, -1.220869e-002
3.878146e+003, -1.192477e-002
3.880075e+003, -1.189355e-002
3.882003e+003, -1.256770e-002
3.883932e+003, -1.237785e-002
3.885860e+003, -1.133905e-002
3.887789e+003, -1.158751e-002
3.889717e+003, -1.244629e-002
3.891646e+003, -1.204179e-002
3.893574e+003, -1.160025e-002
3.895503e+003, -1.228271e-002
3.897431e+003, -1.171831e-002
3.899360e+003, -1.100002e-002
3.901288e+003, -1.147556e-002
3.903217e+003, -1.166362e-002
3.905145e+003, -1.167838e-002
3.907073e+003, -1.132230e-002
3.909002e+003, -1.134783e-002
3.910930e+003, -1.092588e-002
3.912859e+003, -1.131471e-002
3.914787e+003, -1.155812e-002
3.916716e+003, -1.118608e-002
3.918644e+003, -1.116965e-002
3.920573e+003, -1.110944e-002
3.922501e+003, -1.053038e-002
3.924430e+003, -1.165716e-002
3.926358e+003, -1.285534e-002
3.928287e+003, -1.173737e-002
3.930215e+003, -1.148469e-002
3.932144e+003, -1.058650e-002
3.934072e+003, -1.018615e-002
3.936000e+003, -1.089844e-002
3.937929e+003, -1.127984e-002
3.939857e+003, -1.159151e-002
3.941786e+003, -1.161715e-002
3.943714e+003, -1.188418e-002
3.945643e+003, -1.190440e-002
3.947571e+003, -1.153268e-002
3.949500e+003, -1.231519e-002
3.951428e+003, -1.213072e-002
3.953357e+003, -1.104318e-002
3.955285e+003, -1.088551e-002
3.957214e+003, -1.128177e-002
3.959142e+003, -1.094549e-002
3.961071e+003, -1.057530e-002
3.962999e+003, -1.010558e-002
3.964927e+003, -1.070659e-002
3.966856e+003, -1.115690e-002
3.968784e+003, -1.179180e-002
3.970713e+003, -1.211959e-002
3.972641e+003, -1.208402e-002
3.974570e+003, -1.100015e-002
3.976498e+003, -9.576390e-003
3.978427e+003, -1.062433e-002
3.980355e+003, -1.190570e-002
3.982284e+003, -1.131823e-002
3.984212e+003, -1.192478e-002
3.986141e+003, -1.372534e-002
3.988069e+003, -1.314007e-002
3.989998e+003, -1.064970e-002
3.991926e+003, -1.018847e-002
3.993854e+003, -1.006483e-002
3.995783e+003, -1.079612e-002
3.997711e+003, -1.158216e-002
3.999640e+003, -1.124000e-002
##END=



