##NAMES=Jadeite
##RRUFFID=R050220
##IDEAL CHEMISTRY=NaAlSi_2_O_6_
##LOCALITY=Clear Creek, San Benito County, California, USA
##OWNER=RRUFF
##SOURCE=Hatt Yoder
##DESCRIPTION=Aggregate of colorless bladed crystals
##STATUS=The identification of this mineral has been confirmed by X-ray diffraction and chemical analysis
##URL=rruff.info/R050220
##MEASURED CHEMISTRY=Na_1.00_Al_1.00_(Si_0.99_Al_0.01_)_2_O_6_
3.991926e+002, 0.000000e+000
4.011211e+002, 1.783058e-001
4.030496e+002, 1.791386e-001
4.049780e+002, 1.769364e-001
4.069065e+002, 1.789261e-001
4.088350e+002, 1.859849e-001
4.107634e+002, 1.976310e-001
4.126919e+002, 2.144537e-001
4.146204e+002, 2.218401e-001
4.165488e+002, 2.335838e-001
4.184773e+002, 2.477560e-001
4.204058e+002, 2.522369e-001
4.223342e+002, 2.581389e-001
4.242627e+002, 2.675555e-001
4.261912e+002, 2.767166e-001
4.281196e+002, 2.866423e-001
4.300481e+002, 2.876720e-001
4.319766e+002, 2.844512e-001
4.339050e+002, 2.850118e-001
4.358335e+002, 2.803792e-001
4.377620e+002, 2.705432e-001
4.396904e+002, 2.598053e-001
4.416189e+002, 2.493922e-001
4.435474e+002, 2.473840e-001
4.454758e+002, 2.514234e-001
4.474043e+002, 2.594824e-001
4.493328e+002, 2.670423e-001
4.512612e+002, 2.735379e-001
4.531897e+002, 2.761441e-001
4.551182e+002, 2.792005e-001
4.570466e+002, 2.813619e-001
4.589751e+002, 2.793452e-001
4.609036e+002, 2.754515e-001
4.628320e+002, 2.725499e-001
4.647605e+002, 2.698838e-001
4.666890e+002, 2.664495e-001
4.686174e+002, 2.609296e-001
4.705459e+002, 2.559054e-001
4.724744e+002, 2.502044e-001
4.744028e+002, 2.431429e-001
4.763313e+002, 2.377752e-001
4.782598e+002, 2.339634e-001
4.801882e+002, 2.281061e-001
4.821167e+002, 2.239209e-001
4.840452e+002, 2.228301e-001
4.859736e+002, 2.217871e-001
4.879021e+002, 2.202485e-001
4.898306e+002, 2.206206e-001
4.917590e+002, 2.212831e-001
4.936875e+002, 2.204643e-001
4.956160e+002, 2.175443e-001
4.975444e+002, 2.158545e-001
4.994729e+002, 2.150986e-001
5.014014e+002, 2.130459e-001
5.033298e+002, 2.091067e-001
5.052583e+002, 2.064176e-001
5.071868e+002, 2.039746e-001
5.091152e+002, 2.005522e-001
5.110437e+002, 1.966256e-001
5.129722e+002, 1.929052e-001
5.149006e+002, 1.893200e-001
5.168291e+002, 1.855714e-001
5.187576e+002, 1.819692e-001
5.206860e+002, 1.781796e-001
5.226145e+002, 1.746598e-001
5.245430e+002, 1.715986e-001
5.264714e+002, 1.684534e-001
5.283999e+002, 1.642844e-001
5.303284e+002, 1.594519e-001
5.322568e+002, 1.540736e-001
5.341853e+002, 1.487582e-001
5.361138e+002, 1.429005e-001
5.380422e+002, 1.368821e-001
5.399707e+002, 1.311781e-001
5.418992e+002, 1.251405e-001
5.438276e+002, 1.183431e-001
5.457561e+002, 1.127593e-001
5.476846e+002, 1.086312e-001
5.496130e+002, 1.053852e-001
5.515415e+002, 1.033077e-001
5.534700e+002, 1.028986e-001
5.553984e+002, 1.038334e-001
5.573269e+002, 1.062831e-001
5.592554e+002, 1.106764e-001
5.611838e+002, 1.165648e-001
5.631123e+002, 1.234074e-001
5.650408e+002, 1.310591e-001
5.669692e+002, 1.392696e-001
5.688977e+002, 1.477556e-001
5.708262e+002, 1.562100e-001
5.727546e+002, 1.640118e-001
5.746831e+002, 1.702308e-001
5.766116e+002, 1.748484e-001
5.785400e+002, 1.785038e-001
5.804685e+002, 1.807638e-001
5.823970e+002, 1.814231e-001
5.843254e+002, 1.803565e-001
5.862539e+002, 1.778259e-001
5.881824e+002, 1.738205e-001
5.901108e+002, 1.686142e-001
5.920393e+002, 1.624590e-001
5.939678e+002, 1.558861e-001
5.958962e+002, 1.489554e-001
5.978247e+002, 1.417441e-001
5.997532e+002, 1.347508e-001
6.016816e+002, 1.274781e-001
6.036101e+002, 1.202469e-001
6.055386e+002, 1.137967e-001
6.074670e+002, 1.075299e-001
6.093955e+002, 1.014948e-001
6.113240e+002, 9.528478e-002
6.132524e+002, 8.912805e-002
6.151809e+002, 8.311468e-002
6.171094e+002, 7.729035e-002
6.190378e+002, 7.127784e-002
6.209663e+002, 6.536197e-002
6.228948e+002, 5.982631e-002
6.248232e+002, 5.450752e-002
6.267517e+002, 4.961009e-002
6.286802e+002, 4.522920e-002
6.306086e+002, 4.179028e-002
6.325371e+002, 3.888877e-002
6.344656e+002, 3.672088e-002
6.363940e+002, 3.518669e-002
6.383225e+002, 3.388747e-002
6.402510e+002, 3.290662e-002
6.421794e+002, 3.251685e-002
6.441079e+002, 3.266313e-002
6.460364e+002, 3.316222e-002
6.479648e+002, 3.380754e-002
6.498933e+002, 3.494466e-002
6.518218e+002, 3.676168e-002
6.537502e+002, 3.935560e-002
6.556787e+002, 4.278945e-002
6.576072e+002, 4.719453e-002
6.595356e+002, 5.257644e-002
6.614641e+002, 5.770736e-002
6.633926e+002, 6.096059e-002
6.653210e+002, 6.071509e-002
6.672495e+002, 5.752872e-002
6.691780e+002, 5.259962e-002
6.711064e+002, 4.707185e-002
6.730349e+002, 4.234403e-002
6.749634e+002, 3.869848e-002
6.768918e+002, 3.599792e-002
6.788203e+002, 3.396427e-002
6.807488e+002, 3.231342e-002
6.826772e+002, 3.132395e-002
6.846057e+002, 3.052795e-002
6.865342e+002, 2.981339e-002
6.884626e+002, 2.953680e-002
6.903911e+002, 2.934564e-002
6.923196e+002, 2.965191e-002
6.942480e+002, 2.988465e-002
6.961765e+002, 2.965306e-002
6.981050e+002, 2.945366e-002
7.000334e+002, 2.974382e-002
7.019619e+002, 3.003035e-002
7.038904e+002, 3.010555e-002
7.058188e+002, 3.049914e-002
7.077473e+002, 3.073030e-002
7.096758e+002, 3.084364e-002
7.116042e+002, 3.117846e-002
7.135327e+002, 3.173031e-002
7.154612e+002, 3.226056e-002
7.173896e+002, 3.274278e-002
7.193181e+002, 3.331454e-002
7.212466e+002, 3.394835e-002
7.231750e+002, 3.441085e-002
7.251035e+002, 3.496484e-002
7.270320e+002, 3.578060e-002
7.289604e+002, 3.701612e-002
7.308889e+002, 3.820689e-002
7.328174e+002, 3.917659e-002
7.347458e+002, 4.087417e-002
7.366743e+002, 4.318344e-002
7.386028e+002, 4.617032e-002
7.405313e+002, 4.975727e-002
7.424597e+002, 5.422924e-002
7.443882e+002, 5.955501e-002
7.463167e+002, 6.411694e-002
7.482451e+002, 6.471222e-002
7.501736e+002, 6.014362e-002
7.521021e+002, 5.375838e-002
7.540305e+002, 4.841082e-002
7.559590e+002, 4.497324e-002
7.578875e+002, 4.323726e-002
7.598159e+002, 4.218880e-002
7.617444e+002, 4.148911e-002
7.636729e+002, 4.112292e-002
7.656013e+002, 4.113987e-002
7.675298e+002, 4.140610e-002
7.694583e+002, 4.170119e-002
7.713867e+002, 4.185956e-002
7.733152e+002, 4.221380e-002
7.752437e+002, 4.251495e-002
7.771721e+002, 4.246324e-002
7.791006e+002, 4.267490e-002
7.810291e+002, 4.322005e-002
7.829575e+002, 4.383030e-002
7.848860e+002, 4.432985e-002
7.868145e+002, 4.483375e-002
7.887429e+002, 4.556341e-002
7.906714e+002, 4.639913e-002
7.925999e+002, 4.725528e-002
7.945283e+002, 4.826671e-002
7.964568e+002, 4.958132e-002
7.983853e+002, 5.100079e-002
8.003137e+002, 5.229939e-002
8.022422e+002, 5.362357e-002
8.041707e+002, 5.522704e-002
8.060991e+002, 5.708931e-002
8.080276e+002, 5.926584e-002
8.099561e+002, 6.127814e-002
8.118845e+002, 6.307901e-002
8.138130e+002, 6.528422e-002
8.157415e+002, 6.763907e-002
8.176699e+002, 7.057085e-002
8.195984e+002, 7.360562e-002
8.215269e+002, 7.680663e-002
8.234553e+002, 8.023340e-002
8.253838e+002, 8.413472e-002
8.273123e+002, 8.828363e-002
8.292407e+002, 9.245052e-002
8.311692e+002, 9.706566e-002
8.330977e+002, 1.022513e-001
8.350261e+002, 1.084936e-001
8.369546e+002, 1.155504e-001
8.388831e+002, 1.229503e-001
8.408115e+002, 1.304948e-001
8.427400e+002, 1.385900e-001
8.446685e+002, 1.469799e-001
8.465969e+002, 1.555924e-001
8.485254e+002, 1.640268e-001
8.504539e+002, 1.717444e-001
8.523823e+002, 1.772969e-001
8.543108e+002, 1.796359e-001
8.562393e+002, 1.783191e-001
8.581677e+002, 1.735299e-001
8.600962e+002, 1.665009e-001
8.620247e+002, 1.591248e-001
8.639531e+002, 1.527606e-001
8.658816e+002, 1.481314e-001
8.678101e+002, 1.459273e-001
8.697385e+002, 1.457518e-001
8.716670e+002, 1.472567e-001
8.735955e+002, 1.499701e-001
8.755239e+002, 1.535538e-001
8.774524e+002, 1.574051e-001
8.793809e+002, 1.615153e-001
8.813093e+002, 1.656443e-001
8.832378e+002, 1.700285e-001
8.851663e+002, 1.751743e-001
8.870947e+002, 1.803248e-001
8.890232e+002, 1.851263e-001
8.909517e+002, 1.899773e-001
8.928801e+002, 1.945845e-001
8.948085e+002, 1.987244e-001
8.967370e+002, 2.027650e-001
8.986655e+002, 2.065410e-001
9.005939e+002, 2.100821e-001
9.025224e+002, 2.133934e-001
9.044509e+002, 2.165830e-001
9.063793e+002, 2.191883e-001
9.083078e+002, 2.215841e-001
9.102363e+002, 2.238093e-001
9.121647e+002, 2.256866e-001
9.140932e+002, 2.271703e-001
9.160217e+002, 2.282213e-001
9.179501e+002, 2.286987e-001
9.198786e+002, 2.287950e-001
9.218071e+002, 2.283316e-001
9.237355e+002, 2.273785e-001
9.256640e+002, 2.263018e-001
9.275925e+002, 2.247060e-001
9.295209e+002, 2.224795e-001
9.314494e+002, 2.197102e-001
9.333779e+002, 2.166985e-001
9.353063e+002, 2.134140e-001
9.372348e+002, 2.100916e-001
9.391633e+002, 2.065930e-001
9.410917e+002, 2.026665e-001
9.430202e+002, 1.990071e-001
9.449487e+002, 1.958891e-001
9.468771e+002, 1.931156e-001
9.488056e+002, 1.903583e-001
9.507341e+002, 1.881425e-001
9.526625e+002, 1.863997e-001
9.545910e+002, 1.852860e-001
9.565195e+002, 1.850091e-001
9.584479e+002, 1.856202e-001
9.603764e+002, 1.870324e-001
9.623049e+002, 1.896861e-001
9.642333e+002, 1.931576e-001
9.661618e+002, 1.972522e-001
9.680903e+002, 2.023641e-001
9.700187e+002, 2.083566e-001
9.719472e+002, 2.151622e-001
9.738757e+002, 2.224964e-001
9.758041e+002, 2.304331e-001
9.777326e+002, 2.390880e-001
9.796611e+002, 2.480189e-001
9.815895e+002, 2.564654e-001
9.835180e+002, 2.634572e-001
9.854465e+002, 2.682809e-001
9.873749e+002, 2.711718e-001
9.893034e+002, 2.721542e-001
9.912319e+002, 2.717091e-001
9.931603e+002, 2.705374e-001
9.950888e+002, 2.688812e-001
9.970173e+002, 2.665064e-001
9.989457e+002, 2.634607e-001
1.000874e+003, 2.601962e-001
1.002803e+003, 2.567436e-001
1.004731e+003, 2.530819e-001
1.006660e+003, 2.491514e-001
1.008588e+003, 2.453405e-001
1.010517e+003, 2.418623e-001
1.012445e+003, 2.385181e-001
1.014373e+003, 2.352604e-001
1.016302e+003, 2.325179e-001
1.018230e+003, 2.300702e-001
1.020159e+003, 2.280241e-001
1.022087e+003, 2.265712e-001
1.024016e+003, 2.254879e-001
1.025944e+003, 2.244754e-001
1.027873e+003, 2.239023e-001
1.029801e+003, 2.236561e-001
1.031730e+003, 2.242508e-001
1.033658e+003, 2.255464e-001
1.035587e+003, 2.269282e-001
1.037515e+003, 2.284732e-001
1.039444e+003, 2.300217e-001
1.041372e+003, 2.313046e-001
1.043301e+003, 2.319324e-001
1.045229e+003, 2.312628e-001
1.047157e+003, 2.289646e-001
1.049086e+003, 2.242179e-001
1.051014e+003, 2.164364e-001
1.052943e+003, 2.071720e-001
1.054871e+003, 2.001486e-001
1.056800e+003, 1.978941e-001
1.058728e+003, 1.988458e-001
1.060657e+003, 1.998792e-001
1.062585e+003, 1.996133e-001
1.064514e+003, 1.975913e-001
1.066442e+003, 1.938015e-001
1.068371e+003, 1.888986e-001
1.070299e+003, 1.832019e-001
1.072228e+003, 1.767819e-001
1.074156e+003, 1.702443e-001
1.076084e+003, 1.641107e-001
1.078013e+003, 1.580115e-001
1.079941e+003, 1.520589e-001
1.081870e+003, 1.466915e-001
1.083798e+003, 1.416032e-001
1.085727e+003, 1.364234e-001
1.087655e+003, 1.314876e-001
1.089584e+003, 1.268003e-001
1.091512e+003, 1.222451e-001
1.093441e+003, 1.177133e-001
1.095369e+003, 1.135294e-001
1.097298e+003, 1.098814e-001
1.099226e+003, 1.065471e-001
1.101155e+003, 1.036535e-001
1.103083e+003, 1.013703e-001
1.105011e+003, 9.914485e-002
1.106940e+003, 9.704575e-002
1.108868e+003, 9.533887e-002
1.110797e+003, 9.353729e-002
1.112725e+003, 9.168272e-002
1.114654e+003, 9.032560e-002
1.116582e+003, 8.900791e-002
1.118511e+003, 8.734984e-002
1.120439e+003, 8.547005e-002
1.122368e+003, 8.346284e-002
1.124296e+003, 8.180650e-002
1.126225e+003, 8.013897e-002
1.128153e+003, 7.810754e-002
1.130082e+003, 7.607960e-002
1.132010e+003, 7.411962e-002
1.133938e+003, 7.202864e-002
1.135867e+003, 6.974771e-002
1.137795e+003, 6.743963e-002
1.139724e+003, 6.512962e-002
1.141652e+003, 6.266145e-002
1.143581e+003, 5.985269e-002
1.145509e+003, 5.672024e-002
1.147438e+003, 5.385058e-002
1.149366e+003, 5.121985e-002
1.151295e+003, 4.832458e-002
1.153223e+003, 4.532639e-002
1.155152e+003, 4.248258e-002
1.157080e+003, 3.970543e-002
1.159009e+003, 3.696898e-002
1.160937e+003, 3.432838e-002
1.162865e+003, 3.197242e-002
1.164794e+003, 2.974194e-002
1.166722e+003, 2.757592e-002
1.168651e+003, 2.522060e-002
1.170579e+003, 2.286766e-002
1.172508e+003, 2.086419e-002
1.174436e+003, 1.899825e-002
1.176365e+003, 1.734476e-002
1.178293e+003, 1.593377e-002
1.180222e+003, 1.466887e-002
1.182150e+003, 1.334370e-002
1.184079e+003, 1.199465e-002
1.186007e+003, 1.099166e-002
1.187936e+003, 1.032867e-002
1.189864e+003, 9.748311e-003
1.191792e+003, 9.142144e-003
1.193721e+003, 8.597231e-003
1.195649e+003, 8.072626e-003
1.197578e+003, 7.761041e-003
1.199506e+003, 7.269920e-003
1.201435e+003, 6.825767e-003
1.203363e+003, 6.389838e-003
1.205292e+003, 5.980853e-003
1.207220e+003, 5.664967e-003
1.209149e+003, 5.136232e-003
1.211077e+003, 4.739472e-003
1.213006e+003, 4.533663e-003
1.214934e+003, 4.470794e-003
1.216863e+003, 4.382338e-003
1.218791e+003, 4.207205e-003
1.220719e+003, 4.059988e-003
1.222648e+003, 3.754041e-003
1.224576e+003, 3.533721e-003
1.226505e+003, 3.505386e-003
1.228433e+003, 3.439435e-003
1.230362e+003, 3.214868e-003
1.232290e+003, 3.053211e-003
1.234219e+003, 3.033876e-003
1.236147e+003, 3.164538e-003
1.238076e+003, 3.160194e-003
1.240004e+003, 2.732208e-003
1.241933e+003, 2.507304e-003
1.243861e+003, 2.528575e-003
1.245790e+003, 2.605874e-003
1.247718e+003, 2.487692e-003
1.249646e+003, 2.386904e-003
1.251575e+003, 2.377748e-003
1.253503e+003, 2.443485e-003
1.255432e+003, 2.378553e-003
1.257360e+003, 2.259198e-003
1.259289e+003, 2.289440e-003
1.261217e+003, 2.123070e-003
1.263146e+003, 2.072214e-003
1.265074e+003, 1.929887e-003
1.267003e+003, 1.766923e-003
1.268931e+003, 1.800208e-003
1.270860e+003, 1.879706e-003
1.272788e+003, 1.959106e-003
1.274717e+003, 2.164111e-003
1.276645e+003, 2.303169e-003
1.278573e+003, 2.323731e-003
1.280502e+003, 2.093788e-003
1.282430e+003, 1.835198e-003
1.284359e+003, 1.667509e-003
1.286287e+003, 1.515060e-003
1.288216e+003, 1.532468e-003
1.290144e+003, 1.515857e-003
1.292073e+003, 1.657669e-003
1.294001e+003, 1.865793e-003
1.295930e+003, 1.934726e-003
1.297858e+003, 1.900775e-003
1.299787e+003, 1.883903e-003
1.301715e+003, 1.718439e-003
1.303644e+003, 1.659132e-003
1.305572e+003, 1.803079e-003
1.307500e+003, 2.020483e-003
1.309429e+003, 2.175246e-003
1.311357e+003, 2.093052e-003
1.313286e+003, 2.032370e-003
1.315214e+003, 2.078480e-003
1.317143e+003, 2.026418e-003
1.319071e+003, 1.883129e-003
1.321000e+003, 1.721489e-003
1.322928e+003, 1.898924e-003
1.324857e+003, 2.094317e-003
1.326785e+003, 2.001698e-003
1.328714e+003, 1.775451e-003
1.330642e+003, 1.829223e-003
1.332571e+003, 1.824101e-003
1.334499e+003, 1.735151e-003
1.336427e+003, 1.787504e-003
1.338356e+003, 1.725802e-003
1.340284e+003, 1.595603e-003
1.342213e+003, 1.550149e-003
1.344141e+003, 1.552262e-003
1.346070e+003, 1.691911e-003
1.347998e+003, 1.795436e-003
1.349927e+003, 1.816487e-003
1.351855e+003, 1.816232e-003
1.353784e+003, 1.806306e-003
1.355712e+003, 1.798877e-003
1.357641e+003, 1.772478e-003
1.359569e+003, 1.685888e-003
1.361498e+003, 1.576524e-003
1.363426e+003, 1.712277e-003
1.365354e+003, 1.756707e-003
1.367283e+003, 1.719312e-003
1.369211e+003, 1.848322e-003
1.371140e+003, 2.044046e-003
1.373068e+003, 1.898454e-003
1.374997e+003, 1.718572e-003
1.376925e+003, 1.839016e-003
1.378854e+003, 1.999542e-003
1.380782e+003, 2.213161e-003
1.382711e+003, 2.290411e-003
1.384639e+003, 2.193069e-003
1.386568e+003, 2.352037e-003
1.388496e+003, 2.418814e-003
1.390424e+003, 2.402569e-003
1.392353e+003, 2.504873e-003
1.394281e+003, 2.503328e-003
1.396210e+003, 2.683246e-003
1.398138e+003, 2.798861e-003
1.400067e+003, 2.765660e-003
1.401995e+003, 2.831694e-003
1.403924e+003, 3.091164e-003
1.405852e+003, 3.250565e-003
1.407781e+003, 3.378811e-003
1.409709e+003, 3.333035e-003
1.411638e+003, 3.377164e-003
1.413566e+003, 3.298219e-003
1.415495e+003, 3.205580e-003
1.417423e+003, 3.328682e-003
1.419351e+003, 3.357700e-003
1.421280e+003, 3.569445e-003
1.423208e+003, 3.831570e-003
1.425137e+003, 3.811423e-003
1.427065e+003, 3.735532e-003
1.428994e+003, 3.736430e-003
1.430922e+003, 4.010814e-003
1.432851e+003, 4.091383e-003
1.434779e+003, 3.873756e-003
1.436708e+003, 4.030989e-003
1.438636e+003, 4.319419e-003
1.440565e+003, 4.314037e-003
1.442493e+003, 4.389376e-003
1.444422e+003, 4.362281e-003
1.446350e+003, 4.245749e-003
1.448278e+003, 4.209102e-003
1.450207e+003, 4.441883e-003
1.452135e+003, 4.577544e-003
1.454064e+003, 4.399232e-003
1.455992e+003, 4.184413e-003
1.457921e+003, 4.113595e-003
1.459849e+003, 4.156673e-003
1.461778e+003, 4.344881e-003
1.463706e+003, 4.460150e-003
1.465635e+003, 4.266523e-003
1.467563e+003, 4.372342e-003
1.469492e+003, 4.672705e-003
1.471420e+003, 4.665521e-003
1.473349e+003, 4.458829e-003
1.475277e+003, 4.478488e-003
1.477205e+003, 4.512191e-003
1.479134e+003, 4.494057e-003
1.481062e+003, 4.560961e-003
1.482991e+003, 4.314746e-003
1.484919e+003, 4.017948e-003
1.486848e+003, 4.013540e-003
1.488776e+003, 4.008622e-003
1.490705e+003, 3.970675e-003
1.492633e+003, 4.093970e-003
1.494562e+003, 4.024799e-003
1.496490e+003, 3.931304e-003
1.498419e+003, 3.998185e-003
1.500347e+003, 3.982203e-003
1.502276e+003, 3.964473e-003
1.504204e+003, 3.841419e-003
1.506132e+003, 3.708759e-003
1.508061e+003, 3.573121e-003
1.509989e+003, 3.677367e-003
1.511918e+003, 3.749277e-003
1.513846e+003, 3.542787e-003
1.515775e+003, 3.541009e-003
1.517703e+003, 3.546163e-003
1.519632e+003, 3.685552e-003
1.521560e+003, 3.746030e-003
1.523489e+003, 3.725092e-003
1.525417e+003, 3.687300e-003
1.527346e+003, 3.734642e-003
1.529274e+003, 3.771528e-003
1.531203e+003, 3.770576e-003
1.533131e+003, 3.701101e-003
1.535059e+003, 3.618335e-003
1.536988e+003, 3.586805e-003
1.538916e+003, 3.324175e-003
1.540845e+003, 3.222334e-003
1.542773e+003, 3.393854e-003
1.544702e+003, 3.655500e-003
1.546630e+003, 3.865523e-003
1.548559e+003, 3.829982e-003
1.550487e+003, 3.652979e-003
1.552416e+003, 3.594100e-003
1.554344e+003, 3.691746e-003
1.556273e+003, 3.853088e-003
1.558201e+003, 3.931826e-003
1.560130e+003, 4.015772e-003
1.562058e+003, 4.176602e-003
1.563986e+003, 4.262024e-003
1.565915e+003, 4.315121e-003
1.567843e+003, 4.229817e-003
1.569772e+003, 4.053394e-003
1.571700e+003, 4.049575e-003
1.573629e+003, 3.916409e-003
1.575557e+003, 3.949048e-003
1.577486e+003, 4.207376e-003
1.579414e+003, 4.507196e-003
1.581343e+003, 4.399314e-003
1.583271e+003, 4.093170e-003
1.585200e+003, 4.139298e-003
1.587128e+003, 4.374324e-003
1.589057e+003, 4.654570e-003
1.590985e+003, 4.728273e-003
1.592913e+003, 4.623870e-003
1.594842e+003, 4.541468e-003
1.596770e+003, 4.534885e-003
1.598699e+003, 4.572911e-003
1.600627e+003, 4.416776e-003
1.602556e+003, 4.415769e-003
1.604484e+003, 4.660050e-003
1.606413e+003, 4.767361e-003
1.608341e+003, 4.843786e-003
1.610270e+003, 5.051078e-003
1.612198e+003, 5.168808e-003
1.614127e+003, 5.224616e-003
1.616055e+003, 5.470027e-003
1.617984e+003, 5.967936e-003
1.619912e+003, 6.412123e-003
1.621840e+003, 6.405127e-003
1.623769e+003, 6.422967e-003
1.625697e+003, 6.864902e-003
1.627626e+003, 7.122930e-003
1.629554e+003, 7.241218e-003
1.631483e+003, 7.564519e-003
1.633411e+003, 7.465540e-003
1.635340e+003, 7.267892e-003
1.637268e+003, 7.248671e-003
1.639197e+003, 7.066259e-003
1.641125e+003, 6.825712e-003
1.643054e+003, 6.741959e-003
1.644982e+003, 6.491667e-003
1.646911e+003, 6.422381e-003
1.648839e+003, 6.424250e-003
1.650767e+003, 6.160558e-003
1.652696e+003, 5.931916e-003
1.654624e+003, 5.970691e-003
1.656553e+003, 6.057431e-003
1.658481e+003, 5.937511e-003
1.660410e+003, 5.711941e-003
1.662338e+003, 5.854506e-003
1.664267e+003, 5.836855e-003
1.666195e+003, 5.607991e-003
1.668124e+003, 5.753329e-003
1.670052e+003, 5.661624e-003
1.671981e+003, 5.357707e-003
1.673909e+003, 5.216178e-003
1.675838e+003, 4.905097e-003
1.677766e+003, 4.924517e-003
1.679694e+003, 5.193560e-003
1.681623e+003, 4.855149e-003
1.683551e+003, 4.413588e-003
1.685480e+003, 4.478466e-003
1.687408e+003, 4.628441e-003
1.689337e+003, 4.646208e-003
1.691265e+003, 4.538876e-003
1.693194e+003, 4.263761e-003
1.695122e+003, 4.023733e-003
1.697051e+003, 4.131116e-003
1.698979e+003, 4.371076e-003
1.700908e+003, 4.360487e-003
1.702836e+003, 4.302793e-003
1.704765e+003, 4.104879e-003
1.706693e+003, 4.166714e-003
1.708621e+003, 4.151309e-003
1.710550e+003, 4.103151e-003
1.712478e+003, 3.781851e-003
1.714407e+003, 3.629629e-003
1.716335e+003, 3.701259e-003
1.718264e+003, 3.925290e-003
1.720192e+003, 4.294064e-003
1.722121e+003, 4.352073e-003
1.724049e+003, 4.211048e-003
1.725978e+003, 4.214698e-003
1.727906e+003, 4.271874e-003
1.729835e+003, 4.104602e-003
1.731763e+003, 4.117790e-003
1.733692e+003, 4.195978e-003
1.735620e+003, 4.114294e-003
1.737548e+003, 4.261146e-003
1.739477e+003, 4.212783e-003
1.741405e+003, 3.739504e-003
1.743334e+003, 3.551098e-003
1.745262e+003, 3.531339e-003
1.747191e+003, 3.706764e-003
1.749119e+003, 3.949214e-003
1.751048e+003, 4.059147e-003
1.752976e+003, 3.920749e-003
1.754905e+003, 3.920928e-003
1.756833e+003, 4.078723e-003
1.758762e+003, 3.900392e-003
1.760690e+003, 3.789302e-003
1.762619e+003, 3.826566e-003
1.764547e+003, 3.679823e-003
1.766475e+003, 3.798597e-003
1.768404e+003, 3.973530e-003
1.770332e+003, 4.154572e-003
1.772261e+003, 3.954038e-003
1.774189e+003, 3.876161e-003
1.776118e+003, 3.921673e-003
1.778046e+003, 3.883054e-003
1.779975e+003, 3.884956e-003
1.781903e+003, 4.019095e-003
1.783832e+003, 4.181159e-003
1.785760e+003, 4.093833e-003
1.787689e+003, 3.721252e-003
1.789617e+003, 3.612818e-003
1.791546e+003, 3.574154e-003
1.793474e+003, 3.503473e-003
1.795402e+003, 3.309881e-003
1.797331e+003, 3.290067e-003
1.799259e+003, 3.322914e-003
1.801188e+003, 3.213722e-003
1.803116e+003, 3.470483e-003
1.805045e+003, 3.634451e-003
1.806973e+003, 3.914315e-003
1.808902e+003, 3.467014e-003
1.810830e+003, 2.885510e-003
1.812759e+003, 3.347998e-003
1.814687e+003, 3.302127e-003
1.816616e+003, 2.797107e-003
1.818544e+003, 3.559583e-003
1.820473e+003, 3.970059e-003
1.822401e+003, 3.397773e-003
1.824329e+003, 3.541732e-003
1.826258e+003, 3.754194e-003
1.828186e+003, 3.704867e-003
1.830115e+003, 3.447243e-003
1.832043e+003, 3.467852e-003
1.833972e+003, 3.300158e-003
1.835900e+003, 2.851783e-003
1.837829e+003, 2.536770e-003
1.839757e+003, 2.547188e-003
1.841686e+003, 2.448230e-003
1.843614e+003, 2.363923e-003
1.845543e+003, 2.442318e-003
1.847471e+003, 2.435849e-003
1.849400e+003, 2.236166e-003
1.851328e+003, 1.813759e-003
1.853256e+003, 2.089563e-003
1.855185e+003, 2.818432e-003
1.857113e+003, 2.712480e-003
1.859042e+003, 2.641655e-003
1.860970e+003, 2.592182e-003
1.862899e+003, 2.643779e-003
1.864827e+003, 2.128777e-003
1.866756e+003, 1.900725e-003
1.868684e+003, 1.962335e-003
1.870613e+003, 1.977118e-003
1.872541e+003, 2.393832e-003
1.874470e+003, 2.946599e-003
1.876398e+003, 2.746514e-003
1.878327e+003, 2.283495e-003
1.880255e+003, 2.359441e-003
1.882183e+003, 2.534718e-003
1.884112e+003, 2.291808e-003
1.886040e+003, 1.757970e-003
1.887969e+003, 2.075776e-003
1.889897e+003, 2.129273e-003
1.891826e+003, 2.047166e-003
1.893754e+003, 2.195723e-003
1.895683e+003, 2.251180e-003
1.897611e+003, 2.008810e-003
1.899540e+003, 1.877000e-003
1.901468e+003, 2.291588e-003
1.903397e+003, 1.788011e-003
1.905325e+003, 1.618212e-003
1.907254e+003, 2.470221e-003
1.909182e+003, 2.668789e-003
1.911110e+003, 2.463044e-003
1.913039e+003, 2.892776e-003
1.914967e+003, 2.635937e-003
1.916896e+003, 1.846928e-003
1.918824e+003, 1.358056e-003
1.920753e+003, 1.069425e-003
1.922681e+003, 9.499799e-004
1.924610e+003, 1.205822e-003
1.926538e+003, 1.288413e-003
1.928467e+003, 1.119553e-003
1.930395e+003, 7.115072e-004
1.932324e+003, 3.669065e-004
1.934252e+003, 7.021769e-004
1.936181e+003, 1.343403e-003
1.938109e+003, 1.421562e-003
1.940037e+003, 9.819121e-004
1.941966e+003, 2.149293e-004
1.943894e+003, -1.462559e-004
1.945823e+003, -7.055566e-004
1.947751e+003, -7.256196e-004
1.949680e+003, -1.090368e-004
1.951608e+003, 1.101259e-004
1.953537e+003, -2.037755e-004
1.955465e+003, -1.143678e-003
1.957394e+003, -1.516497e-003
1.959322e+003, -2.419035e-003
1.961251e+003, -3.084240e-003
1.963179e+003, -1.177632e-003
1.965108e+003, -5.566203e-004
1.967036e+003, -2.690714e-003
1.968964e+003, -4.431955e-003
1.970893e+003, -3.797261e-003
1.972821e+003, -2.239984e-003
1.974750e+003, -3.484755e-003
1.976678e+003, -3.464607e-003
1.978607e+003, 1.174873e-004
1.980535e+003, 7.256359e-004
1.982464e+003, -7.472405e-004
1.984392e+003, -2.268645e-003
1.986321e+003, -2.862523e-003
1.988249e+003, -3.042109e-003
1.990178e+003, -1.900452e-003
1.992106e+003, -1.640703e-003
1.994035e+003, -1.901863e-003
1.995963e+003, -7.908101e-004
1.997891e+003, -1.556150e-003
1.999820e+003, -2.994020e-003
2.001748e+003, -3.706611e-003
2.003677e+003, -3.869518e-003
2.005605e+003, -2.816262e-003
2.007534e+003, -3.011253e-003
2.009462e+003, -3.065322e-003
2.011391e+003, -2.055936e-003
2.013319e+003, -1.842711e-003
2.015248e+003, -4.000970e-003
2.017176e+003, -3.702943e-003
2.019105e+003, -2.194286e-003
2.021033e+003, -2.936648e-003
2.022962e+003, -3.219670e-003
2.024890e+003, -2.747726e-003
2.026818e+003, -2.933803e-003
2.028747e+003, -4.529835e-003
2.030675e+003, -3.276026e-003
2.032604e+003, -8.513291e-004
2.034532e+003, -1.493279e-003
2.036461e+003, -1.832874e-003
2.038389e+003, -1.216446e-003
2.040318e+003, -1.613060e-003
2.042246e+003, -2.236273e-003
2.044175e+003, -1.512770e-003
2.046103e+003, -1.306887e-004
2.048032e+003, 1.770463e-003
2.049960e+003, 2.903938e-003
2.051889e+003, 2.194433e-003
2.053817e+003, 1.562761e-003
2.055746e+003, 8.176584e-004
2.057674e+003, 1.853754e-006
2.059603e+003, -3.468888e-004
2.061531e+003, 2.584679e-004
2.063459e+003, 1.042851e-004
2.065388e+003, -1.267956e-003
2.067316e+003, -5.310397e-004
2.069245e+003, 9.346677e-004
2.071173e+003, 1.933062e-003
2.073102e+003, 8.515968e-004
2.075030e+003, 1.128630e-003
2.076959e+003, 1.623474e-003
2.078887e+003, 2.348205e-003
2.080816e+003, 3.799336e-003
2.082744e+003, 3.702568e-003
2.084673e+003, 1.944579e-003
2.086601e+003, 1.143180e-003
2.088530e+003, 1.478981e-003
2.090458e+003, 1.190512e-003
2.092386e+003, 4.993373e-004
2.094315e+003, 8.256639e-004
2.096243e+003, 1.029975e-003
2.098172e+003, 9.502196e-004
2.100100e+003, 9.714949e-004
2.102029e+003, 5.977922e-004
2.103957e+003, 8.344878e-004
2.105886e+003, 1.541089e-003
2.107814e+003, 9.524327e-004
2.109743e+003, 4.985415e-004
2.111671e+003, 1.061143e-003
2.113600e+003, 2.003814e-003
2.115528e+003, 1.792974e-003
2.117457e+003, 5.811424e-004
2.119385e+003, 8.483640e-004
2.121313e+003, 6.001000e-004
2.123242e+003, -6.417182e-004
2.125170e+003, -9.868182e-004
2.127099e+003, -5.538065e-004
2.129027e+003, -1.962305e-004
2.130956e+003, -1.200609e-003
2.132884e+003, -2.794550e-003
2.134813e+003, -3.095372e-003
2.136741e+003, -2.063472e-003
2.138670e+003, -1.817551e-003
2.140598e+003, -1.920230e-003
2.142527e+003, -1.925786e-003
2.144455e+003, -2.073444e-003
2.146384e+003, -2.075162e-003
2.148312e+003, -3.189098e-003
2.150240e+003, -5.092302e-003
2.152169e+003, -5.282195e-003
2.154097e+003, -4.254222e-003
2.156026e+003, -4.202406e-003
2.157954e+003, -3.900887e-003
2.159883e+003, 1.823539e-004
2.161811e+003, 1.367956e-003
2.163740e+003, 8.338396e-004
2.165668e+003, 2.108303e-004
2.167597e+003, 5.365218e-004
2.169525e+003, 1.812011e-004
2.171454e+003, -1.943084e-004
2.173382e+003, 5.417944e-004
2.175311e+003, 6.148256e-004
2.177239e+003, 2.947084e-004
2.179167e+003, 1.932128e-003
2.181096e+003, 2.830830e-003
2.183024e+003, 1.184069e-003
2.184953e+003, -4.225574e-004
2.186881e+003, -1.716666e-004
2.188810e+003, 1.033458e-003
2.190738e+003, 1.627895e-003
2.192667e+003, 2.019416e-003
2.194595e+003, 2.590731e-003
2.196524e+003, 3.365126e-003
2.198452e+003, 4.215486e-003
2.200381e+003, 4.059025e-003
2.202309e+003, 4.304083e-003
2.204238e+003, 3.985415e-003
2.206166e+003, 3.938741e-003
2.208094e+003, 4.099214e-003
2.210023e+003, 3.876350e-003
2.211951e+003, 4.042977e-003
2.213880e+003, 3.301301e-003
2.215808e+003, 2.779063e-003
2.217737e+003, 3.322251e-003
2.219665e+003, 4.602351e-003
2.221594e+003, 4.653803e-003
2.223522e+003, 4.458256e-003
2.225451e+003, 4.546530e-003
2.227379e+003, 4.430678e-003
2.229308e+003, 4.797810e-003
2.231236e+003, 5.566202e-003
2.233165e+003, 6.561339e-003
2.235093e+003, 5.860950e-003
2.237021e+003, 4.197810e-003
2.238950e+003, 3.766680e-003
2.240878e+003, 3.881705e-003
2.242807e+003, 3.872774e-003
2.244735e+003, 4.643903e-003
2.246664e+003, 5.719649e-003
2.248592e+003, 5.051473e-003
2.250521e+003, 3.829638e-003
2.252449e+003, 4.329204e-003
2.254378e+003, 4.993748e-003
2.256306e+003, 5.761744e-003
2.258235e+003, 5.782328e-003
2.260163e+003, 5.487005e-003
2.262092e+003, 4.969115e-003
2.264020e+003, 5.196802e-003
2.265948e+003, 5.811307e-003
2.267877e+003, 6.294909e-003
2.269805e+003, 5.563531e-003
2.271734e+003, 5.280821e-003
2.273662e+003, 5.895977e-003
2.275591e+003, 6.148273e-003
2.277519e+003, 6.078668e-003
2.279448e+003, 6.883929e-003
2.281376e+003, 7.515851e-003
2.283305e+003, 8.239504e-003
2.285233e+003, 8.510828e-003
2.287162e+003, 7.961046e-003
2.289090e+003, 7.095796e-003
2.291019e+003, 7.013457e-003
2.292947e+003, 7.935209e-003
2.294875e+003, 8.058210e-003
2.296804e+003, 7.561209e-003
2.298732e+003, 7.377584e-003
2.300661e+003, 7.705588e-003
2.302589e+003, 7.335581e-003
2.304518e+003, 6.905386e-003
2.306446e+003, 7.544639e-003
2.308375e+003, 8.657871e-003
2.310303e+003, 8.763881e-003
2.312232e+003, 8.257554e-003
2.314160e+003, 8.237541e-003
2.316089e+003, 8.359421e-003
2.318017e+003, 8.062529e-003
2.319946e+003, 8.058230e-003
2.321874e+003, 8.656754e-003
2.323802e+003, 8.818381e-003
2.325731e+003, 7.835419e-003
2.327659e+003, 7.150591e-003
2.329588e+003, 7.050959e-003
2.331516e+003, 7.156791e-003
2.333445e+003, 7.723907e-003
2.335373e+003, 8.020285e-003
2.337302e+003, 7.787000e-003
2.339230e+003, 7.640267e-003
2.341159e+003, 7.612023e-003
2.343087e+003, 7.746396e-003
2.345016e+003, 7.941407e-003
2.346944e+003, 7.768440e-003
2.348873e+003, 6.789968e-003
2.350801e+003, 6.587025e-003
2.352729e+003, 7.493923e-003
2.354658e+003, 8.092248e-003
2.356586e+003, 7.841039e-003
2.358515e+003, 7.568016e-003
2.360443e+003, 7.900193e-003
2.362372e+003, 7.903153e-003
2.364300e+003, 7.316142e-003
2.366229e+003, 6.828577e-003
2.368157e+003, 6.747228e-003
2.370086e+003, 7.115035e-003
2.372014e+003, 6.756368e-003
2.373942e+003, 6.387185e-003
2.375871e+003, 7.026143e-003
2.377799e+003, 7.513115e-003
2.379728e+003, 6.973332e-003
2.381656e+003, 6.919973e-003
2.383585e+003, 7.142693e-003
2.385513e+003, 6.422683e-003
2.387442e+003, 6.417815e-003
2.389370e+003, 6.698528e-003
2.391299e+003, 7.260823e-003
2.393227e+003, 6.986376e-003
2.395156e+003, 6.585674e-003
2.397084e+003, 6.859686e-003
2.399012e+003, 7.279764e-003
2.400941e+003, 7.553494e-003
2.402869e+003, 7.848066e-003
2.404798e+003, 8.441484e-003
2.406726e+003, 8.113586e-003
2.408655e+003, 7.178485e-003
2.410583e+003, 7.228409e-003
2.412512e+003, 7.121231e-003
2.414440e+003, 7.131369e-003
2.416369e+003, 7.377882e-003
2.418297e+003, 7.594811e-003
2.420226e+003, 7.623516e-003
2.422154e+003, 7.509887e-003
2.424083e+003, 7.817337e-003
2.426011e+003, 7.491195e-003
2.427939e+003, 7.574923e-003
2.429868e+003, 8.282240e-003
2.431796e+003, 7.868231e-003
2.433725e+003, 7.542274e-003
2.435653e+003, 8.196422e-003
2.437582e+003, 8.241444e-003
2.439510e+003, 7.569732e-003
2.441439e+003, 8.354117e-003
2.443367e+003, 9.004749e-003
2.445296e+003, 8.897928e-003
2.447224e+003, 8.141352e-003
2.449153e+003, 8.034463e-003
2.451081e+003, 8.987667e-003
2.453010e+003, 8.620208e-003
2.454938e+003, 8.244603e-003
2.456866e+003, 9.407676e-003
2.458795e+003, 9.212762e-003
2.460723e+003, 9.001882e-003
2.462652e+003, 9.161229e-003
2.464580e+003, 8.893657e-003
2.466509e+003, 8.190418e-003
2.468437e+003, 7.487543e-003
2.470366e+003, 7.078435e-003
2.472294e+003, 7.733047e-003
2.474223e+003, 7.802698e-003
2.476151e+003, 7.303484e-003
2.478080e+003, 7.456166e-003
2.480008e+003, 8.935126e-003
2.481937e+003, 9.043022e-003
2.483865e+003, 7.989014e-003
2.485793e+003, 7.843874e-003
2.487722e+003, 8.194868e-003
2.489650e+003, 7.766102e-003
2.491579e+003, 7.375753e-003
2.493507e+003, 7.819545e-003
2.495436e+003, 8.255416e-003
2.497364e+003, 8.338476e-003
2.499293e+003, 8.498506e-003
2.501221e+003, 8.722697e-003
2.503150e+003, 8.300561e-003
2.505078e+003, 8.213171e-003
2.507007e+003, 8.308803e-003
2.508935e+003, 8.356284e-003
2.510864e+003, 8.610130e-003
2.512792e+003, 8.330221e-003
2.514720e+003, 8.427656e-003
2.516649e+003, 8.299409e-003
2.518577e+003, 8.325321e-003
2.520506e+003, 8.015607e-003
2.522434e+003, 8.376601e-003
2.524363e+003, 8.588295e-003
2.526291e+003, 8.391568e-003
2.528220e+003, 7.981135e-003
2.530148e+003, 8.679387e-003
2.532077e+003, 8.848480e-003
2.534005e+003, 7.971832e-003
2.535934e+003, 7.663513e-003
2.537862e+003, 8.314277e-003
2.539791e+003, 8.679857e-003
2.541719e+003, 8.302358e-003
2.543647e+003, 8.450083e-003
2.545576e+003, 9.296206e-003
2.547504e+003, 9.630702e-003
2.549433e+003, 9.360884e-003
2.551361e+003, 9.365654e-003
2.553290e+003, 9.187543e-003
2.555218e+003, 8.809630e-003
2.557147e+003, 9.214122e-003
2.559075e+003, 9.266624e-003
2.561004e+003, 9.890691e-003
2.562932e+003, 9.604237e-003
2.564861e+003, 8.601788e-003
2.566789e+003, 8.971988e-003
2.568718e+003, 1.010637e-002
2.570646e+003, 9.881605e-003
2.572574e+003, 8.449394e-003
2.574503e+003, 7.842626e-003
2.576431e+003, 8.628286e-003
2.578360e+003, 8.421239e-003
2.580288e+003, 8.698577e-003
2.582217e+003, 8.866900e-003
2.584145e+003, 9.340417e-003
2.586074e+003, 1.017266e-002
2.588002e+003, 9.643940e-003
2.589931e+003, 8.843382e-003
2.591859e+003, 8.666554e-003
2.593788e+003, 9.001065e-003
2.595716e+003, 9.431344e-003
2.597645e+003, 1.001699e-002
2.599573e+003, 1.034104e-002
2.601501e+003, 9.699357e-003
2.603430e+003, 9.600213e-003
2.605358e+003, 9.848480e-003
2.607287e+003, 1.007538e-002
2.609215e+003, 9.696390e-003
2.611144e+003, 9.088459e-003
2.613072e+003, 8.709856e-003
2.615001e+003, 8.899059e-003
2.616929e+003, 9.168884e-003
2.618858e+003, 9.475143e-003
2.620786e+003, 9.773325e-003
2.622715e+003, 8.597883e-003
2.624643e+003, 8.572018e-003
2.626572e+003, 9.509694e-003
2.628500e+003, 9.048386e-003
2.630428e+003, 8.909608e-003
2.632357e+003, 9.181756e-003
2.634285e+003, 9.745093e-003
2.636214e+003, 9.779568e-003
2.638142e+003, 9.505784e-003
2.640071e+003, 9.726113e-003
2.641999e+003, 1.000290e-002
2.643928e+003, 1.004788e-002
2.645856e+003, 1.006367e-002
2.647785e+003, 9.361022e-003
2.649713e+003, 9.146147e-003
2.651642e+003, 9.504412e-003
2.653570e+003, 1.005955e-002
2.655499e+003, 9.558531e-003
2.657427e+003, 9.045085e-003
2.659355e+003, 9.148670e-003
2.661284e+003, 8.807585e-003
2.663212e+003, 9.294920e-003
2.665141e+003, 9.253502e-003
2.667069e+003, 8.992089e-003
2.668998e+003, 8.691526e-003
2.670926e+003, 8.185429e-003
2.672855e+003, 8.401586e-003
2.674783e+003, 8.824958e-003
2.676712e+003, 8.782616e-003
2.678640e+003, 8.711701e-003
2.680569e+003, 8.168941e-003
2.682497e+003, 7.887070e-003
2.684426e+003, 8.552494e-003
2.686354e+003, 8.827404e-003
2.688282e+003, 8.781811e-003
2.690211e+003, 8.849272e-003
2.692139e+003, 8.860629e-003
2.694068e+003, 8.192641e-003
2.695996e+003, 8.577981e-003
2.697925e+003, 8.958666e-003
2.699853e+003, 8.783955e-003
2.701782e+003, 8.764309e-003
2.703710e+003, 8.236350e-003
2.705639e+003, 8.086906e-003
2.707567e+003, 8.608702e-003
2.709496e+003, 8.468997e-003
2.711424e+003, 8.133096e-003
2.713353e+003, 8.102891e-003
2.715281e+003, 8.577969e-003
2.717209e+003, 8.997126e-003
2.719138e+003, 9.221470e-003
2.721066e+003, 9.311271e-003
2.722995e+003, 9.499994e-003
2.724923e+003, 9.420654e-003
2.726852e+003, 9.006318e-003
2.728780e+003, 8.678551e-003
2.730709e+003, 8.337544e-003
2.732637e+003, 8.267133e-003
2.734566e+003, 9.070767e-003
2.736494e+003, 9.110816e-003
2.738423e+003, 8.922244e-003
2.740351e+003, 8.700099e-003
2.742280e+003, 8.438128e-003
2.744208e+003, 8.590779e-003
2.746136e+003, 8.846516e-003
2.748065e+003, 8.601046e-003
2.749993e+003, 8.781983e-003
2.751922e+003, 9.073213e-003
2.753850e+003, 9.191388e-003
2.755779e+003, 9.113945e-003
2.757707e+003, 9.247305e-003
2.759636e+003, 9.739211e-003
2.761564e+003, 1.014226e-002
2.763493e+003, 9.885848e-003
2.765421e+003, 9.584609e-003
2.767350e+003, 9.641811e-003
2.769278e+003, 9.016502e-003
2.771207e+003, 8.888205e-003
2.773135e+003, 9.556931e-003
2.775063e+003, 9.367982e-003
2.776992e+003, 9.043753e-003
2.778920e+003, 9.177123e-003
2.780849e+003, 9.388126e-003
2.782777e+003, 9.450903e-003
2.784706e+003, 9.824781e-003
2.786634e+003, 9.584745e-003
2.788563e+003, 9.295971e-003
2.790491e+003, 8.859770e-003
2.792420e+003, 8.351658e-003
2.794348e+003, 7.982478e-003
2.796277e+003, 8.530369e-003
2.798205e+003, 9.326208e-003
2.800134e+003, 9.741934e-003
2.802062e+003, 9.686290e-003
2.803990e+003, 9.882065e-003
2.805919e+003, 9.898892e-003
2.807847e+003, 9.540310e-003
2.809776e+003, 9.196452e-003
2.811704e+003, 9.496316e-003
2.813633e+003, 9.561040e-003
2.815561e+003, 9.111494e-003
2.817490e+003, 8.954308e-003
2.819418e+003, 9.360740e-003
2.821347e+003, 9.424731e-003
2.823275e+003, 9.254660e-003
2.825204e+003, 9.307737e-003
2.827132e+003, 9.662485e-003
2.829061e+003, 9.811175e-003
2.830989e+003, 9.827115e-003
2.832917e+003, 9.899192e-003
2.834846e+003, 9.033293e-003
2.836774e+003, 8.667895e-003
2.838703e+003, 9.459209e-003
2.840631e+003, 1.016022e-002
2.842560e+003, 1.027318e-002
2.844488e+003, 9.875516e-003
2.846417e+003, 9.284297e-003
2.848345e+003, 9.112232e-003
2.850274e+003, 8.750759e-003
2.852202e+003, 8.210814e-003
2.854131e+003, 8.781255e-003
2.856059e+003, 9.126800e-003
2.857988e+003, 8.521393e-003
2.859916e+003, 8.039501e-003
2.861844e+003, 7.971197e-003
2.863773e+003, 9.068232e-003
2.865701e+003, 9.321283e-003
2.867630e+003, 8.909021e-003
2.869558e+003, 8.899620e-003
2.871487e+003, 9.121710e-003
2.873415e+003, 9.058215e-003
2.875344e+003, 8.441801e-003
2.877272e+003, 8.962338e-003
2.879201e+003, 1.002264e-002
2.881129e+003, 9.923040e-003
2.883058e+003, 9.638166e-003
2.884986e+003, 9.973089e-003
2.886915e+003, 9.715698e-003
2.888843e+003, 9.349855e-003
2.890771e+003, 1.003024e-002
2.892700e+003, 9.803059e-003
2.894628e+003, 8.470353e-003
2.896557e+003, 8.697650e-003
2.898485e+003, 8.969611e-003
2.900414e+003, 9.287696e-003
2.902342e+003, 9.858700e-003
2.904271e+003, 9.729357e-003
2.906199e+003, 9.682028e-003
2.908128e+003, 9.631908e-003
2.910056e+003, 8.970809e-003
2.911985e+003, 9.189105e-003
2.913913e+003, 9.505545e-003
2.915842e+003, 8.748956e-003
2.917770e+003, 8.328076e-003
2.919698e+003, 8.289365e-003
2.921627e+003, 8.136764e-003
2.923555e+003, 8.399217e-003
2.925484e+003, 8.599861e-003
2.927412e+003, 8.351380e-003
2.929341e+003, 8.303318e-003
2.931269e+003, 8.880330e-003
2.933198e+003, 9.231142e-003
2.935126e+003, 8.950477e-003
2.937055e+003, 8.914797e-003
2.938983e+003, 8.933933e-003
2.940912e+003, 9.300184e-003
2.942840e+003, 9.667223e-003
2.944769e+003, 9.623314e-003
2.946697e+003, 9.878981e-003
2.948625e+003, 1.017156e-002
2.950554e+003, 1.004566e-002
2.952482e+003, 9.374747e-003
2.954411e+003, 9.493828e-003
2.956339e+003, 9.570163e-003
2.958268e+003, 9.768533e-003
2.960196e+003, 1.028355e-002
2.962125e+003, 1.011875e-002
2.964053e+003, 9.971121e-003
2.965982e+003, 9.881314e-003
2.967910e+003, 1.017109e-002
2.969839e+003, 1.047661e-002
2.971767e+003, 1.127351e-002
2.973696e+003, 1.118761e-002
2.975624e+003, 1.055700e-002
2.977552e+003, 1.046267e-002
2.979481e+003, 1.089595e-002
2.981409e+003, 1.039542e-002
2.983338e+003, 1.006496e-002
2.985266e+003, 1.049642e-002
2.987195e+003, 1.044442e-002
2.989123e+003, 1.078491e-002
2.991052e+003, 1.126451e-002
2.992980e+003, 1.169440e-002
2.994909e+003, 1.149331e-002
2.996837e+003, 1.103091e-002
2.998766e+003, 1.087940e-002
3.000694e+003, 1.121494e-002
3.002623e+003, 1.033444e-002
3.004551e+003, 9.510316e-003
3.006479e+003, 9.035270e-003
3.008408e+003, 9.836444e-003
3.010336e+003, 1.066829e-002
3.012265e+003, 1.097652e-002
3.014193e+003, 1.045309e-002
3.016122e+003, 1.011132e-002
3.018050e+003, 1.042718e-002
3.019979e+003, 1.054263e-002
3.021907e+003, 9.889108e-003
3.023836e+003, 9.655721e-003
3.025764e+003, 1.035209e-002
3.027693e+003, 1.146874e-002
3.029621e+003, 1.132706e-002
3.031550e+003, 1.108522e-002
3.033478e+003, 1.159373e-002
3.035406e+003, 1.065678e-002
3.037335e+003, 1.045345e-002
3.039263e+003, 1.163154e-002
3.041192e+003, 1.148340e-002
3.043120e+003, 1.091470e-002
3.045049e+003, 1.084851e-002
3.046977e+003, 1.114068e-002
3.048906e+003, 1.199764e-002
3.050834e+003, 1.102141e-002
3.052763e+003, 1.023411e-002
3.054691e+003, 1.074398e-002
3.056620e+003, 1.100614e-002
3.058548e+003, 1.131058e-002
3.060477e+003, 1.191736e-002
3.062405e+003, 1.156837e-002
3.064333e+003, 1.162029e-002
3.066262e+003, 1.188061e-002
3.068190e+003, 1.127404e-002
3.070119e+003, 1.053500e-002
3.072047e+003, 1.065491e-002
3.073976e+003, 1.204954e-002
3.075904e+003, 1.293840e-002
3.077833e+003, 1.220490e-002
3.079761e+003, 1.273684e-002
3.081690e+003, 1.348927e-002
3.083618e+003, 1.277066e-002
3.085547e+003, 1.120207e-002
3.087475e+003, 9.728696e-003
3.089404e+003, 9.884143e-003
3.091332e+003, 1.136492e-002
3.093260e+003, 1.278490e-002
3.095189e+003, 1.319623e-002
3.097117e+003, 1.319275e-002
3.099046e+003, 1.246946e-002
3.100974e+003, 1.077821e-002
3.102903e+003, 1.050532e-002
3.104831e+003, 1.147590e-002
3.106760e+003, 1.186090e-002
3.108688e+003, 1.074958e-002
3.110617e+003, 1.117010e-002
3.112545e+003, 1.247670e-002
3.114474e+003, 1.326543e-002
3.116402e+003, 1.270034e-002
3.118331e+003, 1.126758e-002
3.120259e+003, 1.122521e-002
3.122188e+003, 1.211692e-002
3.124116e+003, 1.252443e-002
3.126044e+003, 1.209347e-002
3.127973e+003, 1.224998e-002
3.129901e+003, 1.280201e-002
3.131830e+003, 1.357423e-002
3.133758e+003, 1.284773e-002
3.135687e+003, 1.231258e-002
3.137615e+003, 1.225830e-002
3.139544e+003, 1.242678e-002
3.141472e+003, 1.261111e-002
3.143401e+003, 1.311769e-002
3.145329e+003, 1.348274e-002
3.147258e+003, 1.278999e-002
3.149186e+003, 1.224776e-002
3.151115e+003, 1.276048e-002
3.153043e+003, 1.464842e-002
3.154971e+003, 1.517609e-002
3.156900e+003, 1.460642e-002
3.158828e+003, 1.391522e-002
3.160757e+003, 1.301523e-002
3.162685e+003, 1.329069e-002
3.164614e+003, 1.379121e-002
3.166542e+003, 1.255817e-002
3.168471e+003, 1.312539e-002
3.170399e+003, 1.422965e-002
3.172328e+003, 1.343647e-002
3.174256e+003, 1.333723e-002
3.176185e+003, 1.408146e-002
3.178113e+003, 1.446667e-002
3.180042e+003, 1.388555e-002
3.181970e+003, 1.358074e-002
3.183898e+003, 1.230733e-002
3.185827e+003, 1.232415e-002
3.187755e+003, 1.311045e-002
3.189684e+003, 1.356256e-002
3.191612e+003, 1.343928e-002
3.193541e+003, 1.314590e-002
3.195469e+003, 1.479294e-002
3.197398e+003, 1.430800e-002
3.199326e+003, 1.261842e-002
3.201255e+003, 1.305050e-002
3.203183e+003, 1.286897e-002
3.205112e+003, 1.273567e-002
3.207040e+003, 1.434820e-002
3.208969e+003, 1.499439e-002
3.210897e+003, 1.432299e-002
3.212825e+003, 1.387687e-002
3.214754e+003, 1.303381e-002
3.216682e+003, 1.270737e-002
3.218611e+003, 1.347307e-002
3.220539e+003, 1.408262e-002
3.222468e+003, 1.468444e-002
3.224396e+003, 1.425554e-002
3.226325e+003, 1.471093e-002
3.228253e+003, 1.505888e-002
3.230182e+003, 1.413978e-002
3.232110e+003, 1.484787e-002
3.234039e+003, 1.438616e-002
3.235967e+003, 1.431738e-002
3.237896e+003, 1.609759e-002
3.239824e+003, 1.609936e-002
3.241752e+003, 1.447408e-002
3.243681e+003, 1.298299e-002
3.245609e+003, 1.245106e-002
3.247538e+003, 1.197311e-002
3.249466e+003, 1.313712e-002
3.251395e+003, 1.305078e-002
3.253323e+003, 1.251537e-002
3.255252e+003, 1.342355e-002
3.257180e+003, 1.527860e-002
3.259109e+003, 1.563790e-002
3.261037e+003, 1.555863e-002
3.262966e+003, 1.543518e-002
3.264894e+003, 1.461953e-002
3.266823e+003, 1.405770e-002
3.268751e+003, 1.476636e-002
3.270679e+003, 1.475420e-002
3.272608e+003, 1.469485e-002
3.274536e+003, 1.471725e-002
3.276465e+003, 1.405837e-002
3.278393e+003, 1.460935e-002
3.280322e+003, 1.475045e-002
3.282250e+003, 1.479815e-002
3.284179e+003, 1.519838e-002
3.286107e+003, 1.509471e-002
3.288036e+003, 1.431428e-002
3.289964e+003, 1.397911e-002
3.291893e+003, 1.416293e-002
3.293821e+003, 1.468899e-002
3.295750e+003, 1.464935e-002
3.297678e+003, 1.419713e-002
3.299606e+003, 1.514704e-002
3.301535e+003, 1.569154e-002
3.303463e+003, 1.544982e-002
3.305392e+003, 1.549011e-002
3.307320e+003, 1.606596e-002
3.309249e+003, 1.587163e-002
3.311177e+003, 1.501209e-002
3.313106e+003, 1.560391e-002
3.315034e+003, 1.560156e-002
3.316963e+003, 1.455021e-002
3.318891e+003, 1.436100e-002
3.320820e+003, 1.464871e-002
3.322748e+003, 1.433287e-002
3.324677e+003, 1.474522e-002
3.326605e+003, 1.531339e-002
3.328533e+003, 1.513865e-002
3.330462e+003, 1.463940e-002
3.332390e+003, 1.440219e-002
3.334319e+003, 1.475990e-002
3.336247e+003, 1.497977e-002
3.338176e+003, 1.575139e-002
3.340104e+003, 1.623797e-002
3.342033e+003, 1.611953e-002
3.343961e+003, 1.675803e-002
3.345890e+003, 1.713895e-002
3.347818e+003, 1.599295e-002
3.349747e+003, 1.520158e-002
3.351675e+003, 1.621630e-002
3.353604e+003, 1.637973e-002
3.355532e+003, 1.502661e-002
3.357460e+003, 1.565817e-002
3.359389e+003, 1.679500e-002
3.361317e+003, 1.703221e-002
3.363246e+003, 1.707074e-002
3.365174e+003, 1.615271e-002
3.367103e+003, 1.600245e-002
3.369031e+003, 1.677515e-002
3.370960e+003, 1.598376e-002
3.372888e+003, 1.514764e-002
3.374817e+003, 1.601897e-002
3.376745e+003, 1.646726e-002
3.378674e+003, 1.640049e-002
3.380602e+003, 1.633272e-002
3.382531e+003, 1.604066e-002
3.384459e+003, 1.645648e-002
3.386387e+003, 1.710919e-002
3.388316e+003, 1.723243e-002
3.390244e+003, 1.673515e-002
3.392173e+003, 1.685231e-002
3.394101e+003, 1.779222e-002
3.396030e+003, 1.744686e-002
3.397958e+003, 1.671725e-002
3.399887e+003, 1.597593e-002
3.401815e+003, 1.773702e-002
3.403744e+003, 1.873836e-002
3.405672e+003, 1.672076e-002
3.407601e+003, 1.681771e-002
3.409529e+003, 1.606185e-002
3.411458e+003, 1.505931e-002
3.413386e+003, 1.658846e-002
3.415314e+003, 1.769005e-002
3.417243e+003, 1.739252e-002
3.419171e+003, 1.696225e-002
3.421100e+003, 1.701192e-002
3.423028e+003, 1.696628e-002
3.424957e+003, 1.662150e-002
3.426885e+003, 1.592749e-002
3.428814e+003, 1.581657e-002
3.430742e+003, 1.572989e-002
3.432671e+003, 1.644610e-002
3.434599e+003, 1.649481e-002
3.436528e+003, 1.729952e-002
3.438456e+003, 1.790259e-002
3.440385e+003, 1.810368e-002
3.442313e+003, 1.831214e-002
3.444241e+003, 1.856806e-002
3.446170e+003, 1.770635e-002
3.448098e+003, 1.736274e-002
3.450027e+003, 1.681432e-002
3.451955e+003, 1.537344e-002
3.453884e+003, 1.590738e-002
3.455812e+003, 1.719922e-002
3.457741e+003, 1.801536e-002
3.459669e+003, 1.753335e-002
3.461598e+003, 1.707792e-002
3.463526e+003, 1.723402e-002
3.465455e+003, 1.715471e-002
3.467383e+003, 1.749487e-002
3.469312e+003, 1.863199e-002
3.471240e+003, 1.923316e-002
3.473168e+003, 1.844149e-002
3.475097e+003, 1.646968e-002
3.477025e+003, 1.662533e-002
3.478954e+003, 1.623454e-002
3.480882e+003, 1.559429e-002
3.482811e+003, 1.628627e-002
3.484739e+003, 1.587500e-002
3.486668e+003, 1.635909e-002
3.488596e+003, 1.772832e-002
3.490525e+003, 1.840015e-002
3.492453e+003, 1.781403e-002
3.494382e+003, 1.634309e-002
3.496310e+003, 1.656942e-002
3.498239e+003, 1.709112e-002
3.500167e+003, 1.716511e-002
3.502095e+003, 1.642454e-002
3.504024e+003, 1.690412e-002
3.505952e+003, 1.692378e-002
3.507881e+003, 1.702005e-002
3.509809e+003, 1.681249e-002
3.511738e+003, 1.707034e-002
3.513666e+003, 1.770234e-002
3.515595e+003, 1.663805e-002
3.517523e+003, 1.626030e-002
3.519452e+003, 1.700592e-002
3.521380e+003, 1.802556e-002
3.523309e+003, 1.549823e-002
3.525237e+003, 1.456945e-002
3.527166e+003, 1.522867e-002
3.529094e+003, 1.315659e-002
3.531022e+003, 1.367644e-002
3.532951e+003, 1.597962e-002
3.534879e+003, 1.571129e-002
3.536808e+003, 1.437076e-002
3.538736e+003, 1.491286e-002
3.540665e+003, 1.664053e-002
3.542593e+003, 1.626032e-002
3.544522e+003, 1.718582e-002
3.546450e+003, 1.790687e-002
3.548379e+003, 1.728195e-002
3.550307e+003, 1.705377e-002
3.552236e+003, 1.596276e-002
3.554164e+003, 1.597330e-002
3.556093e+003, 1.594157e-002
3.558021e+003, 1.531507e-002
3.559949e+003, 1.497988e-002
3.561878e+003, 1.518767e-002
3.563806e+003, 1.696902e-002
3.565735e+003, 1.620228e-002
3.567663e+003, 1.445865e-002
3.569592e+003, 1.460267e-002
3.571520e+003, 1.463282e-002
3.573449e+003, 1.532798e-002
3.575377e+003, 1.709724e-002
3.577306e+003, 1.808955e-002
3.579234e+003, 1.776989e-002
3.581163e+003, 1.524968e-002
3.583091e+003, 1.405288e-002
3.585020e+003, 1.309600e-002
3.586948e+003, 1.268012e-002
3.588876e+003, 1.367752e-002
3.590805e+003, 1.282047e-002
3.592733e+003, 1.295495e-002
3.594662e+003, 1.576303e-002
3.596590e+003, 1.768797e-002
3.598519e+003, 1.783948e-002
3.600447e+003, 1.648845e-002
3.602376e+003, 1.581553e-002
3.604304e+003, 1.568391e-002
3.606233e+003, 1.614521e-002
3.608161e+003, 1.674282e-002
3.610090e+003, 1.657233e-002
3.612018e+003, 1.603319e-002
3.613947e+003, 1.500250e-002
3.615875e+003, 1.401222e-002
3.617803e+003, 1.491390e-002
3.619732e+003, 1.635947e-002
3.621660e+003, 1.702580e-002
3.623589e+003, 1.522196e-002
3.625517e+003, 1.203549e-002
3.627446e+003, 1.187978e-002
3.629374e+003, 1.677070e-002
3.631303e+003, 1.716733e-002
3.633231e+003, 1.321651e-002
3.635160e+003, 1.264041e-002
3.637088e+003, 1.291224e-002
3.639017e+003, 1.259170e-002
3.640945e+003, 1.226531e-002
3.642874e+003, 1.257121e-002
3.644802e+003, 1.417088e-002
3.646730e+003, 1.442865e-002
3.648659e+003, 1.371231e-002
3.650587e+003, 1.290821e-002
3.652516e+003, 1.199508e-002
3.654444e+003, 1.177846e-002
3.656373e+003, 1.175056e-002
3.658301e+003, 1.229131e-002
3.660230e+003, 1.288449e-002
3.662158e+003, 1.192821e-002
3.664087e+003, 1.122518e-002
3.666015e+003, 1.150840e-002
3.667944e+003, 1.203674e-002
3.669872e+003, 1.251050e-002
3.671801e+003, 1.121816e-002
3.673729e+003, 1.007963e-002
3.675657e+003, 1.182815e-002
3.677586e+003, 1.308617e-002
3.679514e+003, 1.277240e-002
3.681443e+003, 1.364788e-002
3.683371e+003, 1.428625e-002
3.685300e+003, 1.303719e-002
3.687228e+003, 1.160183e-002
3.689157e+003, 1.020148e-002
3.691085e+003, 9.411008e-003
3.693014e+003, 9.241619e-003
3.694942e+003, 9.202199e-003
3.696871e+003, 9.362547e-003
3.698799e+003, 1.004461e-002
3.700728e+003, 1.220832e-002
3.702656e+003, 1.341357e-002
3.704584e+003, 1.266040e-002
3.706513e+003, 1.243816e-002
3.708441e+003, 1.078606e-002
3.710370e+003, 1.075246e-002
3.712298e+003, 1.169038e-002
3.714227e+003, 1.175216e-002
3.716155e+003, 1.239580e-002
3.718084e+003, 1.139490e-002
3.720012e+003, 1.149054e-002
3.721941e+003, 1.426978e-002
3.723869e+003, 1.380886e-002
3.725798e+003, 1.198886e-002
3.727726e+003, 1.194859e-002
3.729655e+003, 1.152765e-002
3.731583e+003, 1.139711e-002
3.733511e+003, 1.001776e-002
3.735440e+003, 8.683667e-003
3.737368e+003, 1.044228e-002
3.739297e+003, 1.180224e-002
3.741225e+003, 1.146603e-002
3.743154e+003, 1.022548e-002
3.745082e+003, 1.000467e-002
3.747011e+003, 1.051146e-002
3.748939e+003, 1.064547e-002
3.750868e+003, 1.028413e-002
3.752796e+003, 1.145279e-002
3.754725e+003, 1.290233e-002
3.756653e+003, 1.166754e-002
3.758582e+003, 1.141568e-002
3.760510e+003, 1.191292e-002
3.762438e+003, 1.091623e-002
3.764367e+003, 9.948946e-003
3.766295e+003, 1.154104e-002
3.768224e+003, 1.176814e-002
3.770152e+003, 9.517776e-003
3.772081e+003, 9.458362e-003
3.774009e+003, 1.044711e-002
3.775938e+003, 1.115166e-002
3.777866e+003, 1.077484e-002
3.779795e+003, 1.067591e-002
3.781723e+003, 1.180481e-002
3.783652e+003, 1.321250e-002
3.785580e+003, 1.424472e-002
3.787509e+003, 1.167777e-002
3.789437e+003, 1.051615e-002
3.791365e+003, 1.300323e-002
3.793294e+003, 1.312927e-002
3.795222e+003, 1.344898e-002
3.797151e+003, 1.468704e-002
3.799079e+003, 1.321645e-002
3.801008e+003, 1.304190e-002
3.802936e+003, 1.093688e-002
3.804865e+003, 1.039577e-002
3.806793e+003, 1.126573e-002
3.808722e+003, 1.209759e-002
3.810650e+003, 1.343395e-002
3.812579e+003, 1.370643e-002
3.814507e+003, 1.225492e-002
3.816436e+003, 1.337062e-002
3.818364e+003, 1.567545e-002
3.820292e+003, 1.468926e-002
3.822221e+003, 1.358507e-002
3.824149e+003, 1.497625e-002
3.826078e+003, 1.556593e-002
3.828006e+003, 1.307032e-002
3.829935e+003, 1.098513e-002
3.831863e+003, 1.018492e-002
3.833792e+003, 1.089815e-002
3.835720e+003, 1.112296e-002
3.837649e+003, 1.137777e-002
3.839577e+003, 1.276274e-002
3.841506e+003, 1.238968e-002
3.843434e+003, 1.196079e-002
3.845363e+003, 1.252121e-002
3.847291e+003, 1.316156e-002
3.849219e+003, 1.380919e-002
3.851148e+003, 1.340869e-002
3.853076e+003, 1.274698e-002
3.855005e+003, 1.297330e-002
3.856933e+003, 1.190114e-002
3.858862e+003, 1.106789e-002
3.860790e+003, 1.024956e-002
3.862719e+003, 1.086939e-002
3.864647e+003, 1.036605e-002
3.866576e+003, 9.700447e-003
3.868504e+003, 1.074981e-002
3.870433e+003, 1.100418e-002
3.872361e+003, 1.012567e-002
3.874290e+003, 1.065863e-002
3.876218e+003, 1.098313e-002
3.878146e+003, 1.303221e-002
3.880075e+003, 1.333873e-002
3.882003e+003, 1.349238e-002
3.883932e+003, 1.288421e-002
3.885860e+003, 1.324123e-002
3.887789e+003, 1.410025e-002
3.889717e+003, 1.477076e-002
3.891646e+003, 1.569976e-002
3.893574e+003, 1.605990e-002
3.895503e+003, 1.445497e-002
3.897431e+003, 1.259555e-002
3.899360e+003, 1.277251e-002
3.901288e+003, 1.354488e-002
3.903217e+003, 1.256046e-002
3.905145e+003, 1.249291e-002
3.907073e+003, 1.373920e-002
3.909002e+003, 1.234888e-002
3.910930e+003, 1.206886e-002
3.912859e+003, 1.082694e-002
3.914787e+003, 7.589970e-003
3.916716e+003, 1.014354e-002
3.918644e+003, 1.155970e-002
3.920573e+003, 1.114784e-002
3.922501e+003, 1.225017e-002
3.924430e+003, 1.296817e-002
3.926358e+003, 1.129289e-002
3.928287e+003, 1.090871e-002
3.930215e+003, 1.264515e-002
3.932144e+003, 1.107690e-002
3.934072e+003, 1.178438e-002
3.936000e+003, 1.111121e-002
3.937929e+003, 9.405262e-003
3.939857e+003, 9.377975e-003
3.941786e+003, 1.052287e-002
3.943714e+003, 1.216711e-002
3.945643e+003, 1.235565e-002
3.947571e+003, 1.271939e-002
3.949500e+003, 1.213419e-002
3.951428e+003, 1.129084e-002
3.953357e+003, 9.792043e-003
3.955285e+003, 8.590681e-003
3.957214e+003, 9.173517e-003
3.959142e+003, 1.107502e-002
3.961071e+003, 1.268283e-002
3.962999e+003, 1.121705e-002
3.964927e+003, 1.005589e-002
3.966856e+003, 1.209822e-002
3.968784e+003, 1.482255e-002
3.970713e+003, 1.552467e-002
3.972641e+003, 1.477553e-002
3.974570e+003, 1.343497e-002
3.976498e+003, 1.301736e-002
3.978427e+003, 1.175239e-002
3.980355e+003, 1.135271e-002
3.982284e+003, 1.241247e-002
3.984212e+003, 1.112687e-002
3.986141e+003, 1.180193e-002
3.988069e+003, 1.330831e-002
3.989998e+003, 1.298774e-002
3.991926e+003, 1.251409e-002
3.993854e+003, 1.158313e-002
3.995783e+003, 1.045349e-002
3.997711e+003, 8.807179e-003
3.999640e+003, 8.811209e-003
##END=



