##NAMES=Kyanite
##RRUFFID=R050450
##IDEAL CHEMISTRY=Al_2_OSiO_4_
##LOCALITY=Switzerland
##OWNER=RRUFF
##SOURCE=Marcus Origlieri
##DESCRIPTION=Blue bladed crystals
##STATUS=The identification of this mineral has been confirmed by X-ray diffraction and chemical analysis
##URL=rruff.info/R050450
##MEASURED CHEMISTRY=Al_2.00_OSi_1.00_O_4_
399.1926, 0.2391794
401.1211, 0.2677759
403.0496, 0.2690632
404.9780, 0.2689501
406.9065, 0.2868561
408.8350, 0.3044310
410.7634, 0.3281660
412.6919, 0.3458560
414.6204, 0.3578375
416.5488, 0.3578398
418.4773, 0.3539886
420.4058, 0.3698637
422.3342, 0.3779114
424.2627, 0.3812437
426.1912, 0.3841425
428.1196, 0.3868351
430.0481, 0.3828852
431.9766, 0.3702228
433.9050, 0.3591770
435.8335, 0.3537204
437.7620, 0.3535202
439.6904, 0.3466160
441.6189, 0.3297986
443.5474, 0.3112918
445.4758, 0.3067735
447.4043, 0.3112148
449.3328, 0.3171842
451.2612, 0.3226494
453.1897, 0.3306959
455.1182, 0.3353753
457.0466, 0.3368267
458.9751, 0.3357129
460.9036, 0.3317919
462.8320, 0.3233075
464.7605, 0.3132268
466.6890, 0.2992598
468.6174, 0.2811557
470.5459, 0.2605174
472.4744, 0.2417635
474.4028, 0.2205464
476.3313, 0.1984802
478.2598, 0.1842311
480.1882, 0.1886395
482.1167, 0.2129523
484.0452, 0.2510588
485.9736, 0.2847893
487.9021, 0.3005047
489.8306, 0.3028391
491.7590, 0.3015026
493.6875, 0.3029085
495.6160, 0.3090056
497.5444, 0.3168377
499.4729, 0.3219875
501.4014, 0.3258534
503.3298, 0.3258868
505.2583, 0.3195688
507.1868, 0.3083179
509.1152, 0.2981426
511.0437, 0.2940824
512.9722, 0.2940952
514.9006, 0.2952996
516.8291, 0.2914677
518.7576, 0.2853299
520.6860, 0.2758381
522.6145, 0.2651930
524.5430, 0.2598153
526.4714, 0.2553907
528.3999, 0.2494837
530.3284, 0.2434112
532.2568, 0.2359916
534.1853, 0.2321162
536.1138, 0.2392518
538.0422, 0.2588554
539.9707, 0.2829292
541.8992, 0.2991140
543.8276, 0.2957673
545.7561, 0.2774940
547.6846, 0.2540754
549.6130, 0.2274083
551.5415, 0.2029253
553.4700, 0.1887789
555.3984, 0.1928559
557.3269, 0.2180627
559.2554, 0.2584786
561.1838, 0.3000429
563.1123, 0.3281799
565.0408, 0.3359328
566.9692, 0.3257389
568.8977, 0.3108570
570.8262, 0.3039644
572.7546, 0.3077415
574.6831, 0.3187599
576.6116, 0.3288465
578.5400, 0.3341276
580.4685, 0.3366783
582.3970, 0.3371126
584.3254, 0.3350774
586.2539, 0.3319301
588.1824, 0.3281146
590.1108, 0.3252025
592.0393, 0.3228731
593.9678, 0.3231803
595.8962, 0.3278615
597.8247, 0.3329999
599.7532, 0.3367686
601.6816, 0.3338690
603.6101, 0.3260403
605.5386, 0.3177048
607.4670, 0.3089738
609.3955, 0.3009850
611.3240, 0.2946286
613.2524, 0.2888868
615.1809, 0.2839597
617.1094, 0.2803875
619.0378, 0.2757541
620.9663, 0.2697249
622.8948, 0.2631689
624.8232, 0.2539579
626.7517, 0.2448147
628.6802, 0.2394123
630.6086, 0.2398814
632.5371, 0.2434755
634.4656, 0.2452905
636.3940, 0.2419979
638.3225, 0.2335685
640.2510, 0.2227657
642.1794, 0.2128264
644.1079, 0.2031007
646.0364, 0.1933932
647.9648, 0.1839616
649.8933, 0.1760603
651.8218, 0.1716535
653.7502, 0.1719190
655.6787, 0.1761430
657.6072, 0.1804160
659.5356, 0.1817097
661.4641, 0.1806064
663.3926, 0.1813670
665.3210, 0.1871475
667.2495, 0.1964787
669.1780, 0.2055372
671.1064, 0.2076681
673.0349, 0.2021477
674.9634, 0.1937540
676.8918, 0.1862223
678.8203, 0.1810947
680.7488, 0.1785958
682.6772, 0.1771674
684.6057, 0.1755952
686.5342, 0.1725701
688.4626, 0.1683056
690.3911, 0.1622632
692.3196, 0.1550674
694.2480, 0.1474532
696.1765, 0.1397770
698.1050, 0.1330259
700.0334, 0.1271296
701.9619, 0.1218444
703.8904, 0.1172139
705.8188, 0.1128227
707.7473, 0.1096211
709.6758, 0.1069683
711.6042, 0.1046557
713.5327, 0.1031113
715.4612, 0.1024391
717.3896, 0.1024248
719.3181, 0.1031611
721.2466, 0.1046392
723.1750, 0.1065911
725.1035, 0.1087713
727.0320, 0.1110965
728.9604, 0.1130018
730.8889, 0.1122827
732.8174, 0.1078187
734.7458, 0.1007768
736.6743, 9.3688034E-02
738.6028, 8.7499462E-02
740.5313, 8.2600981E-02
742.4597, 7.8610122E-02
744.3882, 7.4570961E-02
746.3167, 7.0126317E-02
748.2451, 6.5820687E-02
750.1736, 6.1805662E-02
752.1021, 5.7655498E-02
754.0305, 5.3810999E-02
755.9590, 5.0140250E-02
757.8875, 4.6475071E-02
759.8159, 4.3273181E-02
761.7444, 4.0456049E-02
763.6729, 3.7981089E-02
765.6013, 3.5890121E-02
767.5298, 3.3783700E-02
769.4583, 3.2145429E-02
771.3867, 3.0897750E-02
773.3152, 2.9540390E-02
775.2437, 2.8625250E-02
777.1721, 2.8220011E-02
779.1006, 2.7883410E-02
781.0291, 2.7698750E-02
782.9575, 2.7510870E-02
784.8860, 2.7356589E-02
786.8145, 2.7212201E-02
788.7429, 2.7255969E-02
790.6714, 2.7227679E-02
792.5999, 2.7159190E-02
794.5283, 2.7482070E-02
796.4568, 2.7768141E-02
798.3853, 2.7694261E-02
800.3137, 2.8023809E-02
802.2422, 2.8632790E-02
804.1707, 2.8975550E-02
806.0991, 2.9278809E-02
808.0276, 2.9917890E-02
809.9561, 3.0658470E-02
811.8845, 3.1335000E-02
813.8130, 3.1714641E-02
815.7415, 3.2206509E-02
817.6699, 3.3234671E-02
819.5984, 3.4492631E-02
821.5269, 3.5408270E-02
823.4553, 3.6750939E-02
825.3838, 3.8241170E-02
827.3123, 3.9763439E-02
829.2407, 4.1460838E-02
831.1692, 4.3406591E-02
833.0977, 4.5470010E-02
835.0261, 4.7404159E-02
836.9546, 4.9895391E-02
838.8831, 5.2970231E-02
840.8115, 5.5936500E-02
842.7400, 5.9054591E-02
844.6685, 6.2799998E-02
846.5969, 6.7224480E-02
848.5254, 7.2364219E-02
850.4539, 7.7754363E-02
852.3823, 8.3439097E-02
854.3108, 9.0103269E-02
856.2393, 9.7416140E-02
858.1677, 0.1060212
860.0962, 0.1162004
862.0247, 0.1274183
863.9531, 0.1398744
865.8816, 0.1538385
867.8101, 0.1699867
869.7385, 0.1878703
871.6670, 0.2070561
873.5955, 0.2271331
875.5239, 0.2466049
877.4524, 0.2618288
879.3809, 0.2715880
881.3093, 0.2774113
883.2378, 0.2806942
885.1663, 0.2838640
887.0947, 0.2890838
889.0232, 0.2954726
890.9517, 0.3011519
892.8801, 0.3042262
894.8085, 0.3038642
896.7370, 0.3001046
898.6655, 0.2936659
900.5939, 0.2860592
902.5224, 0.2790474
904.4509, 0.2737729
906.3793, 0.2711396
908.3078, 0.2717352
910.2363, 0.2757100
912.1647, 0.2817668
914.0932, 0.2903941
916.0217, 0.3024161
917.9501, 0.3177346
919.8786, 0.3347033
921.8071, 0.3520416
923.7355, 0.3674165
925.6640, 0.3805121
927.5925, 0.3905013
929.5209, 0.3954315
931.4494, 0.3963383
933.3779, 0.3935238
935.3063, 0.3877434
937.2348, 0.3795600
939.1633, 0.3683815
941.0917, 0.3558551
943.0202, 0.3434705
944.9487, 0.3327282
946.8771, 0.3237748
948.8056, 0.3155352
950.7341, 0.3069761
952.6625, 0.2982434
954.5910, 0.2891465
956.5195, 0.2799623
958.4479, 0.2721769
960.3764, 0.2650751
962.3049, 0.2586948
964.2333, 0.2529579
966.1618, 0.2475560
968.0903, 0.2425583
970.0187, 0.2375665
971.9472, 0.2320078
973.8757, 0.2258973
975.8041, 0.2199141
977.7326, 0.2145082
979.6611, 0.2093142
981.5895, 0.2044219
983.5180, 0.2001310
985.4465, 0.1963277
987.3749, 0.1931032
989.3034, 0.1910039
991.2319, 0.1896206
993.1603, 0.1887568
995.0888, 0.1886620
997.0173, 0.1891460
998.9457, 0.1900588
1000.874, 0.1901348
1002.803, 0.1893326
1004.731, 0.1883714
1006.660, 0.1864588
1008.588, 0.1840595
1010.517, 0.1817629
1012.445, 0.1794396
1014.373, 0.1764448
1016.302, 0.1732611
1018.230, 0.1696692
1020.159, 0.1657343
1022.087, 0.1613681
1024.016, 0.1557523
1025.944, 0.1495428
1027.873, 0.1433645
1029.801, 0.1369403
1031.730, 0.1304446
1033.658, 0.1243800
1035.587, 0.1182331
1037.515, 0.1120806
1039.444, 0.1066549
1041.372, 0.1015721
1043.301, 9.6434362E-02
1045.229, 9.1047414E-02
1047.157, 8.5605010E-02
1049.086, 8.0565050E-02
1051.014, 7.5497434E-02
1052.943, 7.0510536E-02
1054.871, 6.6244580E-02
1056.800, 6.2033590E-02
1058.728, 5.7739820E-02
1060.657, 5.3891730E-02
1062.585, 5.0260391E-02
1064.514, 4.7178131E-02
1066.442, 4.4569939E-02
1068.371, 4.2043760E-02
1070.299, 3.9504878E-02
1072.228, 3.7403949E-02
1074.156, 3.5593629E-02
1076.084, 3.3711780E-02
1078.013, 3.2089520E-02
1079.941, 3.0371720E-02
1081.870, 2.8747940E-02
1083.798, 2.7360501E-02
1085.727, 2.6029799E-02
1087.655, 2.4999410E-02
1089.584, 2.3809090E-02
1091.512, 2.2825420E-02
1093.441, 2.1913460E-02
1095.369, 2.0693960E-02
1097.298, 1.9963620E-02
1099.226, 1.9573070E-02
1101.155, 1.9066110E-02
1103.083, 1.8648859E-02
1105.011, 1.8245190E-02
1106.940, 1.7697141E-02
1108.868, 1.7181240E-02
1110.797, 1.6767310E-02
1112.725, 1.6397100E-02
1114.654, 1.6122749E-02
1116.582, 1.5965579E-02
1118.511, 1.5513940E-02
1120.439, 1.5066510E-02
1122.368, 1.4668010E-02
1124.296, 1.4442740E-02
1126.225, 1.4297000E-02
1128.153, 1.4128030E-02
1130.082, 1.4057460E-02
1132.010, 1.3541070E-02
1133.938, 1.3214310E-02
1135.867, 1.2885230E-02
1137.795, 1.2495840E-02
1139.724, 1.2248610E-02
1141.652, 1.1894100E-02
1143.581, 1.1714310E-02
1145.509, 1.1541860E-02
1147.438, 1.1144720E-02
1149.366, 1.0921900E-02
1151.295, 1.0889500E-02
1153.223, 1.0634790E-02
1155.152, 1.0226650E-02
1157.080, 9.8753106E-03
1159.009, 9.5554171E-03
1160.937, 9.6489061E-03
1162.865, 9.6617909E-03
1164.794, 9.0805972E-03
1166.722, 8.7821595E-03
1168.651, 8.7243821E-03
1170.579, 8.5954461E-03
1172.508, 8.2542365E-03
1174.436, 7.7645942E-03
1176.365, 7.5619798E-03
1178.293, 7.7737230E-03
1180.222, 7.6810811E-03
1182.150, 7.4493210E-03
1184.079, 7.0101828E-03
1186.007, 6.9885771E-03
1187.936, 6.9406540E-03
1189.864, 6.7853602E-03
1191.792, 6.5797432E-03
1193.721, 6.4002261E-03
1195.649, 6.4204731E-03
1197.578, 6.3302009E-03
1199.506, 6.1879810E-03
1201.435, 6.1725108E-03
1203.363, 6.0726870E-03
1205.292, 5.8302851E-03
1207.220, 5.6522908E-03
1209.149, 5.5290288E-03
1211.077, 5.2489489E-03
1213.006, 4.9272110E-03
1214.934, 4.9679191E-03
1216.863, 4.9946900E-03
1218.791, 4.8467359E-03
1220.719, 4.5341910E-03
1222.648, 4.5190039E-03
1224.576, 4.4259229E-03
1226.505, 4.3352921E-03
1228.433, 4.2648031E-03
1230.362, 4.1691829E-03
1232.290, 4.0804222E-03
1234.219, 4.0254528E-03
1236.147, 4.0246029E-03
1238.076, 3.9795511E-03
1240.004, 3.9787129E-03
1241.933, 3.8836349E-03
1243.861, 3.6835149E-03
1245.790, 3.6048649E-03
1247.718, 3.6482769E-03
1249.646, 3.6580011E-03
1251.575, 3.6266150E-03
1253.503, 3.7524251E-03
1255.432, 3.8063261E-03
1257.360, 3.5674730E-03
1259.289, 3.3858721E-03
1261.217, 3.3390450E-03
1263.146, 3.3453291E-03
1265.074, 3.6095260E-03
1267.003, 3.7175980E-03
1268.931, 3.8254929E-03
1270.860, 4.0710140E-03
1272.788, 4.1662049E-03
1274.717, 4.0218038E-03
1276.645, 3.7506600E-03
1278.573, 3.7998320E-03
1280.502, 4.1051079E-03
1282.430, 4.0930980E-03
1284.359, 3.9186710E-03
1286.287, 3.7392990E-03
1288.216, 3.8469690E-03
1290.144, 4.0308670E-03
1292.073, 3.8889640E-03
1294.001, 3.6780790E-03
1295.930, 3.5512319E-03
1297.858, 3.3869019E-03
1299.787, 3.4133820E-03
1301.715, 3.5725981E-03
1303.644, 3.7006601E-03
1305.572, 3.7174120E-03
1307.500, 3.5138859E-03
1309.429, 3.3052380E-03
1311.357, 3.2983499E-03
1313.286, 3.6185861E-03
1315.214, 3.9077611E-03
1317.143, 3.8012750E-03
1319.071, 3.6154829E-03
1321.000, 3.3923851E-03
1322.928, 3.3033809E-03
1324.857, 3.3659050E-03
1326.785, 3.3803550E-03
1328.714, 3.4668031E-03
1330.642, 3.4532940E-03
1332.571, 3.5893470E-03
1334.499, 3.4767820E-03
1336.427, 3.2791500E-03
1338.356, 3.2746950E-03
1340.284, 3.2719111E-03
1342.213, 3.2913331E-03
1344.141, 3.2934190E-03
1346.070, 3.2763910E-03
1347.998, 3.1203991E-03
1349.927, 3.1075061E-03
1351.855, 3.3693051E-03
1353.784, 3.4324480E-03
1355.712, 3.3108380E-03
1357.641, 2.8564271E-03
1359.569, 2.7385030E-03
1361.498, 3.1344141E-03
1363.426, 3.3155931E-03
1365.354, 3.1237360E-03
1367.283, 3.0828810E-03
1369.211, 3.2007480E-03
1371.140, 3.1375210E-03
1373.068, 2.8466000E-03
1374.997, 2.9187640E-03
1376.925, 2.7288210E-03
1378.854, 2.4696251E-03
1380.782, 2.5733740E-03
1382.711, 2.6191161E-03
1384.639, 2.7523120E-03
1386.568, 3.1978560E-03
1388.496, 3.2844059E-03
1390.424, 3.0684690E-03
1392.353, 3.0679479E-03
1394.281, 3.0687619E-03
1396.210, 3.2598600E-03
1398.138, 3.3721949E-03
1400.067, 3.5308050E-03
1401.995, 3.2933580E-03
1403.924, 3.1569870E-03
1405.852, 3.3040100E-03
1407.781, 3.5572960E-03
1409.709, 3.4343449E-03
1411.638, 3.2750960E-03
1413.566, 3.1789979E-03
1415.495, 3.1000839E-03
1417.423, 3.3389479E-03
1419.351, 3.7425130E-03
1421.280, 3.8514631E-03
1423.208, 3.7002121E-03
1425.137, 3.5736540E-03
1427.065, 3.7997700E-03
1428.994, 4.0316628E-03
1430.922, 3.9663371E-03
1432.851, 3.9218022E-03
1434.779, 3.6564569E-03
1436.708, 3.5325291E-03
1438.636, 3.7903411E-03
1440.565, 3.9297538E-03
1442.493, 3.8562370E-03
1444.422, 3.5890390E-03
1446.350, 3.5513700E-03
1448.278, 3.5969340E-03
1450.207, 3.5237761E-03
1452.135, 3.7724180E-03
1454.064, 3.8122779E-03
1455.992, 3.6814020E-03
1457.921, 3.4558140E-03
1459.849, 3.3715831E-03
1461.778, 3.6110729E-03
1463.706, 3.8386800E-03
1465.635, 3.7009949E-03
1467.563, 3.4915779E-03
1469.492, 3.7699961E-03
1471.420, 4.2582480E-03
1473.349, 4.4236169E-03
1475.277, 4.2097722E-03
1477.205, 3.8261230E-03
1479.134, 3.7481470E-03
1481.062, 4.0694149E-03
1482.991, 3.9860080E-03
1484.919, 3.8880771E-03
1486.848, 4.0786192E-03
1488.776, 4.0453379E-03
1490.705, 4.0814439E-03
1492.633, 4.2417250E-03
1494.562, 4.1992059E-03
1496.490, 4.2301281E-03
1498.419, 4.4842409E-03
1500.347, 4.7838590E-03
1502.276, 4.6856180E-03
1504.204, 4.7857640E-03
1506.132, 4.9229702E-03
1508.061, 5.0201528E-03
1509.989, 4.9968781E-03
1511.918, 4.7398619E-03
1513.846, 4.5941030E-03
1515.775, 4.5028059E-03
1517.703, 4.5959330E-03
1519.632, 4.7465991E-03
1521.560, 4.6833120E-03
1523.489, 4.6885870E-03
1525.417, 4.6660681E-03
1527.346, 4.4201980E-03
1529.274, 4.1982629E-03
1531.203, 4.2189248E-03
1533.131, 4.6876180E-03
1535.059, 4.8970501E-03
1536.988, 4.8293308E-03
1538.916, 4.9208100E-03
1540.845, 4.8033972E-03
1542.773, 4.8427200E-03
1544.702, 5.0507910E-03
1546.630, 4.9721142E-03
1548.559, 5.0039012E-03
1550.487, 5.0527821E-03
1552.416, 5.1666121E-03
1554.344, 5.2696709E-03
1556.273, 5.4468480E-03
1558.201, 5.7789711E-03
1560.130, 5.6889988E-03
1562.058, 5.5097770E-03
1563.986, 5.4072938E-03
1565.915, 5.3851982E-03
1567.843, 5.1839319E-03
1569.772, 5.1897322E-03
1571.700, 5.5658389E-03
1573.629, 5.6135152E-03
1575.557, 5.4819770E-03
1577.486, 5.2961372E-03
1579.414, 5.1539582E-03
1581.343, 5.2234982E-03
1583.271, 5.3702272E-03
1585.200, 5.3801029E-03
1587.128, 5.3668800E-03
1589.057, 5.3475061E-03
1590.985, 5.4867701E-03
1592.913, 5.6578289E-03
1594.842, 5.3414130E-03
1596.770, 5.2072899E-03
1598.699, 5.5387360E-03
1600.627, 5.6576920E-03
1602.556, 5.9184078E-03
1604.484, 5.9140562E-03
1606.413, 5.5822539E-03
1608.341, 5.5342182E-03
1610.270, 5.6362101E-03
1612.198, 5.7122698E-03
1614.127, 6.0181022E-03
1616.055, 6.0817329E-03
1617.984, 5.9734918E-03
1619.912, 6.0670120E-03
1621.840, 6.2351301E-03
1623.769, 6.1858231E-03
1625.697, 5.8102808E-03
1627.626, 5.8153248E-03
1629.554, 5.9103039E-03
1631.483, 5.6239269E-03
1633.411, 5.7029701E-03
1635.340, 5.7485411E-03
1637.268, 5.7436158E-03
1639.197, 5.9266561E-03
1641.125, 6.2001050E-03
1643.054, 6.2274360E-03
1644.982, 6.0437052E-03
1646.911, 5.8771851E-03
1648.839, 5.9909918E-03
1650.767, 5.8985590E-03
1652.696, 5.8153481E-03
1654.624, 5.8349008E-03
1656.553, 5.9507759E-03
1658.481, 6.2730489E-03
1660.410, 6.2683560E-03
1662.338, 6.0268771E-03
1664.267, 5.7466091E-03
1666.195, 5.5176900E-03
1668.124, 5.4684961E-03
1670.052, 5.9830341E-03
1671.981, 6.0626180E-03
1673.909, 5.6096329E-03
1675.838, 5.2857990E-03
1677.766, 5.4205158E-03
1679.694, 5.7400800E-03
1681.623, 5.8060889E-03
1683.551, 5.6429580E-03
1685.480, 5.5231978E-03
1687.408, 5.3306292E-03
1689.337, 4.9797329E-03
1691.265, 5.0479341E-03
1693.194, 5.3412770E-03
1695.122, 5.3925081E-03
1697.051, 5.1318440E-03
1698.979, 4.8293038E-03
1700.908, 5.0062952E-03
1702.836, 4.9130218E-03
1704.765, 4.9959230E-03
1706.693, 4.7746189E-03
1708.621, 4.3379860E-03
1710.550, 4.2605079E-03
1712.478, 4.1752062E-03
1714.407, 4.2264662E-03
1716.335, 4.6619498E-03
1718.264, 4.8725451E-03
1720.192, 4.8392322E-03
1722.121, 4.6170899E-03
1724.049, 4.3529072E-03
1725.978, 4.5055649E-03
1727.906, 4.1749948E-03
1729.835, 3.5816871E-03
1731.763, 3.4651910E-03
1733.692, 3.2502480E-03
1735.620, 2.8867340E-03
1737.548, 2.7972469E-03
1739.477, 2.2510351E-03
1741.405, 1.5804900E-03
1743.334, 1.8362220E-03
1745.262, 1.9677070E-03
1747.191, 1.8312890E-03
1749.119, 1.9586331E-03
1751.048, 2.2757850E-03
1752.976, 2.6020380E-03
1754.905, 3.1081270E-03
1756.833, 3.6217370E-03
1758.762, 3.9425460E-03
1760.690, 4.3823998E-03
1762.619, 4.3008602E-03
1764.547, 4.3139728E-03
1766.475, 4.6099280E-03
1768.404, 4.9926708E-03
1770.332, 4.8927348E-03
1772.261, 4.3938961E-03
1774.189, 4.3526809E-03
1776.118, 4.5116590E-03
1778.046, 4.6199141E-03
1779.975, 5.0743739E-03
1781.903, 5.3575798E-03
1783.832, 4.8165582E-03
1785.760, 4.7252001E-03
1787.689, 4.9691382E-03
1789.617, 4.8240661E-03
1791.546, 4.5862580E-03
1793.474, 4.7164350E-03
1795.402, 4.8137410E-03
1797.331, 4.9088588E-03
1799.259, 5.1399120E-03
1801.188, 5.2441899E-03
1803.116, 5.4484340E-03
1805.045, 5.6972490E-03
1806.973, 5.8787949E-03
1808.902, 5.3887852E-03
1810.830, 5.0574979E-03
1812.759, 5.1499391E-03
1814.687, 4.8456630E-03
1816.616, 5.0119259E-03
1818.544, 5.6189620E-03
1820.473, 5.5864658E-03
1822.401, 5.6134858E-03
1824.329, 5.2226041E-03
1826.258, 4.8452052E-03
1828.186, 5.2732802E-03
1830.115, 5.4272530E-03
1832.043, 5.0646928E-03
1833.972, 4.7442568E-03
1835.900, 4.7781910E-03
1837.829, 5.1552108E-03
1839.757, 5.6151962E-03
1841.686, 5.7988851E-03
1843.614, 5.4803859E-03
1845.543, 4.6072542E-03
1847.471, 3.8489380E-03
1849.400, 4.3336740E-03
1851.328, 4.6123811E-03
1853.256, 4.4071078E-03
1855.185, 4.0883208E-03
1857.113, 4.0372820E-03
1859.042, 4.1807140E-03
1860.970, 4.5189541E-03
1862.899, 5.4895482E-03
1864.827, 5.8646551E-03
1866.756, 5.5905930E-03
1868.684, 4.9055000E-03
1870.613, 4.8686611E-03
1872.541, 4.7160280E-03
1874.470, 4.4777249E-03
1876.398, 3.8292429E-03
1878.327, 3.4327121E-03
1880.255, 3.6132471E-03
1882.183, 4.1400460E-03
1884.112, 4.3688212E-03
1886.040, 4.5945980E-03
1887.969, 5.0293221E-03
1889.897, 4.2187581E-03
1891.826, 4.0054028E-03
1893.754, 4.1709840E-03
1895.683, 4.6924371E-03
1897.611, 4.4354592E-03
1899.540, 3.4614929E-03
1901.468, 3.8127401E-03
1903.397, 4.1803052E-03
1905.325, 4.1384120E-03
1907.254, 4.3487218E-03
1909.182, 3.8322739E-03
1911.110, 2.7917800E-03
1913.039, 4.0938221E-03
1914.967, 5.2025011E-03
1916.896, 5.0811372E-03
1918.824, 4.5888568E-03
1920.753, 3.7228421E-03
1922.681, 3.0583951E-03
1924.610, 2.1277170E-03
1926.538, 2.1626800E-03
1928.467, 1.7351540E-03
1930.395, 1.4531910E-03
1932.324, 2.0326499E-03
1934.252, 2.8821121E-03
1936.181, 3.7555150E-03
1938.109, 3.9486629E-03
1940.037, 2.7380050E-03
1941.966, 1.8907770E-03
1943.894, 2.5448340E-03
1945.823, 2.5424440E-03
1947.751, 2.6021879E-03
1949.680, 1.8512839E-03
1951.608, 8.1710861E-04
1953.537, 8.7072217E-04
1955.465, 5.7256961E-04
1957.394, -1.4137510E-04
1959.322, -2.9754240E-04
1961.251, 1.4613169E-03
1963.179, 9.8122889E-04
1965.108, -1.2227149E-04
1967.036, -3.6666580E-04
1968.964, 2.1078831E-03
1970.893, 2.6490230E-03
1972.821, 5.8105303E-04
1974.750, 2.2597050E-03
1976.678, 5.4462790E-03
1978.607, 6.2807230E-03
1980.535, 4.3901508E-03
1982.464, 3.0174919E-03
1984.392, 2.8137970E-03
1986.321, 2.1801710E-03
1988.249, 1.7163960E-03
1990.178, 9.2923519E-04
1992.106, -3.9405000E-05
1994.035, 3.4065999E-04
1995.963, 2.0491451E-03
1997.891, 1.4254909E-03
1999.820, 5.1123009E-04
2001.748, 8.5631102E-05
2003.677, -1.2890670E-03
2005.605, -2.0632050E-03
2007.534, -3.5267201E-04
2009.462, -2.9730279E-04
2011.391, -3.7148411E-03
2013.319, -4.2114789E-03
2015.248, -1.5503709E-03
2017.176, -7.3303102E-04
2019.105, -2.5300919E-03
2021.033, -3.5756680E-03
2022.962, -3.0623011E-03
2024.890, -3.2663769E-03
2026.818, -1.9077330E-03
2028.747, 1.8818990E-03
2030.675, 2.2409961E-03
2032.604, 1.2512760E-03
2034.532, -1.8327500E-04
2036.461, 3.7180151E-05
2038.389, -3.7179751E-04
2040.318, -3.1991181E-04
2042.246, 3.9283131E-04
2044.175, 4.1766459E-04
2046.103, 3.1368770E-03
2048.032, 4.1771848E-03
2049.960, 3.8379901E-03
2051.889, 4.2942818E-03
2053.817, 3.9683771E-03
2055.746, 4.2808629E-03
2057.674, 4.2849472E-03
2059.603, 3.7962799E-03
2061.531, 3.5468820E-03
2063.459, 3.3820430E-03
2065.388, 4.3583610E-03
2067.316, 5.5920640E-03
2069.245, 5.6474390E-03
2071.173, 5.5122469E-03
2073.102, 5.0771711E-03
2075.030, 4.8156641E-03
2076.959, 5.2052462E-03
2078.887, 6.2511349E-03
2080.816, 7.2641550E-03
2082.744, 6.0247630E-03
2084.673, 5.0700130E-03
2086.601, 4.6541011E-03
2088.530, 4.4989199E-03
2090.458, 6.2237862E-03
2092.386, 7.1638040E-03
2094.315, 6.2710429E-03
2096.243, 5.5023092E-03
2098.172, 5.2668010E-03
2100.100, 6.1759180E-03
2102.029, 6.3567702E-03
2103.957, 6.1907680E-03
2105.886, 6.4685652E-03
2107.814, 6.9479030E-03
2109.743, 6.5462398E-03
2111.671, 5.6512160E-03
2113.600, 6.9220942E-03
2115.528, 8.5015511E-03
2117.457, 8.9251325E-03
2119.385, 7.1311821E-03
2121.313, 6.3520982E-03
2123.242, 7.0736879E-03
2125.170, 6.4231362E-03
2127.099, 7.3607229E-03
2129.027, 6.1301710E-03
2130.956, 3.7364389E-03
2132.884, 3.5354870E-03
2134.813, 2.2167941E-03
2136.741, 3.3384301E-03
2138.670, 4.2649438E-03
2140.598, 2.2390119E-03
2142.527, 1.3948740E-03
2144.455, 1.8021200E-03
2146.384, 1.7218000E-03
2148.312, 3.8049661E-03
2150.240, 5.9305839E-03
2152.169, 3.2959790E-03
2154.097, -1.4163430E-03
2156.026, -1.4771690E-03
2157.954, 6.4895989E-04
2159.883, 5.1600230E-03
2161.811, 9.4506461E-03
2163.740, 8.2953759E-03
2165.668, 9.1392146E-03
2167.597, 9.9545121E-03
2169.525, 8.7083168E-03
2171.454, 8.0165779E-03
2173.382, 7.5028101E-03
2175.311, 7.3298160E-03
2177.239, 7.7772848E-03
2179.167, 6.0140742E-03
2181.096, 5.8406452E-03
2183.024, 7.0141340E-03
2184.953, 8.2142809E-03
2186.881, 8.5295094E-03
2188.810, 8.3816126E-03
2190.738, 9.3255686E-03
2192.667, 1.0713720E-02
2194.595, 1.0479170E-02
2196.524, 9.0319347E-03
2198.452, 7.4991202E-03
2200.381, 7.9982309E-03
2202.309, 7.6790219E-03
2204.238, 6.7742001E-03
2206.166, 6.7981631E-03
2208.094, 7.5257439E-03
2210.023, 8.8699842E-03
2211.951, 1.0386440E-02
2213.880, 9.7471094E-03
2215.808, 7.7761980E-03
2217.737, 6.8995371E-03
2219.665, 7.0876302E-03
2221.594, 8.8378983E-03
2223.522, 1.0117610E-02
2225.451, 9.9157533E-03
2227.379, 1.0133590E-02
2229.308, 8.9389598E-03
2231.236, 7.2789020E-03
2233.165, 7.0300372E-03
2235.093, 6.7568589E-03
2237.021, 7.6977732E-03
2238.950, 9.5824907E-03
2240.878, 9.6670808E-03
2242.807, 9.2987716E-03
2244.735, 9.2303287E-03
2246.664, 9.7367000E-03
2248.592, 9.0891542E-03
2250.521, 8.9526745E-03
2252.449, 1.0194180E-02
2254.378, 1.0695680E-02
2256.306, 1.0406330E-02
2258.235, 1.0339610E-02
2260.163, 9.1652526E-03
2262.092, 9.1399373E-03
2264.020, 8.9028897E-03
2265.948, 9.1305133E-03
2267.877, 9.7217001E-03
2269.805, 1.1423600E-02
2271.734, 1.1414720E-02
2273.662, 1.0563210E-02
2275.591, 1.0785810E-02
2277.519, 1.1531820E-02
2279.448, 1.1609740E-02
2281.376, 1.1324230E-02
2283.305, 1.0607470E-02
2285.233, 1.0809850E-02
2287.162, 1.1174900E-02
2289.090, 1.1347330E-02
2291.019, 1.1431300E-02
2292.947, 1.0920070E-02
2294.875, 1.1157070E-02
2296.804, 1.2347390E-02
2298.732, 1.2062060E-02
2300.661, 1.1035040E-02
2302.589, 1.0038260E-02
2304.518, 9.4191898E-03
2306.446, 1.0330840E-02
2308.375, 1.1158500E-02
2310.303, 1.1039340E-02
2312.232, 1.1473440E-02
2314.160, 1.1722460E-02
2316.089, 1.1079010E-02
2318.017, 1.1136460E-02
2319.946, 1.1822700E-02
2321.874, 1.2491980E-02
2323.802, 1.2297660E-02
2325.731, 1.0554880E-02
2327.659, 9.3594799E-03
2329.588, 9.0855639E-03
2331.516, 9.1409469E-03
2333.445, 9.9715367E-03
2335.373, 9.9383611E-03
2337.302, 9.3923891E-03
2339.230, 9.4097611E-03
2341.159, 9.5245512E-03
2343.087, 8.9378469E-03
2345.016, 9.1579631E-03
2346.944, 9.7066620E-03
2348.873, 9.6593248E-03
2350.801, 9.3073379E-03
2352.729, 9.2838211E-03
2354.658, 9.2271101E-03
2356.586, 9.4512850E-03
2358.515, 8.6616185E-03
2360.443, 8.4814671E-03
2362.372, 8.7909605E-03
2364.300, 8.6776502E-03
2366.229, 8.6977743E-03
2368.157, 9.1275228E-03
2370.086, 9.1711646E-03
2372.014, 8.8888351E-03
2373.942, 9.1961678E-03
2375.871, 9.3617896E-03
2377.799, 9.3654143E-03
2379.728, 9.7072516E-03
2381.656, 1.0097070E-02
2383.585, 9.9177659E-03
2385.513, 9.2831003E-03
2387.442, 1.0043880E-02
2389.370, 1.1046200E-02
2391.299, 1.1169160E-02
2393.227, 1.1053290E-02
2395.156, 1.0853670E-02
2397.084, 1.0777590E-02
2399.012, 1.0373910E-02
2400.941, 9.6925236E-03
2402.869, 1.0088120E-02
2404.798, 1.0575430E-02
2406.726, 1.0047790E-02
2408.655, 1.0374260E-02
2410.583, 1.0990740E-02
2412.512, 1.0576170E-02
2414.440, 1.1186440E-02
2416.369, 1.0858950E-02
2418.297, 1.0122790E-02
2420.226, 1.0725750E-02
2422.154, 1.1003590E-02
2424.083, 1.1490760E-02
2426.011, 1.1663670E-02
2427.939, 1.1867200E-02
2429.868, 1.2026700E-02
2431.796, 1.1082980E-02
2433.725, 1.0563030E-02
2435.653, 1.0670280E-02
2437.582, 1.1685160E-02
2439.510, 1.1456360E-02
2441.439, 1.0692930E-02
2443.367, 1.1023310E-02
2445.296, 1.1013420E-02
2447.224, 1.0532110E-02
2449.153, 1.0561800E-02
2451.081, 1.1389120E-02
2453.010, 1.1639550E-02
2454.938, 1.0501560E-02
2456.866, 1.0655990E-02
2458.795, 1.1440030E-02
2460.723, 1.1093130E-02
2462.652, 1.1614690E-02
2464.580, 1.2351490E-02
2466.509, 1.1844410E-02
2468.437, 1.0779450E-02
2470.366, 1.0483650E-02
2472.294, 1.1395120E-02
2474.223, 1.1398380E-02
2476.151, 1.1895440E-02
2478.080, 1.3251580E-02
2480.008, 1.2675310E-02
2481.937, 1.1934120E-02
2483.865, 1.1812420E-02
2485.793, 1.1776960E-02
2487.722, 1.1264310E-02
2489.650, 1.1378250E-02
2491.579, 1.0889350E-02
2493.507, 1.0373470E-02
2495.436, 1.0649240E-02
2497.364, 1.1290910E-02
2499.293, 1.1268840E-02
2501.221, 1.0997710E-02
2503.150, 1.0719020E-02
2505.078, 9.9546760E-03
2507.007, 1.0812970E-02
2508.935, 1.1561910E-02
2510.864, 1.1718700E-02
2512.792, 1.1669130E-02
2514.720, 1.0818470E-02
2516.649, 1.1016690E-02
2518.577, 1.1848930E-02
2520.506, 1.2401660E-02
2522.434, 1.2285040E-02
2524.363, 1.2717020E-02
2526.291, 1.2356980E-02
2528.220, 1.1982620E-02
2530.148, 1.2268770E-02
2532.077, 1.1289420E-02
2534.005, 1.0640880E-02
2535.934, 1.1806490E-02
2537.862, 1.2963260E-02
2539.791, 1.2937690E-02
2541.719, 1.2675640E-02
2543.647, 1.1424370E-02
2545.576, 1.1282970E-02
2547.504, 1.0966240E-02
2549.433, 1.0325150E-02
2551.361, 1.1988470E-02
2553.290, 1.2561860E-02
2555.218, 1.0685510E-02
2557.147, 1.0056930E-02
2559.075, 1.2045290E-02
2561.004, 1.3409840E-02
2562.932, 1.2340070E-02
2564.861, 1.2057310E-02
2566.789, 1.2132320E-02
2568.718, 1.2099020E-02
2570.646, 1.2692820E-02
2572.574, 1.2885130E-02
2574.503, 1.2911100E-02
2576.431, 1.2152440E-02
2578.360, 1.2296620E-02
2580.288, 1.2165010E-02
2582.217, 1.1453760E-02
2584.145, 1.1172050E-02
2586.074, 1.2557030E-02
2588.002, 1.3582800E-02
2589.931, 1.2792210E-02
2591.859, 1.1569320E-02
2593.788, 1.1447430E-02
2595.716, 1.2576190E-02
2597.645, 1.2356650E-02
2599.573, 1.1493760E-02
2601.501, 1.2034480E-02
2603.430, 1.2462490E-02
2605.358, 1.1977370E-02
2607.287, 1.2368720E-02
2609.215, 1.2959860E-02
2611.144, 1.2546390E-02
2613.072, 1.2453410E-02
2615.001, 1.2996750E-02
2616.929, 1.3793600E-02
2618.858, 1.4140040E-02
2620.786, 1.4044690E-02
2622.715, 1.3374790E-02
2624.643, 1.3485640E-02
2626.572, 1.2612160E-02
2628.500, 1.1181650E-02
2630.428, 1.1796260E-02
2632.357, 1.2695330E-02
2634.285, 1.2148110E-02
2636.214, 1.2392030E-02
2638.142, 1.3061190E-02
2640.071, 1.3279390E-02
2641.999, 1.3190170E-02
2643.928, 1.2547320E-02
2645.856, 1.2596090E-02
2647.785, 1.3376150E-02
2649.713, 1.3352310E-02
2651.642, 1.2622040E-02
2653.570, 1.2248420E-02
2655.499, 1.2389740E-02
2657.427, 1.2272270E-02
2659.355, 1.2409960E-02
2661.284, 1.2342940E-02
2663.212, 1.2365350E-02
2665.141, 1.2485520E-02
2667.069, 1.2517060E-02
2668.998, 1.2341080E-02
2670.926, 1.2708110E-02
2672.855, 1.2733310E-02
2674.783, 1.2422740E-02
2676.712, 1.2463080E-02
2678.640, 1.2684240E-02
2680.569, 1.3448320E-02
2682.497, 1.3421220E-02
2684.426, 1.2846800E-02
2686.354, 1.2349460E-02
2688.282, 1.2687400E-02
2690.211, 1.3313300E-02
2692.139, 1.3097570E-02
2694.068, 1.2674450E-02
2695.996, 1.3092220E-02
2697.925, 1.2873530E-02
2699.853, 1.1661720E-02
2701.782, 1.1406430E-02
2703.710, 1.3031110E-02
2705.639, 1.3851570E-02
2707.567, 1.3484010E-02
2709.496, 1.3496100E-02
2711.424, 1.2917690E-02
2713.353, 1.3212160E-02
2715.281, 1.3620760E-02
2717.209, 1.2981550E-02
2719.138, 1.2896090E-02
2721.066, 1.3417040E-02
2722.995, 1.3247420E-02
2724.923, 1.3285390E-02
2726.852, 1.3336030E-02
2728.780, 1.3470260E-02
2730.709, 1.3482650E-02
2732.637, 1.3068630E-02
2734.566, 1.2496050E-02
2736.494, 1.2820340E-02
2738.423, 1.3432920E-02
2740.351, 1.3318230E-02
2742.280, 1.2927390E-02
2744.208, 1.2520340E-02
2746.136, 1.3021630E-02
2748.065, 1.3588940E-02
2749.993, 1.3812680E-02
2751.922, 1.3532910E-02
2753.850, 1.3252530E-02
2755.779, 1.3222840E-02
2757.707, 1.2814080E-02
2759.636, 1.2271730E-02
2761.564, 1.2829750E-02
2763.493, 1.3407910E-02
2765.421, 1.3942690E-02
2767.350, 1.4926500E-02
2769.278, 1.4791640E-02
2771.207, 1.4493560E-02
2773.135, 1.4212810E-02
2775.063, 1.3797310E-02
2776.992, 1.4460170E-02
2778.920, 1.4220630E-02
2780.849, 1.3942980E-02
2782.777, 1.3953430E-02
2784.706, 1.4079970E-02
2786.634, 1.4826190E-02
2788.563, 1.3913850E-02
2790.491, 1.3255670E-02
2792.420, 1.3828050E-02
2794.348, 1.3705370E-02
2796.277, 1.2942240E-02
2798.205, 1.3461040E-02
2800.134, 1.4360670E-02
2802.062, 1.4116030E-02
2803.990, 1.3817830E-02
2805.919, 1.4173770E-02
2807.847, 1.3817560E-02
2809.776, 1.2844470E-02
2811.704, 1.3942790E-02
2813.633, 1.4634430E-02
2815.561, 1.3546310E-02
2817.490, 1.2989520E-02
2819.418, 1.3429120E-02
2821.347, 1.3894790E-02
2823.275, 1.4326200E-02
2825.204, 1.4414920E-02
2827.132, 1.4116320E-02
2829.061, 1.3810330E-02
2830.989, 1.3520890E-02
2832.917, 1.3296240E-02
2834.846, 1.3372820E-02
2836.774, 1.3773750E-02
2838.703, 1.4140620E-02
2840.631, 1.4231660E-02
2842.560, 1.4114050E-02
2844.488, 1.4275070E-02
2846.417, 1.4588470E-02
2848.345, 1.4177580E-02
2850.274, 1.4056360E-02
2852.202, 1.3099360E-02
2854.131, 1.2443540E-02
2856.059, 1.3369840E-02
2857.988, 1.3554610E-02
2859.916, 1.4620900E-02
2861.844, 1.5446310E-02
2863.773, 1.4831890E-02
2865.701, 1.3703380E-02
2867.630, 1.4027090E-02
2869.558, 1.4771140E-02
2871.487, 1.4481570E-02
2873.415, 1.3715530E-02
2875.344, 1.2930790E-02
2877.272, 1.3603130E-02
2879.201, 1.4725150E-02
2881.129, 1.4504800E-02
2883.058, 1.3926190E-02
2884.986, 1.3443000E-02
2886.915, 1.3905840E-02
2888.843, 1.4073240E-02
2890.771, 1.2673490E-02
2892.700, 1.2055330E-02
2894.628, 1.3069570E-02
2896.557, 1.3999930E-02
2898.485, 1.4305010E-02
2900.414, 1.2401590E-02
2902.342, 1.1496560E-02
2904.271, 1.2251190E-02
2906.199, 1.2668860E-02
2908.128, 1.2767620E-02
2910.056, 1.3660780E-02
2911.985, 1.5050550E-02
2913.913, 1.4909530E-02
2915.842, 1.3280010E-02
2917.770, 1.3245480E-02
2919.698, 1.5153340E-02
2921.627, 1.6303420E-02
2923.555, 1.5339000E-02
2925.484, 1.4871130E-02
2927.412, 1.5313770E-02
2929.341, 1.6025800E-02
2931.269, 1.6598159E-02
2933.198, 1.6645130E-02
2935.126, 1.4590200E-02
2937.055, 1.2953720E-02
2938.983, 1.3817060E-02
2940.912, 1.6149409E-02
2942.840, 1.6791590E-02
2944.769, 1.6238689E-02
2946.697, 1.6303470E-02
2948.625, 1.5650431E-02
2950.554, 1.4568400E-02
2952.482, 1.5185480E-02
2954.411, 1.5621950E-02
2956.339, 1.5970370E-02
2958.268, 1.5311520E-02
2960.196, 1.4326100E-02
2962.125, 1.5066380E-02
2964.053, 1.4867530E-02
2965.982, 1.4847960E-02
2967.910, 1.4850910E-02
2969.839, 1.4213640E-02
2971.767, 1.3712180E-02
2973.696, 1.3529410E-02
2975.624, 1.5230110E-02
2977.552, 1.5615590E-02
2979.481, 1.4604870E-02
2981.409, 1.5043880E-02
2983.338, 1.5240940E-02
2985.266, 1.5400200E-02
2987.195, 1.5637221E-02
2989.123, 1.5822150E-02
2991.052, 1.5790060E-02
2992.980, 1.4794540E-02
2994.909, 1.3898010E-02
2996.837, 1.3902420E-02
2998.766, 1.4047820E-02
3000.694, 1.5099790E-02
3002.623, 1.5583690E-02
3004.551, 1.5651179E-02
3006.479, 1.6249780E-02
3008.408, 1.6520200E-02
3010.336, 1.6877320E-02
3012.265, 1.6446970E-02
3014.193, 1.5501770E-02
3016.122, 1.5881671E-02
3018.050, 1.6357990E-02
3019.979, 1.6068021E-02
3021.907, 1.7385449E-02
3023.836, 1.8691979E-02
3025.764, 1.7908821E-02
3027.693, 1.7344531E-02
3029.621, 1.8429730E-02
3031.550, 1.7962299E-02
3033.478, 1.6581951E-02
3035.406, 1.7594939E-02
3037.335, 1.9257201E-02
3039.263, 1.8579300E-02
3041.192, 1.6952580E-02
3043.120, 1.5990470E-02
3045.049, 1.6314371E-02
3046.977, 1.7117370E-02
3048.906, 1.7223081E-02
3050.834, 1.7165899E-02
3052.763, 1.7351151E-02
3054.691, 1.7982250E-02
3056.620, 1.8131880E-02
3058.548, 1.7895769E-02
3060.477, 1.8262990E-02
3062.405, 1.7653599E-02
3064.333, 1.7647879E-02
3066.262, 1.8058481E-02
3068.190, 1.7683320E-02
3070.119, 1.6694261E-02
3072.047, 1.6521091E-02
3073.976, 1.7053289E-02
3075.904, 1.6783999E-02
3077.833, 1.6202090E-02
3079.761, 1.5817920E-02
3081.690, 1.6138891E-02
3083.618, 1.5956661E-02
3085.547, 1.6440989E-02
3087.475, 1.7646881E-02
3089.404, 1.8034071E-02
3091.332, 1.8603129E-02
3093.260, 1.9682379E-02
3095.189, 1.8257840E-02
3097.117, 1.7656781E-02
3099.046, 1.7530510E-02
3100.974, 1.6849341E-02
3102.903, 1.7351640E-02
3104.831, 1.8212460E-02
3106.760, 1.7434331E-02
3108.688, 1.7160710E-02
3110.617, 1.6950930E-02
3112.545, 1.8260609E-02
3114.474, 1.9343590E-02
3116.402, 1.9503459E-02
3118.331, 1.8907171E-02
3120.259, 1.7835461E-02
3122.188, 1.7070681E-02
3124.116, 1.7578470E-02
3126.044, 1.8955961E-02
3127.973, 1.9091340E-02
3129.901, 1.9477770E-02
3131.830, 2.0451840E-02
3133.758, 2.1161940E-02
3135.687, 2.0110480E-02
3137.615, 1.9370669E-02
3139.544, 1.8696761E-02
3141.472, 1.9061830E-02
3143.401, 2.0019060E-02
3145.329, 1.9986570E-02
3147.258, 1.9102030E-02
3149.186, 1.7725660E-02
3151.115, 1.8127920E-02
3153.043, 1.7951749E-02
3154.971, 1.8108061E-02
3156.900, 1.8775590E-02
3158.828, 1.8766049E-02
3160.757, 1.8428249E-02
3162.685, 1.8294740E-02
3164.614, 2.0669609E-02
3166.542, 2.0673890E-02
3168.471, 1.9844061E-02
3170.399, 1.9920399E-02
3172.328, 1.9436499E-02
3174.256, 1.8826570E-02
3176.185, 1.9972770E-02
3178.113, 2.0148261E-02
3180.042, 1.9472860E-02
3181.970, 1.8470399E-02
3183.898, 1.8562960E-02
3185.827, 2.0439470E-02
3187.755, 2.1915080E-02
3189.684, 2.1071769E-02
3191.612, 2.0028580E-02
3193.541, 2.0061940E-02
3195.469, 2.0754520E-02
3197.398, 1.9584080E-02
3199.326, 1.8433319E-02
3201.255, 1.7141219E-02
3203.183, 1.6300149E-02
3205.112, 1.6840011E-02
3207.040, 1.8652970E-02
3208.969, 1.9767649E-02
3210.897, 2.0043069E-02
3212.825, 1.9554861E-02
3214.754, 1.9564001E-02
3216.682, 1.8961299E-02
3218.611, 1.7757470E-02
3220.539, 1.8127721E-02
3222.468, 1.8915530E-02
3224.396, 1.8417761E-02
3226.325, 1.8420110E-02
3228.253, 2.0349139E-02
3230.182, 1.9727681E-02
3232.110, 1.9051479E-02
3234.039, 1.8678380E-02
3235.967, 1.9756380E-02
3237.896, 2.0114411E-02
3239.824, 2.0448320E-02
3241.752, 2.0249080E-02
3243.681, 1.9772960E-02
3245.609, 1.9471750E-02
3247.538, 1.9985050E-02
3249.466, 2.0951470E-02
3251.395, 2.1159090E-02
3253.323, 2.0059800E-02
3255.252, 1.9511219E-02
3257.180, 2.0965060E-02
3259.109, 2.1014741E-02
3261.037, 1.8858621E-02
3262.966, 1.8012140E-02
3264.894, 1.9140000E-02
3266.823, 2.0873331E-02
3268.751, 2.1530431E-02
3270.679, 2.1302961E-02
3272.608, 2.0176720E-02
3274.536, 1.9718230E-02
3276.465, 2.0800309E-02
3278.393, 2.4303390E-02
3280.322, 2.3860810E-02
3282.250, 2.1660641E-02
3284.179, 2.2501910E-02
3286.107, 2.2146050E-02
3288.036, 2.1244710E-02
3289.964, 2.0232759E-02
3291.893, 1.9575359E-02
3293.821, 1.9209361E-02
3295.750, 1.8282481E-02
3297.678, 1.9121449E-02
3299.606, 2.1175560E-02
3301.535, 2.1837780E-02
3303.463, 2.0418920E-02
3305.392, 2.0050069E-02
3307.320, 2.0003870E-02
3309.249, 1.8842770E-02
3311.177, 1.9833749E-02
3313.106, 2.1688070E-02
3315.034, 2.1770939E-02
3316.963, 2.1673150E-02
3318.891, 2.2719860E-02
3320.820, 2.1832280E-02
3322.748, 1.9911321E-02
3324.677, 2.0103261E-02
3326.605, 2.0637199E-02
3328.533, 2.1663440E-02
3330.462, 2.2582050E-02
3332.390, 2.1075470E-02
3334.319, 2.0715090E-02
3336.247, 2.0239590E-02
3338.176, 1.9977070E-02
3340.104, 1.9943841E-02
3342.033, 2.0422811E-02
3343.961, 2.0057309E-02
3345.890, 2.0402530E-02
3347.818, 2.0174021E-02
3349.747, 2.0826140E-02
3351.675, 2.2574060E-02
3353.604, 2.1754639E-02
3355.532, 2.1362510E-02
3357.460, 2.2350701E-02
3359.389, 2.2182699E-02
3361.317, 1.9194091E-02
3363.246, 1.8571921E-02
3365.174, 2.0327000E-02
3367.103, 2.1762259E-02
3369.031, 2.2062089E-02
3370.960, 2.1077110E-02
3372.888, 2.0380160E-02
3374.817, 2.2371549E-02
3376.745, 2.3019750E-02
3378.674, 2.0076990E-02
3380.602, 1.8909190E-02
3382.531, 2.1529051E-02
3384.459, 2.1621780E-02
3386.387, 2.1271480E-02
3388.316, 2.0694369E-02
3390.244, 2.0703981E-02
3392.173, 2.2496181E-02
3394.101, 2.3625610E-02
3396.030, 2.2812000E-02
3397.958, 2.2378400E-02
3399.887, 2.1715419E-02
3401.815, 2.1317150E-02
3403.744, 2.0171430E-02
3405.672, 1.8731451E-02
3407.601, 1.8558310E-02
3409.529, 1.8756330E-02
3411.458, 2.1675879E-02
3413.386, 2.3401210E-02
3415.314, 2.3822490E-02
3417.243, 2.3586281E-02
3419.171, 2.3451690E-02
3421.100, 2.3470210E-02
3423.028, 2.2759089E-02
3424.957, 2.0432210E-02
3426.885, 2.0288769E-02
3428.814, 2.1623390E-02
3430.742, 2.0435030E-02
3432.671, 2.0127490E-02
3434.599, 2.1615420E-02
3436.528, 2.5022861E-02
3438.456, 2.4805781E-02
3440.385, 2.2392800E-02
3442.313, 2.0846030E-02
3444.241, 2.2668609E-02
3446.170, 2.2858920E-02
3448.098, 1.9986020E-02
3450.027, 1.9606370E-02
3451.955, 2.3360990E-02
3453.884, 2.4239451E-02
3455.812, 2.2401631E-02
3457.741, 2.0326860E-02
3459.669, 1.9080680E-02
3461.598, 2.0756271E-02
3463.526, 2.2848200E-02
3465.455, 2.0253260E-02
3467.383, 2.0384589E-02
3469.312, 2.3004370E-02
3471.240, 2.4100261E-02
3473.168, 2.4175631E-02
3475.097, 2.3651280E-02
3477.025, 2.2344330E-02
3478.954, 2.1831181E-02
3480.882, 2.3671441E-02
3482.811, 2.3688430E-02
3484.739, 2.2015089E-02
3486.668, 1.9940080E-02
3488.596, 1.9055851E-02
3490.525, 2.1262310E-02
3492.453, 2.3430670E-02
3494.382, 2.4221759E-02
3496.310, 2.1927280E-02
3498.239, 1.9803669E-02
3500.167, 2.0409711E-02
3502.095, 2.1721421E-02
3504.024, 2.3807701E-02
3505.952, 2.2479881E-02
3507.881, 2.0283880E-02
3509.809, 2.1044880E-02
3511.738, 2.3046579E-02
3513.666, 2.2064120E-02
3515.595, 2.0675469E-02
3517.523, 2.1261429E-02
3519.452, 2.1847989E-02
3521.380, 2.0889269E-02
3523.309, 2.0477559E-02
3525.237, 2.2376420E-02
3527.166, 2.3843979E-02
3529.094, 2.2701720E-02
3531.022, 2.0711770E-02
3532.951, 1.7647840E-02
3534.879, 2.0363320E-02
3536.808, 2.1746529E-02
3538.736, 2.1085780E-02
3540.665, 1.8701360E-02
3542.593, 1.6311660E-02
3544.522, 2.0385070E-02
3546.450, 2.4923241E-02
3548.379, 2.2072410E-02
3550.307, 2.0226680E-02
3552.236, 2.1005850E-02
3554.164, 2.0446610E-02
3556.093, 2.2949779E-02
3558.021, 2.2423031E-02
3559.949, 1.9483350E-02
3561.878, 1.6674461E-02
3563.806, 1.7091410E-02
3565.735, 1.9403979E-02
3567.663, 2.0526189E-02
3569.592, 2.2055000E-02
3571.520, 2.2297399E-02
3573.449, 2.2202291E-02
3575.377, 2.1034380E-02
3577.306, 1.5936941E-02
3579.234, 1.4958070E-02
3581.163, 2.1001060E-02
3583.091, 2.1019710E-02
3585.020, 1.7631469E-02
3586.948, 1.8637881E-02
3588.876, 1.7750259E-02
3590.805, 1.7904939E-02
3592.733, 2.1636480E-02
3594.662, 2.0775059E-02
3596.590, 1.7774070E-02
3598.519, 1.6748371E-02
3600.447, 1.7650150E-02
3602.376, 1.9097149E-02
3604.304, 1.8361161E-02
3606.233, 1.8606400E-02
3608.161, 1.9358501E-02
3610.090, 1.7417509E-02
3612.018, 1.7902119E-02
3613.947, 2.1522390E-02
3615.875, 2.2331120E-02
3617.803, 2.0050069E-02
3619.732, 1.8722169E-02
3621.660, 1.8821890E-02
3623.589, 1.9618150E-02
3625.517, 2.0131020E-02
3627.446, 1.7012630E-02
3629.374, 1.5821841E-02
3631.303, 1.7722070E-02
3633.231, 1.8828420E-02
3635.160, 1.9844720E-02
3637.088, 2.1000961E-02
3639.017, 1.9588750E-02
3640.945, 1.8316040E-02
3642.874, 1.7729109E-02
3644.802, 1.6296210E-02
3646.730, 1.7992280E-02
3648.659, 1.8388599E-02
3650.587, 1.7373189E-02
3652.516, 1.8639460E-02
3654.444, 1.8151101E-02
3656.373, 1.8199161E-02
3658.301, 1.8951589E-02
3660.230, 1.8160330E-02
3662.158, 1.4965660E-02
3664.087, 1.1861030E-02
3666.015, 1.6005119E-02
3667.944, 2.0207440E-02
3669.872, 1.9922530E-02
3671.801, 1.6849039E-02
3673.729, 1.8759910E-02
3675.657, 2.0194801E-02
3677.586, 1.7089760E-02
3679.514, 1.6052481E-02
3681.443, 1.6887370E-02
3683.371, 1.6557559E-02
3685.300, 1.8408850E-02
3687.228, 2.0729480E-02
3689.157, 2.0066589E-02
3691.085, 1.8228309E-02
3693.014, 1.6400380E-02
3694.942, 1.3527160E-02
3696.871, 1.1314700E-02
3698.799, 1.3599000E-02
3700.728, 1.7413471E-02
3702.656, 1.5293900E-02
3704.584, 1.3207110E-02
3706.513, 1.3909650E-02
3708.441, 1.4484150E-02
3710.370, 1.4909530E-02
3712.298, 1.7691741E-02
3714.227, 1.8641490E-02
3716.155, 1.6693359E-02
3718.084, 1.6041690E-02
3720.012, 1.4639040E-02
3721.941, 1.2555060E-02
3723.869, 1.1242260E-02
3725.798, 1.2852130E-02
3727.726, 1.6312100E-02
3729.655, 1.8906699E-02
3731.583, 1.5089500E-02
3733.511, 1.3496580E-02
3735.440, 1.6374730E-02
3737.368, 1.6002331E-02
3739.297, 1.5276770E-02
3741.225, 1.8340399E-02
3743.154, 2.3535021E-02
3745.082, 2.5886770E-02
3747.011, 2.1183049E-02
3748.939, 1.9867331E-02
3750.868, 2.1289719E-02
3752.796, 2.0979321E-02
3754.725, 2.0004790E-02
3756.653, 2.0512121E-02
3758.582, 1.9708170E-02
3760.510, 1.7847810E-02
3762.438, 1.4589010E-02
3764.367, 1.5409790E-02
3766.295, 1.7146710E-02
3768.224, 1.7780671E-02
3770.152, 1.7051419E-02
3772.081, 1.8614531E-02
3774.009, 1.8557020E-02
3775.938, 1.9000189E-02
3777.866, 1.8277610E-02
3779.795, 1.7731201E-02
3781.723, 1.8460611E-02
3783.652, 2.0271361E-02
3785.580, 2.0832660E-02
3787.509, 1.8459789E-02
3789.437, 1.4147260E-02
3791.365, 1.5484040E-02
3793.294, 1.8038990E-02
3795.222, 2.0010900E-02
3797.151, 1.9921100E-02
3799.079, 2.0698400E-02
3801.008, 2.0592980E-02
3802.936, 1.8322069E-02
3804.865, 1.6681740E-02
3806.793, 1.6831759E-02
3808.722, 1.8777469E-02
3810.650, 1.6430739E-02
3812.579, 1.3214640E-02
3814.507, 1.6207401E-02
3816.436, 1.9269990E-02
3818.364, 2.1238090E-02
3820.292, 2.3985730E-02
3822.221, 2.2588519E-02
3824.149, 1.9051289E-02
3826.078, 1.9710289E-02
3828.006, 2.0408580E-02
3829.935, 1.7459139E-02
3831.863, 1.4886000E-02
3833.792, 1.6852580E-02
3835.720, 1.7023209E-02
3837.649, 1.3823420E-02
3839.577, 1.4438780E-02
3841.506, 1.4660460E-02
3843.434, 1.4965770E-02
3845.363, 1.8362220E-02
3847.291, 1.8541049E-02
3849.219, 1.8557951E-02
3851.148, 1.6782060E-02
3853.076, 1.4583300E-02
3855.005, 1.4210660E-02
3856.933, 1.4861800E-02
3858.862, 1.5400670E-02
3860.790, 1.6805600E-02
3862.719, 2.0067420E-02
3864.647, 1.7372699E-02
3866.576, 1.4803050E-02
3868.504, 1.6032901E-02
3870.433, 1.7328469E-02
3872.361, 2.0934479E-02
3874.290, 2.1675279E-02
3876.218, 2.0268060E-02
3878.146, 1.9455871E-02
3880.075, 1.9056311E-02
3882.003, 1.6136769E-02
3883.932, 1.2558040E-02
3885.860, 1.3084130E-02
3887.789, 1.5040220E-02
3889.717, 1.7428620E-02
3891.646, 1.6905000E-02
3893.574, 1.7220801E-02
3895.503, 1.8312089E-02
3897.431, 1.3784470E-02
3899.360, 1.4190970E-02
3901.288, 1.4817800E-02
3903.217, 1.2851680E-02
3905.145, 1.6916990E-02
3907.073, 1.9460609E-02
3909.002, 1.7843921E-02
3910.930, 1.6872160E-02
3912.859, 1.4821070E-02
3914.787, 1.5933629E-02
3916.716, 2.0859450E-02
3918.644, 1.9034071E-02
3920.573, 1.7167909E-02
3922.501, 1.5006410E-02
3924.430, 1.4883530E-02
3926.358, 1.6233930E-02
3928.287, 1.9113019E-02
3930.215, 2.1323590E-02
3932.144, 2.2106120E-02
3934.072, 1.9807391E-02
3936.000, 1.6429691E-02
3937.929, 1.5487630E-02
3939.857, 1.8977771E-02
3941.786, 2.1506850E-02
3943.714, 2.1913201E-02
3945.643, 1.9695170E-02
3947.571, 1.7806791E-02
3949.500, 2.1080820E-02
3951.428, 2.1226050E-02
3953.357, 1.7412961E-02
3955.285, 1.5306500E-02
3957.214, 1.3319090E-02
3959.142, 1.3822740E-02
3961.071, 1.5026060E-02
3962.999, 1.4964630E-02
3964.927, 1.7081490E-02
3966.856, 1.9441839E-02
3968.784, 2.1906249E-02
3970.713, 2.2205010E-02
3972.641, 1.6980721E-02
3974.570, 1.3619610E-02
3976.498, 1.2732430E-02
3978.427, 1.7150300E-02
3980.355, 1.8076610E-02
3982.284, 1.5228330E-02
3984.212, 1.1907930E-02
3986.141, 1.6184980E-02
3988.069, 2.2509949E-02
3989.998, 2.4270231E-02
3991.926, 2.1567199E-02
3993.854, 1.8730281E-02
3995.783, 1.9306870E-02
3997.711, 2.0248139E-02
3999.640, 2.0257911E-02
##END=



