##NAMES=Langbanite
##RRUFFID=R050664
##IDEAL CHEMISTRY=Mn^2+^_4_Mn^3+^_9_Sb^5+^O_16_(SiO_4_)_2_
##LOCALITY=Langban, Filipstad, Varmland, Sweden
##OWNER=RRUFF
##SOURCE=University of Arizona Mineral Museum
##DESCRIPTION=Black metallic crystals
##STATUS=The identification of this mineral has been confirmed by X-ray diffraction and chemical analysis
##URL=rruff.info/R050664
##MEASURED CHEMISTRY=(Mn^2+^_3.79_Ca_0.21_)_Σ=4_(Mn^3+^_6.45_Fe^3+^_2.55_)_Σ=9_Sb^5+^_1.00_O_16_(Si_1.00_O_4_)_2_
3.991926e+002, 3.480621e-001
4.011211e+002, 3.876241e-001
4.030495e+002, 3.919339e-001
4.049780e+002, 3.376682e-001
4.069065e+002, 3.460669e-001
4.088349e+002, 3.909229e-001
4.107634e+002, 3.838126e-001
4.126919e+002, 3.659148e-001
4.146203e+002, 3.667182e-001
4.165488e+002, 3.716467e-001
4.184773e+002, 3.741136e-001
4.204057e+002, 3.789138e-001
4.223342e+002, 3.753901e-001
4.242627e+002, 3.637690e-001
4.261911e+002, 3.473317e-001
4.281196e+002, 3.403788e-001
4.300481e+002, 3.366148e-001
4.319765e+002, 3.330126e-001
4.339050e+002, 3.242579e-001
4.358335e+002, 3.293507e-001
4.377619e+002, 3.402058e-001
4.396904e+002, 3.467318e-001
4.416189e+002, 3.471178e-001
4.435473e+002, 3.467868e-001
4.454758e+002, 3.511229e-001
4.474043e+002, 3.550687e-001
4.493327e+002, 3.566590e-001
4.512612e+002, 3.627652e-001
4.531897e+002, 3.705902e-001
4.551181e+002, 3.678242e-001
4.570466e+002, 3.682239e-001
4.589751e+002, 3.712604e-001
4.609035e+002, 3.661670e-001
4.628320e+002, 3.654753e-001
4.647605e+002, 3.720782e-001
4.666889e+002, 3.776095e-001
4.686174e+002, 3.747558e-001
4.705459e+002, 3.736010e-001
4.724743e+002, 3.761904e-001
4.744028e+002, 3.744701e-001
4.763313e+002, 3.665701e-001
4.782597e+002, 3.602295e-001
4.801882e+002, 3.513120e-001
4.821167e+002, 3.430651e-001
4.840451e+002, 3.360279e-001
4.859736e+002, 3.287410e-001
4.879021e+002, 3.209698e-001
4.898305e+002, 3.125868e-001
4.917590e+002, 3.030014e-001
4.936875e+002, 2.949123e-001
4.956159e+002, 2.877366e-001
4.975444e+002, 2.827196e-001
4.994729e+002, 2.782832e-001
5.014013e+002, 2.767897e-001
5.033298e+002, 2.757331e-001
5.052583e+002, 2.722651e-001
5.071867e+002, 2.685455e-001
5.091152e+002, 2.651000e-001
5.110437e+002, 2.599654e-001
5.129721e+002, 2.546259e-001
5.149006e+002, 2.510991e-001
5.168290e+002, 2.473667e-001
5.187575e+002, 2.459749e-001
5.206860e+002, 2.457372e-001
5.226144e+002, 2.475828e-001
5.245429e+002, 2.521538e-001
5.264714e+002, 2.596075e-001
5.283998e+002, 2.705081e-001
5.303283e+002, 2.804895e-001
5.322568e+002, 2.855197e-001
5.341852e+002, 2.893062e-001
5.361137e+002, 2.964287e-001
5.380422e+002, 3.036618e-001
5.399706e+002, 3.080207e-001
5.418991e+002, 3.136197e-001
5.438276e+002, 3.176692e-001
5.457560e+002, 3.196316e-001
5.476845e+002, 3.193038e-001
5.496130e+002, 3.168913e-001
5.515414e+002, 3.125768e-001
5.534699e+002, 3.064891e-001
5.553984e+002, 3.013520e-001
5.573268e+002, 2.950750e-001
5.592553e+002, 2.918116e-001
5.611838e+002, 2.945853e-001
5.631122e+002, 3.020684e-001
5.650407e+002, 3.119244e-001
5.669692e+002, 3.238322e-001
5.688976e+002, 3.370963e-001
5.708261e+002, 3.491579e-001
5.727546e+002, 3.585880e-001
5.746830e+002, 3.672924e-001
5.766115e+002, 3.734478e-001
5.785400e+002, 3.777470e-001
5.804684e+002, 3.837556e-001
5.823969e+002, 3.900614e-001
5.843254e+002, 3.923992e-001
5.862538e+002, 3.938341e-001
5.881823e+002, 3.927376e-001
5.901108e+002, 3.872635e-001
5.920392e+002, 3.818030e-001
5.939677e+002, 3.777496e-001
5.958962e+002, 3.732704e-001
5.978246e+002, 3.694758e-001
5.997531e+002, 3.643735e-001
6.016816e+002, 3.589231e-001
6.036100e+002, 3.541188e-001
6.055385e+002, 3.514250e-001
6.074670e+002, 3.482606e-001
6.093954e+002, 3.433456e-001
6.113239e+002, 3.385123e-001
6.132524e+002, 3.343037e-001
6.151808e+002, 3.273521e-001
6.171093e+002, 3.214186e-001
6.190378e+002, 3.169477e-001
6.209662e+002, 3.094712e-001
6.228947e+002, 3.003694e-001
6.248232e+002, 2.935970e-001
6.267516e+002, 2.885962e-001
6.286801e+002, 2.838426e-001
6.306086e+002, 2.794669e-001
6.325370e+002, 2.763019e-001
6.344655e+002, 2.732336e-001
6.363940e+002, 2.686029e-001
6.383224e+002, 2.637179e-001
6.402509e+002, 2.588359e-001
6.421794e+002, 2.539053e-001
6.441078e+002, 2.480321e-001
6.460363e+002, 2.419284e-001
6.479648e+002, 2.366722e-001
6.498932e+002, 2.325042e-001
6.518217e+002, 2.297722e-001
6.537502e+002, 2.264194e-001
6.556786e+002, 2.233402e-001
6.576071e+002, 2.196950e-001
6.595356e+002, 2.140190e-001
6.614641e+002, 2.071420e-001
6.633925e+002, 1.993315e-001
6.653210e+002, 1.920747e-001
6.672495e+002, 1.851204e-001
6.691779e+002, 1.773278e-001
6.711064e+002, 1.697341e-001
6.730349e+002, 1.623226e-001
6.749633e+002, 1.546088e-001
6.768918e+002, 1.466541e-001
6.788203e+002, 1.389215e-001
6.807487e+002, 1.319171e-001
6.826772e+002, 1.252441e-001
6.846057e+002, 1.193479e-001
6.865341e+002, 1.145367e-001
6.884626e+002, 1.097196e-001
6.903911e+002, 1.055403e-001
6.923195e+002, 1.023006e-001
6.942480e+002, 9.921246e-002
6.961765e+002, 9.537646e-002
6.981049e+002, 9.190385e-002
7.000334e+002, 8.902159e-002
7.019619e+002, 8.596946e-002
7.038903e+002, 8.385102e-002
7.058188e+002, 8.215351e-002
7.077473e+002, 8.075944e-002
7.096757e+002, 7.998877e-002
7.116042e+002, 7.988413e-002
7.135327e+002, 7.990370e-002
7.154611e+002, 8.050875e-002
7.173896e+002, 8.153157e-002
7.193181e+002, 8.278672e-002
7.212465e+002, 8.408807e-002
7.231750e+002, 8.490817e-002
7.251035e+002, 8.488937e-002
7.270319e+002, 8.451191e-002
7.289604e+002, 8.356623e-002
7.308889e+002, 8.205204e-002
7.328173e+002, 8.013681e-002
7.347458e+002, 7.814740e-002
7.366743e+002, 7.651048e-002
7.386027e+002, 7.476445e-002
7.405312e+002, 7.268817e-002
7.424597e+002, 7.073732e-002
7.443881e+002, 6.933778e-002
7.463166e+002, 6.804439e-002
7.482451e+002, 6.719787e-002
7.501735e+002, 6.687435e-002
7.521020e+002, 6.609434e-002
7.540305e+002, 6.494597e-002
7.559589e+002, 6.408827e-002
7.578874e+002, 6.317042e-002
7.598159e+002, 6.130722e-002
7.617443e+002, 5.911099e-002
7.636728e+002, 5.701938e-002
7.656013e+002, 5.447736e-002
7.675297e+002, 5.178874e-002
7.694582e+002, 4.957032e-002
7.713867e+002, 4.750088e-002
7.733151e+002, 4.569855e-002
7.752436e+002, 4.406417e-002
7.771721e+002, 4.328039e-002
7.791005e+002, 4.229562e-002
7.810290e+002, 4.134282e-002
7.829575e+002, 4.069214e-002
7.848859e+002, 4.026889e-002
7.868144e+002, 3.974836e-002
7.887429e+002, 3.942736e-002
7.906713e+002, 4.000026e-002
7.925998e+002, 4.026052e-002
7.945283e+002, 4.053151e-002
7.964567e+002, 4.150328e-002
7.983852e+002, 4.208732e-002
8.003137e+002, 4.267213e-002
8.022421e+002, 4.387654e-002
8.041706e+002, 4.493751e-002
8.060991e+002, 4.558286e-002
8.080275e+002, 4.680004e-002
8.099560e+002, 4.813543e-002
8.118845e+002, 4.888329e-002
8.138129e+002, 4.987314e-002
8.157414e+002, 5.108372e-002
8.176699e+002, 5.234721e-002
8.195983e+002, 5.366074e-002
8.215268e+002, 5.499946e-002
8.234553e+002, 5.686559e-002
8.253837e+002, 5.883921e-002
8.273122e+002, 6.081075e-002
8.292407e+002, 6.276328e-002
8.311691e+002, 6.484651e-002
8.330976e+002, 6.691461e-002
8.350261e+002, 6.906939e-002
8.369545e+002, 7.133282e-002
8.388830e+002, 7.392252e-002
8.408115e+002, 7.705932e-002
8.427399e+002, 8.088601e-002
8.446684e+002, 8.553023e-002
8.465969e+002, 9.112044e-002
8.485253e+002, 9.749668e-002
8.504538e+002, 1.050583e-001
8.523823e+002, 1.142076e-001
8.543107e+002, 1.238251e-001
8.562392e+002, 1.322440e-001
8.581677e+002, 1.398540e-001
8.600961e+002, 1.461100e-001
8.620246e+002, 1.502384e-001
8.639531e+002, 1.541988e-001
8.658815e+002, 1.597712e-001
8.678100e+002, 1.675543e-001
8.697385e+002, 1.789006e-001
8.716669e+002, 1.919696e-001
8.735954e+002, 2.016510e-001
8.755239e+002, 2.041875e-001
8.774523e+002, 1.985334e-001
8.793808e+002, 1.867168e-001
8.813093e+002, 1.739918e-001
8.832377e+002, 1.633979e-001
8.851662e+002, 1.562940e-001
8.870947e+002, 1.551344e-001
8.890231e+002, 1.598970e-001
8.909516e+002, 1.698915e-001
8.928801e+002, 1.843352e-001
8.948085e+002, 2.030531e-001
8.967370e+002, 2.260693e-001
8.986655e+002, 2.511315e-001
9.005939e+002, 2.757690e-001
9.025224e+002, 2.979238e-001
9.044509e+002, 3.157341e-001
9.063793e+002, 3.286184e-001
9.083078e+002, 3.380007e-001
9.102363e+002, 3.435814e-001
9.121647e+002, 3.461643e-001
9.140932e+002, 3.475704e-001
9.160217e+002, 3.487549e-001
9.179501e+002, 3.506203e-001
9.198786e+002, 3.527839e-001
9.218071e+002, 3.549981e-001
9.237355e+002, 3.569048e-001
9.256640e+002, 3.574437e-001
9.275925e+002, 3.563662e-001
9.295209e+002, 3.526240e-001
9.314494e+002, 3.465161e-001
9.333779e+002, 3.379359e-001
9.353063e+002, 3.274170e-001
9.372348e+002, 3.156325e-001
9.391633e+002, 3.028737e-001
9.410917e+002, 2.895372e-001
9.430202e+002, 2.761219e-001
9.449487e+002, 2.628932e-001
9.468771e+002, 2.505658e-001
9.488056e+002, 2.386660e-001
9.507341e+002, 2.266031e-001
9.526625e+002, 2.143983e-001
9.545910e+002, 2.028269e-001
9.565195e+002, 1.923154e-001
9.584479e+002, 1.826948e-001
9.603764e+002, 1.742753e-001
9.623049e+002, 1.669772e-001
9.642333e+002, 1.601502e-001
9.661618e+002, 1.541030e-001
9.680903e+002, 1.486238e-001
9.700187e+002, 1.430154e-001
9.719472e+002, 1.361585e-001
9.738757e+002, 1.285384e-001
9.758041e+002, 1.208009e-001
9.777326e+002, 1.128815e-001
9.796611e+002, 1.048086e-001
9.815895e+002, 9.613810e-002
9.835180e+002, 8.767392e-002
9.854465e+002, 8.043180e-002
9.873749e+002, 7.381123e-002
9.893034e+002, 6.798340e-002
9.912319e+002, 6.389359e-002
9.931603e+002, 6.109922e-002
9.950888e+002, 5.846285e-002
9.970173e+002, 5.617375e-002
9.989457e+002, 5.390506e-002
1.000874e+003, 5.191633e-002
1.002803e+003, 4.998925e-002
1.004731e+003, 4.816322e-002
1.006660e+003, 4.645684e-002
1.008588e+003, 4.480601e-002
1.010517e+003, 4.355160e-002
1.012445e+003, 4.233745e-002
1.014373e+003, 4.104301e-002
1.016302e+003, 4.006080e-002
1.018230e+003, 3.956427e-002
1.020159e+003, 3.922704e-002
1.022087e+003, 3.831170e-002
1.024016e+003, 3.732974e-002
1.025944e+003, 3.667756e-002
1.027873e+003, 3.705195e-002
1.029801e+003, 3.707298e-002
1.031730e+003, 3.648299e-002
1.033658e+003, 3.590266e-002
1.035587e+003, 3.534228e-002
1.037515e+003, 3.482448e-002
1.039443e+003, 3.449160e-002
1.041372e+003, 3.420439e-002
1.043300e+003, 3.420324e-002
1.045229e+003, 3.387694e-002
1.047157e+003, 3.320306e-002
1.049086e+003, 3.266747e-002
1.051014e+003, 3.282507e-002
1.052943e+003, 3.229364e-002
1.054871e+003, 3.168073e-002
1.056800e+003, 3.099427e-002
1.058728e+003, 3.014618e-002
1.060657e+003, 2.987556e-002
1.062585e+003, 2.993751e-002
1.064514e+003, 2.994570e-002
1.066442e+003, 2.989821e-002
1.068370e+003, 2.959018e-002
1.070299e+003, 2.917694e-002
1.072227e+003, 2.893099e-002
1.074156e+003, 2.938176e-002
1.076084e+003, 3.008871e-002
1.078013e+003, 3.009090e-002
1.079941e+003, 3.016882e-002
1.081870e+003, 3.049197e-002
1.083798e+003, 3.116008e-002
1.085727e+003, 3.137860e-002
1.087655e+003, 3.166038e-002
1.089584e+003, 3.212973e-002
1.091512e+003, 3.235783e-002
1.093441e+003, 3.334888e-002
1.095369e+003, 3.406385e-002
1.097297e+003, 3.453233e-002
1.099226e+003, 3.517563e-002
1.101154e+003, 3.590322e-002
1.103083e+003, 3.641573e-002
1.105011e+003, 3.698078e-002
1.106940e+003, 3.764436e-002
1.108868e+003, 3.780118e-002
1.110797e+003, 3.785801e-002
1.112725e+003, 3.819438e-002
1.114654e+003, 3.835512e-002
1.116582e+003, 3.783454e-002
1.118511e+003, 3.670983e-002
1.120439e+003, 3.598220e-002
1.122368e+003, 3.511598e-002
1.124296e+003, 3.384389e-002
1.126224e+003, 3.280188e-002
1.128153e+003, 3.218700e-002
1.130081e+003, 3.140147e-002
1.132010e+003, 3.082008e-002
1.133938e+003, 3.087050e-002
1.135867e+003, 3.099962e-002
1.137795e+003, 3.169676e-002
1.139724e+003, 3.275564e-002
1.141652e+003, 3.367724e-002
1.143581e+003, 3.410006e-002
1.145509e+003, 3.397584e-002
1.147438e+003, 3.298103e-002
1.149366e+003, 3.214215e-002
1.151295e+003, 3.172465e-002
1.153223e+003, 3.089333e-002
1.155151e+003, 3.009605e-002
1.157080e+003, 2.959653e-002
1.159008e+003, 2.891508e-002
1.160937e+003, 2.851325e-002
1.162865e+003, 2.882582e-002
1.164794e+003, 2.895912e-002
1.166722e+003, 2.888455e-002
1.168651e+003, 2.857668e-002
1.170579e+003, 2.854129e-002
1.172508e+003, 2.857458e-002
1.174436e+003, 2.861969e-002
1.176365e+003, 2.890841e-002
1.178293e+003, 2.922747e-002
1.180222e+003, 2.956286e-002
1.182150e+003, 2.987224e-002
1.184078e+003, 2.979777e-002
1.186007e+003, 2.985700e-002
1.187935e+003, 2.999702e-002
1.189864e+003, 3.022735e-002
1.191792e+003, 3.036348e-002
1.193721e+003, 3.065694e-002
1.195649e+003, 3.071832e-002
1.197578e+003, 3.080896e-002
1.199506e+003, 3.048065e-002
1.201435e+003, 3.018907e-002
1.203363e+003, 3.020551e-002
1.205292e+003, 3.013917e-002
1.207220e+003, 2.992734e-002
1.209149e+003, 2.967264e-002
1.211077e+003, 2.957786e-002
1.213005e+003, 2.995304e-002
1.214934e+003, 3.003961e-002
1.216862e+003, 2.994471e-002
1.218791e+003, 3.009393e-002
1.220719e+003, 3.009728e-002
1.222648e+003, 3.003941e-002
1.224576e+003, 3.010044e-002
1.226505e+003, 3.042087e-002
1.228433e+003, 3.073022e-002
1.230362e+003, 3.089788e-002
1.232290e+003, 3.085824e-002
1.234219e+003, 3.082769e-002
1.236147e+003, 3.107992e-002
1.238076e+003, 3.132814e-002
1.240004e+003, 3.174180e-002
1.241932e+003, 3.187547e-002
1.243861e+003, 3.199982e-002
1.245789e+003, 3.199801e-002
1.247718e+003, 3.199285e-002
1.249646e+003, 3.216003e-002
1.251575e+003, 3.278515e-002
1.253503e+003, 3.306349e-002
1.255432e+003, 3.306529e-002
1.257360e+003, 3.334432e-002
1.259289e+003, 3.370597e-002
1.261217e+003, 3.387832e-002
1.263146e+003, 3.417746e-002
1.265074e+003, 3.462334e-002
1.267003e+003, 3.461152e-002
1.268931e+003, 3.495105e-002
1.270859e+003, 3.531675e-002
1.272788e+003, 3.581882e-002
1.274716e+003, 3.662251e-002
1.276645e+003, 3.693373e-002
1.278573e+003, 3.734147e-002
1.280502e+003, 3.733077e-002
1.282430e+003, 3.738268e-002
1.284359e+003, 3.751677e-002
1.286287e+003, 3.757419e-002
1.288216e+003, 3.772604e-002
1.290144e+003, 3.779107e-002
1.292073e+003, 3.772831e-002
1.294001e+003, 3.814632e-002
1.295930e+003, 3.830878e-002
1.297858e+003, 3.835852e-002
1.299786e+003, 3.867835e-002
1.301715e+003, 3.876049e-002
1.303643e+003, 3.857321e-002
1.305572e+003, 3.836322e-002
1.307500e+003, 3.894218e-002
1.309429e+003, 3.972114e-002
1.311357e+003, 4.027324e-002
1.313286e+003, 4.052151e-002
1.315214e+003, 4.068381e-002
1.317143e+003, 4.095190e-002
1.319071e+003, 4.123839e-002
1.321000e+003, 4.180723e-002
1.322928e+003, 4.204293e-002
1.324857e+003, 4.206492e-002
1.326785e+003, 4.243376e-002
1.328714e+003, 4.295397e-002
1.330642e+003, 4.320357e-002
1.332570e+003, 4.347791e-002
1.334499e+003, 4.346495e-002
1.336427e+003, 4.372540e-002
1.338356e+003, 4.417650e-002
1.340284e+003, 4.454829e-002
1.342213e+003, 4.522916e-002
1.344141e+003, 4.562533e-002
1.346070e+003, 4.570762e-002
1.347998e+003, 4.622249e-002
1.349927e+003, 4.678816e-002
1.351855e+003, 4.703680e-002
1.353784e+003, 4.734578e-002
1.355712e+003, 4.779617e-002
1.357641e+003, 4.810800e-002
1.359569e+003, 4.845965e-002
1.361497e+003, 4.862267e-002
1.363426e+003, 4.899203e-002
1.365354e+003, 4.927833e-002
1.367283e+003, 4.965215e-002
1.369211e+003, 5.021503e-002
1.371140e+003, 5.084379e-002
1.373068e+003, 5.161526e-002
1.374997e+003, 5.222657e-002
1.376925e+003, 5.253125e-002
1.378854e+003, 5.305687e-002
1.380782e+003, 5.367761e-002
1.382711e+003, 5.441292e-002
1.384639e+003, 5.496886e-002
1.386568e+003, 5.558303e-002
1.388496e+003, 5.602367e-002
1.390424e+003, 5.658934e-002
1.392353e+003, 5.766481e-002
1.394281e+003, 5.835922e-002
1.396210e+003, 5.872879e-002
1.398138e+003, 5.946685e-002
1.400067e+003, 6.007429e-002
1.401995e+003, 6.070693e-002
1.403924e+003, 6.158213e-002
1.405852e+003, 6.217782e-002
1.407781e+003, 6.297712e-002
1.409709e+003, 6.429740e-002
1.411638e+003, 6.523266e-002
1.413566e+003, 6.586240e-002
1.415495e+003, 6.669074e-002
1.417423e+003, 6.723393e-002
1.419351e+003, 6.777585e-002
1.421280e+003, 6.843759e-002
1.423208e+003, 6.876805e-002
1.425137e+003, 6.894781e-002
1.427065e+003, 6.955143e-002
1.428994e+003, 7.058733e-002
1.430922e+003, 7.101592e-002
1.432851e+003, 7.119504e-002
1.434779e+003, 7.168446e-002
1.436708e+003, 7.244942e-002
1.438636e+003, 7.311141e-002
1.440565e+003, 7.335564e-002
1.442493e+003, 7.324380e-002
1.444422e+003, 7.303297e-002
1.446350e+003, 7.275537e-002
1.448278e+003, 7.317061e-002
1.450207e+003, 7.373681e-002
1.452135e+003, 7.422060e-002
1.454064e+003, 7.449332e-002
1.455992e+003, 7.487256e-002
1.457921e+003, 7.473288e-002
1.459849e+003, 7.428967e-002
1.461778e+003, 7.442392e-002
1.463706e+003, 7.490524e-002
1.465635e+003, 7.506600e-002
1.467563e+003, 7.506777e-002
1.469492e+003, 7.484885e-002
1.471420e+003, 7.441017e-002
1.473349e+003, 7.419223e-002
1.475277e+003, 7.402664e-002
1.477205e+003, 7.389456e-002
1.479134e+003, 7.394406e-002
1.481062e+003, 7.390245e-002
1.482991e+003, 7.365437e-002
1.484919e+003, 7.310266e-002
1.486848e+003, 7.305989e-002
1.488776e+003, 7.320227e-002
1.490705e+003, 7.287694e-002
1.492633e+003, 7.247049e-002
1.494562e+003, 7.236380e-002
1.496490e+003, 7.252453e-002
1.498419e+003, 7.243133e-002
1.500347e+003, 7.228488e-002
1.502276e+003, 7.250211e-002
1.504204e+003, 7.223491e-002
1.506132e+003, 7.192482e-002
1.508061e+003, 7.177707e-002
1.509989e+003, 7.145675e-002
1.511918e+003, 7.125759e-002
1.513846e+003, 7.152674e-002
1.515775e+003, 7.165969e-002
1.517703e+003, 7.173477e-002
1.519632e+003, 7.179841e-002
1.521560e+003, 7.147814e-002
1.523489e+003, 7.121628e-002
1.525417e+003, 7.130643e-002
1.527346e+003, 7.133425e-002
1.529274e+003, 7.143217e-002
1.531203e+003, 7.148224e-002
1.533131e+003, 7.164800e-002
1.535059e+003, 7.182230e-002
1.536988e+003, 7.231928e-002
1.538916e+003, 7.271139e-002
1.540845e+003, 7.279054e-002
1.542773e+003, 7.292649e-002
1.544702e+003, 7.300612e-002
1.546630e+003, 7.298936e-002
1.548559e+003, 7.300372e-002
1.550487e+003, 7.363015e-002
1.552416e+003, 7.410164e-002
1.554344e+003, 7.383583e-002
1.556273e+003, 7.345240e-002
1.558201e+003, 7.348298e-002
1.560130e+003, 7.370865e-002
1.562058e+003, 7.392661e-002
1.563986e+003, 7.420311e-002
1.565915e+003, 7.487077e-002
1.567843e+003, 7.512224e-002
1.569772e+003, 7.512823e-002
1.571700e+003, 7.508994e-002
1.573629e+003, 7.514197e-002
1.575557e+003, 7.524944e-002
1.577486e+003, 7.579469e-002
1.579414e+003, 7.643552e-002
1.581343e+003, 7.659984e-002
1.583271e+003, 7.662071e-002
1.585200e+003, 7.669823e-002
1.587128e+003, 7.720900e-002
1.589057e+003, 7.767481e-002
1.590985e+003, 7.781728e-002
1.592913e+003, 7.814391e-002
1.594842e+003, 7.861684e-002
1.596770e+003, 7.860252e-002
1.598699e+003, 7.848337e-002
1.600627e+003, 7.903970e-002
1.602556e+003, 7.967515e-002
1.604484e+003, 7.970570e-002
1.606413e+003, 7.984454e-002
1.608341e+003, 7.967149e-002
1.610270e+003, 7.968140e-002
1.612198e+003, 8.021631e-002
1.614127e+003, 8.051813e-002
1.616055e+003, 8.047583e-002
1.617984e+003, 8.060830e-002
1.619912e+003, 8.126155e-002
1.621840e+003, 8.133164e-002
1.623769e+003, 8.126459e-002
1.625697e+003, 8.167972e-002
1.627626e+003, 8.187761e-002
1.629554e+003, 8.206126e-002
1.631483e+003, 8.232976e-002
1.633411e+003, 8.247948e-002
1.635340e+003, 8.278511e-002
1.637268e+003, 8.315039e-002
1.639197e+003, 8.360068e-002
1.641125e+003, 8.370961e-002
1.643054e+003, 8.368382e-002
1.644982e+003, 8.389261e-002
1.646911e+003, 8.419947e-002
1.648839e+003, 8.456957e-002
1.650767e+003, 8.472978e-002
1.652696e+003, 8.466367e-002
1.654624e+003, 8.473804e-002
1.656553e+003, 8.536687e-002
1.658481e+003, 8.608931e-002
1.660410e+003, 8.603914e-002
1.662338e+003, 8.595818e-002
1.664267e+003, 8.590940e-002
1.666195e+003, 8.565462e-002
1.668124e+003, 8.578879e-002
1.670052e+003, 8.620125e-002
1.671981e+003, 8.658241e-002
1.673909e+003, 8.673152e-002
1.675838e+003, 8.656283e-002
1.677766e+003, 8.692916e-002
1.679694e+003, 8.712190e-002
1.681623e+003, 8.689626e-002
1.683551e+003, 8.724042e-002
1.685480e+003, 8.764704e-002
1.687408e+003, 8.750599e-002
1.689337e+003, 8.791526e-002
1.691265e+003, 8.805257e-002
1.693194e+003, 8.846700e-002
1.695122e+003, 8.910558e-002
1.697051e+003, 8.912642e-002
1.698979e+003, 8.931620e-002
1.700908e+003, 8.954368e-002
1.702836e+003, 8.942472e-002
1.704765e+003, 8.960466e-002
1.706693e+003, 8.994074e-002
1.708621e+003, 9.038448e-002
1.710550e+003, 9.106282e-002
1.712478e+003, 9.145501e-002
1.714407e+003, 9.192759e-002
1.716335e+003, 9.156317e-002
1.718264e+003, 9.134555e-002
1.720192e+003, 9.176237e-002
1.722121e+003, 9.244361e-002
1.724049e+003, 9.253769e-002
1.725978e+003, 9.303753e-002
1.727906e+003, 9.385204e-002
1.729835e+003, 9.448211e-002
1.731763e+003, 9.428460e-002
1.733692e+003, 9.382454e-002
1.735620e+003, 9.350651e-002
1.737548e+003, 9.344305e-002
1.739477e+003, 9.375346e-002
1.741405e+003, 9.436069e-002
1.743334e+003, 9.437764e-002
1.745262e+003, 9.382838e-002
1.747191e+003, 9.352293e-002
1.749119e+003, 9.368904e-002
1.751048e+003, 9.399333e-002
1.752976e+003, 9.435631e-002
1.754905e+003, 9.443943e-002
1.756833e+003, 9.449116e-002
1.758762e+003, 9.486537e-002
1.760690e+003, 9.460948e-002
1.762619e+003, 9.460907e-002
1.764547e+003, 9.514564e-002
1.766475e+003, 9.619333e-002
1.768404e+003, 9.646621e-002
1.770332e+003, 9.636560e-002
1.772261e+003, 9.632055e-002
1.774189e+003, 9.615572e-002
1.776118e+003, 9.623884e-002
1.778046e+003, 9.669167e-002
1.779975e+003, 9.709794e-002
1.781903e+003, 9.714837e-002
1.783832e+003, 9.721840e-002
1.785760e+003, 9.773026e-002
1.787689e+003, 9.846123e-002
1.789617e+003, 9.900916e-002
1.791546e+003, 9.936442e-002
1.793474e+003, 9.932846e-002
1.795402e+003, 9.983063e-002
1.797331e+003, 9.977299e-002
1.799259e+003, 9.906536e-002
1.801188e+003, 9.874641e-002
1.803116e+003, 9.975132e-002
1.805045e+003, 9.998681e-002
1.806973e+003, 1.004196e-001
1.808902e+003, 1.004423e-001
1.810830e+003, 1.002630e-001
1.812759e+003, 1.001171e-001
1.814687e+003, 9.985527e-002
1.816616e+003, 1.000783e-001
1.818544e+003, 1.007691e-001
1.820473e+003, 1.010644e-001
1.822401e+003, 1.018571e-001
1.824329e+003, 1.016482e-001
1.826258e+003, 1.014476e-001
1.828186e+003, 1.019489e-001
1.830115e+003, 1.025363e-001
1.832043e+003, 1.028766e-001
1.833972e+003, 1.026057e-001
1.835900e+003, 1.030799e-001
1.837829e+003, 1.034749e-001
1.839757e+003, 1.026374e-001
1.841686e+003, 1.025457e-001
1.843614e+003, 1.032107e-001
1.845543e+003, 1.038647e-001
1.847471e+003, 1.039217e-001
1.849400e+003, 1.043884e-001
1.851328e+003, 1.044489e-001
1.853256e+003, 1.042770e-001
1.855185e+003, 1.043458e-001
1.857113e+003, 1.043231e-001
1.859042e+003, 1.051394e-001
1.860970e+003, 1.057873e-001
1.862899e+003, 1.051407e-001
1.864827e+003, 1.046554e-001
1.866756e+003, 1.056444e-001
1.868684e+003, 1.071498e-001
1.870613e+003, 1.079226e-001
1.872541e+003, 1.066710e-001
1.874470e+003, 1.061228e-001
1.876398e+003, 1.070172e-001
1.878327e+003, 1.073193e-001
1.880255e+003, 1.078461e-001
1.882183e+003, 1.089787e-001
1.884112e+003, 1.088695e-001
1.886040e+003, 1.084250e-001
1.887969e+003, 1.087979e-001
1.889897e+003, 1.090417e-001
1.891826e+003, 1.084305e-001
1.893754e+003, 1.083111e-001
1.895683e+003, 1.082729e-001
1.897611e+003, 1.069442e-001
1.899540e+003, 1.077296e-001
1.901468e+003, 1.087051e-001
1.903397e+003, 1.087239e-001
1.905325e+003, 1.089718e-001
1.907254e+003, 1.090402e-001
1.909182e+003, 1.082246e-001
1.911110e+003, 1.081505e-001
1.913039e+003, 1.092198e-001
1.914967e+003, 1.095603e-001
1.916896e+003, 1.102646e-001
1.918824e+003, 1.113284e-001
1.920753e+003, 1.109949e-001
1.922681e+003, 1.109142e-001
1.924610e+003, 1.113184e-001
1.926538e+003, 1.107184e-001
1.928467e+003, 1.102807e-001
1.930395e+003, 1.115768e-001
1.932324e+003, 1.121913e-001
1.934252e+003, 1.122239e-001
1.936181e+003, 1.131175e-001
1.938109e+003, 1.125311e-001
1.940037e+003, 1.103201e-001
1.941966e+003, 1.095076e-001
1.943894e+003, 1.110562e-001
1.945823e+003, 1.120506e-001
1.947751e+003, 1.123450e-001
1.949680e+003, 1.112540e-001
1.951608e+003, 1.104025e-001
1.953537e+003, 1.109754e-001
1.955465e+003, 1.115149e-001
1.957394e+003, 1.112858e-001
1.959322e+003, 1.136432e-001
1.961251e+003, 1.149054e-001
1.963179e+003, 1.130945e-001
1.965108e+003, 1.115689e-001
1.967036e+003, 1.142831e-001
1.968964e+003, 1.154352e-001
1.970893e+003, 1.120118e-001
1.972821e+003, 1.116946e-001
1.974750e+003, 1.149771e-001
1.976678e+003, 1.161035e-001
1.978607e+003, 1.173521e-001
1.980535e+003, 1.190772e-001
1.982464e+003, 1.206480e-001
1.984392e+003, 1.227252e-001
1.986321e+003, 1.197255e-001
1.988249e+003, 1.171251e-001
1.990178e+003, 1.211528e-001
1.992106e+003, 1.228399e-001
1.994035e+003, 1.225844e-001
1.995963e+003, 1.218092e-001
1.997891e+003, 1.198069e-001
1.999820e+003, 1.186399e-001
2.001748e+003, 1.200950e-001
2.003677e+003, 1.212641e-001
2.005605e+003, 1.210897e-001
2.007534e+003, 1.208712e-001
2.009462e+003, 1.204113e-001
2.011391e+003, 1.203429e-001
2.013319e+003, 1.233846e-001
2.015248e+003, 1.262955e-001
2.017176e+003, 1.248990e-001
2.019105e+003, 1.247965e-001
2.021033e+003, 1.262476e-001
2.022962e+003, 1.259745e-001
2.024890e+003, 1.267389e-001
2.026818e+003, 1.275814e-001
2.028747e+003, 1.261810e-001
2.030675e+003, 1.275831e-001
2.032604e+003, 1.301513e-001
2.034532e+003, 1.305090e-001
2.036461e+003, 1.288879e-001
2.038389e+003, 1.274784e-001
2.040318e+003, 1.276992e-001
2.042246e+003, 1.260064e-001
2.044175e+003, 1.262902e-001
2.046103e+003, 1.257247e-001
2.048031e+003, 1.245815e-001
2.049960e+003, 1.268914e-001
2.051888e+003, 1.284614e-001
2.053817e+003, 1.297886e-001
2.055745e+003, 1.299699e-001
2.057674e+003, 1.296349e-001
2.059602e+003, 1.297466e-001
2.061531e+003, 1.295374e-001
2.063459e+003, 1.301701e-001
2.065388e+003, 1.308853e-001
2.067316e+003, 1.310019e-001
2.069245e+003, 1.290946e-001
2.071173e+003, 1.282114e-001
2.073102e+003, 1.304867e-001
2.075030e+003, 1.302877e-001
2.076958e+003, 1.289516e-001
2.078887e+003, 1.303403e-001
2.080815e+003, 1.334025e-001
2.082744e+003, 1.343826e-001
2.084672e+003, 1.323227e-001
2.086601e+003, 1.291866e-001
2.088529e+003, 1.293754e-001
2.090458e+003, 1.296265e-001
2.092386e+003, 1.281794e-001
2.094315e+003, 1.274907e-001
2.096243e+003, 1.297186e-001
2.098172e+003, 1.310200e-001
2.100100e+003, 1.329858e-001
2.102029e+003, 1.341642e-001
2.103957e+003, 1.326125e-001
2.105885e+003, 1.311975e-001
2.107814e+003, 1.311563e-001
2.109742e+003, 1.319637e-001
2.111671e+003, 1.312802e-001
2.113599e+003, 1.302294e-001
2.115528e+003, 1.308374e-001
2.117456e+003, 1.324118e-001
2.119385e+003, 1.331493e-001
2.121313e+003, 1.331677e-001
2.123242e+003, 1.338393e-001
2.125170e+003, 1.333236e-001
2.127099e+003, 1.330017e-001
2.129027e+003, 1.329197e-001
2.130956e+003, 1.331849e-001
2.132884e+003, 1.322473e-001
2.134813e+003, 1.323988e-001
2.136741e+003, 1.335638e-001
2.138669e+003, 1.341058e-001
2.140598e+003, 1.338389e-001
2.142526e+003, 1.334078e-001
2.144455e+003, 1.351148e-001
2.146383e+003, 1.344684e-001
2.148312e+003, 1.325998e-001
2.150240e+003, 1.301911e-001
2.152169e+003, 1.301741e-001
2.154097e+003, 1.282404e-001
2.156026e+003, 1.245466e-001
2.157954e+003, 1.270924e-001
2.159883e+003, 1.322748e-001
2.161811e+003, 1.370388e-001
2.163740e+003, 1.439231e-001
2.165668e+003, 1.449712e-001
2.167596e+003, 1.421019e-001
2.169525e+003, 1.407150e-001
2.171453e+003, 1.398029e-001
2.173382e+003, 1.390749e-001
2.175310e+003, 1.378947e-001
2.177239e+003, 1.392575e-001
2.179167e+003, 1.401494e-001
2.181096e+003, 1.399408e-001
2.183024e+003, 1.451530e-001
2.184953e+003, 1.452629e-001
2.186881e+003, 1.421761e-001
2.188810e+003, 1.398377e-001
2.190738e+003, 1.387190e-001
2.192667e+003, 1.435792e-001
2.194595e+003, 1.448807e-001
2.196523e+003, 1.420230e-001
2.198452e+003, 1.415678e-001
2.200380e+003, 1.423721e-001
2.202309e+003, 1.400683e-001
2.204237e+003, 1.383425e-001
2.206166e+003, 1.409026e-001
2.208094e+003, 1.421777e-001
2.210023e+003, 1.412749e-001
2.211951e+003, 1.423953e-001
2.213880e+003, 1.429886e-001
2.215808e+003, 1.427135e-001
2.217737e+003, 1.419141e-001
2.219665e+003, 1.402589e-001
2.221594e+003, 1.415281e-001
2.223522e+003, 1.446938e-001
2.225450e+003, 1.438262e-001
2.227379e+003, 1.429019e-001
2.229307e+003, 1.426737e-001
2.231236e+003, 1.442841e-001
2.233164e+003, 1.448953e-001
2.235093e+003, 1.439157e-001
2.237021e+003, 1.435015e-001
2.238950e+003, 1.432956e-001
2.240878e+003, 1.431730e-001
2.242807e+003, 1.446843e-001
2.244735e+003, 1.458166e-001
2.246664e+003, 1.466822e-001
2.248592e+003, 1.468309e-001
2.250521e+003, 1.459713e-001
2.252449e+003, 1.453442e-001
2.254377e+003, 1.478608e-001
2.256306e+003, 1.488285e-001
2.258234e+003, 1.489666e-001
2.260163e+003, 1.495570e-001
2.262091e+003, 1.489997e-001
2.264020e+003, 1.481910e-001
2.265948e+003, 1.480014e-001
2.267877e+003, 1.486466e-001
2.269805e+003, 1.487141e-001
2.271734e+003, 1.477305e-001
2.273662e+003, 1.488362e-001
2.275591e+003, 1.502608e-001
2.277519e+003, 1.499763e-001
2.279448e+003, 1.500856e-001
2.281376e+003, 1.503412e-001
2.283304e+003, 1.504992e-001
2.285233e+003, 1.509231e-001
2.287161e+003, 1.503526e-001
2.289090e+003, 1.498173e-001
2.291018e+003, 1.503390e-001
2.292947e+003, 1.508510e-001
2.294875e+003, 1.497241e-001
2.296804e+003, 1.492991e-001
2.298732e+003, 1.499777e-001
2.300661e+003, 1.505136e-001
2.302589e+003, 1.509939e-001
2.304518e+003, 1.503825e-001
2.306446e+003, 1.499976e-001
2.308375e+003, 1.494259e-001
2.310303e+003, 1.490575e-001
2.312231e+003, 1.508361e-001
2.314160e+003, 1.511938e-001
2.316088e+003, 1.518690e-001
2.318017e+003, 1.529181e-001
2.319945e+003, 1.528201e-001
2.321874e+003, 1.527282e-001
2.323802e+003, 1.519575e-001
2.325731e+003, 1.511517e-001
2.327659e+003, 1.513824e-001
2.329588e+003, 1.517671e-001
2.331516e+003, 1.513368e-001
2.333445e+003, 1.506811e-001
2.335373e+003, 1.507699e-001
2.337302e+003, 1.505668e-001
2.339230e+003, 1.507761e-001
2.341158e+003, 1.515117e-001
2.343087e+003, 1.512669e-001
2.345015e+003, 1.511586e-001
2.346944e+003, 1.513380e-001
2.348872e+003, 1.520159e-001
2.350801e+003, 1.516632e-001
2.352729e+003, 1.515842e-001
2.354658e+003, 1.516536e-001
2.356586e+003, 1.514443e-001
2.358515e+003, 1.515351e-001
2.360443e+003, 1.516218e-001
2.362372e+003, 1.514978e-001
2.364300e+003, 1.516575e-001
2.366229e+003, 1.517572e-001
2.368157e+003, 1.510567e-001
2.370085e+003, 1.511875e-001
2.372014e+003, 1.517866e-001
2.373942e+003, 1.522935e-001
2.375871e+003, 1.524317e-001
2.377799e+003, 1.524996e-001
2.379728e+003, 1.528340e-001
2.381656e+003, 1.531105e-001
2.383585e+003, 1.529924e-001
2.385513e+003, 1.525736e-001
2.387442e+003, 1.534851e-001
2.389370e+003, 1.541342e-001
2.391299e+003, 1.538299e-001
2.393227e+003, 1.559174e-001
2.395156e+003, 1.564543e-001
2.397084e+003, 1.558688e-001
2.399012e+003, 1.553342e-001
2.400941e+003, 1.551419e-001
2.402869e+003, 1.556917e-001
2.404798e+003, 1.547868e-001
2.406726e+003, 1.546026e-001
2.408655e+003, 1.561760e-001
2.410583e+003, 1.572318e-001
2.412512e+003, 1.572255e-001
2.414440e+003, 1.562885e-001
2.416369e+003, 1.566657e-001
2.418297e+003, 1.579020e-001
2.420226e+003, 1.585725e-001
2.422154e+003, 1.586132e-001
2.424083e+003, 1.581767e-001
2.426011e+003, 1.575959e-001
2.427939e+003, 1.587465e-001
2.429868e+003, 1.599435e-001
2.431796e+003, 1.597154e-001
2.433725e+003, 1.591849e-001
2.435653e+003, 1.589927e-001
2.437582e+003, 1.570262e-001
2.439510e+003, 1.564083e-001
2.441439e+003, 1.574665e-001
2.443367e+003, 1.579917e-001
2.445296e+003, 1.579464e-001
2.447224e+003, 1.586158e-001
2.449153e+003, 1.586443e-001
2.451081e+003, 1.590948e-001
2.453010e+003, 1.586419e-001
2.454938e+003, 1.588540e-001
2.456866e+003, 1.590916e-001
2.458795e+003, 1.592985e-001
2.460723e+003, 1.602621e-001
2.462652e+003, 1.609488e-001
2.464580e+003, 1.611486e-001
2.466509e+003, 1.616458e-001
2.468437e+003, 1.620609e-001
2.470366e+003, 1.621257e-001
2.472294e+003, 1.618165e-001
2.474223e+003, 1.614181e-001
2.476151e+003, 1.612957e-001
2.478080e+003, 1.612689e-001
2.480008e+003, 1.621203e-001
2.481937e+003, 1.626173e-001
2.483865e+003, 1.621507e-001
2.485793e+003, 1.621588e-001
2.487722e+003, 1.638940e-001
2.489650e+003, 1.637017e-001
2.491579e+003, 1.625805e-001
2.493507e+003, 1.616375e-001
2.495436e+003, 1.621750e-001
2.497364e+003, 1.631493e-001
2.499293e+003, 1.621749e-001
2.501221e+003, 1.622513e-001
2.503150e+003, 1.627293e-001
2.505078e+003, 1.622442e-001
2.507007e+003, 1.624561e-001
2.508935e+003, 1.637033e-001
2.510864e+003, 1.638373e-001
2.512792e+003, 1.632259e-001
2.514720e+003, 1.630112e-001
2.516649e+003, 1.636347e-001
2.518577e+003, 1.642526e-001
2.520506e+003, 1.653808e-001
2.522434e+003, 1.647160e-001
2.524363e+003, 1.639487e-001
2.526291e+003, 1.652097e-001
2.528220e+003, 1.660769e-001
2.530148e+003, 1.655786e-001
2.532077e+003, 1.650937e-001
2.534005e+003, 1.648958e-001
2.535934e+003, 1.642044e-001
2.537862e+003, 1.639319e-001
2.539791e+003, 1.645716e-001
2.541719e+003, 1.642341e-001
2.543647e+003, 1.645523e-001
2.545576e+003, 1.652083e-001
2.547504e+003, 1.651570e-001
2.549433e+003, 1.653458e-001
2.551361e+003, 1.657764e-001
2.553290e+003, 1.663778e-001
2.555218e+003, 1.674915e-001
2.557147e+003, 1.678463e-001
2.559075e+003, 1.673485e-001
2.561004e+003, 1.667150e-001
2.562932e+003, 1.652642e-001
2.564861e+003, 1.646155e-001
2.566789e+003, 1.656871e-001
2.568718e+003, 1.668402e-001
2.570646e+003, 1.667196e-001
2.572574e+003, 1.676883e-001
2.574503e+003, 1.685260e-001
2.576431e+003, 1.682968e-001
2.578360e+003, 1.668559e-001
2.580288e+003, 1.667238e-001
2.582217e+003, 1.686531e-001
2.584145e+003, 1.699337e-001
2.586074e+003, 1.683941e-001
2.588002e+003, 1.677345e-001
2.589931e+003, 1.684941e-001
2.591859e+003, 1.688161e-001
2.593788e+003, 1.692471e-001
2.595716e+003, 1.687521e-001
2.597645e+003, 1.697908e-001
2.599573e+003, 1.711786e-001
2.601501e+003, 1.705930e-001
2.603430e+003, 1.707236e-001
2.605358e+003, 1.706464e-001
2.607287e+003, 1.696256e-001
2.609215e+003, 1.693625e-001
2.611144e+003, 1.703291e-001
2.613072e+003, 1.704446e-001
2.615001e+003, 1.708307e-001
2.616929e+003, 1.706285e-001
2.618858e+003, 1.708425e-001
2.620786e+003, 1.711912e-001
2.622715e+003, 1.710567e-001
2.624643e+003, 1.705033e-001
2.626572e+003, 1.710515e-001
2.628500e+003, 1.715620e-001
2.630428e+003, 1.712944e-001
2.632357e+003, 1.713039e-001
2.634285e+003, 1.725208e-001
2.636214e+003, 1.731664e-001
2.638142e+003, 1.721693e-001
2.640071e+003, 1.716617e-001
2.641999e+003, 1.717969e-001
2.643928e+003, 1.721618e-001
2.645856e+003, 1.724421e-001
2.647785e+003, 1.726818e-001
2.649713e+003, 1.737521e-001
2.651642e+003, 1.740378e-001
2.653570e+003, 1.731748e-001
2.655499e+003, 1.727840e-001
2.657427e+003, 1.730389e-001
2.659355e+003, 1.736249e-001
2.661284e+003, 1.734499e-001
2.663212e+003, 1.731744e-001
2.665141e+003, 1.729571e-001
2.667069e+003, 1.731800e-001
2.668998e+003, 1.734870e-001
2.670926e+003, 1.728868e-001
2.672855e+003, 1.721636e-001
2.674783e+003, 1.717459e-001
2.676712e+003, 1.720646e-001
2.678640e+003, 1.725678e-001
2.680569e+003, 1.729362e-001
2.682497e+003, 1.737936e-001
2.684426e+003, 1.744752e-001
2.686354e+003, 1.746637e-001
2.688282e+003, 1.744585e-001
2.690211e+003, 1.749182e-001
2.692139e+003, 1.752667e-001
2.694068e+003, 1.747900e-001
2.695996e+003, 1.745682e-001
2.697925e+003, 1.747390e-001
2.699853e+003, 1.753798e-001
2.701782e+003, 1.764687e-001
2.703710e+003, 1.766693e-001
2.705639e+003, 1.763286e-001
2.707567e+003, 1.762881e-001
2.709496e+003, 1.759356e-001
2.711424e+003, 1.764813e-001
2.713353e+003, 1.766287e-001
2.715281e+003, 1.768711e-001
2.717209e+003, 1.765898e-001
2.719138e+003, 1.760350e-001
2.721066e+003, 1.759455e-001
2.722995e+003, 1.769281e-001
2.724923e+003, 1.780603e-001
2.726852e+003, 1.775118e-001
2.728780e+003, 1.764376e-001
2.730709e+003, 1.765642e-001
2.732637e+003, 1.784602e-001
2.734566e+003, 1.787266e-001
2.736494e+003, 1.779163e-001
2.738423e+003, 1.773356e-001
2.740351e+003, 1.765714e-001
2.742280e+003, 1.760247e-001
2.744208e+003, 1.766951e-001
2.746136e+003, 1.764591e-001
2.748065e+003, 1.765829e-001
2.749993e+003, 1.779201e-001
2.751922e+003, 1.796135e-001
2.753850e+003, 1.792214e-001
2.755779e+003, 1.781346e-001
2.757707e+003, 1.782383e-001
2.759636e+003, 1.790198e-001
2.761564e+003, 1.788515e-001
2.763493e+003, 1.782325e-001
2.765421e+003, 1.785574e-001
2.767350e+003, 1.793813e-001
2.769278e+003, 1.798224e-001
2.771207e+003, 1.800926e-001
2.773135e+003, 1.806671e-001
2.775063e+003, 1.801402e-001
2.776992e+003, 1.789739e-001
2.778920e+003, 1.800371e-001
2.780849e+003, 1.813556e-001
2.782777e+003, 1.813686e-001
2.784706e+003, 1.814789e-001
2.786634e+003, 1.810441e-001
2.788563e+003, 1.806635e-001
2.790491e+003, 1.806145e-001
2.792420e+003, 1.805047e-001
2.794348e+003, 1.803192e-001
2.796277e+003, 1.810163e-001
2.798205e+003, 1.817938e-001
2.800134e+003, 1.813533e-001
2.802062e+003, 1.811532e-001
2.803990e+003, 1.813382e-001
2.805919e+003, 1.805601e-001
2.807847e+003, 1.807304e-001
2.809776e+003, 1.812963e-001
2.811704e+003, 1.822116e-001
2.813633e+003, 1.826623e-001
2.815561e+003, 1.826536e-001
2.817490e+003, 1.832704e-001
2.819418e+003, 1.825953e-001
2.821347e+003, 1.812348e-001
2.823275e+003, 1.816109e-001
2.825204e+003, 1.816746e-001
2.827132e+003, 1.826348e-001
2.829061e+003, 1.836865e-001
2.830989e+003, 1.844390e-001
2.832917e+003, 1.853689e-001
2.834846e+003, 1.847234e-001
2.836774e+003, 1.842860e-001
2.838703e+003, 1.845289e-001
2.840631e+003, 1.840190e-001
2.842560e+003, 1.835603e-001
2.844488e+003, 1.841271e-001
2.846417e+003, 1.857029e-001
2.848345e+003, 1.868365e-001
2.850274e+003, 1.861955e-001
2.852202e+003, 1.847207e-001
2.854131e+003, 1.839400e-001
2.856059e+003, 1.849861e-001
2.857988e+003, 1.858768e-001
2.859916e+003, 1.859932e-001
2.861844e+003, 1.864951e-001
2.863773e+003, 1.862235e-001
2.865701e+003, 1.853544e-001
2.867630e+003, 1.855368e-001
2.869558e+003, 1.855505e-001
2.871487e+003, 1.866511e-001
2.873415e+003, 1.875988e-001
2.875344e+003, 1.880108e-001
2.877272e+003, 1.882608e-001
2.879201e+003, 1.876272e-001
2.881129e+003, 1.870273e-001
2.883058e+003, 1.865893e-001
2.884986e+003, 1.867401e-001
2.886915e+003, 1.872289e-001
2.888843e+003, 1.882538e-001
2.890771e+003, 1.881938e-001
2.892700e+003, 1.875767e-001
2.894628e+003, 1.883904e-001
2.896557e+003, 1.885394e-001
2.898485e+003, 1.884945e-001
2.900414e+003, 1.888524e-001
2.902342e+003, 1.895019e-001
2.904271e+003, 1.901516e-001
2.906199e+003, 1.901831e-001
2.908128e+003, 1.910164e-001
2.910056e+003, 1.920950e-001
2.911985e+003, 1.907415e-001
2.913913e+003, 1.894843e-001
2.915842e+003, 1.918682e-001
2.917770e+003, 1.936180e-001
2.919698e+003, 1.928274e-001
2.921627e+003, 1.918357e-001
2.923555e+003, 1.930778e-001
2.925484e+003, 1.936508e-001
2.927412e+003, 1.926274e-001
2.929341e+003, 1.922036e-001
2.931269e+003, 1.933963e-001
2.933198e+003, 1.938172e-001
2.935126e+003, 1.926115e-001
2.937055e+003, 1.928033e-001
2.938983e+003, 1.938578e-001
2.940912e+003, 1.938469e-001
2.942840e+003, 1.931931e-001
2.944769e+003, 1.929862e-001
2.946697e+003, 1.927177e-001
2.948625e+003, 1.915424e-001
2.950554e+003, 1.922295e-001
2.952482e+003, 1.927750e-001
2.954411e+003, 1.920349e-001
2.956339e+003, 1.917006e-001
2.958268e+003, 1.924511e-001
2.960196e+003, 1.941298e-001
2.962125e+003, 1.936293e-001
2.964053e+003, 1.928817e-001
2.965982e+003, 1.927802e-001
2.967910e+003, 1.936023e-001
2.969839e+003, 1.941638e-001
2.971767e+003, 1.925546e-001
2.973696e+003, 1.926100e-001
2.975624e+003, 1.936736e-001
2.977552e+003, 1.934245e-001
2.979481e+003, 1.931022e-001
2.981409e+003, 1.931403e-001
2.983338e+003, 1.924558e-001
2.985266e+003, 1.926095e-001
2.987195e+003, 1.927592e-001
2.989123e+003, 1.933977e-001
2.991052e+003, 1.949930e-001
2.992980e+003, 1.939848e-001
2.994909e+003, 1.939245e-001
2.996837e+003, 1.934107e-001
2.998766e+003, 1.932958e-001
3.000694e+003, 1.945022e-001
3.002623e+003, 1.940366e-001
3.004551e+003, 1.943669e-001
3.006479e+003, 1.956710e-001
3.008408e+003, 1.949317e-001
3.010336e+003, 1.929373e-001
3.012265e+003, 1.927002e-001
3.014193e+003, 1.932898e-001
3.016122e+003, 1.937775e-001
3.018050e+003, 1.937954e-001
3.019979e+003, 1.949344e-001
3.021907e+003, 1.941887e-001
3.023836e+003, 1.942281e-001
3.025764e+003, 1.950882e-001
3.027693e+003, 1.939450e-001
3.029621e+003, 1.948772e-001
3.031550e+003, 1.969446e-001
3.033478e+003, 1.967609e-001
3.035406e+003, 1.959000e-001
3.037335e+003, 1.955719e-001
3.039263e+003, 1.967460e-001
3.041192e+003, 1.971292e-001
3.043120e+003, 1.971463e-001
3.045049e+003, 1.976684e-001
3.046977e+003, 1.976420e-001
3.048906e+003, 1.968695e-001
3.050834e+003, 1.969978e-001
3.052763e+003, 1.969854e-001
3.054691e+003, 1.966853e-001
3.056620e+003, 1.954546e-001
3.058548e+003, 1.963764e-001
3.060477e+003, 1.977335e-001
3.062405e+003, 1.968784e-001
3.064333e+003, 1.970903e-001
3.066262e+003, 1.977381e-001
3.068190e+003, 1.976089e-001
3.070119e+003, 1.988800e-001
3.072047e+003, 2.005151e-001
3.073976e+003, 1.997836e-001
3.075904e+003, 1.987499e-001
3.077833e+003, 1.986631e-001
3.079761e+003, 1.984754e-001
3.081690e+003, 1.983685e-001
3.083618e+003, 1.986371e-001
3.085547e+003, 1.976335e-001
3.087475e+003, 1.966920e-001
3.089404e+003, 1.973764e-001
3.091332e+003, 1.979537e-001
3.093260e+003, 1.982987e-001
3.095189e+003, 1.997761e-001
3.097117e+003, 1.996131e-001
3.099046e+003, 1.990636e-001
3.100974e+003, 1.993940e-001
3.102903e+003, 1.985694e-001
3.104831e+003, 1.986261e-001
3.106760e+003, 1.985792e-001
3.108688e+003, 1.990769e-001
3.110617e+003, 2.003681e-001
3.112545e+003, 2.009162e-001
3.114474e+003, 2.004981e-001
3.116402e+003, 2.006080e-001
3.118331e+003, 2.023418e-001
3.120259e+003, 2.029856e-001
3.122188e+003, 2.011614e-001
3.124116e+003, 1.990916e-001
3.126044e+003, 2.000281e-001
3.127973e+003, 2.019144e-001
3.129901e+003, 2.018829e-001
3.131830e+003, 2.019961e-001
3.133758e+003, 2.040640e-001
3.135687e+003, 2.032808e-001
3.137615e+003, 2.010330e-001
3.139544e+003, 2.005319e-001
3.141472e+003, 2.001540e-001
3.143401e+003, 2.000919e-001
3.145329e+003, 1.999156e-001
3.147258e+003, 2.008986e-001
3.149186e+003, 2.033221e-001
3.151115e+003, 2.045043e-001
3.153043e+003, 2.036569e-001
3.154971e+003, 2.027970e-001
3.156900e+003, 2.026208e-001
3.158828e+003, 2.022148e-001
3.160757e+003, 2.016357e-001
3.162685e+003, 2.026095e-001
3.164614e+003, 2.034531e-001
3.166542e+003, 2.044175e-001
3.168471e+003, 2.068270e-001
3.170399e+003, 2.070050e-001
3.172328e+003, 2.041915e-001
3.174256e+003, 2.035065e-001
3.176185e+003, 2.035847e-001
3.178113e+003, 2.042993e-001
3.180042e+003, 2.038481e-001
3.181970e+003, 2.043301e-001
3.183898e+003, 2.070633e-001
3.185827e+003, 2.058825e-001
3.187755e+003, 2.060244e-001
3.189684e+003, 2.077662e-001
3.191612e+003, 2.073981e-001
3.193541e+003, 2.061436e-001
3.195469e+003, 2.062531e-001
3.197398e+003, 2.069163e-001
3.199326e+003, 2.069395e-001
3.201255e+003, 2.057706e-001
3.203183e+003, 2.055303e-001
3.205112e+003, 2.060639e-001
3.207040e+003, 2.069896e-001
3.208969e+003, 2.078216e-001
3.210897e+003, 2.079289e-001
3.212825e+003, 2.063513e-001
3.214754e+003, 2.051601e-001
3.216682e+003, 2.056447e-001
3.218611e+003, 2.051332e-001
3.220539e+003, 2.042035e-001
3.222468e+003, 2.050656e-001
3.224396e+003, 2.047229e-001
3.226325e+003, 2.042493e-001
3.228253e+003, 2.043582e-001
3.230182e+003, 2.062473e-001
3.232110e+003, 2.070894e-001
3.234039e+003, 2.066568e-001
3.235967e+003, 2.072913e-001
3.237896e+003, 2.079823e-001
3.239824e+003, 2.063555e-001
3.241752e+003, 2.053016e-001
3.243681e+003, 2.070134e-001
3.245609e+003, 2.081868e-001
3.247538e+003, 2.093206e-001
3.249466e+003, 2.096969e-001
3.251395e+003, 2.077250e-001
3.253323e+003, 2.064115e-001
3.255252e+003, 2.074569e-001
3.257180e+003, 2.082428e-001
3.259109e+003, 2.071275e-001
3.261037e+003, 2.067146e-001
3.262966e+003, 2.062091e-001
3.264894e+003, 2.070364e-001
3.266823e+003, 2.082334e-001
3.268751e+003, 2.085453e-001
3.270679e+003, 2.088935e-001
3.272608e+003, 2.102935e-001
3.274536e+003, 2.103584e-001
3.276465e+003, 2.089026e-001
3.278393e+003, 2.090898e-001
3.280322e+003, 2.094256e-001
3.282250e+003, 2.104606e-001
3.284179e+003, 2.109203e-001
3.286107e+003, 2.086717e-001
3.288036e+003, 2.078355e-001
3.289964e+003, 2.089218e-001
3.291893e+003, 2.087570e-001
3.293821e+003, 2.087377e-001
3.295750e+003, 2.078416e-001
3.297678e+003, 2.086929e-001
3.299606e+003, 2.094171e-001
3.301535e+003, 2.086478e-001
3.303463e+003, 2.086321e-001
3.305392e+003, 2.105452e-001
3.307320e+003, 2.113374e-001
3.309249e+003, 2.106850e-001
3.311177e+003, 2.111036e-001
3.313106e+003, 2.097224e-001
3.315034e+003, 2.085500e-001
3.316963e+003, 2.099009e-001
3.318891e+003, 2.112473e-001
3.320820e+003, 2.108066e-001
3.322748e+003, 2.110093e-001
3.324677e+003, 2.119018e-001
3.326605e+003, 2.122665e-001
3.328533e+003, 2.115465e-001
3.330462e+003, 2.111969e-001
3.332390e+003, 2.106382e-001
3.334319e+003, 2.095095e-001
3.336247e+003, 2.102514e-001
3.338176e+003, 2.103023e-001
3.340104e+003, 2.117380e-001
3.342033e+003, 2.143615e-001
3.343961e+003, 2.138372e-001
3.345890e+003, 2.131320e-001
3.347818e+003, 2.129490e-001
3.349747e+003, 2.139032e-001
3.351675e+003, 2.150202e-001
3.353604e+003, 2.141158e-001
3.355532e+003, 2.132211e-001
3.357460e+003, 2.113412e-001
3.359389e+003, 2.116894e-001
3.361317e+003, 2.128853e-001
3.363246e+003, 2.115930e-001
3.365174e+003, 2.111651e-001
3.367103e+003, 2.135321e-001
3.369031e+003, 2.141776e-001
3.370960e+003, 2.118391e-001
3.372888e+003, 2.092481e-001
3.374817e+003, 2.088476e-001
3.376745e+003, 2.090856e-001
3.378674e+003, 2.105279e-001
3.380602e+003, 2.126525e-001
3.382531e+003, 2.136249e-001
3.384459e+003, 2.136052e-001
3.386387e+003, 2.124412e-001
3.388316e+003, 2.116763e-001
3.390244e+003, 2.120438e-001
3.392173e+003, 2.132738e-001
3.394101e+003, 2.133816e-001
3.396030e+003, 2.121972e-001
3.397958e+003, 2.111486e-001
3.399887e+003, 2.118714e-001
3.401815e+003, 2.137442e-001
3.403744e+003, 2.144003e-001
3.405672e+003, 2.143807e-001
3.407601e+003, 2.132222e-001
3.409529e+003, 2.113654e-001
3.411458e+003, 2.116438e-001
3.413386e+003, 2.137068e-001
3.415314e+003, 2.150800e-001
3.417243e+003, 2.150721e-001
3.419171e+003, 2.145028e-001
3.421100e+003, 2.140599e-001
3.423028e+003, 2.156020e-001
3.424957e+003, 2.143692e-001
3.426885e+003, 2.110711e-001
3.428814e+003, 2.099465e-001
3.430742e+003, 2.115510e-001
3.432671e+003, 2.108812e-001
3.434599e+003, 2.099849e-001
3.436528e+003, 2.111216e-001
3.438456e+003, 2.118526e-001
3.440385e+003, 2.127974e-001
3.442313e+003, 2.129864e-001
3.444241e+003, 2.116402e-001
3.446170e+003, 2.125434e-001
3.448098e+003, 2.150225e-001
3.450027e+003, 2.146620e-001
3.451955e+003, 2.143481e-001
3.453884e+003, 2.154386e-001
3.455812e+003, 2.174221e-001
3.457741e+003, 2.165060e-001
3.459669e+003, 2.146515e-001
3.461598e+003, 2.158069e-001
3.463526e+003, 2.150926e-001
3.465455e+003, 2.131061e-001
3.467383e+003, 2.134844e-001
3.469312e+003, 2.151044e-001
3.471240e+003, 2.141775e-001
3.473168e+003, 2.132206e-001
3.475097e+003, 2.143641e-001
3.477025e+003, 2.146362e-001
3.478954e+003, 2.129185e-001
3.480882e+003, 2.118533e-001
3.482811e+003, 2.114010e-001
3.484739e+003, 2.103249e-001
3.486668e+003, 2.104608e-001
3.488596e+003, 2.126927e-001
3.490525e+003, 2.138435e-001
3.492453e+003, 2.143763e-001
3.494382e+003, 2.152867e-001
3.496310e+003, 2.135940e-001
3.498239e+003, 2.141632e-001
3.500167e+003, 2.154201e-001
3.502095e+003, 2.138809e-001
3.504024e+003, 2.131303e-001
3.505952e+003, 2.138282e-001
3.507881e+003, 2.144525e-001
3.509809e+003, 2.154933e-001
3.511738e+003, 2.148837e-001
3.513666e+003, 2.133616e-001
3.515595e+003, 2.164664e-001
3.517523e+003, 2.178836e-001
3.519452e+003, 2.158687e-001
3.521380e+003, 2.157495e-001
3.523309e+003, 2.139153e-001
3.525237e+003, 2.127897e-001
3.527166e+003, 2.136382e-001
3.529094e+003, 2.143378e-001
3.531022e+003, 2.141612e-001
3.532951e+003, 2.152354e-001
3.534879e+003, 2.162929e-001
3.536808e+003, 2.154366e-001
3.538736e+003, 2.150421e-001
3.540665e+003, 2.139186e-001
3.542593e+003, 2.126060e-001
3.544522e+003, 2.129232e-001
3.546450e+003, 2.145813e-001
3.548379e+003, 2.125739e-001
3.550307e+003, 2.107211e-001
3.552236e+003, 2.120730e-001
3.554164e+003, 2.134947e-001
3.556093e+003, 2.121190e-001
3.558021e+003, 2.122113e-001
3.559949e+003, 2.140647e-001
3.561878e+003, 2.126593e-001
3.563806e+003, 2.120311e-001
3.565735e+003, 2.126669e-001
3.567663e+003, 2.126976e-001
3.569592e+003, 2.126747e-001
3.571520e+003, 2.141328e-001
3.573449e+003, 2.135676e-001
3.575377e+003, 2.112535e-001
3.577306e+003, 2.132435e-001
3.579234e+003, 2.131187e-001
3.581163e+003, 2.095458e-001
3.583091e+003, 2.117589e-001
3.585020e+003, 2.151390e-001
3.586948e+003, 2.114922e-001
3.588876e+003, 2.080524e-001
3.590805e+003, 2.087042e-001
3.592733e+003, 2.126070e-001
3.594662e+003, 2.153000e-001
3.596590e+003, 2.145869e-001
3.598519e+003, 2.146998e-001
3.600447e+003, 2.140649e-001
3.602376e+003, 2.130150e-001
3.604304e+003, 2.095385e-001
3.606233e+003, 2.068514e-001
3.608161e+003, 2.068553e-001
3.610090e+003, 2.098481e-001
3.612018e+003, 2.120279e-001
3.613947e+003, 2.118454e-001
3.615875e+003, 2.134436e-001
3.617803e+003, 2.165925e-001
3.619732e+003, 2.191612e-001
3.621660e+003, 2.179822e-001
3.623589e+003, 2.135532e-001
3.625517e+003, 2.139570e-001
3.627446e+003, 2.167775e-001
3.629374e+003, 2.127777e-001
3.631303e+003, 2.109124e-001
3.633231e+003, 2.131057e-001
3.635160e+003, 2.097321e-001
3.637088e+003, 2.077358e-001
3.639017e+003, 2.101393e-001
3.640945e+003, 2.132983e-001
3.642874e+003, 2.129948e-001
3.644802e+003, 2.116139e-001
3.646730e+003, 2.106485e-001
3.648659e+003, 2.090777e-001
3.650587e+003, 2.085406e-001
3.652516e+003, 2.081243e-001
3.654444e+003, 2.096158e-001
3.656373e+003, 2.091554e-001
3.658301e+003, 2.102132e-001
3.660230e+003, 2.128458e-001
3.662158e+003, 2.116359e-001
3.664087e+003, 2.106287e-001
3.666015e+003, 2.099991e-001
3.667944e+003, 2.105417e-001
3.669872e+003, 2.122603e-001
3.671801e+003, 2.139389e-001
3.673729e+003, 2.130466e-001
3.675657e+003, 2.115495e-001
3.677586e+003, 2.102350e-001
3.679514e+003, 2.108634e-001
3.681443e+003, 2.127133e-001
3.683371e+003, 2.145793e-001
3.685300e+003, 2.120201e-001
3.687228e+003, 2.102536e-001
3.689157e+003, 2.119373e-001
3.691085e+003, 2.114642e-001
3.693014e+003, 2.119904e-001
3.694942e+003, 2.143073e-001
3.696871e+003, 2.153243e-001
3.698799e+003, 2.135267e-001
3.700728e+003, 2.140273e-001
3.702656e+003, 2.147765e-001
3.704584e+003, 2.148950e-001
3.706513e+003, 2.147626e-001
3.708441e+003, 2.151026e-001
3.710370e+003, 2.140673e-001
3.712298e+003, 2.102386e-001
3.714227e+003, 2.085581e-001
3.716155e+003, 2.091391e-001
3.718084e+003, 2.118965e-001
3.720012e+003, 2.151860e-001
3.721941e+003, 2.138858e-001
3.723869e+003, 2.138482e-001
3.725798e+003, 2.156146e-001
3.727726e+003, 2.158835e-001
3.729655e+003, 2.138097e-001
3.731583e+003, 2.122262e-001
3.733511e+003, 2.126154e-001
3.735440e+003, 2.122709e-001
3.737368e+003, 2.127368e-001
3.739297e+003, 2.137478e-001
3.741225e+003, 2.143440e-001
3.743154e+003, 2.123101e-001
3.745082e+003, 2.126097e-001
3.747011e+003, 2.156002e-001
3.748939e+003, 2.144822e-001
3.750868e+003, 2.137663e-001
3.752796e+003, 2.127980e-001
3.754725e+003, 2.124744e-001
3.756653e+003, 2.118563e-001
3.758582e+003, 2.142737e-001
3.760510e+003, 2.168541e-001
3.762438e+003, 2.170248e-001
3.764367e+003, 2.159575e-001
3.766295e+003, 2.141094e-001
3.768224e+003, 2.139362e-001
3.770152e+003, 2.180274e-001
3.772081e+003, 2.180538e-001
3.774009e+003, 2.149235e-001
3.775938e+003, 2.169578e-001
3.777866e+003, 2.188303e-001
3.779795e+003, 2.172208e-001
3.781723e+003, 2.159003e-001
3.783652e+003, 2.158215e-001
3.785580e+003, 2.129057e-001
3.787509e+003, 2.161157e-001
3.789437e+003, 2.203994e-001
3.791365e+003, 2.221621e-001
3.793294e+003, 2.194885e-001
3.795222e+003, 2.191066e-001
3.797151e+003, 2.195025e-001
3.799079e+003, 2.204846e-001
3.801008e+003, 2.220897e-001
3.802936e+003, 2.213133e-001
3.804865e+003, 2.190018e-001
3.806793e+003, 2.178224e-001
3.808722e+003, 2.165132e-001
3.810650e+003, 2.146427e-001
3.812579e+003, 2.147629e-001
3.814507e+003, 2.160070e-001
3.816436e+003, 2.180830e-001
3.818364e+003, 2.171649e-001
3.820292e+003, 2.158614e-001
3.822221e+003, 2.156245e-001
3.824149e+003, 2.176028e-001
3.826078e+003, 2.178753e-001
3.828006e+003, 2.182676e-001
3.829935e+003, 2.191876e-001
3.831863e+003, 2.167927e-001
3.833792e+003, 2.142561e-001
3.835720e+003, 2.164436e-001
3.837649e+003, 2.184094e-001
3.839577e+003, 2.178414e-001
3.841506e+003, 2.172911e-001
3.843434e+003, 2.169967e-001
3.845363e+003, 2.157453e-001
3.847291e+003, 2.171938e-001
3.849219e+003, 2.224552e-001
3.851148e+003, 2.185178e-001
3.853076e+003, 2.159639e-001
3.855005e+003, 2.168197e-001
3.856933e+003, 2.189808e-001
3.858862e+003, 2.201252e-001
3.860790e+003, 2.168794e-001
3.862719e+003, 2.159155e-001
3.864647e+003, 2.191168e-001
3.866576e+003, 2.178284e-001
3.868504e+003, 2.152407e-001
3.870433e+003, 2.151473e-001
3.872361e+003, 2.175292e-001
3.874290e+003, 2.202128e-001
3.876218e+003, 2.206450e-001
3.878146e+003, 2.229378e-001
3.880075e+003, 2.228518e-001
3.882003e+003, 2.188078e-001
3.883932e+003, 2.175996e-001
3.885860e+003, 2.181447e-001
3.887789e+003, 2.186775e-001
3.889717e+003, 2.192279e-001
3.891646e+003, 2.173907e-001
3.893574e+003, 2.168852e-001
3.895503e+003, 2.159964e-001
3.897431e+003, 2.135366e-001
3.899360e+003, 2.137490e-001
3.901288e+003, 2.160786e-001
3.903217e+003, 2.187300e-001
3.905145e+003, 2.211594e-001
3.907073e+003, 2.205098e-001
3.909002e+003, 2.198658e-001
3.910930e+003, 2.210135e-001
3.912859e+003, 2.217764e-001
3.914787e+003, 2.187661e-001
3.916716e+003, 2.191115e-001
3.918644e+003, 2.210978e-001
3.920573e+003, 2.199318e-001
3.922501e+003, 2.183557e-001
3.924430e+003, 2.186860e-001
3.926358e+003, 2.202890e-001
3.928287e+003, 2.202835e-001
3.930215e+003, 2.204023e-001
3.932144e+003, 2.223727e-001
3.934072e+003, 2.191178e-001
3.936000e+003, 2.175397e-001
3.937929e+003, 2.209673e-001
3.939857e+003, 2.216885e-001
3.941786e+003, 2.190705e-001
3.943714e+003, 2.189140e-001
3.945643e+003, 2.207728e-001
3.947571e+003, 2.203420e-001
3.949500e+003, 2.192345e-001
3.951428e+003, 2.188683e-001
3.953357e+003, 2.216894e-001
3.955285e+003, 2.200063e-001
3.957214e+003, 2.189244e-001
3.959142e+003, 2.198818e-001
3.961071e+003, 2.194380e-001
3.962999e+003, 2.201612e-001
3.964927e+003, 2.223072e-001
3.966856e+003, 2.196025e-001
3.968784e+003, 2.184649e-001
3.970713e+003, 2.187852e-001
3.972641e+003, 2.156156e-001
3.974570e+003, 2.159593e-001
3.976498e+003, 2.194617e-001
3.978427e+003, 2.224275e-001
3.980355e+003, 2.263062e-001
3.982284e+003, 2.250948e-001
3.984212e+003, 2.223390e-001
3.986141e+003, 2.217253e-001
3.988069e+003, 2.233433e-001
3.989998e+003, 2.219156e-001
3.991926e+003, 2.219952e-001
3.993854e+003, 2.257331e-001
3.995783e+003, 2.245382e-001
3.997711e+003, 2.167158e-001
3.999640e+003, 2.164505e-001
4.001568e+003, 0.000000e+000
##END=



