##NAMES=Langite
##RRUFFID=R060090
##IDEAL CHEMISTRY=Cu^2+^_4_S^6+^O_4_(OH)_6_&#183;2H_2_O
##LOCALITY=Allihies mine, County Cork, Ireland
##OWNER=RRUFF
##SOURCE=University of Arizona Mineral Museum
##DESCRIPTION=Blue skeletal prismatic crystals in snowflake-like groupings, associated with brochantite
##STATUS=The identification of this mineral has been confirmed by X-ray diffraction and chemical analysis
##URL=rruff.info/R060090
##MEASURED CHEMISTRY=Cu_4.00_(S_1.00_O_4_)(OH)_6_Â·2H_2_O ; darker phase: Cu_4_SO_4_(OH)_6_ ; lighter phase
3.991926e+002, 2.524432e-001
4.011211e+002, 2.650102e-001
4.030495e+002, 2.812739e-001
4.049780e+002, 3.062325e-001
4.069065e+002, 3.279419e-001
4.088349e+002, 3.296684e-001
4.107634e+002, 3.332869e-001
4.126919e+002, 3.293337e-001
4.146203e+002, 3.149315e-001
4.165488e+002, 2.993891e-001
4.184773e+002, 2.789029e-001
4.204057e+002, 2.577533e-001
4.223342e+002, 2.426852e-001
4.242627e+002, 2.308269e-001
4.261911e+002, 2.209969e-001
4.281196e+002, 2.108171e-001
4.300481e+002, 2.011143e-001
4.319765e+002, 1.925682e-001
4.339050e+002, 1.856504e-001
4.358335e+002, 1.784729e-001
4.377619e+002, 1.722578e-001
4.396904e+002, 1.657784e-001
4.416189e+002, 1.583686e-001
4.435473e+002, 1.551365e-001
4.454758e+002, 1.557907e-001
4.474043e+002, 1.583769e-001
4.493327e+002, 1.618778e-001
4.512612e+002, 1.657914e-001
4.531897e+002, 1.718770e-001
4.551181e+002, 1.801753e-001
4.570466e+002, 1.892594e-001
4.589751e+002, 1.987459e-001
4.609035e+002, 2.040954e-001
4.628320e+002, 2.037016e-001
4.647605e+002, 2.024470e-001
4.666889e+002, 2.043360e-001
4.686174e+002, 2.071973e-001
4.705459e+002, 2.066916e-001
4.724743e+002, 2.026861e-001
4.744028e+002, 1.995599e-001
4.763313e+002, 2.041661e-001
4.782597e+002, 2.152985e-001
4.801882e+002, 2.256892e-001
4.821167e+002, 2.256334e-001
4.840451e+002, 2.144395e-001
4.859736e+002, 1.980346e-001
4.879021e+002, 1.800315e-001
4.898305e+002, 1.633363e-001
4.917590e+002, 1.495653e-001
4.936875e+002, 1.394502e-001
4.956159e+002, 1.331613e-001
4.975444e+002, 1.321763e-001
4.994729e+002, 1.348617e-001
5.014013e+002, 1.396705e-001
5.033298e+002, 1.453471e-001
5.052583e+002, 1.506314e-001
5.071867e+002, 1.531768e-001
5.091152e+002, 1.493441e-001
5.110437e+002, 1.407256e-001
5.129721e+002, 1.311416e-001
5.149006e+002, 1.204154e-001
5.168290e+002, 1.087275e-001
5.187575e+002, 9.595681e-002
5.206860e+002, 8.365794e-002
5.226144e+002, 7.400149e-002
5.245429e+002, 6.685846e-002
5.264714e+002, 6.107750e-002
5.283998e+002, 5.624713e-002
5.303283e+002, 5.279543e-002
5.322568e+002, 5.009893e-002
5.341852e+002, 4.848138e-002
5.361137e+002, 4.745036e-002
5.380422e+002, 4.706252e-002
5.399706e+002, 4.699825e-002
5.418991e+002, 4.666283e-002
5.438276e+002, 4.703537e-002
5.457560e+002, 4.813982e-002
5.476845e+002, 4.954835e-002
5.496130e+002, 5.038106e-002
5.515414e+002, 5.104071e-002
5.534699e+002, 5.233283e-002
5.553984e+002, 5.291728e-002
5.573268e+002, 5.344878e-002
5.592553e+002, 5.449356e-002
5.611838e+002, 5.556947e-002
5.631122e+002, 5.644987e-002
5.650407e+002, 5.739702e-002
5.669692e+002, 5.918966e-002
5.688976e+002, 6.148326e-002
5.708261e+002, 6.422179e-002
5.727546e+002, 6.751751e-002
5.746830e+002, 7.199414e-002
5.766115e+002, 7.753882e-002
5.785400e+002, 8.521991e-002
5.804684e+002, 9.598704e-002
5.823969e+002, 1.108028e-001
5.843254e+002, 1.314083e-001
5.862538e+002, 1.629929e-001
5.881823e+002, 2.107749e-001
5.901108e+002, 2.797145e-001
5.920392e+002, 3.608373e-001
5.939677e+002, 4.083605e-001
5.958962e+002, 3.839626e-001
5.978246e+002, 3.268028e-001
5.997531e+002, 2.841959e-001
6.016816e+002, 2.673472e-001
6.036100e+002, 2.565075e-001
6.055385e+002, 2.255914e-001
6.074670e+002, 1.799575e-001
6.093954e+002, 1.371055e-001
6.113239e+002, 1.050970e-001
6.132524e+002, 8.571690e-002
6.151808e+002, 7.680835e-002
6.171093e+002, 7.526168e-002
6.190378e+002, 7.972364e-002
6.209662e+002, 9.011535e-002
6.228947e+002, 1.053625e-001
6.248232e+002, 1.195363e-001
6.267516e+002, 1.243206e-001
6.286801e+002, 1.205397e-001
6.306086e+002, 1.148972e-001
6.325370e+002, 1.106842e-001
6.344655e+002, 1.082879e-001
6.363940e+002, 1.072252e-001
6.383224e+002, 1.066867e-001
6.402509e+002, 1.061872e-001
6.421794e+002, 1.049910e-001
6.441078e+002, 1.031005e-001
6.460363e+002, 1.004388e-001
6.479648e+002, 9.623615e-002
6.498932e+002, 9.082976e-002
6.518217e+002, 8.497608e-002
6.537502e+002, 7.925100e-002
6.556786e+002, 7.406054e-002
6.576071e+002, 6.961635e-002
6.595356e+002, 6.628760e-002
6.614641e+002, 6.374434e-002
6.633925e+002, 6.166789e-002
6.653210e+002, 6.013281e-002
6.672495e+002, 5.896787e-002
6.691779e+002, 5.804995e-002
6.711064e+002, 5.752682e-002
6.730349e+002, 5.722380e-002
6.749633e+002, 5.700085e-002
6.768918e+002, 5.695492e-002
6.788203e+002, 5.723807e-002
6.807487e+002, 5.774868e-002
6.826772e+002, 5.833893e-002
6.846057e+002, 5.914346e-002
6.865341e+002, 6.014368e-002
6.884626e+002, 6.110772e-002
6.903911e+002, 6.236672e-002
6.923195e+002, 6.410963e-002
6.942480e+002, 6.565079e-002
6.961765e+002, 6.724296e-002
6.981049e+002, 6.902315e-002
7.000334e+002, 7.138603e-002
7.019619e+002, 7.389452e-002
7.038903e+002, 7.710912e-002
7.058188e+002, 8.065055e-002
7.077473e+002, 8.474302e-002
7.096757e+002, 8.993846e-002
7.116042e+002, 9.634416e-002
7.135327e+002, 1.037651e-001
7.154611e+002, 1.125220e-001
7.173896e+002, 1.232040e-001
7.193181e+002, 1.360899e-001
7.212465e+002, 1.509797e-001
7.231750e+002, 1.675227e-001
7.251035e+002, 1.842254e-001
7.270319e+002, 1.980947e-001
7.289604e+002, 2.068446e-001
7.308889e+002, 2.081541e-001
7.328173e+002, 2.024108e-001
7.347458e+002, 1.915572e-001
7.366743e+002, 1.778570e-001
7.386027e+002, 1.631878e-001
7.405312e+002, 1.497454e-001
7.424597e+002, 1.381579e-001
7.443881e+002, 1.287006e-001
7.463166e+002, 1.219344e-001
7.482451e+002, 1.176283e-001
7.501735e+002, 1.152729e-001
7.521020e+002, 1.148365e-001
7.540305e+002, 1.159962e-001
7.559589e+002, 1.186955e-001
7.578874e+002, 1.227349e-001
7.598159e+002, 1.276077e-001
7.617443e+002, 1.330608e-001
7.636728e+002, 1.393705e-001
7.656013e+002, 1.462553e-001
7.675297e+002, 1.532807e-001
7.694582e+002, 1.599265e-001
7.713867e+002, 1.660597e-001
7.733151e+002, 1.707381e-001
7.752436e+002, 1.738975e-001
7.771721e+002, 1.751764e-001
7.791005e+002, 1.740709e-001
7.810290e+002, 1.703565e-001
7.829575e+002, 1.645840e-001
7.848859e+002, 1.576174e-001
7.868144e+002, 1.504602e-001
7.887429e+002, 1.432405e-001
7.906713e+002, 1.366933e-001
7.925998e+002, 1.308325e-001
7.945283e+002, 1.257475e-001
7.964567e+002, 1.218939e-001
7.983852e+002, 1.190946e-001
8.003137e+002, 1.171561e-001
8.022421e+002, 1.162218e-001
8.041706e+002, 1.163359e-001
8.060991e+002, 1.173886e-001
8.080275e+002, 1.195035e-001
8.099560e+002, 1.227267e-001
8.118845e+002, 1.269255e-001
8.138129e+002, 1.321011e-001
8.157414e+002, 1.382148e-001
8.176699e+002, 1.454410e-001
8.195983e+002, 1.540578e-001
8.215268e+002, 1.640919e-001
8.234553e+002, 1.750500e-001
8.253837e+002, 1.871827e-001
8.273122e+002, 2.006645e-001
8.292407e+002, 2.146283e-001
8.311691e+002, 2.289601e-001
8.330976e+002, 2.438888e-001
8.350261e+002, 2.601915e-001
8.369545e+002, 2.778724e-001
8.388830e+002, 2.959786e-001
8.408115e+002, 3.123071e-001
8.427399e+002, 3.242705e-001
8.446684e+002, 3.291402e-001
8.465969e+002, 3.261551e-001
8.485253e+002, 3.178245e-001
8.504538e+002, 3.071655e-001
8.523823e+002, 2.972737e-001
8.543107e+002, 2.909732e-001
8.562392e+002, 2.890886e-001
8.581677e+002, 2.916726e-001
8.600961e+002, 2.970628e-001
8.620246e+002, 3.033668e-001
8.639531e+002, 3.086581e-001
8.658815e+002, 3.118569e-001
8.678100e+002, 3.120330e-001
8.697385e+002, 3.080500e-001
8.716669e+002, 3.004175e-001
8.735954e+002, 2.898735e-001
8.755239e+002, 2.773453e-001
8.774523e+002, 2.639887e-001
8.793808e+002, 2.506355e-001
8.813093e+002, 2.384048e-001
8.832377e+002, 2.276683e-001
8.851662e+002, 2.184645e-001
8.870947e+002, 2.106964e-001
8.890231e+002, 2.036762e-001
8.909516e+002, 1.968463e-001
8.928801e+002, 1.898328e-001
8.948085e+002, 1.826272e-001
8.967370e+002, 1.746473e-001
8.986655e+002, 1.662862e-001
9.005939e+002, 1.581225e-001
9.025224e+002, 1.500244e-001
9.044509e+002, 1.423117e-001
9.063793e+002, 1.353164e-001
9.083078e+002, 1.292031e-001
9.102363e+002, 1.239562e-001
9.121647e+002, 1.196602e-001
9.140932e+002, 1.164302e-001
9.160217e+002, 1.141434e-001
9.179501e+002, 1.127852e-001
9.198786e+002, 1.123548e-001
9.218071e+002, 1.128871e-001
9.237355e+002, 1.141728e-001
9.256640e+002, 1.161012e-001
9.275925e+002, 1.186786e-001
9.295209e+002, 1.218757e-001
9.314494e+002, 1.255266e-001
9.333779e+002, 1.296622e-001
9.353063e+002, 1.341530e-001
9.372348e+002, 1.386118e-001
9.391633e+002, 1.423735e-001
9.410917e+002, 1.444384e-001
9.430202e+002, 1.434358e-001
9.449487e+002, 1.390799e-001
9.468771e+002, 1.319279e-001
9.488056e+002, 1.226494e-001
9.507341e+002, 1.127475e-001
9.526625e+002, 1.031879e-001
9.545910e+002, 9.452708e-002
9.565195e+002, 8.719076e-002
9.584479e+002, 8.127856e-002
9.603764e+002, 7.700966e-002
9.623049e+002, 7.403527e-002
9.642333e+002, 7.268547e-002
9.661618e+002, 7.305242e-002
9.680903e+002, 7.407078e-002
9.700187e+002, 7.405803e-002
9.719472e+002, 7.352863e-002
9.738757e+002, 7.516623e-002
9.758041e+002, 8.115997e-002
9.777326e+002, 9.214670e-002
9.796611e+002, 1.064860e-001
9.815895e+002, 1.182859e-001
9.835180e+002, 1.227442e-001
9.854465e+002, 1.213284e-001
9.873749e+002, 1.179231e-001
9.893034e+002, 1.142319e-001
9.912319e+002, 1.102203e-001
9.931603e+002, 1.055546e-001
9.950888e+002, 1.002246e-001
9.970173e+002, 9.437567e-002
9.989457e+002, 8.851389e-002
1.000874e+003, 8.310983e-002
1.002803e+003, 7.839230e-002
1.004731e+003, 7.439218e-002
1.006660e+003, 7.118838e-002
1.008588e+003, 6.878869e-002
1.010517e+003, 6.697907e-002
1.012445e+003, 6.568269e-002
1.014373e+003, 6.492892e-002
1.016302e+003, 6.446151e-002
1.018230e+003, 6.420597e-002
1.020159e+003, 6.408247e-002
1.022087e+003, 6.400128e-002
1.024016e+003, 6.411155e-002
1.025944e+003, 6.427474e-002
1.027873e+003, 6.448012e-002
1.029801e+003, 6.498784e-002
1.031730e+003, 6.563751e-002
1.033658e+003, 6.648313e-002
1.035587e+003, 6.750370e-002
1.037515e+003, 6.887268e-002
1.039443e+003, 7.058054e-002
1.041372e+003, 7.243387e-002
1.043300e+003, 7.451263e-002
1.045229e+003, 7.709019e-002
1.047157e+003, 8.014864e-002
1.049086e+003, 8.372247e-002
1.051014e+003, 8.771683e-002
1.052943e+003, 9.244472e-002
1.054871e+003, 9.808534e-002
1.056800e+003, 1.045108e-001
1.058728e+003, 1.118999e-001
1.060657e+003, 1.207334e-001
1.062585e+003, 1.310683e-001
1.064514e+003, 1.430782e-001
1.066442e+003, 1.571692e-001
1.068370e+003, 1.734275e-001
1.070299e+003, 1.914212e-001
1.072227e+003, 2.111354e-001
1.074156e+003, 2.332895e-001
1.076084e+003, 2.589551e-001
1.078013e+003, 2.886932e-001
1.079941e+003, 3.216256e-001
1.081870e+003, 3.530844e-001
1.083798e+003, 3.741448e-001
1.085727e+003, 3.770905e-001
1.087655e+003, 3.617510e-001
1.089584e+003, 3.355662e-001
1.091512e+003, 3.060611e-001
1.093441e+003, 2.778113e-001
1.095369e+003, 2.538181e-001
1.097297e+003, 2.360500e-001
1.099226e+003, 2.259193e-001
1.101154e+003, 2.233978e-001
1.103083e+003, 2.275171e-001
1.105011e+003, 2.357850e-001
1.106940e+003, 2.456086e-001
1.108868e+003, 2.554316e-001
1.110797e+003, 2.639853e-001
1.112725e+003, 2.698494e-001
1.114654e+003, 2.718233e-001
1.116582e+003, 2.697793e-001
1.118511e+003, 2.641201e-001
1.120439e+003, 2.558187e-001
1.122368e+003, 2.464549e-001
1.124296e+003, 2.375760e-001
1.126224e+003, 2.291824e-001
1.128153e+003, 2.179922e-001
1.130081e+003, 2.008030e-001
1.132010e+003, 1.794945e-001
1.133938e+003, 1.584232e-001
1.135867e+003, 1.414492e-001
1.137795e+003, 1.292198e-001
1.139724e+003, 1.181806e-001
1.141652e+003, 1.043506e-001
1.143581e+003, 8.744074e-002
1.145509e+003, 7.058509e-002
1.147438e+003, 5.662617e-002
1.149366e+003, 4.641361e-002
1.151295e+003, 3.913478e-002
1.153223e+003, 3.370632e-002
1.155151e+003, 2.946116e-002
1.157080e+003, 2.618618e-002
1.159008e+003, 2.353236e-002
1.160937e+003, 2.131983e-002
1.162865e+003, 1.943534e-002
1.164794e+003, 1.785609e-002
1.166722e+003, 1.649922e-002
1.168651e+003, 1.548980e-002
1.170579e+003, 1.464011e-002
1.172508e+003, 1.392916e-002
1.174436e+003, 1.324089e-002
1.176365e+003, 1.260156e-002
1.178293e+003, 1.204776e-002
1.180222e+003, 1.172244e-002
1.182150e+003, 1.140260e-002
1.184078e+003, 1.103492e-002
1.186007e+003, 1.070925e-002
1.187935e+003, 1.052029e-002
1.189864e+003, 1.038717e-002
1.191792e+003, 1.034727e-002
1.193721e+003, 1.019269e-002
1.195649e+003, 1.002268e-002
1.197578e+003, 1.001628e-002
1.199506e+003, 1.003211e-002
1.201435e+003, 9.872013e-003
1.203363e+003, 9.745400e-003
1.205292e+003, 9.784472e-003
1.207220e+003, 9.780507e-003
1.209149e+003, 9.670654e-003
1.211077e+003, 9.627619e-003
1.213005e+003, 9.535989e-003
1.214934e+003, 9.546131e-003
1.216862e+003, 9.533796e-003
1.218791e+003, 9.515010e-003
1.220719e+003, 9.418428e-003
1.222648e+003, 9.330912e-003
1.224576e+003, 9.185140e-003
1.226505e+003, 9.022173e-003
1.228433e+003, 8.849396e-003
1.230362e+003, 8.788008e-003
1.232290e+003, 8.784298e-003
1.234219e+003, 8.762320e-003
1.236147e+003, 8.684038e-003
1.238076e+003, 8.631468e-003
1.240004e+003, 8.550267e-003
1.241932e+003, 8.525130e-003
1.243861e+003, 8.490338e-003
1.245789e+003, 8.396031e-003
1.247718e+003, 8.367456e-003
1.249646e+003, 8.445423e-003
1.251575e+003, 8.490670e-003
1.253503e+003, 8.564831e-003
1.255432e+003, 8.434863e-003
1.257360e+003, 8.403392e-003
1.259289e+003, 8.443427e-003
1.261217e+003, 8.465263e-003
1.263146e+003, 8.497025e-003
1.265074e+003, 8.570868e-003
1.267003e+003, 8.511493e-003
1.268931e+003, 8.605233e-003
1.270859e+003, 8.826748e-003
1.272788e+003, 9.142569e-003
1.274716e+003, 9.335070e-003
1.276645e+003, 9.520551e-003
1.278573e+003, 9.649354e-003
1.280502e+003, 9.524008e-003
1.282430e+003, 9.381607e-003
1.284359e+003, 9.264910e-003
1.286287e+003, 9.134852e-003
1.288216e+003, 9.062475e-003
1.290144e+003, 8.985257e-003
1.292073e+003, 8.999250e-003
1.294001e+003, 9.095553e-003
1.295930e+003, 9.116567e-003
1.297858e+003, 9.015168e-003
1.299786e+003, 9.002621e-003
1.301715e+003, 9.090703e-003
1.303643e+003, 9.152374e-003
1.305572e+003, 9.118085e-003
1.307500e+003, 9.149389e-003
1.309429e+003, 9.203183e-003
1.311357e+003, 9.284000e-003
1.313286e+003, 9.413149e-003
1.315214e+003, 9.561582e-003
1.317143e+003, 9.682167e-003
1.319071e+003, 9.787609e-003
1.321000e+003, 9.808742e-003
1.322928e+003, 9.915373e-003
1.324857e+003, 1.007642e-002
1.326785e+003, 1.025051e-002
1.328714e+003, 1.035582e-002
1.330642e+003, 1.046751e-002
1.332570e+003, 1.063003e-002
1.334499e+003, 1.068389e-002
1.336427e+003, 1.066763e-002
1.338356e+003, 1.070164e-002
1.340284e+003, 1.073481e-002
1.342213e+003, 1.076182e-002
1.344141e+003, 1.080856e-002
1.346070e+003, 1.101438e-002
1.347998e+003, 1.120096e-002
1.349927e+003, 1.139314e-002
1.351855e+003, 1.151708e-002
1.353784e+003, 1.176933e-002
1.355712e+003, 1.192108e-002
1.357641e+003, 1.210567e-002
1.359569e+003, 1.244189e-002
1.361497e+003, 1.292025e-002
1.363426e+003, 1.331873e-002
1.365354e+003, 1.364200e-002
1.367283e+003, 1.370746e-002
1.369211e+003, 1.347614e-002
1.371140e+003, 1.312790e-002
1.373068e+003, 1.273458e-002
1.374997e+003, 1.240154e-002
1.376925e+003, 1.220130e-002
1.378854e+003, 1.198845e-002
1.380782e+003, 1.181554e-002
1.382711e+003, 1.167369e-002
1.384639e+003, 1.153720e-002
1.386568e+003, 1.139344e-002
1.388496e+003, 1.138076e-002
1.390424e+003, 1.136326e-002
1.392353e+003, 1.136800e-002
1.394281e+003, 1.137695e-002
1.396210e+003, 1.138127e-002
1.398138e+003, 1.148344e-002
1.400067e+003, 1.165897e-002
1.401995e+003, 1.171844e-002
1.403924e+003, 1.179585e-002
1.405852e+003, 1.188793e-002
1.407781e+003, 1.216072e-002
1.409709e+003, 1.238213e-002
1.411638e+003, 1.245551e-002
1.413566e+003, 1.240866e-002
1.415495e+003, 1.249881e-002
1.417423e+003, 1.264298e-002
1.419351e+003, 1.289249e-002
1.421280e+003, 1.334692e-002
1.423208e+003, 1.377178e-002
1.425137e+003, 1.392167e-002
1.427065e+003, 1.384727e-002
1.428994e+003, 1.355048e-002
1.430922e+003, 1.322475e-002
1.432851e+003, 1.310520e-002
1.434779e+003, 1.295444e-002
1.436708e+003, 1.278169e-002
1.438636e+003, 1.294018e-002
1.440565e+003, 1.287542e-002
1.442493e+003, 1.275070e-002
1.444422e+003, 1.270048e-002
1.446350e+003, 1.270359e-002
1.448278e+003, 1.262025e-002
1.450207e+003, 1.266361e-002
1.452135e+003, 1.271275e-002
1.454064e+003, 1.279275e-002
1.455992e+003, 1.274262e-002
1.457921e+003, 1.276151e-002
1.459849e+003, 1.291215e-002
1.461778e+003, 1.301828e-002
1.463706e+003, 1.305970e-002
1.465635e+003, 1.315374e-002
1.467563e+003, 1.311327e-002
1.469492e+003, 1.291216e-002
1.471420e+003, 1.265022e-002
1.473349e+003, 1.252256e-002
1.475277e+003, 1.257425e-002
1.477205e+003, 1.267149e-002
1.479134e+003, 1.269513e-002
1.481062e+003, 1.274196e-002
1.482991e+003, 1.287279e-002
1.484919e+003, 1.296491e-002
1.486848e+003, 1.286395e-002
1.488776e+003, 1.285618e-002
1.490705e+003, 1.297365e-002
1.492633e+003, 1.307390e-002
1.494562e+003, 1.296954e-002
1.496490e+003, 1.291830e-002
1.498419e+003, 1.307225e-002
1.500347e+003, 1.325597e-002
1.502276e+003, 1.325584e-002
1.504204e+003, 1.308328e-002
1.506132e+003, 1.293910e-002
1.508061e+003, 1.316485e-002
1.509989e+003, 1.340506e-002
1.511918e+003, 1.343364e-002
1.513846e+003, 1.340404e-002
1.515775e+003, 1.337741e-002
1.517703e+003, 1.336754e-002
1.519632e+003, 1.330208e-002
1.521560e+003, 1.322405e-002
1.523489e+003, 1.342908e-002
1.525417e+003, 1.366899e-002
1.527346e+003, 1.388908e-002
1.529274e+003, 1.409318e-002
1.531203e+003, 1.426779e-002
1.533131e+003, 1.428945e-002
1.535059e+003, 1.453356e-002
1.536988e+003, 1.471158e-002
1.538916e+003, 1.474496e-002
1.540845e+003, 1.504086e-002
1.542773e+003, 1.544979e-002
1.544702e+003, 1.573849e-002
1.546630e+003, 1.596671e-002
1.548559e+003, 1.588810e-002
1.550487e+003, 1.587067e-002
1.552416e+003, 1.584261e-002
1.554344e+003, 1.575881e-002
1.556273e+003, 1.562607e-002
1.558201e+003, 1.543293e-002
1.560130e+003, 1.545315e-002
1.562058e+003, 1.564983e-002
1.563986e+003, 1.575688e-002
1.565915e+003, 1.565208e-002
1.567843e+003, 1.565777e-002
1.569772e+003, 1.575327e-002
1.571700e+003, 1.587188e-002
1.573629e+003, 1.589146e-002
1.575557e+003, 1.571992e-002
1.577486e+003, 1.592832e-002
1.579414e+003, 1.612341e-002
1.581343e+003, 1.616575e-002
1.583271e+003, 1.628018e-002
1.585200e+003, 1.639744e-002
1.587128e+003, 1.646254e-002
1.589057e+003, 1.643041e-002
1.590985e+003, 1.646533e-002
1.592913e+003, 1.657617e-002
1.594842e+003, 1.651920e-002
1.596770e+003, 1.645598e-002
1.598699e+003, 1.639241e-002
1.600627e+003, 1.634249e-002
1.602556e+003, 1.635442e-002
1.604484e+003, 1.632966e-002
1.606413e+003, 1.631706e-002
1.608341e+003, 1.627749e-002
1.610270e+003, 1.625739e-002
1.612198e+003, 1.643414e-002
1.614127e+003, 1.653185e-002
1.616055e+003, 1.631877e-002
1.617984e+003, 1.643408e-002
1.619912e+003, 1.676892e-002
1.621840e+003, 1.679529e-002
1.623769e+003, 1.680361e-002
1.625697e+003, 1.685714e-002
1.627626e+003, 1.695183e-002
1.629554e+003, 1.709849e-002
1.631483e+003, 1.728081e-002
1.633411e+003, 1.730815e-002
1.635340e+003, 1.724017e-002
1.637268e+003, 1.736020e-002
1.639197e+003, 1.760706e-002
1.641125e+003, 1.776648e-002
1.643054e+003, 1.784872e-002
1.644982e+003, 1.778476e-002
1.646911e+003, 1.783653e-002
1.648839e+003, 1.804993e-002
1.650767e+003, 1.807926e-002
1.652696e+003, 1.795263e-002
1.654624e+003, 1.844604e-002
1.656553e+003, 1.878542e-002
1.658481e+003, 1.905888e-002
1.660410e+003, 1.940953e-002
1.662338e+003, 1.960737e-002
1.664267e+003, 1.979505e-002
1.666195e+003, 2.018039e-002
1.668124e+003, 2.046975e-002
1.670052e+003, 2.064499e-002
1.671981e+003, 2.076657e-002
1.673909e+003, 2.093194e-002
1.675838e+003, 2.090998e-002
1.677766e+003, 2.073982e-002
1.679694e+003, 2.029466e-002
1.681623e+003, 1.986090e-002
1.683551e+003, 1.914994e-002
1.685480e+003, 1.874501e-002
1.687408e+003, 1.871523e-002
1.689337e+003, 1.874963e-002
1.691265e+003, 1.852795e-002
1.693194e+003, 1.827059e-002
1.695122e+003, 1.786830e-002
1.697051e+003, 1.794000e-002
1.698979e+003, 1.797306e-002
1.700908e+003, 1.791700e-002
1.702836e+003, 1.817116e-002
1.704765e+003, 1.842204e-002
1.706693e+003, 1.858538e-002
1.708621e+003, 1.857942e-002
1.710550e+003, 1.861625e-002
1.712478e+003, 1.872822e-002
1.714407e+003, 1.861376e-002
1.716335e+003, 1.833411e-002
1.718264e+003, 1.849318e-002
1.720192e+003, 1.885900e-002
1.722121e+003, 1.898956e-002
1.724049e+003, 1.922102e-002
1.725978e+003, 1.941503e-002
1.727906e+003, 1.956898e-002
1.729835e+003, 1.959616e-002
1.731763e+003, 1.936455e-002
1.733692e+003, 1.903808e-002
1.735620e+003, 1.890136e-002
1.737548e+003, 1.856717e-002
1.739477e+003, 1.827996e-002
1.741405e+003, 1.805618e-002
1.743334e+003, 1.785702e-002
1.745262e+003, 1.770343e-002
1.747191e+003, 1.765875e-002
1.749119e+003, 1.750598e-002
1.751048e+003, 1.739075e-002
1.752976e+003, 1.733473e-002
1.754905e+003, 1.737622e-002
1.756833e+003, 1.739721e-002
1.758762e+003, 1.743133e-002
1.760690e+003, 1.742501e-002
1.762619e+003, 1.746863e-002
1.764547e+003, 1.755276e-002
1.766475e+003, 1.761494e-002
1.768404e+003, 1.759100e-002
1.770332e+003, 1.752154e-002
1.772261e+003, 1.753750e-002
1.774189e+003, 1.776144e-002
1.776118e+003, 1.782409e-002
1.778046e+003, 1.796047e-002
1.779975e+003, 1.792865e-002
1.781903e+003, 1.788039e-002
1.783832e+003, 1.786418e-002
1.785760e+003, 1.797256e-002
1.787689e+003, 1.816668e-002
1.789617e+003, 1.816849e-002
1.791546e+003, 1.805331e-002
1.793474e+003, 1.824554e-002
1.795402e+003, 1.822667e-002
1.797331e+003, 1.821370e-002
1.799259e+003, 1.822244e-002
1.801188e+003, 1.833555e-002
1.803116e+003, 1.851930e-002
1.805045e+003, 1.854119e-002
1.806973e+003, 1.850521e-002
1.808902e+003, 1.852551e-002
1.810830e+003, 1.845847e-002
1.812759e+003, 1.851828e-002
1.814687e+003, 1.827848e-002
1.816616e+003, 1.817138e-002
1.818544e+003, 1.851581e-002
1.820473e+003, 1.876544e-002
1.822401e+003, 1.856702e-002
1.824329e+003, 1.846211e-002
1.826258e+003, 1.852239e-002
1.828186e+003, 1.859247e-002
1.830115e+003, 1.870688e-002
1.832043e+003, 1.869273e-002
1.833972e+003, 1.845283e-002
1.835900e+003, 1.853699e-002
1.837829e+003, 1.852337e-002
1.839757e+003, 1.845735e-002
1.841686e+003, 1.827070e-002
1.843614e+003, 1.818791e-002
1.845543e+003, 1.837354e-002
1.847471e+003, 1.843402e-002
1.849400e+003, 1.856583e-002
1.851328e+003, 1.862330e-002
1.853256e+003, 1.861958e-002
1.855185e+003, 1.872866e-002
1.857113e+003, 1.845388e-002
1.859042e+003, 1.840405e-002
1.860970e+003, 1.835786e-002
1.862899e+003, 1.807986e-002
1.864827e+003, 1.780224e-002
1.866756e+003, 1.783425e-002
1.868684e+003, 1.790673e-002
1.870613e+003, 1.799847e-002
1.872541e+003, 1.769574e-002
1.874470e+003, 1.727523e-002
1.876398e+003, 1.739661e-002
1.878327e+003, 1.771279e-002
1.880255e+003, 1.753438e-002
1.882183e+003, 1.728998e-002
1.884112e+003, 1.713911e-002
1.886040e+003, 1.731564e-002
1.887969e+003, 1.738540e-002
1.889897e+003, 1.753559e-002
1.891826e+003, 1.776781e-002
1.893754e+003, 1.788161e-002
1.895683e+003, 1.756973e-002
1.897611e+003, 1.762419e-002
1.899540e+003, 1.774546e-002
1.901468e+003, 1.772908e-002
1.903397e+003, 1.784143e-002
1.905325e+003, 1.828989e-002
1.907254e+003, 1.802243e-002
1.909182e+003, 1.770075e-002
1.911110e+003, 1.791235e-002
1.913039e+003, 1.858485e-002
1.914967e+003, 1.895560e-002
1.916896e+003, 1.856028e-002
1.918824e+003, 1.803986e-002
1.920753e+003, 1.802948e-002
1.922681e+003, 1.834692e-002
1.924610e+003, 1.844883e-002
1.926538e+003, 1.820624e-002
1.928467e+003, 1.855440e-002
1.930395e+003, 1.869845e-002
1.932324e+003, 1.903361e-002
1.934252e+003, 1.893008e-002
1.936181e+003, 1.895573e-002
1.938109e+003, 1.919165e-002
1.940037e+003, 1.868634e-002
1.941966e+003, 1.824687e-002
1.943894e+003, 1.879025e-002
1.945823e+003, 1.899503e-002
1.947751e+003, 1.903621e-002
1.949680e+003, 1.889273e-002
1.951608e+003, 1.884624e-002
1.953537e+003, 1.910622e-002
1.955465e+003, 1.883624e-002
1.957394e+003, 1.892540e-002
1.959322e+003, 1.962211e-002
1.961251e+003, 1.992466e-002
1.963179e+003, 1.925526e-002
1.965108e+003, 1.870016e-002
1.967036e+003, 1.867259e-002
1.968964e+003, 1.918587e-002
1.970893e+003, 1.976625e-002
1.972821e+003, 1.985007e-002
1.974750e+003, 2.078244e-002
1.976678e+003, 2.143768e-002
1.978607e+003, 2.178107e-002
1.980535e+003, 2.178132e-002
1.982464e+003, 2.152249e-002
1.984392e+003, 2.047314e-002
1.986321e+003, 1.986166e-002
1.988249e+003, 1.955481e-002
1.990178e+003, 2.024351e-002
1.992106e+003, 2.084229e-002
1.994035e+003, 2.046747e-002
1.995963e+003, 2.042612e-002
1.997891e+003, 2.076594e-002
1.999820e+003, 2.047919e-002
2.001748e+003, 1.986823e-002
2.003677e+003, 1.882771e-002
2.005605e+003, 1.903477e-002
2.007534e+003, 2.069779e-002
2.009462e+003, 2.194088e-002
2.011391e+003, 2.199883e-002
2.013319e+003, 2.122162e-002
2.015248e+003, 2.106540e-002
2.017176e+003, 2.159245e-002
2.019105e+003, 2.136841e-002
2.021033e+003, 2.099498e-002
2.022962e+003, 2.133076e-002
2.024890e+003, 2.163620e-002
2.026818e+003, 2.118298e-002
2.028747e+003, 2.214686e-002
2.030675e+003, 2.165018e-002
2.032604e+003, 2.157857e-002
2.034532e+003, 2.226355e-002
2.036461e+003, 2.226401e-002
2.038389e+003, 2.220445e-002
2.040318e+003, 2.213728e-002
2.042246e+003, 2.188870e-002
2.044175e+003, 2.144788e-002
2.046103e+003, 2.088207e-002
2.048031e+003, 2.108925e-002
2.049960e+003, 2.218730e-002
2.051888e+003, 2.195145e-002
2.053817e+003, 2.163373e-002
2.055745e+003, 2.185485e-002
2.057674e+003, 2.175352e-002
2.059602e+003, 2.063388e-002
2.061531e+003, 1.998037e-002
2.063459e+003, 1.996264e-002
2.065388e+003, 2.006341e-002
2.067316e+003, 2.076798e-002
2.069245e+003, 2.110137e-002
2.071173e+003, 2.151791e-002
2.073102e+003, 2.095166e-002
2.075030e+003, 2.106229e-002
2.076958e+003, 2.058220e-002
2.078887e+003, 1.998504e-002
2.080815e+003, 2.044179e-002
2.082744e+003, 2.034811e-002
2.084672e+003, 2.025540e-002
2.086601e+003, 2.030100e-002
2.088529e+003, 1.965970e-002
2.090458e+003, 1.927613e-002
2.092386e+003, 1.933421e-002
2.094315e+003, 1.930392e-002
2.096243e+003, 1.953302e-002
2.098172e+003, 1.972917e-002
2.100100e+003, 1.950088e-002
2.102029e+003, 1.950611e-002
2.103957e+003, 1.964623e-002
2.105885e+003, 2.007015e-002
2.107814e+003, 1.985264e-002
2.109742e+003, 1.920359e-002
2.111671e+003, 1.902290e-002
2.113599e+003, 1.893318e-002
2.115528e+003, 1.879458e-002
2.117456e+003, 1.803266e-002
2.119385e+003, 1.719029e-002
2.121313e+003, 1.702447e-002
2.123242e+003, 1.747491e-002
2.125170e+003, 1.738199e-002
2.127099e+003, 1.687078e-002
2.129027e+003, 1.640629e-002
2.130956e+003, 1.575613e-002
2.132884e+003, 1.511756e-002
2.134813e+003, 1.539874e-002
2.136741e+003, 1.591287e-002
2.138669e+003, 1.595503e-002
2.140598e+003, 1.548502e-002
2.142526e+003, 1.472546e-002
2.144455e+003, 1.486024e-002
2.146383e+003, 1.544939e-002
2.148312e+003, 1.613324e-002
2.150240e+003, 1.574247e-002
2.152169e+003, 1.416758e-002
2.154097e+003, 1.306979e-002
2.156026e+003, 1.324509e-002
2.157954e+003, 1.491548e-002
2.159883e+003, 1.831884e-002
2.161811e+003, 1.784727e-002
2.163740e+003, 1.668784e-002
2.165668e+003, 1.671556e-002
2.167596e+003, 1.677114e-002
2.169525e+003, 1.597656e-002
2.171453e+003, 1.415515e-002
2.173382e+003, 1.410173e-002
2.175310e+003, 1.536156e-002
2.177239e+003, 1.537254e-002
2.179167e+003, 1.446797e-002
2.181096e+003, 1.454745e-002
2.183024e+003, 1.561048e-002
2.184953e+003, 1.628653e-002
2.186881e+003, 1.701503e-002
2.188810e+003, 1.749507e-002
2.190738e+003, 1.769360e-002
2.192667e+003, 1.694277e-002
2.194595e+003, 1.746527e-002
2.196523e+003, 1.827087e-002
2.198452e+003, 1.785576e-002
2.200380e+003, 1.792367e-002
2.202309e+003, 1.781157e-002
2.204237e+003, 1.693952e-002
2.206166e+003, 1.671395e-002
2.208094e+003, 1.677206e-002
2.210023e+003, 1.692112e-002
2.211951e+003, 1.689076e-002
2.213880e+003, 1.680040e-002
2.215808e+003, 1.679828e-002
2.217737e+003, 1.712320e-002
2.219665e+003, 1.703301e-002
2.221594e+003, 1.617387e-002
2.223522e+003, 1.542781e-002
2.225450e+003, 1.603030e-002
2.227379e+003, 1.602390e-002
2.229307e+003, 1.601610e-002
2.231236e+003, 1.616311e-002
2.233164e+003, 1.598326e-002
2.235093e+003, 1.611477e-002
2.237021e+003, 1.614899e-002
2.238950e+003, 1.637593e-002
2.240878e+003, 1.655126e-002
2.242807e+003, 1.604520e-002
2.244735e+003, 1.584516e-002
2.246664e+003, 1.565018e-002
2.248592e+003, 1.591393e-002
2.250521e+003, 1.608840e-002
2.252449e+003, 1.575883e-002
2.254377e+003, 1.572696e-002
2.256306e+003, 1.579152e-002
2.258234e+003, 1.628824e-002
2.260163e+003, 1.681961e-002
2.262091e+003, 1.676177e-002
2.264020e+003, 1.649825e-002
2.265948e+003, 1.647369e-002
2.267877e+003, 1.665710e-002
2.269805e+003, 1.733665e-002
2.271734e+003, 1.792533e-002
2.273662e+003, 1.798249e-002
2.275591e+003, 1.778646e-002
2.277519e+003, 1.778611e-002
2.279448e+003, 1.842787e-002
2.281376e+003, 1.899924e-002
2.283304e+003, 1.882956e-002
2.285233e+003, 1.858726e-002
2.287161e+003, 1.882591e-002
2.289090e+003, 1.877127e-002
2.291018e+003, 1.844524e-002
2.292947e+003, 1.824952e-002
2.294875e+003, 1.835331e-002
2.296804e+003, 1.830800e-002
2.298732e+003, 1.803518e-002
2.300661e+003, 1.815514e-002
2.302589e+003, 1.844281e-002
2.304518e+003, 1.858380e-002
2.306446e+003, 1.861287e-002
2.308375e+003, 1.861234e-002
2.310303e+003, 1.865866e-002
2.312231e+003, 1.881020e-002
2.314160e+003, 1.875376e-002
2.316088e+003, 1.856687e-002
2.318017e+003, 1.870100e-002
2.319945e+003, 1.901367e-002
2.321874e+003, 1.925774e-002
2.323802e+003, 1.920021e-002
2.325731e+003, 1.852999e-002
2.327659e+003, 1.793840e-002
2.329588e+003, 1.757877e-002
2.331516e+003, 1.738056e-002
2.333445e+003, 1.769884e-002
2.335373e+003, 1.764979e-002
2.337302e+003, 1.740487e-002
2.339230e+003, 1.754315e-002
2.341158e+003, 1.790305e-002
2.343087e+003, 1.806195e-002
2.345015e+003, 1.797207e-002
2.346944e+003, 1.799206e-002
2.348872e+003, 1.795461e-002
2.350801e+003, 1.768638e-002
2.352729e+003, 1.758574e-002
2.354658e+003, 1.755170e-002
2.356586e+003, 1.761810e-002
2.358515e+003, 1.768181e-002
2.360443e+003, 1.761992e-002
2.362372e+003, 1.741417e-002
2.364300e+003, 1.748886e-002
2.366229e+003, 1.754539e-002
2.368157e+003, 1.770967e-002
2.370085e+003, 1.795362e-002
2.372014e+003, 1.814553e-002
2.373942e+003, 1.813719e-002
2.375871e+003, 1.809181e-002
2.377799e+003, 1.809920e-002
2.379728e+003, 1.830561e-002
2.381656e+003, 1.838308e-002
2.383585e+003, 1.826902e-002
2.385513e+003, 1.852591e-002
2.387442e+003, 1.880717e-002
2.389370e+003, 1.879305e-002
2.391299e+003, 1.859464e-002
2.393227e+003, 1.882773e-002
2.395156e+003, 1.896788e-002
2.397084e+003, 1.859053e-002
2.399012e+003, 1.861965e-002
2.400941e+003, 1.886337e-002
2.402869e+003, 1.885372e-002
2.404798e+003, 1.867706e-002
2.406726e+003, 1.896267e-002
2.408655e+003, 1.954841e-002
2.410583e+003, 1.994847e-002
2.412512e+003, 2.020519e-002
2.414440e+003, 2.001783e-002
2.416369e+003, 2.010379e-002
2.418297e+003, 1.992625e-002
2.420226e+003, 1.968601e-002
2.422154e+003, 1.977031e-002
2.424083e+003, 1.975451e-002
2.426011e+003, 1.983997e-002
2.427939e+003, 1.991568e-002
2.429868e+003, 2.002904e-002
2.431796e+003, 1.971119e-002
2.433725e+003, 1.943326e-002
2.435653e+003, 1.949016e-002
2.437582e+003, 1.988205e-002
2.439510e+003, 1.994185e-002
2.441439e+003, 1.992259e-002
2.443367e+003, 2.030688e-002
2.445296e+003, 2.071765e-002
2.447224e+003, 2.088631e-002
2.449153e+003, 2.110009e-002
2.451081e+003, 2.075418e-002
2.453010e+003, 2.035864e-002
2.454938e+003, 2.047919e-002
2.456866e+003, 2.093908e-002
2.458795e+003, 2.079718e-002
2.460723e+003, 2.027294e-002
2.462652e+003, 2.004615e-002
2.464580e+003, 2.029209e-002
2.466509e+003, 2.031107e-002
2.468437e+003, 2.033778e-002
2.470366e+003, 2.052112e-002
2.472294e+003, 2.052336e-002
2.474223e+003, 2.041722e-002
2.476151e+003, 2.099837e-002
2.478080e+003, 2.130344e-002
2.480008e+003, 2.078620e-002
2.481937e+003, 2.048082e-002
2.483865e+003, 2.043888e-002
2.485793e+003, 2.050200e-002
2.487722e+003, 2.090047e-002
2.489650e+003, 2.107179e-002
2.491579e+003, 2.097717e-002
2.493507e+003, 2.093000e-002
2.495436e+003, 2.072662e-002
2.497364e+003, 2.085188e-002
2.499293e+003, 2.127030e-002
2.501221e+003, 2.111645e-002
2.503150e+003, 2.108658e-002
2.505078e+003, 2.148328e-002
2.507007e+003, 2.141046e-002
2.508935e+003, 2.142413e-002
2.510864e+003, 2.175789e-002
2.512792e+003, 2.168466e-002
2.514720e+003, 2.165935e-002
2.516649e+003, 2.185271e-002
2.518577e+003, 2.191443e-002
2.520506e+003, 2.179040e-002
2.522434e+003, 2.167962e-002
2.524363e+003, 2.172718e-002
2.526291e+003, 2.205213e-002
2.528220e+003, 2.199052e-002
2.530148e+003, 2.201260e-002
2.532077e+003, 2.209804e-002
2.534005e+003, 2.213588e-002
2.535934e+003, 2.238576e-002
2.537862e+003, 2.233081e-002
2.539791e+003, 2.194222e-002
2.541719e+003, 2.197135e-002
2.543647e+003, 2.218956e-002
2.545576e+003, 2.198123e-002
2.547504e+003, 2.203742e-002
2.549433e+003, 2.226145e-002
2.551361e+003, 2.202260e-002
2.553290e+003, 2.203347e-002
2.555218e+003, 2.182510e-002
2.557147e+003, 2.153643e-002
2.559075e+003, 2.204469e-002
2.561004e+003, 2.251677e-002
2.562932e+003, 2.249049e-002
2.564861e+003, 2.226778e-002
2.566789e+003, 2.241903e-002
2.568718e+003, 2.281535e-002
2.570646e+003, 2.294011e-002
2.572574e+003, 2.294768e-002
2.574503e+003, 2.282759e-002
2.576431e+003, 2.304843e-002
2.578360e+003, 2.323986e-002
2.580288e+003, 2.351058e-002
2.582217e+003, 2.380630e-002
2.584145e+003, 2.368504e-002
2.586074e+003, 2.334960e-002
2.588002e+003, 2.325244e-002
2.589931e+003, 2.334583e-002
2.591859e+003, 2.331729e-002
2.593788e+003, 2.337378e-002
2.595716e+003, 2.377847e-002
2.597645e+003, 2.386814e-002
2.599573e+003, 2.338930e-002
2.601501e+003, 2.315131e-002
2.603430e+003, 2.358458e-002
2.605358e+003, 2.383946e-002
2.607287e+003, 2.405891e-002
2.609215e+003, 2.384698e-002
2.611144e+003, 2.374632e-002
2.613072e+003, 2.371402e-002
2.615001e+003, 2.401556e-002
2.616929e+003, 2.440007e-002
2.618858e+003, 2.463485e-002
2.620786e+003, 2.473535e-002
2.622715e+003, 2.447831e-002
2.624643e+003, 2.426995e-002
2.626572e+003, 2.455675e-002
2.628500e+003, 2.476783e-002
2.630428e+003, 2.476900e-002
2.632357e+003, 2.472943e-002
2.634285e+003, 2.485592e-002
2.636214e+003, 2.510286e-002
2.638142e+003, 2.517941e-002
2.640071e+003, 2.511934e-002
2.641999e+003, 2.501433e-002
2.643928e+003, 2.476861e-002
2.645856e+003, 2.483900e-002
2.647785e+003, 2.524239e-002
2.649713e+003, 2.551588e-002
2.651642e+003, 2.537179e-002
2.653570e+003, 2.519327e-002
2.655499e+003, 2.519658e-002
2.657427e+003, 2.520959e-002
2.659355e+003, 2.498811e-002
2.661284e+003, 2.487317e-002
2.663212e+003, 2.482956e-002
2.665141e+003, 2.480949e-002
2.667069e+003, 2.479487e-002
2.668998e+003, 2.477866e-002
2.670926e+003, 2.495843e-002
2.672855e+003, 2.502932e-002
2.674783e+003, 2.479623e-002
2.676712e+003, 2.485499e-002
2.678640e+003, 2.500693e-002
2.680569e+003, 2.514901e-002
2.682497e+003, 2.517075e-002
2.684426e+003, 2.514316e-002
2.686354e+003, 2.513451e-002
2.688282e+003, 2.519781e-002
2.690211e+003, 2.527138e-002
2.692139e+003, 2.540017e-002
2.694068e+003, 2.566007e-002
2.695996e+003, 2.573159e-002
2.697925e+003, 2.570753e-002
2.699853e+003, 2.564484e-002
2.701782e+003, 2.578843e-002
2.703710e+003, 2.589689e-002
2.705639e+003, 2.580678e-002
2.707567e+003, 2.578990e-002
2.709496e+003, 2.579378e-002
2.711424e+003, 2.591741e-002
2.713353e+003, 2.599350e-002
2.715281e+003, 2.621260e-002
2.717209e+003, 2.633104e-002
2.719138e+003, 2.630147e-002
2.721066e+003, 2.624456e-002
2.722995e+003, 2.630561e-002
2.724923e+003, 2.661445e-002
2.726852e+003, 2.673236e-002
2.728780e+003, 2.664495e-002
2.730709e+003, 2.672813e-002
2.732637e+003, 2.685388e-002
2.734566e+003, 2.679919e-002
2.736494e+003, 2.671648e-002
2.738423e+003, 2.678461e-002
2.740351e+003, 2.696630e-002
2.742280e+003, 2.721936e-002
2.744208e+003, 2.741519e-002
2.746136e+003, 2.760031e-002
2.748065e+003, 2.737579e-002
2.749993e+003, 2.732920e-002
2.751922e+003, 2.766572e-002
2.753850e+003, 2.761388e-002
2.755779e+003, 2.732998e-002
2.757707e+003, 2.762587e-002
2.759636e+003, 2.775834e-002
2.761564e+003, 2.784716e-002
2.763493e+003, 2.814282e-002
2.765421e+003, 2.826213e-002
2.767350e+003, 2.831124e-002
2.769278e+003, 2.823340e-002
2.771207e+003, 2.805778e-002
2.773135e+003, 2.839468e-002
2.775063e+003, 2.859918e-002
2.776992e+003, 2.856716e-002
2.778920e+003, 2.856751e-002
2.780849e+003, 2.850651e-002
2.782777e+003, 2.842454e-002
2.784706e+003, 2.846770e-002
2.786634e+003, 2.853886e-002
2.788563e+003, 2.849006e-002
2.790491e+003, 2.872772e-002
2.792420e+003, 2.907829e-002
2.794348e+003, 2.918138e-002
2.796277e+003, 2.920449e-002
2.798205e+003, 2.918638e-002
2.800134e+003, 2.926982e-002
2.802062e+003, 2.944856e-002
2.803990e+003, 2.959144e-002
2.805919e+003, 2.980636e-002
2.807847e+003, 2.978377e-002
2.809776e+003, 2.999717e-002
2.811704e+003, 3.005692e-002
2.813633e+003, 3.007710e-002
2.815561e+003, 3.019776e-002
2.817490e+003, 3.027073e-002
2.819418e+003, 3.065080e-002
2.821347e+003, 3.089389e-002
2.823275e+003, 3.102825e-002
2.825204e+003, 3.098170e-002
2.827132e+003, 3.100191e-002
2.829061e+003, 3.121844e-002
2.830989e+003, 3.138658e-002
2.832917e+003, 3.149937e-002
2.834846e+003, 3.153732e-002
2.836774e+003, 3.173673e-002
2.838703e+003, 3.214849e-002
2.840631e+003, 3.247866e-002
2.842560e+003, 3.270151e-002
2.844488e+003, 3.255786e-002
2.846417e+003, 3.271670e-002
2.848345e+003, 3.290916e-002
2.850274e+003, 3.331093e-002
2.852202e+003, 3.360332e-002
2.854131e+003, 3.373480e-002
2.856059e+003, 3.385263e-002
2.857988e+003, 3.373656e-002
2.859916e+003, 3.371906e-002
2.861844e+003, 3.380271e-002
2.863773e+003, 3.398710e-002
2.865701e+003, 3.388677e-002
2.867630e+003, 3.378691e-002
2.869558e+003, 3.392660e-002
2.871487e+003, 3.381110e-002
2.873415e+003, 3.376352e-002
2.875344e+003, 3.386784e-002
2.877272e+003, 3.405369e-002
2.879201e+003, 3.444539e-002
2.881129e+003, 3.458724e-002
2.883058e+003, 3.458843e-002
2.884986e+003, 3.455529e-002
2.886915e+003, 3.454214e-002
2.888843e+003, 3.494479e-002
2.890771e+003, 3.547742e-002
2.892700e+003, 3.569427e-002
2.894628e+003, 3.568487e-002
2.896557e+003, 3.586528e-002
2.898485e+003, 3.606548e-002
2.900414e+003, 3.635457e-002
2.902342e+003, 3.672812e-002
2.904271e+003, 3.693883e-002
2.906199e+003, 3.701594e-002
2.908128e+003, 3.742310e-002
2.910056e+003, 3.767909e-002
2.911985e+003, 3.772327e-002
2.913913e+003, 3.777516e-002
2.915842e+003, 3.846477e-002
2.917770e+003, 3.920888e-002
2.919698e+003, 3.961154e-002
2.921627e+003, 3.972164e-002
2.923555e+003, 3.968893e-002
2.925484e+003, 3.983115e-002
2.927412e+003, 3.999597e-002
2.929341e+003, 3.993832e-002
2.931269e+003, 3.969530e-002
2.933198e+003, 3.910888e-002
2.935126e+003, 3.872615e-002
2.937055e+003, 3.856074e-002
2.938983e+003, 3.854005e-002
2.940912e+003, 3.863247e-002
2.942840e+003, 3.850638e-002
2.944769e+003, 3.832404e-002
2.946697e+003, 3.876049e-002
2.948625e+003, 3.908956e-002
2.950554e+003, 3.924356e-002
2.952482e+003, 3.936014e-002
2.954411e+003, 3.958425e-002
2.956339e+003, 3.990735e-002
2.958268e+003, 3.989238e-002
2.960196e+003, 3.996931e-002
2.962125e+003, 4.003943e-002
2.964053e+003, 3.989655e-002
2.965982e+003, 4.007189e-002
2.967910e+003, 3.975951e-002
2.969839e+003, 3.936612e-002
2.971767e+003, 3.925145e-002
2.973696e+003, 3.926872e-002
2.975624e+003, 3.917055e-002
2.977552e+003, 3.905971e-002
2.979481e+003, 3.903245e-002
2.981409e+003, 3.913096e-002
2.983338e+003, 3.925309e-002
2.985266e+003, 3.944786e-002
2.987195e+003, 3.956960e-002
2.989123e+003, 3.970098e-002
2.991052e+003, 3.996044e-002
2.992980e+003, 4.031885e-002
2.994909e+003, 4.055698e-002
2.996837e+003, 4.062759e-002
2.998766e+003, 4.083143e-002
3.000694e+003, 4.137949e-002
3.002623e+003, 4.154601e-002
3.004551e+003, 4.155424e-002
3.006479e+003, 4.173119e-002
3.008408e+003, 4.195221e-002
3.010336e+003, 4.220689e-002
3.012265e+003, 4.274762e-002
3.014193e+003, 4.284096e-002
3.016122e+003, 4.256117e-002
3.018050e+003, 4.260721e-002
3.019979e+003, 4.304937e-002
3.021907e+003, 4.339374e-002
3.023836e+003, 4.356771e-002
3.025764e+003, 4.399045e-002
3.027693e+003, 4.427424e-002
3.029621e+003, 4.457441e-002
3.031550e+003, 4.475588e-002
3.033478e+003, 4.480988e-002
3.035406e+003, 4.538812e-002
3.037335e+003, 4.573639e-002
3.039263e+003, 4.580885e-002
3.041192e+003, 4.629663e-002
3.043120e+003, 4.647664e-002
3.045049e+003, 4.665495e-002
3.046977e+003, 4.699706e-002
3.048906e+003, 4.724962e-002
3.050834e+003, 4.757530e-002
3.052763e+003, 4.822446e-002
3.054691e+003, 4.844307e-002
3.056620e+003, 4.854754e-002
3.058548e+003, 4.904226e-002
3.060477e+003, 4.947806e-002
3.062405e+003, 4.977397e-002
3.064333e+003, 4.988704e-002
3.066262e+003, 5.000856e-002
3.068190e+003, 5.066675e-002
3.070119e+003, 5.123584e-002
3.072047e+003, 5.156257e-002
3.073976e+003, 5.233942e-002
3.075904e+003, 5.285421e-002
3.077833e+003, 5.311890e-002
3.079761e+003, 5.344723e-002
3.081690e+003, 5.381754e-002
3.083618e+003, 5.410464e-002
3.085547e+003, 5.436166e-002
3.087475e+003, 5.477030e-002
3.089404e+003, 5.536671e-002
3.091332e+003, 5.593077e-002
3.093260e+003, 5.625274e-002
3.095189e+003, 5.680060e-002
3.097117e+003, 5.709158e-002
3.099046e+003, 5.790604e-002
3.100974e+003, 5.855977e-002
3.102903e+003, 5.874689e-002
3.104831e+003, 5.918626e-002
3.106760e+003, 5.949435e-002
3.108688e+003, 5.989015e-002
3.110617e+003, 6.027399e-002
3.112545e+003, 6.040694e-002
3.114474e+003, 6.088789e-002
3.116402e+003, 6.154218e-002
3.118331e+003, 6.193698e-002
3.120259e+003, 6.258292e-002
3.122188e+003, 6.318381e-002
3.124116e+003, 6.363169e-002
3.126044e+003, 6.395761e-002
3.127973e+003, 6.449565e-002
3.129901e+003, 6.515969e-002
3.131830e+003, 6.586073e-002
3.133758e+003, 6.665713e-002
3.135687e+003, 6.694545e-002
3.137615e+003, 6.755713e-002
3.139544e+003, 6.855626e-002
3.141472e+003, 6.917656e-002
3.143401e+003, 6.978162e-002
3.145329e+003, 7.030650e-002
3.147258e+003, 7.066883e-002
3.149186e+003, 7.132996e-002
3.151115e+003, 7.212902e-002
3.153043e+003, 7.328271e-002
3.154971e+003, 7.416873e-002
3.156900e+003, 7.474785e-002
3.158828e+003, 7.573779e-002
3.160757e+003, 7.669474e-002
3.162685e+003, 7.740596e-002
3.164614e+003, 7.867389e-002
3.166542e+003, 7.966209e-002
3.168471e+003, 8.034657e-002
3.170399e+003, 8.120735e-002
3.172328e+003, 8.180034e-002
3.174256e+003, 8.273074e-002
3.176185e+003, 8.389271e-002
3.178113e+003, 8.485020e-002
3.180042e+003, 8.554041e-002
3.181970e+003, 8.645113e-002
3.183898e+003, 8.710249e-002
3.185827e+003, 8.788859e-002
3.187755e+003, 8.844444e-002
3.189684e+003, 8.916780e-002
3.191612e+003, 8.984998e-002
3.193541e+003, 9.053544e-002
3.195469e+003, 9.123827e-002
3.197398e+003, 9.172541e-002
3.199326e+003, 9.226227e-002
3.201255e+003, 9.280450e-002
3.203183e+003, 9.368612e-002
3.205112e+003, 9.473540e-002
3.207040e+003, 9.499334e-002
3.208969e+003, 9.547140e-002
3.210897e+003, 9.623993e-002
3.212825e+003, 9.773382e-002
3.214754e+003, 9.898975e-002
3.216682e+003, 9.977530e-002
3.218611e+003, 1.006570e-001
3.220539e+003, 1.017982e-001
3.222468e+003, 1.032900e-001
3.224396e+003, 1.048070e-001
3.226325e+003, 1.061528e-001
3.228253e+003, 1.071898e-001
3.230182e+003, 1.087076e-001
3.232110e+003, 1.100559e-001
3.234039e+003, 1.113527e-001
3.235967e+003, 1.132219e-001
3.237896e+003, 1.157532e-001
3.239824e+003, 1.179944e-001
3.241752e+003, 1.196291e-001
3.243681e+003, 1.213029e-001
3.245609e+003, 1.234538e-001
3.247538e+003, 1.261391e-001
3.249466e+003, 1.286687e-001
3.251395e+003, 1.312091e-001
3.253323e+003, 1.337437e-001
3.255252e+003, 1.361806e-001
3.257180e+003, 1.387523e-001
3.259109e+003, 1.412560e-001
3.261037e+003, 1.435468e-001
3.262966e+003, 1.458383e-001
3.264894e+003, 1.477985e-001
3.266823e+003, 1.489343e-001
3.268751e+003, 1.493354e-001
3.270679e+003, 1.491975e-001
3.272608e+003, 1.483441e-001
3.274536e+003, 1.470510e-001
3.276465e+003, 1.453131e-001
3.278393e+003, 1.432706e-001
3.280322e+003, 1.408761e-001
3.282250e+003, 1.384445e-001
3.284179e+003, 1.363861e-001
3.286107e+003, 1.348314e-001
3.288036e+003, 1.331641e-001
3.289964e+003, 1.317879e-001
3.291893e+003, 1.304368e-001
3.293821e+003, 1.288341e-001
3.295750e+003, 1.279879e-001
3.297678e+003, 1.274789e-001
3.299606e+003, 1.260809e-001
3.301535e+003, 1.248901e-001
3.303463e+003, 1.243359e-001
3.305392e+003, 1.240840e-001
3.307320e+003, 1.239312e-001
3.309249e+003, 1.239526e-001
3.311177e+003, 1.237488e-001
3.313106e+003, 1.238130e-001
3.315034e+003, 1.240347e-001
3.316963e+003, 1.242715e-001
3.318891e+003, 1.250610e-001
3.320820e+003, 1.260287e-001
3.322748e+003, 1.268179e-001
3.324677e+003, 1.279046e-001
3.326605e+003, 1.293065e-001
3.328533e+003, 1.312524e-001
3.330462e+003, 1.332182e-001
3.332390e+003, 1.353726e-001
3.334319e+003, 1.376794e-001
3.336247e+003, 1.401252e-001
3.338176e+003, 1.437583e-001
3.340104e+003, 1.477320e-001
3.342033e+003, 1.512673e-001
3.343961e+003, 1.559778e-001
3.345890e+003, 1.617974e-001
3.347818e+003, 1.678058e-001
3.349747e+003, 1.741907e-001
3.351675e+003, 1.816133e-001
3.353604e+003, 1.894677e-001
3.355532e+003, 1.972720e-001
3.357460e+003, 2.064460e-001
3.359389e+003, 2.164907e-001
3.361317e+003, 2.262555e-001
3.363246e+003, 2.353737e-001
3.365174e+003, 2.438821e-001
3.367103e+003, 2.521586e-001
3.369031e+003, 2.597787e-001
3.370960e+003, 2.680414e-001
3.372888e+003, 2.776920e-001
3.374817e+003, 2.878898e-001
3.376745e+003, 2.983911e-001
3.378674e+003, 3.083777e-001
3.380602e+003, 3.156060e-001
3.382531e+003, 3.181967e-001
3.384459e+003, 3.161783e-001
3.386387e+003, 3.097824e-001
3.388316e+003, 3.007959e-001
3.390244e+003, 2.909042e-001
3.392173e+003, 2.815787e-001
3.394101e+003, 2.738619e-001
3.396030e+003, 2.672924e-001
3.397958e+003, 2.615064e-001
3.399887e+003, 2.565189e-001
3.401815e+003, 2.513629e-001
3.403744e+003, 2.437564e-001
3.405672e+003, 2.348036e-001
3.407601e+003, 2.259982e-001
3.409529e+003, 2.157615e-001
3.411458e+003, 2.030794e-001
3.413386e+003, 1.889388e-001
3.415314e+003, 1.745133e-001
3.417243e+003, 1.613217e-001
3.419171e+003, 1.499032e-001
3.421100e+003, 1.395253e-001
3.423028e+003, 1.300911e-001
3.424957e+003, 1.225529e-001
3.426885e+003, 1.155047e-001
3.428814e+003, 1.100048e-001
3.430742e+003, 1.058834e-001
3.432671e+003, 1.021550e-001
3.434599e+003, 9.859645e-002
3.436528e+003, 9.564994e-002
3.438456e+003, 9.334796e-002
3.440385e+003, 9.153178e-002
3.442313e+003, 8.948718e-002
3.444241e+003, 8.699171e-002
3.446170e+003, 8.516780e-002
3.448098e+003, 8.388786e-002
3.450027e+003, 8.185349e-002
3.451955e+003, 8.096511e-002
3.453884e+003, 8.042917e-002
3.455812e+003, 7.867469e-002
3.457741e+003, 7.727732e-002
3.459669e+003, 7.618687e-002
3.461598e+003, 7.460944e-002
3.463526e+003, 7.307895e-002
3.465455e+003, 7.235051e-002
3.467383e+003, 7.158534e-002
3.469312e+003, 7.070238e-002
3.471240e+003, 6.990725e-002
3.473168e+003, 6.946275e-002
3.475097e+003, 6.906825e-002
3.477025e+003, 6.802369e-002
3.478954e+003, 6.667135e-002
3.480882e+003, 6.538498e-002
3.482811e+003, 6.548055e-002
3.484739e+003, 6.521175e-002
3.486668e+003, 6.456794e-002
3.488596e+003, 6.382131e-002
3.490525e+003, 6.272908e-002
3.492453e+003, 6.164692e-002
3.494382e+003, 6.125254e-002
3.496310e+003, 6.131091e-002
3.498239e+003, 6.112891e-002
3.500167e+003, 6.011339e-002
3.502095e+003, 5.903445e-002
3.504024e+003, 5.874542e-002
3.505952e+003, 5.885544e-002
3.507881e+003, 5.818048e-002
3.509809e+003, 5.753864e-002
3.511738e+003, 5.679404e-002
3.513666e+003, 5.596447e-002
3.515595e+003, 5.563134e-002
3.517523e+003, 5.560138e-002
3.519452e+003, 5.530060e-002
3.521380e+003, 5.465320e-002
3.523309e+003, 5.437265e-002
3.525237e+003, 5.454143e-002
3.527166e+003, 5.484858e-002
3.529094e+003, 5.541803e-002
3.531022e+003, 5.536202e-002
3.532951e+003, 5.561030e-002
3.534879e+003, 5.610387e-002
3.536808e+003, 5.711148e-002
3.538736e+003, 5.825828e-002
3.540665e+003, 5.940003e-002
3.542593e+003, 6.096883e-002
3.544522e+003, 6.363630e-002
3.546450e+003, 6.686193e-002
3.548379e+003, 7.017569e-002
3.550307e+003, 7.499775e-002
3.552236e+003, 8.104108e-002
3.554164e+003, 8.920681e-002
3.556093e+003, 9.979992e-002
3.558021e+003, 1.127514e-001
3.559949e+003, 1.286690e-001
3.561878e+003, 1.450531e-001
3.563806e+003, 1.558436e-001
3.565735e+003, 1.551928e-001
3.567663e+003, 1.424037e-001
3.569592e+003, 1.216717e-001
3.571520e+003, 1.010642e-001
3.573449e+003, 8.660895e-002
3.575377e+003, 7.948738e-002
3.577306e+003, 7.921921e-002
3.579234e+003, 8.601599e-002
3.581163e+003, 1.019495e-001
3.583091e+003, 1.310537e-001
3.585020e+003, 1.665761e-001
3.586948e+003, 1.850017e-001
3.588876e+003, 1.646597e-001
3.590805e+003, 1.219013e-001
3.592733e+003, 8.533788e-002
3.594662e+003, 6.184359e-002
3.596590e+003, 4.807295e-002
3.598519e+003, 4.009062e-002
3.600447e+003, 3.467520e-002
3.602376e+003, 3.064801e-002
3.604304e+003, 2.812963e-002
3.606233e+003, 2.674771e-002
3.608161e+003, 2.567928e-002
3.610090e+003, 2.496808e-002
3.612018e+003, 2.420953e-002
3.613947e+003, 2.385750e-002
3.615875e+003, 2.379805e-002
3.617803e+003, 2.363605e-002
3.619732e+003, 2.348023e-002
3.621660e+003, 2.336674e-002
3.623589e+003, 2.331384e-002
3.625517e+003, 2.322001e-002
3.627446e+003, 2.206751e-002
3.629374e+003, 2.151040e-002
3.631303e+003, 2.177598e-002
3.633231e+003, 2.206031e-002
3.635160e+003, 2.296910e-002
3.637088e+003, 2.282840e-002
3.639017e+003, 2.169943e-002
3.640945e+003, 2.142752e-002
3.642874e+003, 2.147589e-002
3.644802e+003, 2.174025e-002
3.646730e+003, 2.163252e-002
3.648659e+003, 2.131440e-002
3.650587e+003, 2.171589e-002
3.652516e+003, 2.194338e-002
3.654444e+003, 2.114753e-002
3.656373e+003, 2.121512e-002
3.658301e+003, 2.126347e-002
3.660230e+003, 2.136190e-002
3.662158e+003, 2.189954e-002
3.664087e+003, 2.197775e-002
3.666015e+003, 2.174790e-002
3.667944e+003, 2.135055e-002
3.669872e+003, 2.114571e-002
3.671801e+003, 2.098121e-002
3.673729e+003, 2.067736e-002
3.675657e+003, 2.048904e-002
3.677586e+003, 2.115946e-002
3.679514e+003, 2.191946e-002
3.681443e+003, 2.171301e-002
3.683371e+003, 2.119927e-002
3.685300e+003, 2.134990e-002
3.687228e+003, 2.111912e-002
3.689157e+003, 2.044557e-002
3.691085e+003, 2.030534e-002
3.693014e+003, 2.126952e-002
3.694942e+003, 2.158169e-002
3.696871e+003, 2.141067e-002
3.698799e+003, 2.122868e-002
3.700728e+003, 2.112403e-002
3.702656e+003, 2.139678e-002
3.704584e+003, 2.164586e-002
3.706513e+003, 2.122645e-002
3.708441e+003, 2.094601e-002
3.710370e+003, 2.173197e-002
3.712298e+003, 2.221004e-002
3.714227e+003, 2.164532e-002
3.716155e+003, 2.202131e-002
3.718084e+003, 2.277418e-002
3.720012e+003, 2.275557e-002
3.721941e+003, 2.247567e-002
3.723869e+003, 2.208873e-002
3.725798e+003, 2.234466e-002
3.727726e+003, 2.249394e-002
3.729655e+003, 2.151867e-002
3.731583e+003, 2.060460e-002
3.733511e+003, 2.199154e-002
3.735440e+003, 2.317104e-002
3.737368e+003, 2.303267e-002
3.739297e+003, 2.286487e-002
3.741225e+003, 2.289102e-002
3.743154e+003, 2.224008e-002
3.745082e+003, 2.204112e-002
3.747011e+003, 2.277436e-002
3.748939e+003, 2.301211e-002
3.750868e+003, 2.238868e-002
3.752796e+003, 2.165447e-002
3.754725e+003, 2.168831e-002
3.756653e+003, 2.182119e-002
3.758582e+003, 2.202516e-002
3.760510e+003, 2.243295e-002
3.762438e+003, 2.311523e-002
3.764367e+003, 2.333129e-002
3.766295e+003, 2.324465e-002
3.768224e+003, 2.302497e-002
3.770152e+003, 2.304019e-002
3.772081e+003, 2.362770e-002
3.774009e+003, 2.350862e-002
3.775938e+003, 2.332675e-002
3.777866e+003, 2.299909e-002
3.779795e+003, 2.276498e-002
3.781723e+003, 2.320650e-002
3.783652e+003, 2.329884e-002
3.785580e+003, 2.356599e-002
3.787509e+003, 2.360017e-002
3.789437e+003, 2.333546e-002
3.791365e+003, 2.344511e-002
3.793294e+003, 2.354744e-002
3.795222e+003, 2.369544e-002
3.797151e+003, 2.307468e-002
3.799079e+003, 2.278661e-002
3.801008e+003, 2.315884e-002
3.802936e+003, 2.377210e-002
3.804865e+003, 2.369032e-002
3.806793e+003, 2.372935e-002
3.808722e+003, 2.419313e-002
3.810650e+003, 2.399095e-002
3.812579e+003, 2.337945e-002
3.814507e+003, 2.253344e-002
3.816436e+003, 2.272857e-002
3.818364e+003, 2.339285e-002
3.820292e+003, 2.373248e-002
3.822221e+003, 2.452501e-002
3.824149e+003, 2.452236e-002
3.826078e+003, 2.409302e-002
3.828006e+003, 2.454112e-002
3.829935e+003, 2.460209e-002
3.831863e+003, 2.451015e-002
3.833792e+003, 2.503141e-002
3.835720e+003, 2.493181e-002
3.837649e+003, 2.471994e-002
3.839577e+003, 2.464577e-002
3.841506e+003, 2.412734e-002
3.843434e+003, 2.403834e-002
3.845363e+003, 2.454441e-002
3.847291e+003, 2.459997e-002
3.849219e+003, 2.446740e-002
3.851148e+003, 2.394282e-002
3.853076e+003, 2.354036e-002
3.855005e+003, 2.414338e-002
3.856933e+003, 2.455346e-002
3.858862e+003, 2.405698e-002
3.860790e+003, 2.468884e-002
3.862719e+003, 2.520720e-002
3.864647e+003, 2.498950e-002
3.866576e+003, 2.492856e-002
3.868504e+003, 2.455495e-002
3.870433e+003, 2.435046e-002
3.872361e+003, 2.460713e-002
3.874290e+003, 2.499126e-002
3.876218e+003, 2.459527e-002
3.878146e+003, 2.422750e-002
3.880075e+003, 2.446578e-002
3.882003e+003, 2.470522e-002
3.883932e+003, 2.507449e-002
3.885860e+003, 2.491738e-002
3.887789e+003, 2.478718e-002
3.889717e+003, 2.440251e-002
3.891646e+003, 2.433041e-002
3.893574e+003, 2.460077e-002
3.895503e+003, 2.453273e-002
3.897431e+003, 2.458071e-002
3.899360e+003, 2.495923e-002
3.901288e+003, 2.565669e-002
3.903217e+003, 2.542353e-002
3.905145e+003, 2.491818e-002
3.907073e+003, 2.478394e-002
3.909002e+003, 2.569227e-002
3.910930e+003, 2.634689e-002
3.912859e+003, 2.645936e-002
3.914787e+003, 2.581266e-002
3.916716e+003, 2.545892e-002
3.918644e+003, 2.567385e-002
3.920573e+003, 2.566334e-002
3.922501e+003, 2.553102e-002
3.924430e+003, 2.558958e-002
3.926358e+003, 2.573005e-002
3.928287e+003, 2.547652e-002
3.930215e+003, 2.570127e-002
3.932144e+003, 2.621159e-002
3.934072e+003, 2.600758e-002
3.936000e+003, 2.533183e-002
3.937929e+003, 2.479813e-002
3.939857e+003, 2.504306e-002
3.941786e+003, 2.538186e-002
3.943714e+003, 2.559383e-002
3.945643e+003, 2.534460e-002
3.947571e+003, 2.530330e-002
3.949500e+003, 2.572589e-002
3.951428e+003, 2.636784e-002
3.953357e+003, 2.606089e-002
3.955285e+003, 2.617161e-002
3.957214e+003, 2.579320e-002
3.959142e+003, 2.501555e-002
3.961071e+003, 2.490996e-002
3.962999e+003, 2.557056e-002
3.964927e+003, 2.565682e-002
3.966856e+003, 2.593461e-002
3.968784e+003, 2.632555e-002
3.970713e+003, 2.610744e-002
3.972641e+003, 2.623995e-002
3.974570e+003, 2.705216e-002
3.976498e+003, 2.684707e-002
3.978427e+003, 2.622713e-002
3.980355e+003, 2.654725e-002
3.982284e+003, 2.679042e-002
3.984212e+003, 2.615507e-002
3.986141e+003, 2.615722e-002
3.988069e+003, 2.687630e-002
3.989998e+003, 2.718050e-002
3.991926e+003, 2.678625e-002
3.993854e+003, 2.674779e-002
3.995783e+003, 2.707236e-002
3.997711e+003, 2.698042e-002
3.999640e+003, 2.661358e-002
4.001568e+003, 0.000000e+000
##END=



