##NAMES=Langite
##RRUFFID=R060090
##IDEAL CHEMISTRY=Cu^2+^_4_S^6+^O_4_(OH)_6_&#183;2H_2_O
##LOCALITY=Allihies mine, County Cork, Ireland
##OWNER=RRUFF
##SOURCE=University of Arizona Mineral Museum
##DESCRIPTION=Blue skeletal prismatic crystals in snowflake-like groupings, associated with brochantite
##STATUS=The identification of this mineral has been confirmed by X-ray diffraction and chemical analysis
##URL=rruff.info/R060090
##MEASURED CHEMISTRY=Cu_4.00_(S_1.00_O_4_)(OH)_6_·2H_2_O ; darker phase: Cu_4_SO_4_(OH)_6_ ; lighter phase
3.991926e+002, 2.524432e-001
4.011211e+002, 2.650102e-001
4.030495e+002, 2.812739e-001
4.049780e+002, 3.062325e-001
4.069065e+002, 3.279419e-001
4.088349e+002, 3.296684e-001
4.107634e+002, 3.332869e-001
4.126919e+002, 3.293337e-001
4.146203e+002, 3.149315e-001
4.165488e+002, 2.993891e-001
4.184773e+002, 2.789029e-001
4.204057e+002, 2.577533e-001
4.223342e+002, 2.426852e-001
4.242627e+002, 2.308269e-001
4.261911e+002, 2.209969e-001
4.281196e+002, 2.108171e-001
4.300481e+002, 2.011143e-001
4.319765e+002, 1.925682e-001
4.339050e+002, 1.856504e-001
4.358335e+002, 1.784729e-001
4.377619e+002, 1.722578e-001
4.396904e+002, 1.657784e-001
4.416189e+002, 1.583686e-001
4.435473e+002, 1.551365e-001
4.454758e+002, 1.557907e-001
4.474043e+002, 1.583769e-001
4.493327e+002, 1.618778e-001
4.512612e+002, 1.657914e-001
4.531897e+002, 1.718770e-001
4.551181e+002, 1.801753e-001
4.570466e+002, 1.892594e-001
4.589751e+002, 1.987459e-001
4.609035e+002, 2.040954e-001
4.628320e+002, 2.037016e-001
4.647605e+002, 2.024470e-001
4.666889e+002, 2.043360e-001
4.686174e+002, 2.071973e-001
4.705459e+002, 2.066916e-001
4.724743e+002, 2.026861e-001
4.744028e+002, 1.995599e-001
4.763313e+002, 2.041661e-001
4.782597e+002, 2.152985e-001
4.801882e+002, 2.256892e-001
4.821167e+002, 2.256334e-001
4.840451e+002, 2.144395e-001
4.859736e+002, 1.980346e-001
4.879021e+002, 1.800315e-001
4.898305e+002, 1.633363e-001
4.917590e+002, 1.495653e-001
4.936875e+002, 1.394502e-001
4.956159e+002, 1.331613e-001
4.975444e+002, 1.321763e-001
4.994729e+002, 1.348617e-001
5.014013e+002, 1.396705e-001
5.033298e+002, 1.453471e-001
5.052583e+002, 1.506314e-001
5.071867e+002, 1.531768e-001
5.091152e+002, 1.493441e-001
5.110437e+002, 1.407256e-001
5.129721e+002, 1.311416e-001
5.149006e+002, 1.204154e-001
5.168290e+002, 1.087275e-001
5.187575e+002, 9.595681e-002
5.206860e+002, 8.365794e-002
5.226144e+002, 7.400149e-002
5.245429e+002, 6.685846e-002
5.264714e+002, 6.107750e-002
5.283998e+002, 5.624713e-002
5.303283e+002, 5.279543e-002
5.322568e+002, 5.009893e-002
5.341852e+002, 4.848138e-002
5.361137e+002, 4.745036e-002
5.380422e+002, 4.706252e-002
5.399706e+002, 4.699825e-002
5.418991e+002, 4.666283e-002
5.438276e+002, 4.703537e-002
5.457560e+002, 4.813982e-002
5.476845e+002, 4.954835e-002
5.496130e+002, 5.038106e-002
5.515414e+002, 5.104071e-002
5.534699e+002, 5.233283e-002
5.553984e+002, 5.291728e-002
5.573268e+002, 5.344878e-002
5.592553e+002, 5.449356e-002
5.611838e+002, 5.556947e-002
5.631122e+002, 5.644987e-002
5.650407e+002, 5.739702e-002
5.669692e+002, 5.918966e-002
5.688976e+002, 6.148326e-002
5.708261e+002, 6.422179e-002
5.727546e+002, 6.751751e-002
5.746830e+002, 7.199414e-002
5.766115e+002, 7.753882e-002
5.785400e+002, 8.521991e-002
5.804684e+002, 9.598704e-002
5.823969e+002, 1.108028e-001
5.843254e+002, 1.314083e-001
5.862538e+002, 1.629929e-001
5.881823e+002, 2.107749e-001
5.901108e+002, 2.797145e-001
5.920392e+002, 3.608373e-001
5.939677e+002, 4.083605e-001
5.958962e+002, 3.839626e-001
5.978246e+002, 3.268028e-001
5.997531e+002, 2.841959e-001
6.016816e+002, 2.673472e-001
6.036100e+002, 2.565075e-001
6.055385e+002, 2.255914e-001
6.074670e+002, 1.799575e-001
6.093954e+002, 1.371055e-001
6.113239e+002, 1.050970e-001
6.132524e+002, 8.571690e-002
6.151808e+002, 7.680835e-002
6.171093e+002, 7.526168e-002
6.190378e+002, 7.972364e-002
6.209662e+002, 9.011535e-002
6.228947e+002, 1.053625e-001
6.248232e+002, 1.195363e-001
6.267516e+002, 1.243206e-001
6.286801e+002, 1.205397e-001
6.306086e+002, 1.148972e-001
6.325370e+002, 1.106842e-001
6.344655e+002, 1.082879e-001
6.363940e+002, 1.072252e-001
6.383224e+002, 1.066867e-001
6.402509e+002, 1.061872e-001
6.421794e+002, 1.049910e-001
6.441078e+002, 1.031005e-001
6.460363e+002, 1.004388e-001
6.479648e+002, 9.623615e-002
6.498932e+002, 9.082976e-002
6.518217e+002, 8.497608e-002
6.537502e+002, 7.925100e-002
6.556786e+002, 7.406054e-002
6.576071e+002, 6.961635e-002
6.595356e+002, 6.628760e-002
6.614641e+002, 6.374434e-002
6.633925e+002, 6.166789e-002
6.653210e+002, 6.013281e-002
6.672495e+002, 5.896787e-002
6.691779e+002, 5.804995e-002
6.711064e+002, 5.752682e-002
6.730349e+002, 5.722380e-002
6.749633e+002, 5.700085e-002
6.768918e+002, 5.695492e-002
6.788203e+002, 5.723807e-002
6.807487e+002, 5.774868e-002
6.826772e+002, 5.833893e-002
6.846057e+002, 5.914346e-002
6.865341e+002, 6.014368e-002
6.884626e+002, 6.110772e-002
6.903911e+002, 6.236672e-002
6.923195e+002, 6.410963e-002
6.942480e+002, 6.565079e-002
6.961765e+002, 6.724296e-002
6.981049e+002, 6.902315e-002
7.000334e+002, 7.138603e-002
7.019619e+002, 7.389452e-002
7.038903e+002, 7.710912e-002
7.058188e+002, 8.065055e-002
7.077473e+002, 8.474302e-002
7.096757e+002, 8.993846e-002
7.116042e+002, 9.634416e-002
7.135327e+002, 1.037651e-001
7.154611e+002, 1.125220e-001
7.173896e+002, 1.232040e-001
7.193181e+002, 1.360899e-001
7.212465e+002, 1.509797e-001
7.231750e+002, 1.675227e-001
7.251035e+002, 1.842254e-001
7.270319e+002, 1.980947e-001
7.289604e+002, 2.068446e-001
7.308889e+002, 2.081541e-001
7.328173e+002, 2.024108e-001
7.347458e+002, 1.915572e-001
7.366743e+002, 1.778570e-001
7.386027e+002, 1.631878e-001
7.405312e+002, 1.497454e-001
7.424597e+002, 1.381579e-001
7.443881e+002, 1.287006e-001
7.463166e+002, 1.219344e-001
7.482451e+002, 1.176283e-001
7.501735e+002, 1.152729e-001
7.521020e+002, 1.148365e-001
7.540305e+002, 1.159962e-001
7.559589e+002, 1.186955e-001
7.578874e+002, 1.227349e-001
7.598159e+002, 1.276077e-001
7.617443e+002, 1.330608e-001
7.636728e+002, 1.393705e-001
7.656013e+002, 1.462553e-001
7.675297e+002, 1.532807e-001
7.694582e+002, 1.599265e-001
7.713867e+002, 1.660597e-001
7.733151e+002, 1.707381e-001
7.752436e+002, 1.738975e-001
7.771721e+002, 1.751764e-001
7.791005e+002, 1.740709e-001
7.810290e+002, 1.703565e-001
7.829575e+002, 1.645840e-001
7.848859e+002, 1.576174e-001
7.868144e+002, 1.504602e-001
7.887429e+002, 1.432405e-001
7.906713e+002, 1.366933e-001
7.925998e+002, 1.308325e-001
7.945283e+002, 1.257475e-001
7.964567e+002, 1.218939e-001
7.983852e+002, 1.190946e-001
8.003137e+002, 1.171561e-001
8.022421e+002, 1.162218e-001
8.041706e+002, 1.163359e-001
8.060991e+002, 1.173886e-001
8.080275e+002, 1.195035e-001
8.099560e+002, 1.227267e-001
8.118845e+002, 1.269255e-001
8.138129e+002, 1.321011e-001
8.157414e+002, 1.382148e-001
8.176699e+002, 1.454410e-001
8.195983e+002, 1.540578e-001
8.215268e+002, 1.640919e-001
8.234553e+002, 1.750500e-001
8.253837e+002, 1.871827e-001
8.273122e+002, 2.006645e-001
8.292407e+002, 2.146283e-001
8.311691e+002, 2.289601e-001
8.330976e+002, 2.438888e-001
8.350261e+002, 2.601915e-001
8.369545e+002, 2.778724e-001
8.388830e+002, 2.959786e-001
8.408115e+002, 3.123071e-001
8.427399e+002, 3.242705e-001
8.446684e+002, 3.291402e-001
8.465969e+002, 3.261551e-001
8.485253e+002, 3.178245e-001
8.504538e+002, 3.071655e-001
8.523823e+002, 2.972737e-001
8.543107e+002, 2.909732e-001
8.562392e+002, 2.890886e-001
8.581677e+002, 2.916726e-001
8.600961e+002, 2.970628e-001
8.620246e+002, 3.033668e-001
8.639531e+002, 3.086581e-001
8.658815e+002, 3.118569e-001
8.678100e+002, 3.120330e-001
8.697385e+002, 3.080500e-001
8.716669e+002, 3.004175e-001
8.735954e+002, 2.898735e-001
8.755239e+002, 2.773453e-001
8.774523e+002, 2.639887e-001
8.793808e+002, 2.506355e-001
8.813093e+002, 2.384048e-001
8.832377e+002, 2.276683e-001
8.851662e+002, 2.184645e-001
8.870947e+002, 2.106964e-001
8.890231e+002, 2.036762e-001
8.909516e+002, 1.968463e-001
8.928801e+002, 1.898328e-001
8.948085e+002, 1.826272e-001
8.967370e+002, 1.746473e-001
8.986655e+002, 1.662862e-001
9.005939e+002, 1.581225e-001
9.025224e+002, 1.500244e-001
9.044509e+002, 1.423117e-001
9.063793e+002, 1.353164e-001
9.083078e+002, 1.292031e-001
9.102363e+002, 1.239562e-001
9.121647e+002, 1.196602e-001
9.140932e+002, 1.164302e-001
9.160217e+002, 1.141434e-001
9.179501e+002, 1.127852e-001
9.198786e+002, 1.123548e-001
9.218071e+002, 1.128871e-001
9.237355e+002, 1.141728e-001
9.256640e+002, 1.161012e-001
9.275925e+002, 1.186786e-001
9.295209e+002, 1.218757e-001
9.314494e+002, 1.255266e-001
9.333779e+002, 1.296622e-001
9.353063e+002, 1.341530e-001
9.372348e+002, 1.386118e-001
9.391633e+002, 1.423735e-001
9.410917e+002, 1.444384e-001
9.430202e+002, 1.434358e-001
9.449487e+002, 1.390799e-001
9.468771e+002, 1.319279e-001
9.488056e+002, 1.226494e-001
9.507341e+002, 1.127475e-001
9.526625e+002, 1.031879e-001
9.545910e+002, 9.452708e-002
9.565195e+002, 8.719076e-002
9.584479e+002, 8.127856e-002
9.603764e+002, 7.700966e-002
9.623049e+002, 7.403527e-002
9.642333e+002, 7.268547e-002
9.661618e+002, 7.305242e-002
9.680903e+002, 7.407078e-002
9.700187e+002, 7.405803e-002
9.719472e+002, 7.352863e-002
9.738757e+002, 7.516623e-002
9.758041e+002, 8.115997e-002
9.777326e+002, 9.214670e-002
9.796611e+002, 1.064860e-001
9.815895e+002, 1.182859e-001
9.835180e+002, 1.227442e-001
9.854465e+002, 1.213284e-001
9.873749e+002, 1.179231e-001
9.893034e+002, 1.142319e-001
9.912319e+002, 1.102203e-001
9.931603e+002, 1.055546e-001
9.950888e+002, 1.002246e-001
9.970173e+002, 9.437567e-002
9.989457e+002, 8.851389e-002
1.000874e+003, 8.310983e-002
1.002803e+003, 7.839230e-002
1.004731e+003, 7.439218e-002
1.006660e+003, 7.118838e-002
1.008588e+003, 6.878869e-002
1.010517e+003, 6.697907e-002
1.012445e+003, 6.568269e-002
1.014373e+003, 6.492892e-002
1.016302e+003, 6.446151e-002
1.018230e+003, 6.420597e-002
1.020159e+003, 6.408247e-002
1.022087e+003, 6.400128e-002
1.024016e+003, 6.411155e-002
1.025944e+003, 6.427474e-002
1.027873e+003, 6.448012e-002
1.029801e+003, 6.498784e-002
1.031730e+003, 6.563751e-002
1.033658e+003, 6.648313e-002
1.035587e+003, 6.750370e-002
1.037515e+003, 6.887268e-002
1.039443e+003, 7.058054e-002
1.041372e+003, 7.243387e-002
1.043300e+003, 7.451263e-002
1.045229e+003, 7.709019e-002
1.047157e+003, 8.014864e-002
1.049086e+003, 8.372247e-002
1.051014e+003, 8.771683e-002
1.052943e+003, 9.244472e-002
1.054871e+003, 9.808534e-002
1.056800e+003, 1.045108e-001
1.058728e+003, 1.118999e-001
1.060657e+003, 1.207334e-001
1.062585e+003, 1.310683e-001
1.064514e+003, 1.430782e-001
1.066442e+003, 1.571692e-001
1.068370e+003, 1.734275e-001
1.070299e+003, 1.914212e-001
1.072227e+003, 2.111354e-001
1.074156e+003, 2.332895e-001
1.076084e+003, 2.589551e-001
1.078013e+003, 2.886932e-001
1.079941e+003, 3.216256e-001
1.081870e+003, 3.530844e-001
1.083798e+003, 3.741448e-001
1.085727e+003, 3.770905e-001
1.087655e+003, 3.617510e-001
1.089584e+003, 3.355662e-001
1.091512e+003, 3.060611e-001
1.093441e+003, 2.778113e-001
1.095369e+003, 2.538181e-001
1.097297e+003, 2.360500e-001
1.099226e+003, 2.259193e-001
1.101154e+003, 2.233978e-001
1.103083e+003, 2.275171e-001
1.105011e+003, 2.357850e-001
1.106940e+003, 2.456086e-001
1.108868e+003, 2.554316e-001
1.110797e+003, 2.639853e-001
1.112725e+003, 2.698494e-001
1.114654e+003, 2.718233e-001
1.116582e+003, 2.697793e-001
1.118511e+003, 2.641201e-001
1.120439e+003, 2.558187e-001
1.122368e+003, 2.464549e-001
1.124296e+003, 2.375760e-001
1.126224e+003, 2.291824e-001
1.128153e+003, 2.179922e-001
1.130081e+003, 2.008030e-001
1.132010e+003, 1.794945e-001
1.133938e+003, 1.584232e-001
1.135867e+003, 1.414492e-001
1.137795e+003, 1.292198e-001
1.139724e+003, 1.181806e-001
1.141652e+003, 1.043506e-001
1.143581e+003, 8.744074e-002
1.145509e+003, 7.058509e-002
1.147438e+003, 5.662617e-002
1.149366e+003, 4.641361e-002
1.151295e+003, 3.913478e-002
1.153223e+003, 3.370632e-002
1.155151e+003, 2.946116e-002
1.157080e+003, 2.618618e-002
1.159008e+003, 2.353236e-002
1.160937e+003, 2.131983e-002
1.162865e+003, 1.943534e-002
1.164794e+003, 1.785609e-002
1.166722e+003, 1.649922e-002
1.168651e+003, 1.548980e-002
1.170579e+003, 1.464011e-002
1.172508e+003, 1.392916e-002
1.174436e+003, 1.324089e-002
1.176365e+003, 1.260156e-002
1.178293e+003, 1.204776e-002
1.180222e+003, 1.172244e-002
1.182150e+003, 1.140260e-002
1.184078e+003, 1.103492e-002
1.186007e+003, 1.070925e-002
1.187935e+003, 1.052029e-002
1.189864e+003, 1.038717e-002
1.191792e+003, 1.034727e-002
1.193721e+003, 1.019269e-002
1.195649e+003, 1.002268e-002
1.197578e+003, 1.001628e-002
1.199506e+003, 1.003211e-002
1.201435e+003, 9.872013e-003
1.203363e+003, 9.745400e-003
1.205292e+003, 9.784472e-003
1.207220e+003, 9.780507e-003
1.209149e+003, 9.670654e-003
1.211077e+003, 9.627619e-003
1.213005e+003, 9.535989e-003
1.214934e+003, 9.546131e-003
1.216862e+003, 9.533796e-003
1.218791e+003, 9.515010e-003
1.220719e+003, 9.418428e-003
1.222648e+003, 9.330912e-003
1.224576e+003, 9.185140e-003
1.226505e+003, 9.022173e-003
1.228433e+003, 8.849396e-003
1.230362e+003, 8.788008e-003
1.232290e+003, 8.784298e-003
1.234219e+003, 8.762320e-003
1.236147e+003, 8.684038e-003
1.238076e+003, 8.631468e-003
1.240004e+003, 8.550267e-003
1.241932e+003, 8.525130e-003
1.243861e+003, 8.490338e-003
1.245789e+003, 8.396031e-003
1.247718e+003, 8.367456e-003
1.249646e+003, 8.445423e-003
1.251575e+003, 8.490670e-003
1.253503e+003, 8.564831e-003
1.255432e+003, 8.434863e-003
1.257360e+003, 8.403392e-003
1.259289e+003, 8.443427e-003
1.261217e+003, 8.465263e-003
1.263146e+003, 8.497025e-003
1.265074e+003, 8.570868e-003
1.267003e+003, 8.511493e-003
1.268931e+003, 8.605233e-003
1.270859e+003, 8.826748e-003
1.272788e+003, 9.142569e-003
1.274716e+003, 9.335070e-003
1.276645e+003, 9.520551e-003
1.278573e+003, 9.649354e-003
1.280502e+003, 9.524008e-003
1.282430e+003, 9.381607e-003
1.284359e+003, 9.264910e-003
1.286287e+003, 9.134852e-003
1.288216e+003, 9.062475e-003
1.290144e+003, 8.985257e-003
1.292073e+003, 8.999250e-003
1.294001e+003, 9.095553e-003
1.295930e+003, 9.116567e-003
1.297858e+003, 9.015168e-003
1.299786e+003, 9.002621e-003
1.301715e+003, 9.090703e-003
1.303643e+003, 9.152374e-003
1.305572e+003, 9.118085e-003
1.307500e+003, 9.149389e-003
1.309429e+003, 9.203183e-003
1.311357e+003, 9.284000e-003
1.313286e+003, 9.413149e-003
1.315214e+003, 9.561582e-003
1.317143e+003, 9.682167e-003
1.319071e+003, 9.787609e-003
1.321000e+003, 9.808742e-003
1.322928e+003, 9.915373e-003
1.324857e+003, 1.007642e-002
1.326785e+003, 1.025051e-002
1.328714e+003, 1.035582e-002
1.330642e+003, 1.046751e-002
1.332570e+003, 1.063003e-002
1.334499e+003, 1.068389e-002
1.336427e+003, 1.066763e-002
1.338356e+003, 1.070164e-002
1.340284e+003, 1.073481e-002
1.342213e+003, 1.076182e-002
1.344141e+003, 1.080856e-002
1.346070e+003, 1.101438e-002
1.347998e+003, 1.120096e-002
1.349927e+003, 1.139314e-002
1.351855e+003, 1.151708e-002
1.353784e+003, 1.176933e-002
1.355712e+003, 1.192108e-002
1.357641e+003, 1.210567e-002
1.359569e+003, 1.244189e-002
1.361497e+003, 1.292025e-002
1.363426e+003, 1.331873e-002
1.365354e+003, 1.364200e-002
1.367283e+003, 1.370746e-002
1.369211e+003, 1.347614e-002
1.371140e+003, 1.312790e-002
1.373068e+003, 1.273458e-002
1.374997e+003, 1.240154e-002
1.376925e+003, 1.220130e-002
1.378854e+003, 1.198845e-002
1.380782e+003, 1.181554e-002
1.382711e+003, 1.167369e-002
1.384639e+003, 1.153720e-002
1.386568e+003, 1.139344e-002
1.388496e+003, 1.138076e-002
1.390424e+003, 1.136326e-002
1.392353e+003, 1.136800e-002
1.394281e+003, 1.137695e-002
1.396210e+003, 1.138127e-002
1.398138e+003, 1.148344e-002
1.400067e+003, 1.165897e-002
1.401995e+003, 1.171844e-002
1.403924e+003, 1.179585e-002
1.405852e+003, 1.188793e-002
1.407781e+003, 1.216072e-002
1.409709e+003, 1.238213e-002
1.411638e+003, 1.245551e-002
1.413566e+003, 1.240866e-002
1.415495e+003, 1.249881e-002
1.417423e+003, 1.264298e-002
1.419351e+003, 1.289249e-002
1.421280e+003, 1.334692e-002
1.423208e+003, 1.377178e-002
1.425137e+003, 1.392167e-002
1.427065e+003, 1.384727e-002
1.428994e+003, 1.355048e-002
1.430922e+003, 1.322475e-002
1.432851e+003, 1.310520e-002
1.434779e+003, 1.295444e-002
1.436708e+003, 1.278169e-002
1.438636e+003, 1.294018e-002
1.440565e+003, 1.287542e-002
1.442493e+003, 1.275070e-002
1.444422e+003, 1.270048e-002
1.446350e+003, 1.270359e-002
1.448278e+003, 1.262025e-002
1.450207e+003, 1.266361e-002
1.452135e+003, 1.271275e-002
1.454064e+003, 1.279275e-002
1.455992e+003, 1.274262e-002
1.457921e+003, 1.276151e-002
1.459849e+003, 1.291215e-002
1.461778e+003, 1.301828e-002
1.463706e+003, 1.305970e-002
1.465635e+003, 1.315374e-002
1.467563e+003, 1.311327e-002
1.469492e+003, 1.291216e-002
1.471420e+003, 1.265022e-002
1.473349e+003, 1.252256e-002
1.475277e+003, 1.257425e-002
1.477205e+003, 1.267149e-002
1.479134e+003, 1.269513e-002
1.481062e+003, 1.274196e-002
1.482991e+003, 1.287279e-002
1.484919e+003, 1.296491e-002
1.486848e+003, 1.286395e-002
1.488776e+003, 1.285618e-002
1.490705e+003, 1.297365e-002
1.492633e+003, 1.307390e-002
1.494562e+003, 1.296954e-002
1.496490e+003, 1.291830e-002
1.498419e+003, 1.307225e-002
1.500347e+003, 1.325597e-002
1.502276e+003, 1.325584e-002
1.504204e+003, 1.308328e-002
1.506132e+003, 1.293910e-002
1.508061e+003, 1.316485e-002
1.509989e+003, 1.340506e-002
1.511918e+003, 1.343364e-002
1.513846e+003, 1.340404e-002
1.515775e+003, 1.337741e-002
1.517703e+003, 1.336754e-002
1.519632e+003, 1.330208e-002
1.521560e+003, 1.322405e-002
1.523489e+003, 1.342908e-002
1.525417e+003, 1.366899e-002
1.527346e+003, 1.388908e-002
1.529274e+003, 1.409318e-002
1.531203e+003, 1.426779e-002
1.533131e+003, 1.428945e-002
1.535059e+003, 1.453356e-002
1.536988e+003, 1.471158e-002
1.538916e+003, 1.474496e-002
1.540845e+003, 1.504086e-002
1.542773e+003, 1.544979e-002
1.544702e+003, 1.573849e-002
1.546630e+003, 1.596671e-002
1.548559e+003, 1.588810e-002
1.550487e+003, 1.587067e-002
1.552416e+003, 1.584261e-002
1.554344e+003, 1.575881e-002
1.556273e+003, 1.562607e-002
1.558201e+003, 1.543293e-002
1.560130e+003, 1.545315e-002
1.562058e+003, 1.564983e-002
1.563986e+003, 1.575688e-002
1.565915e+003, 1.565208e-002
1.567843e+003, 1.565777e-002
1.569772e+003, 1.575327e-002
1.571700e+003, 1.587188e-002
1.573629e+003, 1.589146e-002
1.575557e+003, 1.571992e-002
1.577486e+003, 1.592832e-002
1.579414e+003, 1.612341e-002
1.581343e+003, 1.616575e-002
1.583271e+003, 1.628018e-002
1.585200e+003, 1.639744e-002
1.587128e+003, 1.646254e-002
1.589057e+003, 1.643041e-002
1.590985e+003, 1.646533e-002
1.592913e+003, 1.657617e-002
1.594842e+003, 1.651920e-002
1.596770e+003, 1.645598e-002
1.598699e+003, 1.639241e-002
1.600627e+003, 1.634249e-002
1.602556e+003, 1.635442e-002
1.604484e+003, 1.632966e-002
1.606413e+003, 1.631706e-002
1.608341e+003, 1.627749e-002
1.610270e+003, 1.625739e-002
1.612198e+003, 1.643414e-002
1.614127e+003, 1.653185e-002
1.616055e+003, 1.631877e-002
1.617984e+003, 1.643408e-002
1.619912e+003, 1.676892e-002
1.621840e+003, 1.679529e-002
1.623769e+003, 1.680361e-002
1.625697e+003, 1.685714e-002
1.627626e+003, 1.695183e-002
1.629554e+003, 1.709849e-002
1.631483e+003, 1.728081e-002
1.633411e+003, 1.730815e-002
1.635340e+003, 1.724017e-002
1.637268e+003, 1.736020e-002
1.639197e+003, 1.760706e-002
1.641125e+003, 1.776648e-002
1.643054e+003, 1.784872e-002
1.644982e+003, 1.778476e-002
1.646911e+003, 1.783653e-002
