##NAMES=Marialite
##RRUFFID=R040113
##IDEAL CHEMISTRY=Na_4_Al_3_Si_9_O_24_Cl
##LOCALITY=Gouverneur, New York, USA
##OWNER=RRUFF
##SOURCE=University of Arizona Mineral Museum
##DESCRIPTION=Green prismatic crystal
##STATUS=The identification of this mineral has been confirmed by X-ray diffraction and chemical analysis
##URL=rruff.info/R040113
##MEASURED CHEMISTRY=(Na_0.50_Ca_0.43_K_0.07_)_4_(Si_0.64_Al_0.36_)_12_O_24_(Cl_0.60_(CO_3_)_0.40_)
3.741225e+002, 1.091688e-001
3.760510e+002, 1.127503e-001
3.779795e+002, 1.133456e-001
3.799079e+002, 1.236267e-001
3.818364e+002, 1.323117e-001
3.837649e+002, 1.320091e-001
3.856933e+002, 1.332660e-001
3.876218e+002, 1.299376e-001
3.895503e+002, 1.284991e-001
3.914787e+002, 1.326852e-001
3.934072e+002, 1.337819e-001
3.953357e+002, 1.336855e-001
3.972641e+002, 1.409085e-001
3.991926e+002, 1.496191e-001
4.011211e+002, 1.622379e-001
4.030495e+002, 1.662003e-001
4.049780e+002, 1.678853e-001
4.069065e+002, 1.716378e-001
4.088349e+002, 1.703033e-001
4.107634e+002, 1.656614e-001
4.126919e+002, 1.638398e-001
4.146203e+002, 1.633393e-001
4.165488e+002, 1.626125e-001
4.184773e+002, 1.596211e-001
4.204057e+002, 1.557827e-001
4.223342e+002, 1.528783e-001
4.242627e+002, 1.521900e-001
4.261911e+002, 1.514586e-001
4.281196e+002, 1.488247e-001
4.300481e+002, 1.451357e-001
4.319765e+002, 1.427155e-001
4.339050e+002, 1.415685e-001
4.358335e+002, 1.430562e-001
4.377619e+002, 1.458005e-001
4.396904e+002, 1.507318e-001
4.416189e+002, 1.571339e-001
4.435473e+002, 1.632814e-001
4.454758e+002, 1.689226e-001
4.474043e+002, 1.728042e-001
4.493327e+002, 1.737794e-001
4.512612e+002, 1.738196e-001
4.531897e+002, 1.735478e-001
4.551181e+002, 1.732651e-001
4.570466e+002, 1.706713e-001
4.589751e+002, 1.650491e-001
4.609035e+002, 1.571054e-001
4.628320e+002, 1.467187e-001
4.647605e+002, 1.368626e-001
4.666889e+002, 1.279071e-001
4.686174e+002, 1.174793e-001
4.705459e+002, 1.072105e-001
4.724743e+002, 9.758110e-002
4.744028e+002, 8.843227e-002
4.763313e+002, 7.980087e-002
4.782597e+002, 7.224036e-002
4.801882e+002, 6.602953e-002
4.821167e+002, 6.042135e-002
4.840451e+002, 5.612245e-002
4.859736e+002, 5.332510e-002
4.879021e+002, 5.166155e-002
4.898305e+002, 5.136390e-002
4.917590e+002, 5.191166e-002
4.936875e+002, 5.161438e-002
4.956159e+002, 5.022506e-002
4.975444e+002, 4.886692e-002
4.994729e+002, 4.829955e-002
5.014013e+002, 4.850746e-002
5.033298e+002, 4.931522e-002
5.052583e+002, 5.087413e-002
5.071867e+002, 5.327846e-002
5.091152e+002, 5.624862e-002
5.110437e+002, 6.019893e-002
5.129721e+002, 6.473131e-002
5.149006e+002, 7.024187e-002
5.168290e+002, 7.595914e-002
5.187575e+002, 8.131146e-002
5.206860e+002, 8.721585e-002
5.226144e+002, 9.398779e-002
5.245429e+002, 1.005493e-001
5.264714e+002, 1.066737e-001
5.283998e+002, 1.128401e-001
5.303283e+002, 1.187317e-001
5.322568e+002, 1.241785e-001
5.341852e+002, 1.292427e-001
5.361137e+002, 1.330677e-001
5.380422e+002, 1.353316e-001
5.399706e+002, 1.363860e-001
5.418991e+002, 1.357577e-001
5.438276e+002, 1.329166e-001
5.457560e+002, 1.282341e-001
5.476845e+002, 1.222440e-001
5.496130e+002, 1.154361e-001
5.515414e+002, 1.082584e-001
5.534699e+002, 1.012832e-001
5.553984e+002, 9.433097e-002
5.573268e+002, 8.704419e-002
5.592553e+002, 7.996939e-002
5.611838e+002, 7.337749e-002
5.631122e+002, 6.749939e-002
5.650407e+002, 6.209764e-002
5.669692e+002, 5.667099e-002
5.688976e+002, 5.232795e-002
5.708261e+002, 4.932414e-002
5.727546e+002, 4.680065e-002
5.746830e+002, 4.478250e-002
5.766115e+002, 4.336166e-002
5.785400e+002, 4.187517e-002
5.804684e+002, 4.013708e-002
5.823969e+002, 3.842605e-002
5.843254e+002, 3.694361e-002
5.862538e+002, 3.598126e-002
5.881823e+002, 3.539336e-002
5.901108e+002, 3.516104e-002
5.920392e+002, 3.550144e-002
5.939677e+002, 3.609329e-002
5.958962e+002, 3.696612e-002
5.978246e+002, 3.890540e-002
5.997531e+002, 4.193139e-002
6.016816e+002, 4.539271e-002
6.036100e+002, 4.899864e-002
6.055385e+002, 5.376497e-002
6.074670e+002, 5.971507e-002
6.093954e+002, 6.678393e-002
6.113239e+002, 7.573549e-002
6.132524e+002, 8.609775e-002
6.151808e+002, 9.569645e-002
6.171093e+002, 1.017054e-001
6.190378e+002, 1.014194e-001
6.209662e+002, 9.449174e-002
6.228947e+002, 8.374283e-002
6.248232e+002, 7.201378e-002
6.267516e+002, 6.097285e-002
6.286801e+002, 5.159286e-002
6.306086e+002, 4.448313e-002
6.325370e+002, 3.942145e-002
6.344655e+002, 3.612649e-002
6.363940e+002, 3.411562e-002
6.383224e+002, 3.270596e-002
6.402509e+002, 3.173486e-002
6.421794e+002, 3.094645e-002
6.441078e+002, 3.051711e-002
6.460363e+002, 3.006978e-002
6.479648e+002, 2.958124e-002
6.498932e+002, 2.945424e-002
6.518217e+002, 2.950164e-002
6.537502e+002, 2.955694e-002
6.556786e+002, 2.986787e-002
6.576071e+002, 3.035914e-002
6.595356e+002, 3.075696e-002
6.614641e+002, 3.120694e-002
6.633925e+002, 3.190074e-002
6.653210e+002, 3.280409e-002
6.672495e+002, 3.400867e-002
6.691779e+002, 3.521548e-002
6.711064e+002, 3.675399e-002
6.730349e+002, 3.851976e-002
6.749633e+002, 4.043737e-002
6.768918e+002, 4.264497e-002
6.788203e+002, 4.490976e-002
6.807487e+002, 4.723315e-002
6.826772e+002, 4.960362e-002
6.846057e+002, 5.185499e-002
6.865341e+002, 5.368515e-002
6.884626e+002, 5.508094e-002
6.903911e+002, 5.598605e-002
6.923195e+002, 5.662338e-002
6.942480e+002, 5.692289e-002
6.961765e+002, 5.701219e-002
6.981049e+002, 5.662885e-002
7.000334e+002, 5.576994e-002
7.019619e+002, 5.452396e-002
7.038903e+002, 5.306138e-002
7.058188e+002, 5.124136e-002
7.077473e+002, 4.931280e-002
7.096757e+002, 4.759891e-002
7.116042e+002, 4.641573e-002
7.135327e+002, 4.526057e-002
7.154611e+002, 4.391629e-002
7.173896e+002, 4.290772e-002
7.193181e+002, 4.247497e-002
7.212465e+002, 4.241389e-002
7.231750e+002, 4.262428e-002
7.251035e+002, 4.286642e-002
7.270319e+002, 4.308128e-002
7.289604e+002, 4.332364e-002
7.308889e+002, 4.359497e-002
7.328173e+002, 4.387936e-002
7.347458e+002, 4.415255e-002
7.366743e+002, 4.444623e-002
7.386027e+002, 4.502058e-002
7.405312e+002, 4.597819e-002
7.424597e+002, 4.747383e-002
7.443881e+002, 5.007117e-002
7.463166e+002, 5.328628e-002
7.482451e+002, 5.649038e-002
7.501735e+002, 5.912850e-002
7.521020e+002, 6.002314e-002
7.540305e+002, 5.863092e-002
7.559589e+002, 5.519683e-002
7.578874e+002, 5.040524e-002
7.598159e+002, 4.549350e-002
7.617443e+002, 4.085307e-002
7.636728e+002, 3.700621e-002
7.656013e+002, 3.407999e-002
7.675297e+002, 3.182750e-002
7.694582e+002, 2.990111e-002
7.713867e+002, 2.830188e-002
7.733151e+002, 2.705527e-002
7.752436e+002, 2.616502e-002
7.771721e+002, 2.526312e-002
7.791005e+002, 2.424093e-002
7.810290e+002, 2.310411e-002
7.829575e+002, 2.225864e-002
7.848859e+002, 2.184423e-002
7.868144e+002, 2.154548e-002
7.887429e+002, 2.146697e-002
7.906713e+002, 2.164503e-002
7.925998e+002, 2.176045e-002
7.945283e+002, 2.197051e-002
7.964567e+002, 2.232737e-002
7.983852e+002, 2.268644e-002
8.003137e+002, 2.309034e-002
8.022421e+002, 2.341576e-002
8.041706e+002, 2.377491e-002
8.060991e+002, 2.423188e-002
8.080275e+002, 2.454857e-002
8.099560e+002, 2.503101e-002
8.118845e+002, 2.572408e-002
8.138129e+002, 2.638314e-002
8.157414e+002, 2.686797e-002
8.176699e+002, 2.739743e-002
8.195983e+002, 2.812773e-002
8.215268e+002, 2.897750e-002
8.234553e+002, 2.988563e-002
8.253837e+002, 3.062358e-002
8.273122e+002, 3.131932e-002
8.292407e+002, 3.218642e-002
8.311691e+002, 3.291487e-002
8.330976e+002, 3.375291e-002
8.350261e+002, 3.486575e-002
8.369545e+002, 3.606515e-002
8.388830e+002, 3.736013e-002
8.408115e+002, 3.895903e-002
8.427399e+002, 4.081610e-002
8.446684e+002, 4.298971e-002
8.465969e+002, 4.570832e-002
8.485253e+002, 4.905416e-002
8.504538e+002, 5.124669e-002
8.523823e+002, 5.114830e-002
8.543107e+002, 4.988161e-002
8.562392e+002, 4.957820e-002
8.581677e+002, 5.066084e-002
8.600961e+002, 5.167831e-002
8.620246e+002, 5.253267e-002
8.639531e+002, 5.331196e-002
8.658815e+002, 5.415620e-002
8.678100e+002, 5.534438e-002
8.697385e+002, 5.695662e-002
8.716669e+002, 5.877476e-002
8.735954e+002, 6.061906e-002
8.755239e+002, 6.247843e-002
8.774523e+002, 6.390522e-002
8.793808e+002, 6.476185e-002
8.813093e+002, 6.581577e-002
8.832377e+002, 6.693866e-002
8.851662e+002, 6.806987e-002
8.870947e+002, 6.950244e-002
8.890231e+002, 7.147441e-002
8.909516e+002, 7.402589e-002
8.928801e+002, 7.682166e-002
8.948085e+002, 7.965433e-002
8.967370e+002, 8.263659e-002
8.986655e+002, 8.587545e-002
9.005939e+002, 8.939356e-002
9.025224e+002, 9.283217e-002
9.044509e+002, 9.627002e-002
9.063793e+002, 9.991297e-002
9.083078e+002, 1.036743e-001
9.102363e+002, 1.075580e-001
9.121647e+002, 1.114455e-001
9.140932e+002, 1.153819e-001
9.160217e+002, 1.195575e-001
9.179501e+002, 1.241067e-001
9.198786e+002, 1.287808e-001
9.218071e+002, 1.336703e-001
9.237355e+002, 1.384964e-001
9.256640e+002, 1.433489e-001
9.275925e+002, 1.486222e-001
9.295209e+002, 1.538881e-001
9.314494e+002, 1.590891e-001
9.333779e+002, 1.641565e-001
9.353063e+002, 1.688301e-001
9.372348e+002, 1.732132e-001
9.391633e+002, 1.774230e-001
9.410917e+002, 1.813890e-001
9.430202e+002, 1.850415e-001
9.449487e+002, 1.884408e-001
9.468771e+002, 1.913622e-001
9.488056e+002, 1.935449e-001
9.507341e+002, 1.952251e-001
9.526625e+002, 1.968472e-001
9.545910e+002, 1.979004e-001
9.565195e+002, 1.985507e-001
9.584479e+002, 1.992231e-001
9.603764e+002, 1.999080e-001
9.623049e+002, 2.006625e-001
9.642333e+002, 2.017630e-001
9.661618e+002, 2.033122e-001
9.680903e+002, 2.049322e-001
9.700187e+002, 2.065287e-001
9.719472e+002, 2.081861e-001
9.738757e+002, 2.099737e-001
9.758041e+002, 2.116650e-001
9.777326e+002, 2.133092e-001
9.796611e+002, 2.148920e-001
9.815895e+002, 2.165098e-001
9.835180e+002, 2.178484e-001
9.854465e+002, 2.185904e-001
9.873749e+002, 2.189715e-001
9.893034e+002, 2.190138e-001
9.912319e+002, 2.185073e-001
9.931603e+002, 2.178669e-001
9.950888e+002, 2.173888e-001
9.970173e+002, 2.168760e-001
9.989457e+002, 2.162088e-001
1.000874e+003, 2.152637e-001
1.002803e+003, 2.142054e-001
1.004731e+003, 2.133428e-001
1.006660e+003, 2.122317e-001
1.008588e+003, 2.107900e-001
1.010517e+003, 2.093612e-001
1.012445e+003, 2.078989e-001
1.014373e+003, 2.062532e-001
1.016302e+003, 2.044433e-001
1.018230e+003, 2.023397e-001
1.020159e+003, 1.997367e-001
1.022087e+003, 1.968770e-001
1.024016e+003, 1.938175e-001
1.025944e+003, 1.903561e-001
1.027873e+003, 1.864883e-001
1.029801e+003, 1.823896e-001
1.031730e+003, 1.777741e-001
1.033658e+003, 1.724783e-001
1.035587e+003, 1.668482e-001
1.037515e+003, 1.608301e-001
1.039443e+003, 1.544723e-001
1.041372e+003, 1.478466e-001
1.043300e+003, 1.410057e-001
1.045229e+003, 1.346277e-001
1.047157e+003, 1.285450e-001
1.049086e+003, 1.229374e-001
1.051014e+003, 1.182698e-001
1.052943e+003, 1.141909e-001
1.054871e+003, 1.106751e-001
1.056800e+003, 1.076515e-001
1.058728e+003, 1.049328e-001
1.060657e+003, 1.027404e-001
1.062585e+003, 1.009807e-001
1.064514e+003, 9.943407e-002
1.066442e+003, 9.820113e-002
1.068370e+003, 9.700805e-002
1.070299e+003, 9.607731e-002
1.072227e+003, 9.544291e-002
1.074156e+003, 9.453488e-002
1.076084e+003, 9.375278e-002
1.078013e+003, 9.327441e-002
1.079941e+003, 9.276170e-002
1.081870e+003, 9.237926e-002
1.083798e+003, 9.235091e-002
1.085727e+003, 9.261244e-002
1.087655e+003, 9.294162e-002
1.089584e+003, 9.323119e-002
1.091512e+003, 9.361051e-002
1.093441e+003, 9.389933e-002
1.095369e+003, 9.380249e-002
1.097297e+003, 9.349854e-002
1.099226e+003, 9.318106e-002
1.101154e+003, 9.283955e-002
1.103083e+003, 9.237496e-002
1.105011e+003, 9.160049e-002
1.106940e+003, 9.054554e-002
1.108868e+003, 8.943021e-002
1.110797e+003, 8.819527e-002
1.112725e+003, 8.667761e-002
1.114654e+003, 8.495037e-002
1.116582e+003, 8.295783e-002
1.118511e+003, 8.087566e-002
1.120439e+003, 7.868473e-002
1.122368e+003, 7.612682e-002
1.124296e+003, 7.330205e-002
1.126224e+003, 7.023598e-002
1.128153e+003, 6.677887e-002
1.130081e+003, 6.317865e-002
1.132010e+003, 5.963262e-002
1.133938e+003, 5.590649e-002
1.135867e+003, 5.214634e-002
1.137795e+003, 4.838512e-002
1.139724e+003, 4.480033e-002
1.141652e+003, 4.131272e-002
1.143581e+003, 3.813211e-002
1.145509e+003, 3.553545e-002
1.147438e+003, 3.366409e-002
1.149366e+003, 3.280983e-002
1.151295e+003, 3.314956e-002
1.153223e+003, 3.414664e-002
1.155151e+003, 3.569840e-002
1.157080e+003, 3.774256e-002
1.159008e+003, 4.021813e-002
1.160937e+003, 4.312650e-002
1.162865e+003, 4.636557e-002
1.164794e+003, 5.005362e-002
1.166722e+003, 5.387029e-002
1.168651e+003, 5.756996e-002
1.170579e+003, 6.122634e-002
1.172508e+003, 6.482779e-002
1.174436e+003, 6.809393e-002
1.176365e+003, 7.086557e-002
1.178293e+003, 7.286606e-002
1.180222e+003, 7.391047e-002
1.182150e+003, 7.407553e-002
1.184078e+003, 7.335337e-002
1.186007e+003, 7.178896e-002
1.187935e+003, 6.923874e-002
1.189864e+003, 6.600039e-002
1.191792e+003, 6.269822e-002
1.193721e+003, 5.923180e-002
1.195649e+003, 5.578215e-002
1.197578e+003, 5.259217e-002
1.199506e+003, 4.958307e-002
1.201435e+003, 4.665726e-002
1.203363e+003, 4.404280e-002
1.205292e+003, 4.162564e-002
1.207220e+003, 3.911200e-002
1.209149e+003, 3.642412e-002
1.211077e+003, 3.369167e-002
1.213005e+003, 3.104830e-002
1.214934e+003, 2.830829e-002
1.216862e+003, 2.542370e-002
1.218791e+003, 2.254499e-002
1.220719e+003, 1.971808e-002
1.222648e+003, 1.694226e-002
1.224576e+003, 1.448562e-002
1.226505e+003, 1.238323e-002
1.228433e+003, 1.068580e-002
1.230362e+003, 9.338172e-003
1.232290e+003, 8.228851e-003
1.234219e+003, 7.260113e-003
1.236147e+003, 6.400637e-003
1.238076e+003, 5.702312e-003
1.240004e+003, 5.194744e-003
1.241932e+003, 4.837007e-003
1.243861e+003, 4.456446e-003
1.245789e+003, 4.033286e-003
1.247718e+003, 3.713025e-003
1.249646e+003, 3.424449e-003
1.251575e+003, 3.212000e-003
1.253503e+003, 3.053888e-003
1.255432e+003, 2.851333e-003
1.257360e+003, 2.623480e-003
1.259289e+003, 2.432435e-003
1.261217e+003, 2.311907e-003
1.263146e+003, 2.154595e-003
1.265074e+003, 2.049346e-003
1.267003e+003, 1.958279e-003
1.268931e+003, 1.766127e-003
1.270859e+003, 1.823366e-003
1.272788e+003, 1.872612e-003
1.274716e+003, 1.810888e-003
1.276645e+003, 1.717068e-003
1.278573e+003, 1.776795e-003
1.280502e+003, 2.049663e-003
1.282430e+003, 2.183502e-003
1.284359e+003, 2.203340e-003
1.286287e+003, 2.239275e-003
1.288216e+003, 2.177174e-003
1.290144e+003, 1.964858e-003
1.292073e+003, 1.985815e-003
1.294001e+003, 2.053388e-003
1.295930e+003, 1.906344e-003
1.297858e+003, 1.723137e-003
1.299786e+003, 1.752978e-003
1.301715e+003, 1.811026e-003
1.303643e+003, 1.862787e-003
1.305572e+003, 1.792916e-003
1.307500e+003, 1.708851e-003
1.309429e+003, 1.639465e-003
1.311357e+003, 1.651403e-003
1.313286e+003, 1.775188e-003
1.315214e+003, 1.788660e-003
1.317143e+003, 1.743942e-003
1.319071e+003, 1.816269e-003
1.321000e+003, 1.798313e-003
1.322928e+003, 1.660672e-003
1.324857e+003, 1.673770e-003
1.326785e+003, 1.795369e-003
1.328714e+003, 1.805206e-003
1.330642e+003, 1.803165e-003
1.332570e+003, 1.890934e-003
1.334499e+003, 1.983755e-003
1.336427e+003, 2.151515e-003
1.338356e+003, 2.296466e-003
1.340284e+003, 2.306937e-003
1.342213e+003, 2.437009e-003
1.344141e+003, 2.510397e-003
1.346070e+003, 2.462519e-003
1.347998e+003, 2.557671e-003
1.349927e+003, 2.701311e-003
1.351855e+003, 2.794165e-003
1.353784e+003, 3.016671e-003
1.355712e+003, 3.226239e-003
1.357641e+003, 3.347473e-003
1.359569e+003, 3.609093e-003
1.361497e+003, 3.849987e-003
1.363426e+003, 3.975750e-003
1.365354e+003, 4.167066e-003
1.367283e+003, 4.390868e-003
1.369211e+003, 4.566035e-003
1.371140e+003, 4.916955e-003
1.373068e+003, 5.363927e-003
1.374997e+003, 5.699162e-003
1.376925e+003, 6.039324e-003
1.378854e+003, 6.351185e-003
1.380782e+003, 6.774669e-003
1.382711e+003, 7.415012e-003
1.384639e+003, 7.942107e-003
1.386568e+003, 8.498809e-003
1.388496e+003, 9.133373e-003
1.390424e+003, 9.803087e-003
1.392353e+003, 1.046957e-002
1.394281e+003, 1.116868e-002
1.396210e+003, 1.185971e-002
1.398138e+003, 1.253841e-002
1.400067e+003, 1.335337e-002
1.401995e+003, 1.446163e-002
1.403924e+003, 1.564405e-002
1.405852e+003, 1.675260e-002
1.407781e+003, 1.788932e-002
1.409709e+003, 1.922586e-002
1.411638e+003, 2.053225e-002
1.413566e+003, 2.173257e-002
1.415495e+003, 2.270733e-002
1.417423e+003, 2.357613e-002
1.419351e+003, 2.420971e-002
1.421280e+003, 2.441443e-002
1.423208e+003, 2.446110e-002
1.425137e+003, 2.434088e-002
1.427065e+003, 2.391640e-002
1.428994e+003, 2.343763e-002
1.430922e+003, 2.306476e-002
1.432851e+003, 2.258442e-002
1.434779e+003, 2.207510e-002
1.436708e+003, 2.152686e-002
1.438636e+003, 2.072344e-002
1.440565e+003, 1.974552e-002
1.442493e+003, 1.873397e-002
1.444422e+003, 1.788331e-002
1.446350e+003, 1.700149e-002
1.448278e+003, 1.612704e-002
1.450207e+003, 1.537573e-002
1.452135e+003, 1.486949e-002
1.454064e+003, 1.463011e-002
1.455992e+003, 1.469172e-002
1.457921e+003, 1.448408e-002
1.459849e+003, 1.390861e-002
1.461778e+003, 1.347997e-002
1.463706e+003, 1.343394e-002
1.465635e+003, 1.337581e-002
1.467563e+003, 1.298251e-002
1.469492e+003, 1.275717e-002
1.471420e+003, 1.281379e-002
1.473349e+003, 1.273839e-002
1.475277e+003, 1.250544e-002
1.477205e+003, 1.220763e-002
1.479134e+003, 1.189602e-002
1.481062e+003, 1.175707e-002
1.482991e+003, 1.155227e-002
1.484919e+003, 1.147948e-002
1.486848e+003, 1.154910e-002
1.488776e+003, 1.157055e-002
1.490705e+003, 1.151448e-002
1.492633e+003, 1.142019e-002
1.494562e+003, 1.149825e-002
1.496490e+003, 1.171696e-002
1.498419e+003, 1.162095e-002
1.500347e+003, 1.155473e-002
1.502276e+003, 1.165648e-002
1.504204e+003, 1.204685e-002
1.506132e+003, 1.270325e-002
1.508061e+003, 1.290564e-002
1.509989e+003, 1.300272e-002
1.511918e+003, 1.346254e-002
1.513846e+003, 1.411575e-002
1.515775e+003, 1.512913e-002
1.517703e+003, 1.644041e-002
1.519632e+003, 1.800511e-002
1.521560e+003, 1.956676e-002
1.523489e+003, 2.089393e-002
1.525417e+003, 2.249922e-002
1.527346e+003, 2.395240e-002
1.529274e+003, 2.486337e-002
1.531203e+003, 2.519669e-002
1.533131e+003, 2.500170e-002
1.535059e+003, 2.389041e-002
1.536988e+003, 2.244242e-002
1.538916e+003, 2.111155e-002
1.540845e+003, 1.909189e-002
1.542773e+003, 1.685016e-002
1.544702e+003, 1.486552e-002
1.546630e+003, 1.290108e-002
1.548559e+003, 1.126981e-002
1.550487e+003, 1.006804e-002
1.552416e+003, 9.122159e-003
1.554344e+003, 8.416245e-003
1.556273e+003, 8.014548e-003
1.558201e+003, 7.871576e-003
1.560130e+003, 7.126348e-003
1.562058e+003, 5.877893e-003
1.563986e+003, 5.057257e-003
1.565915e+003, 4.600101e-003
1.567843e+003, 4.200712e-003
1.569772e+003, 3.873952e-003
1.571700e+003, 3.303063e-003
1.573629e+003, 2.840921e-003
1.575557e+003, 2.838742e-003
1.577486e+003, 2.440351e-003
1.579414e+003, 1.967788e-003
1.581343e+003, 1.822132e-003
1.583271e+003, 1.567825e-003
1.585200e+003, 1.455246e-003
1.587128e+003, 1.290826e-003
1.589057e+003, 1.249190e-003
1.590985e+003, 1.315139e-003
1.592913e+003, 1.253070e-003
1.594842e+003, 1.123154e-003
1.596770e+003, 1.094521e-003
1.598699e+003, 1.017540e-003
1.600627e+003, 1.008678e-003
1.602556e+003, 1.055995e-003
1.604484e+003, 1.091770e-003
1.606413e+003, 1.001931e-003
1.608341e+003, 9.088434e-004
1.610270e+003, 9.087601e-004
1.612198e+003, 9.728085e-004
1.614127e+003, 1.138680e-003
1.616055e+003, 1.427891e-003
1.617984e+003, 1.151174e-003
1.619912e+003, 8.942182e-004
1.621840e+003, 1.057152e-003
1.623769e+003, 1.112728e-003
1.625697e+003, 1.084812e-003
1.627626e+003, 1.074917e-003
1.629554e+003, 9.548599e-004
1.631483e+003, 9.604323e-004
1.633411e+003, 1.146561e-003
1.635340e+003, 1.455330e-003
1.637268e+003, 1.313989e-003
1.639197e+003, 9.670564e-004
1.641125e+003, 8.977379e-004
1.643054e+003, 9.258292e-004
1.644982e+003, 1.238721e-003
1.646911e+003, 1.359080e-003
1.648839e+003, 1.186856e-003
1.650767e+003, 1.537380e-003
1.652696e+003, 2.048900e-003
1.654624e+003, 1.542626e-003
1.656553e+003, 9.342351e-004
1.658481e+003, 6.898572e-004
1.660410e+003, 6.063605e-004
1.662338e+003, 8.031793e-004
1.664267e+003, 7.815385e-004
1.666195e+003, 7.180670e-004
1.668124e+003, 8.005648e-004
1.670052e+003, 7.642158e-004
1.671981e+003, 7.709832e-004
1.673909e+003, 8.286798e-004
1.675838e+003, 7.656597e-004
1.677766e+003, 5.998417e-004
1.679694e+003, 6.550706e-004
1.681623e+003, 7.422151e-004
1.683551e+003, 1.201656e-003
1.685480e+003, 1.211710e-003
1.687408e+003, 7.640430e-004
1.689337e+003, 5.856977e-004
1.691265e+003, 4.754507e-004
1.693194e+003, 6.293859e-004
1.695122e+003, 1.226438e-003
1.697051e+003, 1.206214e-003
1.698979e+003, 1.091165e-003
1.700908e+003, 1.150830e-003
1.702836e+003, 8.307882e-004
1.704765e+003, 8.569585e-004
1.706693e+003, 6.746409e-004
1.708621e+003, 5.111543e-004
1.710550e+003, 4.405647e-004
1.712478e+003, 5.297005e-004
1.714407e+003, 6.017070e-004
1.716335e+003, 8.590082e-004
1.718264e+003, 6.744195e-004
1.720192e+003, 1.224811e-004
1.722121e+003, -6.807991e-005
1.724049e+003, -1.453105e-004
1.725978e+003, -2.279654e-004
1.727906e+003, -1.511686e-004
1.729835e+003, -2.254758e-004
1.731763e+003, -3.295402e-005
1.733692e+003, 2.295716e-004
1.735620e+003, -7.912994e-005
1.737548e+003, -4.875870e-004
1.739477e+003, -6.380887e-004
1.741405e+003, -9.081968e-004
1.743334e+003, -1.105211e-003
1.745262e+003, -1.150710e-003
1.747191e+003, -1.119600e-003
1.749119e+003, -1.000278e-003
1.751048e+003, -9.251717e-004
1.752976e+003, -1.097354e-003
1.754905e+003, -9.992560e-004
1.756833e+003, -8.438872e-004
1.758762e+003, -9.887420e-004
1.760690e+003, -9.520592e-004
1.762619e+003, -9.032218e-004
1.764547e+003, -9.338050e-004
1.766475e+003, -8.668229e-004
1.768404e+003, -6.858311e-004
1.770332e+003, -6.483551e-004
1.772261e+003, -5.297002e-004
1.774189e+003, -5.374898e-004
1.776118e+003, -7.505714e-004
1.778046e+003, -8.297660e-004
1.779975e+003, -7.827546e-004
1.781903e+003, -8.409766e-004
1.783832e+003, -7.388994e-004
1.785760e+003, -5.843213e-004
1.787689e+003, -5.974328e-004
1.789617e+003, -7.140101e-004
1.791546e+003, -6.870101e-004
1.793474e+003, -7.847442e-004
1.795402e+003, -8.150504e-004
1.797331e+003, -8.096656e-004
1.799259e+003, -7.938449e-004
1.801188e+003, -8.480446e-004
1.803116e+003, -1.041202e-003
1.805045e+003, -1.059921e-003
1.806973e+003, -1.036465e-003
1.808902e+003, -1.064192e-003
1.810830e+003, -1.220006e-003
1.812759e+003, -1.216673e-003
1.814687e+003, -1.390179e-003
1.816616e+003, -1.544904e-003
1.818544e+003, -1.198798e-003
1.820473e+003, -9.871799e-004
1.822401e+003, -1.220241e-003
1.824329e+003, -1.164903e-003
1.826258e+003, -1.096509e-003
1.828186e+003, -1.164315e-003
1.830115e+003, -1.105823e-003
1.832043e+003, -1.177893e-003
1.833972e+003, -1.370655e-003
1.835900e+003, -1.518052e-003
1.837829e+003, -1.530206e-003
1.839757e+003, -1.379008e-003
1.841686e+003, -1.408281e-003
1.843614e+003, -1.532053e-003
1.845543e+003, -1.620789e-003
1.847471e+003, -1.619839e-003
1.849400e+003, -1.646219e-003
1.851328e+003, -1.906271e-003
1.853256e+003, -1.906401e-003
1.855185e+003, -1.987171e-003
1.857113e+003, -2.201020e-003
1.859042e+003, -2.135898e-003
1.860970e+003, -1.900739e-003
1.862899e+003, -1.833410e-003
1.864827e+003, -1.918574e-003
1.866756e+003, -1.975149e-003
1.868684e+003, -1.736253e-003
1.870613e+003, -1.677166e-003
1.872541e+003, -2.055986e-003
1.874470e+003, -2.230230e-003
1.876398e+003, -2.197807e-003
1.878327e+003, -2.082797e-003
1.880255e+003, -2.078169e-003
1.882183e+003, -2.034780e-003
1.884112e+003, -2.213953e-003
1.886040e+003, -2.236558e-003
1.887969e+003, -2.040314e-003
1.889897e+003, -2.151239e-003
1.891826e+003, -2.372439e-003
1.893754e+003, -2.559027e-003
1.895683e+003, -2.379222e-003
1.897611e+003, -2.072241e-003
1.899540e+003, -2.481084e-003
1.901468e+003, -2.550237e-003
1.903397e+003, -2.279858e-003
1.905325e+003, -2.355726e-003
1.907254e+003, -2.729602e-003
1.909182e+003, -2.834465e-003
1.911110e+003, -2.998932e-003
1.913039e+003, -2.656813e-003
1.914967e+003, -2.337570e-003
1.916896e+003, -2.138383e-003
1.918824e+003, -1.917820e-003
1.920753e+003, -1.795441e-003
1.922681e+003, -2.530070e-003
1.924610e+003, -3.384231e-003
1.926538e+003, -3.858390e-003
1.928467e+003, -3.535957e-003
1.930395e+003, -3.208564e-003
1.932324e+003, -2.769310e-003
1.934252e+003, -2.468189e-003
1.936181e+003, -2.764916e-003
1.938109e+003, -2.871001e-003
1.940037e+003, -3.111222e-003
1.941966e+003, -3.016284e-003
1.943894e+003, -3.093833e-003
1.945823e+003, -3.237927e-003
1.947751e+003, -2.868729e-003
1.949680e+003, -3.340083e-003
1.951608e+003, -3.818003e-003
1.953537e+003, -3.372618e-003
1.955465e+003, -3.435451e-003
1.957394e+003, -3.641758e-003
1.959322e+003, -3.168841e-003
1.961251e+003, -2.939995e-003
1.963179e+003, -2.855748e-003
1.965108e+003, -2.912260e-003
1.967036e+003, -3.454374e-003
1.968964e+003, -3.874238e-003
1.970893e+003, -3.254210e-003
1.972821e+003, -2.248484e-003
1.974750e+003, -2.874980e-003
1.976678e+003, -3.404717e-003
1.978607e+003, -1.703699e-003
1.980535e+003, 2.834098e-004
1.982464e+003, -3.780939e-004
1.984392e+003, -1.583090e-003
1.986321e+003, -1.896009e-003
1.988249e+003, -2.912052e-003
1.990178e+003, -2.860704e-003
1.992106e+003, -1.878218e-003
1.994035e+003, -2.265653e-003
1.995963e+003, -2.551189e-003
1.997891e+003, -2.208604e-003
1.999820e+003, -2.034666e-003
2.001748e+003, -2.593473e-003
2.003677e+003, -3.722443e-003
2.005605e+003, -4.125431e-003
2.007534e+003, -3.421086e-003
2.009462e+003, -3.335723e-003
2.011391e+003, -3.565794e-003
2.013319e+003, -3.031422e-003
2.015248e+003, -3.075698e-003
2.017176e+003, -3.274151e-003
2.019105e+003, -2.966930e-003
2.021033e+003, -2.862851e-003
2.022962e+003, -2.264523e-003
2.024890e+003, -2.401871e-003
2.026818e+003, -3.346676e-003
2.028747e+003, -3.728107e-003
2.030675e+003, -3.796289e-003
2.032604e+003, -3.618582e-003
2.034532e+003, -2.540073e-003
2.036461e+003, -1.754014e-003
2.038389e+003, -2.116377e-003
2.040318e+003, -2.067960e-003
2.042246e+003, -1.918097e-003
2.044175e+003, -2.567242e-003
2.046103e+003, -3.705640e-003
2.048031e+003, -2.883505e-003
2.049960e+003, -1.052146e-003
2.051888e+003, -1.874894e-003
2.053817e+003, -3.054448e-003
2.055745e+003, -3.099958e-003
2.057674e+003, -3.257002e-003
2.059602e+003, -3.255940e-003
2.061531e+003, -3.465213e-003
2.063459e+003, -3.726924e-003
2.065388e+003, -3.020691e-003
2.067316e+003, -2.466361e-003
2.069245e+003, -2.476758e-003
2.071173e+003, -2.616389e-003
2.073102e+003, -3.006822e-003
2.075030e+003, -2.713979e-003
2.076958e+003, -2.344162e-003
2.078887e+003, -2.095322e-003
2.080815e+003, -2.618524e-003
2.082744e+003, -3.233438e-003
2.084672e+003, -2.903215e-003
2.086601e+003, -2.536783e-003
2.088529e+003, -2.587948e-003
2.090458e+003, -2.811114e-003
2.092386e+003, -2.850567e-003
2.094315e+003, -2.598834e-003
2.096243e+003, -2.167569e-003
2.098172e+003, -1.889537e-003
2.100100e+003, -1.901612e-003
2.102029e+003, -1.651785e-003
2.103957e+003, -1.415488e-003
2.105885e+003, -1.134491e-003
2.107814e+003, -1.337716e-003
2.109742e+003, -1.406755e-003
2.111671e+003, -1.521522e-003
2.113599e+003, -1.637902e-003
2.115528e+003, -1.946750e-003
2.117456e+003, -2.620584e-003
2.119385e+003, -2.894396e-003
2.121313e+003, -2.490180e-003
2.123242e+003, -2.396142e-003
2.125170e+003, -2.960448e-003
2.127099e+003, -3.353098e-003
2.129027e+003, -3.547029e-003
2.130956e+003, -3.904218e-003
2.132884e+003, -4.577296e-003
2.134813e+003, -4.321624e-003
2.136741e+003, -3.188882e-003
2.138669e+003, -2.653146e-003
2.140598e+003, -2.743140e-003
2.142526e+003, -3.633248e-003
2.144455e+003, -4.567802e-003
2.146383e+003, -4.362042e-003
2.148312e+003, -3.380708e-003
2.150240e+003, -3.595194e-003
2.152169e+003, -3.613462e-003
2.154097e+003, -3.361445e-003
2.156026e+003, -4.245913e-003
2.157954e+003, -2.254345e-003
2.159883e+003, 1.569013e-003
2.161811e+003, 2.606657e-003
2.163740e+003, 1.850334e-003
2.165668e+003, 1.419854e-003
2.167596e+003, 1.087323e-003
2.169525e+003, 3.329044e-004
2.171453e+003, -2.722254e-004
2.173382e+003, -1.459117e-003
2.175310e+003, -1.598961e-003
2.177239e+003, -3.158068e-004
2.179167e+003, -8.839499e-004
2.181096e+003, -1.598255e-003
2.183024e+003, -7.713311e-004
2.184953e+003, -4.111854e-004
2.186881e+003, -5.172951e-004
2.188810e+003, -1.289963e-003
2.190738e+003, -1.431547e-003
2.192667e+003, -3.080714e-004
2.194595e+003, 2.084322e-004
2.196523e+003, -3.266633e-004
2.198452e+003, 4.675705e-005
2.200380e+003, -7.718615e-005
2.202309e+003, -6.438149e-004
2.204237e+003, -2.942415e-004
2.206166e+003, -7.698839e-004
2.208094e+003, -1.265623e-003
2.210023e+003, -1.080826e-003
2.211951e+003, -1.007210e-003
2.213880e+003, -6.905444e-004
2.215808e+003, -8.813231e-004
2.217737e+003, -8.795175e-004
2.219665e+003, -5.561012e-004
2.221594e+003, -3.276148e-004
2.223522e+003, -3.149337e-004
2.225450e+003, -9.665445e-004
2.227379e+003, -1.235440e-003
2.229307e+003, -3.361232e-004
2.231236e+003, -2.817460e-005
2.233164e+003, -1.182236e-004
2.235093e+003, -9.781553e-005
2.237021e+003, -2.012076e-005
2.238950e+003, 1.143870e-004
2.240878e+003, 4.589092e-005
2.242807e+003, -2.629048e-004
2.244735e+003, -4.275063e-004
2.246664e+003, -3.472247e-004
2.248592e+003, -5.905705e-004
2.250521e+003, -5.786711e-004
2.252449e+003, -5.833526e-004
2.254377e+003, -8.472228e-004
2.256306e+003, -6.019431e-004
2.258234e+003, 3.944739e-005
2.260163e+003, 9.400147e-005
2.262091e+003, -1.854678e-004
2.264020e+003, -1.102567e-004
2.265948e+003, -2.224916e-004
2.267877e+003, -1.583381e-004
2.269805e+003, 1.950585e-005
2.271734e+003, -1.281461e-004
2.273662e+003, -1.428954e-004
2.275591e+003, 6.141536e-004
2.277519e+003, 8.429264e-004
2.279448e+003, 6.042976e-004
2.281376e+003, 7.984019e-004
2.283304e+003, 1.007159e-003
2.285233e+003, 1.041091e-003
2.287161e+003, 3.807612e-004
2.289090e+003, -1.569030e-004
2.291018e+003, -1.134430e-004
2.292947e+003, -9.876933e-005
2.294875e+003, -1.206641e-004
2.296804e+003, -1.898551e-004
2.298732e+003, -1.983789e-004
2.300661e+003, -3.792490e-004
2.302589e+003, -4.529890e-004
2.304518e+003, -3.982498e-004
2.306446e+003, -2.386503e-004
2.308375e+003, -2.699764e-004
2.310303e+003, -3.416250e-004
2.312231e+003, -3.521484e-004
2.314160e+003, -1.614634e-004
2.316088e+003, 1.075494e-004
2.318017e+003, 6.807748e-005
2.319945e+003, 3.509975e-004
2.321874e+003, 9.529836e-004
2.323802e+003, 1.009480e-003
2.325731e+003, 2.249473e-005
2.327659e+003, -7.901135e-004
2.329588e+003, -7.984880e-004
2.331516e+003, -3.972995e-004
2.333445e+003, -4.332421e-004
2.335373e+003, -7.942353e-004
2.337302e+003, -6.158946e-004
2.339230e+003, -6.970039e-004
2.341158e+003, -8.100828e-004
2.343087e+003, -6.706150e-004
2.345015e+003, -7.920076e-004
2.346944e+003, -1.363707e-003
2.348872e+003, -1.767726e-003
2.350801e+003, -1.615187e-003
2.352729e+003, -1.328506e-003
2.354658e+003, -1.080024e-003
2.356586e+003, -1.137376e-003
2.358515e+003, -1.110018e-003
2.360443e+003, -8.600785e-004
2.362372e+003, -8.685474e-004
2.364300e+003, -9.317543e-004
2.366229e+003, -1.270373e-003
2.368157e+003, -1.594465e-003
2.370085e+003, -1.634864e-003
2.372014e+003, -1.690838e-003
2.373942e+003, -2.074635e-003
2.375871e+003, -2.510469e-003
2.377799e+003, -2.748597e-003
2.379728e+003, -2.684278e-003
2.381656e+003, -2.786532e-003
2.383585e+003, -2.766214e-003
2.385513e+003, -2.620396e-003
2.387442e+003, -2.244988e-003
2.389370e+003, -2.288678e-003
2.391299e+003, -2.489008e-003
2.393227e+003, -2.392334e-003
2.395156e+003, -2.391152e-003
2.397084e+003, -2.457179e-003
2.399012e+003, -2.276005e-003
2.400941e+003, -2.298663e-003
2.402869e+003, -2.561964e-003
2.404798e+003, -2.373642e-003
2.406726e+003, -1.735275e-003
2.408655e+003, -1.521884e-003
2.410583e+003, -1.819060e-003
2.412512e+003, -2.054303e-003
2.414440e+003, -2.173760e-003
2.416369e+003, -2.167206e-003
2.418297e+003, -2.265267e-003
2.420226e+003, -2.149151e-003
2.422154e+003, -2.083290e-003
2.424083e+003, -2.108958e-003
2.426011e+003, -1.992450e-003
2.427939e+003, -1.467193e-003
2.429868e+003, -1.128340e-003
2.431796e+003, -8.096667e-004
2.433725e+003, -1.027021e-003
2.435653e+003, -1.593125e-003
2.437582e+003, -1.812365e-003
2.439510e+003, -1.611433e-003
2.441439e+003, -1.146431e-003
2.443367e+003, -8.741501e-004
2.445296e+003, -9.627034e-004
2.447224e+003, -1.106626e-003
2.449153e+003, -1.105741e-003
2.451081e+003, -1.148343e-003
2.453010e+003, -1.122155e-003
2.454938e+003, -1.014832e-003
2.456866e+003, -9.132597e-004
2.458795e+003, -1.139133e-003
2.460723e+003, -1.475309e-003
2.462652e+003, -1.326465e-003
2.464580e+003, -1.163508e-003
2.466509e+003, -9.561735e-004
2.468437e+003, -1.280576e-003
2.470366e+003, -1.555933e-003
2.472294e+003, -1.524542e-003
2.474223e+003, -1.170003e-003
2.476151e+003, -6.998478e-004
2.478080e+003, -5.770900e-004
2.480008e+003, -7.556840e-004
2.481937e+003, -1.298948e-003
2.483865e+003, -1.842694e-003
2.485793e+003, -2.025441e-003
2.487722e+003, -1.524402e-003
2.489650e+003, -1.124614e-003
2.491579e+003, -8.496235e-004
2.493507e+003, -6.026180e-004
2.495436e+003, -7.794465e-004
2.497364e+003, -1.393602e-003
2.499293e+003, -1.603516e-003
2.501221e+003, -1.280592e-003
2.503150e+003, -6.830032e-004
2.505078e+003, -8.603117e-004
2.507007e+003, -1.301890e-003
2.508935e+003, -1.113846e-003
2.510864e+003, -9.918861e-004
2.512792e+003, -1.338078e-003
2.514720e+003, -1.296599e-003
2.516649e+003, -8.037919e-004
2.518577e+003, -6.459852e-004
2.520506e+003, -6.251385e-004
2.522434e+003, -4.467133e-004
2.524363e+003, -6.060888e-004
2.526291e+003, -1.040182e-003
2.528220e+003, -1.177407e-003
2.530148e+003, -1.099949e-003
2.532077e+003, -5.981587e-004
2.534005e+003, -2.965056e-004
2.535934e+003, -5.529367e-004
2.537862e+003, -6.369210e-004
2.539791e+003, -8.277399e-004
2.541719e+003, -1.041364e-003
2.543647e+003, -1.082010e-003
2.545576e+003, -1.001878e-003
2.547504e+003, -9.086292e-004
2.549433e+003, -1.057632e-003
2.551361e+003, -1.279622e-003
2.553290e+003, -7.563319e-004
2.555218e+003, -4.614468e-004
2.557147e+003, -6.925866e-004
2.559075e+003, -1.039066e-003
2.561004e+003, -9.796818e-004
2.562932e+003, -8.156705e-004
2.564861e+003, -6.162188e-004
2.566789e+003, -7.809993e-004
2.568718e+003, -9.661563e-004
2.570646e+003, -7.271575e-004
2.572574e+003, -4.501681e-004
2.574503e+003, -8.566777e-004
2.576431e+003, -8.777311e-004
2.578360e+003, -5.413492e-004
2.580288e+003, -6.648291e-004
2.582217e+003, -6.396985e-004
2.584145e+003, -5.641294e-004
2.586074e+003, -8.623148e-004
2.588002e+003, -9.727381e-004
2.589931e+003, -7.418826e-004
2.591859e+003, -7.350792e-004
2.593788e+003, -7.168470e-004
2.595716e+003, -7.183503e-004
2.597645e+003, -8.070748e-004
2.599573e+003, -7.199027e-004
2.601501e+003, -5.549761e-004
2.603430e+003, -4.779855e-004
2.605358e+003, -5.960549e-004
2.607287e+003, -7.776590e-004
2.609215e+003, -8.541092e-004
2.611144e+003, -7.192019e-004
2.613072e+003, -5.085298e-004
2.615001e+003, -6.681907e-004
2.616929e+003, -6.964379e-004
2.618858e+003, -7.315758e-004
2.620786e+003, -7.073249e-004
2.622715e+003, -5.120161e-004
2.624643e+003, -5.511029e-004
2.626572e+003, -4.773313e-004
2.628500e+003, -4.241662e-004
2.630428e+003, -4.093475e-004
2.632357e+003, -5.036567e-004
2.634285e+003, -6.479997e-004
2.636214e+003, -8.208980e-004
2.638142e+003, -8.789964e-004
2.640071e+003, -7.404146e-004
2.641999e+003, -6.370462e-004
2.643928e+003, -5.981408e-004
2.645856e+003, -7.186406e-004
2.647785e+003, -1.076411e-003
2.649713e+003, -1.125635e-003
2.651642e+003, -1.099186e-003
2.653570e+003, -1.207167e-003
2.655499e+003, -9.033057e-004
2.657427e+003, -7.979640e-004
2.659355e+003, -1.058998e-003
2.661284e+003, -1.269271e-003
2.663212e+003, -1.411673e-003
2.665141e+003, -1.732397e-003
2.667069e+003, -2.101830e-003
2.668998e+003, -2.021370e-003
2.670926e+003, -1.909240e-003
2.672855e+003, -1.963691e-003
2.674783e+003, -1.991148e-003
2.676712e+003, -1.948869e-003
2.678640e+003, -1.813312e-003
2.680569e+003, -1.813046e-003
2.682497e+003, -1.965320e-003
2.684426e+003, -2.002984e-003
2.686354e+003, -1.996006e-003
2.688282e+003, -2.073576e-003
2.690211e+003, -2.147780e-003
2.692139e+003, -2.027184e-003
2.694068e+003, -1.889552e-003
2.695996e+003, -1.659747e-003
2.697925e+003, -1.667653e-003
2.699853e+003, -1.801871e-003
2.701782e+003, -1.917590e-003
2.703710e+003, -1.854944e-003
2.705639e+003, -1.806440e-003
2.707567e+003, -1.858807e-003
2.709496e+003, -1.995857e-003
2.711424e+003, -2.052546e-003
2.713353e+003, -2.188193e-003
2.715281e+003, -2.176392e-003
2.717209e+003, -2.115414e-003
2.719138e+003, -2.054978e-003
2.721066e+003, -2.395177e-003
2.722995e+003, -2.406808e-003
2.724923e+003, -2.156581e-003
2.726852e+003, -2.111329e-003
2.728780e+003, -2.177826e-003
2.730709e+003, -2.188962e-003
2.732637e+003, -2.126188e-003
2.734566e+003, -2.013837e-003
2.736494e+003, -2.016372e-003
2.738423e+003, -1.961475e-003
2.740351e+003, -1.865973e-003
2.742280e+003, -1.962289e-003
2.744208e+003, -1.988927e-003
2.746136e+003, -1.798943e-003
2.748065e+003, -1.811594e-003
2.749993e+003, -1.893498e-003
2.751922e+003, -1.955296e-003
2.753850e+003, -2.188602e-003
2.755779e+003, -2.164182e-003
2.757707e+003, -1.904382e-003
2.759636e+003, -1.913958e-003
2.761564e+003, -1.983102e-003
2.763493e+003, -2.128299e-003
2.765421e+003, -2.230868e-003
2.767350e+003, -2.239041e-003
2.769278e+003, -2.098110e-003
2.771207e+003, -1.994272e-003
2.773135e+003, -1.908998e-003
2.775063e+003, -2.129185e-003
2.776992e+003, -2.220702e-003
2.778920e+003, -2.092029e-003
2.780849e+003, -2.049358e-003
2.782777e+003, -2.002753e-003
2.784706e+003, -2.054549e-003
2.786634e+003, -2.189185e-003
2.788563e+003, -2.063902e-003
2.790491e+003, -1.909722e-003
2.792420e+003, -1.845845e-003
2.794348e+003, -1.864805e-003
2.796277e+003, -1.876476e-003
2.798205e+003, -2.165012e-003
2.800134e+003, -2.417761e-003
2.802062e+003, -2.283327e-003
2.803990e+003, -2.089061e-003
2.805919e+003, -1.988053e-003
2.807847e+003, -1.839154e-003
2.809776e+003, -1.985631e-003
2.811704e+003, -2.197207e-003
2.813633e+003, -1.796753e-003
2.815561e+003, -1.544699e-003
2.817490e+003, -1.883619e-003
2.819418e+003, -2.003383e-003
2.821347e+003, -2.059470e-003
2.823275e+003, -2.041195e-003
2.825204e+003, -2.177551e-003
2.827132e+003, -2.149798e-003
2.829061e+003, -2.082415e-003
2.830989e+003, -2.136675e-003
2.832917e+003, -1.656807e-003
2.834846e+003, -1.530573e-003
2.836774e+003, -1.673193e-003
2.838703e+003, -1.688348e-003
2.840631e+003, -1.658035e-003
2.842560e+003, -1.697553e-003
2.844488e+003, -1.829645e-003
2.846417e+003, -2.025546e-003
2.848345e+003, -2.460100e-003
2.850274e+003, -2.541051e-003
2.852202e+003, -2.180401e-003
2.854131e+003, -2.128471e-003
2.856059e+003, -2.397817e-003
2.857988e+003, -2.366573e-003
2.859916e+003, -1.952827e-003
2.861844e+003, -1.983426e-003
2.863773e+003, -2.132658e-003
2.865701e+003, -1.984537e-003
2.867630e+003, -1.753168e-003
2.869558e+003, -1.761964e-003
2.871487e+003, -2.088347e-003
2.873415e+003, -2.249155e-003
2.875344e+003, -2.177369e-003
2.877272e+003, -1.761278e-003
2.879201e+003, -1.423777e-003
2.881129e+003, -1.724032e-003
2.883058e+003, -2.242235e-003
2.884986e+003, -2.268761e-003
2.886915e+003, -2.129458e-003
2.888843e+003, -2.115236e-003
2.890771e+003, -1.890891e-003
2.892700e+003, -1.622081e-003
2.894628e+003, -1.456023e-003
2.896557e+003, -1.695018e-003
2.898485e+003, -1.673635e-003
2.900414e+003, -1.618433e-003
2.902342e+003, -1.928176e-003
2.904271e+003, -1.764592e-003
2.906199e+003, -2.033659e-003
2.908128e+003, -2.226841e-003
2.910056e+003, -1.954766e-003
2.911985e+003, -1.877091e-003
2.913913e+003, -2.172357e-003
2.915842e+003, -2.465057e-003
2.917770e+003, -2.305076e-003
2.919698e+003, -1.985607e-003
2.921627e+003, -2.212410e-003
2.923555e+003, -2.390066e-003
2.925484e+003, -2.324427e-003
2.927412e+003, -2.280378e-003
2.929341e+003, -2.416862e-003
2.931269e+003, -2.559029e-003
2.933198e+003, -2.041046e-003
2.935126e+003, -1.768474e-003
2.937055e+003, -1.894533e-003
2.938983e+003, -2.069151e-003
2.940912e+003, -2.413706e-003
2.942840e+003, -2.510883e-003
2.944769e+003, -2.524527e-003
2.946697e+003, -2.357816e-003
2.948625e+003, -2.269953e-003
2.950554e+003, -2.239260e-003
2.952482e+003, -2.079017e-003
2.954411e+003, -2.141770e-003
2.956339e+003, -1.935177e-003
2.958268e+003, -1.642229e-003
2.960196e+003, -1.485116e-003
2.962125e+003, -9.332792e-004
2.964053e+003, -9.124210e-004
2.965982e+003, -1.504182e-003
2.967910e+003, -1.802369e-003
2.969839e+003, -1.618522e-003
2.971767e+003, -1.693841e-003
2.973696e+003, -2.210086e-003
2.975624e+003, -2.385445e-003
2.977552e+003, -2.072154e-003
2.979481e+003, -2.072335e-003
2.981409e+003, -2.219164e-003
2.983338e+003, -2.230593e-003
2.985266e+003, -2.349159e-003
2.987195e+003, -2.627504e-003
2.989123e+003, -2.390698e-003
2.991052e+003, -1.932985e-003
2.992980e+003, -2.021685e-003
2.994909e+003, -2.201634e-003
2.996837e+003, -2.310528e-003
2.998766e+003, -2.381166e-003
3.000694e+003, -2.538127e-003
3.002623e+003, -2.555765e-003
3.004551e+003, -2.480126e-003
3.006479e+003, -2.485622e-003
3.008408e+003, -2.415210e-003
3.010336e+003, -2.330061e-003
3.012265e+003, -2.769074e-003
3.014193e+003, -3.028269e-003
3.016122e+003, -2.730378e-003
3.018050e+003, -2.388126e-003
3.019979e+003, -2.588521e-003
3.021907e+003, -2.684330e-003
3.023836e+003, -2.722358e-003
3.025764e+003, -2.731619e-003
3.027693e+003, -2.775231e-003
3.029621e+003, -2.648294e-003
3.031550e+003, -2.374907e-003
3.033478e+003, -2.475359e-003
3.035406e+003, -2.539091e-003
3.037335e+003, -2.550272e-003
3.039263e+003, -2.510704e-003
3.041192e+003, -2.590266e-003
3.043120e+003, -2.890868e-003
3.045049e+003, -2.656426e-003
3.046977e+003, -2.450960e-003
3.048906e+003, -2.672535e-003
3.050834e+003, -2.585674e-003
3.052763e+003, -2.313217e-003
3.054691e+003, -2.577373e-003
3.056620e+003, -2.881520e-003
3.058548e+003, -2.959708e-003
3.060477e+003, -2.829550e-003
3.062405e+003, -2.604629e-003
3.064333e+003, -2.362970e-003
3.066262e+003, -2.538902e-003
3.068190e+003, -2.643302e-003
3.070119e+003, -2.401713e-003
3.072047e+003, -2.285686e-003
3.073976e+003, -2.349976e-003
3.075904e+003, -2.743100e-003
3.077833e+003, -2.944708e-003
3.079761e+003, -2.441354e-003
3.081690e+003, -2.103875e-003
3.083618e+003, -1.998708e-003
3.085547e+003, -2.224241e-003
3.087475e+003, -2.526287e-003
3.089404e+003, -2.419790e-003
3.091332e+003, -2.227144e-003
3.093260e+003, -2.236637e-003
3.095189e+003, -2.123587e-003
3.097117e+003, -1.955866e-003
3.099046e+003, -1.829347e-003
3.100974e+003, -1.825478e-003
3.102903e+003, -1.685972e-003
3.104831e+003, -1.904535e-003
3.106760e+003, -1.914270e-003
3.108688e+003, -1.518298e-003
3.110617e+003, -1.166301e-003
3.112545e+003, -1.398047e-003
3.114474e+003, -2.005981e-003
3.116402e+003, -1.970440e-003
3.118331e+003, -1.992308e-003
3.120259e+003, -2.122287e-003
3.122188e+003, -2.179398e-003
3.124116e+003, -2.293202e-003
3.126044e+003, -2.185859e-003
3.127973e+003, -1.842821e-003
3.129901e+003, -1.393713e-003
3.131830e+003, -1.304921e-003
3.133758e+003, -1.174516e-003
3.135687e+003, -9.602627e-004
3.137615e+003, -1.085636e-003
3.139544e+003, -1.055458e-003
3.141472e+003, -1.303851e-003
3.143401e+003, -1.495803e-003
3.145329e+003, -1.374415e-003
3.147258e+003, -1.296628e-003
3.149186e+003, -1.311620e-003
3.151115e+003, -1.441362e-003
3.153043e+003, -1.571255e-003
3.154971e+003, -1.314617e-003
3.156900e+003, -1.386817e-003
3.158828e+003, -1.747211e-003
3.160757e+003, -1.631571e-003
3.162685e+003, -1.062243e-003
3.164614e+003, -7.847077e-004
3.166542e+003, -8.917438e-004
3.168471e+003, -1.065715e-003
3.170399e+003, -1.055682e-003
3.172328e+003, -1.026305e-003
3.174256e+003, -8.852772e-004
3.176185e+003, -9.652369e-004
3.178113e+003, -7.809434e-004
3.180042e+003, -1.011308e-003
3.181970e+003, -1.385051e-003
3.183898e+003, -1.283369e-003
3.185827e+003, -1.228271e-003
3.187755e+003, -1.295521e-003
3.189684e+003, -1.233499e-003
3.191612e+003, -1.163896e-003
3.193541e+003, -6.852902e-004
3.195469e+003, -6.546057e-004
3.197398e+003, -9.678999e-004
3.199326e+003, -1.240085e-003
3.201255e+003, -1.212774e-003
3.203183e+003, -9.430945e-004
3.205112e+003, -5.316433e-004
3.207040e+003, -8.116383e-004
3.208969e+003, -1.043780e-003
3.210897e+003, -1.087380e-003
3.212825e+003, -1.061886e-003
3.214754e+003, -9.302372e-004
3.216682e+003, -9.319917e-004
3.218611e+003, -1.045000e-003
3.220539e+003, -1.163146e-003
3.222468e+003, -1.430545e-003
3.224396e+003, -8.325597e-004
3.226325e+003, -4.169943e-004
3.228253e+003, -7.052067e-004
3.230182e+003, -8.905933e-004
3.232110e+003, -8.931779e-004
3.234039e+003, -9.303589e-004
3.235967e+003, -7.493048e-004
3.237896e+003, -5.561122e-004
3.239824e+003, -4.296228e-004
3.241752e+003, -9.296607e-004
3.243681e+003, -1.191840e-003
3.245609e+003, -5.010782e-004
3.247538e+003, -5.516323e-004
3.249466e+003, -1.152182e-003
3.251395e+003, -1.241155e-003
3.253323e+003, -7.267955e-004
3.255252e+003, 5.151677e-005
3.257180e+003, -3.880351e-005
3.259109e+003, -5.801705e-004
3.261037e+003, -7.940498e-004
3.262966e+003, -9.341369e-004
3.264894e+003, -1.158152e-003
3.266823e+003, -1.847194e-003
3.268751e+003, -1.505704e-003
3.270679e+003, -1.068112e-003
3.272608e+003, -1.126084e-003
3.274536e+003, -1.178152e-003
3.276465e+003, -7.108428e-004
3.278393e+003, -3.626214e-004
3.280322e+003, -2.534276e-004
3.282250e+003, -3.250372e-004
3.284179e+003, -5.867596e-004
3.286107e+003, -7.515703e-004
3.288036e+003, -8.293385e-004
3.289964e+003, -6.253390e-004
3.291893e+003, -3.552137e-004
3.293821e+003, -7.575562e-004
3.295750e+003, -4.402749e-004
3.297678e+003, -4.745220e-004
3.299606e+003, -6.965598e-004
3.301535e+003, -5.876429e-004
3.303463e+003, -4.024321e-004
3.305392e+003, -2.036262e-004
3.307320e+003, -3.345825e-004
3.309249e+003, -6.127765e-004
3.311177e+003, -6.399106e-004
3.313106e+003, -1.165620e-005
3.315034e+003, 4.652056e-004
3.316963e+003, 3.369446e-004
3.318891e+003, -2.438474e-005
3.320820e+003, 2.136007e-005
3.322748e+003, -3.378519e-004
3.324677e+003, -6.607206e-004
3.326605e+003, -1.401394e-004
3.328533e+003, -2.287885e-004
3.330462e+003, -6.365631e-004
3.332390e+003, -8.428836e-004
3.334319e+003, -1.170841e-003
3.336247e+003, -9.912720e-004
3.338176e+003, -7.245766e-004
3.340104e+003, -7.238024e-004
3.342033e+003, -4.891386e-004
3.343961e+003, -2.287969e-004
3.345890e+003, 1.876647e-004
3.347818e+003, -1.698723e-004
3.349747e+003, -2.264800e-004
3.351675e+003, 1.539413e-004
3.353604e+003, 2.521363e-004
3.355532e+003, 4.340866e-004
3.357460e+003, 3.044614e-004
3.359389e+003, -6.438526e-004
3.361317e+003, -6.034958e-004
3.363246e+003, 2.774474e-005
3.365174e+003, -2.852129e-004
3.367103e+003, -3.561166e-004
3.369031e+003, -7.342578e-007
3.370960e+003, 2.085782e-004
3.372888e+003, 4.238510e-004
3.374817e+003, 4.245221e-004
3.376745e+003, 2.509450e-004
3.378674e+003, 5.488205e-004
3.380602e+003, 7.936318e-004
3.382531e+003, 1.822651e-004
3.384459e+003, -7.637025e-005
3.386387e+003, 1.293527e-004
3.388316e+003, 3.076028e-004
3.390244e+003, 2.955076e-004
3.392173e+003, 6.910837e-004
3.394101e+003, 1.090812e-003
3.396030e+003, 6.715638e-004
3.397958e+003, 5.489308e-004
3.399887e+003, 5.373912e-004
3.401815e+003, 4.095925e-004
3.403744e+003, 6.499930e-004
3.405672e+003, 8.554821e-004
3.407601e+003, 6.537373e-004
3.409529e+003, 4.333768e-004
3.411458e+003, -2.571801e-005
3.413386e+003, -1.526446e-004
3.415314e+003, 4.592944e-004
3.417243e+003, -8.119256e-005
3.419171e+003, -3.260426e-004
3.421100e+003, 2.343855e-004
3.423028e+003, 4.814690e-004
3.424957e+003, 1.161620e-003
3.426885e+003, 8.920581e-004
3.428814e+003, -6.567829e-005
3.430742e+003, -2.456646e-004
3.432671e+003, 2.165160e-004
3.434599e+003, 1.892983e-004
3.436528e+003, 2.098847e-004
3.438456e+003, 7.626757e-006
3.440385e+003, 4.242025e-004
3.442313e+003, 7.849868e-004
3.444241e+003, 6.093473e-004
3.446170e+003, 4.033885e-004
3.448098e+003, 5.024456e-004
3.450027e+003, 7.500692e-004
3.451955e+003, 7.550425e-004
3.453884e+003, 5.596679e-004
3.455812e+003, 7.699666e-005
3.457741e+003, -2.197002e-004
3.459669e+003, 3.140158e-004
3.461598e+003, 3.465189e-004
3.463526e+003, 2.657719e-004
3.465455e+003, 1.043202e-004
3.467383e+003, -2.018047e-004
3.469312e+003, -2.115895e-004
3.471240e+003, -2.803780e-004
3.473168e+003, -5.573551e-004
3.475097e+003, -7.363130e-004
3.477025e+003, -3.378052e-004
3.478954e+003, 1.592328e-004
3.480882e+003, 1.064752e-004
3.482811e+003, 1.623689e-004
3.484739e+003, 1.277988e-004
3.486668e+003, -2.480562e-004
3.488596e+003, -4.562305e-004
3.490525e+003, -7.433073e-005
3.492453e+003, 1.685048e-004
3.494382e+003, -2.455349e-005
3.496310e+003, 2.417636e-004
3.498239e+003, 1.766129e-004
3.500167e+003, -1.985956e-004
3.502095e+003, -6.533516e-004
3.504024e+003, -1.999001e-004
3.505952e+003, 4.088118e-005
3.507881e+003, -3.915533e-004
3.509809e+003, -4.780513e-004
3.511738e+003, -5.468481e-004
3.513666e+003, -4.517324e-004
3.515595e+003, -1.825134e-004
3.517523e+003, 6.793897e-005
3.519452e+003, -4.301567e-004
3.521380e+003, -1.028087e-003
3.523309e+003, -6.621939e-004
3.525237e+003, -3.392488e-004
3.527166e+003, -1.943272e-004
3.529094e+003, -8.852556e-005
3.531022e+003, -4.951678e-005
3.532951e+003, -3.185380e-004
3.534879e+003, 5.946837e-004
3.536808e+003, 8.897376e-004
3.538736e+003, 7.925984e-004
3.540665e+003, 1.003834e-003
3.542593e+003, 1.107958e-003
3.544522e+003, 9.481263e-004
3.546450e+003, 1.018463e-003
3.548379e+003, 1.488142e-003
3.550307e+003, 1.997804e-003
3.552236e+003, 9.518806e-004
3.554164e+003, 5.601553e-004
3.556093e+003, 1.316400e-003
3.558021e+003, 1.190025e-003
3.559949e+003, 7.027254e-004
3.561878e+003, 9.274415e-004
3.563806e+003, 8.537227e-004
3.565735e+003, 9.243862e-004
3.567663e+003, 1.168783e-003
3.569592e+003, 1.173653e-003
3.571520e+003, 1.150229e-003
3.573449e+003, 1.221335e-003
3.575377e+003, 1.163173e-003
3.577306e+003, 7.498545e-004
3.579234e+003, 3.038228e-004
3.581163e+003, 5.894220e-004
3.583091e+003, 9.022222e-004
3.585020e+003, 7.549617e-004
3.586948e+003, 6.102860e-004
3.588876e+003, 5.341075e-004
3.590805e+003, 6.264944e-004
3.592733e+003, 7.448346e-004
3.594662e+003, 7.972865e-004
3.596590e+003, 1.874806e-004
3.598519e+003, -1.906361e-004
3.600447e+003, -3.590583e-004
3.602376e+003, -4.739426e-004
3.604304e+003, -5.618471e-004
3.606233e+003, -4.933631e-004
3.608161e+003, 2.087740e-004
3.610090e+003, 1.789606e-004
3.612018e+003, -5.394357e-004
3.613947e+003, -8.127637e-004
3.615875e+003, -3.475750e-004
3.617803e+003, 2.386079e-004
3.619732e+003, -7.540914e-005
3.621660e+003, -5.872805e-004
3.623589e+003, -8.921046e-005
3.625517e+003, 2.941953e-004
3.627446e+003, 5.199861e-004
3.629374e+003, 3.914152e-004
3.631303e+003, -1.930646e-004
3.633231e+003, -6.550886e-004
3.635160e+003, -8.420622e-004
3.637088e+003, -1.000544e-003
3.639017e+003, -5.220392e-004
3.640945e+003, -1.281564e-003
3.642874e+003, -1.870217e-003
3.644802e+003, -1.789927e-003
3.646730e+003, -1.366477e-003
3.648659e+003, -1.343058e-003
3.650587e+003, -1.588136e-003
3.652516e+003, -2.005439e-003
3.654444e+003, -2.706807e-003
3.656373e+003, -3.255667e-003
3.658301e+003, -3.345224e-003
3.660230e+003, -3.142585e-003
3.662158e+003, -3.419019e-003
3.664087e+003, -3.511934e-003
3.666015e+003, -3.286289e-003
3.667944e+003, -2.248797e-003
3.669872e+003, -1.136138e-003
3.671801e+003, -2.682064e-003
3.673729e+003, -3.959298e-003
3.675657e+003, -3.545496e-003
3.677586e+003, -3.905756e-003
3.679514e+003, -3.585743e-003
3.681443e+003, -3.277628e-003
3.683371e+003, -3.915244e-003
3.685300e+003, -4.391694e-003
3.687228e+003, -3.904392e-003
3.689157e+003, -3.454002e-003
3.691085e+003, -4.047225e-003
3.693014e+003, -4.968655e-003
3.694942e+003, -5.510148e-003
3.696871e+003, -5.331633e-003
3.698799e+003, -5.292777e-003
3.700728e+003, -5.101952e-003
3.702656e+003, -5.094115e-003
3.704584e+003, -4.773849e-003
3.706513e+003, -4.131911e-003
3.708441e+003, -4.589690e-003
3.710370e+003, -4.793494e-003
3.712298e+003, -4.099892e-003
3.714227e+003, -4.854957e-003
3.716155e+003, -5.494254e-003
3.718084e+003, -5.860620e-003
3.720012e+003, -6.143785e-003
3.721941e+003, -6.062589e-003
3.723869e+003, -6.209802e-003
3.725798e+003, -5.877278e-003
3.727726e+003, -5.778435e-003
3.729655e+003, -5.351394e-003
3.731583e+003, -4.647279e-003
3.733511e+003, -4.516354e-003
3.735440e+003, -4.085548e-003
3.737368e+003, -4.411555e-003
3.739297e+003, -4.571796e-003
3.741225e+003, -4.504367e-003
3.743154e+003, -4.679524e-003
3.745082e+003, -5.179194e-003
3.747011e+003, -5.461095e-003
3.748939e+003, -4.336988e-003
3.750868e+003, -3.611153e-003
3.752796e+003, -4.714303e-003
3.754725e+003, -5.760194e-003
3.756653e+003, -5.561522e-003
3.758582e+003, -5.367205e-003
3.760510e+003, -5.243588e-003
3.762438e+003, -5.902315e-003
3.764367e+003, -6.127713e-003
3.766295e+003, -5.950133e-003
3.768224e+003, -5.933330e-003
3.770152e+003, -6.544585e-003
3.772081e+003, -6.042375e-003
3.774009e+003, -5.842932e-003
3.775938e+003, -6.812846e-003
3.777866e+003, -6.981540e-003
3.779795e+003, -6.089892e-003
3.781723e+003, -5.792663e-003
3.783652e+003, -6.094219e-003
3.785580e+003, -6.517207e-003
3.787509e+003, -6.667951e-003
3.789437e+003, -6.234914e-003
3.791365e+003, -5.655723e-003
3.793294e+003, -5.707506e-003
3.795222e+003, -5.916591e-003
3.797151e+003, -5.942846e-003
3.799079e+003, -5.820611e-003
3.801008e+003, -5.636493e-003
3.802936e+003, -6.090790e-003
3.804865e+003, -6.045194e-003
3.806793e+003, -5.571188e-003
3.808722e+003, -6.417409e-003
3.810650e+003, -6.379334e-003
3.812579e+003, -6.163511e-003
3.814507e+003, -5.372316e-003
3.816436e+003, -4.961354e-003
3.818364e+003, -5.741624e-003
3.820292e+003, -4.936178e-003
3.822221e+003, -5.050970e-003
3.824149e+003, -6.350542e-003
3.826078e+003, -6.963911e-003
3.828006e+003, -7.107923e-003
3.829935e+003, -6.249304e-003
3.831863e+003, -5.587163e-003
3.833792e+003, -5.610159e-003
3.835720e+003, -5.276446e-003
3.837649e+003, -5.011172e-003
3.839577e+003, -6.090883e-003
3.841506e+003, -6.563799e-003
3.843434e+003, -6.528833e-003
3.845363e+003, -6.699047e-003
3.847291e+003, -7.157438e-003
3.849219e+003, -7.358284e-003
3.851148e+003, -6.299979e-003
3.853076e+003, -4.984359e-003
3.855005e+003, -5.368408e-003
3.856933e+003, -6.520537e-003
3.858862e+003, -6.397883e-003
3.860790e+003, -6.548309e-003
3.862719e+003, -7.183978e-003
3.864647e+003, -6.473314e-003
3.866576e+003, -5.851636e-003
3.868504e+003, -5.893436e-003
3.870433e+003, -6.486724e-003
3.872361e+003, -7.398382e-003
3.874290e+003, -7.683777e-003
3.876218e+003, -7.595337e-003
3.878146e+003, -7.730023e-003
3.880075e+003, -7.333179e-003
3.882003e+003, -6.960439e-003
3.883932e+003, -6.413276e-003
3.885860e+003, -6.200363e-003
3.887789e+003, -6.719485e-003
3.889717e+003, -6.878055e-003
3.891646e+003, -6.618999e-003
3.893574e+003, -6.515788e-003
3.895503e+003, -6.880586e-003
3.897431e+003, -7.073473e-003
3.899360e+003, -7.081139e-003
3.901288e+003, -6.691510e-003
3.903217e+003, -6.235813e-003
3.905145e+003, -6.297986e-003
3.907073e+003, -6.592861e-003
3.909002e+003, -6.819997e-003
3.910930e+003, -6.610949e-003
3.912859e+003, -6.310737e-003
3.914787e+003, -7.517004e-003
3.916716e+003, -7.348898e-003
3.918644e+003, -6.484861e-003
3.920573e+003, -6.766046e-003
3.922501e+003, -6.745860e-003
3.924430e+003, -6.923543e-003
3.926358e+003, -6.810116e-003
3.928287e+003, -6.654425e-003
3.930215e+003, -7.111164e-003
3.932144e+003, -7.392335e-003
3.934072e+003, -7.316309e-003
3.936000e+003, -7.772828e-003
3.937929e+003, -8.416645e-003
3.939857e+003, -8.309872e-003
3.941786e+003, -7.938961e-003
3.943714e+003, -7.369454e-003
3.945643e+003, -7.149839e-003
3.947571e+003, -7.388207e-003
3.949500e+003, -7.493753e-003
3.951428e+003, -7.621803e-003
3.953357e+003, -7.956127e-003
3.955285e+003, -8.424645e-003
3.957214e+003, -7.714675e-003
3.959142e+003, -7.105872e-003
3.961071e+003, -7.096824e-003
3.962999e+003, -5.939739e-003
3.964927e+003, -6.169017e-003
3.966856e+003, -7.126820e-003
3.968784e+003, -6.673999e-003
3.970713e+003, -6.027377e-003
3.972641e+003, -6.196134e-003
3.974570e+003, -7.268834e-003
3.976498e+003, -7.662562e-003
3.978427e+003, -7.241707e-003
3.980355e+003, -6.973245e-003
3.982284e+003, -6.878882e-003
3.984212e+003, -6.914597e-003
3.986141e+003, -7.054394e-003
3.988069e+003, -7.038103e-003
3.989998e+003, -6.060860e-003
3.991926e+003, -6.542222e-003
3.993854e+003, -8.189022e-003
3.995783e+003, -7.985192e-003
3.997711e+003, -7.034341e-003
3.999640e+003, -7.052025e-003
##END=



