##NAMES=Meneghinite
##RRUFFID=R070093
##IDEAL CHEMISTRY=Pb^2+^_13_Cu^1+^Sb^3+^_7_S^2-^_24_
##LOCALITY=Kalkar Quarry, Santa Cruz, Santa Cruz County, California, USA
##OWNER=RRUFF
##SOURCE=James Shigley
##DESCRIPTION=Elongated silver-gray metallic crystals embedded in quartz and associated with calcite
##STATUS=The identification of this mineral has been confirmed by X-ray diffraction and chemical analysis
##URL=rruff.info/R070093
##MEASURED CHEMISTRY=(Pb_12.20_Sn_0.80_)_Σ=13_Cu_1.00_(Sb_6.97_As_0.03_)_Σ=7_S_24.00_
3.741225e+002, 1.830585e-001
3.760510e+002, 1.813507e-001
3.779795e+002, 1.850693e-001
3.799079e+002, 1.922630e-001
3.818364e+002, 2.029873e-001
3.837649e+002, 2.074124e-001
3.856933e+002, 2.139465e-001
3.876218e+002, 2.197632e-001
3.895503e+002, 2.252543e-001
3.914787e+002, 2.278547e-001
3.934072e+002, 2.282077e-001
3.953357e+002, 2.331344e-001
3.972641e+002, 2.438810e-001
3.991926e+002, 2.454428e-001
4.011211e+002, 2.530578e-001
4.030495e+002, 2.573452e-001
4.049780e+002, 2.584884e-001
4.069065e+002, 2.686448e-001
4.088349e+002, 2.752233e-001
4.107634e+002, 2.751230e-001
4.126919e+002, 2.786316e-001
4.146203e+002, 2.829976e-001
4.165488e+002, 2.886002e-001
4.184773e+002, 2.916894e-001
4.204057e+002, 2.921797e-001
4.223342e+002, 2.963694e-001
4.242627e+002, 3.001775e-001
4.261911e+002, 3.042322e-001
4.281196e+002, 3.087780e-001
4.300481e+002, 3.117192e-001
4.319765e+002, 3.144360e-001
4.339050e+002, 3.187823e-001
4.358335e+002, 3.229916e-001
4.377619e+002, 3.270980e-001
4.396904e+002, 3.338544e-001
4.416189e+002, 3.367531e-001
4.435473e+002, 3.393305e-001
4.454758e+002, 3.413430e-001
4.474043e+002, 3.456366e-001
4.493327e+002, 3.475516e-001
4.512612e+002, 3.469008e-001
4.531897e+002, 3.478393e-001
4.551181e+002, 3.507478e-001
4.570466e+002, 3.511322e-001
4.589751e+002, 3.534355e-001
4.609035e+002, 3.547466e-001
4.628320e+002, 3.561553e-001
4.647605e+002, 3.572229e-001
4.666889e+002, 3.586445e-001
4.686174e+002, 3.591824e-001
4.705459e+002, 3.591333e-001
4.724743e+002, 3.601496e-001
4.744028e+002, 3.599771e-001
4.763313e+002, 3.594802e-001
4.782597e+002, 3.616709e-001
4.801882e+002, 3.639827e-001
4.821167e+002, 3.650595e-001
4.840451e+002, 3.660845e-001
4.859736e+002, 3.682144e-001
4.879021e+002, 3.695804e-001
4.898305e+002, 3.698755e-001
4.917590e+002, 3.712351e-001
4.936875e+002, 3.757501e-001
4.956159e+002, 3.744547e-001
4.975444e+002, 3.764524e-001
4.994729e+002, 3.805827e-001
5.014013e+002, 3.833089e-001
5.033298e+002, 3.845593e-001
5.052583e+002, 3.870663e-001
5.071867e+002, 3.924843e-001
5.091152e+002, 3.905534e-001
5.110437e+002, 3.923421e-001
5.129721e+002, 3.965493e-001
5.149006e+002, 3.973820e-001
5.168290e+002, 3.995789e-001
5.187575e+002, 4.004682e-001
5.206860e+002, 4.028026e-001
5.226144e+002, 4.046174e-001
5.245429e+002, 4.049698e-001
5.264714e+002, 4.057512e-001
5.283998e+002, 4.079018e-001
5.303283e+002, 4.104748e-001
5.322568e+002, 4.090097e-001
5.341852e+002, 4.097456e-001
5.361137e+002, 4.116285e-001
5.380422e+002, 4.111985e-001
5.399706e+002, 4.125022e-001
5.418991e+002, 4.165378e-001
5.438276e+002, 4.191029e-001
5.457560e+002, 4.179297e-001
5.476845e+002, 4.198146e-001
5.496130e+002, 4.223761e-001
5.515414e+002, 4.236172e-001
5.534699e+002, 4.280518e-001
5.553984e+002, 4.289464e-001
5.573268e+002, 4.301697e-001
5.592553e+002, 4.320358e-001
5.611838e+002, 4.331893e-001
5.631122e+002, 4.332215e-001
5.650407e+002, 4.344197e-001
5.669692e+002, 4.372711e-001
5.688976e+002, 4.394251e-001
5.708261e+002, 4.422088e-001
5.727546e+002, 4.434760e-001
5.746830e+002, 4.467414e-001
5.766115e+002, 4.478599e-001
5.785400e+002, 4.508331e-001
5.804684e+002, 4.528478e-001
5.823969e+002, 4.548293e-001
5.843254e+002, 4.555311e-001
5.862538e+002, 4.583652e-001
5.881823e+002, 4.600597e-001
5.901108e+002, 4.609450e-001
5.920392e+002, 4.637083e-001
5.939677e+002, 4.663251e-001
5.958962e+002, 4.684983e-001
5.978246e+002, 4.696088e-001
5.997531e+002, 4.709614e-001
6.016816e+002, 4.731135e-001
6.036100e+002, 4.757239e-001
6.055385e+002, 4.778529e-001
6.074670e+002, 4.801733e-001
6.093954e+002, 4.804755e-001
6.113239e+002, 4.818354e-001
6.132524e+002, 4.833395e-001
6.151808e+002, 4.850978e-001
6.171093e+002, 4.867110e-001
6.190378e+002, 4.884225e-001
6.209662e+002, 4.895481e-001
6.228947e+002, 4.909916e-001
6.248232e+002, 4.920397e-001
6.267516e+002, 4.940065e-001
6.286801e+002, 4.972249e-001
6.306086e+002, 4.995629e-001
6.325370e+002, 5.006420e-001
6.344655e+002, 5.023054e-001
6.363940e+002, 5.038231e-001
6.383224e+002, 5.058783e-001
6.402509e+002, 5.065304e-001
6.421794e+002, 5.061806e-001
6.441078e+002, 5.071767e-001
6.460363e+002, 5.083092e-001
6.479648e+002, 5.092726e-001
6.498932e+002, 5.101184e-001
6.518217e+002, 5.110726e-001
6.537502e+002, 5.117889e-001
6.556786e+002, 5.134001e-001
6.576071e+002, 5.148147e-001
6.595356e+002, 5.151532e-001
6.614641e+002, 5.166815e-001
6.633925e+002, 5.184458e-001
6.653210e+002, 5.195593e-001
6.672495e+002, 5.214796e-001
6.691779e+002, 5.231522e-001
6.711064e+002, 5.225892e-001
6.730349e+002, 5.224611e-001
6.749633e+002, 5.251119e-001
6.768918e+002, 5.273280e-001
6.788203e+002, 5.277756e-001
6.807487e+002, 5.290244e-001
6.826772e+002, 5.307603e-001
6.846057e+002, 5.326033e-001
6.865341e+002, 5.339310e-001
6.884626e+002, 5.346751e-001
6.903911e+002, 5.363561e-001
6.923195e+002, 5.395384e-001
6.942480e+002, 5.408685e-001
6.961765e+002, 5.422602e-001
6.981049e+002, 5.426632e-001
7.000334e+002, 5.437080e-001
7.019619e+002, 5.428611e-001
7.038903e+002, 5.440618e-001
7.058188e+002, 5.449052e-001
7.077473e+002, 5.458897e-001
7.096757e+002, 5.469795e-001
7.116042e+002, 5.495320e-001
7.135327e+002, 5.500987e-001
7.154611e+002, 5.495290e-001
7.173896e+002, 5.511384e-001
7.193181e+002, 5.533652e-001
7.212465e+002, 5.542151e-001
7.231750e+002, 5.548859e-001
7.251035e+002, 5.575815e-001
7.270319e+002, 5.587769e-001
7.289604e+002, 5.601265e-001
7.308889e+002, 5.618597e-001
7.328173e+002, 5.624266e-001
7.347458e+002, 5.634363e-001
7.366743e+002, 5.663535e-001
7.386027e+002, 5.687069e-001
7.405312e+002, 5.702199e-001
7.424597e+002, 5.709524e-001
7.443881e+002, 5.713730e-001
7.463166e+002, 5.729051e-001
7.482451e+002, 5.750138e-001
7.501735e+002, 5.777409e-001
7.521020e+002, 5.799918e-001
7.540305e+002, 5.810742e-001
7.559589e+002, 5.820895e-001
7.578874e+002, 5.832216e-001
7.598159e+002, 5.847602e-001
7.617443e+002, 5.862874e-001
7.636728e+002, 5.881627e-001
7.656013e+002, 5.899004e-001
7.675297e+002, 5.923469e-001
7.694582e+002, 5.940560e-001
7.713867e+002, 5.953488e-001
7.733151e+002, 5.964236e-001
7.752436e+002, 5.981407e-001
7.771721e+002, 6.004261e-001
7.791005e+002, 6.030269e-001
7.810290e+002, 6.046908e-001
7.829575e+002, 6.060157e-001
7.848859e+002, 6.053672e-001
7.868144e+002, 6.054834e-001
7.887429e+002, 6.070666e-001
7.906713e+002, 6.096541e-001
7.925998e+002, 6.102546e-001
7.945283e+002, 6.099296e-001
7.964567e+002, 6.113406e-001
7.983852e+002, 6.113164e-001
8.003137e+002, 6.103038e-001
8.022421e+002, 6.100098e-001
8.041706e+002, 6.105118e-001
8.060991e+002, 6.106011e-001
8.080275e+002, 6.099577e-001
8.099560e+002, 6.101616e-001
8.118845e+002, 6.103463e-001
8.138129e+002, 6.092339e-001
8.157414e+002, 6.090988e-001
8.176699e+002, 6.090274e-001
8.195983e+002, 6.091307e-001
8.215268e+002, 6.098099e-001
8.234553e+002, 6.108640e-001
8.253837e+002, 6.120588e-001
8.273122e+002, 6.135138e-001
8.292407e+002, 6.143554e-001
8.311691e+002, 6.151874e-001
8.330976e+002, 6.147526e-001
8.350261e+002, 6.158047e-001
8.369545e+002, 6.164577e-001
8.388830e+002, 6.173330e-001
8.408115e+002, 6.185766e-001
8.427399e+002, 6.205176e-001
8.446684e+002, 6.226513e-001
8.465969e+002, 6.240225e-001
8.485253e+002, 6.247762e-001
8.504538e+002, 6.254741e-001
8.523823e+002, 6.270048e-001
8.543107e+002, 6.286619e-001
8.562392e+002, 6.294415e-001
8.581677e+002, 6.331266e-001
8.600961e+002, 6.352224e-001
8.620246e+002, 6.360497e-001
8.639531e+002, 6.367427e-001
8.658815e+002, 6.386957e-001
8.678100e+002, 6.423349e-001
8.697385e+002, 6.465746e-001
8.716669e+002, 6.516811e-001
8.735954e+002, 6.556747e-001
8.755239e+002, 6.566133e-001
8.774523e+002, 6.559021e-001
8.793808e+002, 6.544755e-001
8.813093e+002, 6.533456e-001
8.832377e+002, 6.523299e-001
8.851662e+002, 6.521522e-001
8.870947e+002, 6.537101e-001
8.890231e+002, 6.552785e-001
8.909516e+002, 6.570991e-001
8.928801e+002, 6.589062e-001
8.948085e+002, 6.605796e-001
8.967370e+002, 6.615261e-001
8.986655e+002, 6.633297e-001
9.005939e+002, 6.645198e-001
9.025224e+002, 6.662282e-001
9.044509e+002, 6.691369e-001
9.063793e+002, 6.712449e-001
9.083078e+002, 6.725367e-001
9.102363e+002, 6.738282e-001
9.121647e+002, 6.760465e-001
9.140932e+002, 6.787235e-001
9.160217e+002, 6.805901e-001
9.179501e+002, 6.821041e-001
9.198786e+002, 6.835598e-001
9.218071e+002, 6.855199e-001
9.237355e+002, 6.876419e-001
9.256640e+002, 6.891629e-001
9.275925e+002, 6.907530e-001
9.295209e+002, 6.926587e-001
9.314494e+002, 6.950722e-001
9.333779e+002, 6.969591e-001
9.353063e+002, 6.980940e-001
9.372348e+002, 6.996738e-001
9.391633e+002, 7.019738e-001
9.410917e+002, 7.042109e-001
9.430202e+002, 7.064633e-001
9.449487e+002, 7.085620e-001
9.468771e+002, 7.102586e-001
9.488056e+002, 7.121024e-001
9.507341e+002, 7.142214e-001
9.526625e+002, 7.165763e-001
9.545910e+002, 7.193586e-001
9.565195e+002, 7.218784e-001
9.584479e+002, 7.245717e-001
9.603764e+002, 7.268471e-001
9.623049e+002, 7.286450e-001
9.642333e+002, 7.305111e-001
9.661618e+002, 7.331249e-001
9.680903e+002, 7.360476e-001
9.700187e+002, 7.386473e-001
9.719472e+002, 7.409562e-001
9.738757e+002, 7.432188e-001
9.758041e+002, 7.453084e-001
9.777326e+002, 7.473359e-001
9.796611e+002, 7.494265e-001
9.815895e+002, 7.514136e-001
9.835180e+002, 7.533596e-001
9.854465e+002, 7.554916e-001
9.873749e+002, 7.567307e-001
9.893034e+002, 7.580786e-001
9.912319e+002, 7.597517e-001
9.931603e+002, 7.608930e-001
9.950888e+002, 7.621099e-001
9.970173e+002, 7.629725e-001
9.989457e+002, 7.643532e-001
1.000874e+003, 7.664015e-001
1.002803e+003, 7.682593e-001
1.004731e+003, 7.700151e-001
1.006660e+003, 7.715018e-001
1.008588e+003, 7.726277e-001
1.010517e+003, 7.736880e-001
1.012445e+003, 7.759742e-001
1.014373e+003, 7.783526e-001
1.016302e+003, 7.795247e-001
1.018230e+003, 7.804905e-001
1.020159e+003, 7.817197e-001
1.022087e+003, 7.829611e-001
1.024016e+003, 7.840501e-001
1.025944e+003, 7.848814e-001
1.027873e+003, 7.864091e-001
1.029801e+003, 7.880430e-001
1.031730e+003, 7.892338e-001
1.033658e+003, 7.912516e-001
1.035587e+003, 7.929374e-001
1.037515e+003, 7.933512e-001
1.039443e+003, 7.937548e-001
1.041372e+003, 7.946285e-001
1.043300e+003, 7.956338e-001
1.045229e+003, 7.963625e-001
1.047157e+003, 7.967067e-001
1.049086e+003, 7.967436e-001
1.051014e+003, 7.980986e-001
1.052943e+003, 7.988050e-001
1.054871e+003, 7.985883e-001
1.056800e+003, 7.988997e-001
1.058728e+003, 7.998927e-001
1.060657e+003, 8.001553e-001
1.062585e+003, 8.004752e-001
1.064514e+003, 8.013517e-001
1.066442e+003, 8.014808e-001
1.068370e+003, 8.013074e-001
1.070299e+003, 8.021166e-001
1.072227e+003, 8.029209e-001
1.074156e+003, 8.036239e-001
1.076084e+003, 8.047342e-001
1.078013e+003, 8.058586e-001
1.079941e+003, 8.069980e-001
1.081870e+003, 8.077993e-001
1.083798e+003, 8.085346e-001
1.085727e+003, 8.092266e-001
1.087655e+003, 8.101940e-001
1.089584e+003, 8.112946e-001
1.091512e+003, 8.119277e-001
1.093441e+003, 8.128027e-001
1.095369e+003, 8.139363e-001
1.097297e+003, 8.140213e-001
1.099226e+003, 8.143055e-001
1.101154e+003, 8.156703e-001
1.103083e+003, 8.165821e-001
1.105011e+003, 8.161279e-001
1.106940e+003, 8.163384e-001
1.108868e+003, 8.170337e-001
1.110797e+003, 8.173327e-001
1.112725e+003, 8.175620e-001
1.114654e+003, 8.181373e-001
1.116582e+003, 8.183774e-001
1.118511e+003, 8.185455e-001
1.120439e+003, 8.188138e-001
1.122368e+003, 8.192695e-001
1.124296e+003, 8.203192e-001
1.126224e+003, 8.210210e-001
1.128153e+003, 8.216857e-001
1.130081e+003, 8.230982e-001
1.132010e+003, 8.246393e-001
1.133938e+003, 8.263698e-001
1.135867e+003, 8.283921e-001
1.137795e+003, 8.304141e-001
1.139724e+003, 8.321847e-001
1.141652e+003, 8.336873e-001
1.143581e+003, 8.347610e-001
1.145509e+003, 8.360505e-001
1.147438e+003, 8.370359e-001
1.149366e+003, 8.373991e-001
1.151295e+003, 8.379071e-001
1.153223e+003, 8.380194e-001
1.155151e+003, 8.378621e-001
1.157080e+003, 8.381425e-001
1.159008e+003, 8.386875e-001
1.160937e+003, 8.387803e-001
1.162865e+003, 8.384503e-001
1.164794e+003, 8.381388e-001
1.166722e+003, 8.380576e-001
1.168651e+003, 8.378920e-001
1.170579e+003, 8.376318e-001
1.172508e+003, 8.375729e-001
1.174436e+003, 8.379029e-001
1.176365e+003, 8.377393e-001
1.178293e+003, 8.384778e-001
1.180222e+003, 8.392032e-001
1.182150e+003, 8.397022e-001
1.184078e+003, 8.401731e-001
1.186007e+003, 8.414422e-001
1.187935e+003, 8.425766e-001
1.189864e+003, 8.437465e-001
1.191792e+003, 8.449950e-001
1.193721e+003, 8.457240e-001
1.195649e+003, 8.464424e-001
1.197578e+003, 8.476459e-001
1.199506e+003, 8.488279e-001
1.201435e+003, 8.493855e-001
1.203363e+003, 8.499177e-001
1.205292e+003, 8.500465e-001
1.207220e+003, 8.503363e-001
1.209149e+003, 8.502458e-001
1.211077e+003, 8.500563e-001
1.213005e+003, 8.504179e-001
1.214934e+003, 8.507284e-001
1.216862e+003, 8.509074e-001
1.218791e+003, 8.510570e-001
1.220719e+003, 8.514857e-001
1.222648e+003, 8.522983e-001
1.224576e+003, 8.528317e-001
1.226505e+003, 8.529665e-001
1.228433e+003, 8.532318e-001
1.230362e+003, 8.537906e-001
1.232290e+003, 8.543734e-001
1.234219e+003, 8.545251e-001
1.236147e+003, 8.549492e-001
1.238076e+003, 8.556491e-001
1.240004e+003, 8.564396e-001
1.241932e+003, 8.569917e-001
1.243861e+003, 8.572274e-001
1.245789e+003, 8.572991e-001
1.247718e+003, 8.579460e-001
1.249646e+003, 8.586974e-001
1.251575e+003, 8.587448e-001
1.253503e+003, 8.590348e-001
1.255432e+003, 8.595384e-001
1.257360e+003, 8.596722e-001
1.259289e+003, 8.598562e-001
1.261217e+003, 8.603134e-001
1.263146e+003, 8.607346e-001
1.265074e+003, 8.609830e-001
1.267003e+003, 8.612338e-001
1.268931e+003, 8.618952e-001
1.270859e+003, 8.628355e-001
1.272788e+003, 8.637631e-001
1.274716e+003, 8.646119e-001
1.276645e+003, 8.652700e-001
1.278573e+003, 8.655539e-001
1.280502e+003, 8.665333e-001
1.282430e+003, 8.676947e-001
1.284359e+003, 8.684541e-001
1.286287e+003, 8.689141e-001
1.288216e+003, 8.695036e-001
1.290144e+003, 8.706905e-001
1.292073e+003, 8.719012e-001
1.294001e+003, 8.726869e-001
1.295930e+003, 8.738137e-001
1.297858e+003, 8.748717e-001
1.299786e+003, 8.757176e-001
1.301715e+003, 8.769397e-001
1.303643e+003, 8.778572e-001
1.305572e+003, 8.784783e-001
1.307500e+003, 8.794053e-001
1.309429e+003, 8.802950e-001
1.311357e+003, 8.809440e-001
1.313286e+003, 8.817666e-001
1.315214e+003, 8.824378e-001
1.317143e+003, 8.832327e-001
1.319071e+003, 8.840785e-001
1.321000e+003, 8.849026e-001
1.322928e+003, 8.856300e-001
1.324857e+003, 8.867285e-001
1.326785e+003, 8.874626e-001
1.328714e+003, 8.884904e-001
1.330642e+003, 8.897583e-001
1.332570e+003, 8.911394e-001
1.334499e+003, 8.924313e-001
1.336427e+003, 8.937250e-001
1.338356e+003, 8.946102e-001
1.340284e+003, 8.954491e-001
1.342213e+003, 8.967174e-001
1.344141e+003, 8.982569e-001
1.346070e+003, 8.999982e-001
1.347998e+003, 9.016377e-001
1.349927e+003, 9.034724e-001
1.351855e+003, 9.049475e-001
1.353784e+003, 9.062696e-001
1.355712e+003, 9.078448e-001
1.357641e+003, 9.093817e-001
1.359569e+003, 9.108098e-001
1.361497e+003, 9.122975e-001
1.363426e+003, 9.138993e-001
1.365354e+003, 9.161279e-001
1.367283e+003, 9.180340e-001
1.369211e+003, 9.191816e-001
1.371140e+003, 9.205412e-001
1.373068e+003, 9.224061e-001
1.374997e+003, 9.250415e-001
1.376925e+003, 9.274424e-001
1.378854e+003, 9.285926e-001
1.380782e+003, 9.293289e-001
1.382711e+003, 9.298872e-001
1.384639e+003, 9.304627e-001
1.386568e+003, 9.316381e-001
1.388496e+003, 9.335056e-001
1.390424e+003, 9.356572e-001
1.392353e+003, 9.377096e-001
1.394281e+003, 9.398190e-001
1.396210e+003, 9.423638e-001
1.398138e+003, 9.446212e-001
1.400067e+003, 9.466997e-001
1.401995e+003, 9.487089e-001
1.403924e+003, 9.503946e-001
1.405852e+003, 9.523317e-001
1.407781e+003, 9.550909e-001
1.409709e+003, 9.578947e-001
1.411638e+003, 9.605373e-001
1.413566e+003, 9.633132e-001
1.415495e+003, 9.655086e-001
1.417423e+003, 9.669441e-001
1.419351e+003, 9.678481e-001
1.421280e+003, 9.690822e-001
1.423208e+003, 9.698503e-001
1.425137e+003, 9.706347e-001
1.427065e+003, 9.715041e-001
1.428994e+003, 9.719869e-001
1.430922e+003, 9.726210e-001
1.432851e+003, 9.734485e-001
1.434779e+003, 9.739119e-001
1.436708e+003, 9.738140e-001
1.438636e+003, 9.750266e-001
1.440565e+003, 9.763939e-001
1.442493e+003, 9.767849e-001
1.444422e+003, 9.769174e-001
1.446350e+003, 9.771159e-001
1.448278e+003, 9.775851e-001
1.450207e+003, 9.786443e-001
1.452135e+003, 9.797040e-001
1.454064e+003, 9.798101e-001
1.455992e+003, 9.787614e-001
1.457921e+003, 9.788961e-001
1.459849e+003, 9.802768e-001
1.461778e+003, 9.808065e-001
1.463706e+003, 9.800699e-001
1.465635e+003, 9.795287e-001
1.467563e+003, 9.792380e-001
1.469492e+003, 9.783497e-001
1.471420e+003, 9.769027e-001
1.473349e+003, 9.758862e-001
1.475277e+003, 9.759778e-001
1.477205e+003, 9.759722e-001
1.479134e+003, 9.760426e-001
1.481062e+003, 9.763902e-001
1.482991e+003, 9.765394e-001
1.484919e+003, 9.762052e-001
1.486848e+003, 9.762804e-001
1.488776e+003, 9.765864e-001
1.490705e+003, 9.766604e-001
1.492633e+003, 9.775451e-001
1.494562e+003, 9.782719e-001
1.496490e+003, 9.781659e-001
1.498419e+003, 9.790412e-001
1.500347e+003, 9.802776e-001
1.502276e+003, 9.813732e-001
1.504204e+003, 9.813870e-001
1.506132e+003, 9.809846e-001
1.508061e+003, 9.824945e-001
1.509989e+003, 9.844434e-001
1.511918e+003, 9.858970e-001
1.513846e+003, 9.870353e-001
1.515775e+003, 9.880124e-001
1.517703e+003, 9.892220e-001
1.519632e+003, 9.895102e-001
1.521560e+003, 9.896522e-001
1.523489e+003, 9.910845e-001
1.525417e+003, 9.922176e-001
1.527346e+003, 9.933232e-001
1.529274e+003, 9.945915e-001
1.531203e+003, 9.950625e-001
1.533131e+003, 9.952506e-001
1.535059e+003, 9.961914e-001
1.536988e+003, 9.967682e-001
1.538916e+003, 9.960009e-001
1.540845e+003, 9.964936e-001
1.542773e+003, 9.977425e-001
1.544702e+003, 9.984338e-001
1.546630e+003, 9.994016e-001
1.548559e+003, 1.000571e+000
1.550487e+003, 1.001249e+000
1.552416e+003, 1.001456e+000
1.554344e+003, 1.001310e+000
1.556273e+003, 1.001179e+000
1.558201e+003, 1.000683e+000
1.560130e+003, 1.001408e+000
1.562058e+003, 1.003671e+000
1.563986e+003, 1.005108e+000
1.565915e+003, 1.005768e+000
1.567843e+003, 1.005976e+000
1.569772e+003, 1.006256e+000
1.571700e+003, 1.007375e+000
1.573629e+003, 1.008307e+000
1.575557e+003, 1.008455e+000
1.577486e+003, 1.009554e+000
1.579414e+003, 1.011422e+000
1.581343e+003, 1.012767e+000
1.583271e+003, 1.013205e+000
1.585200e+003, 1.013851e+000
1.587128e+003, 1.015011e+000
1.589057e+003, 1.015539e+000
1.590985e+003, 1.015933e+000
1.592913e+003, 1.016765e+000
1.594842e+003, 1.017648e+000
1.596770e+003, 1.018702e+000
1.598699e+003, 1.020109e+000
1.600627e+003, 1.021114e+000
1.602556e+003, 1.021916e+000
1.604484e+003, 1.022624e+000
1.606413e+003, 1.023761e+000
1.608341e+003, 1.024770e+000
1.610270e+003, 1.025442e+000
1.612198e+003, 1.026224e+000
1.614127e+003, 1.026923e+000
1.616055e+003, 1.027068e+000
1.617984e+003, 1.028572e+000
1.619912e+003, 1.030405e+000
1.621840e+003, 1.031282e+000
1.623769e+003, 1.032390e+000
1.625697e+003, 1.034006e+000
1.627626e+003, 1.034992e+000
1.629554e+003, 1.035449e+000
1.631483e+003, 1.036515e+000
1.633411e+003, 1.036948e+000
1.635340e+003, 1.037337e+000
1.637268e+003, 1.039238e+000
1.639197e+003, 1.040864e+000
1.641125e+003, 1.041627e+000
1.643054e+003, 1.041928e+000
1.644982e+003, 1.042224e+000
1.646911e+003, 1.042606e+000
1.648839e+003, 1.043658e+000
1.650767e+003, 1.043658e+000
1.652696e+003, 1.042305e+000
1.654624e+003, 1.044184e+000
1.656553e+003, 1.046889e+000
1.658481e+003, 1.047573e+000
1.660410e+003, 1.047711e+000
1.662338e+003, 1.048543e+000
1.664267e+003, 1.049839e+000
1.666195e+003, 1.049978e+000
1.668124e+003, 1.049400e+000
1.670052e+003, 1.049778e+000
1.671981e+003, 1.050854e+000
1.673909e+003, 1.051698e+000
1.675838e+003, 1.052599e+000
1.677766e+003, 1.053963e+000
1.679694e+003, 1.054311e+000
1.681623e+003, 1.054290e+000
1.683551e+003, 1.053610e+000
1.685480e+003, 1.054413e+000
1.687408e+003, 1.056987e+000
1.689337e+003, 1.058305e+000
1.691265e+003, 1.058901e+000
1.693194e+003, 1.059141e+000
1.695122e+003, 1.058777e+000
1.697051e+003, 1.059789e+000
1.698979e+003, 1.060959e+000
1.700908e+003, 1.061264e+000
1.702836e+003, 1.062370e+000
1.704765e+003, 1.063509e+000
1.706693e+003, 1.065125e+000
1.708621e+003, 1.066232e+000
1.710550e+003, 1.066703e+000
1.712478e+003, 1.067292e+000
1.714407e+003, 1.067782e+000
1.716335e+003, 1.067299e+000
1.718264e+003, 1.067551e+000
1.720192e+003, 1.069398e+000
1.722121e+003, 1.070902e+000
1.724049e+003, 1.071744e+000
1.725978e+003, 1.073051e+000
1.727906e+003, 1.074269e+000
1.729835e+003, 1.074870e+000
1.731763e+003, 1.075019e+000
1.733692e+003, 1.074186e+000
1.735620e+003, 1.074777e+000
1.737548e+003, 1.075912e+000
1.739477e+003, 1.075663e+000
1.741405e+003, 1.075665e+000
1.743334e+003, 1.075100e+000
1.745262e+003, 1.074609e+000
1.747191e+003, 1.074332e+000
1.749119e+003, 1.074172e+000
1.751048e+003, 1.074019e+000
1.752976e+003, 1.074733e+000
1.754905e+003, 1.075026e+000
1.756833e+003, 1.074911e+000
1.758762e+003, 1.075331e+000
1.760690e+003, 1.075587e+000
1.762619e+003, 1.076396e+000
1.764547e+003, 1.077021e+000
1.766475e+003, 1.077378e+000
1.768404e+003, 1.077739e+000
1.770332e+003, 1.078028e+000
1.772261e+003, 1.078314e+000
1.774189e+003, 1.079656e+000
1.776118e+003, 1.081112e+000
1.778046e+003, 1.081587e+000
1.779975e+003, 1.081980e+000
1.781903e+003, 1.082641e+000
1.783832e+003, 1.083454e+000
1.785760e+003, 1.084400e+000
1.787689e+003, 1.085582e+000
1.789617e+003, 1.086268e+000
1.791546e+003, 1.086316e+000
1.793474e+003, 1.087185e+000
1.795402e+003, 1.088461e+000
1.797331e+003, 1.088711e+000
1.799259e+003, 1.089133e+000
1.801188e+003, 1.089777e+000
1.803116e+003, 1.090446e+000
1.805045e+003, 1.090833e+000
1.806973e+003, 1.091672e+000
1.808902e+003, 1.092084e+000
1.810830e+003, 1.092617e+000
1.812759e+003, 1.093221e+000
1.814687e+003, 1.093556e+000
1.816616e+003, 1.093588e+000
1.818544e+003, 1.093750e+000
1.820473e+003, 1.094649e+000
1.822401e+003, 1.095195e+000
1.824329e+003, 1.095781e+000
1.826258e+003, 1.096422e+000
1.828186e+003, 1.096365e+000
1.830115e+003, 1.095929e+000
1.832043e+003, 1.096674e+000
1.833972e+003, 1.098066e+000
1.835900e+003, 1.098756e+000
1.837829e+003, 1.099665e+000
1.839757e+003, 1.100451e+000
1.841686e+003, 1.101470e+000
1.843614e+003, 1.102095e+000
1.845543e+003, 1.101888e+000
1.847471e+003, 1.102600e+000
1.849400e+003, 1.103671e+000
1.851328e+003, 1.104455e+000
1.853256e+003, 1.105675e+000
1.855185e+003, 1.106733e+000
1.857113e+003, 1.107293e+000
1.859042e+003, 1.107842e+000
1.860970e+003, 1.107821e+000
1.862899e+003, 1.108235e+000
1.864827e+003, 1.109168e+000
1.866756e+003, 1.109864e+000
1.868684e+003, 1.110879e+000
1.870613e+003, 1.112542e+000
1.872541e+003, 1.112713e+000
1.874470e+003, 1.112345e+000
1.876398e+003, 1.113500e+000
1.878327e+003, 1.113914e+000
1.880255e+003, 1.113700e+000
1.882183e+003, 1.112860e+000
1.884112e+003, 1.112973e+000
1.886040e+003, 1.116317e+000
1.887969e+003, 1.118077e+000
1.889897e+003, 1.118621e+000
1.891826e+003, 1.120164e+000
1.893754e+003, 1.121867e+000
1.895683e+003, 1.121692e+000
1.897611e+003, 1.122346e+000
1.899540e+003, 1.124127e+000
1.901468e+003, 1.123566e+000
1.903397e+003, 1.121904e+000
1.905325e+003, 1.122336e+000
1.907254e+003, 1.123725e+000
1.909182e+003, 1.123928e+000
1.911110e+003, 1.124163e+000
1.913039e+003, 1.125181e+000
1.914967e+003, 1.125631e+000
1.916896e+003, 1.126968e+000
1.918824e+003, 1.127012e+000
1.920753e+003, 1.126791e+000
1.922681e+003, 1.128101e+000
1.924610e+003, 1.127788e+000
1.926538e+003, 1.128125e+000
1.928467e+003, 1.129466e+000
1.930395e+003, 1.130504e+000
1.932324e+003, 1.131974e+000
1.934252e+003, 1.132507e+000
1.936181e+003, 1.130842e+000
1.938109e+003, 1.132053e+000
1.940037e+003, 1.133911e+000
1.941966e+003, 1.133506e+000
1.943894e+003, 1.134193e+000
1.945823e+003, 1.134404e+000
1.947751e+003, 1.134148e+000
1.949680e+003, 1.134736e+000
1.951608e+003, 1.134524e+000
1.953537e+003, 1.135316e+000
1.955465e+003, 1.134846e+000
1.957394e+003, 1.139296e+000
1.959322e+003, 1.144510e+000
1.961251e+003, 1.143107e+000
1.963179e+003, 1.139134e+000
1.965108e+003, 1.140371e+000
1.967036e+003, 1.137246e+000
1.968964e+003, 1.134318e+000
1.970893e+003, 1.137661e+000
1.972821e+003, 1.138995e+000
1.974750e+003, 1.140730e+000
1.976678e+003, 1.142579e+000
1.978607e+003, 1.143181e+000
1.980535e+003, 1.144827e+000
1.982464e+003, 1.149130e+000
1.984392e+003, 1.152838e+000
1.986321e+003, 1.149037e+000
1.988249e+003, 1.144241e+000
1.990178e+003, 1.148396e+000
1.992106e+003, 1.155369e+000
1.994035e+003, 1.153038e+000
1.995963e+003, 1.152112e+000
1.997891e+003, 1.156397e+000
1.999820e+003, 1.160690e+000
2.001748e+003, 1.159590e+000
2.003677e+003, 1.156058e+000
2.005605e+003, 1.158051e+000
2.007534e+003, 1.162628e+000
2.009462e+003, 1.162708e+000
2.011391e+003, 1.163328e+000
2.013319e+003, 1.165763e+000
2.015248e+003, 1.163846e+000
2.017176e+003, 1.163775e+000
2.019105e+003, 1.163630e+000
2.021033e+003, 1.160646e+000
2.022962e+003, 1.159725e+000
2.024890e+003, 1.163426e+000
2.026818e+003, 1.164837e+000
2.028747e+003, 1.173490e+000
2.030675e+003, 1.176839e+000
2.032604e+003, 1.173282e+000
2.034532e+003, 1.167944e+000
2.036461e+003, 1.164384e+000
2.038389e+003, 1.167181e+000
2.040318e+003, 1.172090e+000
2.042246e+003, 1.174368e+000
2.044175e+003, 1.173501e+000
2.046103e+003, 1.171910e+000
2.048031e+003, 1.172590e+000
2.049960e+003, 1.176106e+000
2.051888e+003, 1.179543e+000
2.053817e+003, 1.179919e+000
2.055745e+003, 1.181714e+000
2.057674e+003, 1.186063e+000
2.059602e+003, 1.182902e+000
2.061531e+003, 1.178982e+000
2.063459e+003, 1.178508e+000
2.065388e+003, 1.179131e+000
2.067316e+003, 1.180221e+000
2.069245e+003, 1.184407e+000
2.071173e+003, 1.189479e+000
2.073102e+003, 1.188970e+000
2.075030e+003, 1.190882e+000
2.076958e+003, 1.189668e+000
2.078887e+003, 1.188279e+000
2.080815e+003, 1.190087e+000
2.082744e+003, 1.190340e+000
2.084672e+003, 1.191796e+000
2.086601e+003, 1.193642e+000
2.088529e+003, 1.195083e+000
2.090458e+003, 1.194811e+000
2.092386e+003, 1.197151e+000
2.094315e+003, 1.197140e+000
2.096243e+003, 1.197786e+000
2.098172e+003, 1.201189e+000
2.100100e+003, 1.202633e+000
2.102029e+003, 1.203231e+000
2.103957e+003, 1.204257e+000
2.105885e+003, 1.205697e+000
2.107814e+003, 1.205454e+000
2.109742e+003, 1.202681e+000
2.111671e+003, 1.202771e+000
2.113599e+003, 1.205403e+000
2.115528e+003, 1.207985e+000
2.117456e+003, 1.207335e+000
2.119385e+003, 1.206963e+000
2.121313e+003, 1.206775e+000
2.123242e+003, 1.210228e+000
2.125170e+003, 1.213249e+000
2.127099e+003, 1.212965e+000
2.129027e+003, 1.213568e+000
2.130956e+003, 1.215638e+000
2.132884e+003, 1.213790e+000
2.134813e+003, 1.211396e+000
2.136741e+003, 1.213528e+000
2.138669e+003, 1.215295e+000
2.140598e+003, 1.215926e+000
2.142526e+003, 1.217031e+000
2.144455e+003, 1.217627e+000
2.146383e+003, 1.215806e+000
2.148312e+003, 1.219151e+000
2.150240e+003, 1.220779e+000
2.152169e+003, 1.219440e+000
2.154097e+003, 1.226223e+000
2.156026e+003, 1.227234e+000
2.157954e+003, 1.223791e+000
2.159883e+003, 1.220310e+000
2.161811e+003, 1.216224e+000
2.163740e+003, 1.216577e+000
2.165668e+003, 1.222942e+000
2.167596e+003, 1.225118e+000
2.169525e+003, 1.226889e+000
2.171453e+003, 1.221995e+000
2.173382e+003, 1.221477e+000
2.175310e+003, 1.222043e+000
2.177239e+003, 1.224283e+000
2.179167e+003, 1.226079e+000
2.181096e+003, 1.225768e+000
2.183024e+003, 1.226028e+000
2.184953e+003, 1.226483e+000
2.186881e+003, 1.224570e+000
2.188810e+003, 1.226788e+000
2.190738e+003, 1.225474e+000
2.192667e+003, 1.222782e+000
2.194595e+003, 1.230966e+000
2.196523e+003, 1.239311e+000
2.198452e+003, 1.236993e+000
2.200380e+003, 1.234429e+000
2.202309e+003, 1.235991e+000
2.204237e+003, 1.237010e+000
2.206166e+003, 1.233888e+000
2.208094e+003, 1.232645e+000
2.210023e+003, 1.237095e+000
2.211951e+003, 1.238677e+000
2.213880e+003, 1.238701e+000
2.215808e+003, 1.238647e+000
2.217737e+003, 1.241199e+000
2.219665e+003, 1.244427e+000
2.221594e+003, 1.244531e+000
2.223522e+003, 1.243264e+000
2.225450e+003, 1.243103e+000
2.227379e+003, 1.243533e+000
2.229307e+003, 1.245057e+000
2.231236e+003, 1.246250e+000
2.233164e+003, 1.246036e+000
2.235093e+003, 1.248372e+000
2.237021e+003, 1.249998e+000
2.238950e+003, 1.251817e+000
2.240878e+003, 1.252496e+000
2.242807e+003, 1.251930e+000
2.244735e+003, 1.252798e+000
2.246664e+003, 1.254303e+000
2.248592e+003, 1.257810e+000
2.250521e+003, 1.261656e+000
2.252449e+003, 1.259748e+000
2.254377e+003, 1.256585e+000
2.256306e+003, 1.254812e+000
2.258234e+003, 1.254050e+000
2.260163e+003, 1.255317e+000
2.262091e+003, 1.257002e+000
2.264020e+003, 1.258373e+000
2.265948e+003, 1.258511e+000
2.267877e+003, 1.257809e+000
2.269805e+003, 1.262430e+000
2.271734e+003, 1.267912e+000
2.273662e+003, 1.270741e+000
2.275591e+003, 1.271662e+000
2.277519e+003, 1.270930e+000
2.279448e+003, 1.269326e+000
2.281376e+003, 1.269390e+000
2.283304e+003, 1.269202e+000
2.285233e+003, 1.269088e+000
2.287161e+003, 1.269485e+000
2.289090e+003, 1.270137e+000
2.291018e+003, 1.271831e+000
2.292947e+003, 1.273514e+000
2.294875e+003, 1.274232e+000
2.296804e+003, 1.274262e+000
2.298732e+003, 1.274965e+000
2.300661e+003, 1.278149e+000
2.302589e+003, 1.279680e+000
2.304518e+003, 1.278455e+000
2.306446e+003, 1.277201e+000
2.308375e+003, 1.277398e+000
2.310303e+003, 1.277977e+000
2.312231e+003, 1.279077e+000
2.314160e+003, 1.280302e+000
2.316088e+003, 1.281664e+000
2.318017e+003, 1.282858e+000
2.319945e+003, 1.283377e+000
2.321874e+003, 1.283548e+000
2.323802e+003, 1.283753e+000
2.325731e+003, 1.284136e+000
2.327659e+003, 1.285767e+000
2.329588e+003, 1.286649e+000
2.331516e+003, 1.286296e+000
2.333445e+003, 1.287385e+000
2.335373e+003, 1.288957e+000
2.337302e+003, 1.288800e+000
2.339230e+003, 1.288696e+000
2.341158e+003, 1.289169e+000
2.343087e+003, 1.290583e+000
2.345015e+003, 1.291651e+000
2.346944e+003, 1.294139e+000
2.348872e+003, 1.295025e+000
2.350801e+003, 1.294592e+000
2.352729e+003, 1.293412e+000
2.354658e+003, 1.293821e+000
2.356586e+003, 1.294750e+000
2.358515e+003, 1.293427e+000
2.360443e+003, 1.293573e+000
2.362372e+003, 1.295699e+000
2.364300e+003, 1.298132e+000
2.366229e+003, 1.298680e+000
2.368157e+003, 1.298781e+000
2.370085e+003, 1.300164e+000
2.372014e+003, 1.301619e+000
2.373942e+003, 1.302305e+000
2.375871e+003, 1.302807e+000
2.377799e+003, 1.302181e+000
2.379728e+003, 1.302736e+000
2.381656e+003, 1.304446e+000
2.383585e+003, 1.305236e+000
2.385513e+003, 1.307526e+000
2.387442e+003, 1.308863e+000
2.389370e+003, 1.309769e+000
2.391299e+003, 1.309513e+000
2.393227e+003, 1.309027e+000
2.395156e+003, 1.309499e+000
2.397084e+003, 1.309219e+000
2.399012e+003, 1.309682e+000
2.400941e+003, 1.310986e+000
2.402869e+003, 1.309521e+000
2.404798e+003, 1.309735e+000
2.406726e+003, 1.312200e+000
2.408655e+003, 1.313284e+000
2.410583e+003, 1.314344e+000
2.412512e+003, 1.315554e+000
2.414440e+003, 1.316118e+000
2.416369e+003, 1.317192e+000
2.418297e+003, 1.317189e+000
2.420226e+003, 1.315566e+000
2.422154e+003, 1.314673e+000
2.424083e+003, 1.316606e+000
2.426011e+003, 1.317462e+000
2.427939e+003, 1.318348e+000
2.429868e+003, 1.319342e+000
2.431796e+003, 1.321109e+000
2.433725e+003, 1.319614e+000
2.435653e+003, 1.320312e+000
2.437582e+003, 1.321464e+000
2.439510e+003, 1.321795e+000
2.441439e+003, 1.321846e+000
2.443367e+003, 1.322345e+000
2.445296e+003, 1.323046e+000
2.447224e+003, 1.323448e+000
2.449153e+003, 1.324907e+000
2.451081e+003, 1.326784e+000
2.453010e+003, 1.328157e+000
2.454938e+003, 1.327932e+000
2.456866e+003, 1.328152e+000
2.458795e+003, 1.329232e+000
2.460723e+003, 1.328815e+000
2.462652e+003, 1.328570e+000
2.464580e+003, 1.329050e+000
2.466509e+003, 1.330664e+000
2.468437e+003, 1.331670e+000
2.470366e+003, 1.332418e+000
2.472294e+003, 1.332816e+000
2.474223e+003, 1.332949e+000
2.476151e+003, 1.333018e+000
2.478080e+003, 1.333719e+000
2.480008e+003, 1.334710e+000
2.481937e+003, 1.335577e+000
2.483865e+003, 1.335845e+000
2.485793e+003, 1.336475e+000
2.487722e+003, 1.337991e+000
2.489650e+003, 1.338230e+000
2.491579e+003, 1.338800e+000
2.493507e+003, 1.340907e+000
2.495436e+003, 1.341906e+000
2.497364e+003, 1.341657e+000
2.499293e+003, 1.342212e+000
2.501221e+003, 1.343139e+000
2.503150e+003, 1.344712e+000
2.505078e+003, 1.345662e+000
2.507007e+003, 1.344703e+000
2.508935e+003, 1.345862e+000
2.510864e+003, 1.348206e+000
2.512792e+003, 1.348676e+000
2.514720e+003, 1.348971e+000
2.516649e+003, 1.349165e+000
2.518577e+003, 1.348456e+000
2.520506e+003, 1.349242e+000
2.522434e+003, 1.351836e+000
2.524363e+003, 1.352801e+000
2.526291e+003, 1.352286e+000
2.528220e+003, 1.352173e+000
2.530148e+003, 1.353371e+000
2.532077e+003, 1.353856e+000
2.534005e+003, 1.353504e+000
2.535934e+003, 1.354276e+000
2.537862e+003, 1.355160e+000
2.539791e+003, 1.355928e+000
2.541719e+003, 1.357101e+000
2.543647e+003, 1.358073e+000
2.545576e+003, 1.358857e+000
2.547504e+003, 1.359893e+000
2.549433e+003, 1.360321e+000
2.551361e+003, 1.360761e+000
2.553290e+003, 1.361645e+000
2.555218e+003, 1.362476e+000
2.557147e+003, 1.363192e+000
2.559075e+003, 1.364421e+000
2.561004e+003, 1.364375e+000
2.562932e+003, 1.364143e+000
2.564861e+003, 1.365539e+000
2.566789e+003, 1.366983e+000
2.568718e+003, 1.367185e+000
2.570646e+003, 1.367085e+000
2.572574e+003, 1.367851e+000
2.574503e+003, 1.369121e+000
2.576431e+003, 1.369337e+000
2.578360e+003, 1.370192e+000
2.580288e+003, 1.371844e+000
2.582217e+003, 1.371934e+000
2.584145e+003, 1.372006e+000
2.586074e+003, 1.373659e+000
2.588002e+003, 1.375508e+000
2.589931e+003, 1.376714e+000
2.591859e+003, 1.377499e+000
2.593788e+003, 1.377964e+000
2.595716e+003, 1.378468e+000
2.597645e+003, 1.379229e+000
2.599573e+003, 1.379706e+000
2.601501e+003, 1.380581e+000
2.603430e+003, 1.382415e+000
2.605358e+003, 1.383256e+000
2.607287e+003, 1.383094e+000
2.609215e+003, 1.383901e+000
2.611144e+003, 1.385546e+000
2.613072e+003, 1.386794e+000
2.615001e+003, 1.387624e+000
2.616929e+003, 1.388555e+000
2.618858e+003, 1.388538e+000
2.620786e+003, 1.388977e+000
2.622715e+003, 1.389955e+000
2.624643e+003, 1.390569e+000
2.626572e+003, 1.391864e+000
2.628500e+003, 1.392955e+000
2.630428e+003, 1.393901e+000
2.632357e+003, 1.394861e+000
2.634285e+003, 1.396184e+000
2.636214e+003, 1.397748e+000
2.638142e+003, 1.398681e+000
2.640071e+003, 1.399094e+000
2.641999e+003, 1.399811e+000
2.643928e+003, 1.400731e+000
2.645856e+003, 1.400986e+000
2.647785e+003, 1.402110e+000
2.649713e+003, 1.403702e+000
2.651642e+003, 1.404633e+000
2.653570e+003, 1.405801e+000
2.655499e+003, 1.407236e+000
2.657427e+003, 1.408241e+000
2.659355e+003, 1.408198e+000
2.661284e+003, 1.408401e+000
2.663212e+003, 1.408868e+000
2.665141e+003, 1.409371e+000
2.667069e+003, 1.410298e+000
2.668998e+003, 1.411400e+000
2.670926e+003, 1.412300e+000
2.672855e+003, 1.412749e+000
2.674783e+003, 1.412895e+000
2.676712e+003, 1.413145e+000
2.678640e+003, 1.413952e+000
2.680569e+003, 1.414662e+000
2.682497e+003, 1.415257e+000
2.684426e+003, 1.415878e+000
2.686354e+003, 1.416457e+000
2.688282e+003, 1.417124e+000
2.690211e+003, 1.417842e+000
2.692139e+003, 1.418198e+000
2.694068e+003, 1.419019e+000
2.695996e+003, 1.419726e+000
2.697925e+003, 1.419669e+000
2.699853e+003, 1.420795e+000
2.701782e+003, 1.422396e+000
2.703710e+003, 1.422922e+000
2.705639e+003, 1.422622e+000
2.707567e+003, 1.423037e+000
2.709496e+003, 1.424150e+000
2.711424e+003, 1.425270e+000
2.713353e+003, 1.426067e+000
2.715281e+003, 1.426979e+000
2.717209e+003, 1.427406e+000
2.719138e+003, 1.427432e+000
2.721066e+003, 1.428207e+000
2.722995e+003, 1.428837e+000
2.724923e+003, 1.429837e+000
2.726852e+003, 1.430353e+000
2.728780e+003, 1.430471e+000
2.730709e+003, 1.431015e+000
2.732637e+003, 1.431699e+000
2.734566e+003, 1.432427e+000
2.736494e+003, 1.432936e+000
2.738423e+003, 1.433746e+000
2.740351e+003, 1.434251e+000
2.742280e+003, 1.434565e+000
2.744208e+003, 1.435366e+000
2.746136e+003, 1.436447e+000
2.748065e+003, 1.436846e+000
2.749993e+003, 1.437610e+000
2.751922e+003, 1.438142e+000
2.753850e+003, 1.437367e+000
2.755779e+003, 1.437905e+000
2.757707e+003, 1.438827e+000
2.759636e+003, 1.439215e+000
2.761564e+003, 1.439975e+000
2.763493e+003, 1.440972e+000
2.765421e+003, 1.441797e+000
2.767350e+003, 1.442778e+000
2.769278e+003, 1.443679e+000
2.771207e+003, 1.444572e+000
2.773135e+003, 1.444997e+000
2.775063e+003, 1.445199e+000
2.776992e+003, 1.444862e+000
2.778920e+003, 1.445206e+000
2.780849e+003, 1.446383e+000
2.782777e+003, 1.447105e+000
2.784706e+003, 1.447843e+000
2.786634e+003, 1.448769e+000
2.788563e+003, 1.449814e+000
2.790491e+003, 1.450734e+000
2.792420e+003, 1.451402e+000
2.794348e+003, 1.451831e+000
2.796277e+003, 1.452068e+000
2.798205e+003, 1.452716e+000
2.800134e+003, 1.453604e+000
2.802062e+003, 1.454900e+000
2.803990e+003, 1.456481e+000
2.805919e+003, 1.457016e+000
2.807847e+003, 1.457819e+000
2.809776e+003, 1.458861e+000
2.811704e+003, 1.459829e+000
2.813633e+003, 1.460996e+000
2.815561e+003, 1.461578e+000
2.817490e+003, 1.462028e+000
2.819418e+003, 1.463207e+000
2.821347e+003, 1.464685e+000
2.823275e+003, 1.466017e+000
2.825204e+003, 1.467829e+000
2.827132e+003, 1.470218e+000
2.829061e+003, 1.471378e+000
2.830989e+003, 1.471631e+000
2.832917e+003, 1.473114e+000
2.834846e+003, 1.475446e+000
2.836774e+003, 1.477562e+000
2.838703e+003, 1.480215e+000
2.840631e+003, 1.481710e+000
2.842560e+003, 1.483640e+000
2.844488e+003, 1.485721e+000
2.846417e+003, 1.487809e+000
2.848345e+003, 1.490652e+000
2.850274e+003, 1.492637e+000
2.852202e+003, 1.493659e+000
2.854131e+003, 1.494846e+000
2.856059e+003, 1.495523e+000
2.857988e+003, 1.494942e+000
2.859916e+003, 1.494134e+000
2.861844e+003, 1.494075e+000
2.863773e+003, 1.494209e+000
2.865701e+003, 1.494238e+000
2.867630e+003, 1.494186e+000
2.869558e+003, 1.494635e+000
2.871487e+003, 1.495784e+000
2.873415e+003, 1.495995e+000
2.875344e+003, 1.495474e+000
2.877272e+003, 1.495385e+000
2.879201e+003, 1.495290e+000
2.881129e+003, 1.495267e+000
2.883058e+003, 1.496295e+000
2.884986e+003, 1.497006e+000
2.886915e+003, 1.498079e+000
2.888843e+003, 1.499818e+000
2.890771e+003, 1.501354e+000
2.892700e+003, 1.503035e+000
2.894628e+003, 1.505291e+000
2.896557e+003, 1.507031e+000
2.898485e+003, 1.507932e+000
2.900414e+003, 1.508526e+000
2.902342e+003, 1.509964e+000
2.904271e+003, 1.511993e+000
2.906199e+003, 1.514097e+000
2.908128e+003, 1.516200e+000
2.910056e+003, 1.517299e+000
2.911985e+003, 1.518360e+000
2.913913e+003, 1.519850e+000
2.915842e+003, 1.521937e+000
2.917770e+003, 1.523767e+000
2.919698e+003, 1.524799e+000
2.921627e+003, 1.525822e+000
2.923555e+003, 1.526442e+000
2.925484e+003, 1.526429e+000
2.927412e+003, 1.526723e+000
2.929341e+003, 1.526306e+000
2.931269e+003, 1.523928e+000
2.933198e+003, 1.523109e+000
2.935126e+003, 1.523069e+000
2.937055e+003, 1.521000e+000
2.938983e+003, 1.518837e+000
2.940912e+003, 1.517395e+000
2.942840e+003, 1.517267e+000
2.944769e+003, 1.518106e+000
2.946697e+003, 1.518957e+000
2.948625e+003, 1.519588e+000
2.950554e+003, 1.520658e+000
2.952482e+003, 1.520656e+000
2.954411e+003, 1.520861e+000
2.956339e+003, 1.521440e+000
2.958268e+003, 1.521509e+000
2.960196e+003, 1.520670e+000
2.962125e+003, 1.519311e+000
2.964053e+003, 1.518074e+000
2.965982e+003, 1.517199e+000
2.967910e+003, 1.515886e+000
2.969839e+003, 1.513807e+000
2.971767e+003, 1.512534e+000
2.973696e+003, 1.512439e+000
2.975624e+003, 1.512229e+000
2.977552e+003, 1.510356e+000
2.979481e+003, 1.508797e+000
2.981409e+003, 1.508641e+000
2.983338e+003, 1.509422e+000
2.985266e+003, 1.509625e+000
2.987195e+003, 1.509165e+000
2.989123e+003, 1.508591e+000
2.991052e+003, 1.508841e+000
2.992980e+003, 1.509821e+000
2.994909e+003, 1.510679e+000
2.996837e+003, 1.510748e+000
2.998766e+003, 1.511188e+000
3.000694e+003, 1.510895e+000
3.002623e+003, 1.510840e+000
3.004551e+003, 1.511110e+000
3.006479e+003, 1.511796e+000
3.008408e+003, 1.513246e+000
3.010336e+003, 1.513729e+000
3.012265e+003, 1.513177e+000
3.014193e+003, 1.513964e+000
3.016122e+003, 1.515276e+000
3.018050e+003, 1.515430e+000
3.019979e+003, 1.515448e+000
3.021907e+003, 1.516518e+000
3.023836e+003, 1.518361e+000
3.025764e+003, 1.518909e+000
3.027693e+003, 1.518393e+000
3.029621e+003, 1.518777e+000
3.031550e+003, 1.519539e+000
3.033478e+003, 1.520571e+000
3.035406e+003, 1.521686e+000
3.037335e+003, 1.521647e+000
3.039263e+003, 1.521809e+000
3.041192e+003, 1.522464e+000
3.043120e+003, 1.523274e+000
3.045049e+003, 1.523991e+000
3.046977e+003, 1.524018e+000
3.048906e+003, 1.524463e+000
3.050834e+003, 1.524803e+000
3.052763e+003, 1.525313e+000
3.054691e+003, 1.526206e+000
3.056620e+003, 1.527240e+000
3.058548e+003, 1.528516e+000
3.060477e+003, 1.529779e+000
3.062405e+003, 1.530700e+000
3.064333e+003, 1.530993e+000
3.066262e+003, 1.531111e+000
3.068190e+003, 1.531200e+000
3.070119e+003, 1.531948e+000
3.072047e+003, 1.533326e+000
3.073976e+003, 1.535078e+000
3.075904e+003, 1.536498e+000
3.077833e+003, 1.536887e+000
3.079761e+003, 1.536312e+000
3.081690e+003, 1.536789e+000
3.083618e+003, 1.537210e+000
3.085547e+003, 1.537264e+000
3.087475e+003, 1.537912e+000
3.089404e+003, 1.539104e+000
3.091332e+003, 1.539206e+000
3.093260e+003, 1.539175e+000
3.095189e+003, 1.540223e+000
3.097117e+003, 1.540486e+000
3.099046e+003, 1.541512e+000
3.100974e+003, 1.542960e+000
3.102903e+003, 1.543109e+000
3.104831e+003, 1.543730e+000
3.106760e+003, 1.544766e+000
3.108688e+003, 1.545067e+000
3.110617e+003, 1.544960e+000
3.112545e+003, 1.545758e+000
3.114474e+003, 1.547816e+000
3.116402e+003, 1.548444e+000
3.118331e+003, 1.549085e+000
3.120259e+003, 1.549666e+000
3.122188e+003, 1.549291e+000
3.124116e+003, 1.550338e+000
3.126044e+003, 1.551392e+000
3.127973e+003, 1.551186e+000
3.129901e+003, 1.551230e+000
3.131830e+003, 1.552177e+000
3.133758e+003, 1.553714e+000
3.135687e+003, 1.553964e+000
3.137615e+003, 1.553584e+000
3.139544e+003, 1.554361e+000
3.141472e+003, 1.555703e+000
3.143401e+003, 1.557029e+000
3.145329e+003, 1.557638e+000
3.147258e+003, 1.557990e+000
3.149186e+003, 1.558313e+000
3.151115e+003, 1.559674e+000
3.153043e+003, 1.561279e+000
3.154971e+003, 1.562123e+000
3.156900e+003, 1.561941e+000
3.158828e+003, 1.561973e+000
3.160757e+003, 1.562418e+000
3.162685e+003, 1.563869e+000
3.164614e+003, 1.566441e+000
3.166542e+003, 1.567208e+000
3.168471e+003, 1.565841e+000
3.170399e+003, 1.566006e+000
3.172328e+003, 1.567214e+000
3.174256e+003, 1.567940e+000
3.176185e+003, 1.568156e+000
3.178113e+003, 1.569059e+000
3.180042e+003, 1.569498e+000
3.181970e+003, 1.569698e+000
3.183898e+003, 1.569753e+000
3.185827e+003, 1.570580e+000
3.187755e+003, 1.572924e+000
3.189684e+003, 1.574480e+000
3.191612e+003, 1.574135e+000
3.193541e+003, 1.573372e+000
3.195469e+003, 1.574554e+000
3.197398e+003, 1.576246e+000
3.199326e+003, 1.576957e+000
3.201255e+003, 1.577663e+000
3.203183e+003, 1.577861e+000
3.205112e+003, 1.577551e+000
3.207040e+003, 1.577184e+000
3.208969e+003, 1.577244e+000
3.210897e+003, 1.579545e+000
3.212825e+003, 1.581730e+000
3.214754e+003, 1.582311e+000
3.216682e+003, 1.583514e+000
3.218611e+003, 1.583579e+000
3.220539e+003, 1.583993e+000
3.222468e+003, 1.584987e+000
3.224396e+003, 1.585538e+000
3.226325e+003, 1.586044e+000
3.228253e+003, 1.586386e+000
3.230182e+003, 1.586621e+000
3.232110e+003, 1.587863e+000
3.234039e+003, 1.588871e+000
3.235967e+003, 1.589375e+000
3.237896e+003, 1.589805e+000
3.239824e+003, 1.590217e+000
3.241752e+003, 1.590686e+000
3.243681e+003, 1.591686e+000
3.245609e+003, 1.592741e+000
3.247538e+003, 1.593077e+000
3.249466e+003, 1.593169e+000
3.251395e+003, 1.593518e+000
3.253323e+003, 1.595300e+000
3.255252e+003, 1.596429e+000
3.257180e+003, 1.596632e+000
3.259109e+003, 1.597362e+000
3.261037e+003, 1.598266e+000
3.262966e+003, 1.598411e+000
3.264894e+003, 1.598276e+000
3.266823e+003, 1.598559e+000
3.268751e+003, 1.599980e+000
3.270679e+003, 1.601471e+000
3.272608e+003, 1.602613e+000
3.274536e+003, 1.603177e+000
3.276465e+003, 1.603018e+000
3.278393e+003, 1.603022e+000
3.280322e+003, 1.603405e+000
3.282250e+003, 1.604424e+000
3.284179e+003, 1.605293e+000
3.286107e+003, 1.605379e+000
3.288036e+003, 1.604528e+000
3.289964e+003, 1.604706e+000
3.291893e+003, 1.606833e+000
3.293821e+003, 1.607992e+000
3.295750e+003, 1.607993e+000
3.297678e+003, 1.608768e+000
3.299606e+003, 1.610198e+000
3.301535e+003, 1.610131e+000
3.303463e+003, 1.610950e+000
3.305392e+003, 1.612854e+000
3.307320e+003, 1.613190e+000
3.309249e+003, 1.613248e+000
3.311177e+003, 1.614723e+000
3.313106e+003, 1.616109e+000
3.315034e+003, 1.615288e+000
3.316963e+003, 1.615035e+000
3.318891e+003, 1.615947e+000
3.320820e+003, 1.616263e+000
3.322748e+003, 1.617612e+000
3.324677e+003, 1.618892e+000
3.326605e+003, 1.617650e+000
3.328533e+003, 1.617152e+000
3.330462e+003, 1.618468e+000
3.332390e+003, 1.619652e+000
3.334319e+003, 1.620089e+000
3.336247e+003, 1.621766e+000
3.338176e+003, 1.623291e+000
3.340104e+003, 1.624358e+000
3.342033e+003, 1.624829e+000
3.343961e+003, 1.624413e+000
3.345890e+003, 1.624404e+000
3.347818e+003, 1.626008e+000
3.349747e+003, 1.627507e+000
3.351675e+003, 1.627631e+000
3.353604e+003, 1.626431e+000
3.355532e+003, 1.626125e+000
3.357460e+003, 1.627883e+000
3.359389e+003, 1.628462e+000
3.361317e+003, 1.628710e+000
3.363246e+003, 1.630074e+000
3.365174e+003, 1.629381e+000
3.367103e+003, 1.629192e+000
3.369031e+003, 1.630869e+000
3.370960e+003, 1.631472e+000
3.372888e+003, 1.631160e+000
3.374817e+003, 1.631275e+000
3.376745e+003, 1.632508e+000
3.378674e+003, 1.633686e+000
3.380602e+003, 1.634241e+000
3.382531e+003, 1.635395e+000
3.384459e+003, 1.635237e+000
3.386387e+003, 1.635031e+000
3.388316e+003, 1.636964e+000
3.390244e+003, 1.637428e+000
3.392173e+003, 1.636749e+000
3.394101e+003, 1.637280e+000
3.396030e+003, 1.637463e+000
3.397958e+003, 1.637679e+000
3.399887e+003, 1.640044e+000
3.401815e+003, 1.640841e+000
3.403744e+003, 1.640225e+000
3.405672e+003, 1.640158e+000
3.407601e+003, 1.640387e+000
3.409529e+003, 1.640833e+000
3.411458e+003, 1.640940e+000
3.413386e+003, 1.641119e+000
3.415314e+003, 1.641914e+000
3.417243e+003, 1.641689e+000
3.419171e+003, 1.641542e+000
3.421100e+003, 1.643159e+000
3.423028e+003, 1.644628e+000
3.424957e+003, 1.644411e+000
3.426885e+003, 1.644677e+000
3.428814e+003, 1.645293e+000
3.430742e+003, 1.645412e+000
3.432671e+003, 1.645997e+000
3.434599e+003, 1.647419e+000
3.436528e+003, 1.648430e+000
3.438456e+003, 1.648358e+000
3.440385e+003, 1.646540e+000
3.442313e+003, 1.646740e+000
3.444241e+003, 1.648831e+000
3.446170e+003, 1.649626e+000
3.448098e+003, 1.649374e+000
3.450027e+003, 1.649587e+000
3.451955e+003, 1.649497e+000
3.453884e+003, 1.649721e+000
3.455812e+003, 1.650262e+000
3.457741e+003, 1.651268e+000
3.459669e+003, 1.652360e+000
3.461598e+003, 1.653505e+000
3.463526e+003, 1.653589e+000
3.465455e+003, 1.653426e+000
3.467383e+003, 1.654704e+000
3.469312e+003, 1.655739e+000
3.471240e+003, 1.654919e+000
3.473168e+003, 1.653434e+000
3.475097e+003, 1.654238e+000
3.477025e+003, 1.656201e+000
3.478954e+003, 1.657411e+000
3.480882e+003, 1.657848e+000
3.482811e+003, 1.658327e+000
3.484739e+003, 1.659154e+000
3.486668e+003, 1.658496e+000
3.488596e+003, 1.657021e+000
3.490525e+003, 1.657814e+000
3.492453e+003, 1.659384e+000
3.494382e+003, 1.660139e+000
3.496310e+003, 1.659641e+000
3.498239e+003, 1.659953e+000
3.500167e+003, 1.661084e+000
3.502095e+003, 1.659958e+000
3.504024e+003, 1.659912e+000
3.505952e+003, 1.662202e+000
3.507881e+003, 1.662753e+000
3.509809e+003, 1.661943e+000
3.511738e+003, 1.662809e+000
3.513666e+003, 1.662769e+000
3.515595e+003, 1.662359e+000
3.517523e+003, 1.662827e+000
3.519452e+003, 1.662935e+000
3.521380e+003, 1.664151e+000
3.523309e+003, 1.664827e+000
3.525237e+003, 1.664400e+000
3.527166e+003, 1.664227e+000
3.529094e+003, 1.664210e+000
3.531022e+003, 1.664892e+000
3.532951e+003, 1.665849e+000
3.534879e+003, 1.666378e+000
3.536808e+003, 1.667157e+000
3.538736e+003, 1.668180e+000
3.540665e+003, 1.668734e+000
3.542593e+003, 1.669023e+000
3.544522e+003, 1.669262e+000
3.546450e+003, 1.670393e+000
3.548379e+003, 1.670967e+000
3.550307e+003, 1.670233e+000
3.552236e+003, 1.670895e+000
3.554164e+003, 1.672425e+000
3.556093e+003, 1.672951e+000
3.558021e+003, 1.673599e+000
3.559949e+003, 1.672626e+000
3.561878e+003, 1.672163e+000
3.563806e+003, 1.673682e+000
3.565735e+003, 1.673401e+000
3.567663e+003, 1.672813e+000
3.569592e+003, 1.672834e+000
3.571520e+003, 1.674054e+000
3.573449e+003, 1.674197e+000
3.575377e+003, 1.674473e+000
3.577306e+003, 1.675447e+000
3.579234e+003, 1.675528e+000
3.581163e+003, 1.675298e+000
3.583091e+003, 1.675045e+000
3.585020e+003, 1.674716e+000
3.586948e+003, 1.675253e+000
3.588876e+003, 1.676044e+000
3.590805e+003, 1.675931e+000
3.592733e+003, 1.675493e+000
3.594662e+003, 1.675920e+000
3.596590e+003, 1.677656e+000
3.598519e+003, 1.678699e+000
3.600447e+003, 1.678491e+000
3.602376e+003, 1.679907e+000
3.604304e+003, 1.682482e+000
3.606233e+003, 1.682729e+000
3.608161e+003, 1.681026e+000
3.610090e+003, 1.681090e+000
3.612018e+003, 1.680731e+000
3.613947e+003, 1.679491e+000
3.615875e+003, 1.680339e+000
3.617803e+003, 1.682811e+000
3.619732e+003, 1.683655e+000
3.621660e+003, 1.683571e+000
3.623589e+003, 1.683043e+000
3.625517e+003, 1.683914e+000
3.627446e+003, 1.682477e+000
3.629374e+003, 1.681583e+000
3.631303e+003, 1.682853e+000
3.633231e+003, 1.683722e+000
3.635160e+003, 1.686309e+000
3.637088e+003, 1.689198e+000
3.639017e+003, 1.690114e+000
3.640945e+003, 1.688116e+000
3.642874e+003, 1.688482e+000
3.644802e+003, 1.690355e+000
3.646730e+003, 1.688157e+000
3.648659e+003, 1.686838e+000
3.650587e+003, 1.688127e+000
3.652516e+003, 1.690046e+000
3.654444e+003, 1.690713e+000
3.656373e+003, 1.689743e+000
3.658301e+003, 1.690982e+000
3.660230e+003, 1.693111e+000
3.662158e+003, 1.694373e+000
3.664087e+003, 1.694003e+000
3.666015e+003, 1.693360e+000
3.667944e+003, 1.693625e+000
3.669872e+003, 1.692967e+000
3.671801e+003, 1.692829e+000
3.673729e+003, 1.694350e+000
3.675657e+003, 1.694549e+000
3.677586e+003, 1.695571e+000
3.679514e+003, 1.696804e+000
3.681443e+003, 1.697592e+000
3.683371e+003, 1.697282e+000
3.685300e+003, 1.698226e+000
3.687228e+003, 1.697324e+000
3.689157e+003, 1.696605e+000
3.691085e+003, 1.696288e+000
3.693014e+003, 1.696807e+000
3.694942e+003, 1.698741e+000
3.696871e+003, 1.699399e+000
3.698799e+003, 1.699932e+000
3.700728e+003, 1.699038e+000
3.702656e+003, 1.698753e+000
3.704584e+003, 1.701084e+000
3.706513e+003, 1.702356e+000
3.708441e+003, 1.702043e+000
3.710370e+003, 1.700375e+000
3.712298e+003, 1.700011e+000
3.714227e+003, 1.702993e+000
3.716155e+003, 1.704799e+000
3.718084e+003, 1.704903e+000
3.720012e+003, 1.705656e+000
3.721941e+003, 1.706711e+000
3.723869e+003, 1.706525e+000
3.725798e+003, 1.706599e+000
3.727726e+003, 1.708096e+000
3.729655e+003, 1.709063e+000
3.731583e+003, 1.709934e+000
3.733511e+003, 1.711043e+000
3.735440e+003, 1.710448e+000
3.737368e+003, 1.711972e+000
3.739297e+003, 1.712813e+000
3.741225e+003, 1.712352e+000
3.743154e+003, 1.709894e+000
3.745082e+003, 1.709403e+000
3.747011e+003, 1.711798e+000
3.748939e+003, 1.711369e+000
3.750868e+003, 1.711874e+000
3.752796e+003, 1.712711e+000
3.754725e+003, 1.713938e+000
3.756653e+003, 1.714578e+000
3.758582e+003, 1.715685e+000
3.760510e+003, 1.717016e+000
3.762438e+003, 1.718624e+000
3.764367e+003, 1.719897e+000
3.766295e+003, 1.719112e+000
3.768224e+003, 1.716278e+000
3.770152e+003, 1.716306e+000
3.772081e+003, 1.718634e+000
3.774009e+003, 1.719451e+000
3.775938e+003, 1.719502e+000
3.777866e+003, 1.719912e+000
3.779795e+003, 1.719328e+000
3.781723e+003, 1.720552e+000
3.783652e+003, 1.722891e+000
3.785580e+003, 1.722889e+000
3.787509e+003, 1.722052e+000
3.789437e+003, 1.721616e+000
3.791365e+003, 1.723376e+000
3.793294e+003, 1.726004e+000
3.795222e+003, 1.725646e+000
3.797151e+003, 1.724512e+000
3.799079e+003, 1.725238e+000
3.801008e+003, 1.723435e+000
3.802936e+003, 1.724425e+000
3.804865e+003, 1.726778e+000
3.806793e+003, 1.726922e+000
3.808722e+003, 1.728960e+000
3.810650e+003, 1.729077e+000
3.812579e+003, 1.728831e+000
3.814507e+003, 1.727573e+000
3.816436e+003, 1.727415e+000
3.818364e+003, 1.729566e+000
3.820292e+003, 1.730597e+000
3.822221e+003, 1.732553e+000
3.824149e+003, 1.734529e+000
3.826078e+003, 1.734241e+000
3.828006e+003, 1.735009e+000
3.829935e+003, 1.736188e+000
3.831863e+003, 1.736267e+000
3.833792e+003, 1.735894e+000
3.835720e+003, 1.734776e+000
3.837649e+003, 1.733640e+000
3.839577e+003, 1.736434e+000
3.841506e+003, 1.738166e+000
3.843434e+003, 1.736802e+000
3.845363e+003, 1.738028e+000
3.847291e+003, 1.739304e+000
3.849219e+003, 1.738819e+000
3.851148e+003, 1.737803e+000
3.853076e+003, 1.734615e+000
3.855005e+003, 1.735531e+000
3.856933e+003, 1.740134e+000
3.858862e+003, 1.740617e+000
3.860790e+003, 1.740890e+000
3.862719e+003, 1.741928e+000
3.864647e+003, 1.743210e+000
3.866576e+003, 1.744327e+000
3.868504e+003, 1.744218e+000
3.870433e+003, 1.744263e+000
3.872361e+003, 1.744125e+000
3.874290e+003, 1.744155e+000
3.876218e+003, 1.746655e+000
3.878146e+003, 1.747213e+000
3.880075e+003, 1.746244e+000
3.882003e+003, 1.746557e+000
3.883932e+003, 1.748418e+000
3.885860e+003, 1.749180e+000
3.887789e+003, 1.749198e+000
3.889717e+003, 1.748194e+000
3.891646e+003, 1.749200e+000
3.893574e+003, 1.750659e+000
3.895503e+003, 1.750732e+000
3.897431e+003, 1.750821e+000
3.899360e+003, 1.750333e+000
3.901288e+003, 1.750909e+000
3.903217e+003, 1.751929e+000
3.905145e+003, 1.752659e+000
3.907073e+003, 1.753302e+000
3.909002e+003, 1.755745e+000
3.910930e+003, 1.757119e+000
3.912859e+003, 1.755914e+000
3.914787e+003, 1.754219e+000
3.916716e+003, 1.754819e+000
3.918644e+003, 1.756753e+000
3.920573e+003, 1.756493e+000
3.922501e+003, 1.757487e+000
3.924430e+003, 1.758613e+000
3.926358e+003, 1.758672e+000
3.928287e+003, 1.759039e+000
3.930215e+003, 1.759976e+000
3.932144e+003, 1.759314e+000
3.934072e+003, 1.760086e+000
3.936000e+003, 1.761288e+000
3.937929e+003, 1.762447e+000
3.939857e+003, 1.762527e+000
3.941786e+003, 1.762375e+000
3.943714e+003, 1.764505e+000
3.945643e+003, 1.765792e+000
3.947571e+003, 1.765827e+000
3.949500e+003, 1.765317e+000
3.951428e+003, 1.765318e+000
3.953357e+003, 1.766338e+000
3.955285e+003, 1.765793e+000
3.957214e+003, 1.765138e+000
3.959142e+003, 1.765864e+000
3.961071e+003, 1.767108e+000
3.962999e+003, 1.767570e+000
3.964927e+003, 1.768088e+000
3.966856e+003, 1.768492e+000
3.968784e+003, 1.769603e+000
3.970713e+003, 1.772124e+000
3.972641e+003, 1.772043e+000
3.974570e+003, 1.771102e+000
3.976498e+003, 1.771509e+000
3.978427e+003, 1.770206e+000
3.980355e+003, 1.769597e+000
3.982284e+003, 1.772068e+000
3.984212e+003, 1.774859e+000
3.986141e+003, 1.774007e+000
3.988069e+003, 1.771577e+000
3.989998e+003, 1.771428e+000
3.991926e+003, 1.772666e+000
3.993854e+003, 1.776610e+000
3.995783e+003, 1.776954e+000
3.997711e+003, 1.775657e+000
3.999640e+003, 1.777494e+000
##END=



