##NAMES=Microcline
##RRUFFID=R050054
##IDEAL CHEMISTRY=KAlSi_3_O_8_
##LOCALITY=Kenticha, Negele area, Sidamo Province, Ethiopia
##OWNER=RRUFF
##SOURCE=Rock Currier
##DESCRIPTION=Light blue single crystal
##STATUS=The identification of this mineral has been confirmed by X-ray diffraction and chemical analysis
##URL=rruff.info/R050054
##MEASURED CHEMISTRY=(K_0.96_Na_0.04_)Al_1.00_Si_3.00_O_8_
3.991926e+002, 1.322936e-001
4.011211e+002, 1.585484e-001
4.030496e+002, 1.593106e-001
4.049780e+002, 1.660050e-001
4.069065e+002, 1.823775e-001
4.088350e+002, 1.938701e-001
4.107634e+002, 2.059879e-001
4.126919e+002, 2.170346e-001
4.146204e+002, 2.220404e-001
4.165488e+002, 2.258707e-001
4.184773e+002, 2.208531e-001
4.204058e+002, 2.069321e-001
4.223342e+002, 1.931482e-001
4.242627e+002, 1.821997e-001
4.261912e+002, 1.726911e-001
4.281196e+002, 1.641151e-001
4.300481e+002, 1.583981e-001
4.319766e+002, 1.509874e-001
4.339050e+002, 1.444413e-001
4.358335e+002, 1.405650e-001
4.377620e+002, 1.353349e-001
4.396904e+002, 1.297242e-001
4.416189e+002, 1.261112e-001
4.435474e+002, 1.207846e-001
4.454758e+002, 1.130507e-001
4.474043e+002, 1.050703e-001
4.493328e+002, 9.544890e-002
4.512612e+002, 8.436888e-002
4.531897e+002, 7.466643e-002
4.551182e+002, 6.609852e-002
4.570466e+002, 5.986896e-002
4.589751e+002, 5.808105e-002
4.609036e+002, 5.966073e-002
4.628320e+002, 6.301419e-002
4.647605e+002, 6.586134e-002
4.666890e+002, 6.545382e-002
4.686174e+002, 6.006595e-002
4.705459e+002, 5.255842e-002
4.724744e+002, 4.507402e-002
4.744028e+002, 3.864202e-002
4.763313e+002, 3.534043e-002
4.782598e+002, 3.253286e-002
4.801882e+002, 2.908465e-002
4.821167e+002, 2.577045e-002
4.840452e+002, 2.373130e-002
4.859736e+002, 2.334353e-002
4.879021e+002, 2.336815e-002
4.898306e+002, 2.255116e-002
4.917590e+002, 2.223918e-002
4.936875e+002, 2.224554e-002
4.956160e+002, 2.248247e-002
4.975444e+002, 2.288565e-002
4.994729e+002, 2.349261e-002
5.014014e+002, 2.382574e-002
5.033298e+002, 2.462754e-002
5.052583e+002, 2.616870e-002
5.071868e+002, 2.825666e-002
5.091152e+002, 2.941402e-002
5.110437e+002, 3.067380e-002
5.129722e+002, 3.269082e-002
5.149006e+002, 3.468222e-002
5.168291e+002, 3.712578e-002
5.187576e+002, 4.104151e-002
5.206860e+002, 4.607875e-002
5.226145e+002, 5.195818e-002
5.245430e+002, 5.963175e-002
5.264714e+002, 6.937150e-002
5.283999e+002, 8.081179e-002
5.303284e+002, 9.279494e-002
5.322568e+002, 1.053577e-001
5.341853e+002, 1.166737e-001
5.361138e+002, 1.204745e-001
5.380422e+002, 1.160668e-001
5.399707e+002, 1.069650e-001
5.418992e+002, 9.577792e-002
5.438276e+002, 8.568091e-002
5.457561e+002, 7.845954e-002
5.476846e+002, 7.402828e-002
5.496130e+002, 7.275373e-002
5.515415e+002, 7.414286e-002
5.534700e+002, 7.722873e-002
5.553984e+002, 8.206940e-002
5.573269e+002, 8.931589e-002
5.592554e+002, 9.848450e-002
5.611838e+002, 1.071299e-001
5.631123e+002, 1.155092e-001
5.650408e+002, 1.231356e-001
5.669692e+002, 1.293385e-001
5.688977e+002, 1.347867e-001
5.708262e+002, 1.391699e-001
5.727546e+002, 1.425923e-001
5.746831e+002, 1.458698e-001
5.766116e+002, 1.479079e-001
5.785400e+002, 1.476320e-001
5.804685e+002, 1.459465e-001
5.823970e+002, 1.435786e-001
5.843254e+002, 1.397521e-001
5.862539e+002, 1.345424e-001
5.881824e+002, 1.287386e-001
5.901108e+002, 1.225251e-001
5.920393e+002, 1.162309e-001
5.939678e+002, 1.097424e-001
5.958962e+002, 1.035798e-001
5.978247e+002, 9.844211e-002
5.997532e+002, 9.437946e-002
6.016816e+002, 9.145184e-002
6.036101e+002, 8.971545e-002
6.055386e+002, 8.737909e-002
6.074670e+002, 8.108294e-002
6.093955e+002, 7.092357e-002
6.113240e+002, 5.992362e-002
6.132524e+002, 5.018651e-002
6.151809e+002, 4.285248e-002
6.171094e+002, 3.803663e-002
6.190378e+002, 3.475522e-002
6.209663e+002, 3.195982e-002
6.228948e+002, 3.008246e-002
6.248232e+002, 2.892893e-002
6.267517e+002, 2.866736e-002
6.286802e+002, 2.909996e-002
6.306086e+002, 2.978349e-002
6.325371e+002, 3.096489e-002
6.344656e+002, 3.309675e-002
6.363940e+002, 3.622685e-002
6.383225e+002, 4.075390e-002
6.402510e+002, 4.717778e-002
6.421794e+002, 5.583387e-002
6.441079e+002, 6.534653e-002
6.460364e+002, 7.264059e-002
6.479648e+002, 7.473887e-002
6.498933e+002, 7.027130e-002
6.518218e+002, 6.087900e-002
6.537502e+002, 5.036345e-002
6.556787e+002, 4.141143e-002
6.576072e+002, 3.477780e-002
6.595356e+002, 3.038143e-002
6.614641e+002, 2.735653e-002
6.633926e+002, 2.525781e-002
6.653210e+002, 2.407589e-002
6.672495e+002, 2.377704e-002
6.691780e+002, 2.280475e-002
6.711064e+002, 2.210004e-002
6.730349e+002, 2.167254e-002
6.749634e+002, 2.164094e-002
6.768918e+002, 2.226257e-002
6.788203e+002, 2.298385e-002
6.807488e+002, 2.343786e-002
6.826772e+002, 2.374740e-002
6.846057e+002, 2.440369e-002
6.865342e+002, 2.534838e-002
6.884626e+002, 2.623532e-002
6.903911e+002, 2.719232e-002
6.923196e+002, 2.868639e-002
6.942480e+002, 3.026247e-002
6.961765e+002, 3.176044e-002
6.981050e+002, 3.369368e-002
7.000334e+002, 3.599723e-002
7.019619e+002, 3.859887e-002
7.038904e+002, 4.179064e-002
7.058188e+002, 4.571984e-002
7.077473e+002, 4.992871e-002
7.096758e+002, 5.510789e-002
7.116042e+002, 6.117482e-002
7.135327e+002, 6.833873e-002
7.154612e+002, 7.654750e-002
7.173896e+002, 8.504605e-002
7.193181e+002, 9.298286e-002
7.212466e+002, 9.969346e-002
7.231750e+002, 1.056266e-001
7.251035e+002, 1.097401e-001
7.270320e+002, 1.101294e-001
7.289604e+002, 1.067829e-001
7.308889e+002, 9.984572e-002
7.328174e+002, 8.985929e-002
7.347458e+002, 7.849243e-002
7.366743e+002, 6.770033e-002
7.386028e+002, 5.905813e-002
7.405313e+002, 5.310893e-002
7.424597e+002, 4.974463e-002
7.443882e+002, 4.810720e-002
7.463167e+002, 4.716523e-002
7.482451e+002, 4.628859e-002
7.501736e+002, 4.600708e-002
7.521021e+002, 4.758836e-002
7.540305e+002, 5.052347e-002
7.559590e+002, 5.466975e-002
7.578875e+002, 6.021632e-002
7.598159e+002, 6.650053e-002
7.617444e+002, 7.339150e-002
7.636729e+002, 8.044710e-002
7.656013e+002, 8.672012e-002
7.675298e+002, 9.098610e-002
7.694583e+002, 9.265174e-002
7.713867e+002, 9.104768e-002
7.733152e+002, 8.689042e-002
7.752437e+002, 8.135261e-002
7.771721e+002, 7.423238e-002
7.791006e+002, 6.517829e-002
7.810291e+002, 5.498970e-002
7.829575e+002, 4.599544e-002
7.848860e+002, 3.959823e-002
7.868145e+002, 3.562650e-002
7.887429e+002, 3.255695e-002
7.906714e+002, 2.980908e-002
7.925999e+002, 2.719763e-002
7.945283e+002, 2.485134e-002
7.964568e+002, 2.309130e-002
7.983853e+002, 2.158894e-002
8.003137e+002, 2.031500e-002
8.022422e+002, 1.946063e-002
8.041707e+002, 1.913817e-002
8.060991e+002, 1.922054e-002
8.080276e+002, 1.903928e-002
8.099561e+002, 1.900019e-002
8.118845e+002, 1.891866e-002
8.138130e+002, 1.893865e-002
8.157415e+002, 1.887530e-002
8.176699e+002, 1.898781e-002
8.195984e+002, 1.915046e-002
8.215269e+002, 1.937173e-002
8.234553e+002, 1.949529e-002
8.253838e+002, 1.981527e-002
8.273123e+002, 1.995833e-002
8.292407e+002, 1.998275e-002
8.311692e+002, 2.034964e-002
8.330977e+002, 2.098843e-002
8.350261e+002, 2.152519e-002
8.369546e+002, 2.227657e-002
8.388831e+002, 2.298130e-002
8.408115e+002, 2.368451e-002
8.427400e+002, 2.400827e-002
8.446685e+002, 2.446940e-002
8.465969e+002, 2.510412e-002
8.485254e+002, 2.577413e-002
8.504539e+002, 2.665027e-002
8.523823e+002, 2.769265e-002
8.543108e+002, 2.861414e-002
8.562393e+002, 2.940505e-002
8.581677e+002, 3.033542e-002
8.600962e+002, 3.125767e-002
8.620247e+002, 3.218518e-002
8.639531e+002, 3.343745e-002
8.658816e+002, 3.444430e-002
8.678101e+002, 3.540748e-002
8.697385e+002, 3.668509e-002
8.716670e+002, 3.795994e-002
8.735955e+002, 3.915754e-002
8.755239e+002, 4.048990e-002
8.774524e+002, 4.185312e-002
8.793809e+002, 4.313886e-002
8.813093e+002, 4.415149e-002
8.832378e+002, 4.577443e-002
8.851663e+002, 4.767473e-002
8.870947e+002, 4.921393e-002
8.890232e+002, 5.070795e-002
8.909517e+002, 5.274133e-002
8.928801e+002, 5.480735e-002
8.948085e+002, 5.682613e-002
8.967370e+002, 5.895995e-002
8.986655e+002, 6.124290e-002
9.005939e+002, 6.358621e-002
9.025224e+002, 6.574175e-002
9.044509e+002, 6.799836e-002
9.063793e+002, 7.066149e-002
9.083078e+002, 7.342175e-002
9.102363e+002, 7.603148e-002
9.121647e+002, 7.891683e-002
9.140932e+002, 8.220042e-002
9.160217e+002, 8.554424e-002
9.179501e+002, 8.908316e-002
9.198786e+002, 9.246646e-002
9.218071e+002, 9.610955e-002
9.237355e+002, 1.002624e-001
9.256640e+002, 1.045903e-001
9.275925e+002, 1.089223e-001
9.295209e+002, 1.136452e-001
9.314494e+002, 1.185704e-001
9.333779e+002, 1.235915e-001
9.353063e+002, 1.288560e-001
9.372348e+002, 1.343994e-001
9.391633e+002, 1.405539e-001
9.410917e+002, 1.470639e-001
9.430202e+002, 1.534966e-001
9.449487e+002, 1.603327e-001
9.468771e+002, 1.675193e-001
9.488056e+002, 1.750266e-001
9.507341e+002, 1.827440e-001
9.526625e+002, 1.903697e-001
9.545910e+002, 1.985545e-001
9.565195e+002, 2.070131e-001
9.584479e+002, 2.152406e-001
9.603764e+002, 2.235401e-001
9.623049e+002, 2.325405e-001
9.642333e+002, 2.419559e-001
9.661618e+002, 2.516067e-001
9.680903e+002, 2.610833e-001
9.700187e+002, 2.704403e-001
9.719472e+002, 2.799838e-001
9.738757e+002, 2.894245e-001
9.758041e+002, 2.987958e-001
9.777326e+002, 3.081802e-001
9.796611e+002, 3.174217e-001
9.815895e+002, 3.262165e-001
9.835180e+002, 3.346528e-001
9.854465e+002, 3.422078e-001
9.873749e+002, 3.488855e-001
9.893034e+002, 3.543371e-001
9.912319e+002, 3.581040e-001
9.931603e+002, 3.606709e-001
9.950888e+002, 3.621924e-001
9.970173e+002, 3.626480e-001
9.989457e+002, 3.621528e-001
1.000874e+003, 3.602765e-001
1.002803e+003, 3.575665e-001
1.004731e+003, 3.538524e-001
1.006660e+003, 3.493868e-001
1.008588e+003, 3.448192e-001
1.010517e+003, 3.391539e-001
1.012445e+003, 3.311877e-001
1.014373e+003, 3.214788e-001
1.016302e+003, 3.113707e-001
1.018230e+003, 3.012627e-001
1.020159e+003, 2.913414e-001
1.022087e+003, 2.825186e-001
1.024016e+003, 2.748152e-001
1.025944e+003, 2.679877e-001
1.027873e+003, 2.616801e-001
1.029801e+003, 2.555434e-001
1.031730e+003, 2.500470e-001
1.033658e+003, 2.456336e-001
1.035587e+003, 2.419489e-001
1.037515e+003, 2.386495e-001
1.039444e+003, 2.365247e-001
1.041372e+003, 2.352407e-001
1.043301e+003, 2.342941e-001
1.045229e+003, 2.337469e-001
1.047157e+003, 2.327546e-001
1.049086e+003, 2.304835e-001
1.051014e+003, 2.260904e-001
1.052943e+003, 2.187518e-001
1.054871e+003, 2.084513e-001
1.056800e+003, 1.966860e-001
1.058728e+003, 1.849353e-001
1.060657e+003, 1.743814e-001
1.062585e+003, 1.664309e-001
1.064514e+003, 1.610252e-001
1.066442e+003, 1.571914e-001
1.068371e+003, 1.542329e-001
1.070299e+003, 1.521363e-001
1.072228e+003, 1.506729e-001
1.074156e+003, 1.493876e-001
1.076084e+003, 1.485285e-001
1.078013e+003, 1.477959e-001
1.079941e+003, 1.471117e-001
1.081870e+003, 1.461818e-001
1.083798e+003, 1.453923e-001
1.085727e+003, 1.446155e-001
1.087655e+003, 1.436053e-001
1.089584e+003, 1.425513e-001
1.091512e+003, 1.407198e-001
1.093441e+003, 1.379364e-001
1.095369e+003, 1.349077e-001
1.097298e+003, 1.318531e-001
1.099226e+003, 1.292553e-001
1.101155e+003, 1.274994e-001
1.103083e+003, 1.269315e-001
1.105011e+003, 1.272987e-001
1.106940e+003, 1.280802e-001
1.108868e+003, 1.291576e-001
1.110797e+003, 1.301899e-001
1.112725e+003, 1.312464e-001
1.114654e+003, 1.325972e-001
1.116582e+003, 1.338248e-001
1.118511e+003, 1.350278e-001
1.120439e+003, 1.365214e-001
1.122368e+003, 1.384607e-001
1.124296e+003, 1.408660e-001
1.126225e+003, 1.432824e-001
1.128153e+003, 1.453142e-001
1.130082e+003, 1.472943e-001
1.132010e+003, 1.488351e-001
1.133938e+003, 1.490801e-001
1.135867e+003, 1.471752e-001
1.137795e+003, 1.432333e-001
1.139724e+003, 1.376729e-001
1.141652e+003, 1.313571e-001
1.143581e+003, 1.249340e-001
1.145509e+003, 1.186424e-001
1.147438e+003, 1.125918e-001
1.149366e+003, 1.069107e-001
1.151295e+003, 1.010513e-001
1.153223e+003, 9.532500e-002
1.155152e+003, 9.000682e-002
1.157080e+003, 8.467790e-002
1.159009e+003, 7.951304e-002
1.160937e+003, 7.495380e-002
1.162865e+003, 7.048474e-002
1.164794e+003, 6.605595e-002
1.166722e+003, 6.166027e-002
1.168651e+003, 5.737922e-002
1.170579e+003, 5.343924e-002
1.172508e+003, 5.007640e-002
1.174436e+003, 4.697270e-002
1.176365e+003, 4.390361e-002
1.178293e+003, 4.123973e-002
1.180222e+003, 3.875591e-002
1.182150e+003, 3.605743e-002
1.184079e+003, 3.338028e-002
1.186007e+003, 3.107859e-002
1.187936e+003, 2.918248e-002
1.189864e+003, 2.725793e-002
1.191792e+003, 2.527398e-002
1.193721e+003, 2.349255e-002
1.195649e+003, 2.223091e-002
1.197578e+003, 2.104183e-002
1.199506e+003, 1.969005e-002
1.201435e+003, 1.834547e-002
1.203363e+003, 1.719182e-002
1.205292e+003, 1.638984e-002
1.207220e+003, 1.581600e-002
1.209149e+003, 1.509429e-002
1.211077e+003, 1.433375e-002
1.213006e+003, 1.357111e-002
1.214934e+003, 1.293877e-002
1.216863e+003, 1.247628e-002
1.218791e+003, 1.197592e-002
1.220719e+003, 1.146119e-002
1.222648e+003, 1.103233e-002
1.224576e+003, 1.074862e-002
1.226505e+003, 1.032370e-002
1.228433e+003, 9.918381e-003
1.230362e+003, 9.593631e-003
1.232290e+003, 9.197671e-003
1.234219e+003, 8.954893e-003
1.236147e+003, 8.497977e-003
1.238076e+003, 8.017346e-003
1.240004e+003, 7.842916e-003
1.241933e+003, 7.720223e-003
1.243861e+003, 7.376560e-003
1.245790e+003, 7.206053e-003
1.247718e+003, 7.011972e-003
1.249646e+003, 6.706429e-003
1.251575e+003, 6.558677e-003
1.253503e+003, 6.313524e-003
1.255432e+003, 6.096986e-003
1.257360e+003, 5.989052e-003
1.259289e+003, 5.715189e-003
1.261217e+003, 5.513997e-003
1.263146e+003, 5.320983e-003
1.265074e+003, 5.074794e-003
1.267003e+003, 4.932861e-003
1.268931e+003, 4.883980e-003
1.270860e+003, 4.758150e-003
1.272788e+003, 4.568708e-003
1.274717e+003, 4.537343e-003
1.276645e+003, 4.602826e-003
1.278573e+003, 4.377199e-003
1.280502e+003, 4.332452e-003
1.282430e+003, 4.486167e-003
1.284359e+003, 4.256840e-003
1.286287e+003, 3.883229e-003
1.288216e+003, 3.691389e-003
1.290144e+003, 3.808972e-003
1.292073e+003, 4.026663e-003
1.294001e+003, 4.062705e-003
1.295930e+003, 3.827882e-003
1.297858e+003, 3.593880e-003
1.299787e+003, 3.678051e-003
1.301715e+003, 3.638691e-003
1.303644e+003, 3.499969e-003
1.305572e+003, 3.592147e-003
1.307500e+003, 3.687771e-003
1.309429e+003, 3.605381e-003
1.311357e+003, 3.557132e-003
1.313286e+003, 3.553116e-003
1.315214e+003, 3.683133e-003
1.317143e+003, 3.623865e-003
1.319071e+003, 3.311574e-003
1.321000e+003, 3.254175e-003
1.322928e+003, 3.476415e-003
1.324857e+003, 3.367787e-003
1.326785e+003, 3.264114e-003
1.328714e+003, 3.050061e-003
1.330642e+003, 2.989508e-003
1.332571e+003, 3.065790e-003
1.334499e+003, 3.291507e-003
1.336427e+003, 3.451708e-003
1.338356e+003, 3.417673e-003
1.340284e+003, 3.217113e-003
1.342213e+003, 3.304735e-003
1.344141e+003, 3.451365e-003
1.346070e+003, 3.379617e-003
1.347998e+003, 3.291782e-003
1.349927e+003, 3.331530e-003
1.351855e+003, 3.299986e-003
1.353784e+003, 3.470958e-003
1.355712e+003, 3.489982e-003
1.357641e+003, 3.440090e-003
1.359569e+003, 3.388876e-003
1.361498e+003, 3.125221e-003
1.363426e+003, 3.292291e-003
1.365354e+003, 3.688840e-003
1.367283e+003, 3.672677e-003
1.369211e+003, 3.691482e-003
1.371140e+003, 3.648965e-003
1.373068e+003, 3.676893e-003
1.374997e+003, 3.705202e-003
1.376925e+003, 3.561117e-003
1.378854e+003, 3.544403e-003
1.380782e+003, 3.607344e-003
1.382711e+003, 3.458833e-003
1.384639e+003, 3.378888e-003
1.386568e+003, 3.353943e-003
1.388496e+003, 3.577928e-003
1.390424e+003, 3.688336e-003
1.392353e+003, 3.683057e-003
1.394281e+003, 3.504235e-003
1.396210e+003, 3.533004e-003
1.398138e+003, 3.692141e-003
1.400067e+003, 3.764832e-003
1.401995e+003, 3.730846e-003
1.403924e+003, 3.990023e-003
1.405852e+003, 4.183520e-003
1.407781e+003, 4.183657e-003
1.409709e+003, 4.066169e-003
1.411638e+003, 4.053577e-003
1.413566e+003, 3.930640e-003
1.415495e+003, 3.542079e-003
1.417423e+003, 3.267125e-003
1.419351e+003, 3.496686e-003
1.421280e+003, 3.674159e-003
1.423208e+003, 3.594276e-003
1.425137e+003, 3.617982e-003
1.427065e+003, 3.509817e-003
1.428994e+003, 3.424376e-003
1.430922e+003, 3.806964e-003
1.432851e+003, 4.022872e-003
1.434779e+003, 3.541632e-003
1.436708e+003, 3.234881e-003
1.438636e+003, 3.636442e-003
1.440565e+003, 3.804306e-003
1.442493e+003, 3.768724e-003
1.444422e+003, 3.617191e-003
1.446350e+003, 3.775030e-003
1.448278e+003, 3.857539e-003
1.450207e+003, 4.052792e-003
1.452135e+003, 4.118848e-003
1.454064e+003, 3.665683e-003
1.455992e+003, 2.728295e-003
1.457921e+003, 2.965103e-003
1.459849e+003, 3.930998e-003
1.461778e+003, 4.260151e-003
1.463706e+003, 4.159324e-003
1.465635e+003, 4.186206e-003
1.467563e+003, 4.385997e-003
1.469492e+003, 4.231439e-003
1.471420e+003, 3.728674e-003
1.473349e+003, 3.381090e-003
1.475277e+003, 3.584193e-003
1.477205e+003, 3.861424e-003
1.479134e+003, 4.068574e-003
1.481062e+003, 4.281653e-003
1.482991e+003, 4.302356e-003
1.484919e+003, 4.035877e-003
1.486848e+003, 3.791584e-003
1.488776e+003, 3.538915e-003
1.490705e+003, 3.512201e-003
1.492633e+003, 3.876631e-003
1.494562e+003, 3.657581e-003
1.496490e+003, 3.216514e-003
1.498419e+003, 3.235096e-003
1.500347e+003, 3.649059e-003
1.502276e+003, 3.839984e-003
1.504204e+003, 2.864032e-003
1.506132e+003, 1.821146e-003
1.508061e+003, 2.189976e-003
1.509989e+003, 3.048558e-003
1.511918e+003, 3.493609e-003
1.513846e+003, 3.746202e-003
1.515775e+003, 3.384678e-003
1.517703e+003, 2.958188e-003
1.519632e+003, 2.839254e-003
1.521560e+003, 2.711935e-003
1.523489e+003, 3.245984e-003
1.525417e+003, 3.562734e-003
1.527346e+003, 3.644506e-003
1.529274e+003, 3.652243e-003
1.531203e+003, 3.595426e-003
1.533131e+003, 3.339119e-003
1.535059e+003, 3.773032e-003
1.536988e+003, 3.726923e-003
1.538916e+003, 2.448537e-003
1.540845e+003, 2.257156e-003
1.542773e+003, 3.232408e-003
1.544702e+003, 3.882768e-003
1.546630e+003, 4.452880e-003
1.548559e+003, 4.781593e-003
1.550487e+003, 4.682969e-003
1.552416e+003, 4.560185e-003
1.554344e+003, 4.387551e-003
1.556273e+003, 4.064885e-003
1.558201e+003, 3.246819e-003
1.560130e+003, 3.651190e-003
1.562058e+003, 5.006034e-003
1.563986e+003, 5.516662e-003
1.565915e+003, 5.968510e-003
1.567843e+003, 6.047728e-003
1.569772e+003, 5.748112e-003
1.571700e+003, 6.053564e-003
1.573629e+003, 5.951620e-003
1.575557e+003, 5.256300e-003
1.577486e+003, 5.776982e-003
1.579414e+003, 6.804759e-003
1.581343e+003, 7.245734e-003
1.583271e+003, 7.224033e-003
1.585200e+003, 7.139115e-003
1.587128e+003, 7.303933e-003
1.589057e+003, 7.756017e-003
1.590985e+003, 7.779752e-003
1.592913e+003, 7.654967e-003
1.594842e+003, 7.577597e-003
1.596770e+003, 7.450988e-003
1.598699e+003, 7.701217e-003
1.600627e+003, 7.703557e-003
1.602556e+003, 7.658956e-003
1.604484e+003, 8.097358e-003
1.606413e+003, 8.228952e-003
1.608341e+003, 8.160028e-003
1.610270e+003, 8.233627e-003
1.612198e+003, 8.350637e-003
1.614127e+003, 8.336496e-003
1.616055e+003, 7.842443e-003
1.617984e+003, 7.919867e-003
1.619912e+003, 8.408195e-003
1.621840e+003, 8.240196e-003
1.623769e+003, 8.236820e-003
1.625697e+003, 8.461014e-003
1.627626e+003, 8.495132e-003
1.629554e+003, 8.441383e-003
1.631483e+003, 8.595330e-003
1.633411e+003, 8.005600e-003
1.635340e+003, 7.025258e-003
1.637268e+003, 7.156648e-003
1.639197e+003, 7.805347e-003
1.641125e+003, 8.187549e-003
1.643054e+003, 8.046282e-003
1.644982e+003, 7.304229e-003
1.646911e+003, 7.182903e-003
1.648839e+003, 7.429980e-003
1.650767e+003, 6.767249e-003
1.652696e+003, 5.554074e-003
1.654624e+003, 6.420307e-003
1.656553e+003, 7.607829e-003
1.658481e+003, 7.721137e-003
1.660410e+003, 7.564327e-003
1.662338e+003, 7.775692e-003
1.664267e+003, 8.093298e-003
1.666195e+003, 7.714160e-003
1.668124e+003, 7.072412e-003
1.670052e+003, 6.904223e-003
1.671981e+003, 7.169987e-003
1.673909e+003, 6.825785e-003
1.675838e+003, 6.460912e-003
1.677766e+003, 6.881571e-003
1.679694e+003, 6.499662e-003
1.681623e+003, 5.702198e-003
1.683551e+003, 4.518023e-003
1.685480e+003, 4.769580e-003
1.687408e+003, 5.733131e-003
1.689337e+003, 5.828544e-003
1.691265e+003, 6.002720e-003
1.693194e+003, 6.050750e-003
1.695122e+003, 4.780910e-003
1.697051e+003, 4.354247e-003
1.698979e+003, 4.321656e-003
1.700908e+003, 3.894574e-003
1.702836e+003, 4.683193e-003
1.704765e+003, 4.941721e-003
1.706693e+003, 4.893964e-003
1.708621e+003, 5.053016e-003
1.710550e+003, 5.238045e-003
1.712478e+003, 5.066735e-003
1.714407e+003, 4.580651e-003
1.716335e+003, 3.708789e-003
1.718264e+003, 3.984317e-003
1.720192e+003, 5.069180e-003
1.722121e+003, 5.351910e-003
1.724049e+003, 5.399212e-003
1.725978e+003, 5.516576e-003
1.727906e+003, 4.995538e-003
1.729835e+003, 4.607173e-003
1.731763e+003, 4.219580e-003
1.733692e+003, 3.463283e-003
1.735620e+003, 4.019505e-003
1.737548e+003, 4.721535e-003
1.739477e+003, 4.270098e-003
1.741405e+003, 3.837048e-003
1.743334e+003, 4.020983e-003
1.745262e+003, 4.094562e-003
1.747191e+003, 4.202299e-003
1.749119e+003, 4.090036e-003
1.751048e+003, 4.057528e-003
1.752976e+003, 4.216471e-003
1.754905e+003, 4.337198e-003
1.756833e+003, 4.364263e-003
1.758762e+003, 4.618036e-003
1.760690e+003, 4.378687e-003
1.762619e+003, 4.238422e-003
1.764547e+003, 4.459257e-003
1.766475e+003, 4.327040e-003
1.768404e+003, 4.202196e-003
1.770332e+003, 4.203850e-003
1.772261e+003, 3.855292e-003
1.774189e+003, 4.309494e-003
1.776118e+003, 4.753422e-003
1.778046e+003, 4.816006e-003
1.779975e+003, 4.598777e-003
1.781903e+003, 4.579213e-003
1.783832e+003, 4.540743e-003
1.785760e+003, 4.197046e-003
1.787689e+003, 4.100617e-003
1.789617e+003, 4.416301e-003
1.791546e+003, 4.061705e-003
1.793474e+003, 3.524879e-003
1.795402e+003, 3.977938e-003
1.797331e+003, 4.360797e-003
1.799259e+003, 4.317675e-003
1.801188e+003, 4.018159e-003
1.803116e+003, 4.139637e-003
1.805045e+003, 4.076067e-003
1.806973e+003, 3.931088e-003
1.808902e+003, 3.614558e-003
1.810830e+003, 3.377321e-003
1.812759e+003, 3.259564e-003
1.814687e+003, 3.169028e-003
1.816616e+003, 3.381580e-003
1.818544e+003, 3.855787e-003
1.820473e+003, 4.222117e-003
1.822401e+003, 4.159746e-003
1.824329e+003, 3.582221e-003
1.826258e+003, 3.565381e-003
1.828186e+003, 3.365036e-003
1.830115e+003, 3.397956e-003
1.832043e+003, 3.719352e-003
1.833972e+003, 3.363293e-003
1.835900e+003, 3.231603e-003
1.837829e+003, 2.932887e-003
1.839757e+003, 2.985943e-003
1.841686e+003, 3.536041e-003
1.843614e+003, 2.957671e-003
1.845543e+003, 2.890218e-003
1.847471e+003, 3.733393e-003
1.849400e+003, 3.650170e-003
1.851328e+003, 3.206155e-003
1.853256e+003, 3.210040e-003
1.855185e+003, 3.943143e-003
1.857113e+003, 3.437413e-003
1.859042e+003, 2.937342e-003
1.860970e+003, 2.943734e-003
1.862899e+003, 2.706929e-003
1.864827e+003, 2.827707e-003
1.866756e+003, 3.220302e-003
1.868684e+003, 2.763062e-003
1.870613e+003, 2.679483e-003
1.872541e+003, 3.107479e-003
1.874470e+003, 3.059867e-003
1.876398e+003, 3.136156e-003
1.878327e+003, 3.052110e-003
1.880255e+003, 2.843619e-003
1.882183e+003, 2.961437e-003
1.884112e+003, 2.245341e-003
1.886040e+003, 1.434003e-003
1.887969e+003, 1.498752e-003
1.889897e+003, 1.910931e-003
1.891826e+003, 1.754776e-003
1.893754e+003, 1.540219e-003
1.895683e+003, 1.955189e-003
1.897611e+003, 2.171395e-003
1.899540e+003, 1.627238e-003
1.901468e+003, 1.521465e-003
1.903397e+003, 1.530503e-003
1.905325e+003, 1.944496e-003
1.907254e+003, 2.982129e-003
1.909182e+003, 2.880186e-003
1.911110e+003, 2.028180e-003
1.913039e+003, 2.224861e-003
1.914967e+003, 2.559962e-003
1.916896e+003, 2.353905e-003
1.918824e+003, 1.747362e-003
1.920753e+003, 1.840316e-003
1.922681e+003, 1.385858e-003
1.924610e+003, 1.149628e-003
1.926538e+003, 5.673118e-004
1.928467e+003, -1.106516e-003
1.930395e+003, -7.687067e-004
1.932324e+003, -4.597578e-004
1.934252e+003, -6.379708e-004
1.936181e+003, -7.709051e-004
1.938109e+003, -1.233526e-003
1.940037e+003, -7.283185e-004
1.941966e+003, -5.738236e-004
1.943894e+003, -8.175405e-004
1.945823e+003, -2.044485e-003
1.947751e+003, -2.521727e-003
1.949680e+003, -1.367298e-003
1.951608e+003, -1.286029e-003
1.953537e+003, -1.742194e-003
1.955465e+003, -2.594633e-003
1.957394e+003, -4.417360e-003
1.959322e+003, -4.131828e-003
1.961251e+003, -3.150587e-003
1.963179e+003, -3.033638e-003
1.965108e+003, -3.650496e-003
1.967036e+003, -3.910687e-003
1.968964e+003, -4.672341e-003
1.970893e+003, -7.370342e-003
1.972821e+003, -8.089809e-003
1.974750e+003, -6.485635e-003
1.976678e+003, -4.434207e-003
1.978607e+003, -4.290807e-003
1.980535e+003, -4.894929e-003
1.982464e+003, -3.725308e-003
1.984392e+003, -3.023664e-003
1.986321e+003, -3.130467e-003
1.988249e+003, -3.966324e-003
1.990178e+003, -4.816166e-003
1.992106e+003, -3.351848e-003
1.994035e+003, -2.567348e-003
1.995963e+003, -4.604942e-003
1.997891e+003, -6.048980e-003
1.999820e+003, -5.384103e-003
2.001748e+003, -4.598107e-003
2.003677e+003, -6.087222e-003
2.005605e+003, -7.569527e-003
2.007534e+003, -6.247898e-003
2.009462e+003, -5.993478e-003
2.011391e+003, -5.749635e-003
2.013319e+003, -4.704188e-003
2.015248e+003, -5.129815e-003
2.017176e+003, -7.512186e-003
2.019105e+003, -8.589680e-003
2.021033e+003, -8.008159e-003
2.022962e+003, -6.171567e-003
2.024890e+003, -5.532933e-003
2.026818e+003, -6.431876e-003
2.028747e+003, -6.510151e-003
2.030675e+003, -5.396042e-003
2.032604e+003, -4.113080e-003
2.034532e+003, -2.723938e-003
2.036461e+003, -3.251095e-003
2.038389e+003, -4.284510e-003
2.040318e+003, -3.927623e-003
2.042246e+003, -3.484432e-003
2.044175e+003, -3.179297e-003
2.046103e+003, -2.941905e-003
2.048032e+003, -1.420815e-003
2.049960e+003, 1.597899e-004
2.051889e+003, -9.747145e-004
2.053817e+003, -2.217664e-003
2.055746e+003, -9.624948e-004
2.057674e+003, 2.256588e-004
2.059603e+003, 8.242550e-004
2.061531e+003, 2.321490e-005
2.063459e+003, -1.580936e-003
2.065388e+003, -3.460559e-003
2.067316e+003, -2.901000e-003
2.069245e+003, -1.722559e-003
2.071173e+003, -7.893629e-004
2.073102e+003, -2.476558e-004
2.075030e+003, 1.720634e-003
2.076959e+003, 2.101072e-003
2.078887e+003, 1.335937e-003
2.080816e+003, 4.922794e-004
2.082744e+003, 6.039914e-004
2.084673e+003, 8.513080e-004
2.086601e+003, 2.543776e-004
2.088530e+003, 5.363445e-004
2.090458e+003, -9.279144e-004
2.092386e+003, -2.166439e-003
2.094315e+003, -2.127226e-003
2.096243e+003, -1.695313e-003
2.098172e+003, -3.340094e-004
2.100100e+003, 1.997915e-004
2.102029e+003, -5.055160e-004
2.103957e+003, -1.125711e-003
2.105886e+003, -1.631172e-003
2.107814e+003, -9.754885e-004
2.109743e+003, 9.073886e-004
2.111671e+003, 1.137596e-003
2.113600e+003, -4.443109e-004
2.115528e+003, -3.259118e-004
2.117457e+003, 6.681519e-004
2.119385e+003, 7.293656e-004
2.121313e+003, 9.245027e-004
2.123242e+003, 3.659508e-004
2.125170e+003, -5.166826e-004
2.127099e+003, -5.200357e-004
2.129027e+003, -1.373800e-003
2.130956e+003, -3.176094e-003
2.132884e+003, -3.620112e-003
2.134813e+003, -2.854249e-003
2.136741e+003, -2.374513e-003
2.138670e+003, -1.258104e-003
2.140598e+003, -1.328339e-004
2.142527e+003, 2.116698e-004
2.144455e+003, -4.821022e-004
2.146384e+003, -3.044839e-003
2.148312e+003, -5.861089e-003
2.150240e+003, -7.972805e-003
2.152169e+003, -7.998910e-003
2.154097e+003, -7.322648e-003
2.156026e+003, -9.047696e-003
2.157954e+003, -6.340645e-003
2.159883e+003, 8.882892e-004
2.161811e+003, 4.704931e-004
2.163740e+003, 2.583119e-003
2.165668e+003, 3.804023e-003
2.167597e+003, 7.298112e-004
2.169525e+003, -2.538031e-003
2.171454e+003, -4.705291e-003
2.173382e+003, -3.094001e-003
2.175311e+003, -5.528782e-004
2.177239e+003, 5.398811e-004
2.179167e+003, -7.671586e-004
2.181096e+003, -1.440485e-003
2.183024e+003, -2.886114e-003
2.184953e+003, -3.151676e-003
2.186881e+003, 9.387473e-004
2.188810e+003, 9.193741e-004
2.190738e+003, -3.804938e-004
2.192667e+003, 1.497573e-003
2.194595e+003, 2.333311e-003
2.196524e+003, 4.592982e-004
2.198452e+003, -1.379518e-003
2.200381e+003, -5.890486e-004
2.202309e+003, 1.022093e-003
2.204238e+003, 1.165033e-003
2.206166e+003, 2.064378e-003
2.208094e+003, 2.802500e-003
2.210023e+003, 1.404230e-003
2.211951e+003, 4.251659e-004
2.213880e+003, 2.371925e-003
2.215808e+003, 3.479406e-003
2.217737e+003, 2.392977e-003
2.219665e+003, 3.250765e-003
2.221594e+003, 2.943317e-003
2.223522e+003, 1.070286e-003
2.225451e+003, 1.544760e-003
2.227379e+003, 8.396274e-004
2.229308e+003, 1.100368e-004
2.231236e+003, 1.199747e-003
2.233165e+003, 4.127194e-003
2.235093e+003, 5.136393e-003
2.237021e+003, 3.679557e-003
2.238950e+003, 3.078278e-003
2.240878e+003, 2.842694e-003
2.242807e+003, 1.946087e-003
2.244735e+003, 2.319427e-003
2.246664e+003, 2.783916e-003
2.248592e+003, 2.977372e-003
2.250521e+003, 1.686614e-003
2.252449e+003, 4.547768e-004
2.254378e+003, 1.474781e-003
2.256306e+003, 2.150882e-003
2.258235e+003, 1.595976e-003
2.260163e+003, 1.649706e-003
2.262092e+003, 1.668873e-003
2.264020e+003, 1.361868e-003
2.265948e+003, 2.613720e-003
2.267877e+003, 3.094835e-003
2.269805e+003, 2.102355e-003
2.271734e+003, 3.275064e-003
2.273662e+003, 4.362531e-003
2.275591e+003, 4.843717e-003
2.277519e+003, 4.111134e-003
2.279448e+003, 3.820024e-003
2.281376e+003, 5.714826e-003
2.283305e+003, 6.137136e-003
2.285233e+003, 5.671604e-003
2.287162e+003, 5.407030e-003
2.289090e+003, 4.928756e-003
2.291019e+003, 4.779509e-003
2.292947e+003, 5.277575e-003
2.294875e+003, 4.906406e-003
2.296804e+003, 4.595068e-003
2.298732e+003, 4.525485e-003
2.300661e+003, 4.857936e-003
2.302589e+003, 5.686902e-003
2.304518e+003, 5.781270e-003
2.306446e+003, 5.829239e-003
2.308375e+003, 6.270792e-003
2.310303e+003, 6.403963e-003
2.312232e+003, 6.259489e-003
2.314160e+003, 6.295436e-003
2.316089e+003, 6.742796e-003
2.318017e+003, 6.984308e-003
2.319946e+003, 7.477415e-003
2.321874e+003, 8.591074e-003
2.323802e+003, 9.086066e-003
2.325731e+003, 8.095539e-003
2.327659e+003, 7.636143e-003
2.329588e+003, 8.064873e-003
2.331516e+003, 7.637394e-003
2.333445e+003, 7.458428e-003
2.335373e+003, 7.548831e-003
2.337302e+003, 7.149828e-003
2.339230e+003, 6.487481e-003
2.341159e+003, 5.766035e-003
2.343087e+003, 6.376865e-003
2.345016e+003, 7.103910e-003
2.346944e+003, 6.556367e-003
2.348873e+003, 5.749494e-003
2.350801e+003, 6.093929e-003
2.352729e+003, 6.376193e-003
2.354658e+003, 7.030490e-003
2.356586e+003, 7.548509e-003
2.358515e+003, 8.100884e-003
2.360443e+003, 8.753274e-003
2.362372e+003, 8.361611e-003
2.364300e+003, 7.155159e-003
2.366229e+003, 6.832645e-003
2.368157e+003, 7.189914e-003
2.370086e+003, 7.192373e-003
2.372014e+003, 6.785939e-003
2.373942e+003, 6.543997e-003
2.375871e+003, 6.786901e-003
2.377799e+003, 6.185294e-003
2.379728e+003, 5.240963e-003
2.381656e+003, 6.178257e-003
2.383585e+003, 6.682855e-003
2.385513e+003, 5.603626e-003
2.387442e+003, 5.863516e-003
2.389370e+003, 6.011874e-003
2.391299e+003, 6.305004e-003
2.393227e+003, 6.111374e-003
2.395156e+003, 5.450254e-003
2.397084e+003, 5.720824e-003
2.399012e+003, 6.746987e-003
2.400941e+003, 7.150808e-003
2.402869e+003, 6.813471e-003
2.404798e+003, 7.316363e-003
2.406726e+003, 7.420493e-003
2.408655e+003, 6.567905e-003
2.410583e+003, 6.087040e-003
2.412512e+003, 5.768216e-003
2.414440e+003, 5.912578e-003
2.416369e+003, 6.289919e-003
2.418297e+003, 6.087043e-003
2.420226e+003, 5.541368e-003
2.422154e+003, 5.547681e-003
2.424083e+003, 5.859377e-003
2.426011e+003, 6.060000e-003
2.427939e+003, 5.814571e-003
2.429868e+003, 6.580307e-003
2.431796e+003, 6.898800e-003
2.433725e+003, 6.425812e-003
2.435653e+003, 6.072329e-003
2.437582e+003, 6.124801e-003
2.439510e+003, 6.365175e-003
2.441439e+003, 7.093674e-003
2.443367e+003, 7.307698e-003
2.445296e+003, 7.012060e-003
2.447224e+003, 6.681518e-003
2.449153e+003, 6.288201e-003
2.451081e+003, 7.118672e-003
2.453010e+003, 7.629815e-003
2.454938e+003, 7.729535e-003
2.456866e+003, 7.540806e-003
2.458795e+003, 7.098629e-003
2.460723e+003, 7.675441e-003
2.462652e+003, 7.575484e-003
2.464580e+003, 7.075317e-003
2.466509e+003, 7.083387e-003
2.468437e+003, 6.946048e-003
2.470366e+003, 5.706794e-003
2.472294e+003, 5.954254e-003
2.474223e+003, 7.220376e-003
2.476151e+003, 6.689507e-003
2.478080e+003, 5.768456e-003
2.480008e+003, 6.535198e-003
2.481937e+003, 6.890871e-003
2.483865e+003, 6.725763e-003
2.485793e+003, 6.850619e-003
2.487722e+003, 7.587827e-003
2.489650e+003, 7.020459e-003
2.491579e+003, 6.878644e-003
2.493507e+003, 7.382438e-003
2.495436e+003, 6.561989e-003
2.497364e+003, 6.079747e-003
2.499293e+003, 7.183768e-003
2.501221e+003, 7.567640e-003
2.503150e+003, 7.684737e-003
2.505078e+003, 6.854486e-003
2.507007e+003, 7.146912e-003
2.508935e+003, 7.880976e-003
2.510864e+003, 7.863931e-003
2.512792e+003, 7.940058e-003
2.514720e+003, 7.562783e-003
2.516649e+003, 7.228501e-003
2.518577e+003, 7.420747e-003
2.520506e+003, 7.397448e-003
2.522434e+003, 7.228690e-003
2.524363e+003, 6.925014e-003
2.526291e+003, 6.609172e-003
2.528220e+003, 6.853380e-003
2.530148e+003, 7.666659e-003
2.532077e+003, 7.881258e-003
2.534005e+003, 7.016188e-003
2.535934e+003, 7.063572e-003
2.537862e+003, 8.268764e-003
2.539791e+003, 8.365076e-003
2.541719e+003, 7.806448e-003
2.543647e+003, 7.887537e-003
2.545576e+003, 8.119561e-003
2.547504e+003, 8.102903e-003
2.549433e+003, 8.580283e-003
2.551361e+003, 8.310948e-003
2.553290e+003, 7.034765e-003
2.555218e+003, 6.503230e-003
2.557147e+003, 7.368261e-003
2.559075e+003, 8.066514e-003
2.561004e+003, 7.925015e-003
2.562932e+003, 7.956247e-003
2.564861e+003, 7.939217e-003
2.566789e+003, 7.462376e-003
2.568718e+003, 7.676441e-003
2.570646e+003, 7.222218e-003
2.572574e+003, 7.132294e-003
2.574503e+003, 7.004402e-003
2.576431e+003, 7.670610e-003
2.578360e+003, 8.240548e-003
2.580288e+003, 7.585586e-003
2.582217e+003, 7.074853e-003
2.584145e+003, 7.547101e-003
2.586074e+003, 7.939026e-003
2.588002e+003, 7.363475e-003
2.589931e+003, 7.549026e-003
2.591859e+003, 8.746465e-003
2.593788e+003, 9.200918e-003
2.595716e+003, 8.353557e-003
2.597645e+003, 7.587943e-003
2.599573e+003, 7.738072e-003
2.601501e+003, 7.808176e-003
2.603430e+003, 7.654985e-003
2.605358e+003, 7.962972e-003
2.607287e+003, 8.998585e-003
2.609215e+003, 8.863715e-003
2.611144e+003, 7.765066e-003
2.613072e+003, 7.658583e-003
2.615001e+003, 8.385936e-003
2.616929e+003, 8.945602e-003
2.618858e+003, 8.811818e-003
2.620786e+003, 8.264828e-003
2.622715e+003, 8.073431e-003
2.624643e+003, 7.877507e-003
2.626572e+003, 7.943467e-003
2.628500e+003, 7.713094e-003
2.630428e+003, 7.473720e-003
2.632357e+003, 7.197060e-003
2.634285e+003, 7.998063e-003
2.636214e+003, 9.075223e-003
2.638142e+003, 8.650754e-003
2.640071e+003, 8.741952e-003
2.641999e+003, 9.485777e-003
2.643928e+003, 1.011494e-002
2.645856e+003, 9.297192e-003
2.647785e+003, 8.223693e-003
2.649713e+003, 8.197012e-003
2.651642e+003, 8.395070e-003
2.653570e+003, 8.182995e-003
2.655499e+003, 7.806834e-003
2.657427e+003, 7.772195e-003
2.659355e+003, 8.222844e-003
2.661284e+003, 8.155918e-003
2.663212e+003, 8.029654e-003
2.665141e+003, 7.705994e-003
2.667069e+003, 7.470512e-003
2.668998e+003, 7.265186e-003
2.670926e+003, 7.496051e-003
2.672855e+003, 8.263513e-003
2.674783e+003, 8.595336e-003
2.676712e+003, 8.031858e-003
2.678640e+003, 8.128006e-003
2.680569e+003, 8.396637e-003
2.682497e+003, 7.850782e-003
2.684426e+003, 7.554758e-003
2.686354e+003, 7.207365e-003
2.688282e+003, 6.759161e-003
2.690211e+003, 7.251274e-003
2.692139e+003, 8.299818e-003
2.694068e+003, 8.251403e-003
2.695996e+003, 7.460663e-003
2.697925e+003, 7.459729e-003
2.699853e+003, 8.112933e-003
2.701782e+003, 8.155710e-003
2.703710e+003, 7.560763e-003
2.705639e+003, 7.657273e-003
2.707567e+003, 8.239804e-003
2.709496e+003, 8.717443e-003
2.711424e+003, 8.164631e-003
2.713353e+003, 7.231170e-003
2.715281e+003, 7.065631e-003
2.717209e+003, 8.094323e-003
2.719138e+003, 8.451304e-003
2.721066e+003, 7.952834e-003
2.722995e+003, 7.049830e-003
2.724923e+003, 7.196064e-003
2.726852e+003, 7.995455e-003
2.728780e+003, 7.641109e-003
2.730709e+003, 7.112740e-003
2.732637e+003, 7.541989e-003
2.734566e+003, 8.037268e-003
2.736494e+003, 7.741572e-003
2.738423e+003, 8.333168e-003
2.740351e+003, 8.438312e-003
2.742280e+003, 7.442360e-003
2.744208e+003, 7.513721e-003
2.746136e+003, 7.973788e-003
2.748065e+003, 8.000714e-003
2.749993e+003, 7.781076e-003
2.751922e+003, 7.948366e-003
2.753850e+003, 8.244188e-003
2.755779e+003, 8.255690e-003
2.757707e+003, 8.249705e-003
2.759636e+003, 8.989951e-003
2.761564e+003, 9.069528e-003
2.763493e+003, 8.351876e-003
2.765421e+003, 7.941296e-003
2.767350e+003, 8.042837e-003
2.769278e+003, 7.757693e-003
2.771207e+003, 7.921235e-003
2.773135e+003, 8.029679e-003
2.775063e+003, 8.135272e-003
2.776992e+003, 8.103359e-003
2.778920e+003, 8.203003e-003
2.780849e+003, 9.130854e-003
2.782777e+003, 9.652421e-003
2.784706e+003, 9.083847e-003
2.786634e+003, 8.659391e-003
2.788563e+003, 8.658454e-003
2.790491e+003, 8.045601e-003
2.792420e+003, 8.072202e-003
2.794348e+003, 8.698151e-003
2.796277e+003, 8.742157e-003
2.798205e+003, 8.327221e-003
2.800134e+003, 8.337763e-003
2.802062e+003, 8.621938e-003
2.803990e+003, 8.530487e-003
2.805919e+003, 8.031806e-003
2.807847e+003, 7.707281e-003
2.809776e+003, 7.988023e-003
2.811704e+003, 9.383378e-003
2.813633e+003, 9.977045e-003
2.815561e+003, 1.012102e-002
2.817490e+003, 9.798716e-003
2.819418e+003, 8.722196e-003
2.821347e+003, 8.718713e-003
2.823275e+003, 9.607308e-003
2.825204e+003, 9.790861e-003
2.827132e+003, 9.865852e-003
2.829061e+003, 9.281732e-003
2.830989e+003, 9.071655e-003
2.832917e+003, 9.167701e-003
2.834846e+003, 8.291069e-003
2.836774e+003, 7.954761e-003
2.838703e+003, 9.218711e-003
2.840631e+003, 1.026806e-002
2.842560e+003, 9.783955e-003
2.844488e+003, 9.436885e-003
2.846417e+003, 9.522587e-003
2.848345e+003, 1.019941e-002
2.850274e+003, 1.080972e-002
2.852202e+003, 1.034235e-002
2.854131e+003, 9.647589e-003
2.856059e+003, 9.441725e-003
2.857988e+003, 8.789018e-003
2.859916e+003, 8.831061e-003
2.861844e+003, 9.652082e-003
2.863773e+003, 9.250766e-003
2.865701e+003, 9.085082e-003
2.867630e+003, 9.387208e-003
2.869558e+003, 9.702720e-003
2.871487e+003, 1.000223e-002
2.873415e+003, 9.757338e-003
2.875344e+003, 9.811601e-003
2.877272e+003, 1.082002e-002
2.879201e+003, 1.155037e-002
2.881129e+003, 1.113319e-002
2.883058e+003, 1.096437e-002
2.884986e+003, 1.100370e-002
2.886915e+003, 1.056181e-002
2.888843e+003, 1.024308e-002
2.890771e+003, 1.126153e-002
2.892700e+003, 1.173563e-002
2.894628e+003, 1.090481e-002
2.896557e+003, 1.037240e-002
2.898485e+003, 1.015254e-002
2.900414e+003, 9.850530e-003
2.902342e+003, 9.888170e-003
2.904271e+003, 9.904766e-003
2.906199e+003, 1.029683e-002
2.908128e+003, 1.135701e-002
2.910056e+003, 1.162880e-002
2.911985e+003, 1.244024e-002
2.913913e+003, 1.275776e-002
2.915842e+003, 1.276508e-002
2.917770e+003, 1.321464e-002
2.919698e+003, 1.281872e-002
2.921627e+003, 1.155128e-002
2.923555e+003, 1.232242e-002
2.925484e+003, 1.229148e-002
2.927412e+003, 1.116806e-002
2.929341e+003, 9.901997e-003
2.931269e+003, 1.030901e-002
2.933198e+003, 1.080025e-002
2.935126e+003, 1.134433e-002
2.937055e+003, 1.236451e-002
2.938983e+003, 1.115770e-002
2.940912e+003, 1.034698e-002
2.942840e+003, 1.125607e-002
2.944769e+003, 1.202946e-002
2.946697e+003, 1.222568e-002
2.948625e+003, 1.084638e-002
2.950554e+003, 9.795588e-003
2.952482e+003, 9.878528e-003
2.954411e+003, 1.048143e-002
2.956339e+003, 1.061432e-002
2.958268e+003, 9.566387e-003
2.960196e+003, 8.950057e-003
2.962125e+003, 9.662802e-003
2.964053e+003, 1.002242e-002
2.965982e+003, 1.104359e-002
2.967910e+003, 1.243107e-002
2.969839e+003, 1.302012e-002
2.971767e+003, 1.248933e-002
2.973696e+003, 1.121512e-002
2.975624e+003, 9.600478e-003
2.977552e+003, 1.001432e-002
2.979481e+003, 1.174938e-002
2.981409e+003, 1.299086e-002
2.983338e+003, 1.264898e-002
2.985266e+003, 1.280555e-002
2.987195e+003, 1.253876e-002
2.989123e+003, 1.167332e-002
2.991052e+003, 1.039898e-002
2.992980e+003, 1.063944e-002
2.994909e+003, 1.108482e-002
2.996837e+003, 1.112313e-002
2.998766e+003, 1.057820e-002
3.000694e+003, 1.095952e-002
3.002623e+003, 1.184478e-002
3.004551e+003, 1.108497e-002
3.006479e+003, 9.862790e-003
3.008408e+003, 1.046102e-002
3.010336e+003, 1.028040e-002
3.012265e+003, 9.810208e-003
3.014193e+003, 1.104333e-002
3.016122e+003, 1.097658e-002
3.018050e+003, 1.154005e-002
3.019979e+003, 1.253263e-002
3.021907e+003, 1.046085e-002
3.023836e+003, 9.674923e-003
3.025764e+003, 1.000409e-002
3.027693e+003, 9.056211e-003
3.029621e+003, 9.210724e-003
3.031550e+003, 9.722431e-003
3.033478e+003, 9.178256e-003
3.035406e+003, 9.139277e-003
3.037335e+003, 1.058543e-002
3.039263e+003, 1.007476e-002
3.041192e+003, 9.670610e-003
3.043120e+003, 1.052023e-002
3.045049e+003, 1.039634e-002
3.046977e+003, 1.036974e-002
3.048906e+003, 1.065510e-002
3.050834e+003, 1.023569e-002
3.052763e+003, 1.029544e-002
3.054691e+003, 9.720115e-003
3.056620e+003, 9.350827e-003
3.058548e+003, 1.007988e-002
3.060477e+003, 1.094807e-002
3.062405e+003, 9.844662e-003
3.064333e+003, 8.680878e-003
3.066262e+003, 1.014847e-002
3.068190e+003, 1.197818e-002
3.070119e+003, 1.201030e-002
3.072047e+003, 1.155238e-002
3.073976e+003, 1.036492e-002
3.075904e+003, 9.352551e-003
3.077833e+003, 9.953756e-003
3.079761e+003, 1.064548e-002
3.081690e+003, 1.048554e-002
3.083618e+003, 1.079474e-002
3.085547e+003, 1.079561e-002
3.087475e+003, 1.069098e-002
3.089404e+003, 1.128216e-002
3.091332e+003, 1.093902e-002
3.093260e+003, 1.066153e-002
3.095189e+003, 1.128239e-002
3.097117e+003, 1.108338e-002
3.099046e+003, 1.051283e-002
3.100974e+003, 1.109641e-002
3.102903e+003, 1.279232e-002
3.104831e+003, 1.326812e-002
3.106760e+003, 1.252551e-002
3.108688e+003, 1.242632e-002
3.110617e+003, 1.289378e-002
3.112545e+003, 1.170099e-002
3.114474e+003, 1.113972e-002
3.116402e+003, 1.142064e-002
3.118331e+003, 1.201208e-002
3.120259e+003, 1.279986e-002
3.122188e+003, 1.284450e-002
3.124116e+003, 1.303020e-002
3.126044e+003, 1.206029e-002
3.127973e+003, 1.166463e-002
3.129901e+003, 1.139698e-002
3.131830e+003, 1.100339e-002
3.133758e+003, 1.195779e-002
3.135687e+003, 1.259192e-002
3.137615e+003, 1.325581e-002
3.139544e+003, 1.344761e-002
3.141472e+003, 1.231264e-002
3.143401e+003, 1.207697e-002
3.145329e+003, 1.201365e-002
3.147258e+003, 1.088244e-002
3.149186e+003, 1.071589e-002
3.151115e+003, 1.214546e-002
3.153043e+003, 1.410392e-002
3.154971e+003, 1.549642e-002
3.156900e+003, 1.497935e-002
3.158828e+003, 1.280507e-002
3.160757e+003, 1.194450e-002
3.162685e+003, 1.352554e-002
3.164614e+003, 1.466938e-002
3.166542e+003, 1.427970e-002
3.168471e+003, 1.458281e-002
3.170399e+003, 1.499360e-002
3.172328e+003, 1.452071e-002
3.174256e+003, 1.376853e-002
3.176185e+003, 1.193015e-002
3.178113e+003, 1.082760e-002
3.180042e+003, 1.168665e-002
3.181970e+003, 1.229610e-002
3.183898e+003, 1.206669e-002
3.185827e+003, 1.309086e-002
3.187755e+003, 1.335874e-002
3.189684e+003, 1.363777e-002
3.191612e+003, 1.399987e-002
3.193541e+003, 1.493790e-002
3.195469e+003, 1.487419e-002
3.197398e+003, 1.359051e-002
3.199326e+003, 1.267291e-002
3.201255e+003, 1.309210e-002
3.203183e+003, 1.318205e-002
3.205112e+003, 1.324961e-002
3.207040e+003, 1.398385e-002
3.208969e+003, 1.419654e-002
3.210897e+003, 1.446362e-002
3.212825e+003, 1.468883e-002
3.214754e+003, 1.424100e-002
3.216682e+003, 1.296430e-002
3.218611e+003, 1.336697e-002
3.220539e+003, 1.387759e-002
3.222468e+003, 1.381675e-002
3.224396e+003, 1.431292e-002
3.226325e+003, 1.360489e-002
3.228253e+003, 1.409022e-002
3.230182e+003, 1.565765e-002
3.232110e+003, 1.581951e-002
3.234039e+003, 1.472306e-002
3.235967e+003, 1.466014e-002
3.237896e+003, 1.425492e-002
3.239824e+003, 1.479775e-002
3.241752e+003, 1.386364e-002
3.243681e+003, 1.241764e-002
3.245609e+003, 1.355990e-002
3.247538e+003, 1.420168e-002
3.249466e+003, 1.445331e-002
3.251395e+003, 1.533641e-002
3.253323e+003, 1.501042e-002
3.255252e+003, 1.436207e-002
3.257180e+003, 1.458750e-002
3.259109e+003, 1.590006e-002
3.261037e+003, 1.569062e-002
3.262966e+003, 1.484902e-002
3.264894e+003, 1.459688e-002
3.266823e+003, 1.328401e-002
3.268751e+003, 1.377464e-002
3.270679e+003, 1.516653e-002
3.272608e+003, 1.734190e-002
3.274536e+003, 1.801291e-002
3.276465e+003, 1.656575e-002
3.278393e+003, 1.532002e-002
3.280322e+003, 1.474890e-002
3.282250e+003, 1.445112e-002
3.284179e+003, 1.404820e-002
3.286107e+003, 1.543828e-002
3.288036e+003, 1.677280e-002
3.289964e+003, 1.697920e-002
3.291893e+003, 1.532984e-002
3.293821e+003, 1.456987e-002
3.295750e+003, 1.615628e-002
3.297678e+003, 1.745615e-002
3.299606e+003, 1.652552e-002
3.301535e+003, 1.656275e-002
3.303463e+003, 1.660300e-002
3.305392e+003, 1.319811e-002
3.307320e+003, 1.354406e-002
3.309249e+003, 1.572831e-002
3.311177e+003, 1.517781e-002
3.313106e+003, 1.694080e-002
3.315034e+003, 1.703973e-002
3.316963e+003, 1.677946e-002
3.318891e+003, 1.658082e-002
3.320820e+003, 1.580272e-002
3.322748e+003, 1.703806e-002
3.324677e+003, 1.639441e-002
3.326605e+003, 1.443916e-002
3.328533e+003, 1.550995e-002
3.330462e+003, 1.655252e-002
3.332390e+003, 1.661966e-002
3.334319e+003, 1.630888e-002
3.336247e+003, 1.646834e-002
3.338176e+003, 1.621528e-002
3.340104e+003, 1.559910e-002
3.342033e+003, 1.499138e-002
3.343961e+003, 1.616917e-002
3.345890e+003, 1.773998e-002
3.347818e+003, 1.643192e-002
3.349747e+003, 1.562856e-002
3.351675e+003, 1.703748e-002
3.353604e+003, 1.806363e-002
3.355532e+003, 1.645257e-002
3.357460e+003, 1.606270e-002
3.359389e+003, 1.573646e-002
3.361317e+003, 1.568140e-002
3.363246e+003, 1.494461e-002
3.365174e+003, 1.549835e-002
3.367103e+003, 1.700373e-002
3.369031e+003, 1.767100e-002
3.370960e+003, 1.650896e-002
3.372888e+003, 1.396870e-002
3.374817e+003, 1.476198e-002
3.376745e+003, 1.730206e-002
3.378674e+003, 1.676947e-002
3.380602e+003, 1.566338e-002
3.382531e+003, 1.681447e-002
3.384459e+003, 1.950016e-002
3.386387e+003, 1.950955e-002
3.388316e+003, 1.674672e-002
3.390244e+003, 1.656697e-002
3.392173e+003, 1.709279e-002
3.394101e+003, 1.531774e-002
3.396030e+003, 1.454323e-002
3.397958e+003, 1.725174e-002
3.399887e+003, 1.854121e-002
3.401815e+003, 1.839080e-002
3.403744e+003, 1.795266e-002
3.405672e+003, 1.599950e-002
3.407601e+003, 1.540563e-002
3.409529e+003, 1.576832e-002
3.411458e+003, 1.727608e-002
3.413386e+003, 1.721235e-002
3.415314e+003, 1.686696e-002
3.417243e+003, 1.454303e-002
3.419171e+003, 1.343376e-002
3.421100e+003, 1.456066e-002
3.423028e+003, 1.653219e-002
3.424957e+003, 1.862453e-002
3.426885e+003, 1.884821e-002
3.428814e+003, 1.794089e-002
3.430742e+003, 1.550907e-002
3.432671e+003, 1.618555e-002
3.434599e+003, 1.766187e-002
3.436528e+003, 1.767342e-002
3.438456e+003, 1.738659e-002
3.440385e+003, 1.722079e-002
3.442313e+003, 1.806703e-002
3.444241e+003, 1.893722e-002
3.446170e+003, 1.583504e-002
3.448098e+003, 1.410793e-002
3.450027e+003, 1.605244e-002
3.451955e+003, 1.683791e-002
3.453884e+003, 1.511259e-002
3.455812e+003, 1.439401e-002
3.457741e+003, 1.521030e-002
3.459669e+003, 1.684677e-002
3.461598e+003, 1.709498e-002
3.463526e+003, 1.558693e-002
3.465455e+003, 1.576499e-002
3.467383e+003, 1.703246e-002
3.469312e+003, 1.775212e-002
3.471240e+003, 1.878097e-002
3.473168e+003, 1.587566e-002
3.475097e+003, 1.508976e-002
3.477025e+003, 1.745758e-002
3.478954e+003, 1.684905e-002
3.480882e+003, 1.670936e-002
3.482811e+003, 1.778360e-002
3.484739e+003, 1.826093e-002
3.486668e+003, 1.657119e-002
3.488596e+003, 1.661029e-002
3.490525e+003, 1.405069e-002
3.492453e+003, 1.268937e-002
3.494382e+003, 1.491119e-002
3.496310e+003, 1.419719e-002
3.498239e+003, 1.421010e-002
3.500167e+003, 1.534732e-002
3.502095e+003, 1.578930e-002
3.504024e+003, 1.680829e-002
3.505952e+003, 1.537243e-002
3.507881e+003, 1.681618e-002
3.509809e+003, 1.779009e-002
3.511738e+003, 1.641010e-002
3.513666e+003, 1.490914e-002
3.515595e+003, 1.651177e-002
3.517523e+003, 1.752299e-002
3.519452e+003, 1.568550e-002
3.521380e+003, 1.478339e-002
3.523309e+003, 1.345823e-002
3.525237e+003, 1.522114e-002
3.527166e+003, 1.522694e-002
3.529094e+003, 1.282808e-002
3.531022e+003, 1.229147e-002
3.532951e+003, 1.185151e-002
3.534879e+003, 1.244586e-002
3.536808e+003, 1.464432e-002
3.538736e+003, 1.573402e-002
3.540665e+003, 1.571522e-002
3.542593e+003, 1.315567e-002
3.544522e+003, 1.286215e-002
3.546450e+003, 1.468957e-002
3.548379e+003, 1.511306e-002
3.550307e+003, 1.318992e-002
3.552236e+003, 1.261391e-002
3.554164e+003, 1.564383e-002
3.556093e+003, 1.373495e-002
3.558021e+003, 1.466663e-002
3.559949e+003, 1.569890e-002
3.561878e+003, 1.374587e-002
3.563806e+003, 1.447337e-002
3.565735e+003, 1.370965e-002
3.567663e+003, 1.355382e-002
3.569592e+003, 1.411873e-002
3.571520e+003, 1.399347e-002
3.573449e+003, 1.459827e-002
3.575377e+003, 1.562306e-002
3.577306e+003, 1.540602e-002
3.579234e+003, 1.486271e-002
3.581163e+003, 1.306076e-002
3.583091e+003, 1.284277e-002
3.585020e+003, 1.362545e-002
3.586948e+003, 1.314583e-002
3.588876e+003, 1.363994e-002
3.590805e+003, 1.344916e-002
3.592733e+003, 1.350546e-002
3.594662e+003, 1.479005e-002
3.596590e+003, 1.641947e-002
3.598519e+003, 1.495532e-002
3.600447e+003, 1.532305e-002
3.602376e+003, 1.652478e-002
3.604304e+003, 1.520242e-002
3.606233e+003, 1.286884e-002
3.608161e+003, 1.430405e-002
3.610090e+003, 1.347863e-002
3.612018e+003, 1.259845e-002
3.613947e+003, 1.197054e-002
3.615875e+003, 1.139328e-002
3.617803e+003, 1.149071e-002
3.619732e+003, 1.328334e-002
3.621660e+003, 1.420707e-002
3.623589e+003, 1.437615e-002
3.625517e+003, 1.227964e-002
3.627446e+003, 1.029138e-002
3.629374e+003, 1.080197e-002
3.631303e+003, 1.323403e-002
3.633231e+003, 1.264231e-002
3.635160e+003, 1.298535e-002
3.637088e+003, 1.175520e-002
3.639017e+003, 9.853213e-003
3.640945e+003, 1.089096e-002
3.642874e+003, 1.340400e-002
3.644802e+003, 1.435231e-002
3.646730e+003, 1.459058e-002
3.648659e+003, 1.382961e-002
3.650587e+003, 1.280862e-002
3.652516e+003, 1.392006e-002
3.654444e+003, 1.245694e-002
3.656373e+003, 1.348474e-002
3.658301e+003, 1.352418e-002
3.660230e+003, 1.345748e-002
3.662158e+003, 1.351900e-002
3.664087e+003, 1.301960e-002
3.666015e+003, 1.206280e-002
3.667944e+003, 1.091537e-002
3.669872e+003, 1.155374e-002
3.671801e+003, 1.138304e-002
3.673729e+003, 1.271590e-002
3.675657e+003, 1.356005e-002
3.677586e+003, 1.353001e-002
3.679514e+003, 1.242443e-002
3.681443e+003, 1.540762e-002
3.683371e+003, 1.724579e-002
3.685300e+003, 1.543720e-002
3.687228e+003, 1.070646e-002
3.689157e+003, 9.984557e-003
3.691085e+003, 1.463862e-002
3.693014e+003, 1.714832e-002
3.694942e+003, 1.494708e-002
3.696871e+003, 1.530120e-002
3.698799e+003, 1.362468e-002
3.700728e+003, 1.176382e-002
3.702656e+003, 9.702003e-003
3.704584e+003, 8.732085e-003
3.706513e+003, 9.656676e-003
3.708441e+003, 1.302961e-002
3.710370e+003, 1.331391e-002
3.712298e+003, 1.294721e-002
3.714227e+003, 1.543219e-002
3.716155e+003, 1.748955e-002
3.718084e+003, 1.663375e-002
3.720012e+003, 1.481010e-002
3.721941e+003, 1.416449e-002
3.723869e+003, 1.609888e-002
3.725798e+003, 1.425651e-002
3.727726e+003, 1.276958e-002
3.729655e+003, 1.257139e-002
3.731583e+003, 1.161793e-002
3.733511e+003, 1.307267e-002
3.735440e+003, 1.380188e-002
3.737368e+003, 1.256368e-002
3.739297e+003, 1.344683e-002
3.741225e+003, 1.306214e-002
3.743154e+003, 1.255710e-002
3.745082e+003, 1.259746e-002
3.747011e+003, 1.202334e-002
3.748939e+003, 9.493320e-003
3.750868e+003, 8.786504e-003
3.752796e+003, 1.222664e-002
3.754725e+003, 1.489187e-002
3.756653e+003, 1.366291e-002
3.758582e+003, 1.229354e-002
3.760510e+003, 1.308521e-002
3.762438e+003, 1.441860e-002
3.764367e+003, 1.388027e-002
3.766295e+003, 1.345300e-002
3.768224e+003, 1.290603e-002
3.770152e+003, 1.445063e-002
3.772081e+003, 1.469118e-002
3.774009e+003, 1.461397e-002
3.775938e+003, 1.490811e-002
3.777866e+003, 1.454779e-002
3.779795e+003, 1.171581e-002
3.781723e+003, 1.558992e-002
3.783652e+003, 2.061092e-002
3.785580e+003, 2.010130e-002
3.787509e+003, 1.699186e-002
3.789437e+003, 1.280516e-002
3.791365e+003, 1.302199e-002
3.793294e+003, 1.712964e-002
3.795222e+003, 1.550318e-002
3.797151e+003, 1.312261e-002
3.799079e+003, 1.465491e-002
3.801008e+003, 1.483155e-002
3.802936e+003, 1.512549e-002
3.804865e+003, 1.714268e-002
3.806793e+003, 1.644417e-002
3.808722e+003, 1.695052e-002
3.810650e+003, 1.895234e-002
3.812579e+003, 1.923057e-002
3.814507e+003, 1.751614e-002
3.816436e+003, 1.549016e-002
3.818364e+003, 1.483230e-002
3.820292e+003, 1.542467e-002
3.822221e+003, 1.537568e-002
3.824149e+003, 1.781707e-002
3.826078e+003, 1.986826e-002
3.828006e+003, 1.997602e-002
3.829935e+003, 1.485120e-002
3.831863e+003, 1.109052e-002
3.833792e+003, 1.294166e-002
3.835720e+003, 1.334419e-002
3.837649e+003, 1.189752e-002
3.839577e+003, 1.439965e-002
3.841506e+003, 1.899129e-002
3.843434e+003, 1.894864e-002
3.845363e+003, 1.586622e-002
3.847291e+003, 1.583865e-002
3.849219e+003, 1.544004e-002
3.851148e+003, 1.160378e-002
3.853076e+003, 7.112886e-003
3.855005e+003, 1.123912e-002
3.856933e+003, 1.523386e-002
3.858862e+003, 1.543284e-002
3.860790e+003, 1.489742e-002
3.862719e+003, 1.566485e-002
3.864647e+003, 1.468709e-002
3.866576e+003, 1.151025e-002
3.868504e+003, 9.984801e-003
3.870433e+003, 1.217578e-002
3.872361e+003, 1.457883e-002
3.874290e+003, 1.513669e-002
3.876218e+003, 1.520342e-002
3.878146e+003, 1.624831e-002
3.880075e+003, 1.675504e-002
3.882003e+003, 1.801326e-002
3.883932e+003, 1.766024e-002
3.885860e+003, 1.573411e-002
3.887789e+003, 1.968101e-002
3.889717e+003, 2.244358e-002
3.891646e+003, 1.951814e-002
3.893574e+003, 1.639172e-002
3.895503e+003, 1.539570e-002
3.897431e+003, 1.213203e-002
3.899360e+003, 1.316990e-002
3.901288e+003, 1.594474e-002
3.903217e+003, 1.686285e-002
3.905145e+003, 1.630666e-002
3.907073e+003, 1.472731e-002
3.909002e+003, 1.383187e-002
3.910930e+003, 1.591125e-002
3.912859e+003, 1.957177e-002
3.914787e+003, 2.083566e-002
3.916716e+003, 1.786107e-002
3.918644e+003, 1.664525e-002
3.920573e+003, 1.577510e-002
3.922501e+003, 1.540572e-002
3.924430e+003, 1.617447e-002
3.926358e+003, 1.750879e-002
3.928287e+003, 1.862586e-002
3.930215e+003, 1.544043e-002
3.932144e+003, 1.162632e-002
3.934072e+003, 1.271234e-002
3.936000e+003, 1.573308e-002
3.937929e+003, 1.816849e-002
3.939857e+003, 1.810339e-002
3.941786e+003, 1.495256e-002
3.943714e+003, 1.495853e-002
3.945643e+003, 1.613080e-002
3.947571e+003, 1.671399e-002
3.949500e+003, 1.902640e-002
3.951428e+003, 1.925765e-002
3.953357e+003, 1.810297e-002
3.955285e+003, 1.930189e-002
3.957214e+003, 2.015014e-002
3.959142e+003, 2.053966e-002
3.961071e+003, 1.982246e-002
3.962999e+003, 1.590731e-002
3.964927e+003, 1.437200e-002
3.966856e+003, 1.629407e-002
3.968784e+003, 2.052533e-002
3.970713e+003, 2.288073e-002
3.972641e+003, 2.159478e-002
3.974570e+003, 2.221110e-002
3.976498e+003, 2.095932e-002
3.978427e+003, 1.944660e-002
3.980355e+003, 1.711227e-002
3.982284e+003, 1.838272e-002
3.984212e+003, 1.775488e-002
3.986141e+003, 1.459310e-002
3.988069e+003, 1.565465e-002
3.989998e+003, 1.783665e-002
3.991926e+003, 1.937350e-002
3.993854e+003, 1.981816e-002
3.995783e+003, 1.702765e-002
3.997711e+003, 1.725913e-002
3.999640e+003, 1.726746e-002
##END=



