##NAMES=Muscovite
##RRUFFID=R050198
##IDEAL CHEMISTRY=KAl_2_(Si_3_Al)O_10_(OH)_2_
##LOCALITY=California, USA
##OWNER=RRUFF
##SOURCE=University of Arizona Mineral Museum
##DESCRIPTION=Micaceous aggregate, polytype 2M1
##STATUS=The identification of this mineral has been confirmed by X-ray diffraction and chemical analysis
##URL=rruff.info/R050198
##MEASURED CHEMISTRY=(K_0.92_Na_0.08_)(Al_0.76_Mg_0.18_Fe^3+^_0.04_Fe^2+^_0.02_)_2_(Si_3.40_Al_0.60_)O_10_(OH)_2_
5.014013e+001, 9.373929e-003
5.206860e+001, 5.412139e-003
5.399707e+001, 3.460687e-003
5.592553e+001, 5.637137e-003
5.785400e+001, 5.761700e-003
5.978246e+001, 6.285939e-003
6.171093e+001, 8.089039e-003
6.363940e+001, 1.079124e-002
6.556786e+001, 8.365876e-003
6.749633e+001, 6.950460e-003
6.942480e+001, 8.679771e-003
7.135326e+001, 1.068725e-002
7.328172e+001, 1.226597e-002
7.521019e+001, 1.193171e-002
7.713866e+001, 1.133378e-002
7.906712e+001, 1.147387e-002
8.099559e+001, 1.240689e-002
8.292406e+001, 1.308122e-002
8.485252e+001, 1.227342e-002
8.678099e+001, 1.218908e-002
8.870946e+001, 1.380131e-002
9.063792e+001, 1.465518e-002
9.256638e+001, 1.454170e-002
9.449485e+001, 1.519866e-002
9.642332e+001, 1.590309e-002
9.835178e+001, 1.670467e-002
1.002803e+002, 1.667565e-002
1.022087e+002, 1.601695e-002
1.041372e+002, 1.596071e-002
1.060657e+002, 1.527215e-002
1.079941e+002, 1.459744e-002
1.099226e+002, 1.536339e-002
1.118510e+002, 1.452095e-002
1.137795e+002, 1.324852e-002
1.157080e+002, 1.342346e-002
1.176364e+002, 1.313380e-002
1.195649e+002, 1.334560e-002
1.214934e+002, 1.306035e-002
1.234218e+002, 1.284773e-002
1.253503e+002, 1.328039e-002
1.272788e+002, 1.347778e-002
1.292072e+002, 1.351552e-002
1.311357e+002, 1.470880e-002
1.330642e+002, 1.548494e-002
1.349926e+002, 1.585583e-002
1.369211e+002, 1.584395e-002
1.388496e+002, 1.574109e-002
1.407780e+002, 1.587807e-002
1.427065e+002, 1.579576e-002
1.446350e+002, 1.552100e-002
1.465634e+002, 1.552073e-002
1.484919e+002, 1.527331e-002
1.504204e+002, 1.511327e-002
1.523488e+002, 1.539990e-002
1.542773e+002, 1.548990e-002
1.562058e+002, 1.565819e-002
1.581342e+002, 1.607180e-002
1.600627e+002, 1.609251e-002
1.619912e+002, 1.655709e-002
1.639196e+002, 1.681187e-002
1.658481e+002, 1.646938e-002
1.677766e+002, 1.636159e-002
1.697050e+002, 1.627648e-002
1.716335e+002, 1.643643e-002
1.735620e+002, 1.707831e-002
1.754904e+002, 1.775115e-002
1.774189e+002, 1.812638e-002
1.793474e+002, 1.876350e-002
1.812758e+002, 1.962325e-002
1.832043e+002, 2.030144e-002
1.851328e+002, 2.100340e-002
1.870612e+002, 2.131178e-002
1.889897e+002, 2.178703e-002
1.909182e+002, 2.207869e-002
1.928466e+002, 2.218182e-002
1.947751e+002, 2.238002e-002
1.967036e+002, 2.219734e-002
1.986320e+002, 2.146606e-002
2.005605e+002, 2.145366e-002
2.024890e+002, 2.180645e-002
2.044174e+002, 2.171634e-002
2.063459e+002, 2.171301e-002
2.082744e+002, 2.197231e-002
2.102028e+002, 2.239503e-002
2.121313e+002, 2.274617e-002
2.140598e+002, 2.298212e-002
2.159882e+002, 2.339444e-002
2.179167e+002, 2.381285e-002
2.198452e+002, 2.402053e-002
2.217736e+002, 2.415965e-002
2.237021e+002, 2.444652e-002
2.256305e+002, 2.514081e-002
2.275590e+002, 2.593052e-002
2.294875e+002, 2.622445e-002
2.314159e+002, 2.642255e-002
2.333444e+002, 2.663137e-002
2.352729e+002, 2.686992e-002
2.372013e+002, 2.751602e-002
2.391298e+002, 2.796612e-002
2.410583e+002, 2.823674e-002
2.429867e+002, 2.873598e-002
2.449152e+002, 2.943763e-002
2.468437e+002, 2.975240e-002
2.487721e+002, 3.044663e-002
2.507006e+002, 3.102418e-002
2.526291e+002, 3.091387e-002
2.545575e+002, 3.100328e-002
2.564860e+002, 3.119291e-002
2.584145e+002, 3.107984e-002
2.603429e+002, 3.070904e-002
2.622714e+002, 3.042744e-002
2.641999e+002, 3.025882e-002
2.661283e+002, 3.016104e-002
2.680568e+002, 3.013089e-002
2.699853e+002, 3.011861e-002
2.719137e+002, 3.031451e-002
2.738422e+002, 3.070098e-002
2.757707e+002, 3.082532e-002
2.776991e+002, 3.089755e-002
2.796276e+002, 3.114666e-002
2.815561e+002, 3.160410e-002
2.834845e+002, 3.203401e-002
2.854130e+002, 3.235370e-002
2.873415e+002, 3.254254e-002
2.892699e+002, 3.295143e-002
2.911984e+002, 3.321747e-002
2.931269e+002, 3.361117e-002
2.950553e+002, 3.401075e-002
2.969838e+002, 3.440370e-002
2.989123e+002, 3.494963e-002
3.008407e+002, 3.544389e-002
3.027692e+002, 3.582419e-002
3.046977e+002, 3.609652e-002
3.066261e+002, 3.630795e-002
3.085546e+002, 3.670610e-002
3.104831e+002, 3.721800e-002
3.124115e+002, 3.763920e-002
3.143400e+002, 3.788805e-002
3.162685e+002, 3.811698e-002
3.181969e+002, 3.827353e-002
3.201254e+002, 3.888308e-002
3.220539e+002, 3.933232e-002
3.239823e+002, 3.963881e-002
3.259108e+002, 4.008934e-002
3.278392e+002, 4.023014e-002
3.297677e+002, 4.040951e-002
3.316962e+002, 4.098916e-002
3.336246e+002, 4.162489e-002
3.355531e+002, 4.236279e-002
3.374816e+002, 4.297176e-002
3.394100e+002, 4.329792e-002
3.413385e+002, 4.349117e-002
3.432670e+002, 4.371570e-002
3.451954e+002, 4.399187e-002
3.471239e+002, 4.434339e-002
3.490524e+002, 4.456547e-002
3.509808e+002, 4.459222e-002
3.529093e+002, 4.447240e-002
3.548378e+002, 4.445747e-002
3.567662e+002, 4.430944e-002
3.586947e+002, 4.414791e-002
3.606232e+002, 4.400209e-002
3.625516e+002, 4.409193e-002
3.644801e+002, 4.449069e-002
3.664086e+002, 4.489242e-002
3.683370e+002, 4.512582e-002
3.702655e+002, 4.551483e-002
3.721940e+002, 4.630572e-002
3.741224e+002, 4.711083e-002
3.760509e+002, 4.758719e-002
3.779794e+002, 4.787984e-002
3.799078e+002, 4.812333e-002
3.818363e+002, 4.842458e-002
3.837648e+002, 4.882487e-002
3.856932e+002, 4.905096e-002
3.876217e+002, 4.933796e-002
3.895502e+002, 4.962736e-002
3.914786e+002, 5.003458e-002
3.934071e+002, 5.066239e-002
3.953356e+002, 5.093473e-002
3.972640e+002, 5.116097e-002
3.991925e+002, 5.164148e-002
4.011210e+002, 5.236376e-002
4.030494e+002, 5.295304e-002
4.049779e+002, 5.360541e-002
4.069064e+002, 5.434955e-002
4.088348e+002, 5.501128e-002
4.107633e+002, 5.578564e-002
4.126917e+002, 5.649644e-002
4.146202e+002, 5.698292e-002
4.165487e+002, 5.770567e-002
4.184771e+002, 5.832838e-002
4.204056e+002, 5.872327e-002
4.223341e+002, 5.905462e-002
4.242625e+002, 5.889132e-002
4.261910e+002, 5.860832e-002
4.281195e+002, 5.824459e-002
4.300479e+002, 5.823104e-002
4.319764e+002, 5.839951e-002
4.339049e+002, 5.824395e-002
4.358333e+002, 5.833263e-002
4.377618e+002, 5.821114e-002
4.396903e+002, 5.811933e-002
4.416187e+002, 5.820829e-002
4.435472e+002, 5.826706e-002
4.454757e+002, 5.827240e-002
4.474041e+002, 5.866112e-002
4.493326e+002, 5.946826e-002
4.512611e+002, 6.010255e-002
4.531895e+002, 6.050053e-002
4.551180e+002, 6.127193e-002
4.570465e+002, 6.239107e-002
4.589749e+002, 6.310530e-002
4.609034e+002, 6.381347e-002
4.628319e+002, 6.453414e-002
4.647603e+002, 6.502670e-002
4.666888e+002, 6.513710e-002
4.686173e+002, 6.498221e-002
4.705457e+002, 6.486365e-002
4.724742e+002, 6.401561e-002
4.744027e+002, 6.298687e-002
4.763311e+002, 6.201608e-002
4.782596e+002, 6.089555e-002
4.801881e+002, 5.973396e-002
4.821165e+002, 5.882257e-002
4.840450e+002, 5.835491e-002
4.859735e+002, 5.840441e-002
4.879019e+002, 5.841731e-002
4.898304e+002, 5.843604e-002
4.917589e+002, 5.848879e-002
4.936873e+002, 5.886038e-002
4.956158e+002, 5.913534e-002
4.975443e+002, 5.982045e-002
4.994727e+002, 6.048462e-002
5.014012e+002, 6.122378e-002
5.033297e+002, 6.226361e-002
5.052581e+002, 6.343658e-002
5.071866e+002, 6.423413e-002
5.091151e+002, 6.473840e-002
5.110435e+002, 6.516255e-002
5.129720e+002, 6.529033e-002
5.149005e+002, 6.548133e-002
5.168289e+002, 6.556972e-002
5.187574e+002, 6.520329e-002
5.206859e+002, 6.456492e-002
5.226143e+002, 6.393713e-002
5.245428e+002, 6.380244e-002
5.264713e+002, 6.346231e-002
5.283997e+002, 6.272607e-002
5.303282e+002, 6.201204e-002
5.322567e+002, 6.137639e-002
5.341851e+002, 6.044113e-002
5.361136e+002, 5.938860e-002
5.380421e+002, 5.855215e-002
5.399705e+002, 5.780040e-002
5.418990e+002, 5.688086e-002
5.438275e+002, 5.641855e-002
5.457559e+002, 5.597147e-002
5.476844e+002, 5.542444e-002
5.496129e+002, 5.480379e-002
5.515413e+002, 5.419324e-002
5.534698e+002, 5.353665e-002
5.553983e+002, 5.314440e-002
5.573267e+002, 5.294921e-002
5.592552e+002, 5.263114e-002
5.611837e+002, 5.189065e-002
5.631121e+002, 5.096119e-002
5.650406e+002, 5.041826e-002
5.669691e+002, 4.952310e-002
5.688975e+002, 4.876815e-002
5.708260e+002, 4.847568e-002
5.727545e+002, 4.823536e-002
5.746829e+002, 4.768339e-002
5.766114e+002, 4.692401e-002
5.785399e+002, 4.636912e-002
5.804683e+002, 4.588155e-002
5.823968e+002, 4.516523e-002
5.843253e+002, 4.472297e-002
5.862537e+002, 4.442832e-002
5.881822e+002, 4.417010e-002
5.901107e+002, 4.367984e-002
5.920391e+002, 4.292348e-002
5.939676e+002, 4.231240e-002
5.958961e+002, 4.196966e-002
5.978245e+002, 4.201471e-002
5.997530e+002, 4.183287e-002
6.016815e+002, 4.141391e-002
6.036099e+002, 4.121488e-002
6.055384e+002, 4.072756e-002
6.074669e+002, 3.997425e-002
6.093953e+002, 3.990559e-002
6.113238e+002, 3.996193e-002
6.132523e+002, 3.994413e-002
6.151807e+002, 4.030186e-002
6.171091e+002, 4.067555e-002
6.190376e+002, 4.068473e-002
6.209661e+002, 4.094139e-002
6.228945e+002, 4.139674e-002
6.248230e+002, 4.224361e-002
6.267515e+002, 4.329994e-002
6.286799e+002, 4.448277e-002
6.306084e+002, 4.557435e-002
6.325369e+002, 4.594206e-002
6.344653e+002, 4.571163e-002
6.363938e+002, 4.558762e-002
6.383223e+002, 4.557607e-002
6.402507e+002, 4.580773e-002
6.421792e+002, 4.581477e-002
6.441077e+002, 4.604185e-002
6.460361e+002, 4.621685e-002
6.479646e+002, 4.608750e-002
6.498931e+002, 4.602417e-002
6.518215e+002, 4.607035e-002
6.537500e+002, 4.629688e-002
6.556785e+002, 4.656167e-002
6.576069e+002, 4.636459e-002
6.595354e+002, 4.661474e-002
6.614639e+002, 4.717816e-002
6.633923e+002, 4.726440e-002
6.653208e+002, 4.752206e-002
6.672493e+002, 4.795327e-002
6.691777e+002, 4.824576e-002
6.711062e+002, 4.881680e-002
6.730347e+002, 4.897154e-002
6.749631e+002, 4.874729e-002
6.768916e+002, 4.885323e-002
6.788201e+002, 4.928069e-002
6.807485e+002, 4.913096e-002
6.826770e+002, 4.862003e-002
6.846055e+002, 4.847723e-002
6.865339e+002, 4.876404e-002
6.884624e+002, 4.891405e-002
6.903909e+002, 4.986697e-002
6.923193e+002, 5.027599e-002
6.942478e+002, 5.036566e-002
6.961763e+002, 5.013700e-002
6.981047e+002, 5.032118e-002
7.000332e+002, 4.960443e-002
##END=



