##NAMES=Newberyite
##RRUFFID=R050513
##IDEAL CHEMISTRY=Mg(PO_3_OH)&#183;3H_2_O
##LOCALITY=Australia
##OWNER=RRUFF
##SOURCE=American Museum of Natural History
##DESCRIPTION=An aggregate of beige fragments
##STATUS=The identification of this mineral has been confirmed by X-ray diffraction and chemical analysis
##URL=rruff.info/R050513
##MEASURED CHEMISTRY=(Mg_0.98_Mn_0.01_Ca_0.01_)_Σ=1_(P_1.00_O_3_OH)·3H_2_O
3.991926e+002, 1.162411e-001
4.011211e+002, 1.171916e-001
4.030495e+002, 1.121599e-001
4.049780e+002, 1.055430e-001
4.069065e+002, 1.019927e-001
4.088349e+002, 1.005347e-001
4.107634e+002, 1.000109e-001
4.126919e+002, 9.943888e-002
4.146203e+002, 1.002513e-001
4.165488e+002, 1.011319e-001
4.184773e+002, 1.005856e-001
4.204057e+002, 9.973098e-002
4.223342e+002, 9.821137e-002
4.242627e+002, 9.636382e-002
4.261911e+002, 9.410827e-002
4.281196e+002, 9.217428e-002
4.300481e+002, 9.216196e-002
4.319765e+002, 9.210517e-002
4.339050e+002, 8.948771e-002
4.358335e+002, 8.724859e-002
4.377619e+002, 8.552307e-002
4.396904e+002, 8.514728e-002
4.416189e+002, 8.451723e-002
4.435473e+002, 8.383591e-002
4.454758e+002, 8.305766e-002
4.474043e+002, 8.290775e-002
4.493327e+002, 8.233878e-002
4.512612e+002, 8.206526e-002
4.531897e+002, 8.206430e-002
4.551181e+002, 8.287190e-002
4.570466e+002, 8.364425e-002
4.589751e+002, 8.414849e-002
4.609035e+002, 8.511486e-002
4.628320e+002, 8.623503e-002
4.647605e+002, 8.696318e-002
4.666889e+002, 8.863723e-002
4.686174e+002, 9.060165e-002
4.705459e+002, 9.215068e-002
4.724743e+002, 9.447993e-002
4.744028e+002, 9.818789e-002
4.763313e+002, 1.020535e-001
4.782597e+002, 1.058812e-001
4.801882e+002, 1.100666e-001
4.821167e+002, 1.151700e-001
4.840451e+002, 1.213040e-001
4.859736e+002, 1.286914e-001
4.879021e+002, 1.358508e-001
4.898305e+002, 1.433846e-001
4.917590e+002, 1.510597e-001
4.936875e+002, 1.591801e-001
4.956159e+002, 1.667690e-001
4.975444e+002, 1.741957e-001
4.994729e+002, 1.798005e-001
5.014013e+002, 1.836744e-001
5.033298e+002, 1.855019e-001
5.052583e+002, 1.853935e-001
5.071867e+002, 1.832054e-001
5.091152e+002, 1.789367e-001
5.110437e+002, 1.732582e-001
5.129721e+002, 1.676045e-001
5.149006e+002, 1.629306e-001
5.168290e+002, 1.589171e-001
5.187575e+002, 1.542999e-001
5.206860e+002, 1.511087e-001
5.226144e+002, 1.496570e-001
5.245429e+002, 1.492002e-001
5.264714e+002, 1.485740e-001
5.283998e+002, 1.470587e-001
5.303283e+002, 1.447990e-001
5.322568e+002, 1.420922e-001
5.341852e+002, 1.398325e-001
5.361137e+002, 1.378193e-001
5.380422e+002, 1.359372e-001
5.399706e+002, 1.351293e-001
5.418991e+002, 1.350674e-001
5.438276e+002, 1.349425e-001
5.457560e+002, 1.349186e-001
5.476845e+002, 1.344450e-001
5.496130e+002, 1.334410e-001
5.515414e+002, 1.316199e-001
5.534699e+002, 1.282740e-001
5.553984e+002, 1.230914e-001
5.573268e+002, 1.166246e-001
5.592553e+002, 1.088324e-001
5.611838e+002, 1.008226e-001
5.631122e+002, 9.373797e-002
5.650407e+002, 8.819324e-002
5.669692e+002, 8.389374e-002
5.688976e+002, 8.111865e-002
5.708261e+002, 7.936411e-002
5.727546e+002, 7.852814e-002
5.746830e+002, 7.901720e-002
5.766115e+002, 7.969820e-002
5.785400e+002, 8.047979e-002
5.804684e+002, 8.191138e-002
5.823969e+002, 8.386652e-002
5.843254e+002, 8.588678e-002
5.862538e+002, 8.827443e-002
5.881823e+002, 9.059329e-002
5.901108e+002, 9.297249e-002
5.920392e+002, 9.525906e-002
5.939677e+002, 9.699494e-002
5.958962e+002, 9.868080e-002
5.978246e+002, 9.995519e-002
5.997531e+002, 1.005656e-001
6.016816e+002, 1.010904e-001
6.036100e+002, 1.011900e-001
6.055385e+002, 1.009541e-001
6.074670e+002, 1.006645e-001
6.093954e+002, 1.000871e-001
6.113239e+002, 9.957712e-002
6.132524e+002, 9.919533e-002
6.151808e+002, 9.894898e-002
6.171093e+002, 9.909336e-002
6.190378e+002, 9.922332e-002
6.209662e+002, 9.904256e-002
6.228947e+002, 9.935085e-002
6.248232e+002, 1.002358e-001
6.267516e+002, 1.009774e-001
6.286801e+002, 1.014792e-001
6.306086e+002, 1.023450e-001
6.325370e+002, 1.036956e-001
6.344655e+002, 1.050068e-001
6.363940e+002, 1.062490e-001
6.383224e+002, 1.074228e-001
6.402509e+002, 1.084732e-001
6.421794e+002, 1.093226e-001
6.441078e+002, 1.100588e-001
6.460363e+002, 1.107074e-001
6.479648e+002, 1.110324e-001
6.498932e+002, 1.110355e-001
6.518217e+002, 1.109049e-001
6.537502e+002, 1.107020e-001
6.556786e+002, 1.104861e-001
6.576071e+002, 1.100068e-001
6.595356e+002, 1.094324e-001
6.614641e+002, 1.089828e-001
6.633925e+002, 1.084308e-001
6.653210e+002, 1.080074e-001
6.672495e+002, 1.078316e-001
6.691779e+002, 1.072785e-001
6.711064e+002, 1.067212e-001
6.730349e+002, 1.065748e-001
6.749633e+002, 1.064575e-001
6.768918e+002, 1.062249e-001
6.788203e+002, 1.062078e-001
6.807487e+002, 1.063091e-001
6.826772e+002, 1.060425e-001
6.846057e+002, 1.056568e-001
6.865341e+002, 1.051647e-001
6.884626e+002, 1.044226e-001
6.903911e+002, 1.037187e-001
6.923195e+002, 1.028715e-001
6.942480e+002, 1.016859e-001
6.961765e+002, 1.004811e-001
6.981049e+002, 9.921147e-002
7.000334e+002, 9.805817e-002
7.019619e+002, 9.666485e-002
7.038903e+002, 9.543356e-002
7.058188e+002, 9.430756e-002
7.077473e+002, 9.300935e-002
7.096757e+002, 9.199617e-002
7.116042e+002, 9.121699e-002
7.135327e+002, 9.031439e-002
7.154611e+002, 8.933103e-002
7.173896e+002, 8.846677e-002
7.193181e+002, 8.776005e-002
7.212465e+002, 8.695478e-002
7.231750e+002, 8.623066e-002
7.251035e+002, 8.578577e-002
7.270319e+002, 8.518076e-002
7.289604e+002, 8.450951e-002
7.308889e+002, 8.385734e-002
7.328173e+002, 8.326282e-002
7.347458e+002, 8.276793e-002
7.366743e+002, 8.212102e-002
7.386027e+002, 8.142751e-002
7.405312e+002, 8.077755e-002
7.424597e+002, 7.994194e-002
7.443881e+002, 7.906102e-002
7.463166e+002, 7.832585e-002
7.482451e+002, 7.754563e-002
7.501735e+002, 7.681043e-002
7.521020e+002, 7.584698e-002
7.540305e+002, 7.470883e-002
7.559589e+002, 7.355805e-002
7.578874e+002, 7.236180e-002
7.598159e+002, 7.121592e-002
7.617443e+002, 6.990249e-002
7.636728e+002, 6.835052e-002
7.656013e+002, 6.678547e-002
7.675297e+002, 6.524689e-002
7.694582e+002, 6.361344e-002
7.713867e+002, 6.195430e-002
7.733151e+002, 6.011817e-002
7.752436e+002, 5.846507e-002
7.771721e+002, 5.692812e-002
7.791005e+002, 5.536731e-002
7.810290e+002, 5.411809e-002
7.829575e+002, 5.274792e-002
7.848859e+002, 5.118162e-002
7.868144e+002, 4.979065e-002
7.887429e+002, 4.863065e-002
7.906713e+002, 4.760588e-002
7.925998e+002, 4.641036e-002
7.945283e+002, 4.514900e-002
7.964567e+002, 4.432965e-002
7.983852e+002, 4.346240e-002
8.003137e+002, 4.257932e-002
8.022421e+002, 4.173791e-002
8.041706e+002, 4.106169e-002
8.060991e+002, 4.044351e-002
8.080275e+002, 3.979557e-002
8.099560e+002, 3.929378e-002
8.118845e+002, 3.881927e-002
8.138129e+002, 3.826709e-002
8.157414e+002, 3.780526e-002
8.176699e+002, 3.738410e-002
8.195983e+002, 3.706127e-002
8.215268e+002, 3.688235e-002
8.234553e+002, 3.680268e-002
8.253837e+002, 3.672857e-002
8.273122e+002, 3.658617e-002
8.292407e+002, 3.640678e-002
8.311691e+002, 3.647266e-002
8.330976e+002, 3.655284e-002
8.350261e+002, 3.680131e-002
8.369545e+002, 3.703729e-002
8.388830e+002, 3.734021e-002
8.408115e+002, 3.771428e-002
8.427399e+002, 3.825349e-002
8.446684e+002, 3.890117e-002
8.465969e+002, 3.955799e-002
8.485253e+002, 4.041771e-002
8.504538e+002, 4.151009e-002
8.523823e+002, 4.268784e-002
8.543107e+002, 4.405238e-002
8.562392e+002, 4.572889e-002
8.581677e+002, 4.792769e-002
8.600961e+002, 5.029296e-002
8.620246e+002, 5.285122e-002
8.639531e+002, 5.576614e-002
8.658815e+002, 5.925081e-002
8.678100e+002, 6.300858e-002
8.697385e+002, 6.731972e-002
8.716669e+002, 7.215165e-002
8.735954e+002, 7.722986e-002
8.755239e+002, 8.225593e-002
8.774523e+002, 8.678555e-002
8.793808e+002, 9.049054e-002
8.813093e+002, 9.337860e-002
8.832377e+002, 9.493652e-002
8.851662e+002, 9.506045e-002
8.870947e+002, 9.411527e-002
8.890231e+002, 9.223220e-002
8.909516e+002, 8.944203e-002
8.928801e+002, 8.613954e-002
8.948085e+002, 8.274766e-002
8.967370e+002, 7.935095e-002
8.986655e+002, 7.640956e-002
9.005939e+002, 7.388367e-002
9.025224e+002, 7.072172e-002
9.044509e+002, 6.595943e-002
9.063793e+002, 5.986088e-002
9.083078e+002, 5.335798e-002
9.102363e+002, 4.745563e-002
9.121647e+002, 4.255893e-002
9.140932e+002, 3.862719e-002
9.160217e+002, 3.576056e-002
9.179501e+002, 3.369270e-002
9.198786e+002, 3.214427e-002
9.218071e+002, 3.086402e-002
9.237355e+002, 2.988030e-002
9.256640e+002, 2.930057e-002
9.275925e+002, 2.887717e-002
9.295209e+002, 2.857799e-002
9.314494e+002, 2.844056e-002
9.333779e+002, 2.836313e-002
9.353063e+002, 2.832833e-002
9.372348e+002, 2.842241e-002
9.391633e+002, 2.871109e-002
9.410917e+002, 2.909709e-002
9.430202e+002, 2.962240e-002
9.449487e+002, 3.026482e-002
9.468771e+002, 3.115023e-002
9.488056e+002, 3.192762e-002
9.507341e+002, 3.272413e-002
9.526625e+002, 3.378442e-002
9.545910e+002, 3.475690e-002
9.565195e+002, 3.570103e-002
9.584479e+002, 3.678901e-002
9.603764e+002, 3.797934e-002
9.623049e+002, 3.930303e-002
9.642333e+002, 4.069580e-002
9.661618e+002, 4.225415e-002
9.680903e+002, 4.388411e-002
9.700187e+002, 4.561140e-002
9.719472e+002, 4.753275e-002
9.738757e+002, 4.987597e-002
9.758041e+002, 5.251538e-002
9.777326e+002, 5.532094e-002
9.796611e+002, 5.849556e-002
9.815895e+002, 6.210160e-002
9.835180e+002, 6.609584e-002
9.854465e+002, 7.051319e-002
9.873749e+002, 7.504409e-002
9.893034e+002, 7.955543e-002
9.912319e+002, 8.421002e-002
9.931603e+002, 8.929367e-002
9.950888e+002, 9.537990e-002
9.970173e+002, 1.028203e-001
9.989457e+002, 1.119538e-001
1.000874e+003, 1.229254e-001
1.002803e+003, 1.359580e-001
1.004731e+003, 1.512276e-001
1.006660e+003, 1.686665e-001
1.008588e+003, 1.884183e-001
1.010517e+003, 2.098761e-001
1.012445e+003, 2.319710e-001
1.014373e+003, 2.519180e-001
1.016302e+003, 2.656448e-001
1.018230e+003, 2.700568e-001
1.020159e+003, 2.655764e-001
1.022087e+003, 2.547180e-001
1.024016e+003, 2.418084e-001
1.025944e+003, 2.295100e-001
1.027873e+003, 2.175571e-001
1.029801e+003, 2.049288e-001
1.031730e+003, 1.911296e-001
1.033658e+003, 1.765108e-001
1.035587e+003, 1.628408e-001
1.037515e+003, 1.521321e-001
1.039443e+003, 1.465458e-001
1.041372e+003, 1.468951e-001
1.043300e+003, 1.530691e-001
1.045229e+003, 1.641196e-001
1.047157e+003, 1.785950e-001
1.049086e+003, 1.949106e-001
1.051014e+003, 2.110223e-001
1.052943e+003, 2.240501e-001
1.054871e+003, 2.320740e-001
1.056800e+003, 2.342760e-001
1.058728e+003, 2.315868e-001
1.060657e+003, 2.257517e-001
1.062585e+003, 2.184489e-001
1.064514e+003, 2.104938e-001
1.066442e+003, 2.022318e-001
1.068370e+003, 1.938870e-001
1.070299e+003, 1.852996e-001
1.072227e+003, 1.766498e-001
1.074156e+003, 1.683734e-001
1.076084e+003, 1.604605e-001
1.078013e+003, 1.528593e-001
1.079941e+003, 1.453940e-001
1.081870e+003, 1.382091e-001
1.083798e+003, 1.310462e-001
1.085727e+003, 1.239099e-001
1.087655e+003, 1.169623e-001
1.089584e+003, 1.099981e-001
1.091512e+003, 1.030015e-001
1.093441e+003, 9.623545e-002
1.095369e+003, 8.945665e-002
1.097297e+003, 8.283108e-002
1.099226e+003, 7.669250e-002
1.101154e+003, 7.103654e-002
1.103083e+003, 6.606734e-002
1.105011e+003, 6.168631e-002
1.106940e+003, 5.784458e-002
1.108868e+003, 5.458887e-002
1.110797e+003, 5.197400e-002
1.112725e+003, 4.998216e-002
1.114654e+003, 4.834088e-002
1.116582e+003, 4.704445e-002
1.118511e+003, 4.616406e-002
1.120439e+003, 4.577550e-002
1.122368e+003, 4.563239e-002
1.124296e+003, 4.583243e-002
1.126224e+003, 4.625525e-002
1.128153e+003, 4.708853e-002
1.130081e+003, 4.836714e-002
1.132010e+003, 4.993578e-002
1.133938e+003, 5.186313e-002
1.135867e+003, 5.439001e-002
1.137795e+003, 5.740444e-002
1.139724e+003, 6.078305e-002
1.141652e+003, 6.440387e-002
1.143581e+003, 6.857188e-002
1.145509e+003, 7.352000e-002
1.147438e+003, 7.989394e-002
1.149366e+003, 8.813280e-002
1.151295e+003, 9.857724e-002
1.153223e+003, 1.114669e-001
1.155151e+003, 1.260698e-001
1.157080e+003, 1.409260e-001
1.159008e+003, 1.541985e-001
1.160937e+003, 1.638980e-001
1.162865e+003, 1.691094e-001
1.164794e+003, 1.699581e-001
1.166722e+003, 1.667621e-001
1.168651e+003, 1.601800e-001
1.170579e+003, 1.506190e-001
1.172508e+003, 1.385555e-001
1.174436e+003, 1.251471e-001
1.176365e+003, 1.114269e-001
1.178293e+003, 9.844038e-002
1.180222e+003, 8.694753e-002
1.182150e+003, 7.743172e-002
1.184078e+003, 6.986471e-002
1.186007e+003, 6.397703e-002
1.187935e+003, 5.943665e-002
1.189864e+003, 5.534157e-002
1.191792e+003, 5.114952e-002
1.193721e+003, 4.713308e-002
1.195649e+003, 4.341919e-002
1.197578e+003, 4.027265e-002
1.199506e+003, 3.782420e-002
1.201435e+003, 3.598474e-002
1.203363e+003, 3.472289e-002
1.205292e+003, 3.414980e-002
1.207220e+003, 3.411324e-002
1.209149e+003, 3.444145e-002
1.211077e+003, 3.530711e-002
1.213005e+003, 3.665738e-002
1.214934e+003, 3.848160e-002
1.216862e+003, 4.095517e-002
1.218791e+003, 4.420847e-002
1.220719e+003, 4.805059e-002
1.222648e+003, 5.250183e-002
1.224576e+003, 5.741253e-002
1.226505e+003, 6.239627e-002
1.228433e+003, 6.706534e-002
1.230362e+003, 7.096919e-002
1.232290e+003, 7.391886e-002
1.234219e+003, 7.572317e-002
1.236147e+003, 7.585286e-002
1.238076e+003, 7.418863e-002
1.240004e+003, 7.073344e-002
1.241932e+003, 6.591684e-002
1.243861e+003, 6.033025e-002
1.245789e+003, 5.437871e-002
1.247718e+003, 4.850530e-002
1.249646e+003, 4.323179e-002
1.251575e+003, 3.862286e-002
1.253503e+003, 3.453166e-002
1.255432e+003, 3.088407e-002
1.257360e+003, 2.779073e-002
1.259289e+003, 2.534320e-002
1.261217e+003, 2.327820e-002
1.263146e+003, 2.163228e-002
1.265074e+003, 2.038268e-002
1.267003e+003, 1.936670e-002
1.268931e+003, 1.839695e-002
1.270859e+003, 1.749020e-002
1.272788e+003, 1.674644e-002
1.274716e+003, 1.615059e-002
1.276645e+003, 1.558753e-002
1.278573e+003, 1.500243e-002
1.280502e+003, 1.443323e-002
1.282430e+003, 1.414069e-002
1.284359e+003, 1.380385e-002
1.286287e+003, 1.339539e-002
1.288216e+003, 1.313186e-002
1.290144e+003, 1.286592e-002
1.292073e+003, 1.252445e-002
1.294001e+003, 1.232503e-002
1.295930e+003, 1.217054e-002
1.297858e+003, 1.201507e-002
1.299786e+003, 1.187663e-002
1.301715e+003, 1.170423e-002
1.303643e+003, 1.163188e-002
1.305572e+003, 1.168432e-002
1.307500e+003, 1.153962e-002
1.309429e+003, 1.135345e-002
1.311357e+003, 1.135949e-002
1.313286e+003, 1.139550e-002
1.315214e+003, 1.126396e-002
1.317143e+003, 1.114002e-002
1.319071e+003, 1.100635e-002
1.321000e+003, 1.084597e-002
1.322928e+003, 1.085006e-002
1.324857e+003, 1.096165e-002
1.326785e+003, 1.089342e-002
1.328714e+003, 1.082376e-002
1.330642e+003, 1.079900e-002
1.332570e+003, 1.072469e-002
1.334499e+003, 1.070418e-002
1.336427e+003, 1.076178e-002
1.338356e+003, 1.083044e-002
1.340284e+003, 1.078453e-002
1.342213e+003, 1.073831e-002
1.344141e+003, 1.074775e-002
1.346070e+003, 1.066102e-002
1.347998e+003, 1.052636e-002
1.349927e+003, 1.059840e-002
1.351855e+003, 1.057847e-002
1.353784e+003, 1.061801e-002
1.355712e+003, 1.064388e-002
1.357641e+003, 1.056176e-002
1.359569e+003, 1.062341e-002
1.361497e+003, 1.081594e-002
1.363426e+003, 1.071001e-002
1.365354e+003, 1.053588e-002
1.367283e+003, 1.064360e-002
1.369211e+003, 1.076269e-002
1.371140e+003, 1.080080e-002
1.373068e+003, 1.086020e-002
1.374997e+003, 1.099221e-002
1.376925e+003, 1.103520e-002
1.378854e+003, 1.115291e-002
1.380782e+003, 1.123270e-002
1.382711e+003, 1.126754e-002
1.384639e+003, 1.124148e-002
1.386568e+003, 1.133111e-002
1.388496e+003, 1.146428e-002
1.390424e+003, 1.150876e-002
1.392353e+003, 1.165100e-002
1.394281e+003, 1.186706e-002
1.396210e+003, 1.197011e-002
1.398138e+003, 1.210810e-002
1.400067e+003, 1.224370e-002
1.401995e+003, 1.234349e-002
1.403924e+003, 1.241901e-002
1.405852e+003, 1.238256e-002
1.407781e+003, 1.242170e-002
1.409709e+003, 1.272137e-002
1.411638e+003, 1.283779e-002
1.413566e+003, 1.286300e-002
1.415495e+003, 1.301530e-002
1.417423e+003, 1.324837e-002
1.419351e+003, 1.353858e-002
1.421280e+003, 1.357096e-002
1.423208e+003, 1.368846e-002
1.425137e+003, 1.391118e-002
1.427065e+003, 1.395884e-002
1.428994e+003, 1.402635e-002
1.430922e+003, 1.411188e-002
1.432851e+003, 1.428620e-002
1.434779e+003, 1.450560e-002
1.436708e+003, 1.469475e-002
1.438636e+003, 1.458480e-002
1.440565e+003, 1.457296e-002
1.442493e+003, 1.468281e-002
1.444422e+003, 1.484931e-002
1.446350e+003, 1.490616e-002
1.448278e+003, 1.490076e-002
1.450207e+003, 1.489947e-002
1.452135e+003, 1.489852e-002
1.454064e+003, 1.506733e-002
1.455992e+003, 1.553279e-002
1.457921e+003, 1.546458e-002
1.459849e+003, 1.510963e-002
1.461778e+003, 1.495748e-002
1.463706e+003, 1.501820e-002
1.465635e+003, 1.496543e-002
1.467563e+003, 1.482393e-002
1.469492e+003, 1.484379e-002
1.471420e+003, 1.499794e-002
1.473349e+003, 1.514652e-002
1.475277e+003, 1.520673e-002
1.477205e+003, 1.522763e-002
1.479134e+003, 1.521262e-002
1.481062e+003, 1.520058e-002
1.482991e+003, 1.506029e-002
1.484919e+003, 1.506288e-002
1.486848e+003, 1.519040e-002
1.488776e+003, 1.530974e-002
1.490705e+003, 1.525900e-002
1.492633e+003, 1.508052e-002
1.494562e+003, 1.516031e-002
1.496490e+003, 1.540169e-002
1.498419e+003, 1.536108e-002
1.500347e+003, 1.523304e-002
1.502276e+003, 1.522082e-002
1.504204e+003, 1.553150e-002
1.506132e+003, 1.600954e-002
1.508061e+003, 1.578884e-002
1.509989e+003, 1.533481e-002
1.511918e+003, 1.519903e-002
1.513846e+003, 1.527708e-002
1.515775e+003, 1.550145e-002
1.517703e+003, 1.557239e-002
1.519632e+003, 1.571075e-002
1.521560e+003, 1.584535e-002
1.523489e+003, 1.566345e-002
1.525417e+003, 1.570039e-002
1.527346e+003, 1.566484e-002
1.529274e+003, 1.565857e-002
1.531203e+003, 1.575846e-002
1.533131e+003, 1.594242e-002
1.535059e+003, 1.593261e-002
1.536988e+003, 1.610306e-002
1.538916e+003, 1.668992e-002
1.540845e+003, 1.673103e-002
1.542773e+003, 1.650897e-002
1.544702e+003, 1.644600e-002
1.546630e+003, 1.635030e-002
1.548559e+003, 1.648755e-002
1.550487e+003, 1.666599e-002
1.552416e+003, 1.680741e-002
1.554344e+003, 1.696652e-002
1.556273e+003, 1.720837e-002
1.558201e+003, 1.796919e-002
1.560130e+003, 1.819411e-002
1.562058e+003, 1.773802e-002
1.563986e+003, 1.771013e-002
1.565915e+003, 1.784919e-002
1.567843e+003, 1.805166e-002
1.569772e+003, 1.841298e-002
1.571700e+003, 1.854828e-002
1.573629e+003, 1.869105e-002
1.575557e+003, 1.923284e-002
1.577486e+003, 1.947660e-002
1.579414e+003, 1.949627e-002
1.581343e+003, 1.966590e-002
1.583271e+003, 1.991951e-002
1.585200e+003, 2.022940e-002
1.587128e+003, 2.049299e-002
1.589057e+003, 2.079781e-002
1.590985e+003, 2.121437e-002
1.592913e+003, 2.170181e-002
1.594842e+003, 2.204882e-002
1.596770e+003, 2.244556e-002
1.598699e+003, 2.296400e-002
1.600627e+003, 2.361695e-002
1.602556e+003, 2.418406e-002
1.604484e+003, 2.470243e-002
1.606413e+003, 2.527393e-002
1.608341e+003, 2.599476e-002
1.610270e+003, 2.679065e-002
1.612198e+003, 2.764751e-002
1.614127e+003, 2.854931e-002
1.616055e+003, 2.968765e-002
1.617984e+003, 3.073774e-002
1.619912e+003, 3.160306e-002
1.621840e+003, 3.284176e-002
1.623769e+003, 3.436765e-002
1.625697e+003, 3.592775e-002
1.627626e+003, 3.762513e-002
1.629554e+003, 3.973936e-002
1.631483e+003, 4.202963e-002
1.633411e+003, 4.491952e-002
1.635340e+003, 4.850412e-002
1.637268e+003, 5.223872e-002
1.639197e+003, 5.671197e-002
1.641125e+003, 6.210631e-002
1.643054e+003, 6.810115e-002
1.644982e+003, 7.450080e-002
1.646911e+003, 7.986569e-002
1.648839e+003, 8.230484e-002
1.650767e+003, 8.225798e-002
1.652696e+003, 8.013204e-002
1.654624e+003, 7.514559e-002
1.656553e+003, 6.973089e-002
1.658481e+003, 6.537382e-002
1.660410e+003, 6.198411e-002
1.662338e+003, 5.925329e-002
1.664267e+003, 5.673769e-002
1.666195e+003, 5.473936e-002
1.668124e+003, 5.334098e-002
1.670052e+003, 5.191299e-002
1.671981e+003, 5.057008e-002
1.673909e+003, 4.975788e-002
1.675838e+003, 4.904711e-002
1.677766e+003, 4.825460e-002
1.679694e+003, 4.790072e-002
1.681623e+003, 4.799024e-002
1.683551e+003, 4.857221e-002
1.685480e+003, 4.861252e-002
1.687408e+003, 4.853374e-002
1.689337e+003, 4.902240e-002
1.691265e+003, 4.968654e-002
1.693194e+003, 5.041396e-002
1.695122e+003, 5.157876e-002
1.697051e+003, 5.197406e-002
1.698979e+003, 5.205241e-002
1.700908e+003, 5.189752e-002
1.702836e+003, 5.057015e-002
1.704765e+003, 4.905301e-002
1.706693e+003, 4.708720e-002
1.708621e+003, 4.485181e-002
1.710550e+003, 4.222695e-002
1.712478e+003, 3.936286e-002
1.714407e+003, 3.660638e-002
1.716335e+003, 3.399735e-002
1.718264e+003, 3.091951e-002
1.720192e+003, 2.766581e-002
1.722121e+003, 2.500645e-002
1.724049e+003, 2.268891e-002
1.725978e+003, 2.062349e-002
1.727906e+003, 1.879592e-002
1.729835e+003, 1.703990e-002
1.731763e+003, 1.561867e-002
1.733692e+003, 1.459789e-002
1.735620e+003, 1.312206e-002
1.737548e+003, 1.178303e-002
1.739477e+003, 1.094991e-002
1.741405e+003, 9.951442e-003
1.743334e+003, 9.070341e-003
1.745262e+003, 8.375627e-003
1.747191e+003, 7.953687e-003
1.749119e+003, 7.708109e-003
1.751048e+003, 7.542692e-003
1.752976e+003, 7.260173e-003
1.754905e+003, 7.043495e-003
1.756833e+003, 6.968949e-003
1.758762e+003, 6.776521e-003
1.760690e+003, 6.868319e-003
1.762619e+003, 6.931246e-003
1.764547e+003, 6.707379e-003
1.766475e+003, 6.561348e-003
1.768404e+003, 6.409165e-003
1.770332e+003, 6.287537e-003
1.772261e+003, 6.260010e-003
1.774189e+003, 6.105422e-003
1.776118e+003, 5.905554e-003
1.778046e+003, 5.659546e-003
1.779975e+003, 5.477694e-003
1.781903e+003, 5.435728e-003
1.783832e+003, 5.488656e-003
1.785760e+003, 5.280001e-003
1.787689e+003, 5.018348e-003
1.789617e+003, 5.035841e-003
1.791546e+003, 5.252224e-003
1.793474e+003, 5.221467e-003
1.795402e+003, 5.063689e-003
1.797331e+003, 4.950539e-003
1.799259e+003, 4.777949e-003
1.801188e+003, 4.638327e-003
1.803116e+003, 4.632500e-003
1.805045e+003, 4.542789e-003
1.806973e+003, 4.370522e-003
1.808902e+003, 4.343993e-003
1.810830e+003, 4.428895e-003
1.812759e+003, 4.339717e-003
1.814687e+003, 4.306019e-003
1.816616e+003, 4.364305e-003
1.818544e+003, 4.513120e-003
1.820473e+003, 4.631808e-003
1.822401e+003, 4.591675e-003
1.824329e+003, 4.584888e-003
1.826258e+003, 4.540223e-003
1.828186e+003, 4.500075e-003
1.830115e+003, 4.520340e-003
1.832043e+003, 4.504070e-003
1.833972e+003, 4.532235e-003
1.835900e+003, 4.248263e-003
1.837829e+003, 4.241246e-003
1.839757e+003, 4.278512e-003
1.841686e+003, 4.364676e-003
1.843614e+003, 4.664884e-003
1.845543e+003, 4.534797e-003
1.847471e+003, 4.066485e-003
1.849400e+003, 4.122066e-003
1.851328e+003, 4.238125e-003
1.853256e+003, 4.361409e-003
1.855185e+003, 4.484145e-003
1.857113e+003, 4.555171e-003
1.859042e+003, 4.502449e-003
1.860970e+003, 4.651266e-003
1.862899e+003, 4.764766e-003
1.864827e+003, 4.247621e-003
1.866756e+003, 4.170411e-003
1.868684e+003, 4.483241e-003
1.870613e+003, 4.541563e-003
1.872541e+003, 4.684614e-003
1.874470e+003, 4.644934e-003
1.876398e+003, 4.486165e-003
1.878327e+003, 4.194054e-003
1.880255e+003, 4.279430e-003
1.882183e+003, 4.331450e-003
1.884112e+003, 4.063152e-003
1.886040e+003, 4.093455e-003
1.887969e+003, 4.335744e-003
1.889897e+003, 4.763189e-003
1.891826e+003, 4.901644e-003
1.893754e+003, 4.632897e-003
1.895683e+003, 4.667927e-003
1.897611e+003, 4.983687e-003
1.899540e+003, 5.037794e-003
1.901468e+003, 4.921709e-003
1.903397e+003, 5.082404e-003
1.905325e+003, 4.864094e-003
1.907254e+003, 4.408139e-003
1.909182e+003, 4.361794e-003
1.911110e+003, 4.831316e-003
1.913039e+003, 4.838578e-003
1.914967e+003, 4.929865e-003
1.916896e+003, 5.290493e-003
1.918824e+003, 5.228193e-003
1.920753e+003, 4.716154e-003
1.922681e+003, 4.982446e-003
1.924610e+003, 5.365474e-003
1.926538e+003, 5.279084e-003
1.928467e+003, 4.943440e-003
1.930395e+003, 5.020162e-003
1.932324e+003, 5.234713e-003
1.934252e+003, 4.645362e-003
1.936181e+003, 4.470975e-003
1.938109e+003, 4.704480e-003
1.940037e+003, 5.085602e-003
1.941966e+003, 5.810221e-003
1.943894e+003, 5.874315e-003
1.945823e+003, 5.639088e-003
1.947751e+003, 6.124484e-003
1.949680e+003, 6.244144e-003
1.951608e+003, 5.400292e-003
1.953537e+003, 5.342852e-003
1.955465e+003, 5.190988e-003
1.957394e+003, 5.122389e-003
1.959322e+003, 5.813580e-003
1.961251e+003, 5.993540e-003
1.963179e+003, 6.146791e-003
1.965108e+003, 6.628943e-003
1.967036e+003, 6.520250e-003
1.968964e+003, 5.756471e-003
1.970893e+003, 5.825348e-003
1.972821e+003, 6.369692e-003
1.974750e+003, 6.392971e-003
1.976678e+003, 7.132467e-003
1.978607e+003, 7.518938e-003
1.980535e+003, 6.509507e-003
1.982464e+003, 6.069477e-003
1.984392e+003, 6.041151e-003
1.986321e+003, 5.433984e-003
1.988249e+003, 4.403560e-003
1.990178e+003, 4.232479e-003
1.992106e+003, 5.357320e-003
1.994035e+003, 5.969901e-003
1.995963e+003, 5.412375e-003
1.997891e+003, 5.445851e-003
1.999820e+003, 5.441386e-003
2.001748e+003, 4.751381e-003
2.003677e+003, 4.038318e-003
2.005605e+003, 3.763554e-003
2.007534e+003, 4.764373e-003
2.009462e+003, 5.075713e-003
2.011391e+003, 4.350990e-003
2.013319e+003, 4.338311e-003
2.015248e+003, 4.056789e-003
2.017176e+003, 3.959120e-003
2.019105e+003, 3.136339e-003
2.021033e+003, 2.694181e-003
2.022962e+003, 2.905929e-003
2.024890e+003, 2.911806e-003
2.026818e+003, 3.102245e-003
2.028747e+003, 4.531020e-003
2.030675e+003, 4.234226e-003
2.032604e+003, 3.647881e-003
2.034532e+003, 4.172449e-003
2.036461e+003, 3.626338e-003
2.038389e+003, 3.008409e-003
2.040318e+003, 3.861010e-003
2.042246e+003, 4.517904e-003
2.044175e+003, 4.197286e-003
2.046103e+003, 3.646367e-003
2.048031e+003, 3.892137e-003
2.049960e+003, 4.775314e-003
2.051888e+003, 4.573200e-003
2.053817e+003, 4.242698e-003
2.055745e+003, 4.639377e-003
2.057674e+003, 4.374984e-003
2.059602e+003, 4.238034e-003
2.061531e+003, 4.361260e-003
2.063459e+003, 4.294826e-003
2.065388e+003, 4.705251e-003
2.067316e+003, 4.903734e-003
2.069245e+003, 4.872364e-003
2.071173e+003, 5.182731e-003
2.073102e+003, 5.530590e-003
2.075030e+003, 5.634679e-003
2.076958e+003, 5.195893e-003
2.078887e+003, 5.184429e-003
2.080815e+003, 5.807093e-003
2.082744e+003, 6.075464e-003
2.084672e+003, 5.491242e-003
2.086601e+003, 4.657928e-003
2.088529e+003, 5.206860e-003
2.090458e+003, 5.438465e-003
2.092386e+003, 5.021009e-003
2.094315e+003, 4.888198e-003
2.096243e+003, 5.320402e-003
2.098172e+003, 5.711209e-003
2.100100e+003, 5.534821e-003
2.102029e+003, 5.583884e-003
2.103957e+003, 5.664421e-003
2.105885e+003, 5.553576e-003
2.107814e+003, 5.839380e-003
2.109742e+003, 5.510115e-003
2.111671e+003, 5.198107e-003
2.113599e+003, 5.670624e-003
2.115528e+003, 6.135861e-003
2.117456e+003, 5.838711e-003
2.119385e+003, 5.395848e-003
2.121313e+003, 5.107922e-003
2.123242e+003, 5.690452e-003
2.125170e+003, 6.237697e-003
2.127099e+003, 5.970831e-003
2.129027e+003, 5.552371e-003
2.130956e+003, 5.668875e-003
2.132884e+003, 5.963450e-003
2.134813e+003, 6.098923e-003
2.136741e+003, 6.456189e-003
2.138669e+003, 6.596065e-003
2.140598e+003, 6.574975e-003
2.142526e+003, 5.770515e-003
2.144455e+003, 5.363967e-003
2.146383e+003, 5.396451e-003
2.148312e+003, 5.942804e-003
2.150240e+003, 6.341332e-003
2.152169e+003, 6.410230e-003
2.154097e+003, 7.683304e-003
2.156026e+003, 8.599027e-003
2.157954e+003, 8.584786e-003
2.159883e+003, 9.147737e-003
2.161811e+003, 9.346427e-003
2.163740e+003, 9.442222e-003
2.165668e+003, 1.007322e-002
2.167596e+003, 9.858165e-003
2.169525e+003, 9.070973e-003
2.171453e+003, 8.017126e-003
2.173382e+003, 8.491638e-003
2.175310e+003, 8.554060e-003
2.177239e+003, 8.763067e-003
2.179167e+003, 9.620618e-003
2.181096e+003, 1.042810e-002
2.183024e+003, 1.040427e-002
2.184953e+003, 1.135469e-002
2.186881e+003, 1.198517e-002
2.188810e+003, 1.150348e-002
2.190738e+003, 1.106393e-002
2.192667e+003, 1.059290e-002
2.194595e+003, 1.048249e-002
2.196523e+003, 1.157201e-002
2.198452e+003, 1.199703e-002
2.200380e+003, 1.215441e-002
2.202309e+003, 1.161361e-002
2.204237e+003, 1.160814e-002
2.206166e+003, 1.218603e-002
2.208094e+003, 1.238700e-002
2.210023e+003, 1.273579e-002
2.211951e+003, 1.264252e-002
2.213880e+003, 1.216108e-002
2.215808e+003, 1.193619e-002
2.217737e+003, 1.230140e-002
2.219665e+003, 1.337173e-002
2.221594e+003, 1.345462e-002
2.223522e+003, 1.282765e-002
2.225450e+003, 1.271104e-002
2.227379e+003, 1.324160e-002
2.229307e+003, 1.383399e-002
2.231236e+003, 1.346885e-002
2.233164e+003, 1.347196e-002
2.235093e+003, 1.414266e-002
2.237021e+003, 1.466814e-002
2.238950e+003, 1.514633e-002
2.240878e+003, 1.493972e-002
2.242807e+003, 1.458614e-002
2.244735e+003, 1.439534e-002
2.246664e+003, 1.441047e-002
2.248592e+003, 1.442817e-002
2.250521e+003, 1.418340e-002
2.252449e+003, 1.372174e-002
2.254377e+003, 1.370677e-002
2.256306e+003, 1.399282e-002
2.258234e+003, 1.409115e-002
2.260163e+003, 1.456101e-002
2.262091e+003, 1.490081e-002
2.264020e+003, 1.495340e-002
2.265948e+003, 1.504305e-002
2.267877e+003, 1.512869e-002
2.269805e+003, 1.551897e-002
2.271734e+003, 1.596943e-002
2.273662e+003, 1.617314e-002
2.275591e+003, 1.633235e-002
2.277519e+003, 1.639650e-002
2.279448e+003, 1.656642e-002
2.281376e+003, 1.640451e-002
2.283304e+003, 1.627089e-002
2.285233e+003, 1.676559e-002
2.287161e+003, 1.692981e-002
2.289090e+003, 1.686467e-002
2.291018e+003, 1.670624e-002
2.292947e+003, 1.671138e-002
2.294875e+003, 1.640452e-002
2.296804e+003, 1.641824e-002
2.298732e+003, 1.663561e-002
2.300661e+003, 1.667391e-002
2.302589e+003, 1.692214e-002
2.304518e+003, 1.732558e-002
2.306446e+003, 1.740661e-002
2.308375e+003, 1.716101e-002
2.310303e+003, 1.717714e-002
2.312231e+003, 1.777448e-002
2.314160e+003, 1.815480e-002
2.316088e+003, 1.835734e-002
2.318017e+003, 1.858502e-002
2.319945e+003, 1.922497e-002
2.321874e+003, 1.976458e-002
2.323802e+003, 2.001150e-002
2.325731e+003, 1.997297e-002
2.327659e+003, 2.009758e-002
2.329588e+003, 2.037708e-002
2.331516e+003, 2.041093e-002
2.333445e+003, 2.050168e-002
2.335373e+003, 2.078422e-002
2.337302e+003, 2.081529e-002
2.339230e+003, 2.091594e-002
2.341158e+003, 2.096634e-002
2.343087e+003, 2.087163e-002
2.345015e+003, 2.083607e-002
2.346944e+003, 2.058355e-002
2.348872e+003, 2.039539e-002
2.350801e+003, 2.073395e-002
2.352729e+003, 2.117689e-002
2.354658e+003, 2.149978e-002
2.356586e+003, 2.197361e-002
2.358515e+003, 2.267910e-002
2.360443e+003, 2.316146e-002
2.362372e+003, 2.322167e-002
2.364300e+003, 2.335296e-002
2.366229e+003, 2.363797e-002
2.368157e+003, 2.420356e-002
2.370085e+003, 2.423196e-002
2.372014e+003, 2.407202e-002
2.373942e+003, 2.416728e-002
2.375871e+003, 2.412278e-002
2.377799e+003, 2.426472e-002
2.379728e+003, 2.462185e-002
2.381656e+003, 2.495186e-002
2.383585e+003, 2.509329e-002
2.385513e+003, 2.505206e-002
2.387442e+003, 2.521815e-002
2.389370e+003, 2.570124e-002
2.391299e+003, 2.581991e-002
2.393227e+003, 2.599688e-002
2.395156e+003, 2.616305e-002
2.397084e+003, 2.567521e-002
2.399012e+003, 2.540803e-002
2.400941e+003, 2.590035e-002
2.402869e+003, 2.575120e-002
2.404798e+003, 2.502075e-002
2.406726e+003, 2.473466e-002
2.408655e+003, 2.490355e-002
2.410583e+003, 2.511514e-002
2.412512e+003, 2.476259e-002
2.414440e+003, 2.431171e-002
2.416369e+003, 2.417408e-002
2.418297e+003, 2.398145e-002
2.420226e+003, 2.340558e-002
2.422154e+003, 2.296658e-002
2.424083e+003, 2.273636e-002
2.426011e+003, 2.253709e-002
2.427939e+003, 2.276474e-002
2.429868e+003, 2.270818e-002
2.431796e+003, 2.233457e-002
2.433725e+003, 2.180522e-002
2.435653e+003, 2.181354e-002
2.437582e+003, 2.186836e-002
2.439510e+003, 2.175895e-002
2.441439e+003, 2.127682e-002
2.443367e+003, 2.066685e-002
2.445296e+003, 2.042571e-002
2.447224e+003, 2.076789e-002
2.449153e+003, 2.098423e-002
2.451081e+003, 2.097202e-002
2.453010e+003, 2.097637e-002
2.454938e+003, 2.115689e-002
2.456866e+003, 2.118608e-002
2.458795e+003, 2.122840e-002
2.460723e+003, 2.111243e-002
2.462652e+003, 2.110481e-002
2.464580e+003, 2.088476e-002
2.466509e+003, 2.076564e-002
2.468437e+003, 2.117797e-002
2.470366e+003, 2.162048e-002
2.472294e+003, 2.177479e-002
2.474223e+003, 2.141324e-002
2.476151e+003, 2.124937e-002
2.478080e+003, 2.100585e-002
2.480008e+003, 2.098235e-002
2.481937e+003, 2.139076e-002
2.483865e+003, 2.127931e-002
2.485793e+003, 2.083545e-002
2.487722e+003, 2.042703e-002
2.489650e+003, 2.037448e-002
2.491579e+003, 2.021869e-002
2.493507e+003, 1.981113e-002
2.495436e+003, 1.951925e-002
2.497364e+003, 1.934364e-002
2.499293e+003, 1.900570e-002
2.501221e+003, 1.876008e-002
2.503150e+003, 1.853690e-002
2.505078e+003, 1.811361e-002
2.507007e+003, 1.794483e-002
2.508935e+003, 1.753349e-002
2.510864e+003, 1.719376e-002
2.512792e+003, 1.721476e-002
2.514720e+003, 1.707228e-002
2.516649e+003, 1.662965e-002
2.518577e+003, 1.632610e-002
2.520506e+003, 1.610639e-002
2.522434e+003, 1.635514e-002
2.524363e+003, 1.644179e-002
2.526291e+003, 1.619738e-002
2.528220e+003, 1.630006e-002
2.530148e+003, 1.611165e-002
2.532077e+003, 1.601508e-002
2.534005e+003, 1.597423e-002
2.535934e+003, 1.622028e-002
2.537862e+003, 1.640094e-002
2.539791e+003, 1.628882e-002
2.541719e+003, 1.619730e-002
2.543647e+003, 1.623142e-002
2.545576e+003, 1.628930e-002
2.547504e+003, 1.615837e-002
2.549433e+003, 1.629535e-002
2.551361e+003, 1.660663e-002
2.553290e+003, 1.659060e-002
2.555218e+003, 1.624787e-002
2.557147e+003, 1.625999e-002
2.559075e+003, 1.674474e-002
2.561004e+003, 1.652949e-002
2.562932e+003, 1.668866e-002
2.564861e+003, 1.713740e-002
2.566789e+003, 1.686700e-002
2.568718e+003, 1.720023e-002
2.570646e+003, 1.751837e-002
2.572574e+003, 1.730870e-002
2.574503e+003, 1.746552e-002
2.576431e+003, 1.782422e-002
2.578360e+003, 1.766019e-002
2.580288e+003, 1.742158e-002
2.582217e+003, 1.752884e-002
2.584145e+003, 1.758074e-002
2.586074e+003, 1.769269e-002
2.588002e+003, 1.760906e-002
2.589931e+003, 1.775864e-002
2.591859e+003, 1.807022e-002
2.593788e+003, 1.820045e-002
2.595716e+003, 1.828316e-002
2.597645e+003, 1.838477e-002
2.599573e+003, 1.809768e-002
2.601501e+003, 1.800454e-002
2.603430e+003, 1.827002e-002
2.605358e+003, 1.879894e-002
2.607287e+003, 1.919634e-002
2.609215e+003, 1.921814e-002
2.611144e+003, 1.922904e-002
2.613072e+003, 1.923984e-002
2.615001e+003, 1.935761e-002
2.616929e+003, 1.949365e-002
2.618858e+003, 1.962784e-002
2.620786e+003, 1.977511e-002
2.622715e+003, 1.966167e-002
2.624643e+003, 1.963979e-002
2.626572e+003, 1.981452e-002
2.628500e+003, 1.984382e-002
2.630428e+003, 2.016671e-002
2.632357e+003, 2.052051e-002
2.634285e+003, 2.063599e-002
2.636214e+003, 2.078686e-002
2.638142e+003, 2.111849e-002
2.640071e+003, 2.119865e-002
2.641999e+003, 2.093385e-002
2.643928e+003, 2.093087e-002
2.645856e+003, 2.104973e-002
2.647785e+003, 2.142445e-002
2.649713e+003, 2.183130e-002
2.651642e+003, 2.190935e-002
2.653570e+003, 2.185947e-002
2.655499e+003, 2.181961e-002
2.657427e+003, 2.208928e-002
2.659355e+003, 2.230709e-002
2.661284e+003, 2.206407e-002
2.663212e+003, 2.247771e-002
2.665141e+003, 2.300607e-002
2.667069e+003, 2.307910e-002
2.668998e+003, 2.308535e-002
2.670926e+003, 2.313521e-002
2.672855e+003, 2.318438e-002
2.674783e+003, 2.335729e-002
2.676712e+003, 2.362956e-002
2.678640e+003, 2.366047e-002
2.680569e+003, 2.383654e-002
2.682497e+003, 2.400985e-002
2.684426e+003, 2.439802e-002
2.686354e+003, 2.486594e-002
2.688282e+003, 2.488838e-002
2.690211e+003, 2.512137e-002
2.692139e+003, 2.539981e-002
2.694068e+003, 2.571173e-002
2.695996e+003, 2.607400e-002
2.697925e+003, 2.628201e-002
2.699853e+003, 2.637924e-002
2.701782e+003, 2.653133e-002
2.703710e+003, 2.676557e-002
2.705639e+003, 2.696721e-002
2.707567e+003, 2.698189e-002
2.709496e+003, 2.722933e-002
2.711424e+003, 2.754484e-002
2.713353e+003, 2.754736e-002
2.715281e+003, 2.762177e-002
2.717209e+003, 2.799032e-002
2.719138e+003, 2.823018e-002
2.721066e+003, 2.841194e-002
2.722995e+003, 2.866058e-002
2.724923e+003, 2.882764e-002
2.726852e+003, 2.915611e-002
2.728780e+003, 2.956307e-002
2.730709e+003, 2.991707e-002
2.732637e+003, 3.032948e-002
2.734566e+003, 3.057757e-002
2.736494e+003, 3.049469e-002
2.738423e+003, 3.044567e-002
2.740351e+003, 3.053776e-002
2.742280e+003, 3.094623e-002
2.744208e+003, 3.155748e-002
2.746136e+003, 3.179282e-002
2.748065e+003, 3.208266e-002
2.749993e+003, 3.231386e-002
2.751922e+003, 3.241170e-002
2.753850e+003, 3.267279e-002
2.755779e+003, 3.271898e-002
2.757707e+003, 3.283405e-002
2.759636e+003, 3.309229e-002
2.761564e+003, 3.326672e-002
2.763493e+003, 3.342668e-002
2.765421e+003, 3.363493e-002
2.767350e+003, 3.396114e-002
2.769278e+003, 3.421291e-002
2.771207e+003, 3.450226e-002
2.773135e+003, 3.475032e-002
2.775063e+003, 3.489729e-002
2.776992e+003, 3.478832e-002
2.778920e+003, 3.484712e-002
2.780849e+003, 3.511139e-002
2.782777e+003, 3.518572e-002
2.784706e+003, 3.519467e-002
2.786634e+003, 3.556427e-002
2.788563e+003, 3.576583e-002
2.790491e+003, 3.605423e-002
2.792420e+003, 3.631264e-002
2.794348e+003, 3.621976e-002
2.796277e+003, 3.594959e-002
2.798205e+003, 3.597165e-002
2.800134e+003, 3.648941e-002
2.802062e+003, 3.690278e-002
2.803990e+003, 3.714227e-002
2.805919e+003, 3.722901e-002
2.807847e+003, 3.703702e-002
2.809776e+003, 3.736215e-002
2.811704e+003, 3.769813e-002
2.813633e+003, 3.790664e-002
2.815561e+003, 3.821753e-002
2.817490e+003, 3.812635e-002
2.819418e+003, 3.802115e-002
2.821347e+003, 3.833092e-002
2.823275e+003, 3.865312e-002
2.825204e+003, 3.867262e-002
2.827132e+003, 3.859968e-002
2.829061e+003, 3.909877e-002
2.830989e+003, 3.945541e-002
2.832917e+003, 3.933454e-002
2.834846e+003, 3.930016e-002
2.836774e+003, 3.924437e-002
2.838703e+003, 3.947425e-002
2.840631e+003, 3.953648e-002
2.842560e+003, 3.942908e-002
2.844488e+003, 3.917090e-002
2.846417e+003, 3.881965e-002
2.848345e+003, 3.809772e-002
2.850274e+003, 3.783814e-002
2.852202e+003, 3.777883e-002
2.854131e+003, 3.777273e-002
2.856059e+003, 3.823944e-002
2.857988e+003, 3.851983e-002
2.859916e+003, 3.852075e-002
2.861844e+003, 3.879356e-002
2.863773e+003, 3.923470e-002
2.865701e+003, 3.961407e-002
2.867630e+003, 3.979637e-002
2.869558e+003, 3.990083e-002
2.871487e+003, 3.991148e-002
2.873415e+003, 3.987897e-002
2.875344e+003, 3.998180e-002
2.877272e+003, 3.970869e-002
2.879201e+003, 3.962081e-002
2.881129e+003, 3.963785e-002
2.883058e+003, 3.957668e-002
2.884986e+003, 3.966279e-002
2.886915e+003, 3.962547e-002
2.888843e+003, 3.946815e-002
2.890771e+003, 3.927821e-002
2.892700e+003, 3.940275e-002
2.894628e+003, 3.958496e-002
2.896557e+003, 3.968557e-002
2.898485e+003, 3.986577e-002
2.900414e+003, 3.974942e-002
2.902342e+003, 3.946698e-002
2.904271e+003, 3.938702e-002
2.906199e+003, 3.936592e-002
2.908128e+003, 3.894694e-002
2.910056e+003, 3.841111e-002
2.911985e+003, 3.769356e-002
2.913913e+003, 3.714906e-002
2.915842e+003, 3.698437e-002
2.917770e+003, 3.653308e-002
2.919698e+003, 3.608799e-002
2.921627e+003, 3.627583e-002
2.923555e+003, 3.659720e-002
2.925484e+003, 3.649937e-002
2.927412e+003, 3.636339e-002
2.929341e+003, 3.659204e-002
2.931269e+003, 3.691889e-002
2.933198e+003, 3.707649e-002
2.935126e+003, 3.718843e-002
2.937055e+003, 3.710029e-002
2.938983e+003, 3.683392e-002
2.940912e+003, 3.711162e-002
2.942840e+003, 3.781726e-002
2.944769e+003, 3.801858e-002
2.946697e+003, 3.797654e-002
2.948625e+003, 3.769977e-002
2.950554e+003, 3.769326e-002
2.952482e+003, 3.795039e-002
2.954411e+003, 3.816844e-002
2.956339e+003, 3.823023e-002
2.958268e+003, 3.817980e-002
2.960196e+003, 3.789619e-002
2.962125e+003, 3.771293e-002
2.964053e+003, 3.767332e-002
2.965982e+003, 3.791598e-002
2.967910e+003, 3.783466e-002
2.969839e+003, 3.771905e-002
2.971767e+003, 3.753456e-002
2.973696e+003, 3.738795e-002
2.975624e+003, 3.740535e-002
2.977552e+003, 3.775272e-002
2.979481e+003, 3.792696e-002
2.981409e+003, 3.750956e-002
2.983338e+003, 3.699551e-002
2.985266e+003, 3.671815e-002
2.987195e+003, 3.692399e-002
2.989123e+003, 3.727695e-002
2.991052e+003, 3.711331e-002
2.992980e+003, 3.720127e-002
2.994909e+003, 3.729780e-002
2.996837e+003, 3.722153e-002
2.998766e+003, 3.748583e-002
3.000694e+003, 3.732447e-002
3.002623e+003, 3.689303e-002
3.004551e+003, 3.735249e-002
3.006479e+003, 3.772426e-002
3.008408e+003, 3.760334e-002
3.010336e+003, 3.748246e-002
3.012265e+003, 3.765012e-002
3.014193e+003, 3.771261e-002
3.016122e+003, 3.811434e-002
3.018050e+003, 3.853991e-002
3.019979e+003, 3.811239e-002
3.021907e+003, 3.768848e-002
3.023836e+003, 3.740680e-002
3.025764e+003, 3.730364e-002
3.027693e+003, 3.752017e-002
3.029621e+003, 3.766787e-002
3.031550e+003, 3.779640e-002
3.033478e+003, 3.811718e-002
3.035406e+003, 3.826209e-002
3.037335e+003, 3.840186e-002
3.039263e+003, 3.818943e-002
3.041192e+003, 3.802733e-002
3.043120e+003, 3.830579e-002
3.045049e+003, 3.838661e-002
3.046977e+003, 3.815316e-002
3.048906e+003, 3.793814e-002
3.050834e+003, 3.813654e-002
3.052763e+003, 3.865559e-002
3.054691e+003, 3.883815e-002
3.056620e+003, 3.916623e-002
3.058548e+003, 3.946104e-002
3.060477e+003, 3.963046e-002
3.062405e+003, 3.986824e-002
3.064333e+003, 4.008476e-002
3.066262e+003, 3.985681e-002
3.068190e+003, 3.983899e-002
3.070119e+003, 3.964212e-002
3.072047e+003, 3.981703e-002
3.073976e+003, 4.034440e-002
3.075904e+003, 4.059458e-002
3.077833e+003, 4.053935e-002
3.079761e+003, 4.088061e-002
3.081690e+003, 4.098406e-002
3.083618e+003, 4.129414e-002
3.085547e+003, 4.204023e-002
3.087475e+003, 4.205949e-002
3.089404e+003, 4.219207e-002
3.091332e+003, 4.243740e-002
3.093260e+003, 4.263056e-002
3.095189e+003, 4.249015e-002
3.097117e+003, 4.295301e-002
3.099046e+003, 4.379455e-002
3.100974e+003, 4.452366e-002
3.102903e+003, 4.487757e-002
3.104831e+003, 4.482597e-002
3.106760e+003, 4.512686e-002
3.108688e+003, 4.531416e-002
3.110617e+003, 4.561735e-002
3.112545e+003, 4.647925e-002
3.114474e+003, 4.675954e-002
3.116402e+003, 4.696055e-002
3.118331e+003, 4.753147e-002
3.120259e+003, 4.794122e-002
3.122188e+003, 4.847793e-002
3.124116e+003, 4.892532e-002
3.126044e+003, 4.961235e-002
3.127973e+003, 5.048445e-002
3.129901e+003, 5.094181e-002
3.131830e+003, 5.134024e-002
3.133758e+003, 5.193628e-002
3.135687e+003, 5.260970e-002
3.137615e+003, 5.326650e-002
3.139544e+003, 5.347810e-002
3.141472e+003, 5.403214e-002
3.143401e+003, 5.510579e-002
3.145329e+003, 5.601072e-002
3.147258e+003, 5.681463e-002
3.149186e+003, 5.768665e-002
3.151115e+003, 5.809443e-002
3.153043e+003, 5.829956e-002
3.154971e+003, 5.946036e-002
3.156900e+003, 6.068534e-002
3.158828e+003, 6.104930e-002
3.160757e+003, 6.124650e-002
3.162685e+003, 6.219148e-002
3.164614e+003, 6.299031e-002
3.166542e+003, 6.383409e-002
3.168471e+003, 6.478468e-002
3.170399e+003, 6.550712e-002
3.172328e+003, 6.652899e-002
3.174256e+003, 6.763171e-002
3.176185e+003, 6.850774e-002
3.178113e+003, 6.916539e-002
3.180042e+003, 6.965847e-002
3.181970e+003, 7.026695e-002
3.183898e+003, 7.156230e-002
3.185827e+003, 7.291195e-002
3.187755e+003, 7.377615e-002
3.189684e+003, 7.469226e-002
3.191612e+003, 7.582195e-002
3.193541e+003, 7.681566e-002
3.195469e+003, 7.784423e-002
3.197398e+003, 7.908087e-002
3.199326e+003, 8.032347e-002
3.201255e+003, 8.157202e-002
3.203183e+003, 8.305410e-002
3.205112e+003, 8.435197e-002
3.207040e+003, 8.592458e-002
3.208969e+003, 8.719438e-002
3.210897e+003, 8.774729e-002
3.212825e+003, 8.926858e-002
3.214754e+003, 9.148890e-002
3.216682e+003, 9.326894e-002
3.218611e+003, 9.441537e-002
3.220539e+003, 9.531787e-002
3.222468e+003, 9.697169e-002
3.224396e+003, 9.954508e-002
3.226325e+003, 1.021664e-001
3.228253e+003, 1.045226e-001
3.230182e+003, 1.066968e-001
3.232110e+003, 1.095404e-001
3.234039e+003, 1.119613e-001
3.235967e+003, 1.141018e-001
3.237896e+003, 1.165732e-001
3.239824e+003, 1.190784e-001
3.241752e+003, 1.211405e-001
3.243681e+003, 1.238734e-001
3.245609e+003, 1.271092e-001
3.247538e+003, 1.295540e-001
3.249466e+003, 1.321128e-001
3.251395e+003, 1.347057e-001
3.253323e+003, 1.374327e-001
3.255252e+003, 1.394658e-001
3.257180e+003, 1.412190e-001
3.259109e+003, 1.431867e-001
3.261037e+003, 1.446148e-001
3.262966e+003, 1.455675e-001
3.264894e+003, 1.464901e-001
3.266823e+003, 1.471788e-001
3.268751e+003, 1.476643e-001
3.270679e+003, 1.475943e-001
3.272608e+003, 1.474419e-001
3.274536e+003, 1.465535e-001
3.276465e+003, 1.456839e-001
3.278393e+003, 1.445329e-001
3.280322e+003, 1.427075e-001
3.282250e+003, 1.405927e-001
3.284179e+003, 1.384056e-001
3.286107e+003, 1.353881e-001
3.288036e+003, 1.322557e-001
3.289964e+003, 1.293791e-001
3.291893e+003, 1.260069e-001
3.293821e+003, 1.226649e-001
3.295750e+003, 1.195126e-001
3.297678e+003, 1.165531e-001
3.299606e+003, 1.138326e-001
3.301535e+003, 1.107618e-001
3.303463e+003, 1.079747e-001
3.305392e+003, 1.055177e-001
3.307320e+003, 1.032440e-001
3.309249e+003, 1.010121e-001
3.311177e+003, 9.926865e-002
3.313106e+003, 9.744490e-002
3.315034e+003, 9.538436e-002
3.316963e+003, 9.382698e-002
3.318891e+003, 9.219532e-002
3.320820e+003, 9.046036e-002
3.322748e+003, 8.903381e-002
3.324677e+003, 8.851354e-002
3.326605e+003, 8.811923e-002
3.328533e+003, 8.692943e-002
3.330462e+003, 8.596244e-002
3.332390e+003, 8.481970e-002
3.334319e+003, 8.392031e-002
3.336247e+003, 8.335736e-002
3.338176e+003, 8.279712e-002
3.340104e+003, 8.256466e-002
3.342033e+003, 8.241913e-002
3.343961e+003, 8.194359e-002
3.345890e+003, 8.111324e-002
3.347818e+003, 8.039588e-002
3.349747e+003, 8.081461e-002
3.351675e+003, 8.156129e-002
3.353604e+003, 8.163191e-002
3.355532e+003, 8.185556e-002
3.357460e+003, 8.219489e-002
3.359389e+003, 8.226866e-002
3.361317e+003, 8.264641e-002
3.363246e+003, 8.318727e-002
3.365174e+003, 8.371291e-002
3.367103e+003, 8.357349e-002
3.369031e+003, 8.366445e-002
3.370960e+003, 8.431937e-002
3.372888e+003, 8.482908e-002
3.374817e+003, 8.474306e-002
3.376745e+003, 8.462573e-002
3.378674e+003, 8.447099e-002
3.380602e+003, 8.418544e-002
3.382531e+003, 8.378094e-002
3.384459e+003, 8.314724e-002
3.386387e+003, 8.255938e-002
3.388316e+003, 8.140072e-002
3.390244e+003, 7.978148e-002
3.392173e+003, 7.844411e-002
3.394101e+003, 7.738802e-002
3.396030e+003, 7.598875e-002
3.397958e+003, 7.458142e-002
3.399887e+003, 7.310096e-002
3.401815e+003, 7.150925e-002
3.403744e+003, 7.035670e-002
3.405672e+003, 6.900098e-002
3.407601e+003, 6.767949e-002
3.409529e+003, 6.628048e-002
3.411458e+003, 6.531421e-002
3.413386e+003, 6.415189e-002
3.415314e+003, 6.324874e-002
3.417243e+003, 6.236980e-002
3.419171e+003, 6.089977e-002
3.421100e+003, 5.979628e-002
3.423028e+003, 5.909276e-002
3.424957e+003, 5.862661e-002
3.426885e+003, 5.839917e-002
3.428814e+003, 5.787216e-002
3.430742e+003, 5.725696e-002
3.432671e+003, 5.679633e-002
3.434599e+003, 5.693672e-002
3.436528e+003, 5.670038e-002
3.438456e+003, 5.614093e-002
3.440385e+003, 5.567168e-002
3.442313e+003, 5.550397e-002
3.444241e+003, 5.602342e-002
3.446170e+003, 5.695724e-002
3.448098e+003, 5.716151e-002
3.450027e+003, 5.756093e-002
3.451955e+003, 5.834274e-002
3.453884e+003, 5.871930e-002
3.455812e+003, 5.935457e-002
3.457741e+003, 6.044927e-002
3.459669e+003, 6.168051e-002
3.461598e+003, 6.309488e-002
3.463526e+003, 6.450919e-002
3.465455e+003, 6.569513e-002
3.467383e+003, 6.761342e-002
3.469312e+003, 7.020368e-002
3.471240e+003, 7.200359e-002
3.473168e+003, 7.345686e-002
3.475097e+003, 7.460860e-002
3.477025e+003, 7.564551e-002
3.478954e+003, 7.628987e-002
3.480882e+003, 7.570279e-002
3.482811e+003, 7.451799e-002
3.484739e+003, 7.268666e-002
3.486668e+003, 7.022558e-002
3.488596e+003, 6.768909e-002
3.490525e+003, 6.539008e-002
3.492453e+003, 6.400034e-002
3.494382e+003, 6.348744e-002
3.496310e+003, 6.312617e-002
3.498239e+003, 6.312749e-002
3.500167e+003, 6.395345e-002
3.502095e+003, 6.506962e-002
3.504024e+003, 6.709048e-002
3.505952e+003, 6.860173e-002
3.507881e+003, 6.965646e-002
3.509809e+003, 7.094055e-002
3.511738e+003, 7.155386e-002
3.513666e+003, 7.205268e-002
3.515595e+003, 7.236208e-002
3.517523e+003, 7.175419e-002
3.519452e+003, 7.060841e-002
3.521380e+003, 6.862333e-002
3.523309e+003, 6.605534e-002
3.525237e+003, 6.334370e-002
3.527166e+003, 6.090563e-002
3.529094e+003, 5.812714e-002
3.531022e+003, 5.548248e-002
3.532951e+003, 5.301780e-002
3.534879e+003, 5.036901e-002
3.536808e+003, 4.810340e-002
3.538736e+003, 4.598985e-002
3.540665e+003, 4.338815e-002
3.542593e+003, 4.107590e-002
3.544522e+003, 3.870229e-002
3.546450e+003, 3.696335e-002
3.548379e+003, 3.554525e-002
3.550307e+003, 3.426775e-002
3.552236e+003, 3.227983e-002
3.554164e+003, 3.019975e-002
3.556093e+003, 2.790307e-002
3.558021e+003, 2.622702e-002
3.559949e+003, 2.502671e-002
3.561878e+003, 2.370523e-002
3.563806e+003, 2.252099e-002
3.565735e+003, 2.135101e-002
3.567663e+003, 1.978083e-002
3.569592e+003, 1.806850e-002
3.571520e+003, 1.640993e-002
3.573449e+003, 1.522895e-002
3.575377e+003, 1.430942e-002
3.577306e+003, 1.283205e-002
3.579234e+003, 1.119790e-002
3.581163e+003, 1.005758e-002
3.583091e+003, 9.300074e-003
3.585020e+003, 8.907291e-003
3.586948e+003, 8.047358e-003
3.588876e+003, 6.861964e-003
3.590805e+003, 5.361697e-003
3.592733e+003, 4.916309e-003
3.594662e+003, 4.669569e-003
3.596590e+003, 3.661546e-003
3.598519e+003, 2.508118e-003
3.600447e+003, 2.129015e-003
3.602376e+003, 1.560463e-003
3.604304e+003, 7.856145e-004
3.606233e+003, 5.152481e-004
3.608161e+003, 3.710184e-004
3.610090e+003, -2.855224e-004
3.612018e+003, -1.088403e-003
3.613947e+003, -1.511133e-003
3.615875e+003, -1.961471e-003
3.617803e+003, -2.097124e-003
3.619732e+003, -2.506895e-003
3.621660e+003, -3.139533e-003
3.623589e+003, -3.138235e-003
3.625517e+003, -3.725119e-003
3.627446e+003, -3.579656e-003
3.629374e+003, -3.838453e-003
3.631303e+003, -4.834273e-003
3.633231e+003, -5.198075e-003
3.635160e+003, -5.294636e-003
3.637088e+003, -5.540677e-003
3.639017e+003, -6.047243e-003
3.640945e+003, -6.439698e-003
3.642874e+003, -6.366569e-003
3.644802e+003, -6.354710e-003
3.646730e+003, -6.591319e-003
3.648659e+003, -6.030710e-003
3.650587e+003, -6.280452e-003
3.652516e+003, -7.713031e-003
3.654444e+003, -8.122691e-003
3.656373e+003, -8.185348e-003
3.658301e+003, -8.312709e-003
3.660230e+003, -7.853427e-003
3.662158e+003, -8.166559e-003
3.664087e+003, -8.390583e-003
3.666015e+003, -8.679440e-003
3.667944e+003, -8.226612e-003
3.669872e+003, -7.329132e-003
3.671801e+003, -8.270685e-003
3.673729e+003, -8.374226e-003
3.675657e+003, -7.981854e-003
3.677586e+003, -8.659564e-003
3.679514e+003, -8.790727e-003
3.681443e+003, -9.043803e-003
3.683371e+003, -9.944285e-003
3.685300e+003, -1.006919e-002
3.687228e+003, -8.706649e-003
3.689157e+003, -8.629670e-003
3.691085e+003, -9.974998e-003
3.693014e+003, -9.827869e-003
3.694942e+003, -1.009780e-002
3.696871e+003, -1.035006e-002
3.698799e+003, -9.186107e-003
3.700728e+003, -8.867936e-003
3.702656e+003, -9.477766e-003
3.704584e+003, -9.745068e-003
3.706513e+003, -9.891535e-003
3.708441e+003, -1.006328e-002
3.710370e+003, -9.672910e-003
3.712298e+003, -9.311634e-003
3.714227e+003, -9.560712e-003
3.716155e+003, -9.533775e-003
3.718084e+003, -9.705060e-003
3.720012e+003, -9.496687e-003
3.721941e+003, -9.767182e-003
3.723869e+003, -1.046750e-002
3.725798e+003, -1.024702e-002
3.727726e+003, -1.004726e-002
3.729655e+003, -1.020933e-002
3.731583e+003, -1.008895e-002
3.733511e+003, -9.929093e-003
3.735440e+003, -9.517929e-003
3.737368e+003, -9.764246e-003
3.739297e+003, -1.039049e-002
3.741225e+003, -1.026270e-002
3.743154e+003, -9.150923e-003
3.745082e+003, -8.959687e-003
3.747011e+003, -9.998788e-003
3.748939e+003, -1.011122e-002
3.750868e+003, -1.047321e-002
3.752796e+003, -1.049651e-002
3.754725e+003, -1.111094e-002
3.756653e+003, -1.116759e-002
3.758582e+003, -1.089192e-002
3.760510e+003, -1.057111e-002
3.762438e+003, -1.027107e-002
3.764367e+003, -1.044898e-002
3.766295e+003, -1.050729e-002
3.768224e+003, -1.027633e-002
3.770152e+003, -1.021295e-002
3.772081e+003, -9.708856e-003
3.774009e+003, -9.569878e-003
3.775938e+003, -1.003492e-002
3.777866e+003, -1.030340e-002
3.779795e+003, -1.035335e-002
3.781723e+003, -1.046770e-002
3.783652e+003, -1.003687e-002
3.785580e+003, -1.030188e-002
3.787509e+003, -1.078720e-002
3.789437e+003, -1.052449e-002
3.791365e+003, -1.030964e-002
3.793294e+003, -1.107561e-002
3.795222e+003, -1.082616e-002
3.797151e+003, -1.008468e-002
3.799079e+003, -9.383528e-003
3.801008e+003, -8.737487e-003
3.802936e+003, -9.687963e-003
3.804865e+003, -9.894141e-003
3.806793e+003, -9.676219e-003
3.808722e+003, -1.081815e-002
3.810650e+003, -1.067047e-002
3.812579e+003, -1.035125e-002
3.814507e+003, -9.717559e-003
3.816436e+003, -9.225945e-003
3.818364e+003, -9.916766e-003
3.820292e+003, -9.381013e-003
3.822221e+003, -9.320631e-003
3.824149e+003, -9.849914e-003
3.826078e+003, -1.041785e-002
3.828006e+003, -1.079967e-002
3.829935e+003, -1.016273e-002
3.831863e+003, -9.646338e-003
3.833792e+003, -9.370415e-003
3.835720e+003, -9.426806e-003
3.837649e+003, -9.278674e-003
3.839577e+003, -9.659785e-003
3.841506e+003, -1.063992e-002
3.843434e+003, -1.080999e-002
3.845363e+003, -1.060273e-002
3.847291e+003, -1.116807e-002
3.849219e+003, -1.095826e-002
3.851148e+003, -9.486596e-003
3.853076e+003, -8.168670e-003
3.855005e+003, -8.713136e-003
3.856933e+003, -1.007953e-002
3.858862e+003, -1.047558e-002
3.860790e+003, -1.053177e-002
3.862719e+003, -1.013494e-002
3.864647e+003, -9.903741e-003
3.866576e+003, -1.028969e-002
3.868504e+003, -9.802482e-003
3.870433e+003, -9.999476e-003
3.872361e+003, -1.152156e-002
3.874290e+003, -1.157038e-002
3.876218e+003, -1.095328e-002
3.878146e+003, -1.060798e-002
3.880075e+003, -1.111959e-002
3.882003e+003, -1.127549e-002
3.883932e+003, -1.058399e-002
3.885860e+003, -1.026356e-002
3.887789e+003, -1.023252e-002
3.889717e+003, -1.022771e-002
3.891646e+003, -1.045013e-002
3.893574e+003, -1.033861e-002
3.895503e+003, -1.071532e-002
3.897431e+003, -1.099686e-002
3.899360e+003, -1.021266e-002
3.901288e+003, -9.983690e-003
3.903217e+003, -1.071885e-002
3.905145e+003, -1.088330e-002
3.907073e+003, -1.120415e-002
3.909002e+003, -1.087303e-002
3.910930e+003, -1.034922e-002
3.912859e+003, -1.024555e-002
3.914787e+003, -1.026785e-002
3.916716e+003, -1.049461e-002
3.918644e+003, -1.040348e-002
3.920573e+003, -1.046822e-002
3.922501e+003, -1.081743e-002
3.924430e+003, -1.068149e-002
3.926358e+003, -1.043434e-002
3.928287e+003, -1.099743e-002
3.930215e+003, -1.101121e-002
3.932144e+003, -1.087989e-002
3.934072e+003, -1.108698e-002
3.936000e+003, -1.081003e-002
3.937929e+003, -1.051200e-002
3.939857e+003, -1.023348e-002
3.941786e+003, -9.991764e-003
3.943714e+003, -1.034410e-002
3.945643e+003, -1.113385e-002
3.947571e+003, -1.113770e-002
3.949500e+003, -1.065262e-002
3.951428e+003, -1.043513e-002
3.953357e+003, -1.106308e-002
3.955285e+003, -1.156306e-002
3.957214e+003, -1.129853e-002
3.959142e+003, -1.027453e-002
3.961071e+003, -1.035764e-002
3.962999e+003, -1.134978e-002
3.964927e+003, -1.143031e-002
3.966856e+003, -1.111161e-002
3.968784e+003, -1.089929e-002
3.970713e+003, -1.132182e-002
3.972641e+003, -1.168974e-002
3.974570e+003, -1.161663e-002
3.976498e+003, -1.137382e-002
3.978427e+003, -1.148851e-002
3.980355e+003, -1.155602e-002
3.982284e+003, -1.123203e-002
3.984212e+003, -1.109354e-002
3.986141e+003, -1.066062e-002
3.988069e+003, -1.103461e-002
3.989998e+003, -1.182098e-002
3.991926e+003, -1.183756e-002
3.993854e+003, -1.129863e-002
3.995783e+003, -1.110698e-002
3.997711e+003, -1.117575e-002
3.999640e+003, -1.074125e-002
4.001568e+003, 0.000000e+000
##END=



