##NAMES=Pharmacolite
##RRUFFID=R050537
##IDEAL CHEMISTRY=Ca(As^5+^O_3_OH)&#183;2H_2_O
##LOCALITY=Bohemia Region, Svornost mine, Jachymov, Czech Republic
##OWNER=RRUFF
##SOURCE=University of Arizona Mineral Museum
##DESCRIPTION=Colorless acicular crystals
##STATUS=The identification of this mineral is confirmed by single-crystal X-ray diffraction and chemical analysis.
##URL=rruff.info/R050537
##MEASURED CHEMISTRY=(Ca_0.97_Al_0.02_[box]_0.01_)_Σ=1_((As_0.99_P_0.01_)_Σ=1_O_3_OH)·2H_2_O
399.1926, 0.1769278
401.1211, 0.1717636
403.0496, 0.1725894
404.9780, 0.1725454
406.9065, 0.1673604
408.8350, 0.1673943
410.7634, 0.1734198
412.6919, 0.1805961
414.6204, 0.1859355
416.5488, 0.1859034
418.4773, 0.1876199
420.4058, 0.1934130
422.3342, 0.2015905
424.2627, 0.2077450
426.1912, 0.2088931
428.1196, 0.2110048
430.0481, 0.2141352
431.9766, 0.2145252
433.9050, 0.2126737
435.8335, 0.2099247
437.7620, 0.2070335
439.6904, 0.2014711
441.6189, 0.1958295
443.5474, 0.1894822
445.4758, 0.1829018
447.4043, 0.1774722
449.3328, 0.1720209
451.2612, 0.1666384
453.1897, 0.1621037
455.1182, 0.1577934
457.0466, 0.1516842
458.9751, 0.1456279
460.9036, 0.1411839
462.8320, 0.1369181
464.7605, 0.1308102
466.6890, 0.1250677
468.6174, 0.1209306
470.5459, 0.1173373
472.4744, 0.1127825
474.4028, 0.1080954
476.3313, 0.1050200
478.2598, 0.1019229
480.1882, 9.9032030E-02
482.1167, 9.6292347E-02
484.0452, 9.4180711E-02
485.9736, 9.2358232E-02
487.9021, 9.1240533E-02
489.8306, 9.0258993E-02
491.7590, 8.9206353E-02
493.6875, 8.8065013E-02
495.6160, 8.7054178E-02
497.5444, 8.5729063E-02
499.4729, 8.4545791E-02
501.4014, 8.3512373E-02
503.3298, 8.2276233E-02
505.2583, 8.2142442E-02
507.1868, 8.2021013E-02
509.1152, 8.0869399E-02
511.0437, 7.9471603E-02
512.9722, 7.9005018E-02
514.9006, 7.8542411E-02
516.8291, 7.7486672E-02
518.7576, 7.7059358E-02
520.6860, 7.6744527E-02
522.6145, 7.5784832E-02
524.5430, 7.4510522E-02
526.4714, 7.4556068E-02
528.3999, 7.4717037E-02
530.3284, 7.4674010E-02
532.2568, 7.4509852E-02
534.1853, 7.4760087E-02
536.1138, 7.4571550E-02
538.0422, 7.4740700E-02
539.9707, 7.6010540E-02
541.8992, 7.7268310E-02
543.8276, 7.8420959E-02
545.7561, 7.9462782E-02
547.6846, 8.0525331E-02
549.6130, 8.2561657E-02
551.5415, 8.4650308E-02
553.4700, 8.6926661E-02
555.3984, 8.9732356E-02
557.3269, 9.2265658E-02
559.2554, 9.5328830E-02
561.1838, 9.8472297E-02
563.1123, 0.1013657
565.0408, 0.1041048
566.9692, 0.1072445
568.8977, 0.1104523
570.8262, 0.1128439
572.7546, 0.1155716
574.6831, 0.1180388
576.6116, 0.1202632
578.5400, 0.1222366
580.4685, 0.1239898
582.3970, 0.1252715
584.3254, 0.1256467
586.2539, 0.1256174
588.1824, 0.1258792
590.1108, 0.1262837
592.0393, 0.1266759
593.9678, 0.1274507
595.8962, 0.1288787
597.8247, 0.1292020
599.7532, 0.1296896
601.6816, 0.1310867
603.6101, 0.1324306
605.5386, 0.1342750
607.4670, 0.1367294
609.3955, 0.1398485
611.3240, 0.1432783
613.2524, 0.1462876
615.1809, 0.1487794
617.1094, 0.1520552
619.0378, 0.1554782
620.9663, 0.1585179
622.8948, 0.1622430
624.8232, 0.1661157
626.7517, 0.1690963
628.6802, 0.1715879
630.6086, 0.1744663
632.5371, 0.1772284
634.4656, 0.1794039
636.3940, 0.1817976
638.3225, 0.1842607
640.2510, 0.1858021
642.1794, 0.1875592
644.1079, 0.1904610
646.0364, 0.1936204
647.9648, 0.1961071
649.8933, 0.1988042
651.8218, 0.2023628
653.7502, 0.2070013
655.6787, 0.2118306
657.6072, 0.2167178
659.5356, 0.2216503
661.4641, 0.2264201
663.3926, 0.2318390
665.3210, 0.2375621
667.2495, 0.2421242
669.1780, 0.2460851
671.1064, 0.2490648
673.0349, 0.2510261
674.9634, 0.2527037
676.8918, 0.2545157
678.8203, 0.2558144
680.7488, 0.2566522
682.6772, 0.2576865
684.6057, 0.2576772
686.5342, 0.2575022
688.4626, 0.2578745
690.3911, 0.2567917
692.3196, 0.2547753
694.2480, 0.2520370
696.1765, 0.2480221
698.1050, 0.2430804
700.0334, 0.2380475
701.9619, 0.2330653
703.8904, 0.2270713
705.8188, 0.2207983
707.7473, 0.2144847
709.6758, 0.2081369
711.6042, 0.2023452
713.5327, 0.1972296
715.4612, 0.1922234
717.3896, 0.1877733
719.3181, 0.1832056
721.2466, 0.1786842
723.1750, 0.1749885
725.1035, 0.1715658
727.0320, 0.1682388
728.9604, 0.1651284
730.8889, 0.1624172
732.8174, 0.1593830
734.7458, 0.1556432
736.6743, 0.1521743
738.6028, 0.1491015
740.5313, 0.1453764
742.4597, 0.1417804
744.3882, 0.1391886
746.3167, 0.1369156
748.2451, 0.1340813
750.1736, 0.1311293
752.1021, 0.1283693
754.0305, 0.1261460
755.9590, 0.1242591
757.8875, 0.1219142
759.8159, 0.1194850
761.7444, 0.1173550
763.6729, 0.1154874
765.6013, 0.1141114
767.5298, 0.1131208
769.4583, 0.1124744
771.3867, 0.1117771
773.3152, 0.1113350
775.2437, 0.1110573
777.1721, 0.1115643
779.1006, 0.1126252
781.0291, 0.1134865
782.9575, 0.1144342
784.8860, 0.1164236
786.8145, 0.1190606
788.7429, 0.1219778
790.6714, 0.1259550
792.5999, 0.1308398
794.5283, 0.1362747
796.4568, 0.1427335
798.3853, 0.1504088
800.3137, 0.1590913
802.2422, 0.1680748
804.1707, 0.1766949
806.0991, 0.1848581
808.0276, 0.1927303
809.9561, 0.1992154
811.8845, 0.2037367
813.8130, 0.2075053
815.7415, 0.2102253
817.6699, 0.2117266
819.5984, 0.2132362
821.5269, 0.2151196
823.4553, 0.2162148
825.3838, 0.2172337
827.3123, 0.2193627
829.2407, 0.2225108
831.1692, 0.2261343
833.0977, 0.2298040
835.0261, 0.2344954
836.9546, 0.2395944
838.8831, 0.2451381
840.8115, 0.2507972
842.7400, 0.2572663
844.6685, 0.2642652
846.5969, 0.2706768
848.5254, 0.2767425
850.4539, 0.2830295
852.3823, 0.2885244
854.3108, 0.2919496
856.2393, 0.2935995
858.1677, 0.2933362
860.0962, 0.2905895
862.0247, 0.2851025
863.9531, 0.2768386
865.8816, 0.2663888
867.8101, 0.2549577
869.7385, 0.2436718
871.6670, 0.2334041
873.5955, 0.2248640
875.5239, 0.2181934
877.4524, 0.2132881
879.3809, 0.2089919
881.3093, 0.2046544
883.2378, 0.1999542
885.1663, 0.1948897
887.0947, 0.1889535
889.0232, 0.1823455
890.9517, 0.1752511
892.8801, 0.1681672
894.8085, 0.1604879
896.7370, 0.1526057
898.6655, 0.1447669
900.5939, 0.1370093
902.5224, 0.1299420
904.4509, 0.1232940
906.3793, 0.1169212
908.3078, 0.1111648
910.2363, 0.1056997
912.1647, 0.1007613
914.0932, 9.6693844E-02
916.0217, 9.3159392E-02
917.9501, 9.0054654E-02
919.8786, 8.7213702E-02
921.8071, 8.4624931E-02
923.7355, 8.2128912E-02
925.6640, 8.0163479E-02
927.5925, 7.8578234E-02
929.5209, 7.7038527E-02
931.4494, 7.5929299E-02
933.3779, 7.5028040E-02
935.3063, 7.3933557E-02
937.2348, 7.3089384E-02
939.1633, 7.2283089E-02
941.0917, 7.1581811E-02
943.0202, 7.1221553E-02
944.9487, 7.0839427E-02
946.8771, 7.0479468E-02
948.8056, 7.0136108E-02
950.7341, 6.9929317E-02
952.6625, 6.9409378E-02
954.5910, 6.8450943E-02
956.5195, 6.7490250E-02
958.4479, 6.6712677E-02
960.3764, 6.5912090E-02
962.3049, 6.4723000E-02
964.2333, 6.3087568E-02
966.1618, 6.1489150E-02
968.0903, 5.9999429E-02
970.0187, 5.7998139E-02
971.9472, 5.6090411E-02
973.8757, 5.4121319E-02
975.8041, 5.1875141E-02
977.7326, 4.9784329E-02
979.6611, 4.7632430E-02
981.5895, 4.5580529E-02
983.5180, 4.3660089E-02
985.4465, 4.2032018E-02
987.3749, 4.0284641E-02
989.3034, 3.8393110E-02
991.2319, 3.6882378E-02
993.1603, 3.5469271E-02
995.0888, 3.4050889E-02
997.0173, 3.3013649E-02
998.9457, 3.2171261E-02
1000.874, 3.1140490E-02
1002.803, 3.0231560E-02
1004.731, 2.9118281E-02
1006.660, 2.7975440E-02
1008.588, 2.7197080E-02
1010.517, 2.6494220E-02
1012.445, 2.5837330E-02
1014.373, 2.5566930E-02
1016.302, 2.5032811E-02
1018.230, 2.4587650E-02
1020.159, 2.4424400E-02
1022.087, 2.4104429E-02
1024.016, 2.3532961E-02
1025.944, 2.2920759E-02
1027.873, 2.2542169E-02
1029.801, 2.2501210E-02
1031.730, 2.2408551E-02
1033.658, 2.1958729E-02
1035.587, 2.1576500E-02
1037.515, 2.1456029E-02
1039.444, 2.1347189E-02
1041.372, 2.1337420E-02
1043.301, 2.1052750E-02
1045.229, 2.0822810E-02
1047.157, 2.0500951E-02
1049.086, 2.0200940E-02
1051.014, 2.0251140E-02
1052.943, 2.0182760E-02
1054.871, 1.9983631E-02
1056.800, 1.9961569E-02
1058.728, 1.9895930E-02
1060.657, 1.9717719E-02
1062.585, 1.9593490E-02
1064.514, 1.9498089E-02
1066.442, 1.9410141E-02
1068.371, 1.9157730E-02
1070.299, 1.8941540E-02
1072.228, 1.8722260E-02
1074.156, 1.8612269E-02
1076.084, 1.8631950E-02
1078.013, 1.8733149E-02
1079.941, 1.8855421E-02
1081.870, 1.8860100E-02
1083.798, 1.8818250E-02
1085.727, 1.8702740E-02
1087.655, 1.8761341E-02
1089.584, 1.8870311E-02
1091.512, 1.8787690E-02
1093.441, 1.8915050E-02
1095.369, 1.9118549E-02
1097.298, 1.9119021E-02
1099.226, 1.8868931E-02
1101.155, 1.8747151E-02
1103.083, 1.8878520E-02
1105.011, 1.8982019E-02
1106.940, 1.9079451E-02
1108.868, 1.9004440E-02
1110.797, 1.9221909E-02
1112.725, 1.9690990E-02
1114.654, 1.9676730E-02
1116.582, 1.9473670E-02
1118.511, 1.9554481E-02
1120.439, 1.9676751E-02
1122.368, 1.9903380E-02
1124.296, 1.9808769E-02
1126.225, 1.9732080E-02
1128.153, 2.0018360E-02
1130.082, 2.0241329E-02
1132.010, 2.0498641E-02
1133.938, 2.0848330E-02
1135.867, 2.0890219E-02
1137.795, 2.0891240E-02
1139.724, 2.0986730E-02
1141.652, 2.1234181E-02
1143.581, 2.1358481E-02
1145.509, 2.1264000E-02
1147.438, 2.1455130E-02
1149.366, 2.1814650E-02
1151.295, 2.1937620E-02
1153.223, 2.1973560E-02
1155.152, 2.2155700E-02
1157.080, 2.2298601E-02
1159.009, 2.2654019E-02
1160.937, 2.2863030E-02
1162.865, 2.3071099E-02
1164.794, 2.3275061E-02
1166.722, 2.3370391E-02
1168.651, 2.3551980E-02
1170.579, 2.3753179E-02
1172.508, 2.3841931E-02
1174.436, 2.3988331E-02
1176.365, 2.4252269E-02
1178.293, 2.4599280E-02
1180.222, 2.4890430E-02
1182.150, 2.5111759E-02
1184.079, 2.5649549E-02
1186.007, 2.6197800E-02
1187.936, 2.6227800E-02
1189.864, 2.6308671E-02
1191.792, 2.6875790E-02
1193.721, 2.7483501E-02
1195.649, 2.7955299E-02
1197.578, 2.8088210E-02
1199.506, 2.8067371E-02
1201.435, 2.8356260E-02
1203.363, 2.8986139E-02
1205.292, 2.9756900E-02
1207.220, 3.0315040E-02
1209.149, 3.0639620E-02
1211.077, 3.1379100E-02
1213.006, 3.2363940E-02
1214.934, 3.3557720E-02
1216.863, 3.4694958E-02
1218.791, 3.5934620E-02
1220.719, 3.7322629E-02
1222.648, 3.9104860E-02
1224.576, 4.1081071E-02
1226.505, 4.3366250E-02
1228.433, 4.6104819E-02
1230.362, 4.9107801E-02
1232.290, 5.1994540E-02
1234.219, 5.4755751E-02
1236.147, 5.7260752E-02
1238.076, 5.9202999E-02
1240.004, 6.0349021E-02
1241.933, 6.0200538E-02
1243.861, 5.9399180E-02
1245.790, 5.7969369E-02
1247.718, 5.5602241E-02
1249.646, 5.2741870E-02
1251.575, 4.9803171E-02
1253.503, 4.7073308E-02
1255.432, 4.4618901E-02
1257.360, 4.2335369E-02
1259.289, 4.0057279E-02
1261.217, 3.8074911E-02
1263.146, 3.6477659E-02
1265.074, 3.5168979E-02
1267.003, 3.4006398E-02
1268.931, 3.3003610E-02
1270.860, 3.2041311E-02
1272.788, 3.1383108E-02
1274.717, 3.1011229E-02
1276.645, 3.0498089E-02
1278.573, 2.9726369E-02
1280.502, 2.9146550E-02
1282.430, 2.9038040E-02
1284.359, 2.8986091E-02
1286.287, 2.8635951E-02
1288.216, 2.8518640E-02
1290.144, 2.8524490E-02
1292.073, 2.8288810E-02
1294.001, 2.7859559E-02
1295.930, 2.7685661E-02
1297.858, 2.7778540E-02
1299.787, 2.7708940E-02
1301.715, 2.7775420E-02
1303.644, 2.7672350E-02
1305.572, 2.7694300E-02
1307.500, 2.7494980E-02
1309.429, 2.7520040E-02
1311.357, 2.7649241E-02
1313.286, 2.7402740E-02
1315.214, 2.7377000E-02
1317.143, 2.7369671E-02
1319.071, 2.7451141E-02
1321.000, 2.7525069E-02
1322.928, 2.7433190E-02
1324.857, 2.7359189E-02
1326.785, 2.7561679E-02
1328.714, 2.7774731E-02
1330.642, 2.7854180E-02
1332.571, 2.7826989E-02
1334.499, 2.7595781E-02
1336.427, 2.7636031E-02
1338.356, 2.7608469E-02
1340.284, 2.7491940E-02
1342.213, 2.7670590E-02
1344.141, 2.7723061E-02
1346.070, 2.7734250E-02
1347.998, 2.7710579E-02
1349.927, 2.7332190E-02
1351.855, 2.7331211E-02
1353.784, 2.7765270E-02
1355.712, 2.7969901E-02
1357.641, 2.7928600E-02
1359.569, 2.7806479E-02
1361.498, 2.7754851E-02
1363.426, 2.8053060E-02
1365.354, 2.8421320E-02
1367.283, 2.8391071E-02
1369.211, 2.8237039E-02
1371.140, 2.8041219E-02
1373.068, 2.8296780E-02
1374.997, 2.8618069E-02
1376.925, 2.8598281E-02
1378.854, 2.8743351E-02
1380.782, 2.8876631E-02
1382.711, 2.9118091E-02
1384.639, 2.9315380E-02
1386.568, 2.9350080E-02
1388.496, 2.9534141E-02
1390.424, 2.9605011E-02
1392.353, 2.9701849E-02
1394.281, 2.9768219E-02
1396.210, 3.0082740E-02
1398.138, 3.0331610E-02
1400.067, 3.0091889E-02
1401.995, 3.0082090E-02
1403.924, 3.0380899E-02
1405.852, 3.0313071E-02
1407.781, 3.0402681E-02
1409.709, 3.0735951E-02
1411.638, 3.0870469E-02
1413.566, 3.1067520E-02
1415.495, 3.1321101E-02
1417.423, 3.1330161E-02
1419.351, 3.1404462E-02
1421.280, 3.1562250E-02
1423.208, 3.1545669E-02
1425.137, 3.1842899E-02
1427.065, 3.2040529E-02
1428.994, 3.2380521E-02
1430.922, 3.2573789E-02
1432.851, 3.2698691E-02
1434.779, 3.3107080E-02
1436.708, 3.3418149E-02
1438.636, 3.3460841E-02
1440.565, 3.3595391E-02
1442.493, 3.3832029E-02
1444.422, 3.4024939E-02
1446.350, 3.4116771E-02
1448.278, 3.4218039E-02
1450.207, 3.4364220E-02
1452.135, 3.4469929E-02
1454.064, 3.4616571E-02
1455.992, 3.4686700E-02
1457.921, 3.4609761E-02
1459.849, 3.4644511E-02
1461.778, 3.4821700E-02
1463.706, 3.5088651E-02
1465.635, 3.5345729E-02
1467.563, 3.5571299E-02
1469.492, 3.6036599E-02
1471.420, 3.6433790E-02
1473.349, 3.6813680E-02
1475.277, 3.7331659E-02
1477.205, 3.7812740E-02
1479.134, 3.8162019E-02
1481.062, 3.8192611E-02
1482.991, 3.8297512E-02
1484.919, 3.8745791E-02
1486.848, 3.9116312E-02
1488.776, 3.9641891E-02
1490.705, 3.9930660E-02
1492.633, 4.0079370E-02
1494.562, 4.0146850E-02
1496.490, 4.0658370E-02
1498.419, 4.1249570E-02
1500.347, 4.1606210E-02
1502.276, 4.1690260E-02
1504.204, 4.2049021E-02
1506.132, 4.2611670E-02
1508.061, 4.2987470E-02
1509.989, 4.3209739E-02
1511.918, 4.3413851E-02
1513.846, 4.3896031E-02
1515.775, 4.4559650E-02
1517.703, 4.4814229E-02
1519.632, 4.4895530E-02
1521.560, 4.5355041E-02
1523.489, 4.5801912E-02
1525.417, 4.6214279E-02
1527.346, 4.6803400E-02
1529.274, 4.6950810E-02
1531.203, 4.6843950E-02
1533.131, 4.7269821E-02
1535.059, 4.7852110E-02
1536.988, 4.8138142E-02
1538.916, 4.8392959E-02
1540.845, 4.8674121E-02
1542.773, 4.9124591E-02
1544.702, 4.9424130E-02
1546.630, 4.9620401E-02
1548.559, 4.9949091E-02
1550.487, 4.9806971E-02
1552.416, 4.9825549E-02
1554.344, 5.0481331E-02
1556.273, 5.1096670E-02
1558.201, 5.2024748E-02
1560.130, 5.2428462E-02
1562.058, 5.2336369E-02
1563.986, 5.2568819E-02
1565.915, 5.2681360E-02
1567.843, 5.3021960E-02
1569.772, 5.3849060E-02
1571.700, 5.4358151E-02
1573.629, 5.4718621E-02
1575.557, 5.5602569E-02
1577.486, 5.6258500E-02
1579.414, 5.6466419E-02
1581.343, 5.6808840E-02
1583.271, 5.7453498E-02
1585.200, 5.8131989E-02
1587.128, 5.8921851E-02
1589.057, 5.9738319E-02
1590.985, 6.0597211E-02
1592.913, 6.1598349E-02
1594.842, 6.2736608E-02
1596.770, 6.4010963E-02
1598.699, 6.5065451E-02
1600.627, 6.6041209E-02
1602.556, 6.7389540E-02
1604.484, 6.9131963E-02
1606.413, 7.0593253E-02
1608.341, 7.1976677E-02
1610.270, 7.3142096E-02
1612.198, 7.4294724E-02
1614.127, 7.5751722E-02
1616.055, 7.7144071E-02
1617.984, 7.7575088E-02
1619.912, 7.7886723E-02
1621.840, 7.8625277E-02
1623.769, 7.9144269E-02
1625.697, 7.9242662E-02
1627.626, 7.9589278E-02
1629.554, 8.0095582E-02
1631.483, 8.0106951E-02
1633.411, 8.0186673E-02
1635.340, 8.0027789E-02
1637.268, 7.9618923E-02
1639.197, 7.9856873E-02
1641.125, 8.0389671E-02
1643.054, 8.0470003E-02
1644.982, 8.0839276E-02
1646.911, 8.1193022E-02
1648.839, 8.1134804E-02
1650.767, 8.1575647E-02
1652.696, 8.2656443E-02
1654.624, 8.3242171E-02
1656.553, 8.3028212E-02
1658.481, 8.3190568E-02
1660.410, 8.4121108E-02
1662.338, 8.5025631E-02
1664.267, 8.5884370E-02
1666.195, 8.6572841E-02
1668.124, 8.6574443E-02
1670.052, 8.6051263E-02
1671.981, 8.5132830E-02
1673.909, 8.3791927E-02
1675.838, 8.1927009E-02
1677.766, 7.9865403E-02
1679.694, 7.7919669E-02
1681.623, 7.6608650E-02
1683.551, 7.5629227E-02
1685.480, 7.4337482E-02
1687.408, 7.3254853E-02
1689.337, 7.2167233E-02
1691.265, 7.1112610E-02
1693.194, 7.0419557E-02
1695.122, 6.9160663E-02
1697.051, 6.7746550E-02
1698.979, 6.6545933E-02
1700.908, 6.4946808E-02
1702.836, 6.3123830E-02
1704.765, 6.1829571E-02
1706.693, 6.0549151E-02
1708.621, 5.8885969E-02
1710.550, 5.7317931E-02
1712.478, 5.6299500E-02
1714.407, 5.5539601E-02
1716.335, 5.4609381E-02
1718.264, 5.3433020E-02
1720.192, 5.2292231E-02
1722.121, 5.1658470E-02
1724.049, 5.0953612E-02
1725.978, 4.9988080E-02
1727.906, 4.9074579E-02
1729.835, 4.8451740E-02
1731.763, 4.7248531E-02
1733.692, 4.6186682E-02
1735.620, 4.5124669E-02
1737.548, 4.4576772E-02
1739.477, 4.3987259E-02
1741.405, 4.3161109E-02
1743.334, 4.2398889E-02
1745.262, 4.1988041E-02
1747.191, 4.2202111E-02
1749.119, 4.2321920E-02
1751.048, 4.2194139E-02
1752.976, 4.2013898E-02
1754.905, 4.2071920E-02
1756.833, 4.2089179E-02
1758.762, 4.1876230E-02
1760.690, 4.2298101E-02
1762.619, 4.2875439E-02
1764.547, 4.2785339E-02
1766.475, 4.2668968E-02
1768.404, 4.2748071E-02
1770.332, 4.2681091E-02
1772.261, 4.2765569E-02
1774.189, 4.2582761E-02
1776.118, 4.2317521E-02
1778.046, 4.1764610E-02
1779.975, 4.1435909E-02
1781.903, 4.1287221E-02
1783.832, 4.1317251E-02
1785.760, 4.0636230E-02
1787.689, 4.0520530E-02
1789.617, 4.1060630E-02
1791.546, 4.1416351E-02
1793.474, 4.1277248E-02
1795.402, 4.0175080E-02
1797.331, 3.9506901E-02
1799.259, 3.9237861E-02
1801.188, 3.9375119E-02
1803.116, 3.9790072E-02
1805.045, 3.9680980E-02
1806.973, 3.9193250E-02
1808.902, 3.9522190E-02
1810.830, 3.9558399E-02
1812.759, 3.8858268E-02
1814.687, 3.8412150E-02
1816.616, 3.8764909E-02
1818.544, 3.9332248E-02
1820.473, 3.9437171E-02
1822.401, 3.9266031E-02
1824.329, 3.9683651E-02
1826.258, 3.9747491E-02
1828.186, 3.9551109E-02
1830.115, 3.9495010E-02
1832.043, 3.9099742E-02
1833.972, 3.8679119E-02
1835.900, 3.8158860E-02
1837.829, 3.8039450E-02
1839.757, 3.8604829E-02
1841.686, 3.9099101E-02
1843.614, 3.8687039E-02
1845.543, 3.8443059E-02
1847.471, 3.8132008E-02
1849.400, 3.7470840E-02
1851.328, 3.7978861E-02
1853.256, 3.9184470E-02
1855.185, 3.9785478E-02
1857.113, 4.0319480E-02
1859.042, 4.0116809E-02
1860.970, 3.8819291E-02
1862.899, 3.8327210E-02
1864.827, 3.8425319E-02
1866.756, 3.8485620E-02
1868.684, 3.8664859E-02
1870.613, 3.8993038E-02
1872.541, 3.9007202E-02
1874.470, 3.9391689E-02
1876.398, 3.9204180E-02
1878.327, 3.8977560E-02
1880.255, 3.9281890E-02
1882.183, 3.9808661E-02
1884.112, 3.9510779E-02
1886.040, 3.9056610E-02
1887.969, 3.8896780E-02
1889.897, 3.9491281E-02
1891.826, 3.9609201E-02
1893.754, 3.8999140E-02
1895.683, 3.8643111E-02
1897.611, 3.8635500E-02
1899.540, 3.8931459E-02
1901.468, 3.8787790E-02
1903.397, 3.8645379E-02
1905.325, 3.8781319E-02
1907.254, 3.8576890E-02
1909.182, 3.8822498E-02
1911.110, 3.8250919E-02
1913.039, 3.7480909E-02
1914.967, 3.7610170E-02
1916.896, 3.7432369E-02
1918.824, 3.6927871E-02
1920.753, 3.7368830E-02
1922.681, 3.7173659E-02
1924.610, 3.6946692E-02
1926.538, 3.6264259E-02
1928.467, 3.6261920E-02
1930.395, 3.6228590E-02
1932.324, 3.5579290E-02
1934.252, 3.5158232E-02
1936.181, 3.5367500E-02
1938.109, 3.6596950E-02
1940.037, 3.7279211E-02
1941.966, 3.6857031E-02
1943.894, 3.6313221E-02
1945.823, 3.5498168E-02
1947.751, 3.5347071E-02
1949.680, 3.4506738E-02
1951.608, 3.5260931E-02
1953.537, 3.5895530E-02
1955.465, 3.6083601E-02
1957.394, 3.3661671E-02
1959.322, 3.1770959E-02
1961.251, 3.2019809E-02
1963.179, 3.2373250E-02
1965.108, 3.3952381E-02
1967.036, 3.2768160E-02
1968.964, 3.1713210E-02
1970.893, 3.2496311E-02
1972.821, 3.4929600E-02
1974.750, 3.4848768E-02
1976.678, 3.2122970E-02
1978.607, 3.3440359E-02
1980.535, 3.7396360E-02
1982.464, 3.7731681E-02
1984.392, 3.5167679E-02
1986.321, 3.2987121E-02
1988.249, 3.2106619E-02
1990.178, 3.3796709E-02
1992.106, 3.4184940E-02
1994.035, 3.2456130E-02
1995.963, 3.3466268E-02
1997.891, 3.4084119E-02
1999.820, 3.2535572E-02
2001.748, 3.2277521E-02
2003.677, 3.2592598E-02
2005.605, 3.0060770E-02
2007.534, 2.9007001E-02
2009.462, 3.1567711E-02
2011.391, 3.2833841E-02
2013.319, 3.0686690E-02
2015.248, 3.0864030E-02
2017.176, 3.2954790E-02
2019.105, 3.3513360E-02
2021.033, 3.1856898E-02
2022.962, 3.1593200E-02
2024.890, 3.1928129E-02
2026.818, 3.3200741E-02
2028.747, 3.3865821E-02
2030.675, 3.2662611E-02
2032.604, 3.3259921E-02
2034.532, 3.3719629E-02
2036.461, 3.3952940E-02
2038.389, 3.2508481E-02
2040.318, 3.2920200E-02
2042.246, 3.3710331E-02
2044.175, 3.3688061E-02
2046.103, 3.5620611E-02
2048.032, 3.6698371E-02
2049.960, 3.6973201E-02
2051.889, 3.5603020E-02
2053.817, 3.5896018E-02
2055.746, 3.8163990E-02
2057.674, 3.7690531E-02
2059.603, 3.6159638E-02
2061.531, 3.6527909E-02
2063.459, 3.7291288E-02
2065.388, 3.6172070E-02
2067.316, 3.7154939E-02
2069.245, 3.8498681E-02
2071.173, 3.8029350E-02
2073.102, 3.8233601E-02
2075.030, 3.9227501E-02
2076.959, 3.8678609E-02
2078.887, 3.8142320E-02
2080.816, 3.8345721E-02
2082.744, 3.9533149E-02
2084.673, 4.1538529E-02
2086.601, 4.1335151E-02
2088.530, 4.0728219E-02
2090.458, 4.0765829E-02
2092.386, 4.0796109E-02
2094.315, 4.0215041E-02
2096.243, 4.1221529E-02
2098.172, 4.0760219E-02
2100.100, 4.0378720E-02
2102.029, 4.0136490E-02
2103.957, 4.0528290E-02
2105.886, 4.0889058E-02
2107.814, 4.2302769E-02
2109.743, 4.3282930E-02
2111.671, 4.3058019E-02
2113.600, 4.3120239E-02
2115.528, 4.3616962E-02
2117.457, 4.3429121E-02
2119.385, 4.3653190E-02
2121.313, 4.3891039E-02
2123.242, 4.3843951E-02
2125.170, 4.3312021E-02
2127.099, 4.3222141E-02
2129.027, 4.3461829E-02
2130.956, 4.2587388E-02
2132.884, 4.1438852E-02
2134.813, 4.1632269E-02
2136.741, 4.3834519E-02
2138.670, 4.6258591E-02
2140.598, 4.4795800E-02
2142.527, 4.2381350E-02
2144.455, 4.3529250E-02
2146.384, 4.4163261E-02
2148.312, 4.2781319E-02
2150.240, 4.2330921E-02
2152.169, 4.3562401E-02
2154.097, 4.6951331E-02
2156.026, 4.7928251E-02
2157.954, 4.6363730E-02
2159.883, 5.0213099E-02
2161.811, 5.1679391E-02
2163.740, 5.0697580E-02
2165.668, 5.0880391E-02
2167.597, 5.0242189E-02
2169.525, 4.7886342E-02
2171.454, 4.7336660E-02
2173.382, 4.6062469E-02
2175.311, 4.6818729E-02
2177.239, 4.8481740E-02
2179.167, 5.0265402E-02
2181.096, 5.1091060E-02
2183.024, 5.1559329E-02
2184.953, 5.0929978E-02
2186.881, 5.1110491E-02
2188.810, 5.5048231E-02
2190.738, 5.6781601E-02
2192.667, 5.5530690E-02
2194.595, 5.3683881E-02
2196.524, 5.4746639E-02
2198.452, 5.7214070E-02
2200.381, 5.6684710E-02
2202.309, 5.4015718E-02
2204.238, 5.4282978E-02
2206.166, 5.6161799E-02
2208.094, 5.8945522E-02
2210.023, 6.0261570E-02
2211.951, 6.1110262E-02
2213.880, 6.0843159E-02
2215.808, 6.0866680E-02
2217.737, 5.9667509E-02
2219.665, 6.0157280E-02
2221.594, 6.1371241E-02
2223.522, 6.1176360E-02
2225.451, 6.0988430E-02
2227.379, 6.2935807E-02
2229.308, 6.4017467E-02
2231.236, 6.3380718E-02
2233.165, 6.3915201E-02
2235.093, 6.4095788E-02
2237.021, 6.3755102E-02
2238.950, 6.5493301E-02
2240.878, 6.6143729E-02
2242.807, 6.4715274E-02
2244.735, 6.5252252E-02
2246.664, 6.7410983E-02
2248.592, 6.7786083E-02
2250.521, 6.7738712E-02
2252.449, 6.7750208E-02
2254.378, 6.7225203E-02
2256.306, 6.8292081E-02
2258.235, 6.9556013E-02
2260.163, 6.9748953E-02
2262.092, 7.0550218E-02
2264.020, 7.1426541E-02
2265.948, 7.2600409E-02
2267.877, 7.2422117E-02
2269.805, 7.1935453E-02
2271.734, 7.3144741E-02
2273.662, 7.5596496E-02
2275.591, 7.5748697E-02
2277.519, 7.4625053E-02
2279.448, 7.4950524E-02
2281.376, 7.6391950E-02
2283.305, 7.6515861E-02
2285.233, 7.6451667E-02
2287.162, 7.7048369E-02
2289.090, 7.7823311E-02
2291.019, 7.8731410E-02
2292.947, 7.9093680E-02
2294.875, 7.8568630E-02
2296.804, 7.9445831E-02
2298.732, 8.0033869E-02
2300.661, 8.0448367E-02
2302.589, 8.0654740E-02
2304.518, 7.9891771E-02
2306.446, 8.0586150E-02
2308.375, 8.2876973E-02
2310.303, 8.3406188E-02
2312.232, 8.4536448E-02
2314.160, 8.5777998E-02
2316.089, 8.5356563E-02
2318.017, 8.5751593E-02
2319.946, 8.6928077E-02
2321.874, 8.7646231E-02
2323.802, 8.7790839E-02
2325.731, 8.6993501E-02
2327.659, 8.7134227E-02
2329.588, 8.7869972E-02
2331.516, 8.8491999E-02
2333.445, 8.9581609E-02
2335.373, 8.9967273E-02
2337.302, 8.9693971E-02
2339.230, 8.9865692E-02
2341.159, 8.9244664E-02
2343.087, 8.9583091E-02
2345.016, 9.0210959E-02
2346.944, 9.0754010E-02
2348.873, 9.1022491E-02
2350.801, 9.0894043E-02
2352.729, 9.0738043E-02
2354.658, 9.1776110E-02
2356.586, 9.1936693E-02
2358.515, 9.2091948E-02
2360.443, 9.2364423E-02
2362.372, 9.2890099E-02
2364.300, 9.3125038E-02
2366.229, 9.2639968E-02
2368.157, 9.2447318E-02
2370.086, 9.2740439E-02
2372.014, 9.2664719E-02
2373.942, 9.2140973E-02
2375.871, 9.1415308E-02
2377.799, 9.0688974E-02
2379.728, 9.1210790E-02
2381.656, 9.1411680E-02
2383.585, 9.1032073E-02
2385.513, 9.1194980E-02
2387.442, 9.1460139E-02
2389.370, 9.1808081E-02
2391.299, 9.2598647E-02
2393.227, 9.2888609E-02
2395.156, 9.2414454E-02
2397.084, 9.2323586E-02
2399.012, 9.2894658E-02
2400.941, 9.2750877E-02
2402.869, 9.2330687E-02
2404.798, 9.2943937E-02
2406.726, 9.2835188E-02
2408.655, 9.1922611E-02
2410.583, 9.2205077E-02
2412.512, 9.2401512E-02
2414.440, 9.2207953E-02
2416.369, 9.2007041E-02
2418.297, 9.2302486E-02
2420.226, 9.2318572E-02
2422.154, 9.2114583E-02
2424.083, 9.1114849E-02
2426.011, 8.9916483E-02
2427.939, 8.9529738E-02
2429.868, 8.9498743E-02
2431.796, 8.9008957E-02
2433.725, 8.7914951E-02
2435.653, 8.6541571E-02
2437.582, 8.5659049E-02
2439.510, 8.4624402E-02
2441.439, 8.3458841E-02
2443.367, 8.3187513E-02
2445.296, 8.2052007E-02
2447.224, 7.9858683E-02
2449.153, 7.8219607E-02
2451.081, 7.9034247E-02
2453.010, 7.8724273E-02
2454.938, 7.8106754E-02
2456.866, 7.8543343E-02
2458.795, 7.7028044E-02
2460.723, 7.5114243E-02
2462.652, 7.4445821E-02
2464.580, 7.4348457E-02
2466.509, 7.3673740E-02
2468.437, 7.3553592E-02
2470.366, 7.3593691E-02
2472.294, 7.2658896E-02
2474.223, 7.2642513E-02
2476.151, 7.2389558E-02
2478.080, 7.0199311E-02
2480.008, 7.0553698E-02
2481.937, 7.1452416E-02
2483.865, 7.0275009E-02
2485.793, 6.9951810E-02
2487.722, 7.0864327E-02
2489.650, 7.1674243E-02
2491.579, 7.0634767E-02
2493.507, 6.9816694E-02
2495.436, 6.9958597E-02
2497.364, 6.9938272E-02
2499.293, 6.9687940E-02
2501.221, 7.0004202E-02
2503.150, 7.0242368E-02
2505.078, 6.9662698E-02
2507.007, 6.9495574E-02
2508.935, 7.1260199E-02
2510.864, 7.1495824E-02
2512.792, 7.0160680E-02
2514.720, 6.9893353E-02
2516.649, 7.0477001E-02
2518.577, 7.0824333E-02
2520.506, 7.0292078E-02
2522.434, 6.9335073E-02
2524.363, 6.9798753E-02
2526.291, 7.1702398E-02
2528.220, 7.2729461E-02
2530.148, 7.2368413E-02
2532.077, 7.1681127E-02
2534.005, 7.1111627E-02
2535.934, 7.0434757E-02
2537.862, 7.0675947E-02
2539.791, 7.1793251E-02
2541.719, 7.2228022E-02
2543.647, 7.1751364E-02
2545.576, 7.3599033E-02
2547.504, 7.5101689E-02
2549.433, 7.4676961E-02
2551.361, 7.4696638E-02
2553.290, 7.4658260E-02
2555.218, 7.5232141E-02
2557.147, 7.5463839E-02
2559.075, 7.5582378E-02
2561.004, 7.5801112E-02
2562.932, 7.6627463E-02
2564.861, 7.7640913E-02
2566.789, 7.7338614E-02
2568.718, 7.7316158E-02
2570.646, 7.7630490E-02
2572.574, 7.8263447E-02
2574.503, 8.0294631E-02
2576.431, 8.0769442E-02
2578.360, 8.1014760E-02
2580.288, 8.1227660E-02
2582.217, 8.1707753E-02
2584.145, 8.2391404E-02
2586.074, 8.2378954E-02
2588.002, 8.2914770E-02
2589.931, 8.3588958E-02
2591.859, 8.5384123E-02
2593.788, 8.5875608E-02
2595.716, 8.6461231E-02
2597.645, 8.5478507E-02
2599.573, 8.6091600E-02
2601.501, 8.8130407E-02
2603.430, 8.8934429E-02
2605.358, 8.9011319E-02
2607.287, 9.0007052E-02
2609.215, 9.0778977E-02
2611.144, 9.0323627E-02
2613.072, 9.0719678E-02
2615.001, 9.1448039E-02
2616.929, 9.1598943E-02
2618.858, 9.2771858E-02
2620.786, 9.4745137E-02
2622.715, 9.5600903E-02
2624.643, 9.5366977E-02
2626.572, 9.6224971E-02
2628.500, 9.6718803E-02
2630.428, 9.6520089E-02
2632.357, 9.7900033E-02
2634.285, 9.9214204E-02
2636.214, 0.1002508
2638.142, 0.1007037
2640.071, 0.1009563
2641.999, 0.1020898
2643.928, 0.1031100
2645.856, 0.1035430
2647.785, 0.1043279
2649.713, 0.1056126
2651.642, 0.1061826
2653.570, 0.1065165
2655.499, 0.1072365
2657.427, 0.1088707
2659.355, 0.1098189
2661.284, 0.1101742
2663.212, 0.1104964
2665.141, 0.1111741
2667.069, 0.1106751
2668.998, 0.1115593
2670.926, 0.1137587
2672.855, 0.1143255
2674.783, 0.1154821
2676.712, 0.1161512
2678.640, 0.1169536
2680.569, 0.1185660
2682.497, 0.1190808
2684.426, 0.1193928
2686.354, 0.1205094
2688.282, 0.1216728
2690.211, 0.1233705
2692.139, 0.1236858
2694.068, 0.1237070
2695.996, 0.1250149
2697.925, 0.1262877
2699.853, 0.1277914
2701.782, 0.1285743
2703.710, 0.1289935
2705.639, 0.1304960
2707.567, 0.1313719
2709.496, 0.1317957
2711.424, 0.1316276
2713.353, 0.1326017
2715.281, 0.1347735
2717.209, 0.1358708
2719.138, 0.1363685
2721.066, 0.1378167
2722.995, 0.1389748
2724.923, 0.1398442
2726.852, 0.1411596
2728.780, 0.1422119
2730.709, 0.1433646
2732.637, 0.1439149
2734.566, 0.1447785
2736.494, 0.1464553
2738.423, 0.1470389
2740.351, 0.1472737
2742.280, 0.1485191
2744.208, 0.1495897
2746.136, 0.1513323
2748.065, 0.1526315
2749.993, 0.1526495
2751.922, 0.1530205
2753.850, 0.1550621
2755.779, 0.1565406
2757.707, 0.1571678
2759.636, 0.1577525
2761.564, 0.1577152
2763.493, 0.1593488
2765.421, 0.1619134
2767.350, 0.1633162
2769.278, 0.1640219
2771.207, 0.1644040
2773.135, 0.1647453
2775.063, 0.1653942
2776.992, 0.1661285
2778.920, 0.1680022
2780.849, 0.1691695
2782.777, 0.1691334
2784.706, 0.1699622
2786.634, 0.1717493
2788.563, 0.1728202
2790.491, 0.1743732
2792.420, 0.1751129
2794.348, 0.1750576
2796.277, 0.1759641
2798.205, 0.1777547
2800.134, 0.1790998
2802.062, 0.1806335
2803.990, 0.1811418
2805.919, 0.1815201
2807.847, 0.1843942
2809.776, 0.1863697
2811.704, 0.1861117
2813.633, 0.1865477
2815.561, 0.1869825
2817.490, 0.1875344
2819.418, 0.1888520
2821.347, 0.1897642
2823.275, 0.1910436
2825.204, 0.1924961
2827.132, 0.1931513
2829.061, 0.1944532
2830.989, 0.1963055
2832.917, 0.1970284
2834.846, 0.1971525
2836.774, 0.1988429
2838.703, 0.2012255
2840.631, 0.2012495
2842.560, 0.2011054
2844.488, 0.2019499
2846.417, 0.2031914
2848.345, 0.2042946
2850.274, 0.2058951
2852.202, 0.2076602
2854.131, 0.2082378
2856.059, 0.2085023
2857.988, 0.2107873
2859.916, 0.2130894
2861.844, 0.2137100
2863.773, 0.2130198
2865.701, 0.2131125
2867.630, 0.2145449
2869.558, 0.2151642
2871.487, 0.2151794
2873.415, 0.2164034
2875.344, 0.2171448
2877.272, 0.2182118
2879.201, 0.2192100
2881.129, 0.2200897
2883.058, 0.2194808
2884.986, 0.2200760
2886.915, 0.2219822
2888.843, 0.2236469
2890.771, 0.2246563
2892.700, 0.2249812
2894.628, 0.2257711
2896.557, 0.2262537
2898.485, 0.2271903
2900.414, 0.2281090
2902.342, 0.2285300
2904.271, 0.2278840
2906.199, 0.2283246
2908.128, 0.2299796
2910.056, 0.2310233
2911.985, 0.2320089
2913.913, 0.2335665
2915.842, 0.2341384
2917.770, 0.2344873
2919.698, 0.2356551
2921.627, 0.2346620
2923.555, 0.2338589
2925.484, 0.2352596
2927.412, 0.2352610
2929.341, 0.2351355
2931.269, 0.2354709
2933.198, 0.2368544
2935.126, 0.2379525
2937.055, 0.2374768
2938.983, 0.2367913
2940.912, 0.2364619
2942.840, 0.2370930
2944.769, 0.2375615
2946.697, 0.2366928
2948.625, 0.2372433
2950.554, 0.2395520
2952.482, 0.2397015
2954.411, 0.2393083
2956.339, 0.2391979
2958.268, 0.2401332
2960.196, 0.2412165
2962.125, 0.2425685
2964.053, 0.2430085
2965.982, 0.2412934
2967.910, 0.2400692
2969.839, 0.2411247
2971.767, 0.2436791
2973.696, 0.2433267
2975.624, 0.2427436
2977.552, 0.2426240
2979.481, 0.2428118
2981.409, 0.2440141
2983.338, 0.2439562
2985.266, 0.2432861
2987.195, 0.2439158
2989.123, 0.2432206
2991.052, 0.2426857
2992.980, 0.2443351
2994.909, 0.2440404
2996.837, 0.2442811
2998.766, 0.2448329
3000.694, 0.2439329
3002.623, 0.2434733
3004.551, 0.2432969
3006.479, 0.2424711
3008.408, 0.2417458
3010.336, 0.2421900
3012.265, 0.2433504
3014.193, 0.2431487
3016.122, 0.2413358
3018.050, 0.2405605
3019.979, 0.2417400
3021.907, 0.2426415
3023.836, 0.2414152
3025.764, 0.2396622
3027.693, 0.2372947
3029.621, 0.2371964
3031.550, 0.2388080
3033.478, 0.2373019
3035.406, 0.2375414
3037.335, 0.2381978
3039.263, 0.2387781
3041.192, 0.2379174
3043.120, 0.2366700
3045.049, 0.2349346
3046.977, 0.2344356
3048.906, 0.2351564
3050.834, 0.2352356
3052.763, 0.2346620
3054.691, 0.2322952
3056.620, 0.2300677
3058.548, 0.2313343
3060.477, 0.2328895
3062.405, 0.2319384
3064.333, 0.2278104
3066.262, 0.2258919
3068.190, 0.2264102
3070.119, 0.2268615
3072.047, 0.2265178
3073.976, 0.2255198
3075.904, 0.2243676
3077.833, 0.2233982
3079.761, 0.2214897
3081.690, 0.2204562
3083.618, 0.2210714
3085.547, 0.2208814
3087.475, 0.2185603
3089.404, 0.2161418
3091.332, 0.2163231
3093.260, 0.2170664
3095.189, 0.2145242
3097.117, 0.2126660
3099.046, 0.2126787
3100.974, 0.2123715
3102.903, 0.2115698
3104.831, 0.2085634
3106.760, 0.2070245
3108.688, 0.2057243
3110.617, 0.2051257
3112.545, 0.2066062
3114.474, 0.2047734
3116.402, 0.2021160
3118.331, 0.2010058
3120.259, 0.2000411
3122.188, 0.1993253
3124.116, 0.1988515
3126.044, 0.1976655
3127.973, 0.1954648
3129.901, 0.1941936
3131.830, 0.1930292
3133.758, 0.1912690
3135.687, 0.1911463
3137.615, 0.1916980
3139.544, 0.1892483
3141.472, 0.1871849
3143.401, 0.1877850
3145.329, 0.1877305
3147.258, 0.1873734
3149.186, 0.1873618
3151.115, 0.1857242
3153.043, 0.1833989
3154.971, 0.1825458
3156.900, 0.1813122
3158.828, 0.1787341
3160.757, 0.1784159
3162.685, 0.1807615
3164.614, 0.1800930
3166.542, 0.1779676
3168.471, 0.1762609
3170.399, 0.1749077
3172.328, 0.1747889
3174.256, 0.1746431
3176.185, 0.1737652
3178.113, 0.1740247
3180.042, 0.1724302
3181.970, 0.1713415
3183.898, 0.1724394
3185.827, 0.1723980
3187.755, 0.1718864
3189.684, 0.1707214
3191.612, 0.1700177
3193.541, 0.1706336
3195.469, 0.1699661
3197.398, 0.1687303
3199.326, 0.1680783
3201.255, 0.1676930
3203.183, 0.1672401
3205.112, 0.1666623
3207.040, 0.1656912
3208.969, 0.1657622
3210.897, 0.1655374
3212.825, 0.1653332
3214.754, 0.1651770
3216.682, 0.1658589
3218.611, 0.1655581
3220.539, 0.1655098
3222.468, 0.1664625
3224.396, 0.1664535
3226.325, 0.1653453
3228.253, 0.1642329
3230.182, 0.1647340
3232.110, 0.1655478
3234.039, 0.1661776
3235.967, 0.1647543
3237.896, 0.1632637
3239.824, 0.1645692
3241.752, 0.1654034
3243.681, 0.1665995
3245.609, 0.1669776
3247.538, 0.1662995
3249.466, 0.1668229
3251.395, 0.1666326
3253.323, 0.1667837
3255.252, 0.1690611
3257.180, 0.1716119
3259.109, 0.1718115
3261.037, 0.1713340
3262.966, 0.1717048
3264.894, 0.1712468
3266.823, 0.1715278
3268.751, 0.1724092
3270.679, 0.1713847
3272.608, 0.1721773
3274.536, 0.1745546
3276.465, 0.1763517
3278.393, 0.1788282
3280.322, 0.1791756
3282.250, 0.1782520
3284.179, 0.1789154
3286.107, 0.1793359
3288.036, 0.1812207
3289.964, 0.1832393
3291.893, 0.1838698
3293.821, 0.1842419
3295.750, 0.1845007
3297.678, 0.1838792
3299.606, 0.1846889
3301.535, 0.1869564
3303.463, 0.1875725
3305.392, 0.1888649
3307.320, 0.1899420
3309.249, 0.1914994
3311.177, 0.1896401
3313.106, 0.1887468
3315.034, 0.1903575
3316.963, 0.1889262
3318.891, 0.1887257
3320.820, 0.1907950
3322.748, 0.1940780
3324.677, 0.1939735
3326.605, 0.1913174
3328.533, 0.1911940
3330.462, 0.1913995
3332.390, 0.1890079
3334.319, 0.1882619
3336.247, 0.1906230
3338.176, 0.1907078
3340.104, 0.1895748
3342.033, 0.1886477
3343.961, 0.1876985
3345.890, 0.1867561
3347.818, 0.1863861
3349.747, 0.1877452
3351.675, 0.1886424
3353.604, 0.1874885
3355.532, 0.1848585
3357.460, 0.1862141
3359.389, 0.1863480
3361.317, 0.1854898
3363.246, 0.1833173
3365.174, 0.1822712
3367.103, 0.1809182
3369.031, 0.1798201
3370.960, 0.1824700
3372.888, 0.1829316
3374.817, 0.1797205
3376.745, 0.1776296
3378.674, 0.1786099
3380.602, 0.1768060
3382.531, 0.1737993
3384.459, 0.1738861
3386.387, 0.1730448
3388.316, 0.1708832
3390.244, 0.1728457
3392.173, 0.1727662
3394.101, 0.1696305
3396.030, 0.1695348
3397.958, 0.1691664
3399.887, 0.1671140
3401.815, 0.1652442
3403.744, 0.1630198
3405.672, 0.1620287
3407.601, 0.1627985
3409.529, 0.1627785
3411.458, 0.1610688
3413.386, 0.1577287
3415.314, 0.1555738
3417.243, 0.1550250
3419.171, 0.1573516
3421.100, 0.1582724
3423.028, 0.1557710
3424.957, 0.1568933
3426.885, 0.1561818
3428.814, 0.1537474
3430.742, 0.1499843
3432.671, 0.1492776
3434.599, 0.1513511
3436.528, 0.1511947
3438.456, 0.1509667
3440.385, 0.1509182
3442.313, 0.1474917
3444.241, 0.1425183
3446.170, 0.1392127
3448.098, 0.1387438
3450.027, 0.1379612
3451.955, 0.1381948
3453.884, 0.1371846
3455.812, 0.1341338
3457.741, 0.1308272
3459.669, 0.1294867
3461.598, 0.1289565
3463.526, 0.1300288
3465.455, 0.1289720
3467.383, 0.1254151
3469.312, 0.1258947
3471.240, 0.1268954
3473.168, 0.1255258
3475.097, 0.1276559
3477.025, 0.1299832
3478.954, 0.1302075
3480.882, 0.1312543
3482.811, 0.1328370
3484.739, 0.1337458
3486.668, 0.1381299
3488.596, 0.1432472
3490.525, 0.1477933
3492.453, 0.1525031
3494.382, 0.1563887
3496.310, 0.1597364
3498.239, 0.1636833
3500.167, 0.1675043
3502.095, 0.1711486
3504.024, 0.1755686
3505.952, 0.1768059
3507.881, 0.1765647
3509.809, 0.1790913
3511.738, 0.1774771
3513.666, 0.1737985
3515.595, 0.1704177
3517.523, 0.1645750
3519.452, 0.1570578
3521.380, 0.1493659
3523.309, 0.1425220
3525.237, 0.1393663
3527.166, 0.1360186
3529.094, 0.1288192
3531.022, 0.1205714
3532.951, 0.1131654
3534.879, 0.1081161
3536.808, 0.1041160
3538.736, 0.1008282
3540.665, 9.8327473E-02
3542.593, 9.6571550E-02
3544.522, 9.2603683E-02
3546.450, 8.7165177E-02
3548.379, 8.3318867E-02
3550.307, 7.9345010E-02
3552.236, 7.6485403E-02
3554.164, 7.5111263E-02
3556.093, 7.2327480E-02
3558.021, 7.1857303E-02
3559.949, 6.9988377E-02
3561.878, 6.5404750E-02
3563.806, 6.3727513E-02
3565.735, 6.4541869E-02
3567.663, 6.0349680E-02
3569.592, 5.7420749E-02
3571.520, 5.6981008E-02
3573.449, 5.3538378E-02
3575.377, 5.0018400E-02
3577.306, 5.3087819E-02
3579.234, 5.6297202E-02
3581.163, 5.5794999E-02
3583.091, 5.4450970E-02
3585.020, 5.1442161E-02
3586.948, 4.8124861E-02
3588.876, 4.6754189E-02
3590.805, 4.5201872E-02
3592.733, 4.4352651E-02
3594.662, 4.3115430E-02
3596.590, 4.2118412E-02
3598.519, 4.1062690E-02
3600.447, 3.8343340E-02
3602.376, 3.9710142E-02
3604.304, 4.1295581E-02
3606.233, 4.0856220E-02
3608.161, 3.8115051E-02
3610.090, 3.6123630E-02
3612.018, 3.6110710E-02
3613.947, 3.8472131E-02
3615.875, 3.8379449E-02
3617.803, 3.5442919E-02
3619.732, 3.3992629E-02
3621.660, 3.5315018E-02
3623.589, 3.6319889E-02
3625.517, 3.4307960E-02
3627.446, 3.2111749E-02
3629.374, 2.9439470E-02
3631.303, 2.9358391E-02
3633.231, 2.9765030E-02
3635.160, 2.9236929E-02
3637.088, 2.6574040E-02
3639.017, 2.5133289E-02
3640.945, 2.6324240E-02
3642.874, 2.8101800E-02
3644.802, 2.7957490E-02
3646.730, 2.7826060E-02
3648.659, 2.8049709E-02
3650.587, 2.4385091E-02
3652.516, 2.3008719E-02
3654.444, 2.5483459E-02
3656.373, 2.5464891E-02
3658.301, 2.3725299E-02
3660.230, 2.3671700E-02
3662.158, 2.4177389E-02
3664.087, 2.0742180E-02
3666.015, 1.9953379E-02
3667.944, 2.3847410E-02
3669.872, 2.8169099E-02
3671.801, 2.6121721E-02
3673.729, 2.4456110E-02
3675.657, 2.3881620E-02
3677.586, 2.1453630E-02
3679.514, 2.0917950E-02
3681.443, 1.9620400E-02
3683.371, 2.0491570E-02
3685.300, 2.3963850E-02
3687.228, 2.2462130E-02
3689.157, 1.9267309E-02
3691.085, 1.9229850E-02
3693.014, 2.2700161E-02
3694.942, 2.2933049E-02
3696.871, 2.1477871E-02
3698.799, 2.4438700E-02
3700.728, 2.8040171E-02
3702.656, 2.6349710E-02
3704.584, 2.2960151E-02
3706.513, 2.2287950E-02
3708.441, 2.0675350E-02
3710.370, 1.9516470E-02
3712.298, 2.3785731E-02
3714.227, 2.4219541E-02
3716.155, 1.9649720E-02
3718.084, 1.9226881E-02
3720.012, 2.0081280E-02
3721.941, 1.8989880E-02
3723.869, 2.1545811E-02
3725.798, 2.5844410E-02
3727.726, 2.2172190E-02
3729.655, 1.9049620E-02
3731.583, 2.1237260E-02
3733.511, 2.2854861E-02
3735.440, 2.2124469E-02
3737.368, 2.1450991E-02
3739.297, 2.0663410E-02
3741.225, 1.8972009E-02
3743.154, 1.9122209E-02
3745.082, 2.2663951E-02
3747.011, 2.4365511E-02
3748.939, 2.4188289E-02
3750.868, 2.4723550E-02
3752.796, 2.6386511E-02
3754.725, 2.4760470E-02
3756.653, 2.1166820E-02
3758.582, 2.3426199E-02
3760.510, 2.1738870E-02
3762.438, 1.8177250E-02
3764.367, 1.8167270E-02
3766.295, 2.0136811E-02
3768.224, 2.2288401E-02
3770.152, 2.4245661E-02
3772.081, 2.2653829E-02
3774.009, 2.0014871E-02
3775.938, 2.1049511E-02
3777.866, 2.4112090E-02
3779.795, 2.2918209E-02
3781.723, 2.2443689E-02
3783.652, 2.2798710E-02
3785.580, 2.3683170E-02
3787.509, 2.4044501E-02
3789.437, 2.3138249E-02
3791.365, 2.2183331E-02
3793.294, 2.3600729E-02
3795.222, 2.2543820E-02
3797.151, 2.3010300E-02
3799.079, 2.5605431E-02
3801.008, 2.5840370E-02
3802.936, 2.4406239E-02
3804.865, 2.3019981E-02
3806.793, 2.1793479E-02
3808.722, 2.2260450E-02
3810.650, 2.2492370E-02
3812.579, 2.2295030E-02
3814.507, 2.0946670E-02
3816.436, 2.1602690E-02
3818.364, 2.2049600E-02
3820.292, 2.3618611E-02
3822.221, 2.6684299E-02
3824.149, 2.6365841E-02
3826.078, 2.2657709E-02
3828.006, 2.3725091E-02
3829.935, 2.5494041E-02
3831.863, 2.6055161E-02
3833.792, 2.6116019E-02
3835.720, 2.3735769E-02
3837.649, 2.2438159E-02
3839.577, 2.1985941E-02
3841.506, 2.2694100E-02
3843.434, 2.3596341E-02
3845.363, 2.2353090E-02
3847.291, 2.3642389E-02
3849.219, 2.3582580E-02
3851.148, 2.4603760E-02
3853.076, 2.4990680E-02
3855.005, 2.5540691E-02
3856.933, 2.6023000E-02
3858.862, 2.4892069E-02
3860.790, 2.4715601E-02
3862.719, 2.5530981E-02
3864.647, 2.7210049E-02
3866.576, 2.8768221E-02
3868.504, 2.3370950E-02
3870.433, 1.8578790E-02
3872.361, 2.0986440E-02
3874.290, 2.4762681E-02
3876.218, 2.3200070E-02
3878.146, 2.4952950E-02
3880.075, 2.4185650E-02
3882.003, 2.4586700E-02
3883.932, 2.9527830E-02
3885.860, 2.9256741E-02
3887.789, 2.4509890E-02
3889.717, 2.3121720E-02
3891.646, 2.5440190E-02
3893.574, 2.4888029E-02
3895.503, 2.4619550E-02
3897.431, 2.6203649E-02
3899.360, 2.5895299E-02
3901.288, 2.7543440E-02
3903.217, 3.2202382E-02
3905.145, 3.0664731E-02
3907.073, 2.9169630E-02
3909.002, 2.8665859E-02
3910.930, 2.6590420E-02
3912.859, 2.6237849E-02
3914.787, 2.6190720E-02
3916.716, 2.7531801E-02
3918.644, 2.8925421E-02
3920.573, 2.7266771E-02
3922.501, 2.4386430E-02
3924.430, 2.4070259E-02
3926.358, 2.6030339E-02
3928.287, 2.7886329E-02
3930.215, 2.7969250E-02
3932.144, 2.5781641E-02
3934.072, 2.7481331E-02
3936.000, 2.6970331E-02
3937.929, 2.8049611E-02
3939.857, 2.9293271E-02
3941.786, 2.8121030E-02
3943.714, 2.7983490E-02
3945.643, 2.7051009E-02
3947.571, 2.5343100E-02
3949.500, 2.5522159E-02
3951.428, 2.7768360E-02
3953.357, 3.0024171E-02
3955.285, 2.9403580E-02
3957.214, 2.5949210E-02
3959.142, 2.4278510E-02
3961.071, 2.5657820E-02
3962.999, 2.2034580E-02
3964.927, 2.0509070E-02
3966.856, 2.3005521E-02
3968.784, 2.5894530E-02
3970.713, 2.7437150E-02
3972.641, 2.5996391E-02
3974.570, 2.7228991E-02
3976.498, 2.9287610E-02
3978.427, 2.8384440E-02
3980.355, 2.4493139E-02
3982.284, 2.0778591E-02
3984.212, 2.2066150E-02
3986.141, 2.6881360E-02
3988.069, 3.1381272E-02
3989.998, 2.8387830E-02
3991.926, 2.5465030E-02
3993.854, 2.7486140E-02
3995.783, 2.9336320E-02
3997.711, 2.9521720E-02
3999.640, 2.9535960E-02
##END=



