##NAMES=Prehnite
##RRUFFID=R050055
##IDEAL CHEMISTRY=Ca_2_Al(Si_3_Al)O_10_(OH)_2_
##LOCALITY=Diako, Sandare District, Mali
##OWNER=RRUFF
##SOURCE=Rock Currier
##DESCRIPTION=Light green reniform aggregate
##STATUS=The identification of this mineral has been confirmed by X-ray diffraction and chemical analysis
##URL=rruff.info/R050055
##MEASURED CHEMISTRY=Ca_2_(Al_.886_Fe_.114_)_2_Si_3_O_10_(OH)_2_
3.991926e+002, 1.476416e-001
4.011211e+002, 1.671933e-001
4.030496e+002, 1.679971e-001
4.049780e+002, 1.783870e-001
4.069065e+002, 1.861564e-001
4.088350e+002, 1.849173e-001
4.107634e+002, 1.834371e-001
4.126919e+002, 1.826076e-001
4.146204e+002, 1.824440e-001
4.165488e+002, 1.785445e-001
4.184773e+002, 1.766317e-001
4.204058e+002, 1.704711e-001
4.223342e+002, 1.650805e-001
4.242627e+002, 1.621059e-001
4.261912e+002, 1.619728e-001
4.281196e+002, 1.642125e-001
4.300481e+002, 1.666597e-001
4.319766e+002, 1.675259e-001
4.339050e+002, 1.665963e-001
4.358335e+002, 1.646326e-001
4.377620e+002, 1.588612e-001
4.396904e+002, 1.500401e-001
4.416189e+002, 1.450025e-001
4.435474e+002, 1.409946e-001
4.454758e+002, 1.367314e-001
4.474043e+002, 1.328942e-001
4.493328e+002, 1.304417e-001
4.512612e+002, 1.305914e-001
4.531897e+002, 1.308622e-001
4.551182e+002, 1.317000e-001
4.570466e+002, 1.319263e-001
4.589751e+002, 1.311071e-001
4.609036e+002, 1.306974e-001
4.628320e+002, 1.317080e-001
4.647605e+002, 1.356609e-001
4.666890e+002, 1.401844e-001
4.686174e+002, 1.424530e-001
4.705459e+002, 1.422039e-001
4.724744e+002, 1.397934e-001
4.744028e+002, 1.356233e-001
4.763313e+002, 1.317112e-001
4.782598e+002, 1.269961e-001
4.801882e+002, 1.214139e-001
4.821167e+002, 1.161272e-001
4.840452e+002, 1.120690e-001
4.859736e+002, 1.098717e-001
4.879021e+002, 1.083861e-001
4.898306e+002, 1.061101e-001
4.917590e+002, 1.044216e-001
4.936875e+002, 1.035867e-001
4.956160e+002, 1.026529e-001
4.975444e+002, 1.007276e-001
4.994729e+002, 9.948436e-002
5.014014e+002, 9.845498e-002
5.033298e+002, 9.816433e-002
5.052583e+002, 9.909822e-002
5.071868e+002, 9.928032e-002
5.091152e+002, 9.888174e-002
5.110437e+002, 9.819402e-002
5.129722e+002, 9.687139e-002
5.149006e+002, 9.606986e-002
5.168291e+002, 9.598935e-002
5.187576e+002, 9.585728e-002
5.206860e+002, 9.584451e-002
5.226145e+002, 9.660080e-002
5.245430e+002, 9.886411e-002
5.264714e+002, 1.011833e-001
5.283999e+002, 1.031477e-001
5.303284e+002, 1.040856e-001
5.322568e+002, 1.041226e-001
5.341853e+002, 1.034089e-001
5.361138e+002, 1.008517e-001
5.380422e+002, 9.788901e-002
5.399707e+002, 9.534707e-002
5.418992e+002, 9.233127e-002
5.438276e+002, 8.793204e-002
5.457561e+002, 8.270227e-002
5.476846e+002, 7.714362e-002
5.496130e+002, 7.222088e-002
5.515415e+002, 6.714530e-002
5.534700e+002, 6.137025e-002
5.553984e+002, 5.657205e-002
5.573269e+002, 5.295373e-002
5.592554e+002, 4.959865e-002
5.611838e+002, 4.573453e-002
5.631123e+002, 4.140828e-002
5.650408e+002, 3.717932e-002
5.669692e+002, 3.375647e-002
5.688977e+002, 3.089435e-002
5.708262e+002, 2.823447e-002
5.727546e+002, 2.637718e-002
5.746831e+002, 2.481381e-002
5.766116e+002, 2.332015e-002
5.785400e+002, 2.248305e-002
5.804685e+002, 2.201300e-002
5.823970e+002, 2.125624e-002
5.843254e+002, 2.000572e-002
5.862539e+002, 1.869113e-002
5.881824e+002, 1.815419e-002
5.901108e+002, 1.800506e-002
5.920393e+002, 1.791215e-002
5.939678e+002, 1.788834e-002
5.958962e+002, 1.794801e-002
5.978247e+002, 1.819962e-002
5.997532e+002, 1.835641e-002
6.016816e+002, 1.803980e-002
6.036101e+002, 1.804338e-002
6.055386e+002, 1.863355e-002
6.074670e+002, 1.926397e-002
6.093955e+002, 1.948682e-002
6.113240e+002, 1.972828e-002
6.132524e+002, 1.953131e-002
6.151809e+002, 1.962234e-002
6.171094e+002, 1.998642e-002
6.190378e+002, 2.016725e-002
6.209663e+002, 2.014643e-002
6.228948e+002, 2.021502e-002
6.248232e+002, 2.064578e-002
6.267517e+002, 2.114851e-002
6.286802e+002, 2.170265e-002
6.306086e+002, 2.307237e-002
6.325371e+002, 2.501716e-002
6.344656e+002, 2.622954e-002
6.363940e+002, 2.673944e-002
6.383225e+002, 2.665265e-002
6.402510e+002, 2.619862e-002
6.421794e+002, 2.582469e-002
6.441079e+002, 2.585804e-002
6.460364e+002, 2.631885e-002
6.479648e+002, 2.710491e-002
6.498933e+002, 2.785057e-002
6.518218e+002, 2.901551e-002
6.537502e+002, 3.058367e-002
6.556787e+002, 3.153706e-002
6.576072e+002, 3.240135e-002
6.595356e+002, 3.404308e-002
6.614641e+002, 3.636223e-002
6.633926e+002, 3.824789e-002
6.653210e+002, 3.904399e-002
6.672495e+002, 3.955498e-002
6.691780e+002, 3.953394e-002
6.711064e+002, 3.911313e-002
6.730349e+002, 3.903751e-002
6.749634e+002, 3.989404e-002
6.768918e+002, 4.136452e-002
6.788203e+002, 4.266510e-002
6.807488e+002, 4.377061e-002
6.826772e+002, 4.495202e-002
6.846057e+002, 4.622680e-002
6.865342e+002, 4.800993e-002
6.884626e+002, 4.981064e-002
6.903911e+002, 5.168543e-002
6.923196e+002, 5.419616e-002
6.942480e+002, 5.696815e-002
6.961765e+002, 5.977045e-002
6.981050e+002, 6.247234e-002
7.000334e+002, 6.549603e-002
7.019619e+002, 6.870420e-002
7.038904e+002, 7.209323e-002
7.058188e+002, 7.598643e-002
7.077473e+002, 7.983488e-002
7.096758e+002, 8.406258e-002
7.116042e+002, 8.906689e-002
7.135327e+002, 9.447832e-002
7.154612e+002, 1.002333e-001
7.173896e+002, 1.059306e-001
7.193181e+002, 1.120703e-001
7.212466e+002, 1.184964e-001
7.231750e+002, 1.255242e-001
7.251035e+002, 1.329288e-001
7.270320e+002, 1.404273e-001
7.289604e+002, 1.481709e-001
7.308889e+002, 1.554810e-001
7.328174e+002, 1.620786e-001
7.347458e+002, 1.676520e-001
7.366743e+002, 1.719280e-001
7.386028e+002, 1.735597e-001
7.405313e+002, 1.719812e-001
7.424597e+002, 1.683812e-001
7.443882e+002, 1.630066e-001
7.463167e+002, 1.564844e-001
7.482451e+002, 1.503863e-001
7.501736e+002, 1.453921e-001
7.521021e+002, 1.420904e-001
7.540305e+002, 1.395393e-001
7.559590e+002, 1.360382e-001
7.578875e+002, 1.309737e-001
7.598159e+002, 1.246900e-001
7.617444e+002, 1.179205e-001
7.636729e+002, 1.113316e-001
7.656013e+002, 1.050632e-001
7.675298e+002, 9.876233e-002
7.694583e+002, 9.274326e-002
7.713867e+002, 8.689030e-002
7.733152e+002, 8.151831e-002
7.752437e+002, 7.734845e-002
7.771721e+002, 7.434284e-002
7.791006e+002, 7.288895e-002
7.810291e+002, 7.257327e-002
7.829575e+002, 7.306876e-002
7.848860e+002, 7.453767e-002
7.868145e+002, 7.651444e-002
7.887429e+002, 7.858315e-002
7.906714e+002, 8.082737e-002
7.925999e+002, 8.322782e-002
7.945283e+002, 8.524142e-002
7.964568e+002, 8.684888e-002
7.983853e+002, 8.804481e-002
8.003137e+002, 8.920313e-002
8.022422e+002, 9.052415e-002
8.041707e+002, 9.154584e-002
8.060991e+002, 9.271112e-002
8.080276e+002, 9.359858e-002
8.099561e+002, 9.388371e-002
8.118845e+002, 9.359644e-002
8.138130e+002, 9.287959e-002
8.157415e+002, 9.102046e-002
8.176699e+002, 8.770285e-002
8.195984e+002, 8.267584e-002
8.215269e+002, 7.594894e-002
8.234553e+002, 6.834145e-002
8.253838e+002, 6.150479e-002
8.273123e+002, 5.601311e-002
8.292407e+002, 5.230021e-002
8.311692e+002, 5.007121e-002
8.330977e+002, 4.907293e-002
8.350261e+002, 4.939460e-002
8.369546e+002, 5.028741e-002
8.388831e+002, 5.128467e-002
8.408115e+002, 5.247695e-002
8.427400e+002, 5.347832e-002
8.446685e+002, 5.440846e-002
8.465969e+002, 5.587563e-002
8.485254e+002, 5.732796e-002
8.504539e+002, 5.870594e-002
8.523823e+002, 6.039764e-002
8.543108e+002, 6.201471e-002
8.562393e+002, 6.389605e-002
8.581677e+002, 6.719205e-002
8.600962e+002, 7.124879e-002
8.620247e+002, 7.534882e-002
8.639531e+002, 8.024291e-002
8.658816e+002, 8.487725e-002
8.678101e+002, 8.902524e-002
8.697385e+002, 9.250009e-002
8.716670e+002, 9.474268e-002
8.735955e+002, 9.597840e-002
8.755239e+002, 9.696341e-002
8.774524e+002, 9.754188e-002
8.793809e+002, 9.870288e-002
8.813093e+002, 1.003119e-001
8.832378e+002, 1.029973e-001
8.851663e+002, 1.068246e-001
8.870947e+002, 1.107195e-001
8.890232e+002, 1.149339e-001
8.909517e+002, 1.204327e-001
8.928801e+002, 1.261371e-001
8.948085e+002, 1.320895e-001
8.967370e+002, 1.392947e-001
8.986655e+002, 1.474197e-001
9.005939e+002, 1.558188e-001
9.025224e+002, 1.638987e-001
9.044509e+002, 1.718180e-001
9.063793e+002, 1.800653e-001
9.083078e+002, 1.884615e-001
9.102363e+002, 1.966742e-001
9.121647e+002, 2.047175e-001
9.140932e+002, 2.123133e-001
9.160217e+002, 2.192972e-001
9.179501e+002, 2.251829e-001
9.198786e+002, 2.296302e-001
9.218071e+002, 2.325037e-001
9.237355e+002, 2.341714e-001
9.256640e+002, 2.344887e-001
9.275925e+002, 2.333279e-001
9.295209e+002, 2.308487e-001
9.314494e+002, 2.273706e-001
9.333779e+002, 2.231056e-001
9.353063e+002, 2.182506e-001
9.372348e+002, 2.129357e-001
9.391633e+002, 2.078754e-001
9.410917e+002, 2.031733e-001
9.430202e+002, 1.973774e-001
9.449487e+002, 1.906321e-001
9.468771e+002, 1.841073e-001
9.488056e+002, 1.780458e-001
9.507341e+002, 1.730193e-001
9.526625e+002, 1.693922e-001
9.545910e+002, 1.678276e-001
9.565195e+002, 1.686877e-001
9.584479e+002, 1.713986e-001
9.603764e+002, 1.751587e-001
9.623049e+002, 1.799970e-001
9.642333e+002, 1.859019e-001
9.661618e+002, 1.920294e-001
9.680903e+002, 1.984207e-001
9.700187e+002, 2.043394e-001
9.719472e+002, 2.098220e-001
9.738757e+002, 2.143375e-001
9.758041e+002, 2.173061e-001
9.777326e+002, 2.190521e-001
9.796611e+002, 2.196980e-001
9.815895e+002, 2.187057e-001
9.835180e+002, 2.163863e-001
9.854465e+002, 2.136671e-001
9.873749e+002, 2.109130e-001
9.893034e+002, 2.078714e-001
9.912319e+002, 2.042929e-001
9.931603e+002, 2.002886e-001
9.950888e+002, 1.959581e-001
9.970173e+002, 1.912743e-001
9.989457e+002, 1.858579e-001
1.000874e+003, 1.798583e-001
1.002803e+003, 1.735573e-001
1.004731e+003, 1.670796e-001
1.006660e+003, 1.605898e-001
1.008588e+003, 1.542673e-001
1.010517e+003, 1.478774e-001
1.012445e+003, 1.413879e-001
1.014373e+003, 1.353020e-001
1.016302e+003, 1.298603e-001
1.018230e+003, 1.240211e-001
1.020159e+003, 1.180767e-001
1.022087e+003, 1.123189e-001
1.024016e+003, 1.066592e-001
1.025944e+003, 1.010162e-001
1.027873e+003, 9.587570e-002
1.029801e+003, 9.069373e-002
1.031730e+003, 8.577520e-002
1.033658e+003, 8.175059e-002
1.035587e+003, 7.806952e-002
1.037515e+003, 7.471711e-002
1.039444e+003, 7.221390e-002
1.041372e+003, 7.121973e-002
1.043301e+003, 7.178438e-002
1.045229e+003, 7.435232e-002
1.047157e+003, 7.968654e-002
1.049086e+003, 8.773547e-002
1.051014e+003, 9.787899e-002
1.052943e+003, 1.092019e-001
1.054871e+003, 1.189863e-001
1.056800e+003, 1.252430e-001
1.058728e+003, 1.285160e-001
1.060657e+003, 1.300109e-001
1.062585e+003, 1.309638e-001
1.064514e+003, 1.322074e-001
1.066442e+003, 1.338111e-001
1.068371e+003, 1.351728e-001
1.070299e+003, 1.349634e-001
1.072228e+003, 1.323233e-001
1.074156e+003, 1.279680e-001
1.076084e+003, 1.234512e-001
1.078013e+003, 1.191397e-001
1.079941e+003, 1.147853e-001
1.081870e+003, 1.105345e-001
1.083798e+003, 1.058368e-001
1.085727e+003, 1.011102e-001
1.087655e+003, 9.666817e-002
1.089584e+003, 9.229276e-002
1.091512e+003, 8.811399e-002
1.093441e+003, 8.421189e-002
1.095369e+003, 8.058418e-002
1.097298e+003, 7.717827e-002
1.099226e+003, 7.382087e-002
1.101155e+003, 7.057930e-002
1.103083e+003, 6.797754e-002
1.105011e+003, 6.495366e-002
1.106940e+003, 6.167800e-002
1.108868e+003, 5.879945e-002
1.110797e+003, 5.562880e-002
1.112725e+003, 5.223360e-002
1.114654e+003, 4.907054e-002
1.116582e+003, 4.591244e-002
1.118511e+003, 4.270788e-002
1.120439e+003, 3.963836e-002
1.122368e+003, 3.647194e-002
1.124296e+003, 3.377407e-002
1.126225e+003, 3.111181e-002
1.128153e+003, 2.813746e-002
1.130082e+003, 2.558210e-002
1.132010e+003, 2.328446e-002
1.133938e+003, 2.101719e-002
1.135867e+003, 1.907129e-002
1.137795e+003, 1.741774e-002
1.139724e+003, 1.586279e-002
1.141652e+003, 1.466649e-002
1.143581e+003, 1.364124e-002
1.145509e+003, 1.246926e-002
1.147438e+003, 1.139060e-002
1.149366e+003, 1.070125e-002
1.151295e+003, 1.019743e-002
1.153223e+003, 9.572024e-003
1.155152e+003, 9.198479e-003
1.157080e+003, 8.876027e-003
1.159009e+003, 8.445064e-003
1.160937e+003, 8.113146e-003
1.162865e+003, 8.038718e-003
1.164794e+003, 7.983458e-003
1.166722e+003, 7.780566e-003
1.168651e+003, 7.347684e-003
1.170579e+003, 6.815868e-003
1.172508e+003, 6.574983e-003
1.174436e+003, 6.336384e-003
1.176365e+003, 6.219538e-003
1.178293e+003, 6.231863e-003
1.180222e+003, 6.043514e-003
1.182150e+003, 5.824334e-003
1.184079e+003, 5.323640e-003
1.186007e+003, 4.825884e-003
1.187936e+003, 4.885847e-003
1.189864e+003, 4.909674e-003
1.191792e+003, 4.593465e-003
1.193721e+003, 4.412905e-003
1.195649e+003, 4.542339e-003
1.197578e+003, 4.794222e-003
1.199506e+003, 4.537152e-003
1.201435e+003, 4.239598e-003
1.203363e+003, 3.959130e-003
1.205292e+003, 3.806486e-003
1.207220e+003, 3.887411e-003
1.209149e+003, 3.696336e-003
1.211077e+003, 3.703400e-003
1.213006e+003, 3.654144e-003
1.214934e+003, 3.587424e-003
1.216863e+003, 3.578663e-003
1.218791e+003, 3.499894e-003
1.220719e+003, 3.365599e-003
1.222648e+003, 3.269285e-003
1.224576e+003, 3.264958e-003
1.226505e+003, 3.159462e-003
1.228433e+003, 3.130122e-003
1.230362e+003, 3.097362e-003
1.232290e+003, 2.966398e-003
1.234219e+003, 3.048716e-003
1.236147e+003, 3.113187e-003
1.238076e+003, 3.060723e-003
1.240004e+003, 2.908546e-003
1.241933e+003, 2.848113e-003
1.243861e+003, 2.842339e-003
1.245790e+003, 2.963615e-003
1.247718e+003, 3.018267e-003
1.249646e+003, 2.949416e-003
1.251575e+003, 2.746150e-003
1.253503e+003, 2.493640e-003
1.255432e+003, 2.577137e-003
1.257360e+003, 2.732006e-003
1.259289e+003, 2.560580e-003
1.261217e+003, 2.429199e-003
1.263146e+003, 2.403655e-003
1.265074e+003, 2.139644e-003
1.267003e+003, 2.130670e-003
1.268931e+003, 2.285696e-003
1.270860e+003, 2.308587e-003
1.272788e+003, 2.238542e-003
1.274717e+003, 2.383347e-003
1.276645e+003, 2.467918e-003
1.278573e+003, 2.377208e-003
1.280502e+003, 2.502796e-003
1.282430e+003, 2.574677e-003
1.284359e+003, 2.366054e-003
1.286287e+003, 2.205599e-003
1.288216e+003, 2.092266e-003
1.290144e+003, 2.163556e-003
1.292073e+003, 2.437410e-003
1.294001e+003, 2.420586e-003
1.295930e+003, 2.292182e-003
1.297858e+003, 2.082018e-003
1.299787e+003, 2.040292e-003
1.301715e+003, 2.325545e-003
1.303644e+003, 2.488401e-003
1.305572e+003, 2.439801e-003
1.307500e+003, 2.553277e-003
1.309429e+003, 2.572146e-003
1.311357e+003, 2.286467e-003
1.313286e+003, 2.404211e-003
1.315214e+003, 2.684788e-003
1.317143e+003, 2.703601e-003
1.319071e+003, 2.493042e-003
1.321000e+003, 2.425939e-003
1.322928e+003, 2.824673e-003
1.324857e+003, 2.959782e-003
1.326785e+003, 2.711361e-003
1.328714e+003, 2.162048e-003
1.330642e+003, 2.384072e-003
1.332571e+003, 2.807541e-003
1.334499e+003, 2.909675e-003
1.336427e+003, 2.821846e-003
1.338356e+003, 2.820157e-003
1.340284e+003, 2.821608e-003
1.342213e+003, 2.896644e-003
1.344141e+003, 2.970562e-003
1.346070e+003, 3.052404e-003
1.347998e+003, 3.318558e-003
1.349927e+003, 3.293695e-003
1.351855e+003, 3.196213e-003
1.353784e+003, 3.051126e-003
1.355712e+003, 2.861984e-003
1.357641e+003, 3.260049e-003
1.359569e+003, 3.377884e-003
1.361498e+003, 3.143404e-003
1.363426e+003, 3.379630e-003
1.365354e+003, 3.774788e-003
1.367283e+003, 3.798864e-003
1.369211e+003, 3.894087e-003
1.371140e+003, 4.062271e-003
1.373068e+003, 4.102789e-003
1.374997e+003, 3.730693e-003
1.376925e+003, 3.706859e-003
1.378854e+003, 4.033033e-003
1.380782e+003, 4.046033e-003
1.382711e+003, 3.808756e-003
1.384639e+003, 4.018235e-003
1.386568e+003, 4.162212e-003
1.388496e+003, 4.447056e-003
1.390424e+003, 4.559306e-003
1.392353e+003, 4.413597e-003
1.394281e+003, 4.225243e-003
1.396210e+003, 4.485616e-003
1.398138e+003, 4.551997e-003
1.400067e+003, 4.566288e-003
1.401995e+003, 4.672113e-003
1.403924e+003, 5.077774e-003
1.405852e+003, 5.633343e-003
1.407781e+003, 5.716548e-003
1.409709e+003, 5.184616e-003
1.411638e+003, 5.209871e-003
1.413566e+003, 5.311831e-003
1.415495e+003, 5.172970e-003
1.417423e+003, 4.929576e-003
1.419351e+003, 4.967519e-003
1.421280e+003, 5.260770e-003
1.423208e+003, 5.395129e-003
1.425137e+003, 5.435389e-003
1.427065e+003, 5.522664e-003
1.428994e+003, 5.571403e-003
1.430922e+003, 5.830862e-003
1.432851e+003, 5.992508e-003
1.434779e+003, 5.549476e-003
1.436708e+003, 5.390119e-003
1.438636e+003, 5.874798e-003
1.440565e+003, 6.205424e-003
1.442493e+003, 6.389339e-003
1.444422e+003, 6.185665e-003
1.446350e+003, 5.968363e-003
1.448278e+003, 5.944340e-003
1.450207e+003, 6.415613e-003
1.452135e+003, 6.605802e-003
1.454064e+003, 6.154190e-003
1.455992e+003, 4.899463e-003
1.457921e+003, 5.103351e-003
1.459849e+003, 6.222272e-003
1.461778e+003, 6.435963e-003
1.463706e+003, 6.145434e-003
1.465635e+003, 6.169684e-003
1.467563e+003, 6.774913e-003
1.469492e+003, 6.888856e-003
1.471420e+003, 6.009619e-003
1.473349e+003, 5.331438e-003
1.475277e+003, 5.518698e-003
1.477205e+003, 5.818021e-003
1.479134e+003, 6.030958e-003
1.481062e+003, 6.229133e-003
1.482991e+003, 6.402986e-003
1.484919e+003, 6.169274e-003
1.486848e+003, 5.844695e-003
1.488776e+003, 5.523932e-003
1.490705e+003, 5.746479e-003
1.492633e+003, 6.178767e-003
1.494562e+003, 5.587899e-003
1.496490e+003, 5.342982e-003
1.498419e+003, 5.559477e-003
1.500347e+003, 5.738345e-003
1.502276e+003, 5.852673e-003
1.504204e+003, 4.983522e-003
1.506132e+003, 4.119451e-003
1.508061e+003, 4.687083e-003
1.509989e+003, 5.474727e-003
1.511918e+003, 5.658082e-003
1.513846e+003, 5.872278e-003
1.515775e+003, 5.757890e-003
1.517703e+003, 5.392499e-003
1.519632e+003, 5.178290e-003
1.521560e+003, 5.029425e-003
1.523489e+003, 5.717858e-003
1.525417e+003, 6.117477e-003
1.527346e+003, 6.343459e-003
1.529274e+003, 6.496186e-003
1.531203e+003, 6.479482e-003
1.533131e+003, 6.242262e-003
1.535059e+003, 6.700593e-003
1.536988e+003, 6.598018e-003
1.538916e+003, 5.237852e-003
1.540845e+003, 5.081858e-003
1.542773e+003, 6.157215e-003
1.544702e+003, 7.210229e-003
1.546630e+003, 7.638521e-003
1.548559e+003, 7.663451e-003
1.550487e+003, 7.562293e-003
1.552416e+003, 7.550336e-003
1.554344e+003, 7.759888e-003
1.556273e+003, 7.481558e-003
1.558201e+003, 6.274642e-003
1.560130e+003, 6.652480e-003
1.562058e+003, 8.197160e-003
1.563986e+003, 8.403278e-003
1.565915e+003, 8.470110e-003
1.567843e+003, 8.602632e-003
1.569772e+003, 8.024009e-003
1.571700e+003, 7.918514e-003
1.573629e+003, 7.528437e-003
1.575557e+003, 6.642809e-003
1.577486e+003, 7.415387e-003
1.579414e+003, 8.742534e-003
1.581343e+003, 9.053488e-003
1.583271e+003, 8.761352e-003
1.585200e+003, 8.361989e-003
1.587128e+003, 8.281589e-003
1.589057e+003, 8.560661e-003
1.590985e+003, 8.612413e-003
1.592913e+003, 8.486731e-003
1.594842e+003, 8.551469e-003
1.596770e+003, 8.282265e-003
1.598699e+003, 8.254873e-003
1.600627e+003, 8.196437e-003
1.602556e+003, 8.084977e-003
1.604484e+003, 8.341410e-003
1.606413e+003, 8.539896e-003
1.608341e+003, 8.501366e-003
1.610270e+003, 8.565268e-003
1.612198e+003, 8.510914e-003
1.614127e+003, 8.163185e-003
1.616055e+003, 7.703062e-003
1.617984e+003, 8.172355e-003
1.619912e+003, 8.579963e-003
1.621840e+003, 8.154301e-003
1.623769e+003, 7.994453e-003
1.625697e+003, 8.271866e-003
1.627626e+003, 8.361956e-003
1.629554e+003, 8.452895e-003
1.631483e+003, 8.813504e-003
1.633411e+003, 7.950650e-003
1.635340e+003, 6.635181e-003
1.637268e+003, 7.205864e-003
1.639197e+003, 8.245946e-003
1.641125e+003, 8.640843e-003
1.643054e+003, 8.606903e-003
1.644982e+003, 7.627178e-003
1.646911e+003, 7.195856e-003
1.648839e+003, 7.593783e-003
1.650767e+003, 7.104603e-003
1.652696e+003, 5.812423e-003
1.654624e+003, 7.032660e-003
1.656553e+003, 8.287894e-003
1.658481e+003, 8.227501e-003
1.660410e+003, 8.174639e-003
1.662338e+003, 8.463966e-003
1.664267e+003, 8.892164e-003
1.666195e+003, 8.491937e-003
1.668124e+003, 8.153319e-003
1.670052e+003, 8.307791e-003
1.671981e+003, 8.465948e-003
1.673909e+003, 8.168235e-003
1.675838e+003, 7.599541e-003
1.677766e+003, 7.990018e-003
1.679694e+003, 7.991903e-003
1.681623e+003, 7.474529e-003
1.683551e+003, 6.401529e-003
1.685480e+003, 6.789929e-003
1.687408e+003, 7.835209e-003
1.689337e+003, 7.907387e-003
1.691265e+003, 7.789963e-003
1.693194e+003, 7.655375e-003
1.695122e+003, 6.270391e-003
1.697051e+003, 5.977133e-003
1.698979e+003, 6.314421e-003
1.700908e+003, 5.958002e-003
1.702836e+003, 6.499655e-003
1.704765e+003, 6.434047e-003
1.706693e+003, 6.793479e-003
1.708621e+003, 7.284261e-003
1.710550e+003, 7.192669e-003
1.712478e+003, 6.416688e-003
1.714407e+003, 6.263425e-003
1.716335e+003, 5.940945e-003
1.718264e+003, 6.102906e-003
1.720192e+003, 7.328691e-003
1.722121e+003, 7.793242e-003
1.724049e+003, 7.626838e-003
1.725978e+003, 7.762058e-003
1.727906e+003, 7.173080e-003
1.729835e+003, 6.609879e-003
1.731763e+003, 6.177229e-003
1.733692e+003, 5.509128e-003
1.735620e+003, 6.232027e-003
1.737548e+003, 6.993746e-003
1.739477e+003, 6.489466e-003
1.741405e+003, 6.305257e-003
1.743334e+003, 6.127375e-003
1.745262e+003, 6.124516e-003
1.747191e+003, 6.090364e-003
1.749119e+003, 6.060762e-003
1.751048e+003, 6.087151e-003
1.752976e+003, 5.991001e-003
1.754905e+003, 6.066982e-003
1.756833e+003, 6.423004e-003
1.758762e+003, 6.619542e-003
1.760690e+003, 6.515861e-003
1.762619e+003, 6.328852e-003
1.764547e+003, 6.737483e-003
1.766475e+003, 6.471293e-003
1.768404e+003, 5.910722e-003
1.770332e+003, 5.738786e-003
1.772261e+003, 5.667417e-003
1.774189e+003, 6.568057e-003
1.776118e+003, 6.435811e-003
1.778046e+003, 6.116356e-003
1.779975e+003, 6.372773e-003
1.781903e+003, 6.826552e-003
1.783832e+003, 7.092677e-003
1.785760e+003, 6.944844e-003
1.787689e+003, 6.593886e-003
1.789617e+003, 6.219824e-003
1.791546e+003, 6.040671e-003
1.793474e+003, 5.875430e-003
1.795402e+003, 5.983799e-003
1.797331e+003, 6.097928e-003
1.799259e+003, 6.041056e-003
1.801188e+003, 6.073691e-003
1.803116e+003, 6.441957e-003
1.805045e+003, 6.508606e-003
1.806973e+003, 6.441792e-003
1.808902e+003, 6.171392e-003
1.810830e+003, 5.895104e-003
1.812759e+003, 5.782602e-003
1.814687e+003, 5.762552e-003
1.816616e+003, 6.063377e-003
1.818544e+003, 6.685887e-003
1.820473e+003, 6.617666e-003
1.822401e+003, 6.144173e-003
1.824329e+003, 6.204634e-003
1.826258e+003, 6.608937e-003
1.828186e+003, 6.725275e-003
1.830115e+003, 6.807353e-003
1.832043e+003, 7.511413e-003
1.833972e+003, 7.109658e-003
1.835900e+003, 6.195313e-003
1.837829e+003, 5.834825e-003
1.839757e+003, 6.026702e-003
1.841686e+003, 6.064979e-003
1.843614e+003, 4.995823e-003
1.845543e+003, 4.679057e-003
1.847471e+003, 5.796106e-003
1.849400e+003, 6.207445e-003
1.851328e+003, 5.701844e-003
1.853256e+003, 5.641207e-003
1.855185e+003, 6.209983e-003
1.857113e+003, 6.082552e-003
1.859042e+003, 5.083313e-003
1.860970e+003, 4.427961e-003
1.862899e+003, 4.950935e-003
1.864827e+003, 5.554584e-003
1.866756e+003, 5.888506e-003
1.868684e+003, 5.401300e-003
1.870613e+003, 5.241942e-003
1.872541e+003, 5.893533e-003
1.874470e+003, 5.843040e-003
1.876398e+003, 5.523390e-003
1.878327e+003, 5.719775e-003
1.880255e+003, 5.944184e-003
1.882183e+003, 5.692670e-003
1.884112e+003, 5.540052e-003
1.886040e+003, 5.377062e-003
1.887969e+003, 5.683244e-003
1.889897e+003, 5.195218e-003
1.891826e+003, 5.110218e-003
1.893754e+003, 5.356456e-003
1.895683e+003, 5.634318e-003
1.897611e+003, 5.005870e-003
1.899540e+003, 3.937919e-003
1.901468e+003, 4.071551e-003
1.903397e+003, 4.094017e-003
1.905325e+003, 4.601909e-003
1.907254e+003, 6.222142e-003
1.909182e+003, 6.123784e-003
1.911110e+003, 4.865866e-003
1.913039e+003, 5.281928e-003
1.914967e+003, 6.566789e-003
1.916896e+003, 6.380549e-003
1.918824e+003, 4.519922e-003
1.920753e+003, 3.456241e-003
1.922681e+003, 2.992491e-003
1.924610e+003, 3.167627e-003
1.926538e+003, 3.273142e-003
1.928467e+003, 2.745504e-003
1.930395e+003, 3.171641e-003
1.932324e+003, 4.633335e-003
1.934252e+003, 4.960665e-003
1.936181e+003, 3.964470e-003
1.938109e+003, 2.289201e-003
1.940037e+003, 2.208854e-003
1.941966e+003, 1.993996e-003
1.943894e+003, 8.899398e-004
1.945823e+003, 9.681082e-004
1.947751e+003, 1.026405e-003
1.949680e+003, 3.212621e-004
1.951608e+003, 7.248542e-004
1.953537e+003, 1.507144e-003
1.955465e+003, 6.416737e-004
1.957394e+003, 3.236110e-004
1.959322e+003, -7.271093e-004
1.961251e+003, 3.120321e-005
1.963179e+003, 1.802641e-003
1.965108e+003, 3.336390e-003
1.967036e+003, 2.364504e-003
1.968964e+003, -2.809445e-004
1.970893e+003, -2.425009e-003
1.972821e+003, -4.144332e-004
1.974750e+003, 4.173078e-004
1.976678e+003, -2.223277e-003
1.978607e+003, -7.604156e-004
1.980535e+003, 1.945490e-003
1.982464e+003, 1.732443e-003
1.984392e+003, 1.208507e-005
1.986321e+003, -2.171835e-003
1.988249e+003, -1.304500e-003
1.990178e+003, 2.158908e-004
1.992106e+003, -3.208418e-004
1.994035e+003, -1.239790e-003
1.995963e+003, 7.058913e-005
1.997891e+003, 1.397475e-003
1.999820e+003, 8.686797e-004
2.001748e+003, 1.532170e-003
2.003677e+003, 3.477400e-003
2.005605e+003, 1.796632e-003
2.007534e+003, 2.887373e-003
2.009462e+003, 4.249446e-003
2.011391e+003, 3.539886e-003
2.013319e+003, 1.508664e-003
2.015248e+003, 8.774273e-004
2.017176e+003, 1.066687e-003
2.019105e+003, 2.481988e-003
2.021033e+003, 3.611765e-003
2.022962e+003, 3.024152e-003
2.024890e+003, 2.318138e-003
2.026818e+003, 3.919993e-003
2.028747e+003, 3.098360e-003
2.030675e+003, 2.303557e-003
2.032604e+003, 4.409663e-003
2.034532e+003, 4.472418e-003
2.036461e+003, 3.744240e-003
2.038389e+003, 4.389571e-003
2.040318e+003, 4.311488e-003
2.042246e+003, 3.227574e-003
2.044175e+003, 3.620723e-003
2.046103e+003, 3.647904e-003
2.048032e+003, 5.067137e-003
2.049960e+003, 7.261736e-003
2.051889e+003, 7.196188e-003
2.053817e+003, 6.021087e-003
2.055746e+003, 4.980310e-003
2.057674e+003, 5.249760e-003
2.059603e+003, 7.916074e-003
2.061531e+003, 6.871011e-003
2.063459e+003, 5.079735e-003
2.065388e+003, 5.158977e-003
2.067316e+003, 6.052398e-003
2.069245e+003, 8.489480e-003
2.071173e+003, 1.005097e-002
2.073102e+003, 9.628506e-003
2.075030e+003, 8.883136e-003
2.076959e+003, 8.685362e-003
2.078887e+003, 7.525925e-003
2.080816e+003, 7.657677e-003
2.082744e+003, 8.594562e-003
2.084673e+003, 7.582899e-003
2.086601e+003, 7.069195e-003
2.088530e+003, 7.457738e-003
2.090458e+003, 7.464576e-003
2.092386e+003, 6.252118e-003
2.094315e+003, 5.729469e-003
2.096243e+003, 7.628725e-003
2.098172e+003, 8.220266e-003
2.100100e+003, 7.073899e-003
2.102029e+003, 6.450946e-003
2.103957e+003, 6.428230e-003
2.105886e+003, 6.618746e-003
2.107814e+003, 6.495003e-003
2.109743e+003, 6.793760e-003
2.111671e+003, 6.124689e-003
2.113600e+003, 4.637127e-003
2.115528e+003, 4.886000e-003
2.117457e+003, 4.827132e-003
2.119385e+003, 4.806629e-003
2.121313e+003, 5.097161e-003
2.123242e+003, 4.327259e-003
2.125170e+003, 4.258696e-003
2.127099e+003, 6.033539e-003
2.129027e+003, 5.748059e-003
2.130956e+003, 3.409364e-003
2.132884e+003, 2.942012e-003
2.134813e+003, 3.368074e-003
2.136741e+003, 2.421413e-003
2.138670e+003, 1.892189e-003
2.140598e+003, 3.175617e-003
2.142527e+003, 4.715116e-003
2.144455e+003, 4.046265e-003
2.146384e+003, 2.098426e-003
2.148312e+003, 1.514919e-003
2.150240e+003, 6.302776e-004
2.152169e+003, -1.401115e-003
2.154097e+003, -1.166409e-003
2.156026e+003, -2.909923e-003
2.157954e+003, 5.984451e-004
2.159883e+003, 7.558945e-003
2.161811e+003, 7.416670e-003
2.163740e+003, 6.703349e-003
2.165668e+003, 7.388199e-003
2.167597e+003, 8.001661e-003
2.169525e+003, 4.494570e-003
2.171454e+003, 3.462430e-003
2.173382e+003, 5.432027e-003
2.175311e+003, 6.235539e-003
2.177239e+003, 5.536857e-003
2.179167e+003, 4.354300e-003
2.181096e+003, 5.289800e-003
2.183024e+003, 4.691097e-003
2.184953e+003, 5.000276e-003
2.186881e+003, 6.520882e-003
2.188810e+003, 4.545959e-003
2.190738e+003, 4.689089e-003
2.192667e+003, 8.608664e-003
2.194595e+003, 8.233736e-003
2.196524e+003, 6.145006e-003
2.198452e+003, 6.463743e-003
2.200381e+003, 6.337769e-003
2.202309e+003, 6.832406e-003
2.204238e+003, 9.508551e-003
2.206166e+003, 9.641448e-003
2.208094e+003, 9.154785e-003
2.210023e+003, 1.013314e-002
2.211951e+003, 9.190042e-003
2.213880e+003, 8.630753e-003
2.215808e+003, 9.401054e-003
2.217737e+003, 9.708577e-003
2.219665e+003, 1.081122e-002
2.221594e+003, 1.075913e-002
2.223522e+003, 9.516681e-003
2.225451e+003, 8.980560e-003
2.227379e+003, 8.758468e-003
2.229308e+003, 7.607869e-003
2.231236e+003, 9.973746e-003
2.233165e+003, 1.312882e-002
2.235093e+003, 1.284076e-002
2.237021e+003, 1.093233e-002
2.238950e+003, 1.192323e-002
2.240878e+003, 1.193336e-002
2.242807e+003, 1.039519e-002
2.244735e+003, 1.088759e-002
2.246664e+003, 1.096108e-002
2.248592e+003, 1.154051e-002
2.250521e+003, 1.082150e-002
2.252449e+003, 9.936695e-003
2.254378e+003, 1.013372e-002
2.256306e+003, 1.210738e-002
2.258235e+003, 1.355495e-002
2.260163e+003, 1.359412e-002
2.262092e+003, 1.341979e-002
2.264020e+003, 1.282096e-002
2.265948e+003, 1.160023e-002
2.267877e+003, 1.210473e-002
2.269805e+003, 1.294294e-002
2.271734e+003, 1.293543e-002
2.273662e+003, 1.335462e-002
2.275591e+003, 1.470544e-002
2.277519e+003, 1.500827e-002
2.279448e+003, 1.457627e-002
2.281376e+003, 1.490981e-002
2.283305e+003, 1.444541e-002
2.285233e+003, 1.397453e-002
2.287162e+003, 1.465738e-002
2.289090e+003, 1.450904e-002
2.291019e+003, 1.433443e-002
2.292947e+003, 1.464974e-002
2.294875e+003, 1.359370e-002
2.296804e+003, 1.311824e-002
2.298732e+003, 1.367328e-002
2.300661e+003, 1.418182e-002
2.302589e+003, 1.462595e-002
2.304518e+003, 1.452873e-002
2.306446e+003, 1.432831e-002
2.308375e+003, 1.446313e-002
2.310303e+003, 1.423076e-002
2.312232e+003, 1.410063e-002
2.314160e+003, 1.510270e-002
2.316089e+003, 1.613074e-002
2.318017e+003, 1.605182e-002
2.319946e+003, 1.593323e-002
2.321874e+003, 1.611469e-002
2.323802e+003, 1.568380e-002
2.325731e+003, 1.453138e-002
2.327659e+003, 1.435917e-002
2.329588e+003, 1.473320e-002
2.331516e+003, 1.457973e-002
2.333445e+003, 1.480564e-002
2.335373e+003, 1.502023e-002
2.337302e+003, 1.412884e-002
2.339230e+003, 1.352677e-002
2.341159e+003, 1.340334e-002
2.343087e+003, 1.418914e-002
2.345016e+003, 1.496486e-002
2.346944e+003, 1.437144e-002
2.348873e+003, 1.415675e-002
2.350801e+003, 1.456969e-002
2.352729e+003, 1.456989e-002
2.354658e+003, 1.447760e-002
2.356586e+003, 1.436315e-002
2.358515e+003, 1.469346e-002
2.360443e+003, 1.534241e-002
2.362372e+003, 1.500335e-002
2.364300e+003, 1.386439e-002
2.366229e+003, 1.402139e-002
2.368157e+003, 1.418250e-002
2.370086e+003, 1.403465e-002
2.372014e+003, 1.336470e-002
2.373942e+003, 1.316998e-002
2.375871e+003, 1.347578e-002
2.377799e+003, 1.410794e-002
2.379728e+003, 1.383436e-002
2.381656e+003, 1.426501e-002
2.383585e+003, 1.469675e-002
2.385513e+003, 1.293160e-002
2.387442e+003, 1.182100e-002
2.389370e+003, 1.241103e-002
2.391299e+003, 1.366629e-002
2.393227e+003, 1.328169e-002
2.395156e+003, 1.279484e-002
2.397084e+003, 1.381010e-002
2.399012e+003, 1.433673e-002
2.400941e+003, 1.426710e-002
2.402869e+003, 1.323191e-002
2.404798e+003, 1.356329e-002
2.406726e+003, 1.413437e-002
2.408655e+003, 1.477731e-002
2.410583e+003, 1.484966e-002
2.412512e+003, 1.313552e-002
2.414440e+003, 1.338736e-002
2.416369e+003, 1.492330e-002
2.418297e+003, 1.440155e-002
2.420226e+003, 1.318175e-002
2.422154e+003, 1.334426e-002
2.424083e+003, 1.382323e-002
2.426011e+003, 1.360274e-002
2.427939e+003, 1.452829e-002
2.429868e+003, 1.482507e-002
2.431796e+003, 1.407138e-002
2.433725e+003, 1.369190e-002
2.435653e+003, 1.429070e-002
2.437582e+003, 1.469407e-002
2.439510e+003, 1.430614e-002
2.441439e+003, 1.477882e-002
2.443367e+003, 1.421769e-002
2.445296e+003, 1.420522e-002
2.447224e+003, 1.391813e-002
2.449153e+003, 1.410457e-002
2.451081e+003, 1.460350e-002
2.453010e+003, 1.470492e-002
2.454938e+003, 1.493835e-002
2.456866e+003, 1.522663e-002
2.458795e+003, 1.505372e-002
2.460723e+003, 1.583048e-002
2.462652e+003, 1.489904e-002
2.464580e+003, 1.418248e-002
2.466509e+003, 1.370495e-002
2.468437e+003, 1.437303e-002
2.470366e+003, 1.440601e-002
2.472294e+003, 1.389043e-002
2.474223e+003, 1.426670e-002
2.476151e+003, 1.414588e-002
2.478080e+003, 1.354639e-002
2.480008e+003, 1.483448e-002
2.481937e+003, 1.502730e-002
2.483865e+003, 1.453778e-002
2.485793e+003, 1.522903e-002
2.487722e+003, 1.442500e-002
2.489650e+003, 1.283579e-002
2.491579e+003, 1.337407e-002
2.493507e+003, 1.402220e-002
2.495436e+003, 1.418801e-002
2.497364e+003, 1.447264e-002
2.499293e+003, 1.565270e-002
2.501221e+003, 1.553013e-002
2.503150e+003, 1.462550e-002
2.505078e+003, 1.425100e-002
2.507007e+003, 1.470987e-002
2.508935e+003, 1.603590e-002
2.510864e+003, 1.666041e-002
2.512792e+003, 1.506419e-002
2.514720e+003, 1.402376e-002
2.516649e+003, 1.409026e-002
2.518577e+003, 1.440326e-002
2.520506e+003, 1.448974e-002
2.522434e+003, 1.511553e-002
2.524363e+003, 1.604004e-002
2.526291e+003, 1.556305e-002
2.528220e+003, 1.422631e-002
2.530148e+003, 1.410423e-002
2.532077e+003, 1.444451e-002
2.534005e+003, 1.518745e-002
2.535934e+003, 1.592443e-002
2.537862e+003, 1.606291e-002
2.539791e+003, 1.555503e-002
2.541719e+003, 1.534553e-002
2.543647e+003, 1.519120e-002
2.545576e+003, 1.615173e-002
2.547504e+003, 1.626021e-002
2.549433e+003, 1.665221e-002
2.551361e+003, 1.770368e-002
2.553290e+003, 1.598606e-002
2.555218e+003, 1.500208e-002
2.557147e+003, 1.554203e-002
2.559075e+003, 1.646500e-002
2.561004e+003, 1.597672e-002
2.562932e+003, 1.475796e-002
2.564861e+003, 1.525741e-002
2.566789e+003, 1.728413e-002
2.568718e+003, 1.682806e-002
2.570646e+003, 1.531483e-002
2.572574e+003, 1.445994e-002
2.574503e+003, 1.457204e-002
2.576431e+003, 1.533178e-002
2.578360e+003, 1.596275e-002
2.580288e+003, 1.562885e-002
2.582217e+003, 1.413064e-002
2.584145e+003, 1.396680e-002
2.586074e+003, 1.615379e-002
2.588002e+003, 1.601945e-002
2.589931e+003, 1.473397e-002
2.591859e+003, 1.543836e-002
2.593788e+003, 1.629874e-002
2.595716e+003, 1.584714e-002
2.597645e+003, 1.664821e-002
2.599573e+003, 1.775679e-002
2.601501e+003, 1.802910e-002
2.603430e+003, 1.755637e-002
2.605358e+003, 1.729304e-002
2.607287e+003, 1.759586e-002
2.609215e+003, 1.746471e-002
2.611144e+003, 1.643460e-002
2.613072e+003, 1.596374e-002
2.615001e+003, 1.723148e-002
2.616929e+003, 1.811319e-002
2.618858e+003, 1.842954e-002
2.620786e+003, 1.851692e-002
2.622715e+003, 1.745102e-002
2.624643e+003, 1.691765e-002
2.626572e+003, 1.668129e-002
2.628500e+003, 1.603470e-002
2.630428e+003, 1.598325e-002
2.632357e+003, 1.646641e-002
2.634285e+003, 1.739680e-002
2.636214e+003, 1.758744e-002
2.638142e+003, 1.764971e-002
2.640071e+003, 1.863155e-002
2.641999e+003, 1.851178e-002
2.643928e+003, 1.794756e-002
2.645856e+003, 1.733105e-002
2.647785e+003, 1.734418e-002
2.649713e+003, 1.773619e-002
2.651642e+003, 1.794417e-002
2.653570e+003, 1.793128e-002
2.655499e+003, 1.716584e-002
2.657427e+003, 1.694480e-002
2.659355e+003, 1.724628e-002
2.661284e+003, 1.706228e-002
2.663212e+003, 1.703717e-002
2.665141e+003, 1.654574e-002
2.667069e+003, 1.709852e-002
2.668998e+003, 1.741526e-002
2.670926e+003, 1.636486e-002
2.672855e+003, 1.619471e-002
2.674783e+003, 1.674163e-002
2.676712e+003, 1.670341e-002
2.678640e+003, 1.658786e-002
2.680569e+003, 1.672431e-002
2.682497e+003, 1.691649e-002
2.684426e+003, 1.649491e-002
2.686354e+003, 1.647179e-002
2.688282e+003, 1.694063e-002
2.690211e+003, 1.686000e-002
2.692139e+003, 1.695425e-002
2.694068e+003, 1.704216e-002
2.695996e+003, 1.710245e-002
2.697925e+003, 1.650660e-002
2.699853e+003, 1.655819e-002
2.701782e+003, 1.719863e-002
2.703710e+003, 1.759995e-002
2.705639e+003, 1.783214e-002
2.707567e+003, 1.757089e-002
2.709496e+003, 1.696455e-002
2.711424e+003, 1.654613e-002
2.713353e+003, 1.620308e-002
2.715281e+003, 1.726790e-002
2.717209e+003, 1.780521e-002
2.719138e+003, 1.735440e-002
2.721066e+003, 1.746083e-002
2.722995e+003, 1.772456e-002
2.724923e+003, 1.760468e-002
2.726852e+003, 1.724596e-002
2.728780e+003, 1.654790e-002
2.730709e+003, 1.650686e-002
2.732637e+003, 1.764070e-002
2.734566e+003, 1.812081e-002
2.736494e+003, 1.742330e-002
2.738423e+003, 1.778826e-002
2.740351e+003, 1.816865e-002
2.742280e+003, 1.740043e-002
2.744208e+003, 1.741737e-002
2.746136e+003, 1.814021e-002
2.748065e+003, 1.857966e-002
2.749993e+003, 1.829043e-002
2.751922e+003, 1.763413e-002
2.753850e+003, 1.777958e-002
2.755779e+003, 1.831275e-002
2.757707e+003, 1.853000e-002
2.759636e+003, 1.878071e-002
2.761564e+003, 1.863501e-002
2.763493e+003, 1.787004e-002
2.765421e+003, 1.784997e-002
2.767350e+003, 1.803124e-002
2.769278e+003, 1.794982e-002
2.771207e+003, 1.836346e-002
2.773135e+003, 1.783909e-002
2.775063e+003, 1.714947e-002
2.776992e+003, 1.786525e-002
2.778920e+003, 1.774176e-002
2.780849e+003, 1.791182e-002
2.782777e+003, 1.841441e-002
2.784706e+003, 1.850561e-002
2.786634e+003, 1.875423e-002
2.788563e+003, 1.867721e-002
2.790491e+003, 1.881347e-002
2.792420e+003, 1.815951e-002
2.794348e+003, 1.725285e-002
2.796277e+003, 1.855970e-002
2.798205e+003, 1.950208e-002
2.800134e+003, 1.922125e-002
2.802062e+003, 1.934619e-002
2.803990e+003, 1.891445e-002
2.805919e+003, 1.828456e-002
2.807847e+003, 1.751766e-002
2.809776e+003, 1.849598e-002
2.811704e+003, 2.021236e-002
2.813633e+003, 2.040422e-002
2.815561e+003, 2.012676e-002
2.817490e+003, 1.959994e-002
2.819418e+003, 1.906029e-002
2.821347e+003, 1.891621e-002
2.823275e+003, 1.884843e-002
2.825204e+003, 1.902922e-002
2.827132e+003, 1.993879e-002
2.829061e+003, 2.037275e-002
2.830989e+003, 2.033441e-002
2.832917e+003, 2.027973e-002
2.834846e+003, 1.954055e-002
2.836774e+003, 1.926348e-002
2.838703e+003, 1.985281e-002
2.840631e+003, 2.100646e-002
2.842560e+003, 2.056420e-002
2.844488e+003, 1.961133e-002
2.846417e+003, 1.971012e-002
2.848345e+003, 2.051595e-002
2.850274e+003, 2.090026e-002
2.852202e+003, 2.063658e-002
2.854131e+003, 1.990418e-002
2.856059e+003, 1.906688e-002
2.857988e+003, 1.885937e-002
2.859916e+003, 1.904300e-002
2.861844e+003, 1.909925e-002
2.863773e+003, 1.977718e-002
2.865701e+003, 1.976269e-002
2.867630e+003, 1.877902e-002
2.869558e+003, 1.981064e-002
2.871487e+003, 2.127667e-002
2.873415e+003, 2.122385e-002
2.875344e+003, 1.957640e-002
2.877272e+003, 2.006698e-002
2.879201e+003, 2.219706e-002
2.881129e+003, 2.126140e-002
2.883058e+003, 2.067179e-002
2.884986e+003, 2.156366e-002
2.886915e+003, 2.090228e-002
2.888843e+003, 2.010557e-002
2.890771e+003, 1.975834e-002
2.892700e+003, 2.063129e-002
2.894628e+003, 2.171695e-002
2.896557e+003, 2.153128e-002
2.898485e+003, 2.116235e-002
2.900414e+003, 1.998235e-002
2.902342e+003, 2.003371e-002
2.904271e+003, 2.087346e-002
2.906199e+003, 2.077207e-002
2.908128e+003, 2.160775e-002
2.910056e+003, 2.119620e-002
2.911985e+003, 2.107508e-002
2.913913e+003, 2.200663e-002
2.915842e+003, 2.187342e-002
2.917770e+003, 2.187132e-002
2.919698e+003, 2.208171e-002
2.921627e+003, 2.172383e-002
2.923555e+003, 2.132005e-002
2.925484e+003, 2.093431e-002
2.927412e+003, 2.031793e-002
2.929341e+003, 1.868510e-002
2.931269e+003, 1.880262e-002
2.933198e+003, 1.927017e-002
2.935126e+003, 1.897522e-002
2.937055e+003, 1.953477e-002
2.938983e+003, 1.914853e-002
2.940912e+003, 1.924375e-002
2.942840e+003, 1.981095e-002
2.944769e+003, 2.035204e-002
2.946697e+003, 2.062047e-002
2.948625e+003, 2.022364e-002
2.950554e+003, 1.952746e-002
2.952482e+003, 1.856565e-002
2.954411e+003, 1.922038e-002
2.956339e+003, 1.953274e-002
2.958268e+003, 1.869754e-002
2.960196e+003, 1.788983e-002
2.962125e+003, 1.817438e-002
2.964053e+003, 1.890604e-002
2.965982e+003, 1.949917e-002
2.967910e+003, 1.946943e-002
2.969839e+003, 1.976722e-002
2.971767e+003, 2.057990e-002
2.973696e+003, 2.054816e-002
2.975624e+003, 1.994245e-002
2.977552e+003, 1.936725e-002
2.979481e+003, 1.911276e-002
2.981409e+003, 2.042953e-002
2.983338e+003, 2.094419e-002
2.985266e+003, 2.071071e-002
2.987195e+003, 2.089947e-002
2.989123e+003, 2.212851e-002
2.991052e+003, 2.151127e-002
2.992980e+003, 2.074833e-002
2.994909e+003, 2.137979e-002
2.996837e+003, 2.113210e-002
2.998766e+003, 2.122092e-002
3.000694e+003, 2.118107e-002
3.002623e+003, 2.079375e-002
3.004551e+003, 2.043189e-002
3.006479e+003, 2.017157e-002
3.008408e+003, 2.187534e-002
3.010336e+003, 2.286599e-002
3.012265e+003, 2.101934e-002
3.014193e+003, 2.085233e-002
3.016122e+003, 2.056640e-002
3.018050e+003, 1.925472e-002
3.019979e+003, 2.036292e-002
3.021907e+003, 2.047222e-002
3.023836e+003, 1.964747e-002
3.025764e+003, 1.994157e-002
3.027693e+003, 2.039785e-002
3.029621e+003, 2.057203e-002
3.031550e+003, 2.047262e-002
3.033478e+003, 1.981122e-002
3.035406e+003, 1.927109e-002
3.037335e+003, 1.971289e-002
3.039263e+003, 2.041288e-002
3.041192e+003, 2.046039e-002
3.043120e+003, 1.987207e-002
3.045049e+003, 1.958524e-002
3.046977e+003, 2.091782e-002
3.048906e+003, 2.060905e-002
3.050834e+003, 1.937023e-002
3.052763e+003, 2.008097e-002
3.054691e+003, 2.141009e-002
3.056620e+003, 2.060766e-002
3.058548e+003, 1.990220e-002
3.060477e+003, 2.076033e-002
3.062405e+003, 2.254597e-002
3.064333e+003, 2.269956e-002
3.066262e+003, 2.196611e-002
3.068190e+003, 2.316076e-002
3.070119e+003, 2.366722e-002
3.072047e+003, 2.242505e-002
3.073976e+003, 2.211198e-002
3.075904e+003, 2.155584e-002
3.077833e+003, 2.236603e-002
3.079761e+003, 2.367366e-002
3.081690e+003, 2.349810e-002
3.083618e+003, 2.326297e-002
3.085547e+003, 2.250965e-002
3.087475e+003, 2.189387e-002
3.089404e+003, 2.129445e-002
3.091332e+003, 2.169237e-002
3.093260e+003, 2.249119e-002
3.095189e+003, 2.282115e-002
3.097117e+003, 2.236664e-002
3.099046e+003, 2.147805e-002
3.100974e+003, 2.164242e-002
3.102903e+003, 2.244184e-002
3.104831e+003, 2.185321e-002
3.106760e+003, 2.180086e-002
3.108688e+003, 2.189265e-002
3.110617e+003, 2.356621e-002
3.112545e+003, 2.527201e-002
3.114474e+003, 2.530590e-002
3.116402e+003, 2.363783e-002
3.118331e+003, 2.238632e-002
3.120259e+003, 2.388906e-002
3.122188e+003, 2.458670e-002
3.124116e+003, 2.346072e-002
3.126044e+003, 2.297337e-002
3.127973e+003, 2.348889e-002
3.129901e+003, 2.284929e-002
3.131830e+003, 2.225119e-002
3.133758e+003, 2.126192e-002
3.135687e+003, 2.126819e-002
3.137615e+003, 2.261714e-002
3.139544e+003, 2.393638e-002
3.141472e+003, 2.516114e-002
3.143401e+003, 2.665189e-002
3.145329e+003, 2.627622e-002
3.147258e+003, 2.584249e-002
3.149186e+003, 2.550791e-002
3.151115e+003, 2.443496e-002
3.153043e+003, 2.492387e-002
3.154971e+003, 2.595848e-002
3.156900e+003, 2.559827e-002
3.158828e+003, 2.479185e-002
3.160757e+003, 2.335468e-002
3.162685e+003, 2.308067e-002
3.164614e+003, 2.525177e-002
3.166542e+003, 2.487425e-002
3.168471e+003, 2.357954e-002
3.170399e+003, 2.455055e-002
3.172328e+003, 2.552990e-002
3.174256e+003, 2.626218e-002
3.176185e+003, 2.641929e-002
3.178113e+003, 2.390933e-002
3.180042e+003, 2.364784e-002
3.181970e+003, 2.482517e-002
3.183898e+003, 2.451703e-002
3.185827e+003, 2.543124e-002
3.187755e+003, 2.687306e-002
3.189684e+003, 2.652188e-002
3.191612e+003, 2.574966e-002
3.193541e+003, 2.619383e-002
3.195469e+003, 2.687394e-002
3.197398e+003, 2.658213e-002
3.199326e+003, 2.528886e-002
3.201255e+003, 2.400915e-002
3.203183e+003, 2.359812e-002
3.205112e+003, 2.504054e-002
3.207040e+003, 2.701062e-002
3.208969e+003, 2.575373e-002
3.210897e+003, 2.505756e-002
3.212825e+003, 2.572657e-002
3.214754e+003, 2.510177e-002
3.216682e+003, 2.410121e-002
3.218611e+003, 2.479484e-002
3.220539e+003, 2.491254e-002
3.222468e+003, 2.487545e-002
3.224396e+003, 2.440854e-002
3.226325e+003, 2.499804e-002
3.228253e+003, 2.679196e-002
3.230182e+003, 2.787979e-002
3.232110e+003, 2.894852e-002
3.234039e+003, 2.786784e-002
3.235967e+003, 2.762426e-002
3.237896e+003, 2.839526e-002
3.239824e+003, 2.863397e-002
3.241752e+003, 2.841474e-002
3.243681e+003, 2.590048e-002
3.245609e+003, 2.464538e-002
3.247538e+003, 2.462984e-002
3.249466e+003, 2.568460e-002
3.251395e+003, 2.582932e-002
3.253323e+003, 2.592260e-002
3.255252e+003, 2.754607e-002
3.257180e+003, 2.832863e-002
3.259109e+003, 2.755097e-002
3.261037e+003, 2.725209e-002
3.262966e+003, 2.850507e-002
3.264894e+003, 2.876945e-002
3.266823e+003, 2.862155e-002
3.268751e+003, 2.988771e-002
3.270679e+003, 2.980522e-002
3.272608e+003, 2.821267e-002
3.274536e+003, 2.825947e-002
3.276465e+003, 2.795431e-002
3.278393e+003, 2.907697e-002
3.280322e+003, 2.888517e-002
3.282250e+003, 2.822134e-002
3.284179e+003, 2.927047e-002
3.286107e+003, 3.087476e-002
3.288036e+003, 2.943330e-002
3.289964e+003, 2.820588e-002
3.291893e+003, 2.662010e-002
3.293821e+003, 2.748393e-002
3.295750e+003, 2.995249e-002
3.297678e+003, 3.081537e-002
3.299606e+003, 3.202768e-002
3.301535e+003, 3.096458e-002
3.303463e+003, 2.890510e-002
3.305392e+003, 2.714846e-002
3.307320e+003, 2.858395e-002
3.309249e+003, 2.937765e-002
3.311177e+003, 2.876167e-002
3.313106e+003, 2.999489e-002
3.315034e+003, 2.906110e-002
3.316963e+003, 2.849973e-002
3.318891e+003, 2.866858e-002
3.320820e+003, 2.827209e-002
3.322748e+003, 2.927783e-002
3.324677e+003, 3.077170e-002
3.326605e+003, 3.110701e-002
3.328533e+003, 3.096973e-002
3.330462e+003, 2.967715e-002
3.332390e+003, 2.932600e-002
3.334319e+003, 3.103400e-002
3.336247e+003, 3.182621e-002
3.338176e+003, 3.225945e-002
3.340104e+003, 3.165191e-002
3.342033e+003, 3.037544e-002
3.343961e+003, 3.095429e-002
3.345890e+003, 3.234832e-002
3.347818e+003, 3.257933e-002
3.349747e+003, 3.292060e-002
3.351675e+003, 3.525012e-002
3.353604e+003, 3.475476e-002
3.355532e+003, 3.215159e-002
3.357460e+003, 3.050453e-002
3.359389e+003, 2.922001e-002
3.361317e+003, 3.209773e-002
3.363246e+003, 3.453281e-002
3.365174e+003, 3.452536e-002
3.367103e+003, 3.465313e-002
3.369031e+003, 3.478899e-002
3.370960e+003, 3.418277e-002
3.372888e+003, 3.273947e-002
3.374817e+003, 3.297879e-002
3.376745e+003, 3.383537e-002
3.378674e+003, 3.466671e-002
3.380602e+003, 3.382106e-002
3.382531e+003, 3.203463e-002
3.384459e+003, 3.296551e-002
3.386387e+003, 3.520856e-002
3.388316e+003, 3.612725e-002
3.390244e+003, 3.708315e-002
3.392173e+003, 3.753876e-002
3.394101e+003, 3.527915e-002
3.396030e+003, 3.418982e-002
3.397958e+003, 3.706018e-002
3.399887e+003, 3.984545e-002
3.401815e+003, 3.928025e-002
3.403744e+003, 3.739209e-002
3.405672e+003, 3.797504e-002
3.407601e+003, 3.832204e-002
3.409529e+003, 3.802563e-002
3.411458e+003, 3.772317e-002
3.413386e+003, 3.928380e-002
3.415314e+003, 4.035581e-002
3.417243e+003, 3.911743e-002
3.419171e+003, 3.960770e-002
3.421100e+003, 4.105905e-002
3.423028e+003, 4.220635e-002
3.424957e+003, 4.427250e-002
3.426885e+003, 4.399408e-002
3.428814e+003, 4.499912e-002
3.430742e+003, 4.546452e-002
3.432671e+003, 4.783094e-002
3.434599e+003, 5.088269e-002
3.436528e+003, 5.323385e-002
3.438456e+003, 5.466461e-002
3.440385e+003, 5.579877e-002
3.442313e+003, 5.637318e-002
3.444241e+003, 5.983661e-002
3.446170e+003, 6.083841e-002
3.448098e+003, 6.165877e-002
3.450027e+003, 6.343629e-002
3.451955e+003, 6.591096e-002
3.453884e+003, 6.892713e-002
3.455812e+003, 6.809469e-002
3.457741e+003, 6.534031e-002
3.459669e+003, 6.598849e-002
3.461598e+003, 6.890211e-002
3.463526e+003, 7.131346e-002
3.465455e+003, 7.214691e-002
3.467383e+003, 7.390085e-002
3.469312e+003, 7.555516e-002
3.471240e+003, 7.854832e-002
3.473168e+003, 8.302618e-002
3.475097e+003, 8.747023e-002
3.477025e+003, 9.605862e-002
3.478954e+003, 1.028200e-001
3.480882e+003, 1.021257e-001
3.482811e+003, 9.921910e-002
3.484739e+003, 9.678970e-002
3.486668e+003, 9.161386e-002
3.488596e+003, 8.764671e-002
3.490525e+003, 8.351159e-002
3.492453e+003, 7.934469e-002
3.494382e+003, 7.201709e-002
3.496310e+003, 6.178056e-002
3.498239e+003, 5.659674e-002
3.500167e+003, 5.361556e-002
3.502095e+003, 4.714159e-002
3.504024e+003, 4.184944e-002
3.505952e+003, 3.650846e-002
3.507881e+003, 3.496072e-002
3.509809e+003, 3.368466e-002
3.511738e+003, 2.919617e-002
3.513666e+003, 2.911454e-002
3.515595e+003, 2.866243e-002
3.517523e+003, 2.711106e-002
3.519452e+003, 2.776011e-002
3.521380e+003, 2.674829e-002
3.523309e+003, 2.441407e-002
3.525237e+003, 2.582462e-002
3.527166e+003, 2.450041e-002
3.529094e+003, 2.288463e-002
3.531022e+003, 2.314353e-002
3.532951e+003, 2.235748e-002
3.534879e+003, 2.176633e-002
3.536808e+003, 2.434753e-002
3.538736e+003, 2.412114e-002
3.540665e+003, 2.394970e-002
3.542593e+003, 2.325464e-002
3.544522e+003, 2.391998e-002
3.546450e+003, 2.588918e-002
3.548379e+003, 2.691361e-002
3.550307e+003, 2.582349e-002
3.552236e+003, 2.457478e-002
3.554164e+003, 2.248041e-002
3.556093e+003, 2.169064e-002
3.558021e+003, 2.260559e-002
3.559949e+003, 2.313776e-002
3.561878e+003, 2.444139e-002
3.563806e+003, 2.524560e-002
3.565735e+003, 2.311492e-002
3.567663e+003, 2.117318e-002
3.569592e+003, 2.453888e-002
3.571520e+003, 2.558838e-002
3.573449e+003, 2.576306e-002
3.575377e+003, 2.699788e-002
3.577306e+003, 2.675807e-002
3.579234e+003, 2.782533e-002
3.581163e+003, 2.572122e-002
3.583091e+003, 2.550064e-002
3.585020e+003, 2.562643e-002
3.586948e+003, 2.471215e-002
3.588876e+003, 2.499389e-002
3.590805e+003, 2.558538e-002
3.592733e+003, 2.565231e-002
3.594662e+003, 2.589341e-002
3.596590e+003, 2.576183e-002
3.598519e+003, 2.715453e-002
3.600447e+003, 2.592804e-002
3.602376e+003, 2.561115e-002
3.604304e+003, 2.465129e-002
3.606233e+003, 2.302765e-002
3.608161e+003, 2.459278e-002
3.610090e+003, 2.427385e-002
3.612018e+003, 2.212628e-002
3.613947e+003, 2.101992e-002
3.615875e+003, 2.092643e-002
3.617803e+003, 2.087714e-002
3.619732e+003, 2.245247e-002
3.621660e+003, 2.553425e-002
3.623589e+003, 2.399233e-002
3.625517e+003, 2.180884e-002
3.627446e+003, 1.989561e-002
3.629374e+003, 2.196906e-002
3.631303e+003, 2.674611e-002
3.633231e+003, 2.570982e-002
3.635160e+003, 2.777921e-002
3.637088e+003, 3.075964e-002
3.639017e+003, 2.686463e-002
3.640945e+003, 2.222396e-002
3.642874e+003, 2.468050e-002
3.644802e+003, 2.892473e-002
3.646730e+003, 2.807005e-002
3.648659e+003, 2.506027e-002
3.650587e+003, 2.057037e-002
3.652516e+003, 2.051814e-002
3.654444e+003, 2.304139e-002
3.656373e+003, 2.379422e-002
3.658301e+003, 2.459268e-002
3.660230e+003, 2.329612e-002
3.662158e+003, 2.244982e-002
3.664087e+003, 2.269211e-002
3.666015e+003, 2.114993e-002
3.667944e+003, 2.070695e-002
3.669872e+003, 2.297542e-002
3.671801e+003, 2.356934e-002
3.673729e+003, 2.231565e-002
3.675657e+003, 2.190804e-002
3.677586e+003, 2.369470e-002
3.679514e+003, 2.444406e-002
3.681443e+003, 2.581532e-002
3.683371e+003, 2.639742e-002
3.685300e+003, 2.496043e-002
3.687228e+003, 2.153170e-002
3.689157e+003, 1.951179e-002
3.691085e+003, 2.173439e-002
3.693014e+003, 2.740559e-002
3.694942e+003, 2.732704e-002
3.696871e+003, 2.309499e-002
3.698799e+003, 2.525114e-002
3.700728e+003, 2.601158e-002
3.702656e+003, 2.408889e-002
3.704584e+003, 2.470037e-002
3.706513e+003, 2.396224e-002
3.708441e+003, 2.370785e-002
3.710370e+003, 2.394629e-002
3.712298e+003, 2.585747e-002
3.714227e+003, 2.829609e-002
3.716155e+003, 2.880891e-002
3.718084e+003, 2.575069e-002
3.720012e+003, 2.226945e-002
3.721941e+003, 2.297392e-002
3.723869e+003, 2.512413e-002
3.725798e+003, 2.520435e-002
3.727726e+003, 2.618595e-002
3.729655e+003, 2.637980e-002
3.731583e+003, 2.454426e-002
3.733511e+003, 2.530703e-002
3.735440e+003, 2.091052e-002
3.737368e+003, 2.121142e-002
3.739297e+003, 2.738016e-002
3.741225e+003, 2.621790e-002
3.743154e+003, 2.354673e-002
3.745082e+003, 2.366965e-002
3.747011e+003, 2.289825e-002
3.748939e+003, 2.260602e-002
3.750868e+003, 2.574483e-002
3.752796e+003, 3.025499e-002
3.754725e+003, 3.049633e-002
3.756653e+003, 3.069227e-002
3.758582e+003, 2.856722e-002
3.760510e+003, 2.283152e-002
3.762438e+003, 2.269071e-002
3.764367e+003, 2.440636e-002
3.766295e+003, 2.844223e-002
3.768224e+003, 2.791210e-002
3.770152e+003, 2.573184e-002
3.772081e+003, 2.467568e-002
3.774009e+003, 2.610296e-002
3.775938e+003, 2.586972e-002
3.777866e+003, 2.703904e-002
3.779795e+003, 3.103457e-002
3.781723e+003, 3.257585e-002
3.783652e+003, 3.034009e-002
3.785580e+003, 3.031538e-002
3.787509e+003, 2.754612e-002
3.789437e+003, 2.666355e-002
3.791365e+003, 3.049725e-002
3.793294e+003, 3.071146e-002
3.795222e+003, 2.949782e-002
3.797151e+003, 2.821670e-002
3.799079e+003, 2.638838e-002
3.801008e+003, 2.728806e-002
3.802936e+003, 2.568858e-002
3.804865e+003, 2.348153e-002
3.806793e+003, 2.180292e-002
3.808722e+003, 2.464087e-002
3.810650e+003, 3.190011e-002
3.812579e+003, 3.168976e-002
3.814507e+003, 2.790265e-002
3.816436e+003, 3.107403e-002
3.818364e+003, 3.356953e-002
3.820292e+003, 2.850808e-002
3.822221e+003, 2.757003e-002
3.824149e+003, 2.995619e-002
3.826078e+003, 2.813544e-002
3.828006e+003, 2.596389e-002
3.829935e+003, 2.642204e-002
3.831863e+003, 2.543491e-002
3.833792e+003, 2.937588e-002
3.835720e+003, 3.310325e-002
3.837649e+003, 3.051580e-002
3.839577e+003, 3.010127e-002
3.841506e+003, 3.072234e-002
3.843434e+003, 3.067900e-002
3.845363e+003, 3.092262e-002
3.847291e+003, 3.035414e-002
3.849219e+003, 3.008440e-002
3.851148e+003, 2.414563e-002
3.853076e+003, 1.829744e-002
3.855005e+003, 2.107728e-002
3.856933e+003, 2.394928e-002
3.858862e+003, 2.801053e-002
3.860790e+003, 2.741026e-002
3.862719e+003, 2.248638e-002
3.864647e+003, 1.991113e-002
3.866576e+003, 2.486595e-002
3.868504e+003, 2.721744e-002
3.870433e+003, 2.801076e-002
3.872361e+003, 2.853280e-002
3.874290e+003, 2.960774e-002
3.876218e+003, 3.049614e-002
3.878146e+003, 2.859263e-002
3.880075e+003, 2.820845e-002
3.882003e+003, 3.005279e-002
3.883932e+003, 3.141617e-002
3.885860e+003, 3.045612e-002
3.887789e+003, 2.858980e-002
3.889717e+003, 2.744754e-002
3.891646e+003, 2.792891e-002
3.893574e+003, 2.839463e-002
3.895503e+003, 3.062315e-002
3.897431e+003, 2.886626e-002
3.899360e+003, 2.815075e-002
3.901288e+003, 3.176817e-002
3.903217e+003, 3.180850e-002
3.905145e+003, 3.173968e-002
3.907073e+003, 3.374832e-002
3.909002e+003, 3.192279e-002
3.910930e+003, 3.000634e-002
3.912859e+003, 2.676940e-002
3.914787e+003, 2.771145e-002
3.916716e+003, 3.210671e-002
3.918644e+003, 2.933357e-002
3.920573e+003, 2.416800e-002
3.922501e+003, 2.546462e-002
3.924430e+003, 3.027641e-002
3.926358e+003, 3.143713e-002
3.928287e+003, 2.918752e-002
3.930215e+003, 3.183679e-002
3.932144e+003, 3.239471e-002
3.934072e+003, 3.258473e-002
3.936000e+003, 3.110291e-002
3.937929e+003, 2.911899e-002
3.939857e+003, 2.997964e-002
3.941786e+003, 3.155716e-002
3.943714e+003, 3.163815e-002
3.945643e+003, 3.213184e-002
3.947571e+003, 3.141403e-002
3.949500e+003, 3.060267e-002
3.951428e+003, 3.260327e-002
3.953357e+003, 3.154528e-002
3.955285e+003, 2.899497e-002
3.957214e+003, 3.121957e-002
3.959142e+003, 3.354942e-002
3.961071e+003, 3.213128e-002
3.962999e+003, 2.975182e-002
3.964927e+003, 3.107237e-002
3.966856e+003, 3.401216e-002
3.968784e+003, 3.434708e-002
3.970713e+003, 3.643497e-002
3.972641e+003, 3.498746e-002
3.974570e+003, 3.207812e-002
3.976498e+003, 3.071366e-002
3.978427e+003, 2.654910e-002
3.980355e+003, 2.716440e-002
3.982284e+003, 3.016633e-002
3.984212e+003, 2.896832e-002
3.986141e+003, 2.828542e-002
3.988069e+003, 3.146850e-002
3.989998e+003, 3.210027e-002
3.991926e+003, 3.331710e-002
3.993854e+003, 3.497939e-002
3.995783e+003, 3.384705e-002
3.997711e+003, 3.136590e-002
3.999640e+003, 3.138104e-002
##END=



