##NAMES=Reedmergnerite
##RRUFFID=R060096
##IDEAL CHEMISTRY=NaBSi_3_O_8_
##LOCALITY=Dara-i-Pioz, Tadjikistan
##OWNER=RRUFF
##SOURCE=University of Arizona Mineral Museum
##DESCRIPTION=Colorless fragment
##STATUS=The identification of this mineral has been confirmed by X-ray diffraction and chemical analysis
##URL=rruff.info/R060096
##MEASURED CHEMISTRY=Na_1.00_B_1.00_Si_3.00_O_8_
3.991926e+002, 7.607839e-002
4.011211e+002, 7.878846e-002
4.030495e+002, 8.451642e-002
4.049780e+002, 9.409212e-002
4.069065e+002, 1.031700e-001
4.088349e+002, 1.143044e-001
4.107634e+002, 1.257211e-001
4.126919e+002, 1.380603e-001
4.146203e+002, 1.468789e-001
4.165488e+002, 1.500840e-001
4.184773e+002, 1.440783e-001
4.204057e+002, 1.330408e-001
4.223342e+002, 1.216030e-001
4.242627e+002, 1.103368e-001
4.261911e+002, 1.024886e-001
4.281196e+002, 9.813187e-002
4.300481e+002, 9.648038e-002
4.319765e+002, 9.585432e-002
4.339050e+002, 9.450652e-002
4.358335e+002, 9.226354e-002
4.377619e+002, 9.038347e-002
4.396904e+002, 9.145417e-002
4.416189e+002, 9.514678e-002
4.435473e+002, 1.008496e-001
4.454758e+002, 1.081884e-001
4.474043e+002, 1.170289e-001
4.493327e+002, 1.260283e-001
4.512612e+002, 1.337287e-001
4.531897e+002, 1.364933e-001
4.551181e+002, 1.317117e-001
4.570466e+002, 1.276684e-001
4.589751e+002, 1.321892e-001
4.609035e+002, 1.414864e-001
4.628320e+002, 1.496530e-001
4.647605e+002, 1.532633e-001
4.666889e+002, 1.518996e-001
4.686174e+002, 1.441902e-001
4.705459e+002, 1.324495e-001
4.724743e+002, 1.194978e-001
4.744028e+002, 1.084676e-001
4.763313e+002, 1.011003e-001
4.782597e+002, 9.576153e-002
4.801882e+002, 9.051282e-002
4.821167e+002, 8.371609e-002
4.840451e+002, 7.534448e-002
4.859736e+002, 6.707974e-002
4.879021e+002, 6.136779e-002
4.898305e+002, 5.981970e-002
4.917590e+002, 6.238931e-002
4.936875e+002, 6.872433e-002
4.956159e+002, 7.584444e-002
4.975444e+002, 8.134598e-002
4.994729e+002, 8.208668e-002
5.014013e+002, 7.737089e-002
5.033298e+002, 6.852180e-002
5.052583e+002, 5.890665e-002
5.071867e+002, 5.063850e-002
5.091152e+002, 4.326137e-002
5.110437e+002, 3.831156e-002
5.129721e+002, 3.626149e-002
5.149006e+002, 3.525508e-002
5.168290e+002, 3.543079e-002
5.187575e+002, 3.699454e-002
5.206860e+002, 3.953670e-002
5.226144e+002, 4.279248e-002
5.245429e+002, 4.753770e-002
5.264714e+002, 5.292398e-002
5.283998e+002, 5.885719e-002
5.303283e+002, 6.458500e-002
5.322568e+002, 6.835041e-002
5.341852e+002, 6.980695e-002
5.361137e+002, 6.750587e-002
5.380422e+002, 6.129765e-002
5.399706e+002, 5.298251e-002
5.418991e+002, 4.397721e-002
5.438276e+002, 3.534527e-002
5.457560e+002, 2.860889e-002
5.476845e+002, 2.473930e-002
5.496130e+002, 2.247042e-002
5.515414e+002, 2.087882e-002
5.534699e+002, 1.997216e-002
5.553984e+002, 1.946651e-002
5.573268e+002, 1.932111e-002
5.592553e+002, 1.907592e-002
5.611838e+002, 1.885767e-002
5.631122e+002, 1.904177e-002
5.650407e+002, 1.951871e-002
5.669692e+002, 1.974930e-002
5.688976e+002, 1.976679e-002
5.708261e+002, 2.038497e-002
5.727546e+002, 2.081115e-002
5.746830e+002, 2.124983e-002
5.766115e+002, 2.173533e-002
5.785400e+002, 2.246289e-002
5.804684e+002, 2.297063e-002
5.823969e+002, 2.366592e-002
5.843254e+002, 2.479014e-002
5.862538e+002, 2.621493e-002
5.881823e+002, 2.730484e-002
5.901108e+002, 2.824107e-002
5.920392e+002, 2.968739e-002
5.939677e+002, 3.130309e-002
5.958962e+002, 3.308292e-002
5.978246e+002, 3.530144e-002
5.997531e+002, 3.800721e-002
6.016816e+002, 4.135001e-002
6.036100e+002, 4.534076e-002
6.055385e+002, 5.045778e-002
6.074670e+002, 5.716437e-002
6.093954e+002, 6.546157e-002
6.113239e+002, 7.505539e-002
6.132524e+002, 8.218575e-002
6.151808e+002, 8.166423e-002
6.171093e+002, 7.295839e-002
6.190378e+002, 6.264815e-002
6.209662e+002, 5.608504e-002
6.228947e+002, 5.353175e-002
6.248232e+002, 5.368145e-002
6.267516e+002, 5.574537e-002
6.286801e+002, 5.887593e-002
6.306086e+002, 6.297591e-002
6.325370e+002, 6.803355e-002
6.344655e+002, 7.409306e-002
6.363940e+002, 8.079307e-002
6.383224e+002, 8.817250e-002
6.402509e+002, 9.617363e-002
6.421794e+002, 1.043601e-001
6.441078e+002, 1.125855e-001
6.460363e+002, 1.203307e-001
6.479648e+002, 1.270619e-001
6.498932e+002, 1.323097e-001
6.518217e+002, 1.360759e-001
6.537502e+002, 1.380912e-001
6.556786e+002, 1.379924e-001
6.576071e+002, 1.349194e-001
6.595356e+002, 1.291636e-001
6.614641e+002, 1.209730e-001
6.633925e+002, 1.103756e-001
6.653210e+002, 9.810717e-002
6.672495e+002, 8.557924e-002
6.691779e+002, 7.366608e-002
6.711064e+002, 6.430053e-002
6.730349e+002, 5.876567e-002
6.749633e+002, 5.757936e-002
6.768918e+002, 6.052579e-002
6.788203e+002, 6.737375e-002
6.807487e+002, 7.824789e-002
6.826772e+002, 9.142468e-002
6.846057e+002, 1.028603e-001
6.865341e+002, 1.077903e-001
6.884626e+002, 1.037319e-001
6.903911e+002, 9.238429e-002
6.923195e+002, 7.758810e-002
6.942480e+002, 6.292823e-002
6.961765e+002, 5.093237e-002
6.981049e+002, 4.184846e-002
7.000334e+002, 3.576317e-002
7.019619e+002, 3.209580e-002
7.038903e+002, 3.030600e-002
7.058188e+002, 2.929882e-002
7.077473e+002, 2.877111e-002
7.096757e+002, 2.908154e-002
7.116042e+002, 3.041174e-002
7.135327e+002, 3.242797e-002
7.154611e+002, 3.552570e-002
7.173896e+002, 4.056055e-002
7.193181e+002, 4.843159e-002
7.212465e+002, 5.911871e-002
7.231750e+002, 7.052416e-002
7.251035e+002, 7.567229e-002
7.270319e+002, 6.820246e-002
7.289604e+002, 5.345782e-002
7.308889e+002, 4.014220e-002
7.328173e+002, 3.151838e-002
7.347458e+002, 2.682453e-002
7.366743e+002, 2.437592e-002
7.386027e+002, 2.300267e-002
7.405312e+002, 2.233492e-002
7.424597e+002, 2.197147e-002
7.443881e+002, 2.169638e-002
7.463166e+002, 2.181954e-002
7.482451e+002, 2.212529e-002
7.501735e+002, 2.260352e-002
7.521020e+002, 2.322019e-002
7.540305e+002, 2.391539e-002
7.559589e+002, 2.495309e-002
7.578874e+002, 2.606858e-002
7.598159e+002, 2.759479e-002
7.617443e+002, 2.939798e-002
7.636728e+002, 3.158199e-002
7.656013e+002, 3.432740e-002
7.675297e+002, 3.791757e-002
7.694582e+002, 4.253086e-002
7.713867e+002, 4.822515e-002
7.733151e+002, 5.394850e-002
7.752436e+002, 5.809456e-002
7.771721e+002, 5.838431e-002
7.791005e+002, 5.414282e-002
7.810290e+002, 4.773619e-002
7.829575e+002, 4.194009e-002
7.848859e+002, 3.758268e-002
7.868144e+002, 3.507274e-002
7.887429e+002, 3.386008e-002
7.906713e+002, 3.341395e-002
7.925998e+002, 3.343298e-002
7.945283e+002, 3.370378e-002
7.964567e+002, 3.425574e-002
7.983852e+002, 3.471901e-002
8.003137e+002, 3.499166e-002
8.022421e+002, 3.513286e-002
8.041706e+002, 3.527464e-002
8.060991e+002, 3.542005e-002
8.080275e+002, 3.568470e-002
8.099560e+002, 3.619601e-002
8.118845e+002, 3.671270e-002
8.138129e+002, 3.727941e-002
8.157414e+002, 3.806431e-002
8.176699e+002, 3.902860e-002
8.195983e+002, 4.021309e-002
8.215268e+002, 4.167894e-002
8.234553e+002, 4.330958e-002
8.253837e+002, 4.489180e-002
8.273122e+002, 4.664425e-002
8.292407e+002, 4.845634e-002
8.311691e+002, 5.034724e-002
8.330976e+002, 5.238352e-002
8.350261e+002, 5.486950e-002
8.369545e+002, 5.776189e-002
8.388830e+002, 6.099143e-002
8.408115e+002, 6.446631e-002
8.427399e+002, 6.854872e-002
8.446684e+002, 7.333572e-002
8.465969e+002, 7.858128e-002
8.485253e+002, 8.447752e-002
8.504538e+002, 9.127605e-002
8.523823e+002, 9.891242e-002
8.543107e+002, 1.069583e-001
8.562392e+002, 1.143818e-001
8.581677e+002, 1.201807e-001
8.600961e+002, 1.217946e-001
8.620246e+002, 1.177833e-001
8.639531e+002, 1.090594e-001
8.658815e+002, 9.826609e-002
8.678100e+002, 8.834983e-002
8.697385e+002, 8.106671e-002
8.716669e+002, 7.700987e-002
8.735954e+002, 7.565540e-002
8.755239e+002, 7.633080e-002
8.774523e+002, 7.825699e-002
8.793808e+002, 8.100022e-002
8.813093e+002, 8.437016e-002
8.832377e+002, 8.779340e-002
8.851662e+002, 9.135717e-002
8.870947e+002, 9.508874e-002
8.890231e+002, 9.868943e-002
8.909516e+002, 1.022843e-001
8.928801e+002, 1.062355e-001
8.948085e+002, 1.106794e-001
8.967370e+002, 1.156039e-001
8.986655e+002, 1.212381e-001
9.005939e+002, 1.274208e-001
9.025224e+002, 1.341336e-001
9.044509e+002, 1.409906e-001
9.063793e+002, 1.481103e-001
9.083078e+002, 1.556621e-001
9.102363e+002, 1.633471e-001
9.121647e+002, 1.702871e-001
9.140932e+002, 1.747597e-001
9.160217e+002, 1.749950e-001
9.179501e+002, 1.711355e-001
9.198786e+002, 1.666558e-001
9.218071e+002, 1.657881e-001
9.237355e+002, 1.699379e-001
9.256640e+002, 1.777171e-001
9.275925e+002, 1.872464e-001
9.295209e+002, 1.965939e-001
9.314494e+002, 2.042289e-001
9.333779e+002, 2.094761e-001
9.353063e+002, 2.129879e-001
9.372348e+002, 2.161010e-001
9.391633e+002, 2.197578e-001
9.410917e+002, 2.236206e-001
9.430202e+002, 2.274379e-001
9.449487e+002, 2.314029e-001
9.468771e+002, 2.351002e-001
9.488056e+002, 2.377533e-001
9.507341e+002, 2.387039e-001
9.526625e+002, 2.381373e-001
9.545910e+002, 2.370639e-001
9.565195e+002, 2.358464e-001
9.584479e+002, 2.333200e-001
9.603764e+002, 2.284327e-001
9.623049e+002, 2.235687e-001
9.642333e+002, 2.225232e-001
9.661618e+002, 2.261295e-001
9.680903e+002, 2.324235e-001
9.700187e+002, 2.390447e-001
9.719472e+002, 2.446576e-001
9.738757e+002, 2.493665e-001
9.758041e+002, 2.532363e-001
9.777326e+002, 2.559381e-001
9.796611e+002, 2.573582e-001
9.815895e+002, 2.577155e-001
9.835180e+002, 2.568595e-001
9.854465e+002, 2.548686e-001
9.873749e+002, 2.517950e-001
9.893034e+002, 2.479335e-001
9.912319e+002, 2.436386e-001
9.931603e+002, 2.393774e-001
9.950888e+002, 2.350424e-001
9.970173e+002, 2.306440e-001
9.989457e+002, 2.265115e-001
1.000874e+003, 2.229556e-001
1.002803e+003, 2.195566e-001
1.004731e+003, 2.164315e-001
1.006660e+003, 2.139014e-001
1.008588e+003, 2.118030e-001
1.010517e+003, 2.101843e-001
1.012445e+003, 2.088967e-001
1.014373e+003, 2.075530e-001
1.016302e+003, 2.062261e-001
1.018230e+003, 2.049735e-001
1.020159e+003, 2.034692e-001
1.022087e+003, 2.014838e-001
1.024016e+003, 1.987203e-001
1.025944e+003, 1.953949e-001
1.027873e+003, 1.927634e-001
1.029801e+003, 1.914325e-001
1.031730e+003, 1.916839e-001
1.033658e+003, 1.930253e-001
1.035587e+003, 1.948261e-001
1.037515e+003, 1.963007e-001
1.039443e+003, 1.966589e-001
1.041372e+003, 1.954477e-001
1.043300e+003, 1.926929e-001
1.045229e+003, 1.888234e-001
1.047157e+003, 1.840708e-001
1.049086e+003, 1.786603e-001
1.051014e+003, 1.729160e-001
1.052943e+003, 1.670334e-001
1.054871e+003, 1.610468e-001
1.056800e+003, 1.546500e-001
1.058728e+003, 1.478274e-001
1.060657e+003, 1.408615e-001
1.062585e+003, 1.340477e-001
1.064514e+003, 1.276386e-001
1.066442e+003, 1.220624e-001
1.068370e+003, 1.173803e-001
1.070299e+003, 1.137910e-001
1.072227e+003, 1.115720e-001
1.074156e+003, 1.106459e-001
1.076084e+003, 1.105871e-001
1.078013e+003, 1.109244e-001
1.079941e+003, 1.114457e-001
1.081870e+003, 1.121584e-001
1.083798e+003, 1.131096e-001
1.085727e+003, 1.139103e-001
1.087655e+003, 1.144042e-001
1.089584e+003, 1.149196e-001
1.091512e+003, 1.154811e-001
1.093441e+003, 1.160402e-001
1.095369e+003, 1.167993e-001
1.097297e+003, 1.175800e-001
1.099226e+003, 1.185862e-001
1.101154e+003, 1.199734e-001
1.103083e+003, 1.218907e-001
1.105011e+003, 1.245014e-001
1.106940e+003, 1.279468e-001
1.108868e+003, 1.324313e-001
1.110797e+003, 1.373676e-001
1.112725e+003, 1.419997e-001
1.114654e+003, 1.457969e-001
1.116582e+003, 1.484880e-001
1.118511e+003, 1.498011e-001
1.120439e+003, 1.496479e-001
1.122368e+003, 1.484955e-001
1.124296e+003, 1.466993e-001
1.126224e+003, 1.441984e-001
1.128153e+003, 1.413266e-001
1.130081e+003, 1.384529e-001
1.132010e+003, 1.358028e-001
1.133938e+003, 1.333237e-001
1.135867e+003, 1.310483e-001
1.137795e+003, 1.289416e-001
1.139724e+003, 1.274128e-001
1.141652e+003, 1.263169e-001
1.143581e+003, 1.256096e-001
1.145509e+003, 1.253090e-001
1.147438e+003, 1.253487e-001
1.149366e+003, 1.256562e-001
1.151295e+003, 1.262533e-001
1.153223e+003, 1.270298e-001
1.155151e+003, 1.280439e-001
1.157080e+003, 1.295482e-001
1.159008e+003, 1.313910e-001
1.160937e+003, 1.333428e-001
1.162865e+003, 1.347493e-001
1.164794e+003, 1.350490e-001
1.166722e+003, 1.341574e-001
1.168651e+003, 1.320698e-001
1.170579e+003, 1.289300e-001
1.172508e+003, 1.249125e-001
1.174436e+003, 1.203337e-001
1.176365e+003, 1.153588e-001
1.178293e+003, 1.102253e-001
1.180222e+003, 1.049450e-001
1.182150e+003, 9.973770e-002
1.184078e+003, 9.480878e-002
1.186007e+003, 9.012061e-002
1.187935e+003, 8.570639e-002
1.189864e+003, 8.156585e-002
1.191792e+003, 7.770991e-002
1.193721e+003, 7.398507e-002
1.195649e+003, 7.015596e-002
1.197578e+003, 6.627963e-002
1.199506e+003, 6.251717e-002
1.201435e+003, 5.870785e-002
1.203363e+003, 5.491114e-002
1.205292e+003, 5.121399e-002
1.207220e+003, 4.753037e-002
1.209149e+003, 4.400255e-002
1.211077e+003, 4.053599e-002
1.213005e+003, 3.713809e-002
1.214934e+003, 3.409673e-002
1.216862e+003, 3.126246e-002
1.218791e+003, 2.866899e-002
1.220719e+003, 2.635274e-002
1.222648e+003, 2.439433e-002
1.224576e+003, 2.259298e-002
1.226505e+003, 2.080005e-002
1.228433e+003, 1.906672e-002
1.230362e+003, 1.767855e-002
1.232290e+003, 1.649387e-002
1.234219e+003, 1.546249e-002
1.236147e+003, 1.443574e-002
1.238076e+003, 1.345077e-002
1.240004e+003, 1.256717e-002
1.241932e+003, 1.176553e-002
1.243861e+003, 1.102871e-002
1.245789e+003, 1.045326e-002
1.247718e+003, 9.940866e-003
1.249646e+003, 9.410670e-003
1.251575e+003, 8.748365e-003
1.253503e+003, 8.207911e-003
1.255432e+003, 7.870393e-003
1.257360e+003, 7.438226e-003
1.259289e+003, 6.951807e-003
1.261217e+003, 6.443395e-003
1.263146e+003, 6.087255e-003
1.265074e+003, 5.799290e-003
1.267003e+003, 5.542932e-003
1.268931e+003, 5.289970e-003
1.270859e+003, 5.071428e-003
1.272788e+003, 4.829882e-003
1.274716e+003, 4.606345e-003
1.276645e+003, 4.366732e-003
1.278573e+003, 4.220841e-003
1.280502e+003, 4.195789e-003
1.282430e+003, 4.075415e-003
1.284359e+003, 3.989744e-003
1.286287e+003, 3.850989e-003
1.288216e+003, 3.667664e-003
1.290144e+003, 3.535503e-003
1.292073e+003, 3.463126e-003
1.294001e+003, 3.421895e-003
1.295930e+003, 3.316769e-003
1.297858e+003, 3.044272e-003
1.299786e+003, 2.898893e-003
1.301715e+003, 2.886781e-003
1.303643e+003, 2.904966e-003
1.305572e+003, 2.750165e-003
1.307500e+003, 2.619318e-003
1.309429e+003, 2.614867e-003
1.311357e+003, 2.535071e-003
1.313286e+003, 2.351617e-003
1.315214e+003, 2.112740e-003
1.317143e+003, 1.936173e-003
1.319071e+003, 1.945554e-003
1.321000e+003, 1.932786e-003
1.322928e+003, 1.931496e-003
1.324857e+003, 1.855408e-003
1.326785e+003, 1.646922e-003
1.328714e+003, 1.378651e-003
1.330642e+003, 1.309708e-003
1.332570e+003, 1.333837e-003
1.334499e+003, 1.340128e-003
1.336427e+003, 1.198272e-003
1.338356e+003, 1.015384e-003
1.340284e+003, 1.015361e-003
1.342213e+003, 1.163651e-003
1.344141e+003, 1.156196e-003
1.346070e+003, 1.089652e-003
1.347998e+003, 1.005026e-003
1.349927e+003, 1.051432e-003
1.351855e+003, 1.020203e-003
1.353784e+003, 9.126074e-004
1.355712e+003, 7.891065e-004
1.357641e+003, 7.144170e-004
1.359569e+003, 5.484407e-004
1.361497e+003, 2.750265e-004
1.363426e+003, 2.051331e-004
1.365354e+003, 4.194399e-004
1.367283e+003, 3.619996e-004
1.369211e+003, 2.718145e-004
1.371140e+003, 2.265511e-004
1.373068e+003, 5.322290e-005
1.374997e+003, 1.734373e-005
1.376925e+003, 2.034779e-004
1.378854e+003, 2.749057e-004
1.380782e+003, 3.254400e-004
1.382711e+003, 3.639798e-004
1.384639e+003, 3.650707e-004
1.386568e+003, -1.234184e-005
1.388496e+003, 1.799108e-004
1.390424e+003, 7.173684e-004
1.392353e+003, 6.322296e-004
1.394281e+003, 1.074979e-004
1.396210e+003, 2.430831e-004
1.398138e+003, 2.611116e-004
1.400067e+003, 4.143532e-004
1.401995e+003, 7.607100e-004
1.403924e+003, 5.715750e-004
1.405852e+003, 4.155904e-004
1.407781e+003, 5.575067e-004
1.409709e+003, 6.181600e-004
1.411638e+003, 6.461541e-004
1.413566e+003, 6.247230e-004
1.415495e+003, 4.898731e-004
1.417423e+003, -2.470523e-004
1.419351e+003, -8.482164e-004
1.421280e+003, -1.817069e-006
1.423208e+003, 3.227806e-004
1.425137e+003, 1.977999e-004
1.427065e+003, 2.083760e-004
1.428994e+003, 7.663479e-005
1.430922e+003, 5.160742e-005
1.432851e+003, 9.997035e-005
1.434779e+003, -5.692896e-004
1.436708e+003, -1.328935e-003
1.438636e+003, -5.420950e-004
1.440565e+003, 5.781212e-005
1.442493e+003, 1.775947e-004
1.444422e+003, 5.285783e-005
1.446350e+003, -2.148539e-004
1.448278e+003, -4.926587e-004
1.450207e+003, -4.031406e-004
1.452135e+003, -4.375129e-004
1.454064e+003, -9.220190e-004
1.455992e+003, -2.795506e-003
1.457921e+003, -2.849265e-003
1.459849e+003, -1.252978e-003
1.461778e+003, -7.416618e-004
1.463706e+003, -1.207720e-003
1.465635e+003, -1.376002e-003
1.467563e+003, -1.006037e-003
1.469492e+003, -1.102320e-003
1.471420e+003, -2.115866e-003
1.473349e+003, -2.459165e-003
1.475277e+003, -1.547813e-003
1.477205e+003, -8.817564e-004
1.479134e+003, -4.239646e-004
1.481062e+003, -4.634822e-004
1.482991e+003, -4.311191e-004
1.484919e+003, -6.422097e-004
1.486848e+003, -1.053284e-003
1.488776e+003, -1.480664e-003
1.490705e+003, -1.472368e-003
1.492633e+003, -9.092364e-004
1.494562e+003, -1.422031e-003
1.496490e+003, -2.244833e-003
1.498419e+003, -1.821840e-003
1.500347e+003, -1.258311e-003
1.502276e+003, -1.005454e-003
1.504204e+003, -2.454651e-003
1.506132e+003, -4.590128e-003
1.508061e+003, -3.609629e-003
1.509989e+003, -1.825795e-003
1.511918e+003, -1.700305e-003
1.513846e+003, -1.743518e-003
1.515775e+003, -2.296250e-003
1.517703e+003, -2.553152e-003
1.519632e+003, -3.307753e-003
1.521560e+003, -4.104056e-003
1.523489e+003, -3.051673e-003
1.525417e+003, -2.591452e-003
1.527346e+003, -2.138104e-003
1.529274e+003, -1.780520e-003
1.531203e+003, -2.002692e-003
1.533131e+003, -2.604229e-003
1.535059e+003, -2.135661e-003
1.536988e+003, -2.687931e-003
1.538916e+003, -5.179933e-003
1.540845e+003, -5.359365e-003
1.542773e+003, -3.701218e-003
1.544702e+003, -2.684310e-003
1.546630e+003, -1.909867e-003
1.548559e+003, -1.722954e-003
1.550487e+003, -1.859197e-003
1.552416e+003, -2.155167e-003
1.554344e+003, -2.894985e-003
1.556273e+003, -3.818281e-003
1.558201e+003, -6.207807e-003
1.560130e+003, -5.658283e-003
1.562058e+003, -2.653613e-003
1.563986e+003, -1.695223e-003
1.565915e+003, -1.642878e-003
1.567843e+003, -2.029784e-003
1.569772e+003, -2.490854e-003
1.571700e+003, -1.780191e-003
1.573629e+003, -2.048551e-003
1.575557e+003, -3.874884e-003
1.577486e+003, -3.117316e-003
1.579414e+003, -1.536004e-003
1.581343e+003, -1.381196e-003
1.583271e+003, -1.397180e-003
1.585200e+003, -1.586668e-003
1.587128e+003, -1.657226e-003
1.589057e+003, -1.564714e-003
1.590985e+003, -1.360787e-003
1.592913e+003, -1.373083e-003
1.594842e+003, -1.305029e-003
1.596770e+003, -1.234212e-003
1.598699e+003, -1.242158e-003
1.600627e+003, -1.218938e-003
1.602556e+003, -1.122734e-003
1.604484e+003, -1.187033e-003
1.606413e+003, -1.334726e-003
1.608341e+003, -1.463383e-003
1.610270e+003, -1.416956e-003
1.612198e+003, -1.252312e-003
1.614127e+003, -1.632529e-003
1.616055e+003, -3.043899e-003
1.617984e+003, -2.472061e-003
1.619912e+003, -1.167936e-003
1.621840e+003, -1.604054e-003
1.623769e+003, -1.861743e-003
1.625697e+003, -1.418566e-003
1.627626e+003, -1.456914e-003
1.629554e+003, -1.236023e-003
1.631483e+003, -9.114284e-004
1.633411e+003, -1.844362e-003
1.635340e+003, -3.344805e-003
1.637268e+003, -2.419793e-003
1.639197e+003, -1.160584e-003
1.641125e+003, -1.068312e-003
1.643054e+003, -1.418524e-003
1.644982e+003, -2.719255e-003
1.646911e+003, -3.072266e-003
1.648839e+003, -1.897800e-003
1.650767e+003, -3.346692e-003
1.652696e+003, -6.757151e-003
1.654624e+003, -4.629058e-003
1.656553e+003, -1.594414e-003
1.658481e+003, -1.089083e-003
1.660410e+003, -1.454334e-003
1.662338e+003, -2.029809e-003
1.664267e+003, -1.699681e-003
1.666195e+003, -1.415850e-003
1.668124e+003, -2.308143e-003
1.670052e+003, -2.703420e-003
1.671981e+003, -2.151810e-003
1.673909e+003, -2.459681e-003
1.675838e+003, -2.651847e-003
1.677766e+003, -1.800093e-003
1.679694e+003, -1.682782e-003
1.681623e+003, -2.339484e-003
1.683551e+003, -4.976534e-003
1.685480e+003, -4.772198e-003
1.687408e+003, -2.346159e-003
1.689337e+003, -1.673968e-003
1.691265e+003, -1.452530e-003
1.693194e+003, -2.050839e-003
1.695122e+003, -4.453970e-003
1.697051e+003, -4.403579e-003
1.698979e+003, -4.750946e-003
1.700908e+003, -5.089362e-003
1.702836e+003, -2.829210e-003
1.704765e+003, -2.723173e-003
1.706693e+003, -2.578948e-003
1.708621e+003, -2.197856e-003
1.710550e+003, -2.077744e-003
1.712478e+003, -2.562438e-003
1.714407e+003, -3.387201e-003
1.716335e+003, -4.943250e-003
1.718264e+003, -4.882727e-003
1.720192e+003, -3.129710e-003
1.722121e+003, -2.535904e-003
1.724049e+003, -2.498872e-003
1.725978e+003, -2.433933e-003
1.727906e+003, -2.712207e-003
1.729835e+003, -3.043686e-003
1.731763e+003, -4.142851e-003
1.733692e+003, -5.979056e-003
1.735620e+003, -4.898365e-003
1.737548e+003, -3.602291e-003
1.739477e+003, -4.097224e-003
1.741405e+003, -3.893805e-003
1.743334e+003, -3.852752e-003
1.745262e+003, -3.746462e-003
1.747191e+003, -3.937137e-003
1.749119e+003, -4.444514e-003
1.751048e+003, -4.823407e-003
1.752976e+003, -3.737163e-003
1.754905e+003, -3.212101e-003
1.756833e+003, -3.339234e-003
1.758762e+003, -2.990326e-003
1.760690e+003, -3.479047e-003
1.762619e+003, -3.653865e-003
1.764547e+003, -2.879132e-003
1.766475e+003, -3.140112e-003
1.768404e+003, -3.546048e-003
1.770332e+003, -4.007912e-003
1.772261e+003, -4.916226e-003
1.774189e+003, -3.975065e-003
1.776118e+003, -3.008071e-003
1.778046e+003, -2.990415e-003
1.779975e+003, -3.069587e-003
1.781903e+003, -2.906325e-003
1.783832e+003, -3.004000e-003
1.785760e+003, -3.008395e-003
1.787689e+003, -2.742529e-003
1.789617e+003, -3.351807e-003
1.791546e+003, -4.398356e-003
1.793474e+003, -4.248172e-003
1.795402e+003, -3.484377e-003
1.797331e+003, -3.387768e-003
1.799259e+003, -3.430307e-003
1.801188e+003, -3.455475e-003
1.803116e+003, -3.285142e-003
1.805045e+003, -3.166937e-003
1.806973e+003, -3.034556e-003
1.808902e+003, -3.354306e-003
1.810830e+003, -3.418603e-003
1.812759e+003, -3.263716e-003
1.814687e+003, -3.195011e-003
1.816616e+003, -3.321912e-003
1.818544e+003, -3.247696e-003
1.820473e+003, -3.266841e-003
1.822401e+003, -3.299008e-003
1.824329e+003, -3.629614e-003
1.826258e+003, -3.707557e-003
1.828186e+003, -3.983018e-003
1.830115e+003, -4.218953e-003
1.832043e+003, -3.842568e-003
1.833972e+003, -3.790166e-003
1.835900e+003, -3.856043e-003
1.837829e+003, -3.851752e-003
1.839757e+003, -3.964092e-003
1.841686e+003, -4.170515e-003
1.843614e+003, -4.847197e-003
1.845543e+003, -4.514338e-003
1.847471e+003, -4.019545e-003
1.849400e+003, -3.988700e-003
1.851328e+003, -3.854922e-003
1.853256e+003, -4.009521e-003
1.855185e+003, -4.045593e-003
1.857113e+003, -3.974996e-003
1.859042e+003, -4.195909e-003
1.860970e+003, -4.379988e-003
1.862899e+003, -4.470118e-003
1.864827e+003, -4.532030e-003
1.866756e+003, -4.968031e-003
1.868684e+003, -5.550525e-003
1.870613e+003, -5.392201e-003
1.872541e+003, -4.941004e-003
1.874470e+003, -4.554325e-003
1.876398e+003, -4.478458e-003
1.878327e+003, -4.814493e-003
1.880255e+003, -5.011136e-003
1.882183e+003, -5.271777e-003
1.884112e+003, -5.462867e-003
1.886040e+003, -5.406172e-003
1.887969e+003, -5.442550e-003
1.889897e+003, -5.384963e-003
1.891826e+003, -5.051700e-003
1.893754e+003, -4.964356e-003
1.895683e+003, -5.017512e-003
1.897611e+003, -5.147564e-003
1.899540e+003, -5.354396e-003
1.901468e+003, -5.473848e-003
1.903397e+003, -5.303368e-003
1.905325e+003, -5.344673e-003
1.907254e+003, -5.436799e-003
1.909182e+003, -5.748214e-003
1.911110e+003, -5.716724e-003
1.913039e+003, -5.655922e-003
1.914967e+003, -5.516709e-003
1.916896e+003, -5.959770e-003
1.918824e+003, -5.927303e-003
1.920753e+003, -5.695018e-003
1.922681e+003, -6.036825e-003
1.924610e+003, -6.283770e-003
1.926538e+003, -5.893108e-003
1.928467e+003, -5.602250e-003
1.930395e+003, -5.639219e-003
1.932324e+003, -5.745991e-003
1.934252e+003, -5.921424e-003
1.936181e+003, -5.852985e-003
1.938109e+003, -5.601863e-003
1.940037e+003, -6.045121e-003
1.941966e+003, -6.562962e-003
1.943894e+003, -6.552054e-003
1.945823e+003, -6.317847e-003
1.947751e+003, -6.920622e-003
1.949680e+003, -6.936701e-003
1.951608e+003, -6.471036e-003
1.953537e+003, -6.598727e-003
1.955465e+003, -7.808159e-003
1.957394e+003, -7.663610e-003
1.959322e+003, -6.734103e-003
1.961251e+003, -6.330156e-003
1.963179e+003, -6.473619e-003
1.965108e+003, -6.732105e-003
1.967036e+003, -7.874376e-003
1.968964e+003, -9.058436e-003
1.970893e+003, -8.619482e-003
1.972821e+003, -7.879315e-003
1.974750e+003, -8.157223e-003
1.976678e+003, -8.341549e-003
1.978607e+003, -8.240539e-003
1.980535e+003, -7.722179e-003
1.982464e+003, -7.329214e-003
1.984392e+003, -7.386523e-003
1.986321e+003, -8.294275e-003
1.988249e+003, -8.555551e-003
1.990178e+003, -7.521528e-003
1.992106e+003, -6.762400e-003
1.994035e+003, -7.674299e-003
1.995963e+003, -8.048739e-003
1.997891e+003, -7.600746e-003
1.999820e+003, -7.354278e-003
2.001748e+003, -7.994942e-003
2.003677e+003, -8.545988e-003
2.005605e+003, -8.532200e-003
2.007534e+003, -7.379661e-003
2.009462e+003, -6.707384e-003
2.011391e+003, -7.037085e-003
2.013319e+003, -7.839339e-003
2.015248e+003, -8.388833e-003
2.017176e+003, -7.822473e-003
2.019105e+003, -7.747544e-003
2.021033e+003, -7.807841e-003
2.022962e+003, -8.039823e-003
2.024890e+003, -8.381119e-003
2.026818e+003, -8.245809e-003
2.028747e+003, -7.874480e-003
2.030675e+003, -7.980266e-003
2.032604e+003, -7.355086e-003
2.034532e+003, -7.003829e-003
2.036461e+003, -7.881272e-003
2.038389e+003, -7.799088e-003
2.040318e+003, -7.903786e-003
2.042246e+003, -7.961702e-003
2.044175e+003, -7.944274e-003
2.046103e+003, -8.426594e-003
2.048031e+003, -8.253423e-003
2.049960e+003, -8.139562e-003
2.051888e+003, -7.675721e-003
2.053817e+003, -7.266231e-003
2.055745e+003, -7.623411e-003
2.057674e+003, -7.664551e-003
2.059602e+003, -8.096880e-003
2.061531e+003, -8.018687e-003
2.063459e+003, -8.329120e-003
2.065388e+003, -8.519785e-003
2.067316e+003, -7.981377e-003
2.069245e+003, -7.411814e-003
2.071173e+003, -7.745011e-003
2.073102e+003, -8.241429e-003
2.075030e+003, -7.722076e-003
2.076958e+003, -7.418128e-003
2.078887e+003, -7.600612e-003
2.080815e+003, -7.580160e-003
2.082744e+003, -7.719722e-003
2.084672e+003, -7.377367e-003
2.086601e+003, -7.424310e-003
2.088529e+003, -7.615940e-003
2.090458e+003, -7.742925e-003
2.092386e+003, -7.654561e-003
2.094315e+003, -7.378986e-003
2.096243e+003, -7.643119e-003
2.098172e+003, -8.148928e-003
2.100100e+003, -7.894503e-003
2.102029e+003, -7.452979e-003
2.103957e+003, -7.074410e-003
2.105885e+003, -6.292936e-003
2.107814e+003, -6.655634e-003
2.109742e+003, -7.212310e-003
2.111671e+003, -6.739563e-003
2.113599e+003, -7.016669e-003
2.115528e+003, -7.503867e-003
2.117456e+003, -7.751188e-003
2.119385e+003, -7.304364e-003
2.121313e+003, -7.681570e-003
2.123242e+003, -7.544102e-003
2.125170e+003, -6.998454e-003
2.127099e+003, -6.977416e-003
2.129027e+003, -6.873229e-003
2.130956e+003, -6.502885e-003
2.132884e+003, -7.232618e-003
2.134813e+003, -8.125449e-003
2.136741e+003, -8.134604e-003
2.138669e+003, -6.902930e-003
2.140598e+003, -6.202146e-003
2.142526e+003, -6.729587e-003
2.144455e+003, -7.070515e-003
2.146383e+003, -6.988913e-003
2.148312e+003, -7.431705e-003
2.150240e+003, -7.676534e-003
2.152169e+003, -7.412217e-003
2.154097e+003, -6.211286e-003
2.156026e+003, -6.149574e-003
2.157954e+003, -6.494734e-003
2.159883e+003, -6.183086e-003
2.161811e+003, -6.754251e-003
2.163740e+003, -7.432719e-003
2.165668e+003, -7.414773e-003
2.167596e+003, -6.744902e-003
2.169525e+003, -6.491800e-003
2.171453e+003, -7.793727e-003
2.173382e+003, -7.779838e-003
2.175310e+003, -7.429088e-003
2.177239e+003, -7.376967e-003
2.179167e+003, -7.033950e-003
2.181096e+003, -7.081289e-003
2.183024e+003, -6.941468e-003
2.184953e+003, -6.065225e-003
2.186881e+003, -6.040525e-003
2.188810e+003, -6.882048e-003
2.190738e+003, -7.925311e-003
2.192667e+003, -8.451818e-003
2.194595e+003, -7.611524e-003
2.196523e+003, -7.046918e-003
2.198452e+003, -7.440732e-003
2.200380e+003, -6.670396e-003
2.202309e+003, -6.700653e-003
2.204237e+003, -7.143616e-003
2.206166e+003, -7.102439e-003
2.208094e+003, -7.001495e-003
2.210023e+003, -7.360749e-003
2.211951e+003, -7.780867e-003
2.213880e+003, -8.011386e-003
2.215808e+003, -8.020591e-003
2.217737e+003, -8.026248e-003
2.219665e+003, -7.708612e-003
2.221594e+003, -7.996970e-003
2.223522e+003, -8.265657e-003
2.225450e+003, -8.071532e-003
2.227379e+003, -8.120321e-003
2.229307e+003, -8.473836e-003
2.231236e+003, -7.680353e-003
2.233164e+003, -7.277526e-003
2.235093e+003, -6.870030e-003
2.237021e+003, -6.993212e-003
2.238950e+003, -6.962034e-003
2.240878e+003, -6.800732e-003
2.242807e+003, -7.124444e-003
2.244735e+003, -7.321632e-003
2.246664e+003, -7.409143e-003
2.248592e+003, -7.628922e-003
2.250521e+003, -7.136472e-003
2.252449e+003, -7.564370e-003
2.254377e+003, -8.036058e-003
2.256306e+003, -8.573952e-003
2.258234e+003, -8.499520e-003
2.260163e+003, -7.889840e-003
2.262091e+003, -8.182441e-003
2.264020e+003, -8.411522e-003
2.265948e+003, -8.039030e-003
2.267877e+003, -7.866505e-003
2.269805e+003, -7.890705e-003
2.271734e+003, -7.780342e-003
2.273662e+003, -7.091192e-003
2.275591e+003, -6.816549e-003
2.277519e+003, -7.285182e-003
2.279448e+003, -7.725983e-003
2.281376e+003, -8.003538e-003
2.283304e+003, -8.224586e-003
2.285233e+003, -8.068888e-003
2.287161e+003, -7.778044e-003
2.289090e+003, -7.917846e-003
2.291018e+003, -8.244504e-003
2.292947e+003, -8.184712e-003
2.294875e+003, -8.138005e-003
2.296804e+003, -7.995657e-003
2.298732e+003, -7.822936e-003
2.300661e+003, -7.428981e-003
2.302589e+003, -7.183152e-003
2.304518e+003, -7.300862e-003
2.306446e+003, -7.558574e-003
2.308375e+003, -7.640329e-003
2.310303e+003, -7.810104e-003
2.312231e+003, -7.879996e-003
2.314160e+003, -7.492259e-003
2.316088e+003, -6.996434e-003
2.318017e+003, -6.851123e-003
2.319945e+003, -6.765761e-003
2.321874e+003, -6.741243e-003
2.323802e+003, -6.513792e-003
2.325731e+003, -6.410114e-003
2.327659e+003, -6.190612e-003
2.329588e+003, -5.910194e-003
2.331516e+003, -5.938749e-003
2.333445e+003, -6.066375e-003
2.335373e+003, -5.996643e-003
2.337302e+003, -5.987475e-003
2.339230e+003, -6.104174e-003
2.341158e+003, -6.381599e-003
2.343087e+003, -6.566412e-003
2.345015e+003, -6.510270e-003
2.346944e+003, -6.685895e-003
2.348872e+003, -7.219411e-003
2.350801e+003, -7.303587e-003
2.352729e+003, -6.931779e-003
2.354658e+003, -6.449460e-003
2.356586e+003, -6.149977e-003
2.358515e+003, -6.077563e-003
2.360443e+003, -5.814395e-003
2.362372e+003, -5.530102e-003
2.364300e+003, -5.521235e-003
2.366229e+003, -5.604834e-003
2.368157e+003, -5.824562e-003
2.370085e+003, -6.318990e-003
2.372014e+003, -6.562376e-003
2.373942e+003, -6.784716e-003
2.375871e+003, -7.032362e-003
2.377799e+003, -7.251194e-003
2.379728e+003, -7.597893e-003
2.381656e+003, -7.742180e-003
2.383585e+003, -7.862831e-003
2.385513e+003, -8.046540e-003
2.387442e+003, -8.109811e-003
2.389370e+003, -7.964836e-003
2.391299e+003, -7.917861e-003
2.393227e+003, -7.731885e-003
2.395156e+003, -7.985545e-003
2.397084e+003, -8.352069e-003
2.399012e+003, -8.320928e-003
2.400941e+003, -8.048113e-003
2.402869e+003, -8.587023e-003
2.404798e+003, -8.804351e-003
2.406726e+003, -8.309981e-003
2.408655e+003, -8.179846e-003
2.410583e+003, -8.366332e-003
2.412512e+003, -8.019947e-003
2.414440e+003, -7.679664e-003
2.416369e+003, -7.726072e-003
2.418297e+003, -7.752461e-003
2.420226e+003, -7.658117e-003
2.422154e+003, -7.694689e-003
2.424083e+003, -7.634854e-003
2.426011e+003, -7.675771e-003
2.427939e+003, -7.927558e-003
2.429868e+003, -8.128164e-003
2.431796e+003, -7.809374e-003
2.433725e+003, -8.012271e-003
2.435653e+003, -8.198985e-003
2.437582e+003, -8.224938e-003
2.439510e+003, -7.873856e-003
2.441439e+003, -7.709067e-003
2.443367e+003, -7.953662e-003
2.445296e+003, -8.056933e-003
2.447224e+003, -7.867975e-003
2.449153e+003, -7.889562e-003
2.451081e+003, -7.713360e-003
2.453010e+003, -7.732099e-003
2.454938e+003, -7.958538e-003
2.456866e+003, -7.662413e-003
2.458795e+003, -7.569037e-003
2.460723e+003, -7.693323e-003
2.462652e+003, -7.722587e-003
2.464580e+003, -7.472687e-003
2.466509e+003, -7.536072e-003
2.468437e+003, -7.831298e-003
2.470366e+003, -8.107305e-003
2.472294e+003, -8.420905e-003
2.474223e+003, -8.521006e-003
2.476151e+003, -7.786564e-003
2.478080e+003, -7.614284e-003
2.480008e+003, -8.099518e-003
2.481937e+003, -8.028132e-003
2.483865e+003, -7.787818e-003
2.485793e+003, -7.744493e-003
2.487722e+003, -7.997857e-003
2.489650e+003, -7.928384e-003
2.491579e+003, -7.995673e-003
2.493507e+003, -8.100348e-003
2.495436e+003, -7.844323e-003
2.497364e+003, -7.827631e-003
2.499293e+003, -8.043968e-003
2.501221e+003, -8.003944e-003
2.503150e+003, -7.856566e-003
2.505078e+003, -7.825553e-003
2.507007e+003, -7.796445e-003
2.508935e+003, -8.025769e-003
2.510864e+003, -8.446739e-003
2.512792e+003, -8.380953e-003
2.514720e+003, -8.107624e-003
2.516649e+003, -8.228066e-003
2.518577e+003, -8.224018e-003
2.520506e+003, -8.355627e-003
2.522434e+003, -8.255288e-003
2.524363e+003, -8.062189e-003
2.526291e+003, -7.942146e-003
2.528220e+003, -7.764903e-003
2.530148e+003, -7.965434e-003
2.532077e+003, -8.056702e-003
2.534005e+003, -7.844285e-003
2.535934e+003, -7.970395e-003
2.537862e+003, -8.127954e-003
2.539791e+003, -8.048423e-003
2.541719e+003, -7.829790e-003
2.543647e+003, -7.901347e-003
2.545576e+003, -8.087694e-003
2.547504e+003, -8.218405e-003
2.549433e+003, -7.671137e-003
2.551361e+003, -7.515994e-003
2.553290e+003, -7.913004e-003
2.555218e+003, -8.116831e-003
2.557147e+003, -8.151396e-003
2.559075e+003, -8.319635e-003
2.561004e+003, -8.394535e-003
2.562932e+003, -8.255061e-003
2.564861e+003, -7.962285e-003
2.566789e+003, -7.975106e-003
2.568718e+003, -8.060267e-003
2.570646e+003, -7.842820e-003
2.572574e+003, -7.749837e-003
2.574503e+003, -8.210030e-003
2.576431e+003, -8.513737e-003
2.578360e+003, -8.258104e-003
2.580288e+003, -8.087934e-003
2.582217e+003, -8.169396e-003
2.584145e+003, -8.050725e-003
2.586074e+003, -8.038522e-003
2.588002e+003, -8.046213e-003
2.589931e+003, -7.808851e-003
2.591859e+003, -7.965168e-003
2.593788e+003, -8.153699e-003
2.595716e+003, -8.158304e-003
2.597645e+003, -7.993898e-003
2.599573e+003, -8.037626e-003
2.601501e+003, -8.207646e-003
2.603430e+003, -8.216892e-003
2.605358e+003, -8.162125e-003
2.607287e+003, -8.067226e-003
2.609215e+003, -7.611468e-003
2.611144e+003, -7.589587e-003
2.613072e+003, -7.647902e-003
2.615001e+003, -7.597183e-003
2.616929e+003, -7.658588e-003
2.618858e+003, -7.927489e-003
2.620786e+003, -7.987917e-003
2.622715e+003, -7.756640e-003
2.624643e+003, -7.324026e-003
2.626572e+003, -7.203409e-003
2.628500e+003, -7.259400e-003
2.630428e+003, -7.255294e-003
2.632357e+003, -7.240932e-003
2.634285e+003, -7.565447e-003
2.636214e+003, -7.887550e-003
2.638142e+003, -7.900515e-003
2.640071e+003, -7.854243e-003
2.641999e+003, -7.778507e-003
2.643928e+003, -7.442984e-003
2.645856e+003, -7.459654e-003
2.647785e+003, -7.592415e-003
2.649713e+003, -7.522928e-003
2.651642e+003, -7.282159e-003
2.653570e+003, -7.253547e-003
2.655499e+003, -7.558585e-003
2.657427e+003, -7.727711e-003
2.659355e+003, -7.588887e-003
2.661284e+003, -7.495319e-003
2.663212e+003, -7.703831e-003
2.665141e+003, -7.774323e-003
2.667069e+003, -7.673023e-003
2.668998e+003, -7.833263e-003
2.670926e+003, -7.791884e-003
2.672855e+003, -7.701877e-003
2.674783e+003, -7.776368e-003
2.676712e+003, -7.925723e-003
2.678640e+003, -7.856687e-003
2.680569e+003, -7.453026e-003
2.682497e+003, -7.423244e-003
2.684426e+003, -7.621301e-003
2.686354e+003, -7.625880e-003
2.688282e+003, -7.530371e-003
2.690211e+003, -7.639991e-003
2.692139e+003, -7.738247e-003
2.694068e+003, -7.822959e-003
2.695996e+003, -7.732020e-003
2.697925e+003, -7.599711e-003
2.699853e+003, -7.809435e-003
2.701782e+003, -7.835112e-003
2.703710e+003, -7.789613e-003
2.705639e+003, -7.838449e-003
2.707567e+003, -7.644484e-003
2.709496e+003, -7.705139e-003
2.711424e+003, -7.746665e-003
2.713353e+003, -7.371638e-003
2.715281e+003, -7.378382e-003
2.717209e+003, -7.774151e-003
2.719138e+003, -7.717019e-003
2.721066e+003, -7.486800e-003
2.722995e+003, -7.400930e-003
2.724923e+003, -7.731257e-003
2.726852e+003, -7.778018e-003
2.728780e+003, -7.307816e-003
2.730709e+003, -7.244985e-003
2.732637e+003, -7.430422e-003
2.734566e+003, -7.664774e-003
2.736494e+003, -7.714589e-003
2.738423e+003, -7.398515e-003
2.740351e+003, -7.300751e-003
2.742280e+003, -7.372424e-003
2.744208e+003, -7.384008e-003
2.746136e+003, -7.194136e-003
2.748065e+003, -7.349577e-003
2.749993e+003, -7.563354e-003
2.751922e+003, -7.450127e-003
2.753850e+003, -7.704950e-003
2.755779e+003, -7.871162e-003
2.757707e+003, -7.644622e-003
2.759636e+003, -7.378744e-003
2.761564e+003, -7.558648e-003
2.763493e+003, -7.619972e-003
2.765421e+003, -7.581735e-003
2.767350e+003, -7.714298e-003
2.769278e+003, -7.501111e-003
2.771207e+003, -7.513525e-003
2.773135e+003, -7.581297e-003
2.775063e+003, -7.385342e-003
2.776992e+003, -7.547750e-003
2.778920e+003, -7.979919e-003
2.780849e+003, -7.843210e-003
2.782777e+003, -7.527059e-003
2.784706e+003, -7.512727e-003
2.786634e+003, -7.692619e-003
2.788563e+003, -7.787707e-003
2.790491e+003, -7.891914e-003
2.792420e+003, -7.776928e-003
2.794348e+003, -7.767393e-003
2.796277e+003, -7.665853e-003
2.798205e+003, -7.689193e-003
2.800134e+003, -7.804912e-003
2.802062e+003, -7.733239e-003
2.803990e+003, -7.859946e-003
2.805919e+003, -8.046269e-003
2.807847e+003, -8.082663e-003
2.809776e+003, -8.159031e-003
2.811704e+003, -8.209599e-003
2.813633e+003, -8.099920e-003
2.815561e+003, -8.015094e-003
2.817490e+003, -8.051631e-003
2.819418e+003, -7.959490e-003
2.821347e+003, -7.860722e-003
2.823275e+003, -8.104730e-003
2.825204e+003, -8.109130e-003
2.827132e+003, -7.913557e-003
2.829061e+003, -8.043444e-003
2.830989e+003, -8.012019e-003
2.832917e+003, -8.019321e-003
2.834846e+003, -8.142532e-003
2.836774e+003, -8.036375e-003
2.838703e+003, -7.972853e-003
2.840631e+003, -8.303358e-003
2.842560e+003, -8.504365e-003
2.844488e+003, -8.834122e-003
2.846417e+003, -9.411984e-003
2.848345e+003, -1.014080e-002
2.850274e+003, -1.070886e-002
2.852202e+003, -1.044548e-002
2.854131e+003, -1.015150e-002
2.856059e+003, -9.817401e-003
2.857988e+003, -9.559444e-003
2.859916e+003, -9.351466e-003
2.861844e+003, -9.108162e-003
2.863773e+003, -8.799262e-003
2.865701e+003, -8.871833e-003
2.867630e+003, -8.881630e-003
2.869558e+003, -8.653068e-003
2.871487e+003, -8.441738e-003
2.873415e+003, -8.516884e-003
2.875344e+003, -8.674258e-003
2.877272e+003, -8.872031e-003
2.879201e+003, -8.909226e-003
2.881129e+003, -8.663785e-003
2.883058e+003, -8.548317e-003
2.884986e+003, -8.700220e-003
2.886915e+003, -8.834999e-003
2.888843e+003, -9.029347e-003
2.890771e+003, -8.797693e-003
2.892700e+003, -8.877120e-003
2.894628e+003, -9.367725e-003
2.896557e+003, -9.395373e-003
2.898485e+003, -9.470438e-003
2.900414e+003, -9.357485e-003
2.902342e+003, -9.138415e-003
2.904271e+003, -9.167389e-003
2.906199e+003, -9.624964e-003
2.908128e+003, -9.766337e-003
2.910056e+003, -9.982968e-003
2.911985e+003, -1.040073e-002
2.913913e+003, -1.101434e-002
2.915842e+003, -1.149244e-002
2.917770e+003, -1.161189e-002
2.919698e+003, -1.183023e-002
2.921627e+003, -1.162730e-002
2.923555e+003, -1.141196e-002
2.925484e+003, -1.151554e-002
2.927412e+003, -1.155578e-002
2.929341e+003, -1.127635e-002
2.931269e+003, -1.096392e-002
2.933198e+003, -1.064195e-002
2.935126e+003, -1.046364e-002
2.937055e+003, -1.035313e-002
2.938983e+003, -1.019925e-002
2.940912e+003, -9.812432e-003
2.942840e+003, -9.432635e-003
2.944769e+003, -9.431816e-003
2.946697e+003, -9.618422e-003
2.948625e+003, -9.834598e-003
2.950554e+003, -9.936086e-003
2.952482e+003, -9.649373e-003
2.954411e+003, -9.511074e-003
2.956339e+003, -9.654450e-003
2.958268e+003, -9.619666e-003
2.960196e+003, -9.529547e-003
2.962125e+003, -9.472111e-003
2.964053e+003, -9.302582e-003
2.965982e+003, -9.638309e-003
2.967910e+003, -9.589206e-003
2.969839e+003, -9.000188e-003
2.971767e+003, -9.006491e-003
2.973696e+003, -9.353644e-003
2.975624e+003, -9.403334e-003
2.977552e+003, -9.448295e-003
2.979481e+003, -9.510635e-003
2.981409e+003, -9.468122e-003
2.983338e+003, -9.155580e-003
2.985266e+003, -8.965221e-003
2.987195e+003, -8.914774e-003
2.989123e+003, -9.194597e-003
2.991052e+003, -9.242516e-003
2.992980e+003, -9.167210e-003
2.994909e+003, -9.194073e-003
2.996837e+003, -9.444665e-003
2.998766e+003, -9.620260e-003
3.000694e+003, -9.663242e-003
3.002623e+003, -9.617971e-003
3.004551e+003, -9.647833e-003
3.006479e+003, -9.373065e-003
3.008408e+003, -9.028981e-003
3.010336e+003, -8.837308e-003
3.012265e+003, -9.227611e-003
3.014193e+003, -9.619996e-003
3.016122e+003, -9.962051e-003
3.018050e+003, -9.999962e-003
3.019979e+003, -9.327134e-003
3.021907e+003, -8.998501e-003
3.023836e+003, -8.842907e-003
3.025764e+003, -8.980449e-003
3.027693e+003, -9.578138e-003
3.029621e+003, -9.865490e-003
3.031550e+003, -9.712035e-003
3.033478e+003, -9.550557e-003
3.035406e+003, -9.688983e-003
3.037335e+003, -9.721594e-003
3.039263e+003, -9.462913e-003
3.041192e+003, -9.370355e-003
3.043120e+003, -9.524407e-003
3.045049e+003, -9.471525e-003
3.046977e+003, -9.681852e-003
3.048906e+003, -9.874157e-003
3.050834e+003, -9.500574e-003
3.052763e+003, -9.339430e-003
3.054691e+003, -9.622159e-003
3.056620e+003, -9.700689e-003
3.058548e+003, -9.608703e-003
3.060477e+003, -9.751530e-003
3.062405e+003, -9.887265e-003
3.064333e+003, -1.000019e-002
3.066262e+003, -9.850655e-003
3.068190e+003, -9.519435e-003
3.070119e+003, -9.790475e-003
3.072047e+003, -9.827625e-003
3.073976e+003, -9.552666e-003
3.075904e+003, -9.440939e-003
3.077833e+003, -9.450990e-003
3.079761e+003, -9.526785e-003
3.081690e+003, -9.517220e-003
3.083618e+003, -9.516850e-003
3.085547e+003, -9.646008e-003
3.087475e+003, -9.784939e-003
3.089404e+003, -9.779141e-003
3.091332e+003, -9.604697e-003
3.093260e+003, -9.617470e-003
3.095189e+003, -9.579458e-003
3.097117e+003, -9.377830e-003
3.099046e+003, -9.477658e-003
3.100974e+003, -9.566972e-003
3.102903e+003, -9.477758e-003
3.104831e+003, -9.543980e-003
3.106760e+003, -9.794232e-003
3.108688e+003, -9.980860e-003
3.110617e+003, -9.933303e-003
3.112545e+003, -9.602595e-003
3.114474e+003, -9.610044e-003
3.116402e+003, -9.526671e-003
3.118331e+003, -9.520611e-003
3.120259e+003, -9.562493e-003
3.122188e+003, -9.805334e-003
3.124116e+003, -1.004543e-002
3.126044e+003, -1.004410e-002
3.127973e+003, -9.819597e-003
3.129901e+003, -9.869280e-003
3.131830e+003, -1.000646e-002
3.133758e+003, -9.817145e-003
3.135687e+003, -9.889795e-003
3.137615e+003, -9.546339e-003
3.139544e+003, -9.120443e-003
3.141472e+003, -9.066555e-003
3.143401e+003, -9.215365e-003
3.145329e+003, -9.683601e-003
3.147258e+003, -9.797504e-003
3.149186e+003, -9.820250e-003
3.151115e+003, -9.698510e-003
3.153043e+003, -9.455860e-003
3.154971e+003, -9.620013e-003
3.156900e+003, -9.814994e-003
3.158828e+003, -9.651144e-003
3.160757e+003, -9.338346e-003
3.162685e+003, -9.224622e-003
3.164614e+003, -9.437972e-003
3.166542e+003, -9.684896e-003
3.168471e+003, -9.603899e-003
3.170399e+003, -9.618274e-003
3.172328e+003, -9.482228e-003
3.174256e+003, -9.508545e-003
3.176185e+003, -9.724020e-003
3.178113e+003, -9.602523e-003
3.180042e+003, -9.813495e-003
3.181970e+003, -9.628872e-003
3.183898e+003, -9.759025e-003
3.185827e+003, -9.860377e-003
3.187755e+003, -9.747602e-003
3.189684e+003, -9.693639e-003
3.191612e+003, -9.769812e-003
3.193541e+003, -9.739021e-003
3.195469e+003, -9.596282e-003
3.197398e+003, -9.608463e-003
3.199326e+003, -9.624428e-003
3.201255e+003, -9.818738e-003
3.203183e+003, -1.008246e-002
3.205112e+003, -9.985166e-003
3.207040e+003, -9.973528e-003
3.208969e+003, -9.719349e-003
3.210897e+003, -9.670649e-003
3.212825e+003, -9.709502e-003
3.214754e+003, -9.534399e-003
3.216682e+003, -9.711879e-003
3.218611e+003, -1.029450e-002
3.220539e+003, -1.041957e-002
3.222468e+003, -1.016249e-002
3.224396e+003, -9.796437e-003
3.226325e+003, -9.710640e-003
3.228253e+003, -9.504380e-003
3.230182e+003, -9.483226e-003
3.232110e+003, -9.649448e-003
3.234039e+003, -9.674121e-003
3.235967e+003, -9.936759e-003
3.237896e+003, -1.024835e-002
3.239824e+003, -1.015743e-002
3.241752e+003, -9.538099e-003
3.243681e+003, -9.632843e-003
3.245609e+003, -9.952173e-003
3.247538e+003, -1.015699e-002
3.249466e+003, -1.032480e-002
3.251395e+003, -1.037292e-002
3.253323e+003, -1.047073e-002
3.255252e+003, -1.012421e-002
3.257180e+003, -9.831715e-003
3.259109e+003, -9.723817e-003
3.261037e+003, -9.788022e-003
3.262966e+003, -1.007010e-002
3.264894e+003, -1.025925e-002
3.266823e+003, -1.013727e-002
3.268751e+003, -1.042481e-002
3.270679e+003, -1.068939e-002
3.272608e+003, -1.029958e-002
3.274536e+003, -9.983720e-003
3.276465e+003, -1.055226e-002
3.278393e+003, -1.098610e-002
3.280322e+003, -1.092025e-002
3.282250e+003, -1.085768e-002
3.284179e+003, -1.090235e-002
3.286107e+003, -1.066829e-002
3.288036e+003, -1.020427e-002
3.289964e+003, -1.007546e-002
3.291893e+003, -1.001776e-002
3.293821e+003, -1.033759e-002
3.295750e+003, -1.073514e-002
3.297678e+003, -1.050570e-002
3.299606e+003, -1.027271e-002
3.301535e+003, -1.061911e-002
3.303463e+003, -1.060212e-002
3.305392e+003, -1.044901e-002
3.307320e+003, -1.045016e-002
3.309249e+003, -1.046733e-002
3.311177e+003, -1.062988e-002
3.313106e+003, -1.070065e-002
3.315034e+003, -1.045519e-002
3.316963e+003, -1.074890e-002
3.318891e+003, -1.120277e-002
3.320820e+003, -1.107481e-002
3.322748e+003, -1.076566e-002
3.324677e+003, -1.041330e-002
3.326605e+003, -1.016563e-002
3.328533e+003, -1.032828e-002
3.330462e+003, -1.078281e-002
3.332390e+003, -1.096545e-002
3.334319e+003, -1.064015e-002
3.336247e+003, -1.040056e-002
3.338176e+003, -1.040905e-002
3.340104e+003, -1.109775e-002
3.342033e+003, -1.148031e-002
3.343961e+003, -1.111871e-002
3.345890e+003, -1.102682e-002
3.347818e+003, -1.117689e-002
3.349747e+003, -1.084260e-002
3.351675e+003, -1.058301e-002
3.353604e+003, -1.087452e-002
3.355532e+003, -1.102109e-002
3.357460e+003, -1.095671e-002
3.359389e+003, -1.079095e-002
3.361317e+003, -1.078460e-002
3.363246e+003, -1.114512e-002
3.365174e+003, -1.140449e-002
3.367103e+003, -1.113390e-002
3.369031e+003, -1.136188e-002
3.370960e+003, -1.133274e-002
3.372888e+003, -1.124515e-002
3.374817e+003, -1.124453e-002
3.376745e+003, -1.070657e-002
3.378674e+003, -1.042377e-002
3.380602e+003, -1.104281e-002
3.382531e+003, -1.107052e-002
3.384459e+003, -1.064869e-002
3.386387e+003, -1.091846e-002
3.388316e+003, -1.111996e-002
3.390244e+003, -1.084841e-002
3.392173e+003, -1.101127e-002
3.394101e+003, -1.114942e-002
3.396030e+003, -1.115872e-002
3.397958e+003, -1.110366e-002
3.399887e+003, -1.126452e-002
3.401815e+003, -1.135251e-002
3.403744e+003, -1.080237e-002
3.405672e+003, -1.141669e-002
3.407601e+003, -1.228263e-002
3.409529e+003, -1.237624e-002
3.411458e+003, -1.203847e-002
3.413386e+003, -1.181917e-002
3.415314e+003, -1.141857e-002
3.417243e+003, -1.107304e-002
3.419171e+003, -1.142969e-002
3.421100e+003, -1.127961e-002
3.423028e+003, -1.128389e-002
3.424957e+003, -1.129933e-002
3.426885e+003, -1.151138e-002
3.428814e+003, -1.180704e-002
3.430742e+003, -1.176831e-002
3.432671e+003, -1.182576e-002
3.434599e+003, -1.175176e-002
3.436528e+003, -1.159968e-002
3.438456e+003, -1.191620e-002
3.440385e+003, -1.205728e-002
3.442313e+003, -1.184799e-002
3.444241e+003, -1.176288e-002
3.446170e+003, -1.212757e-002
3.448098e+003, -1.229217e-002
3.450027e+003, -1.235476e-002
3.451955e+003, -1.229221e-002
3.453884e+003, -1.224317e-002
3.455812e+003, -1.202825e-002
3.457741e+003, -1.241765e-002
3.459669e+003, -1.263630e-002
3.461598e+003, -1.230491e-002
3.463526e+003, -1.197328e-002
3.465455e+003, -1.157262e-002
3.467383e+003, -1.158481e-002
3.469312e+003, -1.218276e-002
3.471240e+003, -1.217087e-002
3.473168e+003, -1.189686e-002
3.475097e+003, -1.196099e-002
3.477025e+003, -1.195969e-002
3.478954e+003, -1.255077e-002
3.480882e+003, -1.270876e-002
3.482811e+003, -1.220051e-002
3.484739e+003, -1.202657e-002
3.486668e+003, -1.238303e-002
3.488596e+003, -1.269454e-002
3.490525e+003, -1.230452e-002
3.492453e+003, -1.184175e-002
3.494382e+003, -1.241816e-002
3.496310e+003, -1.287782e-002
3.498239e+003, -1.291440e-002
3.500167e+003, -1.282326e-002
3.502095e+003, -1.311560e-002
3.504024e+003, -1.316512e-002
3.505952e+003, -1.234915e-002
3.507881e+003, -1.236915e-002
3.509809e+003, -1.285267e-002
3.511738e+003, -1.278158e-002
3.513666e+003, -1.266108e-002
3.515595e+003, -1.277877e-002
3.517523e+003, -1.280132e-002
3.519452e+003, -1.270653e-002
3.521380e+003, -1.303297e-002
3.523309e+003, -1.306044e-002
3.525237e+003, -1.325003e-002
3.527166e+003, -1.341420e-002
3.529094e+003, -1.236982e-002
3.531022e+003, -1.191862e-002
3.532951e+003, -1.198653e-002
3.534879e+003, -1.202567e-002
3.536808e+003, -1.212427e-002
3.538736e+003, -1.264700e-002
3.540665e+003, -1.277285e-002
3.542593e+003, -1.241572e-002
3.544522e+003, -1.228378e-002
3.546450e+003, -1.265011e-002
3.548379e+003, -1.308970e-002
3.550307e+003, -1.351160e-002
3.552236e+003, -1.366062e-002
3.554164e+003, -1.312617e-002
3.556093e+003, -1.237977e-002
3.558021e+003, -1.222444e-002
3.559949e+003, -1.273835e-002
3.561878e+003, -1.333301e-002
3.563806e+003, -1.370527e-002
3.565735e+003, -1.481697e-002
3.567663e+003, -1.510847e-002
3.569592e+003, -1.356545e-002
3.571520e+003, -1.308301e-002
3.573449e+003, -1.359454e-002
3.575377e+003, -1.357421e-002
3.577306e+003, -1.310709e-002
3.579234e+003, -1.332539e-002
3.581163e+003, -1.378455e-002
3.583091e+003, -1.415737e-002
3.585020e+003, -1.482712e-002
3.586948e+003, -1.557793e-002
3.588876e+003, -1.545756e-002
3.590805e+003, -1.425129e-002
3.592733e+003, -1.348797e-002
3.594662e+003, -1.396032e-002
3.596590e+003, -1.444765e-002
3.598519e+003, -1.399985e-002
3.600447e+003, -1.383764e-002
3.602376e+003, -1.366965e-002
3.604304e+003, -1.329887e-002
3.606233e+003, -1.432484e-002
3.608161e+003, -1.553200e-002
3.610090e+003, -1.560703e-002
3.612018e+003, -1.593532e-002
3.613947e+003, -1.481591e-002
3.615875e+003, -1.395394e-002
3.617803e+003, -1.580856e-002
3.619732e+003, -1.573096e-002
3.621660e+003, -1.382934e-002
3.623589e+003, -1.341884e-002
3.625517e+003, -1.445905e-002
3.627446e+003, -1.754063e-002
3.629374e+003, -1.886579e-002
3.631303e+003, -1.640745e-002
3.633231e+003, -1.565059e-002
3.635160e+003, -1.566458e-002
3.637088e+003, -1.581278e-002
3.639017e+003, -1.557625e-002
3.640945e+003, -1.508781e-002
3.642874e+003, -1.500810e-002
3.644802e+003, -1.518896e-002
3.646730e+003, -1.747639e-002
3.648659e+003, -2.021576e-002
3.650587e+003, -1.996578e-002
3.652516e+003, -1.725794e-002
3.654444e+003, -1.743180e-002
3.656373e+003, -1.843169e-002
3.658301e+003, -1.713403e-002
3.660230e+003, -1.610584e-002
3.662158e+003, -1.586790e-002
3.664087e+003, -1.578844e-002
3.666015e+003, -1.533636e-002
3.667944e+003, -1.756766e-002
3.669872e+003, -2.170341e-002
3.671801e+003, -2.057783e-002
3.673729e+003, -2.004329e-002
3.675657e+003, -2.117197e-002
3.677586e+003, -1.876329e-002
3.679514e+003, -1.787794e-002
3.681443e+003, -1.680685e-002
3.683371e+003, -1.671172e-002
3.685300e+003, -1.760482e-002
3.687228e+003, -2.088002e-002
3.689157e+003, -2.134291e-002
3.691085e+003, -1.900458e-002
3.693014e+003, -1.736280e-002
3.694942e+003, -1.687993e-002
3.696871e+003, -1.739718e-002
3.698799e+003, -1.673781e-002
3.700728e+003, -1.689960e-002
3.702656e+003, -1.718767e-002
3.704584e+003, -1.699628e-002
3.706513e+003, -1.719039e-002
3.708441e+003, -1.840282e-002
3.710370e+003, -2.045302e-002
3.712298e+003, -2.081466e-002
3.714227e+003, -1.826915e-002
3.716155e+003, -1.724868e-002
3.718084e+003, -1.797931e-002
3.720012e+003, -1.868674e-002
3.721941e+003, -1.867345e-002
3.723869e+003, -1.818937e-002
3.725798e+003, -1.791991e-002
3.727726e+003, -1.763532e-002
3.729655e+003, -1.808560e-002
3.731583e+003, -2.035536e-002
3.733511e+003, -2.060548e-002
3.735440e+003, -2.106693e-002
3.737368e+003, -1.986329e-002
3.739297e+003, -1.784734e-002
3.741225e+003, -1.817512e-002
3.743154e+003, -2.382337e-002
3.745082e+003, -2.510220e-002
3.747011e+003, -2.129754e-002
3.748939e+003, -2.343479e-002
3.750868e+003, -2.487982e-002
3.752796e+003, -2.270620e-002
3.754725e+003, -1.857082e-002
3.756653e+003, -1.852865e-002
3.758582e+003, -1.909984e-002
3.760510e+003, -1.803380e-002
3.762438e+003, -1.721426e-002
3.764367e+003, -1.898192e-002
3.766295e+003, -1.879115e-002
3.768224e+003, -1.879665e-002
3.770152e+003, -1.887786e-002
3.772081e+003, -1.783065e-002
3.774009e+003, -1.757229e-002
3.775938e+003, -1.727917e-002
3.777866e+003, -1.748921e-002
3.779795e+003, -1.798709e-002
3.781723e+003, -1.777299e-002
3.783652e+003, -1.844463e-002
3.785580e+003, -1.796012e-002
3.787509e+003, -1.802682e-002
3.789437e+003, -1.779053e-002
3.791365e+003, -1.762715e-002
3.793294e+003, -1.780120e-002
3.795222e+003, -1.890813e-002
3.797151e+003, -1.880562e-002
3.799079e+003, -1.994623e-002
3.801008e+003, -2.265419e-002
3.802936e+003, -2.111241e-002
3.804865e+003, -2.045042e-002
3.806793e+003, -2.216016e-002
3.808722e+003, -1.952509e-002
3.810650e+003, -1.788203e-002
3.812579e+003, -1.813531e-002
3.814507e+003, -2.099163e-002
3.816436e+003, -2.236422e-002
3.818364e+003, -2.055330e-002
3.820292e+003, -2.170306e-002
3.822221e+003, -2.048839e-002
3.824149e+003, -1.818233e-002
3.826078e+003, -1.890852e-002
3.828006e+003, -1.901744e-002
3.829935e+003, -1.933642e-002
3.831863e+003, -1.990019e-002
3.833792e+003, -2.018965e-002
3.835720e+003, -2.220975e-002
3.837649e+003, -2.428122e-002
3.839577e+003, -2.236690e-002
3.841506e+003, -1.996039e-002
3.843434e+003, -1.893013e-002
3.845363e+003, -1.831789e-002
3.847291e+003, -1.796926e-002
3.849219e+003, -1.944396e-002
3.851148e+003, -2.422417e-002
3.853076e+003, -2.981823e-002
3.855005e+003, -2.596424e-002
3.856933e+003, -1.975798e-002
3.858862e+003, -1.839104e-002
3.860790e+003, -1.900991e-002
3.862719e+003, -2.019299e-002
3.864647e+003, -2.083890e-002
3.866576e+003, -1.992881e-002
3.868504e+003, -2.178156e-002
3.870433e+003, -2.264016e-002
3.872361e+003, -2.056095e-002
3.874290e+003, -2.020116e-002
3.876218e+003, -1.895154e-002
3.878146e+003, -1.895797e-002
3.880075e+003, -2.034833e-002
3.882003e+003, -2.012707e-002
3.883932e+003, -2.071014e-002
3.885860e+003, -2.126179e-002
3.887789e+003, -1.927344e-002
3.889717e+003, -1.976805e-002
3.891646e+003, -2.072100e-002
3.893574e+003, -1.936308e-002
3.895503e+003, -1.828212e-002
3.897431e+003, -1.886063e-002
3.899360e+003, -2.034703e-002
3.901288e+003, -2.061498e-002
3.903217e+003, -2.037873e-002
3.905145e+003, -1.999273e-002
3.907073e+003, -1.924596e-002
3.909002e+003, -1.848889e-002
3.910930e+003, -1.839716e-002
3.912859e+003, -1.873547e-002
3.914787e+003, -1.917651e-002
3.916716e+003, -1.949471e-002
3.918644e+003, -1.847225e-002
3.920573e+003, -1.882495e-002
3.922501e+003, -1.985341e-002
3.924430e+003, -2.042670e-002
3.926358e+003, -1.960114e-002
3.928287e+003, -1.905265e-002
3.930215e+003, -1.923922e-002
3.932144e+003, -1.999588e-002
3.934072e+003, -2.024610e-002
3.936000e+003, -2.000151e-002
3.937929e+003, -1.941968e-002
3.939857e+003, -1.908019e-002
3.941786e+003, -1.915865e-002
3.943714e+003, -1.907114e-002
3.945643e+003, -1.848774e-002
3.947571e+003, -1.901159e-002
3.949500e+003, -1.945999e-002
3.951428e+003, -1.991721e-002
3.953357e+003, -2.005618e-002
3.955285e+003, -1.894826e-002
3.957214e+003, -1.869245e-002
3.959142e+003, -1.949932e-002
3.961071e+003, -2.048428e-002
3.962999e+003, -2.043240e-002
3.964927e+003, -1.980220e-002
3.966856e+003, -1.937782e-002
3.968784e+003, -1.918011e-002
3.970713e+003, -1.919206e-002
3.972641e+003, -1.907382e-002
3.974570e+003, -1.944866e-002
3.976498e+003, -1.986509e-002
3.978427e+003, -1.968303e-002
3.980355e+003, -1.982573e-002
3.982284e+003, -2.041405e-002
3.984212e+003, -2.011015e-002
3.986141e+003, -1.893145e-002
3.988069e+003, -1.886010e-002
3.989998e+003, -1.976601e-002
3.991926e+003, -2.016431e-002
3.993854e+003, -2.006499e-002
3.995783e+003, -1.946391e-002
3.997711e+003, -2.011190e-002
3.999640e+003, -2.027435e-002
4.001568e+003, 0.000000e+000
##END=



