##NAMES=Rutile
##RRUFFID=R050031
##IDEAL CHEMISTRY=Ti^4+^O_2_
##LOCALITY=Chester City, Pennsylvannia, USA
##OWNER=RRUFF
##SOURCE=University of Arizona Mineral Museum
##DESCRIPTION=Reddish brown single crystal fragment
##STATUS=The identification of this mineral has been confirmed by X-ray diffraction and chemical analysis
##URL=rruff.info/R050031
##MEASURED CHEMISTRY=TiO_2_
3.991926e+002, 2.618703e-001
4.011211e+002, 2.466517e-001
4.030496e+002, 2.478375e-001
4.049780e+002, 2.620994e-001
4.069065e+002, 2.432445e-001
4.088350e+002, 2.408109e-001
4.107634e+002, 2.560653e-001
4.126919e+002, 2.383560e-001
4.146204e+002, 2.428400e-001
4.165488e+002, 2.467599e-001
4.184773e+002, 2.280307e-001
4.204058e+002, 2.401709e-001
4.223342e+002, 2.344318e-001
4.242627e+002, 2.240706e-001
4.261912e+002, 2.334940e-001
4.281196e+002, 2.242627e-001
4.300481e+002, 2.236034e-001
4.319766e+002, 2.270577e-001
4.339050e+002, 2.211523e-001
4.358335e+002, 2.280780e-001
4.377620e+002, 2.287740e-001
4.396904e+002, 2.296073e-001
4.416189e+002, 2.380148e-001
4.435474e+002, 2.366794e-001
4.454758e+002, 2.440742e-001
4.474043e+002, 2.532297e-001
4.493328e+002, 2.548110e-001
4.512612e+002, 2.661601e-001
4.531897e+002, 2.732235e-001
4.551182e+002, 2.804400e-001
4.570466e+002, 2.901898e-001
4.589751e+002, 2.919840e-001
4.609036e+002, 2.983788e-001
4.628320e+002, 3.044910e-001
4.647605e+002, 3.081148e-001
4.666890e+002, 3.137296e-001
4.686174e+002, 3.169764e-001
4.705459e+002, 3.234958e-001
4.724744e+002, 3.256169e-001
4.744028e+002, 3.281866e-001
4.763313e+002, 3.323695e-001
4.782598e+002, 3.302021e-001
4.801882e+002, 3.342223e-001
4.821167e+002, 3.368591e-001
4.840452e+002, 3.351504e-001
4.859736e+002, 3.391884e-001
4.879021e+002, 3.381740e-001
4.898306e+002, 3.388745e-001
4.917590e+002, 3.413287e-001
4.936875e+002, 3.361434e-001
4.956160e+002, 3.369980e-001
4.975444e+002, 3.375505e-001
4.994729e+002, 3.342316e-001
5.014014e+002, 3.336955e-001
5.033298e+002, 3.295875e-001
5.052583e+002, 3.268178e-001
5.071868e+002, 3.238440e-001
5.091152e+002, 3.209116e-001
5.110437e+002, 3.201661e-001
5.129722e+002, 3.145794e-001
5.149006e+002, 3.115031e-001
5.168291e+002, 3.085057e-001
5.187576e+002, 3.033162e-001
5.206860e+002, 3.023647e-001
5.226145e+002, 2.981115e-001
5.245430e+002, 2.950844e-001
5.264714e+002, 2.946271e-001
5.283999e+002, 2.889720e-001
5.303284e+002, 2.884375e-001
5.322568e+002, 2.866190e-001
5.341853e+002, 2.817847e-001
5.361138e+002, 2.823848e-001
5.380422e+002, 2.804524e-001
5.399707e+002, 2.785854e-001
5.418992e+002, 2.778198e-001
5.438276e+002, 2.748510e-001
5.457561e+002, 2.753701e-001
5.476846e+002, 2.741420e-001
5.496130e+002, 2.722234e-001
5.515415e+002, 2.723022e-001
5.534700e+002, 2.700745e-001
5.553984e+002, 2.700883e-001
5.573269e+002, 2.688608e-001
5.592554e+002, 2.667013e-001
5.611838e+002, 2.679544e-001
5.631123e+002, 2.654417e-001
5.650408e+002, 2.634662e-001
5.669692e+002, 2.641364e-001
5.688977e+002, 2.619072e-001
5.708262e+002, 2.621856e-001
5.727546e+002, 2.614054e-001
5.746831e+002, 2.596073e-001
5.766116e+002, 2.598836e-001
5.785400e+002, 2.575884e-001
5.804685e+002, 2.566021e-001
5.823970e+002, 2.566749e-001
5.843254e+002, 2.541621e-001
5.862539e+002, 2.530348e-001
5.881824e+002, 2.517428e-001
5.901108e+002, 2.499204e-001
5.920393e+002, 2.488149e-001
5.939678e+002, 2.467292e-001
5.958962e+002, 2.457732e-001
5.978247e+002, 2.442836e-001
5.997532e+002, 2.424387e-001
6.016816e+002, 2.414954e-001
6.036101e+002, 2.393003e-001
6.055386e+002, 2.374403e-001
6.074670e+002, 2.363217e-001
6.093955e+002, 2.349581e-001
6.113240e+002, 2.341562e-001
6.132524e+002, 2.319158e-001
6.151809e+002, 2.298493e-001
6.171094e+002, 2.281045e-001
6.190378e+002, 2.257805e-001
6.209663e+002, 2.243822e-001
6.228948e+002, 2.224428e-001
6.248232e+002, 2.205777e-001
6.267517e+002, 2.194988e-001
6.286802e+002, 2.173017e-001
6.306086e+002, 2.159754e-001
6.325371e+002, 2.146848e-001
6.344656e+002, 2.125749e-001
6.363940e+002, 2.113801e-001
6.383225e+002, 2.096347e-001
6.402510e+002, 2.074033e-001
6.421794e+002, 2.059145e-001
6.441079e+002, 2.044768e-001
6.460364e+002, 2.028942e-001
6.479648e+002, 2.011162e-001
6.498933e+002, 1.991285e-001
6.518218e+002, 1.973651e-001
6.537502e+002, 1.957508e-001
6.556787e+002, 1.944972e-001
6.576072e+002, 1.930913e-001
6.595356e+002, 1.911679e-001
6.614641e+002, 1.896830e-001
6.633926e+002, 1.882302e-001
6.653210e+002, 1.866578e-001
6.672495e+002, 1.854738e-001
6.691780e+002, 1.837673e-001
6.711064e+002, 1.821063e-001
6.730349e+002, 1.803918e-001
6.749634e+002, 1.789236e-001
6.768918e+002, 1.778183e-001
6.788203e+002, 1.760920e-001
6.807488e+002, 1.743533e-001
6.826772e+002, 1.727982e-001
6.846057e+002, 1.712742e-001
6.865342e+002, 1.695119e-001
6.884626e+002, 1.677977e-001
6.903911e+002, 1.664425e-001
6.923196e+002, 1.649916e-001
6.942480e+002, 1.634989e-001
6.961765e+002, 1.618157e-001
6.981050e+002, 1.600122e-001
7.000334e+002, 1.584638e-001
7.019619e+002, 1.569247e-001
7.038904e+002, 1.551783e-001
7.058188e+002, 1.540228e-001
7.077473e+002, 1.526296e-001
7.096758e+002, 1.510614e-001
7.116042e+002, 1.493433e-001
7.135327e+002, 1.470793e-001
7.154612e+002, 1.452648e-001
7.173896e+002, 1.435785e-001
7.193181e+002, 1.416629e-001
7.212466e+002, 1.398572e-001
7.231750e+002, 1.378843e-001
7.251035e+002, 1.359534e-001
7.270320e+002, 1.340115e-001
7.289604e+002, 1.321891e-001
7.308889e+002, 1.303029e-001
7.328174e+002, 1.282402e-001
7.347458e+002, 1.263748e-001
7.366743e+002, 1.245841e-001
7.386028e+002, 1.224520e-001
7.405313e+002, 1.204485e-001
7.424597e+002, 1.186809e-001
7.443882e+002, 1.169225e-001
7.463167e+002, 1.149777e-001
7.482451e+002, 1.128667e-001
7.501736e+002, 1.109162e-001
7.521021e+002, 1.088100e-001
7.540305e+002, 1.069588e-001
7.559590e+002, 1.054133e-001
7.578875e+002, 1.037450e-001
7.598159e+002, 1.018421e-001
7.617444e+002, 1.000175e-001
7.636729e+002, 9.808435e-002
7.656013e+002, 9.623151e-002
7.675298e+002, 9.462903e-002
7.694583e+002, 9.292601e-002
7.713867e+002, 9.102254e-002
7.733152e+002, 8.926533e-002
7.752437e+002, 8.745458e-002
7.771721e+002, 8.570877e-002
7.791006e+002, 8.442460e-002
7.810291e+002, 8.290831e-002
7.829575e+002, 8.110623e-002
7.848860e+002, 7.928906e-002
7.868145e+002, 7.768159e-002
7.887429e+002, 7.621199e-002
7.906714e+002, 7.475698e-002
7.925999e+002, 7.335100e-002
7.945283e+002, 7.184339e-002
7.964568e+002, 7.039356e-002
7.983853e+002, 6.877549e-002
8.003137e+002, 6.714645e-002
8.022422e+002, 6.587262e-002
8.041707e+002, 6.488585e-002
8.060991e+002, 6.376971e-002
8.080276e+002, 6.244442e-002
8.099561e+002, 6.117894e-002
8.118845e+002, 5.974026e-002
8.138130e+002, 5.850343e-002
8.157415e+002, 5.741619e-002
8.176699e+002, 5.627940e-002
8.195984e+002, 5.508045e-002
8.215269e+002, 5.408882e-002
8.234553e+002, 5.293938e-002
8.253838e+002, 5.197681e-002
8.273123e+002, 5.130096e-002
8.292407e+002, 5.034997e-002
8.311692e+002, 4.940632e-002
8.330977e+002, 4.843796e-002
8.350261e+002, 4.766290e-002
8.369546e+002, 4.702854e-002
8.388831e+002, 4.620245e-002
8.408115e+002, 4.542695e-002
8.427400e+002, 4.472137e-002
8.446685e+002, 4.407135e-002
8.465969e+002, 4.345209e-002
8.485254e+002, 4.300585e-002
8.504539e+002, 4.257346e-002
8.523823e+002, 4.208145e-002
8.543108e+002, 4.162631e-002
8.562393e+002, 4.108268e-002
8.581677e+002, 4.071664e-002
8.600962e+002, 4.050025e-002
8.620247e+002, 4.016681e-002
8.639531e+002, 3.992013e-002
8.658816e+002, 3.960325e-002
8.678101e+002, 3.953521e-002
8.697385e+002, 3.944566e-002
8.716670e+002, 3.912766e-002
8.735955e+002, 3.897928e-002
8.755239e+002, 3.913820e-002
8.774524e+002, 3.903819e-002
8.793809e+002, 3.874800e-002
8.813093e+002, 3.835412e-002
8.832378e+002, 3.801152e-002
8.851663e+002, 3.771648e-002
8.870947e+002, 3.722180e-002
8.890232e+002, 3.684478e-002
8.909517e+002, 3.668815e-002
8.928801e+002, 3.648884e-002
8.948085e+002, 3.618355e-002
8.967370e+002, 3.597477e-002
8.986655e+002, 3.589218e-002
9.005939e+002, 3.580819e-002
9.025224e+002, 3.550380e-002
9.044509e+002, 3.510147e-002
9.063793e+002, 3.485590e-002
9.083078e+002, 3.465732e-002
9.102363e+002, 3.436681e-002
9.121647e+002, 3.390930e-002
9.140932e+002, 3.355712e-002
9.160217e+002, 3.340999e-002
9.179501e+002, 3.312520e-002
9.198786e+002, 3.272934e-002
9.218071e+002, 3.235887e-002
9.237355e+002, 3.210963e-002
9.256640e+002, 3.191049e-002
9.275925e+002, 3.166392e-002
9.295209e+002, 3.137863e-002
9.314494e+002, 3.104514e-002
9.333779e+002, 3.065256e-002
9.353063e+002, 3.045376e-002
9.372348e+002, 3.036647e-002
9.391633e+002, 3.034022e-002
9.410917e+002, 3.036832e-002
9.430202e+002, 3.018307e-002
9.449487e+002, 3.001232e-002
9.468771e+002, 2.995956e-002
9.488056e+002, 2.983494e-002
9.507341e+002, 2.961111e-002
9.526625e+002, 2.957149e-002
9.545910e+002, 2.967003e-002
9.565195e+002, 2.979862e-002
9.584479e+002, 3.008937e-002
9.603764e+002, 3.021144e-002
9.623049e+002, 3.007352e-002
9.642333e+002, 3.016906e-002
9.661618e+002, 3.028191e-002
9.680903e+002, 3.030949e-002
9.700187e+002, 3.027529e-002
9.719472e+002, 3.013756e-002
9.738757e+002, 2.994896e-002
9.758041e+002, 2.975607e-002
9.777326e+002, 2.957497e-002
9.796611e+002, 2.934222e-002
9.815895e+002, 2.905798e-002
9.835180e+002, 2.884029e-002
9.854465e+002, 2.874357e-002
9.873749e+002, 2.859468e-002
9.893034e+002, 2.854948e-002
9.912319e+002, 2.854563e-002
9.931603e+002, 2.850719e-002
9.950888e+002, 2.830707e-002
9.970173e+002, 2.816886e-002
9.989457e+002, 2.811947e-002
1.000874e+003, 2.806166e-002
1.002803e+003, 2.792333e-002
1.004731e+003, 2.791447e-002
1.006660e+003, 2.806765e-002
1.008588e+003, 2.798817e-002
1.010517e+003, 2.784801e-002
1.012445e+003, 2.784581e-002
1.014373e+003, 2.776339e-002
1.016302e+003, 2.770774e-002
1.018230e+003, 2.741542e-002
1.020159e+003, 2.722303e-002
1.022087e+003, 2.709401e-002
1.024016e+003, 2.700759e-002
1.025944e+003, 2.713071e-002
1.027873e+003, 2.717762e-002
1.029801e+003, 2.706657e-002
1.031730e+003, 2.709770e-002
1.033658e+003, 2.728505e-002
1.035587e+003, 2.747812e-002
1.037515e+003, 2.748277e-002
1.039444e+003, 2.750462e-002
1.041372e+003, 2.768487e-002
1.043301e+003, 2.768039e-002
1.045229e+003, 2.775669e-002
1.047157e+003, 2.787735e-002
1.049086e+003, 2.775690e-002
1.051014e+003, 2.773206e-002
1.052943e+003, 2.808718e-002
1.054871e+003, 2.834234e-002
1.056800e+003, 2.852544e-002
1.058728e+003, 2.876637e-002
1.060657e+003, 2.895634e-002
1.062585e+003, 2.927485e-002
1.064514e+003, 2.951705e-002
1.066442e+003, 2.958516e-002
1.068371e+003, 2.984396e-002
1.070299e+003, 3.019363e-002
1.072228e+003, 3.015542e-002
1.074156e+003, 2.986935e-002
1.076084e+003, 2.991835e-002
1.078013e+003, 2.991438e-002
1.079941e+003, 2.972821e-002
1.081870e+003, 2.969542e-002
1.083798e+003, 2.967765e-002
1.085727e+003, 2.955298e-002
1.087655e+003, 2.953696e-002
1.089584e+003, 2.967497e-002
1.091512e+003, 2.985230e-002
1.093441e+003, 2.987295e-002
1.095369e+003, 2.991237e-002
1.097298e+003, 2.990405e-002
1.099226e+003, 2.986546e-002
1.101155e+003, 3.001359e-002
1.103083e+003, 3.017379e-002
1.105011e+003, 3.016773e-002
1.106940e+003, 3.018910e-002
1.108868e+003, 3.033103e-002
1.110797e+003, 3.029095e-002
1.112725e+003, 3.007715e-002
1.114654e+003, 3.009030e-002
1.116582e+003, 3.020846e-002
1.118511e+003, 3.020521e-002
1.120439e+003, 3.023083e-002
1.122368e+003, 3.018492e-002
1.124296e+003, 3.037718e-002
1.126225e+003, 3.054398e-002
1.128153e+003, 3.044555e-002
1.130082e+003, 3.035093e-002
1.132010e+003, 3.055185e-002
1.133938e+003, 3.076593e-002
1.135867e+003, 3.086890e-002
1.137795e+003, 3.098211e-002
1.139724e+003, 3.103313e-002
1.141652e+003, 3.114070e-002
1.143581e+003, 3.135015e-002
1.145509e+003, 3.151575e-002
1.147438e+003, 3.155445e-002
1.149366e+003, 3.180739e-002
1.151295e+003, 3.207146e-002
1.153223e+003, 3.211737e-002
1.155152e+003, 3.226694e-002
1.157080e+003, 3.232340e-002
1.159009e+003, 3.249712e-002
1.160937e+003, 3.278044e-002
1.162865e+003, 3.301718e-002
1.164794e+003, 3.318439e-002
1.166722e+003, 3.347299e-002
1.168651e+003, 3.373783e-002
1.170579e+003, 3.390666e-002
1.172508e+003, 3.414403e-002
1.174436e+003, 3.445187e-002
1.176365e+003, 3.465285e-002
1.178293e+003, 3.476341e-002
1.180222e+003, 3.490747e-002
1.182150e+003, 3.529100e-002
1.184079e+003, 3.553803e-002
1.186007e+003, 3.566262e-002
1.187936e+003, 3.606824e-002
1.189864e+003, 3.653580e-002
1.191792e+003, 3.681343e-002
1.193721e+003, 3.707065e-002
1.195649e+003, 3.733373e-002
1.197578e+003, 3.764671e-002
1.199506e+003, 3.795021e-002
1.201435e+003, 3.822449e-002
1.203363e+003, 3.856054e-002
1.205292e+003, 3.889508e-002
1.207220e+003, 3.899144e-002
1.209149e+003, 3.907562e-002
1.211077e+003, 3.949426e-002
1.213006e+003, 3.975921e-002
1.214934e+003, 3.980178e-002
1.216863e+003, 4.001732e-002
1.218791e+003, 4.048808e-002
1.220719e+003, 4.106004e-002
1.222648e+003, 4.143025e-002
1.224576e+003, 4.153822e-002
1.226505e+003, 4.173771e-002
1.228433e+003, 4.222148e-002
1.230362e+003, 4.270159e-002
1.232290e+003, 4.290218e-002
1.234219e+003, 4.316865e-002
1.236147e+003, 4.355783e-002
1.238076e+003, 4.401738e-002
1.240004e+003, 4.448815e-002
1.241933e+003, 4.473568e-002
1.243861e+003, 4.487957e-002
1.245790e+003, 4.531559e-002
1.247718e+003, 4.576337e-002
1.249646e+003, 4.609958e-002
1.251575e+003, 4.632528e-002
1.253503e+003, 4.661582e-002
1.255432e+003, 4.711515e-002
1.257360e+003, 4.756821e-002
1.259289e+003, 4.797104e-002
1.261217e+003, 4.842079e-002
1.263146e+003, 4.879927e-002
1.265074e+003, 4.915043e-002
1.267003e+003, 4.946726e-002
1.268931e+003, 4.984142e-002
1.270860e+003, 5.039334e-002
1.272788e+003, 5.084118e-002
1.274717e+003, 5.111362e-002
1.276645e+003, 5.153158e-002
1.278573e+003, 5.209230e-002
1.280502e+003, 5.259290e-002
1.282430e+003, 5.299903e-002
1.284359e+003, 5.323400e-002
1.286287e+003, 5.345250e-002
1.288216e+003, 5.377262e-002
1.290144e+003, 5.418466e-002
1.292073e+003, 5.452830e-002
1.294001e+003, 5.480928e-002
1.295930e+003, 5.534915e-002
1.297858e+003, 5.591791e-002
1.299787e+003, 5.638605e-002
1.301715e+003, 5.676008e-002
1.303644e+003, 5.709657e-002
1.305572e+003, 5.761134e-002
1.307500e+003, 5.819512e-002
1.309429e+003, 5.866866e-002
1.311357e+003, 5.915761e-002
1.313286e+003, 5.969587e-002
1.315214e+003, 6.015264e-002
1.317143e+003, 6.048626e-002
1.319071e+003, 6.061007e-002
1.321000e+003, 6.102344e-002
1.322928e+003, 6.178156e-002
1.324857e+003, 6.226885e-002
1.326785e+003, 6.264178e-002
1.328714e+003, 6.311794e-002
1.330642e+003, 6.364286e-002
1.332571e+003, 6.416798e-002
1.334499e+003, 6.466680e-002
1.336427e+003, 6.507982e-002
1.338356e+003, 6.537506e-002
1.340284e+003, 6.577316e-002
1.342213e+003, 6.637274e-002
1.344141e+003, 6.701521e-002
1.346070e+003, 6.754624e-002
1.347998e+003, 6.796476e-002
1.349927e+003, 6.849563e-002
1.351855e+003, 6.903867e-002
1.353784e+003, 6.965349e-002
1.355712e+003, 7.007837e-002
1.357641e+003, 7.052763e-002
1.359569e+003, 7.112231e-002
1.361498e+003, 7.171375e-002
1.363426e+003, 7.226985e-002
1.365354e+003, 7.276430e-002
1.367283e+003, 7.317113e-002
1.369211e+003, 7.370076e-002
1.371140e+003, 7.418446e-002
1.373068e+003, 7.458917e-002
1.374997e+003, 7.514556e-002
1.376925e+003, 7.580817e-002
1.378854e+003, 7.636114e-002
1.380782e+003, 7.669674e-002
1.382711e+003, 7.726026e-002
1.384639e+003, 7.796690e-002
1.386568e+003, 7.853460e-002
1.388496e+003, 7.923123e-002
1.390424e+003, 7.978014e-002
1.392353e+003, 8.030614e-002
1.394281e+003, 8.082555e-002
1.396210e+003, 8.139454e-002
1.398138e+003, 8.216269e-002
1.400067e+003, 8.274077e-002
1.401995e+003, 8.324473e-002
1.403924e+003, 8.386850e-002
1.405852e+003, 8.436212e-002
1.407781e+003, 8.496533e-002
1.409709e+003, 8.561525e-002
1.411638e+003, 8.627933e-002
1.413566e+003, 8.697547e-002
1.415495e+003, 8.742971e-002
1.417423e+003, 8.795117e-002
1.419351e+003, 8.854918e-002
1.421280e+003, 8.900583e-002
1.423208e+003, 8.961160e-002
1.425137e+003, 9.014440e-002
1.427065e+003, 9.062540e-002
1.428994e+003, 9.124471e-002
1.430922e+003, 9.175660e-002
1.432851e+003, 9.214354e-002
1.434779e+003, 9.260297e-002
1.436708e+003, 9.309939e-002
1.438636e+003, 9.356469e-002
1.440565e+003, 9.396046e-002
1.442493e+003, 9.441082e-002
1.444422e+003, 9.478030e-002
1.446350e+003, 9.519535e-002
1.448278e+003, 9.565596e-002
1.450207e+003, 9.594922e-002
1.452135e+003, 9.615070e-002
1.454064e+003, 9.656513e-002
1.455992e+003, 9.712266e-002
1.457921e+003, 9.744158e-002
1.459849e+003, 9.777153e-002
1.461778e+003, 9.806634e-002
1.463706e+003, 9.836598e-002
1.465635e+003, 9.858087e-002
1.467563e+003, 9.883429e-002
1.469492e+003, 9.917423e-002
1.471420e+003, 9.935000e-002
1.473349e+003, 9.946891e-002
1.475277e+003, 9.968724e-002
1.477205e+003, 9.994148e-002
1.479134e+003, 1.004154e-001
1.481062e+003, 1.009574e-001
1.482991e+003, 1.012766e-001
1.484919e+003, 1.014698e-001
1.486848e+003, 1.018791e-001
1.488776e+003, 1.022973e-001
1.490705e+003, 1.027135e-001
1.492633e+003, 1.031354e-001
1.494562e+003, 1.034879e-001
1.496490e+003, 1.039693e-001
1.498419e+003, 1.044091e-001
1.500347e+003, 1.049736e-001
1.502276e+003, 1.056147e-001
1.504204e+003, 1.059969e-001
1.506132e+003, 1.064770e-001
1.508061e+003, 1.070474e-001
1.509989e+003, 1.073311e-001
1.511918e+003, 1.076792e-001
1.513846e+003, 1.081719e-001
1.515775e+003, 1.085429e-001
1.517703e+003, 1.090572e-001
1.519632e+003, 1.097478e-001
1.521560e+003, 1.104912e-001
1.523489e+003, 1.109387e-001
1.525417e+003, 1.111609e-001
1.527346e+003, 1.115576e-001
1.529274e+003, 1.119984e-001
1.531203e+003, 1.125463e-001
1.533131e+003, 1.130702e-001
1.535059e+003, 1.135488e-001
1.536988e+003, 1.140377e-001
1.538916e+003, 1.144818e-001
1.540845e+003, 1.148706e-001
1.542773e+003, 1.152121e-001
1.544702e+003, 1.157500e-001
1.546630e+003, 1.162818e-001
1.548559e+003, 1.167052e-001
1.550487e+003, 1.172714e-001
1.552416e+003, 1.176660e-001
1.554344e+003, 1.180846e-001
1.556273e+003, 1.185677e-001
1.558201e+003, 1.191932e-001
1.560130e+003, 1.197697e-001
1.562058e+003, 1.200031e-001
1.563986e+003, 1.202876e-001
1.565915e+003, 1.206944e-001
1.567843e+003, 1.212559e-001
1.569772e+003, 1.217537e-001
1.571700e+003, 1.221366e-001
1.573629e+003, 1.225609e-001
1.575557e+003, 1.231954e-001
1.577486e+003, 1.236877e-001
1.579414e+003, 1.240447e-001
1.581343e+003, 1.243744e-001
1.583271e+003, 1.249250e-001
1.585200e+003, 1.254177e-001
1.587128e+003, 1.256360e-001
1.589057e+003, 1.260719e-001
1.590985e+003, 1.265646e-001
1.592913e+003, 1.270948e-001
1.594842e+003, 1.274869e-001
1.596770e+003, 1.276566e-001
1.598699e+003, 1.279404e-001
1.600627e+003, 1.285820e-001
1.602556e+003, 1.289717e-001
1.604484e+003, 1.294136e-001
1.606413e+003, 1.300370e-001
1.608341e+003, 1.304957e-001
1.610270e+003, 1.307700e-001
1.612198e+003, 1.312960e-001
1.614127e+003, 1.319405e-001
1.616055e+003, 1.325406e-001
1.617984e+003, 1.328556e-001
1.619912e+003, 1.329350e-001
1.621840e+003, 1.332300e-001
1.623769e+003, 1.335901e-001
1.625697e+003, 1.339919e-001
1.627626e+003, 1.344183e-001
1.629554e+003, 1.348775e-001
1.631483e+003, 1.351253e-001
1.633411e+003, 1.353803e-001
1.635340e+003, 1.357569e-001
1.637268e+003, 1.360831e-001
1.639197e+003, 1.364248e-001
1.641125e+003, 1.368148e-001
1.643054e+003, 1.372812e-001
1.644982e+003, 1.376022e-001
1.646911e+003, 1.379629e-001
1.648839e+003, 1.385738e-001
1.650767e+003, 1.389041e-001
1.652696e+003, 1.391591e-001
1.654624e+003, 1.392520e-001
1.656553e+003, 1.394312e-001
1.658481e+003, 1.397303e-001
1.660410e+003, 1.400312e-001
1.662338e+003, 1.405438e-001
1.664267e+003, 1.407957e-001
1.666195e+003, 1.409681e-001
1.668124e+003, 1.411851e-001
1.670052e+003, 1.415484e-001
1.671981e+003, 1.419675e-001
1.673909e+003, 1.422886e-001
1.675838e+003, 1.427870e-001
1.677766e+003, 1.432414e-001
1.679694e+003, 1.433602e-001
1.681623e+003, 1.435545e-001
1.683551e+003, 1.437080e-001
1.685480e+003, 1.440110e-001
1.687408e+003, 1.443278e-001
1.689337e+003, 1.446870e-001
1.691265e+003, 1.450610e-001
1.693194e+003, 1.454296e-001
1.695122e+003, 1.457533e-001
1.697051e+003, 1.457821e-001
1.698979e+003, 1.458710e-001
1.700908e+003, 1.461680e-001
1.702836e+003, 1.464478e-001
1.704765e+003, 1.466775e-001
1.706693e+003, 1.469747e-001
1.708621e+003, 1.471682e-001
1.710550e+003, 1.473824e-001
1.712478e+003, 1.479432e-001
1.714407e+003, 1.483295e-001
1.716335e+003, 1.487627e-001
1.718264e+003, 1.492838e-001
1.720192e+003, 1.498524e-001
1.722121e+003, 1.501924e-001
1.724049e+003, 1.504093e-001
1.725978e+003, 1.509884e-001
1.727906e+003, 1.514910e-001
1.729835e+003, 1.517616e-001
1.731763e+003, 1.521041e-001
1.733692e+003, 1.525174e-001
1.735620e+003, 1.527014e-001
1.737548e+003, 1.527853e-001
1.739477e+003, 1.530803e-001
1.741405e+003, 1.532768e-001
1.743334e+003, 1.533149e-001
1.745262e+003, 1.535893e-001
1.747191e+003, 1.536316e-001
1.749119e+003, 1.538438e-001
1.751048e+003, 1.541547e-001
1.752976e+003, 1.542921e-001
1.754905e+003, 1.546653e-001
1.756833e+003, 1.550228e-001
1.758762e+003, 1.554140e-001
1.760690e+003, 1.556912e-001
1.762619e+003, 1.561703e-001
1.764547e+003, 1.568407e-001
1.766475e+003, 1.571973e-001
1.768404e+003, 1.572973e-001
1.770332e+003, 1.575446e-001
1.772261e+003, 1.577063e-001
1.774189e+003, 1.579600e-001
1.776118e+003, 1.584991e-001
1.778046e+003, 1.590734e-001
1.779975e+003, 1.592546e-001
1.781903e+003, 1.595470e-001
1.783832e+003, 1.601859e-001
1.785760e+003, 1.602639e-001
1.787689e+003, 1.604972e-001
1.789617e+003, 1.611935e-001
1.791546e+003, 1.615364e-001
1.793474e+003, 1.617143e-001
1.795402e+003, 1.617507e-001
1.797331e+003, 1.619969e-001
1.799259e+003, 1.624656e-001
1.801188e+003, 1.627052e-001
1.803116e+003, 1.630647e-001
1.805045e+003, 1.637204e-001
1.806973e+003, 1.639209e-001
1.808902e+003, 1.640114e-001
1.810830e+003, 1.641625e-001
1.812759e+003, 1.641930e-001
1.814687e+003, 1.645630e-001
1.816616e+003, 1.652048e-001
1.818544e+003, 1.657771e-001
1.820473e+003, 1.661474e-001
1.822401e+003, 1.666091e-001
1.824329e+003, 1.672511e-001
1.826258e+003, 1.677248e-001
1.828186e+003, 1.680947e-001
1.830115e+003, 1.679967e-001
1.832043e+003, 1.681367e-001
1.833972e+003, 1.689744e-001
1.835900e+003, 1.694231e-001
1.837829e+003, 1.691908e-001
1.839757e+003, 1.694545e-001
1.841686e+003, 1.702333e-001
1.843614e+003, 1.706408e-001
1.845543e+003, 1.709634e-001
1.847471e+003, 1.713938e-001
1.849400e+003, 1.719810e-001
1.851328e+003, 1.721411e-001
1.853256e+003, 1.723637e-001
1.855185e+003, 1.727067e-001
1.857113e+003, 1.730406e-001
1.859042e+003, 1.735434e-001
1.860970e+003, 1.738622e-001
1.862899e+003, 1.740052e-001
1.864827e+003, 1.742682e-001
1.866756e+003, 1.747162e-001
1.868684e+003, 1.754552e-001
1.870613e+003, 1.757404e-001
1.872541e+003, 1.756009e-001
1.874470e+003, 1.757614e-001
1.876398e+003, 1.760608e-001
1.878327e+003, 1.764379e-001
1.880255e+003, 1.766233e-001
1.882183e+003, 1.762945e-001
1.884112e+003, 1.769700e-001
1.886040e+003, 1.775946e-001
1.887969e+003, 1.780724e-001
1.889897e+003, 1.787686e-001
1.891826e+003, 1.788827e-001
1.893754e+003, 1.785290e-001
1.895683e+003, 1.790738e-001
1.897611e+003, 1.801707e-001
1.899540e+003, 1.803387e-001
1.901468e+003, 1.805761e-001
1.903397e+003, 1.808205e-001
1.905325e+003, 1.812105e-001
1.907254e+003, 1.816986e-001
1.909182e+003, 1.813393e-001
1.911110e+003, 1.813622e-001
1.913039e+003, 1.826291e-001
1.914967e+003, 1.831547e-001
1.916896e+003, 1.830765e-001
1.918824e+003, 1.829638e-001
1.920753e+003, 1.832958e-001
1.922681e+003, 1.836796e-001
1.924610e+003, 1.834228e-001
1.926538e+003, 1.837567e-001
1.928467e+003, 1.838720e-001
1.930395e+003, 1.851474e-001
1.932324e+003, 1.855312e-001
1.934252e+003, 1.854580e-001
1.936181e+003, 1.862289e-001
1.938109e+003, 1.868877e-001
1.940037e+003, 1.871747e-001
1.941966e+003, 1.870337e-001
1.943894e+003, 1.874701e-001
1.945823e+003, 1.875318e-001
1.947751e+003, 1.864407e-001
1.949680e+003, 1.871084e-001
1.951608e+003, 1.892304e-001
1.953537e+003, 1.894155e-001
1.955465e+003, 1.883940e-001
1.957394e+003, 1.889097e-001
1.959322e+003, 1.900515e-001
1.961251e+003, 1.905326e-001
1.963179e+003, 1.890498e-001
1.965108e+003, 1.891496e-001
1.967036e+003, 1.916004e-001
1.968964e+003, 1.920460e-001
1.970893e+003, 1.920682e-001
1.972821e+003, 1.924750e-001
1.974750e+003, 1.914423e-001
1.976678e+003, 1.915972e-001
1.978607e+003, 1.943090e-001
1.980535e+003, 1.947937e-001
1.982464e+003, 1.941309e-001
1.984392e+003, 1.952433e-001
1.986321e+003, 1.940741e-001
1.988249e+003, 1.932027e-001
1.990178e+003, 1.956331e-001
1.992106e+003, 1.954400e-001
1.994035e+003, 1.932967e-001
1.995963e+003, 1.942886e-001
1.997891e+003, 1.954836e-001
1.999820e+003, 1.945330e-001
2.001748e+003, 1.955863e-001
2.003677e+003, 1.954667e-001
2.005605e+003, 1.947444e-001
2.007534e+003, 1.950251e-001
2.009462e+003, 1.958196e-001
2.011391e+003, 1.973915e-001
2.013319e+003, 1.973658e-001
2.015248e+003, 1.967641e-001
2.017176e+003, 1.968844e-001
2.019105e+003, 1.971134e-001
2.021033e+003, 1.967347e-001
2.022962e+003, 1.974314e-001
2.024890e+003, 1.982861e-001
2.026818e+003, 1.995711e-001
2.028747e+003, 1.992391e-001
2.030675e+003, 1.992658e-001
2.032604e+003, 2.000646e-001
2.034532e+003, 2.004795e-001
2.036461e+003, 2.009150e-001
2.038389e+003, 2.010261e-001
2.040318e+003, 1.994401e-001
2.042246e+003, 1.997352e-001
2.044175e+003, 2.004199e-001
2.046103e+003, 2.005670e-001
2.048032e+003, 2.026713e-001
2.049960e+003, 2.043227e-001
2.051889e+003, 2.040551e-001
2.053817e+003, 2.040197e-001
2.055746e+003, 2.039966e-001
2.057674e+003, 2.035346e-001
2.059603e+003, 2.027674e-001
2.061531e+003, 2.026816e-001
2.063459e+003, 2.032638e-001
2.065388e+003, 2.029365e-001
2.067316e+003, 2.030376e-001
2.069245e+003, 2.044663e-001
2.071173e+003, 2.046687e-001
2.073102e+003, 2.042087e-001
2.075030e+003, 2.049127e-001
2.076959e+003, 2.053896e-001
2.078887e+003, 2.054484e-001
2.080816e+003, 2.050526e-001
2.082744e+003, 2.061147e-001
2.084673e+003, 2.074687e-001
2.086601e+003, 2.072951e-001
2.088530e+003, 2.069441e-001
2.090458e+003, 2.066702e-001
2.092386e+003, 2.068185e-001
2.094315e+003, 2.073115e-001
2.096243e+003, 2.073988e-001
2.098172e+003, 2.072300e-001
2.100100e+003, 2.073377e-001
2.102029e+003, 2.078814e-001
2.103957e+003, 2.089357e-001
2.105886e+003, 2.093063e-001
2.107814e+003, 2.091789e-001
2.109743e+003, 2.095128e-001
2.111671e+003, 2.098570e-001
2.113600e+003, 2.105561e-001
2.115528e+003, 2.100490e-001
2.117457e+003, 2.095530e-001
2.119385e+003, 2.096171e-001
2.121313e+003, 2.104875e-001
2.123242e+003, 2.108832e-001
2.125170e+003, 2.097458e-001
2.127099e+003, 2.099555e-001
2.129027e+003, 2.099402e-001
2.130956e+003, 2.095860e-001
2.132884e+003, 2.112950e-001
2.134813e+003, 2.121612e-001
2.136741e+003, 2.113700e-001
2.138670e+003, 2.118659e-001
2.140598e+003, 2.128536e-001
2.142527e+003, 2.130812e-001
2.144455e+003, 2.119892e-001
2.146384e+003, 2.119400e-001
2.148312e+003, 2.126489e-001
2.150240e+003, 2.120948e-001
2.152169e+003, 2.122759e-001
2.154097e+003, 2.115867e-001
2.156026e+003, 2.113943e-001
2.157954e+003, 2.147894e-001
2.159883e+003, 2.188856e-001
2.161811e+003, 2.189284e-001
2.163740e+003, 2.192351e-001
2.165668e+003, 2.186690e-001
2.167597e+003, 2.175172e-001
2.169525e+003, 2.162325e-001
2.171454e+003, 2.157613e-001
2.173382e+003, 2.164393e-001
2.175311e+003, 2.174584e-001
2.177239e+003, 2.186335e-001
2.179167e+003, 2.166113e-001
2.181096e+003, 2.164385e-001
2.183024e+003, 2.187485e-001
2.184953e+003, 2.189396e-001
2.186881e+003, 2.173930e-001
2.188810e+003, 2.173127e-001
2.190738e+003, 2.181270e-001
2.192667e+003, 2.190991e-001
2.194595e+003, 2.206222e-001
2.196524e+003, 2.198371e-001
2.198452e+003, 2.192257e-001
2.200381e+003, 2.207901e-001
2.202309e+003, 2.210650e-001
2.204238e+003, 2.206968e-001
2.206166e+003, 2.209661e-001
2.208094e+003, 2.214793e-001
2.210023e+003, 2.208671e-001
2.211951e+003, 2.196787e-001
2.213880e+003, 2.201042e-001
2.215808e+003, 2.210673e-001
2.217737e+003, 2.225705e-001
2.219665e+003, 2.228556e-001
2.221594e+003, 2.229228e-001
2.223522e+003, 2.229712e-001
2.225451e+003, 2.226778e-001
2.227379e+003, 2.230992e-001
2.229308e+003, 2.229150e-001
2.231236e+003, 2.221118e-001
2.233165e+003, 2.231274e-001
2.235093e+003, 2.238703e-001
2.237021e+003, 2.233539e-001
2.238950e+003, 2.236699e-001
2.240878e+003, 2.237126e-001
2.242807e+003, 2.248022e-001
2.244735e+003, 2.253208e-001
2.246664e+003, 2.236371e-001
2.248592e+003, 2.232249e-001
2.250521e+003, 2.236152e-001
2.252449e+003, 2.244028e-001
2.254378e+003, 2.254281e-001
2.256306e+003, 2.256562e-001
2.258235e+003, 2.263606e-001
2.260163e+003, 2.265204e-001
2.262092e+003, 2.267494e-001
2.264020e+003, 2.267088e-001
2.265948e+003, 2.267513e-001
2.267877e+003, 2.281121e-001
2.269805e+003, 2.287737e-001
2.271734e+003, 2.274467e-001
2.273662e+003, 2.267108e-001
2.275591e+003, 2.272248e-001
2.277519e+003, 2.280556e-001
2.279448e+003, 2.280946e-001
2.281376e+003, 2.284040e-001
2.283305e+003, 2.282436e-001
2.285233e+003, 2.281772e-001
2.287162e+003, 2.285223e-001
2.289090e+003, 2.288176e-001
2.291019e+003, 2.281231e-001
2.292947e+003, 2.278943e-001
2.294875e+003, 2.281182e-001
2.296804e+003, 2.285576e-001
2.298732e+003, 2.286671e-001
2.300661e+003, 2.289660e-001
2.302589e+003, 2.291771e-001
2.304518e+003, 2.289999e-001
2.306446e+003, 2.295118e-001
2.308375e+003, 2.306328e-001
2.310303e+003, 2.309183e-001
2.312232e+003, 2.304489e-001
2.314160e+003, 2.302999e-001
2.316089e+003, 2.308600e-001
2.318017e+003, 2.316679e-001
2.319946e+003, 2.319236e-001
2.321874e+003, 2.320358e-001
2.323802e+003, 2.317910e-001
2.325731e+003, 2.309649e-001
2.327659e+003, 2.305499e-001
2.329588e+003, 2.304839e-001
2.331516e+003, 2.306287e-001
2.333445e+003, 2.310897e-001
2.335373e+003, 2.315247e-001
2.337302e+003, 2.319376e-001
2.339230e+003, 2.317778e-001
2.341159e+003, 2.316953e-001
2.343087e+003, 2.319594e-001
2.345016e+003, 2.323598e-001
2.346944e+003, 2.325798e-001
2.348873e+003, 2.324708e-001
2.350801e+003, 2.328441e-001
2.352729e+003, 2.332128e-001
2.354658e+003, 2.334637e-001
2.356586e+003, 2.338524e-001
2.358515e+003, 2.336378e-001
2.360443e+003, 2.335713e-001
2.362372e+003, 2.342835e-001
2.364300e+003, 2.342201e-001
2.366229e+003, 2.335645e-001
2.368157e+003, 2.332319e-001
2.370086e+003, 2.336030e-001
2.372014e+003, 2.344630e-001
2.373942e+003, 2.349629e-001
2.375871e+003, 2.346061e-001
2.377799e+003, 2.349456e-001
2.379728e+003, 2.352870e-001
2.381656e+003, 2.353245e-001
2.383585e+003, 2.354612e-001
2.385513e+003, 2.361578e-001
2.387442e+003, 2.369378e-001
2.389370e+003, 2.371280e-001
2.391299e+003, 2.364869e-001
2.393227e+003, 2.363095e-001
2.395156e+003, 2.368391e-001
2.397084e+003, 2.367279e-001
2.399012e+003, 2.373732e-001
2.400941e+003, 2.380947e-001
2.402869e+003, 2.381080e-001
2.404798e+003, 2.383055e-001
2.406726e+003, 2.388725e-001
2.408655e+003, 2.391728e-001
2.410583e+003, 2.387468e-001
2.412512e+003, 2.388694e-001
2.414440e+003, 2.394931e-001
2.416369e+003, 2.391995e-001
2.418297e+003, 2.391644e-001
2.420226e+003, 2.396024e-001
2.422154e+003, 2.399026e-001
2.424083e+003, 2.401060e-001
2.426011e+003, 2.401337e-001
2.427939e+003, 2.404511e-001
2.429868e+003, 2.408843e-001
2.431796e+003, 2.413734e-001
2.433725e+003, 2.417212e-001
2.435653e+003, 2.423443e-001
2.437582e+003, 2.423529e-001
2.439510e+003, 2.417385e-001
2.441439e+003, 2.420290e-001
2.443367e+003, 2.422652e-001
2.445296e+003, 2.424504e-001
2.447224e+003, 2.425123e-001
2.449153e+003, 2.430337e-001
2.451081e+003, 2.436460e-001
2.453010e+003, 2.430367e-001
2.454938e+003, 2.428024e-001
2.456866e+003, 2.437627e-001
2.458795e+003, 2.441072e-001
2.460723e+003, 2.440070e-001
2.462652e+003, 2.447170e-001
2.464580e+003, 2.447574e-001
2.466509e+003, 2.444125e-001
2.468437e+003, 2.447255e-001
2.470366e+003, 2.445895e-001
2.472294e+003, 2.441160e-001
2.474223e+003, 2.442617e-001
2.476151e+003, 2.442425e-001
2.478080e+003, 2.445411e-001
2.480008e+003, 2.457404e-001
2.481937e+003, 2.457206e-001
2.483865e+003, 2.454252e-001
2.485793e+003, 2.456615e-001
2.487722e+003, 2.461290e-001
2.489650e+003, 2.468479e-001
2.491579e+003, 2.466983e-001
2.493507e+003, 2.465210e-001
2.495436e+003, 2.465612e-001
2.497364e+003, 2.467417e-001
2.499293e+003, 2.467084e-001
2.501221e+003, 2.469681e-001
2.503150e+003, 2.468636e-001
2.505078e+003, 2.465797e-001
2.507007e+003, 2.474501e-001
2.508935e+003, 2.484758e-001
2.510864e+003, 2.481337e-001
2.512792e+003, 2.478525e-001
2.514720e+003, 2.478927e-001
2.516649e+003, 2.484549e-001
2.518577e+003, 2.485388e-001
2.520506e+003, 2.486356e-001
2.522434e+003, 2.491712e-001
2.524363e+003, 2.499648e-001
2.526291e+003, 2.496007e-001
2.528220e+003, 2.487721e-001
2.530148e+003, 2.482283e-001
2.532077e+003, 2.479873e-001
2.534005e+003, 2.492558e-001
2.535934e+003, 2.505930e-001
2.537862e+003, 2.503403e-001
2.539791e+003, 2.503589e-001
2.541719e+003, 2.504368e-001
2.543647e+003, 2.504344e-001
2.545576e+003, 2.508030e-001
2.547504e+003, 2.509899e-001
2.549433e+003, 2.513981e-001
2.551361e+003, 2.512414e-001
2.553290e+003, 2.510061e-001
2.555218e+003, 2.509909e-001
2.557147e+003, 2.514446e-001
2.559075e+003, 2.524723e-001
2.561004e+003, 2.527916e-001
2.562932e+003, 2.524284e-001
2.564861e+003, 2.525007e-001
2.566789e+003, 2.528555e-001
2.568718e+003, 2.523170e-001
2.570646e+003, 2.519741e-001
2.572574e+003, 2.525664e-001
2.574503e+003, 2.530544e-001
2.576431e+003, 2.534285e-001
2.578360e+003, 2.534428e-001
2.580288e+003, 2.532306e-001
2.582217e+003, 2.539136e-001
2.584145e+003, 2.541460e-001
2.586074e+003, 2.539925e-001
2.588002e+003, 2.537449e-001
2.589931e+003, 2.541407e-001
2.591859e+003, 2.549924e-001
2.593788e+003, 2.554032e-001
2.595716e+003, 2.553808e-001
2.597645e+003, 2.555516e-001
2.599573e+003, 2.556596e-001
2.601501e+003, 2.556041e-001
2.603430e+003, 2.552174e-001
2.605358e+003, 2.554823e-001
2.607287e+003, 2.557870e-001
2.609215e+003, 2.558567e-001
2.611144e+003, 2.558608e-001
2.613072e+003, 2.555864e-001
2.615001e+003, 2.555180e-001
2.616929e+003, 2.557273e-001
2.618858e+003, 2.561988e-001
2.620786e+003, 2.567839e-001
2.622715e+003, 2.567377e-001
2.624643e+003, 2.569683e-001
2.626572e+003, 2.574087e-001
2.628500e+003, 2.575867e-001
2.630428e+003, 2.580244e-001
2.632357e+003, 2.576074e-001
2.634285e+003, 2.573948e-001
2.636214e+003, 2.578434e-001
2.638142e+003, 2.585190e-001
2.640071e+003, 2.585216e-001
2.641999e+003, 2.581640e-001
2.643928e+003, 2.583838e-001
2.645856e+003, 2.586022e-001
2.647785e+003, 2.585312e-001
2.649713e+003, 2.588539e-001
2.651642e+003, 2.594926e-001
2.653570e+003, 2.593889e-001
2.655499e+003, 2.591174e-001
2.657427e+003, 2.591751e-001
2.659355e+003, 2.597534e-001
2.661284e+003, 2.598992e-001
2.663212e+003, 2.594333e-001
2.665141e+003, 2.592418e-001
2.667069e+003, 2.591512e-001
2.668998e+003, 2.591851e-001
2.670926e+003, 2.593608e-001
2.672855e+003, 2.596016e-001
2.674783e+003, 2.597245e-001
2.676712e+003, 2.597979e-001
2.678640e+003, 2.602528e-001
2.680569e+003, 2.603810e-001
2.682497e+003, 2.606243e-001
2.684426e+003, 2.613181e-001
2.686354e+003, 2.612828e-001
2.688282e+003, 2.610250e-001
2.690211e+003, 2.613080e-001
2.692139e+003, 2.613047e-001
2.694068e+003, 2.610122e-001
2.695996e+003, 2.612482e-001
2.697925e+003, 2.617457e-001
2.699853e+003, 2.619531e-001
2.701782e+003, 2.620896e-001
2.703710e+003, 2.624445e-001
2.705639e+003, 2.628967e-001
2.707567e+003, 2.629614e-001
2.709496e+003, 2.627740e-001
2.711424e+003, 2.625401e-001
2.713353e+003, 2.622389e-001
2.715281e+003, 2.626306e-001
2.717209e+003, 2.631842e-001
2.719138e+003, 2.636192e-001
2.721066e+003, 2.634747e-001
2.722995e+003, 2.632071e-001
2.724923e+003, 2.640988e-001
2.726852e+003, 2.649126e-001
2.728780e+003, 2.642913e-001
2.730709e+003, 2.639592e-001
2.732637e+003, 2.645465e-001
2.734566e+003, 2.652014e-001
2.736494e+003, 2.653288e-001
2.738423e+003, 2.650275e-001
2.740351e+003, 2.655759e-001
2.742280e+003, 2.657694e-001
2.744208e+003, 2.654126e-001
2.746136e+003, 2.655835e-001
2.748065e+003, 2.660880e-001
2.749993e+003, 2.666661e-001
2.751922e+003, 2.667900e-001
2.753850e+003, 2.663255e-001
2.755779e+003, 2.665955e-001
2.757707e+003, 2.665340e-001
2.759636e+003, 2.663248e-001
2.761564e+003, 2.665944e-001
2.763493e+003, 2.672364e-001
2.765421e+003, 2.676649e-001
2.767350e+003, 2.679459e-001
2.769278e+003, 2.678238e-001
2.771207e+003, 2.678386e-001
2.773135e+003, 2.678095e-001
2.775063e+003, 2.678195e-001
2.776992e+003, 2.678335e-001
2.778920e+003, 2.681275e-001
2.780849e+003, 2.689323e-001
2.782777e+003, 2.694418e-001
2.784706e+003, 2.696058e-001
2.786634e+003, 2.697849e-001
2.788563e+003, 2.690999e-001
2.790491e+003, 2.686995e-001
2.792420e+003, 2.696479e-001
2.794348e+003, 2.702226e-001
2.796277e+003, 2.705039e-001
2.798205e+003, 2.707523e-001
2.800134e+003, 2.706526e-001
2.802062e+003, 2.705502e-001
2.803990e+003, 2.707176e-001
2.805919e+003, 2.710230e-001
2.807847e+003, 2.707946e-001
2.809776e+003, 2.706397e-001
2.811704e+003, 2.713102e-001
2.813633e+003, 2.720565e-001
2.815561e+003, 2.720804e-001
2.817490e+003, 2.720042e-001
2.819418e+003, 2.723247e-001
2.821347e+003, 2.724576e-001
2.823275e+003, 2.728406e-001
2.825204e+003, 2.731393e-001
2.827132e+003, 2.730986e-001
2.829061e+003, 2.732432e-001
2.830989e+003, 2.736973e-001
2.832917e+003, 2.744444e-001
2.834846e+003, 2.746651e-001
2.836774e+003, 2.747431e-001
2.838703e+003, 2.746308e-001
2.840631e+003, 2.748587e-001
2.842560e+003, 2.750935e-001
2.844488e+003, 2.750186e-001
2.846417e+003, 2.742712e-001
2.848345e+003, 2.735536e-001
2.850274e+003, 2.733741e-001
2.852202e+003, 2.730057e-001
2.854131e+003, 2.732514e-001
2.856059e+003, 2.737375e-001
2.857988e+003, 2.743785e-001
2.859916e+003, 2.750922e-001
2.861844e+003, 2.748743e-001
2.863773e+003, 2.744464e-001
2.865701e+003, 2.746122e-001
2.867630e+003, 2.748682e-001
2.869558e+003, 2.754139e-001
2.871487e+003, 2.755787e-001
2.873415e+003, 2.750802e-001
2.875344e+003, 2.750514e-001
2.877272e+003, 2.763987e-001
2.879201e+003, 2.771345e-001
2.881129e+003, 2.769499e-001
2.883058e+003, 2.770024e-001
2.884986e+003, 2.769228e-001
2.886915e+003, 2.764539e-001
2.888843e+003, 2.764788e-001
2.890771e+003, 2.769759e-001
2.892700e+003, 2.776192e-001
2.894628e+003, 2.777767e-001
2.896557e+003, 2.778858e-001
2.898485e+003, 2.780710e-001
2.900414e+003, 2.776432e-001
2.902342e+003, 2.777265e-001
2.904271e+003, 2.780608e-001
2.906199e+003, 2.777318e-001
2.908128e+003, 2.781040e-001
2.910056e+003, 2.776832e-001
2.911985e+003, 2.776960e-001
2.913913e+003, 2.781743e-001
2.915842e+003, 2.773912e-001
2.917770e+003, 2.774065e-001
2.919698e+003, 2.779349e-001
2.921627e+003, 2.775765e-001
2.923555e+003, 2.767260e-001
2.925484e+003, 2.762465e-001
2.927412e+003, 2.762926e-001
2.929341e+003, 2.764947e-001
2.931269e+003, 2.764727e-001
2.933198e+003, 2.762335e-001
2.935126e+003, 2.761189e-001
2.937055e+003, 2.763680e-001
2.938983e+003, 2.765526e-001
2.940912e+003, 2.760508e-001
2.942840e+003, 2.771039e-001
2.944769e+003, 2.786210e-001
2.946697e+003, 2.785262e-001
2.948625e+003, 2.781664e-001
2.950554e+003, 2.782951e-001
2.952482e+003, 2.787322e-001
2.954411e+003, 2.791187e-001
2.956339e+003, 2.790689e-001
2.958268e+003, 2.781672e-001
2.960196e+003, 2.777644e-001
2.962125e+003, 2.782690e-001
2.964053e+003, 2.789482e-001
2.965982e+003, 2.793304e-001
2.967910e+003, 2.791381e-001
2.969839e+003, 2.792661e-001
2.971767e+003, 2.803664e-001
2.973696e+003, 2.806524e-001
2.975624e+003, 2.798229e-001
2.977552e+003, 2.797832e-001
2.979481e+003, 2.805378e-001
2.981409e+003, 2.808189e-001
2.983338e+003, 2.805625e-001
2.985266e+003, 2.803254e-001
2.987195e+003, 2.805437e-001
2.989123e+003, 2.815261e-001
2.991052e+003, 2.814858e-001
2.992980e+003, 2.816791e-001
2.994909e+003, 2.825117e-001
2.996837e+003, 2.827068e-001
2.998766e+003, 2.830285e-001
3.000694e+003, 2.824897e-001
3.002623e+003, 2.820776e-001
3.004551e+003, 2.821046e-001
3.006479e+003, 2.824198e-001
3.008408e+003, 2.831511e-001
3.010336e+003, 2.835779e-001
3.012265e+003, 2.835651e-001
3.014193e+003, 2.836583e-001
3.016122e+003, 2.838302e-001
3.018050e+003, 2.839302e-001
3.019979e+003, 2.842183e-001
3.021907e+003, 2.845851e-001
3.023836e+003, 2.849352e-001
3.025764e+003, 2.848385e-001
3.027693e+003, 2.847518e-001
3.029621e+003, 2.849152e-001
3.031550e+003, 2.843995e-001
3.033478e+003, 2.848567e-001
3.035406e+003, 2.856065e-001
3.037335e+003, 2.859252e-001
3.039263e+003, 2.856402e-001
3.041192e+003, 2.855640e-001
3.043120e+003, 2.854473e-001
3.045049e+003, 2.854942e-001
3.046977e+003, 2.861711e-001
3.048906e+003, 2.863930e-001
3.050834e+003, 2.863806e-001
3.052763e+003, 2.867181e-001
3.054691e+003, 2.862296e-001
3.056620e+003, 2.862232e-001
3.058548e+003, 2.862714e-001
3.060477e+003, 2.871984e-001
3.062405e+003, 2.880080e-001
3.064333e+003, 2.878588e-001
3.066262e+003, 2.883657e-001
3.068190e+003, 2.886934e-001
3.070119e+003, 2.882136e-001
3.072047e+003, 2.881793e-001
3.073976e+003, 2.886756e-001
3.075904e+003, 2.886528e-001
3.077833e+003, 2.886243e-001
3.079761e+003, 2.885382e-001
3.081690e+003, 2.890846e-001
3.083618e+003, 2.894130e-001
3.085547e+003, 2.889447e-001
3.087475e+003, 2.891538e-001
3.089404e+003, 2.895908e-001
3.091332e+003, 2.896438e-001
3.093260e+003, 2.894586e-001
3.095189e+003, 2.896556e-001
3.097117e+003, 2.903559e-001
3.099046e+003, 2.909898e-001
3.100974e+003, 2.911472e-001
3.102903e+003, 2.903002e-001
3.104831e+003, 2.901136e-001
3.106760e+003, 2.909870e-001
3.108688e+003, 2.905492e-001
3.110617e+003, 2.900326e-001
3.112545e+003, 2.900160e-001
3.114474e+003, 2.907136e-001
3.116402e+003, 2.907777e-001
3.118331e+003, 2.913763e-001
3.120259e+003, 2.919011e-001
3.122188e+003, 2.916150e-001
3.124116e+003, 2.919298e-001
3.126044e+003, 2.919648e-001
3.127973e+003, 2.918185e-001
3.129901e+003, 2.921503e-001
3.131830e+003, 2.923555e-001
3.133758e+003, 2.918429e-001
3.135687e+003, 2.919113e-001
3.137615e+003, 2.915343e-001
3.139544e+003, 2.910298e-001
3.141472e+003, 2.921903e-001
3.143401e+003, 2.931108e-001
3.145329e+003, 2.933159e-001
3.147258e+003, 2.933801e-001
3.149186e+003, 2.935141e-001
3.151115e+003, 2.935562e-001
3.153043e+003, 2.935832e-001
3.154971e+003, 2.935720e-001
3.156900e+003, 2.930384e-001
3.158828e+003, 2.931537e-001
3.160757e+003, 2.931991e-001
3.162685e+003, 2.939487e-001
3.164614e+003, 2.950413e-001
3.166542e+003, 2.953538e-001
3.168471e+003, 2.950744e-001
3.170399e+003, 2.940455e-001
3.172328e+003, 2.939368e-001
3.174256e+003, 2.948000e-001
3.176185e+003, 2.952211e-001
3.178113e+003, 2.948590e-001
3.180042e+003, 2.952148e-001
3.181970e+003, 2.957113e-001
3.183898e+003, 2.954276e-001
3.185827e+003, 2.955099e-001
3.187755e+003, 2.947719e-001
3.189684e+003, 2.938423e-001
3.191612e+003, 2.942400e-001
3.193541e+003, 2.952290e-001
3.195469e+003, 2.953719e-001
3.197398e+003, 2.948792e-001
3.199326e+003, 2.954127e-001
3.201255e+003, 2.962445e-001
3.203183e+003, 2.954803e-001
3.205112e+003, 2.949312e-001
3.207040e+003, 2.943653e-001
3.208969e+003, 2.942488e-001
3.210897e+003, 2.956653e-001
3.212825e+003, 2.964506e-001
3.214754e+003, 2.966964e-001
3.216682e+003, 2.966004e-001
3.218611e+003, 2.955760e-001
3.220539e+003, 2.959032e-001
3.222468e+003, 2.977790e-001
3.224396e+003, 2.982275e-001
3.226325e+003, 2.978037e-001
3.228253e+003, 2.978249e-001
3.230182e+003, 2.974761e-001
3.232110e+003, 2.970566e-001
3.234039e+003, 2.971261e-001
3.235967e+003, 2.974548e-001
3.237896e+003, 2.978082e-001
3.239824e+003, 2.973110e-001
3.241752e+003, 2.969726e-001
3.243681e+003, 2.976667e-001
3.245609e+003, 2.979176e-001
3.247538e+003, 2.984830e-001
3.249466e+003, 2.991725e-001
3.251395e+003, 2.985615e-001
3.253323e+003, 2.982280e-001
3.255252e+003, 2.986923e-001
3.257180e+003, 2.981515e-001
3.259109e+003, 2.979082e-001
3.261037e+003, 2.984096e-001
3.262966e+003, 2.994084e-001
3.264894e+003, 2.994106e-001
3.266823e+003, 2.991033e-001
3.268751e+003, 2.999355e-001
3.270679e+003, 2.997315e-001
3.272608e+003, 2.995391e-001
3.274536e+003, 3.003503e-001
3.276465e+003, 2.999723e-001
3.278393e+003, 2.994428e-001
3.280322e+003, 2.995736e-001
3.282250e+003, 3.001398e-001
3.284179e+003, 3.000193e-001
3.286107e+003, 2.994517e-001
3.288036e+003, 2.994780e-001
3.289964e+003, 3.004533e-001
3.291893e+003, 3.012565e-001
3.293821e+003, 3.016664e-001
3.295750e+003, 3.019537e-001
3.297678e+003, 3.011700e-001
3.299606e+003, 3.004265e-001
3.301535e+003, 3.002223e-001
3.303463e+003, 2.997812e-001
3.305392e+003, 2.989907e-001
3.307320e+003, 2.989103e-001
3.309249e+003, 2.998535e-001
3.311177e+003, 3.008540e-001
3.313106e+003, 3.005377e-001
3.315034e+003, 3.000520e-001
3.316963e+003, 2.998719e-001
3.318891e+003, 3.003617e-001
3.320820e+003, 3.013919e-001
3.322748e+003, 3.011484e-001
3.324677e+003, 3.006586e-001
3.326605e+003, 3.003096e-001
3.328533e+003, 2.998342e-001
3.330462e+003, 3.000266e-001
3.332390e+003, 3.016456e-001
3.334319e+003, 3.028577e-001
3.336247e+003, 3.027207e-001
3.338176e+003, 3.015917e-001
3.340104e+003, 3.015467e-001
3.342033e+003, 3.023389e-001
3.343961e+003, 3.027163e-001
3.345890e+003, 3.020213e-001
3.347818e+003, 3.008617e-001
3.349747e+003, 3.012142e-001
3.351675e+003, 3.013148e-001
3.353604e+003, 3.012952e-001
3.355532e+003, 3.010367e-001
3.357460e+003, 3.015026e-001
3.359389e+003, 3.022012e-001
3.361317e+003, 3.019120e-001
3.363246e+003, 3.022228e-001
3.365174e+003, 3.025882e-001
3.367103e+003, 3.030675e-001
3.369031e+003, 3.036626e-001
3.370960e+003, 3.034221e-001
3.372888e+003, 3.027387e-001
3.374817e+003, 3.024360e-001
3.376745e+003, 3.021339e-001
3.378674e+003, 3.024557e-001
3.380602e+003, 3.029856e-001
3.382531e+003, 3.033367e-001
3.384459e+003, 3.037671e-001
3.386387e+003, 3.029754e-001
3.388316e+003, 3.028062e-001
3.390244e+003, 3.035338e-001
3.392173e+003, 3.036901e-001
3.394101e+003, 3.020634e-001
3.396030e+003, 3.020559e-001
3.397958e+003, 3.030102e-001
3.399887e+003, 3.029475e-001
3.401815e+003, 3.023820e-001
3.403744e+003, 3.023702e-001
3.405672e+003, 3.029246e-001
3.407601e+003, 3.033049e-001
3.409529e+003, 3.031287e-001
3.411458e+003, 3.031799e-001
3.413386e+003, 3.035274e-001
3.415314e+003, 3.035302e-001
3.417243e+003, 3.037038e-001
3.419171e+003, 3.039484e-001
3.421100e+003, 3.043039e-001
3.423028e+003, 3.040324e-001
3.424957e+003, 3.042240e-001
3.426885e+003, 3.043256e-001
3.428814e+003, 3.033907e-001
3.430742e+003, 3.021109e-001
3.432671e+003, 3.023548e-001
3.434599e+003, 3.038362e-001
3.436528e+003, 3.037142e-001
3.438456e+003, 3.047003e-001
3.440385e+003, 3.054205e-001
3.442313e+003, 3.045104e-001
3.444241e+003, 3.035466e-001
3.446170e+003, 3.037794e-001
3.448098e+003, 3.042997e-001
3.450027e+003, 3.043148e-001
3.451955e+003, 3.049015e-001
3.453884e+003, 3.048847e-001
3.455812e+003, 3.036930e-001
3.457741e+003, 3.031892e-001
3.459669e+003, 3.042360e-001
3.461598e+003, 3.053218e-001
3.463526e+003, 3.047217e-001
3.465455e+003, 3.040721e-001
3.467383e+003, 3.046173e-001
3.469312e+003, 3.051053e-001
3.471240e+003, 3.057375e-001
3.473168e+003, 3.058717e-001
3.475097e+003, 3.056570e-001
3.477025e+003, 3.054121e-001
3.478954e+003, 3.054713e-001
3.480882e+003, 3.054753e-001
3.482811e+003, 3.048612e-001
3.484739e+003, 3.052332e-001
3.486668e+003, 3.066145e-001
3.488596e+003, 3.064466e-001
3.490525e+003, 3.054738e-001
3.492453e+003, 3.052060e-001
3.494382e+003, 3.055970e-001
3.496310e+003, 3.054790e-001
3.498239e+003, 3.065741e-001
3.500167e+003, 3.072873e-001
3.502095e+003, 3.060692e-001
3.504024e+003, 3.045794e-001
3.505952e+003, 3.047920e-001
3.507881e+003, 3.061195e-001
3.509809e+003, 3.081098e-001
3.511738e+003, 3.085472e-001
3.513666e+003, 3.081464e-001
3.515595e+003, 3.070720e-001
3.517523e+003, 3.055557e-001
3.519452e+003, 3.055700e-001
3.521380e+003, 3.064541e-001
3.523309e+003, 3.073843e-001
3.525237e+003, 3.070772e-001
3.527166e+003, 3.060287e-001
3.529094e+003, 3.062734e-001
3.531022e+003, 3.068216e-001
3.532951e+003, 3.066717e-001
3.534879e+003, 3.061925e-001
3.536808e+003, 3.069459e-001
3.538736e+003, 3.076936e-001
3.540665e+003, 3.086211e-001
3.542593e+003, 3.080864e-001
3.544522e+003, 3.076296e-001
3.546450e+003, 3.084729e-001
3.548379e+003, 3.081807e-001
3.550307e+003, 3.080667e-001
3.552236e+003, 3.077673e-001
3.554164e+003, 3.077960e-001
3.556093e+003, 3.076258e-001
3.558021e+003, 3.074578e-001
3.559949e+003, 3.076985e-001
3.561878e+003, 3.084069e-001
3.563806e+003, 3.086859e-001
3.565735e+003, 3.079380e-001
3.567663e+003, 3.075237e-001
3.569592e+003, 3.084661e-001
3.571520e+003, 3.096810e-001
3.573449e+003, 3.095985e-001
3.575377e+003, 3.089616e-001
3.577306e+003, 3.082186e-001
3.579234e+003, 3.082617e-001
3.581163e+003, 3.088603e-001
3.583091e+003, 3.097671e-001
3.585020e+003, 3.092736e-001
3.586948e+003, 3.083260e-001
3.588876e+003, 3.087772e-001
3.590805e+003, 3.099073e-001
3.592733e+003, 3.106621e-001
3.594662e+003, 3.102473e-001
3.596590e+003, 3.089499e-001
3.598519e+003, 3.084526e-001
3.600447e+003, 3.094169e-001
3.602376e+003, 3.104463e-001
3.604304e+003, 3.106444e-001
3.606233e+003, 3.101197e-001
3.608161e+003, 3.098979e-001
3.610090e+003, 3.094884e-001
3.612018e+003, 3.082457e-001
3.613947e+003, 3.077802e-001
3.615875e+003, 3.092245e-001
3.617803e+003, 3.096017e-001
3.619732e+003, 3.086152e-001
3.621660e+003, 3.089634e-001
3.623589e+003, 3.103869e-001
3.625517e+003, 3.106516e-001
3.627446e+003, 3.109092e-001
3.629374e+003, 3.120237e-001
3.631303e+003, 3.116557e-001
3.633231e+003, 3.105602e-001
3.635160e+003, 3.110124e-001
3.637088e+003, 3.116296e-001
3.639017e+003, 3.114837e-001
3.640945e+003, 3.098500e-001
3.642874e+003, 3.090731e-001
3.644802e+003, 3.107549e-001
3.646730e+003, 3.103118e-001
3.648659e+003, 3.108641e-001
3.650587e+003, 3.118592e-001
3.652516e+003, 3.117135e-001
3.654444e+003, 3.110822e-001
3.656373e+003, 3.108680e-001
3.658301e+003, 3.110607e-001
3.660230e+003, 3.124647e-001
3.662158e+003, 3.129217e-001
3.664087e+003, 3.119590e-001
3.666015e+003, 3.116364e-001
3.667944e+003, 3.112815e-001
3.669872e+003, 3.116639e-001
3.671801e+003, 3.142194e-001
3.673729e+003, 3.146527e-001
3.675657e+003, 3.128076e-001
3.677586e+003, 3.126588e-001
3.679514e+003, 3.123682e-001
3.681443e+003, 3.123521e-001
3.683371e+003, 3.131825e-001
3.685300e+003, 3.136151e-001
3.687228e+003, 3.139746e-001
3.689157e+003, 3.138958e-001
3.691085e+003, 3.134736e-001
3.693014e+003, 3.137469e-001
3.694942e+003, 3.141408e-001
3.696871e+003, 3.135857e-001
3.698799e+003, 3.131097e-001
3.700728e+003, 3.130563e-001
3.702656e+003, 3.126945e-001
3.704584e+003, 3.127920e-001
3.706513e+003, 3.142830e-001
3.708441e+003, 3.154347e-001
3.710370e+003, 3.168281e-001
3.712298e+003, 3.166256e-001
3.714227e+003, 3.152137e-001
3.716155e+003, 3.156666e-001
3.718084e+003, 3.144987e-001
3.720012e+003, 3.136929e-001
3.721941e+003, 3.147351e-001
3.723869e+003, 3.162546e-001
3.725798e+003, 3.157264e-001
3.727726e+003, 3.149115e-001
3.729655e+003, 3.156122e-001
3.731583e+003, 3.158680e-001
3.733511e+003, 3.153898e-001
3.735440e+003, 3.149732e-001
3.737368e+003, 3.156066e-001
3.739297e+003, 3.153640e-001
3.741225e+003, 3.154016e-001
3.743154e+003, 3.165915e-001
3.745082e+003, 3.165821e-001
3.747011e+003, 3.168413e-001
3.748939e+003, 3.165382e-001
3.750868e+003, 3.159632e-001
3.752796e+003, 3.163721e-001
3.754725e+003, 3.166471e-001
3.756653e+003, 3.173463e-001
3.758582e+003, 3.179441e-001
3.760510e+003, 3.186159e-001
3.762438e+003, 3.185962e-001
3.764367e+003, 3.186218e-001
3.766295e+003, 3.193237e-001
3.768224e+003, 3.198188e-001
3.770152e+003, 3.193786e-001
3.772081e+003, 3.181370e-001
3.774009e+003, 3.174488e-001
3.775938e+003, 3.169297e-001
3.777866e+003, 3.184181e-001
3.779795e+003, 3.185902e-001
3.781723e+003, 3.187747e-001
3.783652e+003, 3.195763e-001
3.785580e+003, 3.196286e-001
3.787509e+003, 3.200262e-001
3.789437e+003, 3.194725e-001
3.791365e+003, 3.187526e-001
3.793294e+003, 3.198742e-001
3.795222e+003, 3.206544e-001
3.797151e+003, 3.210738e-001
3.799079e+003, 3.205925e-001
3.801008e+003, 3.198690e-001
3.802936e+003, 3.188331e-001
3.804865e+003, 3.193585e-001
3.806793e+003, 3.201038e-001
3.808722e+003, 3.202785e-001
3.810650e+003, 3.206568e-001
3.812579e+003, 3.196072e-001
3.814507e+003, 3.189729e-001
3.816436e+003, 3.197817e-001
3.818364e+003, 3.214351e-001
3.820292e+003, 3.216650e-001
3.822221e+003, 3.206773e-001
3.824149e+003, 3.200026e-001
3.826078e+003, 3.191614e-001
3.828006e+003, 3.195206e-001
3.829935e+003, 3.220358e-001
3.831863e+003, 3.229394e-001
3.833792e+003, 3.209220e-001
3.835720e+003, 3.205416e-001
3.837649e+003, 3.218462e-001
3.839577e+003, 3.217480e-001
3.841506e+003, 3.223701e-001
3.843434e+003, 3.223764e-001
3.845363e+003, 3.219455e-001
3.847291e+003, 3.219584e-001
3.849219e+003, 3.226014e-001
3.851148e+003, 3.222836e-001
3.853076e+003, 3.223567e-001
3.855005e+003, 3.223238e-001
3.856933e+003, 3.226860e-001
3.858862e+003, 3.225114e-001
3.860790e+003, 3.221137e-001
3.862719e+003, 3.211871e-001
3.864647e+003, 3.215393e-001
3.866576e+003, 3.222050e-001
3.868504e+003, 3.230605e-001
3.870433e+003, 3.237405e-001
3.872361e+003, 3.242867e-001
3.874290e+003, 3.238605e-001
3.876218e+003, 3.231586e-001
3.878146e+003, 3.241904e-001
3.880075e+003, 3.244834e-001
3.882003e+003, 3.234782e-001
3.883932e+003, 3.237313e-001
3.885860e+003, 3.251439e-001
3.887789e+003, 3.249512e-001
3.889717e+003, 3.233662e-001
3.891646e+003, 3.220606e-001
3.893574e+003, 3.212408e-001
3.895503e+003, 3.226637e-001
3.897431e+003, 3.238442e-001
3.899360e+003, 3.236281e-001
3.901288e+003, 3.252805e-001
3.903217e+003, 3.270344e-001
3.905145e+003, 3.262199e-001
3.907073e+003, 3.248092e-001
3.909002e+003, 3.248213e-001
3.910930e+003, 3.249805e-001
3.912859e+003, 3.259679e-001
3.914787e+003, 3.252256e-001
3.916716e+003, 3.237125e-001
3.918644e+003, 3.238123e-001
3.920573e+003, 3.255439e-001
3.922501e+003, 3.266304e-001
3.924430e+003, 3.272026e-001
3.926358e+003, 3.262788e-001
3.928287e+003, 3.249203e-001
3.930215e+003, 3.253605e-001
3.932144e+003, 3.260266e-001
3.934072e+003, 3.261684e-001
3.936000e+003, 3.263518e-001
3.937929e+003, 3.268148e-001
3.939857e+003, 3.271229e-001
3.941786e+003, 3.274356e-001
3.943714e+003, 3.262694e-001
3.945643e+003, 3.251823e-001
3.947571e+003, 3.246616e-001
3.949500e+003, 3.248414e-001
3.951428e+003, 3.260322e-001
3.953357e+003, 3.268211e-001
3.955285e+003, 3.256970e-001
3.957214e+003, 3.249296e-001
3.959142e+003, 3.259994e-001
3.961071e+003, 3.278305e-001
3.962999e+003, 3.287887e-001
3.964927e+003, 3.286413e-001
3.966856e+003, 3.288411e-001
3.968784e+003, 3.307858e-001
3.970713e+003, 3.297747e-001
3.972641e+003, 3.283359e-001
3.974570e+003, 3.302003e-001
3.976498e+003, 3.298958e-001
3.978427e+003, 3.286805e-001
3.980355e+003, 3.285629e-001
3.982284e+003, 3.286764e-001
3.984212e+003, 3.307458e-001
3.986141e+003, 3.324514e-001
3.988069e+003, 3.312732e-001
3.989998e+003, 3.290267e-001
3.991926e+003, 3.277773e-001
3.993854e+003, 3.301386e-001
3.995783e+003, 3.316748e-001
3.997711e+003, 3.304474e-001
3.999640e+003, 3.306068e-001
##END=



