##NAMES=Scorodite
##RRUFFID=R050465
##IDEAL CHEMISTRY=Fe^3+^As^5+^O_4_&#183;2H_2_O
##LOCALITY=Minas Gerais, Brazil
##OWNER=RRUFF
##SOURCE=University of Arizona Mineral Museum
##DESCRIPTION=Group of blue prismatic to tabular crystals displaying many modifying forms
##STATUS=The identification of this mineral has been confirmed by X-ray diffraction and chemical analysis
##URL=rruff.info/R050465
##MEASURED CHEMISTRY=Fe^3+^_1.00_As_1.00_O_4_Â·2H_2_O
3.741225e+002, 4.103762e-001
3.760510e+002, 3.990031e-001
3.779795e+002, 4.054656e-001
3.799079e+002, 3.929364e-001
3.818364e+002, 3.779084e-001
3.837649e+002, 3.701232e-001
3.856933e+002, 3.741046e-001
3.876218e+002, 3.684818e-001
3.895503e+002, 3.617330e-001
3.914787e+002, 3.513003e-001
3.934072e+002, 3.580567e-001
3.953357e+002, 3.505608e-001
3.972641e+002, 3.484538e-001
3.991926e+002, 3.360379e-001
4.011211e+002, 3.281265e-001
4.030495e+002, 3.231923e-001
4.049780e+002, 3.307712e-001
4.069065e+002, 3.462780e-001
4.088349e+002, 3.474161e-001
4.107634e+002, 3.552499e-001
4.126919e+002, 3.610123e-001
4.146203e+002, 3.555340e-001
4.165488e+002, 3.442045e-001
4.184773e+002, 3.307420e-001
4.204057e+002, 3.202261e-001
4.223342e+002, 3.115734e-001
4.242627e+002, 3.023525e-001
4.261911e+002, 2.965131e-001
4.281196e+002, 2.913003e-001
4.300481e+002, 2.859411e-001
4.319765e+002, 2.856455e-001
4.339050e+002, 2.801258e-001
4.358335e+002, 2.717845e-001
4.377619e+002, 2.630513e-001
4.396904e+002, 2.591507e-001
4.416189e+002, 2.564403e-001
4.435473e+002, 2.521040e-001
4.454758e+002, 2.473560e-001
4.474043e+002, 2.436226e-001
4.493327e+002, 2.413572e-001
4.512612e+002, 2.410171e-001
4.531897e+002, 2.416940e-001
4.551181e+002, 2.424902e-001
4.570466e+002, 2.431404e-001
4.589751e+002, 2.441680e-001
4.609035e+002, 2.467738e-001
4.628320e+002, 2.494298e-001
4.647605e+002, 2.473411e-001
4.666889e+002, 2.433644e-001
4.686174e+002, 2.373196e-001
4.705459e+002, 2.289864e-001
4.724743e+002, 2.205392e-001
4.744028e+002, 2.126260e-001
4.763313e+002, 2.069722e-001
4.782597e+002, 2.038201e-001
4.801882e+002, 2.018709e-001
4.821167e+002, 2.013878e-001
4.840451e+002, 2.017527e-001
4.859736e+002, 2.019481e-001
4.879021e+002, 2.011481e-001
4.898305e+002, 1.998868e-001
4.917590e+002, 1.983595e-001
4.936875e+002, 1.966535e-001
4.956159e+002, 1.934280e-001
4.975444e+002, 1.883703e-001
4.994729e+002, 1.835009e-001
5.014013e+002, 1.793005e-001
5.033298e+002, 1.745348e-001
5.052583e+002, 1.695723e-001
5.071867e+002, 1.649672e-001
5.091152e+002, 1.602620e-001
5.110437e+002, 1.557409e-001
5.129721e+002, 1.518678e-001
5.149006e+002, 1.487389e-001
5.168290e+002, 1.455611e-001
5.187575e+002, 1.417373e-001
5.206860e+002, 1.385356e-001
5.226144e+002, 1.356855e-001
5.245429e+002, 1.330831e-001
5.264714e+002, 1.309489e-001
5.283998e+002, 1.287327e-001
5.303283e+002, 1.269667e-001
5.322568e+002, 1.263068e-001
5.341852e+002, 1.254127e-001
5.361137e+002, 1.248362e-001
5.380422e+002, 1.252096e-001
5.399706e+002, 1.259527e-001
5.418991e+002, 1.265988e-001
5.438276e+002, 1.271275e-001
5.457560e+002, 1.279578e-001
5.476845e+002, 1.289541e-001
5.496130e+002, 1.300139e-001
5.515414e+002, 1.318724e-001
5.534699e+002, 1.338183e-001
5.553984e+002, 1.347980e-001
5.573268e+002, 1.353849e-001
5.592553e+002, 1.367161e-001
5.611838e+002, 1.380862e-001
5.631122e+002, 1.390417e-001
5.650407e+002, 1.398861e-001
5.669692e+002, 1.406510e-001
5.688976e+002, 1.417455e-001
5.708261e+002, 1.423947e-001
5.727546e+002, 1.421747e-001
5.746830e+002, 1.419672e-001
5.766115e+002, 1.418418e-001
5.785400e+002, 1.416630e-001
5.804684e+002, 1.410406e-001
5.823969e+002, 1.396417e-001
5.843254e+002, 1.384247e-001
5.862538e+002, 1.371391e-001
5.881823e+002, 1.353582e-001
5.901108e+002, 1.338151e-001
5.920392e+002, 1.317020e-001
5.939677e+002, 1.293178e-001
5.958962e+002, 1.275832e-001
5.978246e+002, 1.256008e-001
5.997531e+002, 1.234309e-001
6.016816e+002, 1.213764e-001
6.036100e+002, 1.194254e-001
6.055385e+002, 1.175431e-001
6.074670e+002, 1.158325e-001
6.093954e+002, 1.143960e-001
6.113239e+002, 1.132432e-001
6.132524e+002, 1.121663e-001
6.151808e+002, 1.111613e-001
6.171093e+002, 1.107892e-001
6.190378e+002, 1.106492e-001
6.209662e+002, 1.104126e-001
6.228947e+002, 1.102713e-001
6.248232e+002, 1.100137e-001
6.267516e+002, 1.096890e-001
6.286801e+002, 1.090083e-001
6.306086e+002, 1.083207e-001
6.325370e+002, 1.076467e-001
6.344655e+002, 1.071863e-001
6.363940e+002, 1.066954e-001
6.383224e+002, 1.062024e-001
6.402509e+002, 1.057702e-001
6.421794e+002, 1.053332e-001
6.441078e+002, 1.051124e-001
6.460363e+002, 1.049707e-001
6.479648e+002, 1.049625e-001
6.498932e+002, 1.056138e-001
6.518217e+002, 1.065706e-001
6.537502e+002, 1.075111e-001
6.556786e+002, 1.084289e-001
6.576071e+002, 1.098352e-001
6.595356e+002, 1.117165e-001
6.614641e+002, 1.137534e-001
6.633925e+002, 1.157691e-001
6.653210e+002, 1.179756e-001
6.672495e+002, 1.209264e-001
6.691779e+002, 1.240147e-001
6.711064e+002, 1.271502e-001
6.730349e+002, 1.307494e-001
6.749633e+002, 1.346453e-001
6.768918e+002, 1.388804e-001
6.788203e+002, 1.433039e-001
6.807487e+002, 1.481105e-001
6.826772e+002, 1.530694e-001
6.846057e+002, 1.582147e-001
6.865341e+002, 1.639735e-001
6.884626e+002, 1.699944e-001
6.903911e+002, 1.761890e-001
6.923195e+002, 1.827557e-001
6.942480e+002, 1.892702e-001
6.961765e+002, 1.955677e-001
6.981049e+002, 2.018841e-001
7.000334e+002, 2.082319e-001
7.019619e+002, 2.147912e-001
7.038903e+002, 2.214468e-001
7.058188e+002, 2.278563e-001
7.077473e+002, 2.344545e-001
7.096757e+002, 2.406496e-001
7.116042e+002, 2.462162e-001
7.135327e+002, 2.514711e-001
7.154611e+002, 2.563441e-001
7.173896e+002, 2.605023e-001
7.193181e+002, 2.640310e-001
7.212465e+002, 2.668429e-001
7.231750e+002, 2.692988e-001
7.251035e+002, 2.710930e-001
7.270319e+002, 2.725621e-001
7.289604e+002, 2.737207e-001
7.308889e+002, 2.750660e-001
7.328173e+002, 2.766116e-001
7.347458e+002, 2.782526e-001
7.366743e+002, 2.803428e-001
7.386027e+002, 2.830437e-001
7.405312e+002, 2.860051e-001
7.424597e+002, 2.897668e-001
7.443881e+002, 2.945816e-001
7.463166e+002, 3.005411e-001
7.482451e+002, 3.075936e-001
7.501735e+002, 3.157554e-001
7.521020e+002, 3.253385e-001
7.540305e+002, 3.361892e-001
7.559589e+002, 3.480555e-001
7.578874e+002, 3.609827e-001
7.598159e+002, 3.749180e-001
7.617443e+002, 3.902836e-001
7.636728e+002, 4.063608e-001
7.656013e+002, 4.232122e-001
7.675297e+002, 4.409473e-001
7.694582e+002, 4.591410e-001
7.713867e+002, 4.770699e-001
7.733151e+002, 4.946821e-001
7.752436e+002, 5.124106e-001
7.771721e+002, 5.303392e-001
7.791005e+002, 5.469645e-001
7.810290e+002, 5.633296e-001
7.829575e+002, 5.786604e-001
7.848859e+002, 5.933977e-001
7.868144e+002, 6.072343e-001
7.887429e+002, 6.195899e-001
7.906713e+002, 6.285961e-001
7.925998e+002, 6.323028e-001
7.945283e+002, 6.290302e-001
7.964567e+002, 6.188375e-001
7.983852e+002, 6.020746e-001
8.003137e+002, 5.814486e-001
8.022421e+002, 5.583564e-001
8.041706e+002, 5.348748e-001
8.060991e+002, 5.124360e-001
8.080275e+002, 4.905466e-001
8.099560e+002, 4.699128e-001
8.118845e+002, 4.525288e-001
8.138129e+002, 4.389451e-001
8.157414e+002, 4.283615e-001
8.176699e+002, 4.180080e-001
8.195983e+002, 4.061225e-001
8.215268e+002, 3.912251e-001
8.234553e+002, 3.724828e-001
8.253837e+002, 3.514962e-001
8.273122e+002, 3.306987e-001
8.292407e+002, 3.111660e-001
8.311691e+002, 2.927463e-001
8.330976e+002, 2.755887e-001
8.350261e+002, 2.597227e-001
8.369545e+002, 2.451839e-001
8.388830e+002, 2.323859e-001
8.408115e+002, 2.210116e-001
8.427399e+002, 2.111327e-001
8.446684e+002, 2.026218e-001
8.465969e+002, 1.949182e-001
8.485253e+002, 1.876422e-001
8.504538e+002, 1.805025e-001
8.523823e+002, 1.733072e-001
8.543107e+002, 1.660237e-001
8.562392e+002, 1.589119e-001
8.581677e+002, 1.521333e-001
8.600961e+002, 1.457833e-001
8.620246e+002, 1.397520e-001
8.639531e+002, 1.338430e-001
8.658815e+002, 1.284813e-001
8.678100e+002, 1.237743e-001
8.697385e+002, 1.197628e-001
8.716669e+002, 1.163453e-001
8.735954e+002, 1.135251e-001
8.755239e+002, 1.113453e-001
8.774523e+002, 1.098528e-001
8.793808e+002, 1.087035e-001
8.813093e+002, 1.077812e-001
8.832377e+002, 1.070038e-001
8.851662e+002, 1.063382e-001
8.870947e+002, 1.055937e-001
8.890231e+002, 1.047450e-001
8.909516e+002, 1.040004e-001
8.928801e+002, 1.036130e-001
8.948085e+002, 1.034977e-001
8.967370e+002, 1.033511e-001
8.986655e+002, 1.024818e-001
9.005939e+002, 1.007881e-001
9.025224e+002, 9.828673e-002
9.044509e+002, 9.564269e-002
9.063793e+002, 9.303225e-002
9.083078e+002, 9.027424e-002
9.102363e+002, 8.731413e-002
9.121647e+002, 8.369287e-002
9.140932e+002, 7.895681e-002
9.160217e+002, 7.335884e-002
9.179501e+002, 6.766149e-002
9.198786e+002, 6.270941e-002
9.218071e+002, 5.834267e-002
9.237355e+002, 5.454248e-002
9.256640e+002, 5.135522e-002
9.275925e+002, 4.859345e-002
9.295209e+002, 4.608662e-002
9.314494e+002, 4.398324e-002
9.333779e+002, 4.221217e-002
9.353063e+002, 4.041771e-002
9.372348e+002, 3.884466e-002
9.391633e+002, 3.758787e-002
9.410917e+002, 3.619930e-002
9.430202e+002, 3.477220e-002
9.449487e+002, 3.369811e-002
9.468771e+002, 3.274553e-002
9.488056e+002, 3.162422e-002
9.507341e+002, 3.065890e-002
9.526625e+002, 2.976951e-002
9.545910e+002, 2.910433e-002
9.565195e+002, 2.852713e-002
9.584479e+002, 2.793133e-002
9.603764e+002, 2.759477e-002
9.623049e+002, 2.740590e-002
9.642333e+002, 2.704883e-002
9.661618e+002, 2.667563e-002
9.680903e+002, 2.639932e-002
9.700187e+002, 2.613334e-002
9.719472e+002, 2.586151e-002
9.738757e+002, 2.565473e-002
9.758041e+002, 2.540350e-002
9.777326e+002, 2.531452e-002
9.796611e+002, 2.525200e-002
9.815895e+002, 2.511856e-002
9.835180e+002, 2.510300e-002
9.854465e+002, 2.510769e-002
9.873749e+002, 2.512935e-002
9.893034e+002, 2.527830e-002
9.912319e+002, 2.538052e-002
9.931603e+002, 2.560799e-002
9.950888e+002, 2.580119e-002
9.970173e+002, 2.601464e-002
9.989457e+002, 2.623603e-002
1.000874e+003, 2.655292e-002
1.002803e+003, 2.691427e-002
1.004731e+003, 2.755393e-002
1.006660e+003, 2.820347e-002
1.008588e+003, 2.886360e-002
1.010517e+003, 2.994902e-002
1.012445e+003, 3.129243e-002
1.014373e+003, 3.264930e-002
1.016302e+003, 3.374162e-002
1.018230e+003, 3.408010e-002
1.020159e+003, 3.402812e-002
1.022087e+003, 3.377525e-002
1.024016e+003, 3.344509e-002
1.025944e+003, 3.294056e-002
1.027873e+003, 3.197494e-002
1.029801e+003, 3.085600e-002
1.031730e+003, 2.983038e-002
1.033658e+003, 2.904234e-002
1.035587e+003, 2.868229e-002
1.037515e+003, 2.851279e-002
1.039443e+003, 2.852055e-002
1.041372e+003, 2.876875e-002
1.043300e+003, 2.932779e-002
1.045229e+003, 3.011772e-002
1.047157e+003, 3.121132e-002
1.049086e+003, 3.219412e-002
1.051014e+003, 3.234181e-002
1.052943e+003, 3.137995e-002
1.054871e+003, 3.015733e-002
1.056800e+003, 2.907687e-002
1.058728e+003, 2.810023e-002
1.060657e+003, 2.735159e-002
1.062585e+003, 2.675247e-002
1.064514e+003, 2.630459e-002
1.066442e+003, 2.599337e-002
1.068370e+003, 2.577401e-002
1.070299e+003, 2.584392e-002
1.072227e+003, 2.588279e-002
1.074156e+003, 2.597592e-002
1.076084e+003, 2.625045e-002
1.078013e+003, 2.660934e-002
1.079941e+003, 2.680756e-002
1.081870e+003, 2.714284e-002
1.083798e+003, 2.742181e-002
1.085727e+003, 2.749958e-002
1.087655e+003, 2.740798e-002
1.089584e+003, 2.729247e-002
1.091512e+003, 2.732269e-002
1.093441e+003, 2.755538e-002
1.095369e+003, 2.764325e-002
1.097297e+003, 2.764730e-002
1.099226e+003, 2.759632e-002
1.101154e+003, 2.755157e-002
1.103083e+003, 2.735914e-002
1.105011e+003, 2.735779e-002
1.106940e+003, 2.721468e-002
1.108868e+003, 2.708992e-002
1.110797e+003, 2.694275e-002
1.112725e+003, 2.673532e-002
1.114654e+003, 2.656510e-002
1.116582e+003, 2.638322e-002
1.118511e+003, 2.621055e-002
1.120439e+003, 2.590443e-002
1.122368e+003, 2.571669e-002
1.124296e+003, 2.552570e-002
1.126224e+003, 2.514330e-002
1.128153e+003, 2.482547e-002
1.130081e+003, 2.463512e-002
1.132010e+003, 2.433093e-002
1.133938e+003, 2.400056e-002
1.135867e+003, 2.370561e-002
1.137795e+003, 2.340465e-002
1.139724e+003, 2.313553e-002
1.141652e+003, 2.283842e-002
1.143581e+003, 2.248399e-002
1.145509e+003, 2.218914e-002
1.147438e+003, 2.196348e-002
1.149366e+003, 2.165641e-002
1.151295e+003, 2.145118e-002
1.153223e+003, 2.127130e-002
1.155151e+003, 2.114923e-002
1.157080e+003, 2.102992e-002
1.159008e+003, 2.099526e-002
1.160937e+003, 2.112281e-002
1.162865e+003, 2.135312e-002
1.164794e+003, 2.134159e-002
1.166722e+003, 2.116071e-002
1.168651e+003, 2.095540e-002
1.170579e+003, 2.086805e-002
1.172508e+003, 2.063384e-002
1.174436e+003, 2.047716e-002
1.176365e+003, 2.051715e-002
1.178293e+003, 2.047662e-002
1.180222e+003, 2.041274e-002
1.182150e+003, 2.030410e-002
1.184078e+003, 2.035968e-002
1.186007e+003, 2.045224e-002
1.187935e+003, 2.044393e-002
1.189864e+003, 2.057048e-002
1.191792e+003, 2.062556e-002
1.193721e+003, 2.064642e-002
1.195649e+003, 2.066675e-002
1.197578e+003, 2.069567e-002
1.199506e+003, 2.074041e-002
1.201435e+003, 2.065604e-002
1.203363e+003, 2.043356e-002
1.205292e+003, 2.029030e-002
1.207220e+003, 2.031033e-002
1.209149e+003, 2.030117e-002
1.211077e+003, 2.010761e-002
1.213005e+003, 1.999918e-002
1.214934e+003, 1.993414e-002
1.216862e+003, 1.981477e-002
1.218791e+003, 1.979306e-002
1.220719e+003, 1.974788e-002
1.222648e+003, 1.956383e-002
1.224576e+003, 1.948524e-002
1.226505e+003, 1.950893e-002
1.228433e+003, 1.945973e-002
1.230362e+003, 1.939037e-002
1.232290e+003, 1.942902e-002
1.234219e+003, 1.935978e-002
1.236147e+003, 1.930719e-002
1.238076e+003, 1.940629e-002
1.240004e+003, 1.953935e-002
1.241932e+003, 1.947664e-002
1.243861e+003, 1.928047e-002
1.245789e+003, 1.919598e-002
1.247718e+003, 1.918813e-002
1.249646e+003, 1.928429e-002
1.251575e+003, 1.946261e-002
1.253503e+003, 1.945162e-002
1.255432e+003, 1.932266e-002
1.257360e+003, 1.931833e-002
1.259289e+003, 1.933927e-002
1.261217e+003, 1.935594e-002
1.263146e+003, 1.950891e-002
1.265074e+003, 1.960698e-002
1.267003e+003, 1.961838e-002
1.268931e+003, 1.972745e-002
1.270859e+003, 1.983242e-002
1.272788e+003, 1.993233e-002
1.274716e+003, 2.008752e-002
1.276645e+003, 2.022688e-002
1.278573e+003, 2.038438e-002
1.280502e+003, 2.053917e-002
1.282430e+003, 2.051014e-002
1.284359e+003, 2.053181e-002
1.286287e+003, 2.068805e-002
1.288216e+003, 2.065914e-002
1.290144e+003, 2.073819e-002
1.292073e+003, 2.078319e-002
1.294001e+003, 2.072901e-002
1.295930e+003, 2.057268e-002
1.297858e+003, 2.049219e-002
1.299786e+003, 2.044025e-002
1.301715e+003, 2.029797e-002
1.303643e+003, 2.013318e-002
1.305572e+003, 2.014700e-002
1.307500e+003, 2.055468e-002
1.309429e+003, 2.087001e-002
1.311357e+003, 2.081484e-002
1.313286e+003, 2.087750e-002
1.315214e+003, 2.097054e-002
1.317143e+003, 2.098019e-002
1.319071e+003, 2.100692e-002
1.321000e+003, 2.099568e-002
1.322928e+003, 2.093054e-002
1.324857e+003, 2.102388e-002
1.326785e+003, 2.110336e-002
1.328714e+003, 2.126484e-002
1.330642e+003, 2.131853e-002
1.332570e+003, 2.130458e-002
1.334499e+003, 2.135482e-002
1.336427e+003, 2.145409e-002
1.338356e+003, 2.160382e-002
1.340284e+003, 2.158366e-002
1.342213e+003, 2.150958e-002
1.344141e+003, 2.177691e-002
1.346070e+003, 2.190455e-002
1.347998e+003, 2.190394e-002
1.349927e+003, 2.199782e-002
1.351855e+003, 2.206845e-002
1.353784e+003, 2.211339e-002
1.355712e+003, 2.216453e-002
1.357641e+003, 2.223319e-002
1.359569e+003, 2.237467e-002
1.361497e+003, 2.263233e-002
1.363426e+003, 2.284203e-002
1.365354e+003, 2.287561e-002
1.367283e+003, 2.305098e-002
1.369211e+003, 2.318462e-002
1.371140e+003, 2.332943e-002
1.373068e+003, 2.345522e-002
1.374997e+003, 2.361323e-002
1.376925e+003, 2.375519e-002
1.378854e+003, 2.402382e-002
1.380782e+003, 2.410276e-002
1.382711e+003, 2.413409e-002
1.384639e+003, 2.423643e-002
1.386568e+003, 2.463756e-002
1.388496e+003, 2.491112e-002
1.390424e+003, 2.508133e-002
1.392353e+003, 2.539145e-002
1.394281e+003, 2.589346e-002
1.396210e+003, 2.621943e-002
1.398138e+003, 2.646233e-002
1.400067e+003, 2.655107e-002
1.401995e+003, 2.661870e-002
1.403924e+003, 2.702646e-002
1.405852e+003, 2.748824e-002
1.407781e+003, 2.777411e-002
1.409709e+003, 2.808056e-002
1.411638e+003, 2.840884e-002
1.413566e+003, 2.860957e-002
1.415495e+003, 2.879180e-002
1.417423e+003, 2.940709e-002
1.419351e+003, 2.993452e-002
1.421280e+003, 2.980916e-002
1.423208e+003, 2.989148e-002
1.425137e+003, 3.008876e-002
1.427065e+003, 3.014015e-002
1.428994e+003, 3.040063e-002
1.430922e+003, 3.059902e-002
1.432851e+003, 3.072035e-002
1.434779e+003, 3.114725e-002
1.436708e+003, 3.167398e-002
1.438636e+003, 3.138615e-002
1.440565e+003, 3.120777e-002
1.442493e+003, 3.138416e-002
1.444422e+003, 3.157608e-002
1.446350e+003, 3.172847e-002
1.448278e+003, 3.189681e-002
1.450207e+003, 3.193099e-002
1.452135e+003, 3.205475e-002
1.454064e+003, 3.242386e-002
1.455992e+003, 3.328233e-002
1.457921e+003, 3.333593e-002
1.459849e+003, 3.269271e-002
1.461778e+003, 3.254387e-002
1.463706e+003, 3.283092e-002
1.465635e+003, 3.306703e-002
1.467563e+003, 3.313667e-002
1.469492e+003, 3.334143e-002
1.471420e+003, 3.385621e-002
1.473349e+003, 3.423103e-002
1.475277e+003, 3.423370e-002
1.477205e+003, 3.420070e-002
1.479134e+003, 3.420420e-002
1.481062e+003, 3.440952e-002
1.482991e+003, 3.455718e-002
1.484919e+003, 3.482164e-002
1.486848e+003, 3.523267e-002
1.488776e+003, 3.548355e-002
1.490705e+003, 3.550807e-002
1.492633e+003, 3.547298e-002
1.494562e+003, 3.591280e-002
1.496490e+003, 3.643364e-002
1.498419e+003, 3.649597e-002
1.500347e+003, 3.644941e-002
1.502276e+003, 3.664230e-002
1.504204e+003, 3.744693e-002
1.506132e+003, 3.830186e-002
1.508061e+003, 3.810675e-002
1.509989e+003, 3.752087e-002
1.511918e+003, 3.745358e-002
1.513846e+003, 3.757071e-002
1.515775e+003, 3.796383e-002
1.517703e+003, 3.829348e-002
1.519632e+003, 3.891775e-002
1.521560e+003, 3.951359e-002
1.523489e+003, 3.934902e-002
1.525417e+003, 3.941036e-002
1.527346e+003, 3.955354e-002
1.529274e+003, 3.986912e-002
1.531203e+003, 4.027684e-002
1.533131e+003, 4.080062e-002
1.535059e+003, 4.088359e-002
1.536988e+003, 4.147290e-002
1.538916e+003, 4.280516e-002
1.540845e+003, 4.328274e-002
1.542773e+003, 4.304440e-002
1.544702e+003, 4.306218e-002
1.546630e+003, 4.324699e-002
1.548559e+003, 4.368670e-002
1.550487e+003, 4.414593e-002
1.552416e+003, 4.466520e-002
1.554344e+003, 4.527076e-002
1.556273e+003, 4.602180e-002
1.558201e+003, 4.743939e-002
1.560130e+003, 4.766130e-002
1.562058e+003, 4.687692e-002
1.563986e+003, 4.706647e-002
1.565915e+003, 4.737612e-002
1.567843e+003, 4.772944e-002
1.569772e+003, 4.823969e-002
1.571700e+003, 4.831797e-002
1.573629e+003, 4.868894e-002
1.575557e+003, 4.959484e-002
1.577486e+003, 4.948180e-002
1.579414e+003, 4.905443e-002
1.581343e+003, 4.923595e-002
1.583271e+003, 4.923344e-002
1.585200e+003, 4.905422e-002
1.587128e+003, 4.891666e-002
1.589057e+003, 4.886482e-002
1.590985e+003, 4.865093e-002
1.592913e+003, 4.828700e-002
1.594842e+003, 4.791382e-002
1.596770e+003, 4.750371e-002
1.598699e+003, 4.672588e-002
1.600627e+003, 4.586070e-002
1.602556e+003, 4.507756e-002
1.604484e+003, 4.412156e-002
1.606413e+003, 4.317721e-002
1.608341e+003, 4.241660e-002
1.610270e+003, 4.151789e-002
1.612198e+003, 4.058305e-002
1.614127e+003, 3.986623e-002
1.616055e+003, 3.957143e-002
1.617984e+003, 3.859934e-002
1.619912e+003, 3.741677e-002
1.621840e+003, 3.689497e-002
1.623769e+003, 3.623101e-002
1.625697e+003, 3.538784e-002
1.627626e+003, 3.483934e-002
1.629554e+003, 3.432842e-002
1.631483e+003, 3.384924e-002
1.633411e+003, 3.368366e-002
1.635340e+003, 3.368041e-002
1.637268e+003, 3.296881e-002
1.639197e+003, 3.219911e-002
1.641125e+003, 3.178921e-002
1.643054e+003, 3.155373e-002
1.644982e+003, 3.183087e-002
1.646911e+003, 3.171216e-002
1.648839e+003, 3.097394e-002
1.650767e+003, 3.120832e-002
1.652696e+003, 3.226355e-002
1.654624e+003, 3.122816e-002
1.656553e+003, 3.002646e-002
1.658481e+003, 2.959759e-002
1.660410e+003, 2.945238e-002
1.662338e+003, 2.958476e-002
1.664267e+003, 2.934148e-002
1.666195e+003, 2.902840e-002
1.668124e+003, 2.933010e-002
1.670052e+003, 2.928911e-002
1.671981e+003, 2.877423e-002
1.673909e+003, 2.874550e-002
1.675838e+003, 2.885124e-002
1.677766e+003, 2.846563e-002
1.679694e+003, 2.846663e-002
1.681623e+003, 2.862151e-002
1.683551e+003, 2.937027e-002
1.685480e+003, 2.920680e-002
1.687408e+003, 2.853766e-002
1.689337e+003, 2.846116e-002
1.691265e+003, 2.845544e-002
1.693194e+003, 2.862938e-002
1.695122e+003, 2.937500e-002
1.697051e+003, 2.932948e-002
1.698979e+003, 2.952790e-002
1.700908e+003, 2.966555e-002
1.702836e+003, 2.875429e-002
1.704765e+003, 2.877387e-002
1.706693e+003, 2.864230e-002
1.708621e+003, 2.815208e-002
1.710550e+003, 2.798154e-002
1.712478e+003, 2.799477e-002
1.714407e+003, 2.789825e-002
1.716335e+003, 2.817493e-002
1.718264e+003, 2.801758e-002
1.720192e+003, 2.726291e-002
1.722121e+003, 2.674294e-002
1.724049e+003, 2.656664e-002
1.725978e+003, 2.625217e-002
1.727906e+003, 2.614568e-002
1.729835e+003, 2.622085e-002
1.731763e+003, 2.652512e-002
1.733692e+003, 2.709922e-002
1.735620e+003, 2.646071e-002
1.737548e+003, 2.572945e-002
1.739477e+003, 2.563839e-002
1.741405e+003, 2.525577e-002
1.743334e+003, 2.494822e-002
1.745262e+003, 2.472198e-002
1.747191e+003, 2.471191e-002
1.749119e+003, 2.485206e-002
1.751048e+003, 2.501430e-002
1.752976e+003, 2.474772e-002
1.754905e+003, 2.438568e-002
1.756833e+003, 2.433362e-002
1.758762e+003, 2.428454e-002
1.760690e+003, 2.442457e-002
1.762619e+003, 2.454075e-002
1.764547e+003, 2.442224e-002
1.766475e+003, 2.439346e-002
1.768404e+003, 2.430058e-002
1.770332e+003, 2.427834e-002
1.772261e+003, 2.441359e-002
1.774189e+003, 2.407142e-002
1.776118e+003, 2.362832e-002
1.778046e+003, 2.359651e-002
1.779975e+003, 2.377694e-002
1.781903e+003, 2.362937e-002
1.783832e+003, 2.361363e-002
1.785760e+003, 2.358829e-002
1.787689e+003, 2.338682e-002
1.789617e+003, 2.358978e-002
1.791546e+003, 2.395544e-002
1.793474e+003, 2.381700e-002
1.795402e+003, 2.342509e-002
1.797331e+003, 2.329439e-002
1.799259e+003, 2.329291e-002
1.801188e+003, 2.337524e-002
1.803116e+003, 2.344656e-002
1.805045e+003, 2.318624e-002
1.806973e+003, 2.288269e-002
1.808902e+003, 2.306121e-002
1.810830e+003, 2.304792e-002
1.812759e+003, 2.284446e-002
1.814687e+003, 2.264373e-002
1.816616e+003, 2.254063e-002
1.818544e+003, 2.248619e-002
1.820473e+003, 2.265893e-002
1.822401e+003, 2.286316e-002
1.824329e+003, 2.300334e-002
1.826258e+003, 2.294344e-002
1.828186e+003, 2.301107e-002
1.830115e+003, 2.281727e-002
1.832043e+003, 2.266310e-002
1.833972e+003, 2.297549e-002
1.835900e+003, 2.290718e-002
1.837829e+003, 2.276098e-002
1.839757e+003, 2.286829e-002
1.841686e+003, 2.301441e-002
1.843614e+003, 2.351589e-002
1.845543e+003, 2.345907e-002
1.847471e+003, 2.316105e-002
1.849400e+003, 2.309188e-002
1.851328e+003, 2.299293e-002
1.853256e+003, 2.283947e-002
1.855185e+003, 2.291174e-002
1.857113e+003, 2.318940e-002
1.859042e+003, 2.333603e-002
1.860970e+003, 2.359867e-002
1.862899e+003, 2.361982e-002
1.864827e+003, 2.360056e-002
1.866756e+003, 2.370553e-002
1.868684e+003, 2.405134e-002
1.870613e+003, 2.371182e-002
1.872541e+003, 2.326220e-002
1.874470e+003, 2.354235e-002
1.876398e+003, 2.366462e-002
1.878327e+003, 2.335271e-002
1.880255e+003, 2.324988e-002
1.882183e+003, 2.352832e-002
1.884112e+003, 2.376840e-002
1.886040e+003, 2.362245e-002
1.887969e+003, 2.382072e-002
1.889897e+003, 2.416190e-002
1.891826e+003, 2.398045e-002
1.893754e+003, 2.387692e-002
1.895683e+003, 2.373772e-002
1.897611e+003, 2.370713e-002
1.899540e+003, 2.379276e-002
1.901468e+003, 2.386522e-002
1.903397e+003, 2.397668e-002
1.905325e+003, 2.406018e-002
1.907254e+003, 2.417218e-002
1.909182e+003, 2.412589e-002
1.911110e+003, 2.394721e-002
1.913039e+003, 2.420863e-002
1.914967e+003, 2.439499e-002
1.916896e+003, 2.433650e-002
1.918824e+003, 2.458575e-002
1.920753e+003, 2.432917e-002
1.922681e+003, 2.415042e-002
1.924610e+003, 2.454987e-002
1.926538e+003, 2.484785e-002
1.928467e+003, 2.475681e-002
1.930395e+003, 2.464890e-002
1.932324e+003, 2.444165e-002
1.934252e+003, 2.443827e-002
1.936181e+003, 2.499296e-002
1.938109e+003, 2.491704e-002
1.940037e+003, 2.458357e-002
1.941966e+003, 2.469884e-002
1.943894e+003, 2.442370e-002
1.945823e+003, 2.443917e-002
1.947751e+003, 2.529525e-002
1.949680e+003, 2.524302e-002
1.951608e+003, 2.482434e-002
1.953537e+003, 2.441834e-002
1.955465e+003, 2.388448e-002
1.957394e+003, 2.387435e-002
1.959322e+003, 2.404831e-002
1.961251e+003, 2.428170e-002
1.963179e+003, 2.514247e-002
1.965108e+003, 2.509448e-002
1.967036e+003, 2.483275e-002
1.968964e+003, 2.460547e-002
1.970893e+003, 2.428901e-002
1.972821e+003, 2.444110e-002
1.974750e+003, 2.445840e-002
1.976678e+003, 2.445472e-002
1.978607e+003, 2.664075e-002
1.980535e+003, 2.781096e-002
1.982464e+003, 2.749746e-002
1.984392e+003, 2.686740e-002
1.986321e+003, 2.709356e-002
1.988249e+003, 2.700771e-002
1.990178e+003, 2.649331e-002
1.992106e+003, 2.698675e-002
1.994035e+003, 2.759874e-002
1.995963e+003, 2.788854e-002
1.997891e+003, 2.735851e-002
1.999820e+003, 2.659051e-002
2.001748e+003, 2.678344e-002
2.003677e+003, 2.664659e-002
2.005605e+003, 2.576105e-002
2.007534e+003, 2.581137e-002
2.009462e+003, 2.635137e-002
2.011391e+003, 2.687748e-002
2.013319e+003, 2.602815e-002
2.015248e+003, 2.608568e-002
2.017176e+003, 2.669608e-002
2.019105e+003, 2.673581e-002
2.021033e+003, 2.659739e-002
2.022962e+003, 2.665815e-002
2.024890e+003, 2.729356e-002
2.026818e+003, 2.779870e-002
2.028747e+003, 2.780934e-002
2.030675e+003, 2.743969e-002
2.032604e+003, 2.662250e-002
2.034532e+003, 2.661003e-002
2.036461e+003, 2.857864e-002
2.038389e+003, 3.027052e-002
2.040318e+003, 2.986672e-002
2.042246e+003, 2.866731e-002
2.044175e+003, 2.863856e-002
2.046103e+003, 2.945545e-002
2.048031e+003, 3.058070e-002
2.049960e+003, 3.137377e-002
2.051888e+003, 3.059502e-002
2.053817e+003, 3.059863e-002
2.055745e+003, 3.105839e-002
2.057674e+003, 3.062117e-002
2.059602e+003, 3.067543e-002
2.061531e+003, 3.073858e-002
2.063459e+003, 3.128983e-002
2.065388e+003, 3.140532e-002
2.067316e+003, 3.071227e-002
2.069245e+003, 3.088574e-002
2.071173e+003, 3.154567e-002
2.073102e+003, 3.228155e-002
2.075030e+003, 3.260580e-002
2.076958e+003, 3.270889e-002
2.078887e+003, 3.281755e-002
2.080815e+003, 3.281961e-002
2.082744e+003, 3.260002e-002
2.084672e+003, 3.224690e-002
2.086601e+003, 3.279028e-002
2.088529e+003, 3.331881e-002
2.090458e+003, 3.303562e-002
2.092386e+003, 3.293920e-002
2.094315e+003, 3.296057e-002
2.096243e+003, 3.341781e-002
2.098172e+003, 3.331550e-002
2.100100e+003, 3.339599e-002
2.102029e+003, 3.412092e-002
2.103957e+003, 3.497621e-002
2.105885e+003, 3.526597e-002
2.107814e+003, 3.476701e-002
2.109742e+003, 3.454545e-002
2.111671e+003, 3.484088e-002
2.113599e+003, 3.485546e-002
2.115528e+003, 3.506690e-002
2.117456e+003, 3.519814e-002
2.119385e+003, 3.484095e-002
2.121313e+003, 3.462281e-002
2.123242e+003, 3.489552e-002
2.125170e+003, 3.555094e-002
2.127099e+003, 3.479313e-002
2.129027e+003, 3.336506e-002
2.130956e+003, 3.256657e-002
2.132884e+003, 3.253916e-002
2.134813e+003, 3.311896e-002
2.136741e+003, 3.402948e-002
2.138669e+003, 3.439539e-002
2.140598e+003, 3.401763e-002
2.142526e+003, 3.412494e-002
2.144455e+003, 3.454012e-002
2.146383e+003, 3.491200e-002
2.148312e+003, 3.517189e-002
2.150240e+003, 3.504930e-002
2.152169e+003, 3.461967e-002
2.154097e+003, 3.361654e-002
2.156026e+003, 3.261744e-002
2.157954e+003, 3.336779e-002
2.159883e+003, 3.673627e-002
2.161811e+003, 3.771945e-002
2.163740e+003, 3.730080e-002
2.165668e+003, 3.851789e-002
2.167596e+003, 3.984768e-002
2.169525e+003, 3.878272e-002
2.171453e+003, 3.766026e-002
2.173382e+003, 3.730084e-002
2.175310e+003, 3.732164e-002
2.177239e+003, 3.807117e-002
2.179167e+003, 3.809633e-002
2.181096e+003, 3.774408e-002
2.183024e+003, 3.806654e-002
2.184953e+003, 3.880431e-002
2.186881e+003, 3.916282e-002
2.188810e+003, 3.941777e-002
2.190738e+003, 3.947444e-002
2.192667e+003, 4.028665e-002
2.194595e+003, 4.070106e-002
2.196523e+003, 4.096267e-002
2.198452e+003, 4.090314e-002
2.200380e+003, 4.160161e-002
2.202309e+003, 4.122444e-002
2.204237e+003, 4.115014e-002
2.206166e+003, 4.090169e-002
2.208094e+003, 4.100442e-002
2.210023e+003, 4.202173e-002
2.211951e+003, 4.281721e-002
2.213880e+003, 4.249788e-002
2.215808e+003, 4.171701e-002
2.217737e+003, 4.143836e-002
2.219665e+003, 4.141020e-002
2.221594e+003, 4.162955e-002
2.223522e+003, 4.257387e-002
2.225450e+003, 4.281958e-002
2.227379e+003, 4.320961e-002
2.229307e+003, 4.369720e-002
2.231236e+003, 4.344501e-002
2.233164e+003, 4.338343e-002
2.235093e+003, 4.345335e-002
2.237021e+003, 4.309079e-002
2.238950e+003, 4.269957e-002
2.240878e+003, 4.264101e-002
2.242807e+003, 4.256924e-002
2.244735e+003, 4.253732e-002
2.246664e+003, 4.310698e-002
2.248592e+003, 4.375257e-002
2.250521e+003, 4.378955e-002
2.252449e+003, 4.421109e-002
2.254377e+003, 4.472319e-002
2.256306e+003, 4.423008e-002
2.258234e+003, 4.324821e-002
2.260163e+003, 4.276795e-002
2.262091e+003, 4.288907e-002
2.264020e+003, 4.345356e-002
2.265948e+003, 4.422401e-002
2.267877e+003, 4.434646e-002
2.269805e+003, 4.393521e-002
2.271734e+003, 4.410658e-002
2.273662e+003, 4.442539e-002
2.275591e+003, 4.473205e-002
2.277519e+003, 4.482413e-002
2.279448e+003, 4.461049e-002
2.281376e+003, 4.468271e-002
2.283304e+003, 4.524392e-002
2.285233e+003, 4.548052e-002
2.287161e+003, 4.564260e-002
2.289090e+003, 4.542231e-002
2.291018e+003, 4.527624e-002
2.292947e+003, 4.515185e-002
2.294875e+003, 4.520956e-002
2.296804e+003, 4.538285e-002
2.298732e+003, 4.554548e-002
2.300661e+003, 4.546776e-002
2.302589e+003, 4.586389e-002
2.304518e+003, 4.620972e-002
2.306446e+003, 4.584038e-002
2.308375e+003, 4.601507e-002
2.310303e+003, 4.625623e-002
2.312231e+003, 4.636600e-002
2.314160e+003, 4.649244e-002
2.316088e+003, 4.658520e-002
2.318017e+003, 4.698792e-002
2.319945e+003, 4.766067e-002
2.321874e+003, 4.854023e-002
2.323802e+003, 4.889585e-002
2.325731e+003, 4.805968e-002
2.327659e+003, 4.765945e-002
2.329588e+003, 4.804774e-002
2.331516e+003, 4.832231e-002
2.333445e+003, 4.838158e-002
2.335373e+003, 4.862539e-002
2.337302e+003, 4.870877e-002
2.339230e+003, 4.860251e-002
2.341158e+003, 4.833040e-002
2.343087e+003, 4.820658e-002
2.345015e+003, 4.809628e-002
2.346944e+003, 4.802929e-002
2.348872e+003, 4.779581e-002
2.350801e+003, 4.798134e-002
2.352729e+003, 4.846561e-002
2.354658e+003, 4.890506e-002
2.356586e+003, 4.925280e-002
2.358515e+003, 4.950354e-002
2.360443e+003, 4.961231e-002
2.362372e+003, 4.963863e-002
2.364300e+003, 4.936272e-002
2.366229e+003, 4.930370e-002
2.368157e+003, 4.921852e-002
2.370085e+003, 4.898389e-002
2.372014e+003, 4.879398e-002
2.373942e+003, 4.851766e-002
2.375871e+003, 4.820116e-002
2.377799e+003, 4.836222e-002
2.379728e+003, 4.853862e-002
2.381656e+003, 4.856456e-002
2.383585e+003, 4.853087e-002
2.385513e+003, 4.841715e-002
2.387442e+003, 4.838385e-002
2.389370e+003, 4.847718e-002
2.391299e+003, 4.861644e-002
2.393227e+003, 4.882718e-002
2.395156e+003, 4.879075e-002
2.397084e+003, 4.891569e-002
2.399012e+003, 4.907935e-002
2.400941e+003, 4.918985e-002
2.402869e+003, 4.912112e-002
2.404798e+003, 4.902843e-002
2.406726e+003, 4.963555e-002
2.408655e+003, 4.995271e-002
2.410583e+003, 4.997209e-002
2.412512e+003, 5.016610e-002
2.414440e+003, 5.021686e-002
2.416369e+003, 5.025286e-002
2.418297e+003, 5.061327e-002
2.420226e+003, 5.099905e-002
2.422154e+003, 5.110228e-002
2.424083e+003, 5.108175e-002
2.426011e+003, 5.118357e-002
2.427939e+003, 5.133818e-002
2.429868e+003, 5.174461e-002
2.431796e+003, 5.155798e-002
2.433725e+003, 5.139524e-002
2.435653e+003, 5.186883e-002
2.437582e+003, 5.247041e-002
2.439510e+003, 5.261852e-002
2.441439e+003, 5.261141e-002
2.443367e+003, 5.255930e-002
2.445296e+003, 5.274050e-002
2.447224e+003, 5.302158e-002
2.449153e+003, 5.333866e-002
2.451081e+003, 5.401350e-002
2.453010e+003, 5.400136e-002
2.454938e+003, 5.403886e-002
2.456866e+003, 5.424908e-002
2.458795e+003, 5.385390e-002
2.460723e+003, 5.374009e-002
2.462652e+003, 5.437975e-002
2.464580e+003, 5.468811e-002
2.466509e+003, 5.466899e-002
2.468437e+003, 5.437412e-002
2.470366e+003, 5.418550e-002
2.472294e+003, 5.472489e-002
2.474223e+003, 5.552234e-002
2.476151e+003, 5.566282e-002
2.478080e+003, 5.573055e-002
2.480008e+003, 5.639555e-002
2.481937e+003, 5.676216e-002
2.483865e+003, 5.658421e-002
2.485793e+003, 5.627214e-002
2.487722e+003, 5.641636e-002
2.489650e+003, 5.676512e-002
2.491579e+003, 5.712984e-002
2.493507e+003, 5.717110e-002
2.495436e+003, 5.705825e-002
2.497364e+003, 5.718974e-002
2.499293e+003, 5.752866e-002
2.501221e+003, 5.796207e-002
2.503150e+003, 5.817247e-002
2.505078e+003, 5.837658e-002
2.507007e+003, 5.843345e-002
2.508935e+003, 5.874420e-002
2.510864e+003, 5.888858e-002
2.512792e+003, 5.911617e-002
2.514720e+003, 5.944762e-002
2.516649e+003, 5.980452e-002
2.518577e+003, 5.990297e-002
2.520506e+003, 5.997036e-002
2.522434e+003, 5.987898e-002
2.524363e+003, 6.025467e-002
2.526291e+003, 6.085082e-002
2.528220e+003, 6.091055e-002
2.530148e+003, 6.075738e-002
2.532077e+003, 6.131426e-002
2.534005e+003, 6.215615e-002
2.535934e+003, 6.253291e-002
2.537862e+003, 6.270631e-002
2.539791e+003, 6.260290e-002
2.541719e+003, 6.266050e-002
2.543647e+003, 6.265712e-002
2.545576e+003, 6.290808e-002
2.547504e+003, 6.359514e-002
2.549433e+003, 6.406666e-002
2.551361e+003, 6.425781e-002
2.553290e+003, 6.475949e-002
2.555218e+003, 6.502491e-002
2.557147e+003, 6.481006e-002
2.559075e+003, 6.482002e-002
2.561004e+003, 6.517421e-002
2.562932e+003, 6.575485e-002
2.564861e+003, 6.595644e-002
2.566789e+003, 6.629690e-002
2.568718e+003, 6.678135e-002
2.570646e+003, 6.706483e-002
2.572574e+003, 6.758149e-002
2.574503e+003, 6.804392e-002
2.576431e+003, 6.804927e-002
2.578360e+003, 6.809592e-002
2.580288e+003, 6.821574e-002
2.582217e+003, 6.875783e-002
2.584145e+003, 6.921647e-002
2.586074e+003, 6.918820e-002
2.588002e+003, 6.919730e-002
2.589931e+003, 6.950644e-002
2.591859e+003, 7.003927e-002
2.593788e+003, 7.076839e-002
2.595716e+003, 7.096361e-002
2.597645e+003, 7.086381e-002
2.599573e+003, 7.116272e-002
2.601501e+003, 7.160603e-002
2.603430e+003, 7.187952e-002
2.605358e+003, 7.237570e-002
2.607287e+003, 7.296651e-002
2.609215e+003, 7.338420e-002
2.611144e+003, 7.372528e-002
2.613072e+003, 7.394781e-002
2.615001e+003, 7.442139e-002
2.616929e+003, 7.490177e-002
2.618858e+003, 7.517136e-002
2.620786e+003, 7.542452e-002
2.622715e+003, 7.591122e-002
2.624643e+003, 7.606912e-002
2.626572e+003, 7.612622e-002
2.628500e+003, 7.681083e-002
2.630428e+003, 7.746769e-002
2.632357e+003, 7.793060e-002
2.634285e+003, 7.829085e-002
2.636214e+003, 7.861842e-002
2.638142e+003, 7.875617e-002
2.640071e+003, 7.909498e-002
2.641999e+003, 7.975543e-002
2.643928e+003, 8.025689e-002
2.645856e+003, 8.045062e-002
2.647785e+003, 8.067404e-002
2.649713e+003, 8.118606e-002
2.651642e+003, 8.173297e-002
2.653570e+003, 8.237647e-002
2.655499e+003, 8.307216e-002
2.657427e+003, 8.337618e-002
2.659355e+003, 8.356114e-002
2.661284e+003, 8.398297e-002
2.663212e+003, 8.440210e-002
2.665141e+003, 8.481912e-002
2.667069e+003, 8.525398e-002
2.668998e+003, 8.559694e-002
2.670926e+003, 8.592799e-002
2.672855e+003, 8.637883e-002
2.674783e+003, 8.688480e-002
2.676712e+003, 8.747344e-002
2.678640e+003, 8.794206e-002
2.680569e+003, 8.825101e-002
2.682497e+003, 8.901215e-002
2.684426e+003, 8.956627e-002
2.686354e+003, 8.995708e-002
2.688282e+003, 9.049387e-002
2.690211e+003, 9.096909e-002
2.692139e+003, 9.163856e-002
2.694068e+003, 9.224816e-002
2.695996e+003, 9.274033e-002
2.697925e+003, 9.329687e-002
2.699853e+003, 9.360188e-002
2.701782e+003, 9.413318e-002
2.703710e+003, 9.490822e-002
2.705639e+003, 9.551468e-002
2.707567e+003, 9.572553e-002
2.709496e+003, 9.620331e-002
2.711424e+003, 9.699550e-002
2.713353e+003, 9.758494e-002
2.715281e+003, 9.781410e-002
2.717209e+003, 9.860414e-002
2.719138e+003, 9.935103e-002
2.721066e+003, 9.949455e-002
2.722995e+003, 1.001049e-001
2.724923e+003, 1.008063e-001
2.726852e+003, 1.010506e-001
2.728780e+003, 1.012989e-001
2.730709e+003, 1.018604e-001
2.732637e+003, 1.026024e-001
2.734566e+003, 1.030594e-001
2.736494e+003, 1.037633e-001
2.738423e+003, 1.047321e-001
2.740351e+003, 1.055593e-001
2.742280e+003, 1.058209e-001
2.744208e+003, 1.062114e-001
2.746136e+003, 1.066713e-001
2.748065e+003, 1.070734e-001
2.749993e+003, 1.077695e-001
2.751922e+003, 1.087193e-001
2.753850e+003, 1.092086e-001
2.755779e+003, 1.097304e-001
2.757707e+003, 1.102571e-001
2.759636e+003, 1.107561e-001
2.761564e+003, 1.113438e-001
2.763493e+003, 1.121893e-001
2.765421e+003, 1.128339e-001
2.767350e+003, 1.134899e-001
2.769278e+003, 1.139472e-001
2.771207e+003, 1.144111e-001
2.773135e+003, 1.152099e-001
2.775063e+003, 1.160731e-001
2.776992e+003, 1.166768e-001
2.778920e+003, 1.173290e-001
2.780849e+003, 1.179548e-001
2.782777e+003, 1.183634e-001
2.784706e+003, 1.190941e-001
2.786634e+003, 1.202009e-001
2.788563e+003, 1.208480e-001
2.790491e+003, 1.214744e-001
2.792420e+003, 1.221354e-001
2.794348e+003, 1.226508e-001
2.796277e+003, 1.234621e-001
2.798205e+003, 1.242437e-001
2.800134e+003, 1.250959e-001
2.802062e+003, 1.257152e-001
2.803990e+003, 1.265169e-001
2.805919e+003, 1.275287e-001
2.807847e+003, 1.282814e-001
2.809776e+003, 1.289935e-001
2.811704e+003, 1.298951e-001
2.813633e+003, 1.305914e-001
2.815561e+003, 1.314970e-001
2.817490e+003, 1.323609e-001
2.819418e+003, 1.328567e-001
2.821347e+003, 1.335565e-001
2.823275e+003, 1.341129e-001
2.825204e+003, 1.347772e-001
2.827132e+003, 1.359671e-001
2.829061e+003, 1.372259e-001
2.830989e+003, 1.381756e-001
2.832917e+003, 1.389827e-001
2.834846e+003, 1.395918e-001
2.836774e+003, 1.403224e-001
2.838703e+003, 1.414344e-001
2.840631e+003, 1.422814e-001
2.842560e+003, 1.434307e-001
2.844488e+003, 1.444810e-001
2.846417e+003, 1.446664e-001
2.848345e+003, 1.451372e-001
2.850274e+003, 1.462166e-001
2.852202e+003, 1.475002e-001
2.854131e+003, 1.487240e-001
2.856059e+003, 1.500853e-001
2.857988e+003, 1.515305e-001
2.859916e+003, 1.524708e-001
2.861844e+003, 1.534862e-001
2.863773e+003, 1.552840e-001
2.865701e+003, 1.568300e-001
2.867630e+003, 1.580882e-001
2.869558e+003, 1.596396e-001
2.871487e+003, 1.609923e-001
2.873415e+003, 1.623314e-001
2.875344e+003, 1.641126e-001
2.877272e+003, 1.653648e-001
2.879201e+003, 1.666934e-001
2.881129e+003, 1.683539e-001
2.883058e+003, 1.700023e-001
2.884986e+003, 1.712786e-001
2.886915e+003, 1.728786e-001
2.888843e+003, 1.749703e-001
2.890771e+003, 1.766272e-001
2.892700e+003, 1.781169e-001
2.894628e+003, 1.798131e-001
2.896557e+003, 1.813817e-001
2.898485e+003, 1.832077e-001
2.900414e+003, 1.851078e-001
2.902342e+003, 1.871900e-001
2.904271e+003, 1.890504e-001
2.906199e+003, 1.905939e-001
2.908128e+003, 1.924488e-001
2.910056e+003, 1.944624e-001
2.911985e+003, 1.962061e-001
2.913913e+003, 1.978015e-001
2.915842e+003, 1.992856e-001
2.917770e+003, 2.006228e-001
2.919698e+003, 2.022269e-001
2.921627e+003, 2.044462e-001
2.923555e+003, 2.069134e-001
2.925484e+003, 2.089380e-001
2.927412e+003, 2.110499e-001
2.929341e+003, 2.138503e-001
2.931269e+003, 2.158844e-001
2.933198e+003, 2.176248e-001
2.935126e+003, 2.197749e-001
2.937055e+003, 2.217116e-001
2.938983e+003, 2.232504e-001
2.940912e+003, 2.244466e-001
2.942840e+003, 2.260139e-001
2.944769e+003, 2.274949e-001
2.946697e+003, 2.289725e-001
2.948625e+003, 2.307442e-001
2.950554e+003, 2.317877e-001
2.952482e+003, 2.324061e-001
2.954411e+003, 2.336998e-001
2.956339e+003, 2.347306e-001
2.958268e+003, 2.350055e-001
2.960196e+003, 2.356644e-001
2.962125e+003, 2.363385e-001
2.964053e+003, 2.367721e-001
2.965982e+003, 2.371072e-001
2.967910e+003, 2.369920e-001
2.969839e+003, 2.372658e-001
2.971767e+003, 2.375660e-001
2.973696e+003, 2.373421e-001
2.975624e+003, 2.372943e-001
2.977552e+003, 2.368361e-001
2.979481e+003, 2.363757e-001
2.981409e+003, 2.363043e-001
2.983338e+003, 2.359833e-001
2.985266e+003, 2.352234e-001
2.987195e+003, 2.343442e-001
2.989123e+003, 2.334454e-001
2.991052e+003, 2.327942e-001
2.992980e+003, 2.321813e-001
2.994909e+003, 2.318774e-001
2.996837e+003, 2.312960e-001
2.998766e+003, 2.301851e-001
3.000694e+003, 2.295222e-001
3.002623e+003, 2.290935e-001
3.004551e+003, 2.284539e-001
3.006479e+003, 2.275768e-001
3.008408e+003, 2.266683e-001
3.010336e+003, 2.259162e-001
3.012265e+003, 2.247781e-001
3.014193e+003, 2.231832e-001
3.016122e+003, 2.215203e-001
3.018050e+003, 2.216649e-001
3.019979e+003, 2.230338e-001
3.021907e+003, 2.230177e-001
3.023836e+003, 2.218752e-001
3.025764e+003, 2.210644e-001
3.027693e+003, 2.207150e-001
3.029621e+003, 2.203103e-001
3.031550e+003, 2.196081e-001
3.033478e+003, 2.188850e-001
3.035406e+003, 2.180474e-001
3.037335e+003, 2.174728e-001
3.039263e+003, 2.168007e-001
3.041192e+003, 2.158599e-001
3.043120e+003, 2.147631e-001
3.045049e+003, 2.137294e-001
3.046977e+003, 2.129380e-001
3.048906e+003, 2.123664e-001
3.050834e+003, 2.110013e-001
3.052763e+003, 2.096678e-001
3.054691e+003, 2.092964e-001
3.056620e+003, 2.079348e-001
3.058548e+003, 2.067306e-001
3.060477e+003, 2.063813e-001
3.062405e+003, 2.056250e-001
3.064333e+003, 2.045905e-001
3.066262e+003, 2.031629e-001
3.068190e+003, 2.023344e-001
3.070119e+003, 2.020888e-001
3.072047e+003, 2.010659e-001
3.073976e+003, 1.997239e-001
3.075904e+003, 1.989386e-001
3.077833e+003, 1.980190e-001
3.079761e+003, 1.972363e-001
3.081690e+003, 1.966339e-001
3.083618e+003, 1.952638e-001
3.085547e+003, 1.935895e-001
3.087475e+003, 1.932679e-001
3.089404e+003, 1.929340e-001
3.091332e+003, 1.919830e-001
3.093260e+003, 1.906810e-001
3.095189e+003, 1.898140e-001
3.097117e+003, 1.896756e-001
3.099046e+003, 1.891158e-001
3.100974e+003, 1.877586e-001
3.102903e+003, 1.864043e-001
3.104831e+003, 1.855877e-001
3.106760e+003, 1.852443e-001
3.108688e+003, 1.847471e-001
3.110617e+003, 1.837540e-001
3.112545e+003, 1.822939e-001
3.114474e+003, 1.817046e-001
3.116402e+003, 1.814503e-001
3.118331e+003, 1.809964e-001
3.120259e+003, 1.800410e-001
3.122188e+003, 1.789686e-001
3.124116e+003, 1.782991e-001
3.126044e+003, 1.775357e-001
3.127973e+003, 1.764602e-001
3.129901e+003, 1.751139e-001
3.131830e+003, 1.741811e-001
3.133758e+003, 1.734285e-001
3.135687e+003, 1.725934e-001
3.137615e+003, 1.720573e-001
3.139544e+003, 1.711808e-001
3.141472e+003, 1.696898e-001
3.143401e+003, 1.685085e-001
3.145329e+003, 1.677599e-001
3.147258e+003, 1.672480e-001
3.149186e+003, 1.664591e-001
3.151115e+003, 1.651204e-001
3.153043e+003, 1.646167e-001
3.154971e+003, 1.639288e-001
3.156900e+003, 1.632262e-001
3.158828e+003, 1.622513e-001
3.160757e+003, 1.608525e-001
3.162685e+003, 1.595433e-001
3.164614e+003, 1.588694e-001
3.166542e+003, 1.582038e-001
3.168471e+003, 1.569013e-001
3.170399e+003, 1.559228e-001
3.172328e+003, 1.548575e-001
3.174256e+003, 1.545797e-001
3.176185e+003, 1.544512e-001
3.178113e+003, 1.532238e-001
3.180042e+003, 1.518873e-001
3.181970e+003, 1.507512e-001
3.183898e+003, 1.498567e-001
3.185827e+003, 1.490878e-001
3.187755e+003, 1.481791e-001
3.189684e+003, 1.471183e-001
3.191612e+003, 1.461751e-001
3.193541e+003, 1.452015e-001
3.195469e+003, 1.442336e-001
3.197398e+003, 1.433025e-001
3.199326e+003, 1.422768e-001
3.201255e+003, 1.411987e-001
3.203183e+003, 1.402682e-001
3.205112e+003, 1.394349e-001
3.207040e+003, 1.383062e-001
3.208969e+003, 1.373029e-001
3.210897e+003, 1.362232e-001
3.212825e+003, 1.355938e-001
3.214754e+003, 1.354101e-001
3.216682e+003, 1.340806e-001
3.218611e+003, 1.326360e-001
3.220539e+003, 1.320663e-001
3.222468e+003, 1.313050e-001
3.224396e+003, 1.302664e-001
3.226325e+003, 1.291152e-001
3.228253e+003, 1.278595e-001
3.230182e+003, 1.261886e-001
3.232110e+003, 1.251646e-001
3.234039e+003, 1.247691e-001
3.235967e+003, 1.238224e-001
3.237896e+003, 1.226135e-001
3.239824e+003, 1.214816e-001
3.241752e+003, 1.207331e-001
3.243681e+003, 1.195972e-001
3.245609e+003, 1.187020e-001
3.247538e+003, 1.175394e-001
3.249466e+003, 1.162742e-001
3.251395e+003, 1.154716e-001
3.253323e+003, 1.143664e-001
3.255252e+003, 1.130626e-001
3.257180e+003, 1.120937e-001
3.259109e+003, 1.108281e-001
3.261037e+003, 1.098324e-001
3.262966e+003, 1.088678e-001
3.264894e+003, 1.081708e-001
3.266823e+003, 1.080941e-001
3.268751e+003, 1.071190e-001
3.270679e+003, 1.056335e-001
3.272608e+003, 1.046530e-001
3.274536e+003, 1.036968e-001
3.276465e+003, 1.025551e-001
3.278393e+003, 1.011851e-001
3.280322e+003, 1.001164e-001
3.282250e+003, 9.985769e-002
3.284179e+003, 9.923386e-002
3.286107e+003, 9.841870e-002
3.288036e+003, 9.790391e-002
3.289964e+003, 9.699595e-002
3.291893e+003, 9.574852e-002
3.293821e+003, 9.465457e-002
3.295750e+003, 9.378671e-002
3.297678e+003, 9.298948e-002
3.299606e+003, 9.286889e-002
3.301535e+003, 9.226864e-002
3.303463e+003, 9.138630e-002
3.305392e+003, 9.039582e-002
3.307320e+003, 8.926189e-002
3.309249e+003, 8.878829e-002
3.311177e+003, 8.857618e-002
3.313106e+003, 8.764202e-002
3.315034e+003, 8.669458e-002
3.316963e+003, 8.574746e-002
3.318891e+003, 8.521375e-002
3.320820e+003, 8.485837e-002
3.322748e+003, 8.386704e-002
3.324677e+003, 8.318269e-002
3.326605e+003, 8.303958e-002
3.328533e+003, 8.191972e-002
3.330462e+003, 8.115306e-002
3.332390e+003, 8.101262e-002
3.334319e+003, 8.068567e-002
3.336247e+003, 7.984375e-002
3.338176e+003, 7.910344e-002
3.340104e+003, 7.899452e-002
3.342033e+003, 7.866237e-002
3.343961e+003, 7.785553e-002
3.345890e+003, 7.661903e-002
3.347818e+003, 7.566808e-002
3.349747e+003, 7.530648e-002
3.351675e+003, 7.476436e-002
3.353604e+003, 7.495816e-002
3.355532e+003, 7.515533e-002
3.357460e+003, 7.443196e-002
3.359389e+003, 7.391337e-002
3.361317e+003, 7.353478e-002
3.363246e+003, 7.220292e-002
3.365174e+003, 7.153559e-002
3.367103e+003, 7.173500e-002
3.369031e+003, 7.221019e-002
3.370960e+003, 7.194188e-002
3.372888e+003, 7.122562e-002
3.374817e+003, 7.012221e-002
3.376745e+003, 6.946740e-002
3.378674e+003, 6.933429e-002
3.380602e+003, 6.895223e-002
3.382531e+003, 6.914874e-002
3.384459e+003, 6.924799e-002
3.386387e+003, 6.861260e-002
3.388316e+003, 6.837350e-002
3.390244e+003, 6.824921e-002
3.392173e+003, 6.840306e-002
3.394101e+003, 6.824099e-002
3.396030e+003, 6.792070e-002
3.397958e+003, 6.739359e-002
3.399887e+003, 6.675929e-002
3.401815e+003, 6.642513e-002
3.403744e+003, 6.636158e-002
3.405672e+003, 6.664988e-002
3.407601e+003, 6.695529e-002
3.409529e+003, 6.660330e-002
3.411458e+003, 6.622471e-002
3.413386e+003, 6.657559e-002
3.415314e+003, 6.687422e-002
3.417243e+003, 6.662323e-002
3.419171e+003, 6.681820e-002
3.421100e+003, 6.704561e-002
3.423028e+003, 6.703369e-002
3.424957e+003, 6.716940e-002
3.426885e+003, 6.737889e-002
3.428814e+003, 6.753425e-002
3.430742e+003, 6.772187e-002
3.432671e+003, 6.834698e-002
3.434599e+003, 6.863035e-002
3.436528e+003, 6.896973e-002
3.438456e+003, 6.920688e-002
3.440385e+003, 6.875455e-002
3.442313e+003, 6.904690e-002
3.444241e+003, 6.955524e-002
3.446170e+003, 6.992713e-002
3.448098e+003, 7.081958e-002
3.450027e+003, 7.150184e-002
3.451955e+003, 7.144823e-002
3.453884e+003, 7.174022e-002
3.455812e+003, 7.209430e-002
3.457741e+003, 7.194449e-002
3.459669e+003, 7.210018e-002
3.461598e+003, 7.268487e-002
3.463526e+003, 7.316674e-002
3.465455e+003, 7.394867e-002
3.467383e+003, 7.415660e-002
3.469312e+003, 7.460497e-002
3.471240e+003, 7.662286e-002
3.473168e+003, 7.832029e-002
3.475097e+003, 7.973535e-002
3.477025e+003, 8.138870e-002
3.478954e+003, 8.262458e-002
3.480882e+003, 8.471807e-002
3.482811e+003, 8.752173e-002
3.484739e+003, 9.024094e-002
3.486668e+003, 9.321611e-002
3.488596e+003, 9.691042e-002
3.490525e+003, 1.013354e-001
3.492453e+003, 1.059550e-001
3.494382e+003, 1.104552e-001
3.496310e+003, 1.159613e-001
3.498239e+003, 1.225275e-001
3.500167e+003, 1.303671e-001
3.502095e+003, 1.393447e-001
3.504024e+003, 1.486912e-001
3.505952e+003, 1.580799e-001
3.507881e+003, 1.671134e-001
3.509809e+003, 1.754732e-001
3.511738e+003, 1.816278e-001
3.513666e+003, 1.856025e-001
3.515595e+003, 1.864300e-001
3.517523e+003, 1.822367e-001
3.519452e+003, 1.739390e-001
3.521380e+003, 1.631782e-001
3.523309e+003, 1.508041e-001
3.525237e+003, 1.391468e-001
3.527166e+003, 1.282448e-001
3.529094e+003, 1.181376e-001
3.531022e+003, 1.098685e-001
3.532951e+003, 1.025969e-001
3.534879e+003, 9.561480e-002
3.536808e+003, 8.852382e-002
3.538736e+003, 8.270945e-002
3.540665e+003, 7.732890e-002
3.542593e+003, 7.217224e-002
3.544522e+003, 6.764792e-002
3.546450e+003, 6.347617e-002
3.548379e+003, 6.015170e-002
3.550307e+003, 5.719000e-002
3.552236e+003, 5.510107e-002
3.554164e+003, 5.299471e-002
3.556093e+003, 5.009119e-002
3.558021e+003, 4.787951e-002
3.559949e+003, 4.550913e-002
3.561878e+003, 4.355362e-002
3.563806e+003, 4.202420e-002
3.565735e+003, 4.139966e-002
3.567663e+003, 4.061497e-002
3.569592e+003, 3.881639e-002
3.571520e+003, 3.723602e-002
3.573449e+003, 3.599509e-002
3.575377e+003, 3.515621e-002
3.577306e+003, 3.445999e-002
3.579234e+003, 3.354834e-002
3.581163e+003, 3.255615e-002
3.583091e+003, 3.200774e-002
3.585020e+003, 3.127531e-002
3.586948e+003, 3.077843e-002
3.588876e+003, 3.030312e-002
3.590805e+003, 2.926506e-002
3.592733e+003, 2.922304e-002
3.594662e+003, 2.909019e-002
3.596590e+003, 2.861234e-002
3.598519e+003, 2.774386e-002
3.600447e+003, 2.701403e-002
3.602376e+003, 2.715371e-002
3.604304e+003, 2.679086e-002
3.606233e+003, 2.679742e-002
3.608161e+003, 2.699163e-002
3.610090e+003, 2.576660e-002
3.612018e+003, 2.468212e-002
3.613947e+003, 2.515640e-002
3.615875e+003, 2.624092e-002
3.617803e+003, 2.651518e-002
3.619732e+003, 2.638539e-002
3.621660e+003, 2.545350e-002
3.623589e+003, 2.476924e-002
3.625517e+003, 2.484112e-002
3.627446e+003, 2.554192e-002
3.629374e+003, 2.534688e-002
3.631303e+003, 2.358538e-002
3.633231e+003, 2.324503e-002
3.635160e+003, 2.394570e-002
3.637088e+003, 2.462538e-002
3.639017e+003, 2.441004e-002
3.640945e+003, 2.401738e-002
3.642874e+003, 2.439325e-002
3.644802e+003, 2.432228e-002
3.646730e+003, 2.498278e-002
3.648659e+003, 2.590043e-002
3.650587e+003, 2.573782e-002
3.652516e+003, 2.463813e-002
3.654444e+003, 2.431187e-002
3.656373e+003, 2.472986e-002
3.658301e+003, 2.460378e-002
3.660230e+003, 2.379295e-002
3.662158e+003, 2.318815e-002
3.664087e+003, 2.352832e-002
3.666015e+003, 2.400159e-002
3.667944e+003, 2.418437e-002
3.669872e+003, 2.515083e-002
3.671801e+003, 2.506468e-002
3.673729e+003, 2.582909e-002
3.675657e+003, 2.694329e-002
3.677586e+003, 2.551184e-002
3.679514e+003, 2.384629e-002
3.681443e+003, 2.273457e-002
3.683371e+003, 2.312347e-002
3.685300e+003, 2.360952e-002
3.687228e+003, 2.443792e-002
3.689157e+003, 2.467549e-002
3.691085e+003, 2.460667e-002
3.693014e+003, 2.433538e-002
3.694942e+003, 2.403488e-002
3.696871e+003, 2.387746e-002
3.698799e+003, 2.401145e-002
3.700728e+003, 2.477057e-002
3.702656e+003, 2.469315e-002
3.704584e+003, 2.431130e-002
3.706513e+003, 2.443169e-002
3.708441e+003, 2.432813e-002
3.710370e+003, 2.475359e-002
3.712298e+003, 2.541423e-002
3.714227e+003, 2.511140e-002
3.716155e+003, 2.489397e-002
3.718084e+003, 2.424469e-002
3.720012e+003, 2.403843e-002
3.721941e+003, 2.470393e-002
3.723869e+003, 2.486808e-002
3.725798e+003, 2.449476e-002
3.727726e+003, 2.471310e-002
3.729655e+003, 2.531525e-002
3.731583e+003, 2.520940e-002
3.733511e+003, 2.500219e-002
3.735440e+003, 2.581635e-002
3.737368e+003, 2.593688e-002
3.739297e+003, 2.520628e-002
3.741225e+003, 2.565596e-002
3.743154e+003, 2.825259e-002
3.745082e+003, 2.825540e-002
3.747011e+003, 2.666889e-002
3.748939e+003, 2.783094e-002
3.750868e+003, 2.763869e-002
3.752796e+003, 2.729730e-002
3.754725e+003, 2.593952e-002
3.756653e+003, 2.569309e-002
3.758582e+003, 2.592314e-002
3.760510e+003, 2.629943e-002
3.762438e+003, 2.603917e-002
3.764367e+003, 2.665194e-002
3.766295e+003, 2.750183e-002
3.768224e+003, 2.739339e-002
3.770152e+003, 2.694230e-002
3.772081e+003, 2.542143e-002
3.774009e+003, 2.520660e-002
3.775938e+003, 2.589718e-002
3.777866e+003, 2.615357e-002
3.779795e+003, 2.607581e-002
3.781723e+003, 2.550601e-002
3.783652e+003, 2.557504e-002
3.785580e+003, 2.599058e-002
3.787509e+003, 2.605622e-002
3.789437e+003, 2.602969e-002
3.791365e+003, 2.611428e-002
3.793294e+003, 2.592620e-002
3.795222e+003, 2.673339e-002
3.797151e+003, 2.779611e-002
3.799079e+003, 2.856353e-002
3.801008e+003, 2.854138e-002
3.802936e+003, 2.736220e-002
3.804865e+003, 2.735647e-002
3.806793e+003, 2.802705e-002
3.808722e+003, 2.736418e-002
3.810650e+003, 2.698489e-002
3.812579e+003, 2.691894e-002
3.814507e+003, 2.755057e-002
3.816436e+003, 2.838990e-002
3.818364e+003, 2.783135e-002
3.820292e+003, 2.811215e-002
3.822221e+003, 2.758736e-002
3.824149e+003, 2.697784e-002
3.826078e+003, 2.766753e-002
3.828006e+003, 2.739171e-002
3.829935e+003, 2.751930e-002
3.831863e+003, 2.726301e-002
3.833792e+003, 2.707775e-002
3.835720e+003, 2.843962e-002
3.837649e+003, 2.946947e-002
3.839577e+003, 2.843327e-002
3.841506e+003, 2.793725e-002
3.843434e+003, 2.846831e-002
3.845363e+003, 2.789585e-002
3.847291e+003, 2.782248e-002
3.849219e+003, 2.858110e-002
3.851148e+003, 3.000348e-002
3.853076e+003, 3.192443e-002
3.855005e+003, 3.015057e-002
3.856933e+003, 2.749983e-002
3.858862e+003, 2.827438e-002
3.860790e+003, 2.875277e-002
3.862719e+003, 2.918552e-002
3.864647e+003, 2.988717e-002
3.866576e+003, 2.940344e-002
3.868504e+003, 2.934871e-002
3.870433e+003, 2.931101e-002
3.872361e+003, 2.883085e-002
3.874290e+003, 2.886636e-002
3.876218e+003, 2.850161e-002
3.878146e+003, 2.829990e-002
3.880075e+003, 2.801708e-002
3.882003e+003, 2.819816e-002
3.883932e+003, 2.924733e-002
3.885860e+003, 2.947632e-002
3.887789e+003, 2.887600e-002
3.889717e+003, 2.975347e-002
3.891646e+003, 3.014610e-002
3.893574e+003, 2.972560e-002
3.895503e+003, 2.975385e-002
3.897431e+003, 2.956304e-002
3.899360e+003, 3.004974e-002
3.901288e+003, 3.075290e-002
3.903217e+003, 3.064668e-002
3.905145e+003, 2.945342e-002
3.907073e+003, 2.848399e-002
3.909002e+003, 2.860685e-002
3.910930e+003, 2.817572e-002
3.912859e+003, 2.875349e-002
3.914787e+003, 3.006512e-002
3.916716e+003, 2.989118e-002
3.918644e+003, 2.909447e-002
3.920573e+003, 2.844106e-002
3.922501e+003, 2.933571e-002
3.924430e+003, 2.939724e-002
3.926358e+003, 2.859972e-002
3.928287e+003, 2.922896e-002
3.930215e+003, 3.070366e-002
3.932144e+003, 3.092833e-002
3.934072e+003, 3.015869e-002
3.936000e+003, 2.964685e-002
3.937929e+003, 2.929141e-002
3.939857e+003, 2.916300e-002
3.941786e+003, 2.986041e-002
3.943714e+003, 3.019537e-002
3.945643e+003, 3.015652e-002
3.947571e+003, 3.020600e-002
3.949500e+003, 2.974054e-002
3.951428e+003, 2.883931e-002
3.953357e+003, 2.823220e-002
3.955285e+003, 2.867129e-002
3.957214e+003, 2.936216e-002
3.959142e+003, 2.934792e-002
3.961071e+003, 2.946288e-002
3.962999e+003, 2.924962e-002
3.964927e+003, 2.875294e-002
3.966856e+003, 2.907970e-002
3.968784e+003, 2.999575e-002
3.970713e+003, 3.030916e-002
3.972641e+003, 3.020318e-002
3.974570e+003, 3.005650e-002
3.976498e+003, 2.982333e-002
3.978427e+003, 2.958903e-002
3.980355e+003, 2.969594e-002
3.982284e+003, 2.895032e-002
3.984212e+003, 2.898756e-002
3.986141e+003, 3.027988e-002
3.988069e+003, 3.115186e-002
3.989998e+003, 3.076370e-002
3.991926e+003, 3.048576e-002
3.993854e+003, 3.025740e-002
3.995783e+003, 3.042790e-002
3.997711e+003, 3.015265e-002
3.999640e+003, 2.971835e-002
##END=



