##NAMES=Shattuckite
##RRUFFID=R050133
##IDEAL CHEMISTRY=Cu^2+^_5_(SiO_3_)_4_(OH)_2_
##LOCALITY=Ajo, Pima County, Arizona, USA
##OWNER=RRUFF
##SOURCE=University of Arizona Mineral Museum
##DESCRIPTION=Aggregate of blue flattened grains
##STATUS=The identification of this mineral has been confirmed by X-ray diffraction and chemical analysis
##URL=rruff.info/R050133
##MEASURED CHEMISTRY=Cu_5.00_(Si_0.99_Al_0.01_O_3_)_4_((OH)_0.97_(H_2_O)_0.03_)_2_
3.991926e+002, 2.590239e-001
4.011211e+002, 2.640033e-001
4.030495e+002, 2.670046e-001
4.049780e+002, 2.641723e-001
4.069065e+002, 2.641008e-001
4.088349e+002, 2.642158e-001
4.107634e+002, 2.584430e-001
4.126919e+002, 2.433141e-001
4.146203e+002, 2.228307e-001
4.165488e+002, 2.086074e-001
4.184773e+002, 2.037290e-001
4.204057e+002, 1.991854e-001
4.223342e+002, 1.992353e-001
4.242627e+002, 2.053488e-001
4.261911e+002, 2.177713e-001
4.281196e+002, 2.269127e-001
4.300481e+002, 2.359772e-001
4.319765e+002, 2.445827e-001
4.339050e+002, 2.502618e-001
4.358335e+002, 2.437552e-001
4.377619e+002, 2.307758e-001
4.396904e+002, 2.158737e-001
4.416189e+002, 2.027729e-001
4.435473e+002, 1.944154e-001
4.454758e+002, 1.930150e-001
4.474043e+002, 1.964877e-001
4.493327e+002, 2.026458e-001
4.512612e+002, 2.070187e-001
4.531897e+002, 2.100447e-001
4.551181e+002, 2.095343e-001
4.570466e+002, 2.060864e-001
4.589751e+002, 2.065256e-001
4.609035e+002, 2.095364e-001
4.628320e+002, 2.138785e-001
4.647605e+002, 2.220173e-001
4.666889e+002, 2.319686e-001
4.686174e+002, 2.401816e-001
4.705459e+002, 2.446593e-001
4.724743e+002, 2.454240e-001
4.744028e+002, 2.423014e-001
4.763313e+002, 2.365969e-001
4.782597e+002, 2.295388e-001
4.801882e+002, 2.230164e-001
4.821167e+002, 2.185567e-001
4.840451e+002, 2.153637e-001
4.859736e+002, 2.106301e-001
4.879021e+002, 2.047386e-001
4.898305e+002, 1.993273e-001
4.917590e+002, 1.949383e-001
4.936875e+002, 1.923596e-001
4.956159e+002, 1.935995e-001
4.975444e+002, 1.977414e-001
4.994729e+002, 2.040962e-001
5.014013e+002, 2.114398e-001
5.033298e+002, 2.196161e-001
5.052583e+002, 2.267681e-001
5.071867e+002, 2.341204e-001
5.091152e+002, 2.422078e-001
5.110437e+002, 2.489142e-001
5.129721e+002, 2.541451e-001
5.149006e+002, 2.598702e-001
5.168290e+002, 2.659898e-001
5.187575e+002, 2.708865e-001
5.206860e+002, 2.740222e-001
5.226144e+002, 2.763536e-001
5.245429e+002, 2.769803e-001
5.264714e+002, 2.757541e-001
5.283998e+002, 2.742327e-001
5.303283e+002, 2.720446e-001
5.322568e+002, 2.686192e-001
5.341852e+002, 2.647609e-001
5.361137e+002, 2.596288e-001
5.380422e+002, 2.546392e-001
5.399706e+002, 2.485326e-001
5.418991e+002, 2.407471e-001
5.438276e+002, 2.331672e-001
5.457560e+002, 2.254078e-001
5.476845e+002, 2.169798e-001
5.496130e+002, 2.087503e-001
5.515414e+002, 1.998548e-001
5.534699e+002, 1.909498e-001
5.553984e+002, 1.818915e-001
5.573268e+002, 1.728151e-001
5.592553e+002, 1.639847e-001
5.611838e+002, 1.543875e-001
5.631122e+002, 1.441403e-001
5.650407e+002, 1.349899e-001
5.669692e+002, 1.270449e-001
5.688976e+002, 1.209678e-001
5.708261e+002, 1.158699e-001
5.727546e+002, 1.111042e-001
5.746830e+002, 1.070155e-001
5.766115e+002, 1.034405e-001
5.785400e+002, 1.003622e-001
5.804684e+002, 9.683546e-002
5.823969e+002, 9.282431e-002
5.843254e+002, 8.833659e-002
5.862538e+002, 8.389855e-002
5.881823e+002, 7.990578e-002
5.901108e+002, 7.570374e-002
5.920392e+002, 7.192021e-002
5.939677e+002, 6.789978e-002
5.958962e+002, 6.405827e-002
5.978246e+002, 6.140606e-002
5.997531e+002, 5.919899e-002
6.016816e+002, 5.695003e-002
6.036100e+002, 5.524017e-002
6.055385e+002, 5.436038e-002
6.074670e+002, 5.372143e-002
6.093954e+002, 5.312046e-002
6.113239e+002, 5.306251e-002
6.132524e+002, 5.352116e-002
6.151808e+002, 5.458148e-002
6.171093e+002, 5.622073e-002
6.190378e+002, 5.838926e-002
6.209662e+002, 6.065061e-002
6.228947e+002, 6.274019e-002
6.248232e+002, 6.407154e-002
6.267516e+002, 6.400536e-002
6.286801e+002, 6.284338e-002
6.306086e+002, 6.135769e-002
6.325370e+002, 6.039777e-002
6.344655e+002, 6.015172e-002
6.363940e+002, 6.070930e-002
6.383224e+002, 6.251078e-002
6.402509e+002, 6.526574e-002
6.421794e+002, 6.834994e-002
6.441078e+002, 7.201034e-002
6.460363e+002, 7.629370e-002
6.479648e+002, 8.110958e-002
6.498932e+002, 8.540317e-002
6.518217e+002, 8.903133e-002
6.537502e+002, 9.139456e-002
6.556786e+002, 9.156916e-002
6.576071e+002, 8.941935e-002
6.595356e+002, 8.515608e-002
6.614641e+002, 7.920977e-002
6.633925e+002, 7.183776e-002
6.653210e+002, 6.418020e-002
6.672495e+002, 5.758672e-002
6.691779e+002, 5.172299e-002
6.711064e+002, 4.728171e-002
6.730349e+002, 4.406767e-002
6.749633e+002, 4.190265e-002
6.768918e+002, 4.029692e-002
6.788203e+002, 3.910794e-002
6.807487e+002, 3.837894e-002
6.826772e+002, 3.806986e-002
6.846057e+002, 3.820882e-002
6.865341e+002, 3.800905e-002
6.884626e+002, 3.782864e-002
6.903911e+002, 3.819269e-002
6.923195e+002, 3.875119e-002
6.942480e+002, 3.890670e-002
6.961765e+002, 3.909222e-002
6.981049e+002, 3.912358e-002
7.000334e+002, 3.928103e-002
7.019619e+002, 3.959145e-002
7.038903e+002, 3.986775e-002
7.058188e+002, 4.014261e-002
7.077473e+002, 4.070032e-002
7.096757e+002, 4.127633e-002
7.116042e+002, 4.198523e-002
7.135327e+002, 4.291918e-002
7.154611e+002, 4.381773e-002
7.173896e+002, 4.481867e-002
7.193181e+002, 4.584780e-002
7.212465e+002, 4.699566e-002
7.231750e+002, 4.806259e-002
7.251035e+002, 4.886601e-002
7.270319e+002, 4.960889e-002
7.289604e+002, 5.047333e-002
7.308889e+002, 5.143757e-002
7.328173e+002, 5.256019e-002
7.347458e+002, 5.374490e-002
7.366743e+002, 5.504425e-002
7.386027e+002, 5.655408e-002
7.405312e+002, 5.827393e-002
7.424597e+002, 6.004637e-002
7.443881e+002, 6.197896e-002
7.463166e+002, 6.412717e-002
7.482451e+002, 6.634729e-002
7.501735e+002, 6.857570e-002
7.521020e+002, 7.042339e-002
7.540305e+002, 7.136111e-002
7.559589e+002, 7.118567e-002
7.578874e+002, 7.038624e-002
7.598159e+002, 6.950343e-002
7.617443e+002, 6.899854e-002
7.636728e+002, 6.912575e-002
7.656013e+002, 6.957589e-002
7.675297e+002, 7.017514e-002
7.694582e+002, 6.984854e-002
7.713867e+002, 6.769925e-002
7.733151e+002, 6.515347e-002
7.752436e+002, 6.349759e-002
7.771721e+002, 6.300934e-002
7.791005e+002, 6.321386e-002
7.810290e+002, 6.370298e-002
7.829575e+002, 6.472424e-002
7.848859e+002, 6.610941e-002
7.868144e+002, 6.757347e-002
7.887429e+002, 6.919193e-002
7.906713e+002, 7.104732e-002
7.925998e+002, 7.287231e-002
7.945283e+002, 7.504890e-002
7.964567e+002, 7.750002e-002
7.983852e+002, 7.974198e-002
8.003137e+002, 8.176958e-002
8.022421e+002, 8.361627e-002
8.041706e+002, 8.536696e-002
8.060991e+002, 8.702384e-002
8.080275e+002, 8.871962e-002
8.099560e+002, 9.086300e-002
8.118845e+002, 9.351277e-002
8.138129e+002, 9.615418e-002
8.157414e+002, 9.923520e-002
8.176699e+002, 1.028038e-001
8.195983e+002, 1.062784e-001
8.215268e+002, 1.099705e-001
8.234553e+002, 1.141765e-001
8.253837e+002, 1.181299e-001
8.273122e+002, 1.211731e-001
8.292407e+002, 1.236513e-001
8.311691e+002, 1.254452e-001
8.330976e+002, 1.267818e-001
8.350261e+002, 1.284424e-001
8.369545e+002, 1.307902e-001
8.388830e+002, 1.338789e-001
8.408115e+002, 1.379968e-001
8.427399e+002, 1.436612e-001
8.446684e+002, 1.505077e-001
8.465969e+002, 1.585285e-001
8.485253e+002, 1.677544e-001
8.504538e+002, 1.776693e-001
8.523823e+002, 1.879339e-001
8.543107e+002, 1.980795e-001
8.562392e+002, 2.077926e-001
8.581677e+002, 2.159924e-001
8.600961e+002, 2.219251e-001
8.620246e+002, 2.253268e-001
8.639531e+002, 2.253238e-001
8.658815e+002, 2.212905e-001
8.678100e+002, 2.139044e-001
8.697385e+002, 2.038046e-001
8.716669e+002, 1.915567e-001
8.735954e+002, 1.785374e-001
8.755239e+002, 1.661856e-001
8.774523e+002, 1.560607e-001
8.793808e+002, 1.490085e-001
8.813093e+002, 1.455542e-001
8.832377e+002, 1.453347e-001
8.851662e+002, 1.477260e-001
8.870947e+002, 1.523383e-001
8.890231e+002, 1.590350e-001
8.909516e+002, 1.673703e-001
8.928801e+002, 1.769743e-001
8.948085e+002, 1.876666e-001
8.967370e+002, 1.988754e-001
8.986655e+002, 2.098343e-001
9.005939e+002, 2.198955e-001
9.025224e+002, 2.281309e-001
9.044509e+002, 2.337188e-001
9.063793e+002, 2.365797e-001
9.083078e+002, 2.374070e-001
9.102363e+002, 2.376247e-001
9.121647e+002, 2.385880e-001
9.140932e+002, 2.404154e-001
9.160217e+002, 2.430876e-001
9.179501e+002, 2.462771e-001
9.198786e+002, 2.486947e-001
9.218071e+002, 2.495011e-001
9.237355e+002, 2.481699e-001
9.256640e+002, 2.449856e-001
9.275925e+002, 2.419089e-001
9.295209e+002, 2.409053e-001
9.314494e+002, 2.429864e-001
9.333779e+002, 2.480902e-001
9.353063e+002, 2.555901e-001
9.372348e+002, 2.650721e-001
9.391633e+002, 2.755507e-001
9.410917e+002, 2.860005e-001
9.430202e+002, 2.968520e-001
9.449487e+002, 3.080055e-001
9.468771e+002, 3.182619e-001
9.488056e+002, 3.272714e-001
9.507341e+002, 3.346348e-001
9.526625e+002, 3.398917e-001
9.545910e+002, 3.430374e-001
9.565195e+002, 3.442835e-001
9.584479e+002, 3.437022e-001
9.603764e+002, 3.417087e-001
9.623049e+002, 3.394427e-001
9.642333e+002, 3.373956e-001
9.661618e+002, 3.361067e-001
9.680903e+002, 3.368240e-001
9.700187e+002, 3.394288e-001
9.719472e+002, 3.438542e-001
9.738757e+002, 3.504035e-001
9.758041e+002, 3.580793e-001
9.777326e+002, 3.666169e-001
9.796611e+002, 3.763080e-001
9.815895e+002, 3.871031e-001
9.835180e+002, 3.982843e-001
9.854465e+002, 4.089807e-001
9.873749e+002, 4.174934e-001
9.893034e+002, 4.229630e-001
9.912319e+002, 4.249648e-001
9.931603e+002, 4.242841e-001
9.950888e+002, 4.214650e-001
9.970173e+002, 4.161921e-001
9.989457e+002, 4.088163e-001
1.000874e+003, 4.013343e-001
1.002803e+003, 3.943700e-001
1.004731e+003, 3.864512e-001
1.006660e+003, 3.782542e-001
1.008588e+003, 3.705215e-001
1.010517e+003, 3.630617e-001
1.012445e+003, 3.553164e-001
1.014373e+003, 3.470575e-001
1.016302e+003, 3.379248e-001
1.018230e+003, 3.282539e-001
1.020159e+003, 3.185612e-001
1.022087e+003, 3.087396e-001
1.024016e+003, 2.986791e-001
1.025944e+003, 2.889480e-001
1.027873e+003, 2.795133e-001
1.029801e+003, 2.704130e-001
1.031730e+003, 2.612875e-001
1.033658e+003, 2.519535e-001
1.035587e+003, 2.426667e-001
1.037515e+003, 2.335036e-001
1.039443e+003, 2.244617e-001
1.041372e+003, 2.156150e-001
1.043300e+003, 2.069051e-001
1.045229e+003, 1.988254e-001
1.047157e+003, 1.918332e-001
1.049086e+003, 1.861385e-001
1.051014e+003, 1.812027e-001
1.052943e+003, 1.768806e-001
1.054871e+003, 1.736074e-001
1.056800e+003, 1.713929e-001
1.058728e+003, 1.697879e-001
1.060657e+003, 1.688106e-001
1.062585e+003, 1.684234e-001
1.064514e+003, 1.682268e-001
1.066442e+003, 1.676791e-001
1.068370e+003, 1.658660e-001
1.070299e+003, 1.619319e-001
1.072227e+003, 1.557620e-001
1.074156e+003, 1.482837e-001
1.076084e+003, 1.405142e-001
1.078013e+003, 1.329482e-001
1.079941e+003, 1.257851e-001
1.081870e+003, 1.190127e-001
1.083798e+003, 1.129965e-001
1.085727e+003, 1.076858e-001
1.087655e+003, 1.029270e-001
1.089584e+003, 9.869181e-002
1.091512e+003, 9.499086e-002
1.093441e+003, 9.162655e-002
1.095369e+003, 8.802972e-002
1.097297e+003, 8.413211e-002
1.099226e+003, 7.994994e-002
1.101154e+003, 7.494225e-002
1.103083e+003, 6.982158e-002
1.105011e+003, 6.509902e-002
1.106940e+003, 6.055203e-002
1.108868e+003, 5.629703e-002
1.110797e+003, 5.256655e-002
1.112725e+003, 4.940659e-002
1.114654e+003, 4.634932e-002
1.116582e+003, 4.342710e-002
1.118511e+003, 4.084763e-002
1.120439e+003, 3.865187e-002
1.122368e+003, 3.680038e-002
1.124296e+003, 3.506705e-002
1.126224e+003, 3.332716e-002
1.128153e+003, 3.159398e-002
1.130081e+003, 3.016871e-002
1.132010e+003, 2.884597e-002
1.133938e+003, 2.746876e-002
1.135867e+003, 2.613692e-002
1.137795e+003, 2.478400e-002
1.139724e+003, 2.376360e-002
1.141652e+003, 2.287049e-002
1.143581e+003, 2.197257e-002
1.145509e+003, 2.118474e-002
1.147438e+003, 2.050469e-002
1.149366e+003, 1.992476e-002
1.151295e+003, 1.946649e-002
1.153223e+003, 1.879858e-002
1.155151e+003, 1.803243e-002
1.157080e+003, 1.752895e-002
1.159008e+003, 1.693664e-002
1.160937e+003, 1.641655e-002
1.162865e+003, 1.587228e-002
1.164794e+003, 1.540510e-002
1.166722e+003, 1.511345e-002
1.168651e+003, 1.460137e-002
1.170579e+003, 1.407440e-002
1.172508e+003, 1.372757e-002
1.174436e+003, 1.334820e-002
1.176365e+003, 1.293668e-002
1.178293e+003, 1.252035e-002
1.180222e+003, 1.212367e-002
1.182150e+003, 1.185180e-002
1.184078e+003, 1.168677e-002
1.186007e+003, 1.142207e-002
1.187935e+003, 1.118667e-002
1.189864e+003, 1.104140e-002
1.191792e+003, 1.075431e-002
1.193721e+003, 1.052181e-002
1.195649e+003, 1.039346e-002
1.197578e+003, 1.009141e-002
1.199506e+003, 9.845519e-003
1.201435e+003, 9.598633e-003
1.203363e+003, 9.341208e-003
1.205292e+003, 9.060833e-003
1.207220e+003, 8.735386e-003
1.209149e+003, 8.518954e-003
1.211077e+003, 8.305398e-003
1.213005e+003, 8.007560e-003
1.214934e+003, 7.688863e-003
1.216862e+003, 7.630300e-003
1.218791e+003, 7.599424e-003
1.220719e+003, 7.287826e-003
1.222648e+003, 7.077282e-003
1.224576e+003, 7.004743e-003
1.226505e+003, 6.979960e-003
1.228433e+003, 6.800829e-003
1.230362e+003, 6.655464e-003
1.232290e+003, 6.569135e-003
1.234219e+003, 6.487815e-003
1.236147e+003, 6.430224e-003
1.238076e+003, 6.400914e-003
1.240004e+003, 6.378798e-003
1.241932e+003, 6.338844e-003
1.243861e+003, 6.436147e-003
1.245789e+003, 6.444545e-003
1.247718e+003, 6.470220e-003
1.249646e+003, 6.496611e-003
1.251575e+003, 6.445043e-003
1.253503e+003, 6.392622e-003
1.255432e+003, 6.379911e-003
1.257360e+003, 6.474915e-003
1.259289e+003, 6.485192e-003
1.261217e+003, 6.348256e-003
1.263146e+003, 6.364577e-003
1.265074e+003, 6.396911e-003
1.267003e+003, 6.464992e-003
1.268931e+003, 6.566229e-003
1.270859e+003, 6.541662e-003
1.272788e+003, 6.576783e-003
1.274716e+003, 6.721283e-003
1.276645e+003, 6.824941e-003
1.278573e+003, 6.924818e-003
1.280502e+003, 7.016645e-003
1.282430e+003, 7.129477e-003
1.284359e+003, 7.213453e-003
1.286287e+003, 7.189247e-003
1.288216e+003, 7.193166e-003
1.290144e+003, 7.188149e-003
1.292073e+003, 7.207538e-003
1.294001e+003, 7.422766e-003
1.295930e+003, 7.433061e-003
1.297858e+003, 7.222182e-003
1.299786e+003, 7.139943e-003
1.301715e+003, 7.085743e-003
1.303643e+003, 7.128323e-003
1.305572e+003, 7.123335e-003
1.307500e+003, 7.024920e-003
1.309429e+003, 7.023791e-003
1.311357e+003, 7.057386e-003
1.313286e+003, 7.058360e-003
1.315214e+003, 6.895078e-003
1.317143e+003, 6.846072e-003
1.319071e+003, 6.801847e-003
1.321000e+003, 6.882553e-003
1.322928e+003, 7.063796e-003
1.324857e+003, 7.138732e-003
1.326785e+003, 7.249832e-003
1.328714e+003, 7.220635e-003
1.330642e+003, 7.283911e-003
1.332570e+003, 7.390091e-003
1.334499e+003, 7.372282e-003
1.336427e+003, 7.304757e-003
1.338356e+003, 7.329062e-003
1.340284e+003, 7.455462e-003
1.342213e+003, 7.554557e-003
1.344141e+003, 7.590746e-003
1.346070e+003, 7.599452e-003
1.347998e+003, 7.598063e-003
1.349927e+003, 7.695106e-003
1.351855e+003, 7.755639e-003
1.353784e+003, 7.730783e-003
1.355712e+003, 7.726121e-003
1.357641e+003, 7.780031e-003
1.359569e+003, 7.813253e-003
1.361497e+003, 7.692872e-003
1.363426e+003, 7.699270e-003
1.365354e+003, 7.578121e-003
1.367283e+003, 7.519576e-003
1.369211e+003, 7.634472e-003
1.371140e+003, 7.685842e-003
1.373068e+003, 7.669727e-003
1.374997e+003, 7.599689e-003
1.376925e+003, 7.608165e-003
1.378854e+003, 7.613993e-003
1.380782e+003, 7.552812e-003
1.382711e+003, 7.530319e-003
1.384639e+003, 7.509916e-003
1.386568e+003, 7.440638e-003
1.388496e+003, 7.288074e-003
1.390424e+003, 7.346958e-003
1.392353e+003, 7.560913e-003
1.394281e+003, 7.815933e-003
1.396210e+003, 7.952992e-003
1.398138e+003, 7.925291e-003
1.400067e+003, 7.780767e-003
1.401995e+003, 7.716059e-003
1.403924e+003, 7.737213e-003
1.405852e+003, 7.882486e-003
1.407781e+003, 8.004008e-003
1.409709e+003, 7.934379e-003
1.411638e+003, 8.012176e-003
1.413566e+003, 8.119735e-003
1.415495e+003, 8.086136e-003
1.417423e+003, 8.218877e-003
1.419351e+003, 8.243495e-003
1.421280e+003, 7.999843e-003
1.423208e+003, 7.917740e-003
1.425137e+003, 7.886899e-003
1.427065e+003, 7.914181e-003
1.428994e+003, 7.988895e-003
1.430922e+003, 8.132086e-003
1.432851e+003, 7.993855e-003
1.434779e+003, 7.909419e-003
1.436708e+003, 8.126132e-003
1.438636e+003, 7.983584e-003
1.440565e+003, 7.914279e-003
1.442493e+003, 7.829332e-003
1.444422e+003, 7.837564e-003
1.446350e+003, 7.998809e-003
1.448278e+003, 7.995476e-003
1.450207e+003, 7.794511e-003
1.452135e+003, 7.657294e-003
1.454064e+003, 7.688968e-003
1.455992e+003, 8.013577e-003
1.457921e+003, 8.144788e-003
1.459849e+003, 7.873658e-003
1.461778e+003, 7.647298e-003
1.463706e+003, 7.671323e-003
1.465635e+003, 7.548935e-003
1.467563e+003, 7.315057e-003
1.469492e+003, 7.186340e-003
1.471420e+003, 7.297443e-003
1.473349e+003, 7.328977e-003
1.475277e+003, 7.206576e-003
1.477205e+003, 6.968252e-003
1.479134e+003, 6.828887e-003
1.481062e+003, 6.944634e-003
1.482991e+003, 7.037526e-003
1.484919e+003, 7.073985e-003
1.486848e+003, 7.153855e-003
1.488776e+003, 7.169223e-003
1.490705e+003, 7.013471e-003
1.492633e+003, 6.874682e-003
1.494562e+003, 6.845635e-003
1.496490e+003, 7.073437e-003
1.498419e+003, 7.160353e-003
1.500347e+003, 7.097855e-003
1.502276e+003, 6.898389e-003
1.504204e+003, 7.148108e-003
1.506132e+003, 7.596206e-003
1.508061e+003, 7.428926e-003
1.509989e+003, 7.175055e-003
1.511918e+003, 7.102945e-003
1.513846e+003, 6.970055e-003
1.515775e+003, 7.170478e-003
1.517703e+003, 7.239295e-003
1.519632e+003, 7.327156e-003
1.521560e+003, 7.532081e-003
1.523489e+003, 7.521775e-003
1.525417e+003, 7.523330e-003
1.527346e+003, 7.444052e-003
1.529274e+003, 7.473497e-003
1.531203e+003, 7.417567e-003
1.533131e+003, 7.524935e-003
1.535059e+003, 7.635747e-003
1.536988e+003, 7.828603e-003
1.538916e+003, 8.303637e-003
1.540845e+003, 8.252284e-003
1.542773e+003, 8.082906e-003
1.544702e+003, 7.975294e-003
1.546630e+003, 7.996870e-003
1.548559e+003, 8.323858e-003
1.550487e+003, 8.360763e-003
1.552416e+003, 8.268221e-003
1.554344e+003, 8.318703e-003
1.556273e+003, 8.590211e-003
1.558201e+003, 9.097269e-003
1.560130e+003, 9.110942e-003
1.562058e+003, 8.623959e-003
1.563986e+003, 8.460346e-003
1.565915e+003, 8.642968e-003
1.567843e+003, 8.732654e-003
1.569772e+003, 8.709587e-003
1.571700e+003, 8.626793e-003
1.573629e+003, 8.720079e-003
1.575557e+003, 8.992342e-003
1.577486e+003, 8.979534e-003
1.579414e+003, 8.914710e-003
1.581343e+003, 8.997274e-003
1.583271e+003, 9.004542e-003
1.585200e+003, 8.955183e-003
1.587128e+003, 8.935302e-003
1.589057e+003, 8.978756e-003
1.590985e+003, 9.095634e-003
1.592913e+003, 9.322975e-003
1.594842e+003, 9.250357e-003
1.596770e+003, 9.189825e-003
1.598699e+003, 9.255425e-003
1.600627e+003, 9.299125e-003
1.602556e+003, 9.480463e-003
1.604484e+003, 9.387511e-003
1.606413e+003, 9.423413e-003
1.608341e+003, 9.601941e-003
1.610270e+003, 9.763217e-003
1.612198e+003, 9.777746e-003
1.614127e+003, 9.924247e-003
1.616055e+003, 1.022521e-002
1.617984e+003, 1.015606e-002
1.619912e+003, 1.002890e-002
1.621840e+003, 1.011053e-002
1.623769e+003, 1.021078e-002
1.625697e+003, 1.039602e-002
1.627626e+003, 1.042752e-002
1.629554e+003, 1.040505e-002
1.631483e+003, 1.051652e-002
1.633411e+003, 1.067335e-002
1.635340e+003, 1.086691e-002
1.637268e+003, 1.065465e-002
1.639197e+003, 1.031375e-002
1.641125e+003, 1.016587e-002
1.643054e+003, 1.027845e-002
1.644982e+003, 1.044820e-002
1.646911e+003, 1.058053e-002
1.648839e+003, 1.045107e-002
1.650767e+003, 1.039917e-002
1.652696e+003, 1.070031e-002
1.654624e+003, 1.046183e-002
1.656553e+003, 1.011225e-002
1.658481e+003, 1.002976e-002
1.660410e+003, 9.871823e-003
1.662338e+003, 9.833620e-003
1.664267e+003, 9.737177e-003
1.666195e+003, 9.576164e-003
1.668124e+003, 9.752112e-003
1.670052e+003, 9.581778e-003
1.671981e+003, 9.283125e-003
1.673909e+003, 9.433472e-003
1.675838e+003, 9.418661e-003
1.677766e+003, 9.222320e-003
1.679694e+003, 9.197270e-003
1.681623e+003, 9.304062e-003
1.683551e+003, 9.708482e-003
1.685480e+003, 9.502462e-003
1.687408e+003, 9.200606e-003
1.689337e+003, 9.198397e-003
1.691265e+003, 9.171476e-003
1.693194e+003, 9.412804e-003
1.695122e+003, 9.857338e-003
1.697051e+003, 9.978120e-003
1.698979e+003, 1.011229e-002
1.700908e+003, 1.022334e-002
1.702836e+003, 9.969050e-003
1.704765e+003, 1.005205e-002
1.706693e+003, 1.001284e-002
1.708621e+003, 1.003187e-002
1.710550e+003, 9.854702e-003
1.712478e+003, 9.741775e-003
1.714407e+003, 9.939273e-003
1.716335e+003, 1.035350e-002
1.718264e+003, 1.017579e-002
1.720192e+003, 9.661118e-003
1.722121e+003, 9.552449e-003
1.724049e+003, 9.497398e-003
1.725978e+003, 9.416434e-003
1.727906e+003, 9.209032e-003
1.729835e+003, 8.890132e-003
1.731763e+003, 8.666180e-003
1.733692e+003, 8.857710e-003
1.735620e+003, 8.619109e-003
1.737548e+003, 8.275086e-003
1.739477e+003, 8.373581e-003
1.741405e+003, 8.211159e-003
1.743334e+003, 8.222974e-003
1.745262e+003, 8.165816e-003
1.747191e+003, 8.266929e-003
1.749119e+003, 8.418468e-003
1.751048e+003, 8.722047e-003
1.752976e+003, 9.015047e-003
1.754905e+003, 9.201126e-003
1.756833e+003, 9.241971e-003
1.758762e+003, 9.145400e-003
1.760690e+003, 9.280995e-003
1.762619e+003, 9.563996e-003
1.764547e+003, 9.515003e-003
1.766475e+003, 9.249333e-003
1.768404e+003, 9.394991e-003
1.770332e+003, 9.776487e-003
1.772261e+003, 9.949791e-003
1.774189e+003, 9.974831e-003
1.776118e+003, 9.844783e-003
1.778046e+003, 9.740119e-003
1.779975e+003, 9.948141e-003
1.781903e+003, 1.024123e-002
1.783832e+003, 1.049520e-002
1.785760e+003, 1.066320e-002
1.787689e+003, 1.066802e-002
1.789617e+003, 1.080077e-002
1.791546e+003, 1.110919e-002
1.793474e+003, 1.122120e-002
1.795402e+003, 1.113410e-002
1.797331e+003, 1.103870e-002
1.799259e+003, 1.108233e-002
1.801188e+003, 1.108776e-002
1.803116e+003, 1.081917e-002
1.805045e+003, 1.097245e-002
1.806973e+003, 1.094791e-002
1.808902e+003, 1.082472e-002
1.810830e+003, 1.069902e-002
1.812759e+003, 1.057828e-002
1.814687e+003, 1.053082e-002
1.816616e+003, 1.026937e-002
1.818544e+003, 1.013791e-002
1.820473e+003, 1.027684e-002
1.822401e+003, 1.052852e-002
1.824329e+003, 1.052758e-002
1.826258e+003, 1.009216e-002
1.828186e+003, 1.007776e-002
1.830115e+003, 1.033315e-002
1.832043e+003, 1.016637e-002
1.833972e+003, 1.007341e-002
1.835900e+003, 1.035423e-002
1.837829e+003, 1.029933e-002
1.839757e+003, 1.042227e-002
1.841686e+003, 1.036987e-002
1.843614e+003, 1.019081e-002
1.845543e+003, 1.022679e-002
1.847471e+003, 1.034113e-002
1.849400e+003, 9.918699e-003
1.851328e+003, 9.916855e-003
1.853256e+003, 1.032576e-002
1.855185e+003, 1.031177e-002
1.857113e+003, 1.016991e-002
1.859042e+003, 9.918448e-003
1.860970e+003, 9.733612e-003
1.862899e+003, 9.631990e-003
1.864827e+003, 9.975608e-003
1.866756e+003, 9.995555e-003
1.868684e+003, 9.658847e-003
1.870613e+003, 9.405034e-003
1.872541e+003, 9.250597e-003
1.874470e+003, 9.358555e-003
1.876398e+003, 9.438235e-003
1.878327e+003, 9.264207e-003
1.880255e+003, 9.088376e-003
1.882183e+003, 9.143206e-003
1.884112e+003, 9.140311e-003
1.886040e+003, 8.893616e-003
1.887969e+003, 8.820620e-003
1.889897e+003, 8.777929e-003
1.891826e+003, 8.919536e-003
1.893754e+003, 9.070920e-003
1.895683e+003, 8.819296e-003
1.897611e+003, 8.828901e-003
1.899540e+003, 9.009385e-003
1.901468e+003, 9.096200e-003
1.903397e+003, 8.910599e-003
1.905325e+003, 8.363025e-003
1.907254e+003, 8.248764e-003
1.909182e+003, 8.764751e-003
1.911110e+003, 9.163335e-003
1.913039e+003, 8.979596e-003
1.914967e+003, 8.622142e-003
1.916896e+003, 8.492986e-003
1.918824e+003, 8.677174e-003
1.920753e+003, 8.902441e-003
1.922681e+003, 8.683365e-003
1.924610e+003, 8.523414e-003
1.926538e+003, 8.261866e-003
1.928467e+003, 7.793232e-003
1.930395e+003, 8.166544e-003
1.932324e+003, 8.444184e-003
1.934252e+003, 8.117663e-003
1.936181e+003, 7.975899e-003
1.938109e+003, 7.954046e-003
1.940037e+003, 7.932039e-003
1.941966e+003, 7.794502e-003
1.943894e+003, 7.724211e-003
1.945823e+003, 7.615382e-003
1.947751e+003, 7.812157e-003
1.949680e+003, 7.538799e-003
1.951608e+003, 6.910639e-003
1.953537e+003, 6.615626e-003
1.955465e+003, 6.606912e-003
1.957394e+003, 7.198000e-003
1.959322e+003, 6.613418e-003
1.961251e+003, 5.902554e-003
1.963179e+003, 5.867047e-003
1.965108e+003, 5.299935e-003
1.967036e+003, 4.781769e-003
1.968964e+003, 5.133483e-003
1.970893e+003, 4.691443e-003
1.972821e+003, 4.188088e-003
1.974750e+003, 4.674065e-003
1.976678e+003, 6.213252e-003
1.978607e+003, 7.554280e-003
1.980535e+003, 7.072132e-003
1.982464e+003, 5.721978e-003
1.984392e+003, 5.455820e-003
1.986321e+003, 6.112769e-003
1.988249e+003, 6.084975e-003
1.990178e+003, 5.661957e-003
1.992106e+003, 5.414354e-003
1.994035e+003, 5.155772e-003
1.995963e+003, 4.927708e-003
1.997891e+003, 5.071481e-003
1.999820e+003, 5.041687e-003
2.001748e+003, 5.014687e-003
2.003677e+003, 3.898371e-003
2.005605e+003, 4.098819e-003
2.007534e+003, 5.482729e-003
2.009462e+003, 6.147537e-003
2.011391e+003, 6.589966e-003
2.013319e+003, 6.475023e-003
2.015248e+003, 5.142002e-003
2.017176e+003, 4.352664e-003
2.019105e+003, 3.635267e-003
2.021033e+003, 3.367459e-003
2.022962e+003, 3.426995e-003
2.024890e+003, 3.997247e-003
2.026818e+003, 4.648032e-003
2.028747e+003, 3.710396e-003
2.030675e+003, 3.025038e-003
2.032604e+003, 4.403741e-003
2.034532e+003, 5.604616e-003
2.036461e+003, 5.671314e-003
2.038389e+003, 5.776258e-003
2.040318e+003, 5.952098e-003
2.042246e+003, 5.417937e-003
2.044175e+003, 5.332183e-003
2.046103e+003, 6.052216e-003
2.048031e+003, 6.303613e-003
2.049960e+003, 6.978956e-003
2.051888e+003, 6.343238e-003
2.053817e+003, 4.796887e-003
2.055745e+003, 5.098600e-003
2.057674e+003, 5.542209e-003
2.059602e+003, 5.105201e-003
2.061531e+003, 5.590169e-003
2.063459e+003, 5.749942e-003
2.065388e+003, 5.192312e-003
2.067316e+003, 4.909205e-003
2.069245e+003, 4.793610e-003
2.071173e+003, 5.495742e-003
2.073102e+003, 6.353146e-003
2.075030e+003, 6.718192e-003
2.076958e+003, 6.742734e-003
2.078887e+003, 6.047153e-003
2.080815e+003, 5.612419e-003
2.082744e+003, 5.457097e-003
2.084672e+003, 5.098585e-003
2.086601e+003, 4.103752e-003
2.088529e+003, 4.022715e-003
2.090458e+003, 4.603778e-003
2.092386e+003, 4.739725e-003
2.094315e+003, 4.414285e-003
2.096243e+003, 5.376299e-003
2.098172e+003, 6.437436e-003
2.100100e+003, 6.741623e-003
2.102029e+003, 6.297217e-003
2.103957e+003, 5.808245e-003
2.105885e+003, 5.716190e-003
2.107814e+003, 5.807750e-003
2.109742e+003, 5.286371e-003
2.111671e+003, 5.377143e-003
2.113599e+003, 5.676898e-003
2.115528e+003, 5.028916e-003
2.117456e+003, 4.561618e-003
2.119385e+003, 4.904702e-003
2.121313e+003, 5.425253e-003
2.123242e+003, 5.356973e-003
2.125170e+003, 4.597334e-003
2.127099e+003, 4.161584e-003
2.129027e+003, 3.739034e-003
2.130956e+003, 3.773320e-003
2.132884e+003, 4.241388e-003
2.134813e+003, 4.128129e-003
2.136741e+003, 3.848910e-003
2.138669e+003, 4.039775e-003
2.140598e+003, 4.665064e-003
2.142526e+003, 5.734977e-003
2.144455e+003, 6.388968e-003
2.146383e+003, 5.193197e-003
2.148312e+003, 4.800552e-003
2.150240e+003, 6.969399e-003
2.152169e+003, 6.600613e-003
2.154097e+003, 5.498737e-003
2.156026e+003, 5.156922e-003
2.157954e+003, 7.371417e-003
2.159883e+003, 9.889719e-003
2.161811e+003, 9.890967e-003
2.163740e+003, 9.561051e-003
2.165668e+003, 8.830897e-003
2.167596e+003, 8.384021e-003
2.169525e+003, 8.873765e-003
2.171453e+003, 9.195710e-003
2.173382e+003, 9.666664e-003
2.175310e+003, 1.092758e-002
2.177239e+003, 9.714291e-003
2.179167e+003, 7.519847e-003
2.181096e+003, 8.348343e-003
2.183024e+003, 8.850075e-003
2.184953e+003, 9.495062e-003
2.186881e+003, 1.106189e-002
2.188810e+003, 1.100936e-002
2.190738e+003, 9.994656e-003
2.192667e+003, 9.774016e-003
2.194595e+003, 1.031267e-002
2.196523e+003, 1.033305e-002
2.198452e+003, 1.035598e-002
2.200380e+003, 1.010165e-002
2.202309e+003, 9.824291e-003
2.204237e+003, 1.021975e-002
2.206166e+003, 1.038449e-002
2.208094e+003, 9.818535e-003
2.210023e+003, 9.785969e-003
2.211951e+003, 1.074861e-002
2.213880e+003, 1.095534e-002
2.215808e+003, 1.010388e-002
2.217737e+003, 9.619177e-003
2.219665e+003, 9.270361e-003
2.221594e+003, 8.785686e-003
2.223522e+003, 9.562775e-003
2.225450e+003, 1.071640e-002
2.227379e+003, 1.095061e-002
2.229307e+003, 1.020620e-002
2.231236e+003, 9.776727e-003
2.233164e+003, 9.657723e-003
2.235093e+003, 9.664916e-003
2.237021e+003, 1.031414e-002
2.238950e+003, 1.037962e-002
2.240878e+003, 1.040328e-002
2.242807e+003, 1.078253e-002
2.244735e+003, 1.039910e-002
2.246664e+003, 1.022216e-002
2.248592e+003, 1.009584e-002
2.250521e+003, 9.876892e-003
2.252449e+003, 1.042450e-002
2.254377e+003, 1.083493e-002
2.256306e+003, 1.059169e-002
2.258234e+003, 1.084984e-002
2.260163e+003, 1.124481e-002
2.262091e+003, 1.158957e-002
2.264020e+003, 1.140052e-002
2.265948e+003, 1.157074e-002
2.267877e+003, 1.215590e-002
2.269805e+003, 1.121284e-002
2.271734e+003, 1.021985e-002
2.273662e+003, 1.068012e-002
2.275591e+003, 1.097198e-002
2.277519e+003, 1.031190e-002
2.279448e+003, 1.015499e-002
2.281376e+003, 1.042673e-002
2.283304e+003, 1.099443e-002
2.285233e+003, 1.161772e-002
2.287161e+003, 1.133257e-002
2.289090e+003, 1.097559e-002
2.291018e+003, 1.080295e-002
2.292947e+003, 1.043837e-002
2.294875e+003, 1.043400e-002
2.296804e+003, 1.050180e-002
2.298732e+003, 1.029797e-002
2.300661e+003, 9.909139e-003
2.302589e+003, 9.704951e-003
2.304518e+003, 9.967657e-003
2.306446e+003, 1.045024e-002
2.308375e+003, 1.052157e-002
2.310303e+003, 1.027641e-002
2.312231e+003, 1.034012e-002
2.314160e+003, 1.049986e-002
2.316088e+003, 1.048649e-002
2.318017e+003, 1.050960e-002
2.319945e+003, 1.062151e-002
2.321874e+003, 1.104104e-002
2.323802e+003, 1.161579e-002
2.325731e+003, 1.101219e-002
2.327659e+003, 1.020300e-002
2.329588e+003, 1.017181e-002
2.331516e+003, 1.025764e-002
2.333445e+003, 1.059779e-002
2.335373e+003, 1.088182e-002
2.337302e+003, 1.065831e-002
2.339230e+003, 1.038922e-002
2.341158e+003, 1.031075e-002
2.343087e+003, 1.032115e-002
2.345015e+003, 1.007884e-002
2.346944e+003, 1.007182e-002
2.348872e+003, 1.004866e-002
2.350801e+003, 9.793602e-003
2.352729e+003, 1.008249e-002
2.354658e+003, 1.057069e-002
2.356586e+003, 1.057049e-002
2.358515e+003, 1.066917e-002
2.360443e+003, 1.102875e-002
2.362372e+003, 1.114724e-002
2.364300e+003, 1.115645e-002
2.366229e+003, 1.076328e-002
2.368157e+003, 1.036558e-002
2.370085e+003, 1.020424e-002
2.372014e+003, 1.020534e-002
2.373942e+003, 1.021319e-002
2.375871e+003, 1.011753e-002
2.377799e+003, 1.017046e-002
2.379728e+003, 1.008290e-002
2.381656e+003, 1.010221e-002
2.383585e+003, 1.001470e-002
2.385513e+003, 9.882049e-003
2.387442e+003, 1.006578e-002
2.389370e+003, 9.998173e-003
2.391299e+003, 1.010782e-002
2.393227e+003, 1.017771e-002
2.395156e+003, 1.035308e-002
2.397084e+003, 1.040530e-002
2.399012e+003, 1.029131e-002
2.400941e+003, 1.025483e-002
2.402869e+003, 1.045916e-002
2.404798e+003, 1.028726e-002
2.406726e+003, 1.031735e-002
2.408655e+003, 1.067275e-002
2.410583e+003, 1.081396e-002
2.412512e+003, 1.112314e-002
2.414440e+003, 1.109454e-002
2.416369e+003, 1.059323e-002
2.418297e+003, 1.078869e-002
2.420226e+003, 1.083514e-002
2.422154e+003, 1.068746e-002
2.424083e+003, 1.071564e-002
2.426011e+003, 1.073468e-002
2.427939e+003, 1.097169e-002
2.429868e+003, 1.134148e-002
2.431796e+003, 1.130520e-002
2.433725e+003, 1.109991e-002
2.435653e+003, 1.055872e-002
2.437582e+003, 1.013006e-002
2.439510e+003, 1.037977e-002
2.441439e+003, 1.090236e-002
2.443367e+003, 1.129386e-002
2.445296e+003, 1.104334e-002
2.447224e+003, 1.141903e-002
2.449153e+003, 1.200543e-002
2.451081e+003, 1.144374e-002
2.453010e+003, 1.125251e-002
2.454938e+003, 1.159510e-002
2.456866e+003, 1.188062e-002
2.458795e+003, 1.146268e-002
2.460723e+003, 1.094202e-002
2.462652e+003, 1.097232e-002
2.464580e+003, 1.137694e-002
2.466509e+003, 1.148698e-002
2.468437e+003, 1.130942e-002
2.470366e+003, 1.129315e-002
2.472294e+003, 1.099492e-002
2.474223e+003, 1.097661e-002
2.476151e+003, 1.127269e-002
2.478080e+003, 1.182144e-002
2.480008e+003, 1.203499e-002
2.481937e+003, 1.201286e-002
2.483865e+003, 1.215098e-002
2.485793e+003, 1.204825e-002
2.487722e+003, 1.181520e-002
2.489650e+003, 1.160868e-002
2.491579e+003, 1.179086e-002
2.493507e+003, 1.229393e-002
2.495436e+003, 1.255604e-002
2.497364e+003, 1.208967e-002
2.499293e+003, 1.155161e-002
2.501221e+003, 1.174242e-002
2.503150e+003, 1.191644e-002
2.505078e+003, 1.139568e-002
2.507007e+003, 1.093638e-002
2.508935e+003, 1.139717e-002
2.510864e+003, 1.198661e-002
2.512792e+003, 1.236999e-002
2.514720e+003, 1.221008e-002
2.516649e+003, 1.174602e-002
2.518577e+003, 1.198511e-002
2.520506e+003, 1.197077e-002
2.522434e+003, 1.201182e-002
2.524363e+003, 1.209064e-002
2.526291e+003, 1.182633e-002
2.528220e+003, 1.165463e-002
2.530148e+003, 1.207005e-002
2.532077e+003, 1.231631e-002
2.534005e+003, 1.197615e-002
2.535934e+003, 1.179360e-002
2.537862e+003, 1.197762e-002
2.539791e+003, 1.208579e-002
2.541719e+003, 1.223456e-002
2.543647e+003, 1.206502e-002
2.545576e+003, 1.245893e-002
2.547504e+003, 1.256572e-002
2.549433e+003, 1.246079e-002
2.551361e+003, 1.265425e-002
2.553290e+003, 1.266873e-002
2.555218e+003, 1.199142e-002
2.557147e+003, 1.179026e-002
2.559075e+003, 1.187709e-002
2.561004e+003, 1.182390e-002
2.562932e+003, 1.216641e-002
2.564861e+003, 1.262916e-002
2.566789e+003, 1.253574e-002
2.568718e+003, 1.306873e-002
2.570646e+003, 1.328550e-002
2.572574e+003, 1.277731e-002
2.574503e+003, 1.280185e-002
2.576431e+003, 1.315866e-002
2.578360e+003, 1.273704e-002
2.580288e+003, 1.225132e-002
2.582217e+003, 1.253042e-002
2.584145e+003, 1.233048e-002
2.586074e+003, 1.258622e-002
2.588002e+003, 1.322103e-002
2.589931e+003, 1.311146e-002
2.591859e+003, 1.288306e-002
2.593788e+003, 1.283870e-002
2.595716e+003, 1.332622e-002
2.597645e+003, 1.353518e-002
2.599573e+003, 1.277546e-002
2.601501e+003, 1.278236e-002
2.603430e+003, 1.346349e-002
2.605358e+003, 1.347123e-002
2.607287e+003, 1.286351e-002
2.609215e+003, 1.259452e-002
2.611144e+003, 1.272032e-002
2.613072e+003, 1.308547e-002
2.615001e+003, 1.277512e-002
2.616929e+003, 1.243240e-002
2.618858e+003, 1.284547e-002
2.620786e+003, 1.291715e-002
2.622715e+003, 1.273547e-002
2.624643e+003, 1.273871e-002
2.626572e+003, 1.320372e-002
2.628500e+003, 1.340043e-002
2.630428e+003, 1.343243e-002
2.632357e+003, 1.330749e-002
2.634285e+003, 1.290171e-002
2.636214e+003, 1.298134e-002
2.638142e+003, 1.346254e-002
2.640071e+003, 1.342844e-002
2.641999e+003, 1.315305e-002
2.643928e+003, 1.322135e-002
2.645856e+003, 1.325214e-002
2.647785e+003, 1.324001e-002
2.649713e+003, 1.346153e-002
2.651642e+003, 1.350550e-002
2.653570e+003, 1.293302e-002
2.655499e+003, 1.288062e-002
2.657427e+003, 1.291994e-002
2.659355e+003, 1.281843e-002
2.661284e+003, 1.299718e-002
2.663212e+003, 1.306609e-002
2.665141e+003, 1.318482e-002
2.667069e+003, 1.340242e-002
2.668998e+003, 1.358008e-002
2.670926e+003, 1.357534e-002
2.672855e+003, 1.317730e-002
2.674783e+003, 1.300678e-002
2.676712e+003, 1.306079e-002
2.678640e+003, 1.277570e-002
2.680569e+003, 1.265861e-002
2.682497e+003, 1.284882e-002
2.684426e+003, 1.325980e-002
2.686354e+003, 1.349257e-002
2.688282e+003, 1.349023e-002
2.690211e+003, 1.342539e-002
2.692139e+003, 1.336233e-002
2.694068e+003, 1.343371e-002
2.695996e+003, 1.339602e-002
2.697925e+003, 1.361662e-002
2.699853e+003, 1.383321e-002
2.701782e+003, 1.383135e-002
2.703710e+003, 1.356820e-002
2.705639e+003, 1.331214e-002
2.707567e+003, 1.324628e-002
2.709496e+003, 1.357466e-002
2.711424e+003, 1.359437e-002
2.713353e+003, 1.333783e-002
2.715281e+003, 1.378956e-002
2.717209e+003, 1.409174e-002
2.719138e+003, 1.416297e-002
2.721066e+003, 1.425299e-002
2.722995e+003, 1.407340e-002
2.724923e+003, 1.425858e-002
2.726852e+003, 1.477716e-002
2.728780e+003, 1.447863e-002
2.730709e+003, 1.379295e-002
2.732637e+003, 1.398613e-002
2.734566e+003, 1.410928e-002
2.736494e+003, 1.383588e-002
2.738423e+003, 1.398880e-002
2.740351e+003, 1.437057e-002
2.742280e+003, 1.469253e-002
2.744208e+003, 1.489523e-002
2.746136e+003, 1.458811e-002
2.748065e+003, 1.443647e-002
2.749993e+003, 1.466404e-002
2.751922e+003, 1.495206e-002
2.753850e+003, 1.481661e-002
2.755779e+003, 1.473071e-002
2.757707e+003, 1.510670e-002
2.759636e+003, 1.499592e-002
2.761564e+003, 1.531465e-002
2.763493e+003, 1.548816e-002
2.765421e+003, 1.533958e-002
2.767350e+003, 1.524891e-002
2.769278e+003, 1.535884e-002
2.771207e+003, 1.547031e-002
2.773135e+003, 1.528327e-002
2.775063e+003, 1.540691e-002
2.776992e+003, 1.551272e-002
2.778920e+003, 1.567269e-002
2.780849e+003, 1.540474e-002
2.782777e+003, 1.511397e-002
2.784706e+003, 1.518476e-002
2.786634e+003, 1.554112e-002
2.788563e+003, 1.579837e-002
2.790491e+003, 1.575624e-002
2.792420e+003, 1.607898e-002
2.794348e+003, 1.612972e-002
2.796277e+003, 1.573134e-002
2.798205e+003, 1.558877e-002
2.800134e+003, 1.579524e-002
2.802062e+003, 1.596993e-002
2.803990e+003, 1.621218e-002
2.805919e+003, 1.677259e-002
2.807847e+003, 1.686491e-002
2.809776e+003, 1.654008e-002
2.811704e+003, 1.648330e-002
2.813633e+003, 1.639167e-002
2.815561e+003, 1.649042e-002
2.817490e+003, 1.693322e-002
2.819418e+003, 1.695822e-002
2.821347e+003, 1.687424e-002
2.823275e+003, 1.708140e-002
2.825204e+003, 1.738030e-002
2.827132e+003, 1.729749e-002
2.829061e+003, 1.715877e-002
2.830989e+003, 1.731234e-002
2.832917e+003, 1.739264e-002
2.834846e+003, 1.778488e-002
2.836774e+003, 1.800513e-002
2.838703e+003, 1.766397e-002
2.840631e+003, 1.761319e-002
2.842560e+003, 1.809573e-002
2.844488e+003, 1.857065e-002
2.846417e+003, 1.858598e-002
2.848345e+003, 1.849544e-002
2.850274e+003, 1.866476e-002
2.852202e+003, 1.909072e-002
2.854131e+003, 1.902340e-002
2.856059e+003, 1.868513e-002
2.857988e+003, 1.887008e-002
2.859916e+003, 1.899140e-002
2.861844e+003, 1.906800e-002
2.863773e+003, 1.895999e-002
2.865701e+003, 1.859667e-002
2.867630e+003, 1.848909e-002
2.869558e+003, 1.834931e-002
2.871487e+003, 1.853415e-002
2.873415e+003, 1.879154e-002
2.875344e+003, 1.828321e-002
2.877272e+003, 1.819116e-002
2.879201e+003, 1.875807e-002
2.881129e+003, 1.873358e-002
2.883058e+003, 1.885400e-002
2.884986e+003, 1.952622e-002
2.886915e+003, 1.897081e-002
2.888843e+003, 1.876928e-002
2.890771e+003, 1.977346e-002
2.892700e+003, 2.008477e-002
2.894628e+003, 1.969172e-002
2.896557e+003, 1.941890e-002
2.898485e+003, 1.973241e-002
2.900414e+003, 2.012978e-002
2.902342e+003, 2.039486e-002
2.904271e+003, 2.051047e-002
2.906199e+003, 2.064952e-002
2.908128e+003, 2.086272e-002
2.910056e+003, 2.120190e-002
2.911985e+003, 2.132403e-002
2.913913e+003, 2.144760e-002
2.915842e+003, 2.160699e-002
2.917770e+003, 2.150217e-002
2.919698e+003, 2.213066e-002
2.921627e+003, 2.289215e-002
2.923555e+003, 2.296630e-002
2.925484e+003, 2.266087e-002
2.927412e+003, 2.270085e-002
2.929341e+003, 2.272247e-002
2.931269e+003, 2.281175e-002
2.933198e+003, 2.244979e-002
2.935126e+003, 2.193647e-002
2.937055e+003, 2.162031e-002
2.938983e+003, 2.088059e-002
2.940912e+003, 2.067567e-002
2.942840e+003, 2.056254e-002
2.944769e+003, 2.110645e-002
2.946697e+003, 2.069031e-002
2.948625e+003, 2.002009e-002
2.950554e+003, 2.051047e-002
2.952482e+003, 2.128400e-002
2.954411e+003, 2.187566e-002
2.956339e+003, 2.240672e-002
2.958268e+003, 2.260533e-002
2.960196e+003, 2.196236e-002
2.962125e+003, 2.142935e-002
2.964053e+003, 2.144046e-002
2.965982e+003, 2.162426e-002
2.967910e+003, 2.182220e-002
2.969839e+003, 2.199947e-002
2.971767e+003, 2.207382e-002
2.973696e+003, 2.124826e-002
2.975624e+003, 2.049860e-002
2.977552e+003, 2.056435e-002
2.979481e+003, 2.080494e-002
2.981409e+003, 2.136860e-002
2.983338e+003, 2.130028e-002
2.985266e+003, 2.145268e-002
2.987195e+003, 2.151167e-002
2.989123e+003, 2.183781e-002
2.991052e+003, 2.217825e-002
2.992980e+003, 2.230832e-002
2.994909e+003, 2.225785e-002
2.996837e+003, 2.208266e-002
2.998766e+003, 2.243361e-002
3.000694e+003, 2.207014e-002
3.002623e+003, 2.217324e-002
3.004551e+003, 2.257734e-002
3.006479e+003, 2.277738e-002
3.008408e+003, 2.306371e-002
3.010336e+003, 2.324201e-002
3.012265e+003, 2.302606e-002
3.014193e+003, 2.303577e-002
3.016122e+003, 2.374157e-002
3.018050e+003, 2.393471e-002
3.019979e+003, 2.375962e-002
3.021907e+003, 2.439020e-002
3.023836e+003, 2.451964e-002
3.025764e+003, 2.491833e-002
3.027693e+003, 2.505881e-002
3.029621e+003, 2.478634e-002
3.031550e+003, 2.456862e-002
3.033478e+003, 2.489719e-002
3.035406e+003, 2.530559e-002
3.037335e+003, 2.526591e-002
3.039263e+003, 2.550859e-002
3.041192e+003, 2.616963e-002
3.043120e+003, 2.634592e-002
3.045049e+003, 2.655063e-002
3.046977e+003, 2.688501e-002
3.048906e+003, 2.671602e-002
3.050834e+003, 2.654568e-002
3.052763e+003, 2.701821e-002
3.054691e+003, 2.761867e-002
3.056620e+003, 2.776668e-002
3.058548e+003, 2.736771e-002
3.060477e+003, 2.773806e-002
3.062405e+003, 2.797144e-002
3.064333e+003, 2.858816e-002
3.066262e+003, 2.896085e-002
3.068190e+003, 2.882860e-002
3.070119e+003, 2.887236e-002
3.072047e+003, 2.927682e-002
3.073976e+003, 3.011424e-002
3.075904e+003, 3.083826e-002
3.077833e+003, 3.047565e-002
3.079761e+003, 3.085492e-002
3.081690e+003, 3.133016e-002
3.083618e+003, 3.144439e-002
3.085547e+003, 3.170560e-002
3.087475e+003, 3.199995e-002
3.089404e+003, 3.212483e-002
3.091332e+003, 3.238753e-002
3.093260e+003, 3.232266e-002
3.095189e+003, 3.234582e-002
3.097117e+003, 3.273904e-002
3.099046e+003, 3.303328e-002
3.100974e+003, 3.305127e-002
3.102903e+003, 3.318990e-002
3.104831e+003, 3.342265e-002
3.106760e+003, 3.411951e-002
3.108688e+003, 3.431929e-002
3.110617e+003, 3.425545e-002
3.112545e+003, 3.432890e-002
3.114474e+003, 3.534397e-002
3.116402e+003, 3.571393e-002
3.118331e+003, 3.539478e-002
3.120259e+003, 3.610310e-002
3.122188e+003, 3.706179e-002
3.124116e+003, 3.751205e-002
3.126044e+003, 3.770373e-002
3.127973e+003, 3.735852e-002
3.129901e+003, 3.750783e-002
3.131830e+003, 3.819253e-002
3.133758e+003, 3.879557e-002
3.135687e+003, 3.932546e-002
3.137615e+003, 4.013964e-002
3.139544e+003, 4.051625e-002
3.141472e+003, 3.984302e-002
3.143401e+003, 4.011122e-002
3.145329e+003, 4.098422e-002
3.147258e+003, 4.156927e-002
3.149186e+003, 4.298429e-002
3.151115e+003, 4.358625e-002
3.153043e+003, 4.413671e-002
3.154971e+003, 4.527880e-002
3.156900e+003, 4.559274e-002
3.158828e+003, 4.607530e-002
3.160757e+003, 4.750187e-002
3.162685e+003, 4.877543e-002
3.164614e+003, 5.027338e-002
3.166542e+003, 5.178297e-002
3.168471e+003, 5.351304e-002
3.170399e+003, 5.501437e-002
3.172328e+003, 5.612740e-002
3.174256e+003, 5.809151e-002
3.176185e+003, 6.011960e-002
3.178113e+003, 6.224862e-002
3.180042e+003, 6.407328e-002
3.181970e+003, 6.546284e-002
3.183898e+003, 6.792022e-002
3.185827e+003, 7.025660e-002
3.187755e+003, 7.266424e-002
3.189684e+003, 7.506195e-002
3.191612e+003, 7.722668e-002
3.193541e+003, 7.930566e-002
3.195469e+003, 8.167486e-002
3.197398e+003, 8.379559e-002
3.199326e+003, 8.493907e-002
3.201255e+003, 8.557115e-002
3.203183e+003, 8.650694e-002
3.205112e+003, 8.776454e-002
3.207040e+003, 8.863194e-002
3.208969e+003, 8.950321e-002
3.210897e+003, 9.058604e-002
3.212825e+003, 9.154733e-002
3.214754e+003, 9.117375e-002
3.216682e+003, 9.092659e-002
3.218611e+003, 9.129012e-002
3.220539e+003, 9.034717e-002
3.222468e+003, 8.825652e-002
3.224396e+003, 8.603989e-002
3.226325e+003, 8.287612e-002
3.228253e+003, 7.858344e-002
3.230182e+003, 7.403224e-002
3.232110e+003, 7.006931e-002
3.234039e+003, 6.581056e-002
3.235967e+003, 6.146428e-002
3.237896e+003, 5.786559e-002
3.239824e+003, 5.490469e-002
3.241752e+003, 5.126224e-002
3.243681e+003, 4.716729e-002
3.245609e+003, 4.459839e-002
3.247538e+003, 4.291887e-002
3.249466e+003, 4.075226e-002
3.251395e+003, 3.942435e-002
3.253323e+003, 3.796946e-002
3.255252e+003, 3.603597e-002
3.257180e+003, 3.464525e-002
3.259109e+003, 3.380204e-002
3.261037e+003, 3.273540e-002
3.262966e+003, 3.201871e-002
3.264894e+003, 3.187207e-002
3.266823e+003, 3.167734e-002
3.268751e+003, 3.107594e-002
3.270679e+003, 2.993797e-002
3.272608e+003, 2.952729e-002
3.274536e+003, 3.006616e-002
3.276465e+003, 3.070501e-002
3.278393e+003, 3.089032e-002
3.280322e+003, 3.072120e-002
3.282250e+003, 3.049744e-002
3.284179e+003, 3.013195e-002
3.286107e+003, 2.998770e-002
3.288036e+003, 3.017483e-002
3.289964e+003, 2.978651e-002
3.291893e+003, 3.010856e-002
3.293821e+003, 3.019383e-002
3.295750e+003, 2.962305e-002
3.297678e+003, 2.921251e-002
3.299606e+003, 2.947751e-002
3.301535e+003, 2.963685e-002
3.303463e+003, 2.960665e-002
3.305392e+003, 2.894585e-002
3.307320e+003, 2.825520e-002
3.309249e+003, 2.818017e-002
3.311177e+003, 2.802237e-002
3.313106e+003, 2.791732e-002
3.315034e+003, 2.738220e-002
3.316963e+003, 2.703678e-002
3.318891e+003, 2.652178e-002
3.320820e+003, 2.593400e-002
3.322748e+003, 2.574492e-002
3.324677e+003, 2.578495e-002
3.326605e+003, 2.616873e-002
3.328533e+003, 2.577448e-002
3.330462e+003, 2.490321e-002
3.332390e+003, 2.450135e-002
3.334319e+003, 2.449044e-002
3.336247e+003, 2.448624e-002
3.338176e+003, 2.453411e-002
3.340104e+003, 2.410337e-002
3.342033e+003, 2.266143e-002
3.343961e+003, 2.229672e-002
3.345890e+003, 2.231664e-002
3.347818e+003, 2.199192e-002
3.349747e+003, 2.234319e-002
3.351675e+003, 2.297437e-002
3.353604e+003, 2.250493e-002
3.355532e+003, 2.226743e-002
3.357460e+003, 2.258667e-002
3.359389e+003, 2.186940e-002
3.361317e+003, 2.136649e-002
3.363246e+003, 2.172624e-002
3.365174e+003, 2.171060e-002
3.367103e+003, 2.144402e-002
3.369031e+003, 2.144007e-002
3.370960e+003, 2.204090e-002
3.372888e+003, 2.228935e-002
3.374817e+003, 2.167129e-002
3.376745e+003, 2.100340e-002
3.378674e+003, 2.091509e-002
3.380602e+003, 2.089687e-002
3.382531e+003, 2.039251e-002
3.384459e+003, 2.022366e-002
3.386387e+003, 1.957516e-002
3.388316e+003, 2.014887e-002
3.390244e+003, 2.043659e-002
3.392173e+003, 1.943778e-002
3.394101e+003, 1.833954e-002
3.396030e+003, 1.759362e-002
3.397958e+003, 1.802999e-002
3.399887e+003, 1.910714e-002
3.401815e+003, 1.930888e-002
3.403744e+003, 1.911401e-002
3.405672e+003, 1.885860e-002
3.407601e+003, 1.916888e-002
3.409529e+003, 1.952627e-002
3.411458e+003, 1.880971e-002
3.413386e+003, 1.864277e-002
3.415314e+003, 1.902495e-002
3.417243e+003, 1.914472e-002
3.419171e+003, 1.942543e-002
3.421100e+003, 1.906212e-002
3.423028e+003, 1.866863e-002
3.424957e+003, 1.873529e-002
3.426885e+003, 1.896924e-002
3.428814e+003, 1.878348e-002
3.430742e+003, 1.845077e-002
3.432671e+003, 1.882182e-002
3.434599e+003, 1.962810e-002
3.436528e+003, 1.908772e-002
3.438456e+003, 1.798674e-002
3.440385e+003, 1.830626e-002
3.442313e+003, 1.847607e-002
3.444241e+003, 1.843242e-002
3.446170e+003, 1.850445e-002
3.448098e+003, 1.823904e-002
3.450027e+003, 1.888947e-002
3.451955e+003, 1.852591e-002
3.453884e+003, 1.769589e-002
3.455812e+003, 1.777050e-002
3.457741e+003, 1.811928e-002
3.459669e+003, 1.781567e-002
3.461598e+003, 1.694026e-002
3.463526e+003, 1.669540e-002
3.465455e+003, 1.691703e-002
3.467383e+003, 1.702494e-002
3.469312e+003, 1.656814e-002
3.471240e+003, 1.590998e-002
3.473168e+003, 1.739791e-002
3.475097e+003, 1.812509e-002
3.477025e+003, 1.750981e-002
3.478954e+003, 1.723707e-002
3.480882e+003, 1.723971e-002
3.482811e+003, 1.756265e-002
3.484739e+003, 1.783496e-002
3.486668e+003, 1.773819e-002
3.488596e+003, 1.794714e-002
3.490525e+003, 1.817824e-002
3.492453e+003, 1.714313e-002
3.494382e+003, 1.625130e-002
3.496310e+003, 1.695394e-002
3.498239e+003, 1.689035e-002
3.500167e+003, 1.658972e-002
3.502095e+003, 1.636258e-002
3.504024e+003, 1.591124e-002
3.505952e+003, 1.679027e-002
3.507881e+003, 1.820386e-002
3.509809e+003, 1.829634e-002
3.511738e+003, 1.749237e-002
3.513666e+003, 1.701448e-002
3.515595e+003, 1.692790e-002
3.517523e+003, 1.752156e-002
3.519452e+003, 1.860113e-002
3.521380e+003, 1.891994e-002
3.523309e+003, 1.853508e-002
3.525237e+003, 1.754615e-002
3.527166e+003, 1.692458e-002
3.529094e+003, 1.668517e-002
3.531022e+003, 1.723570e-002
3.532951e+003, 1.740845e-002
3.534879e+003, 1.720696e-002
3.536808e+003, 1.747255e-002
3.538736e+003, 1.750813e-002
3.540665e+003, 1.700038e-002
3.542593e+003, 1.667732e-002
3.544522e+003, 1.665443e-002
3.546450e+003, 1.656712e-002
3.548379e+003, 1.760598e-002
3.550307e+003, 1.739933e-002
3.552236e+003, 1.648175e-002
3.554164e+003, 1.665172e-002
3.556093e+003, 1.774661e-002
3.558021e+003, 1.782347e-002
3.559949e+003, 1.721369e-002
3.561878e+003, 1.711558e-002
3.563806e+003, 1.751003e-002
3.565735e+003, 1.767960e-002
3.567663e+003, 1.744977e-002
3.569592e+003, 1.713756e-002
3.571520e+003, 1.807066e-002
3.573449e+003, 1.791617e-002
3.575377e+003, 1.715446e-002
3.577306e+003, 1.753788e-002
3.579234e+003, 1.799546e-002
3.581163e+003, 1.848415e-002
3.583091e+003, 1.920270e-002
3.585020e+003, 2.014036e-002
3.586948e+003, 2.039377e-002
3.588876e+003, 1.947283e-002
3.590805e+003, 1.869617e-002
3.592733e+003, 2.043862e-002
3.594662e+003, 2.156196e-002
3.596590e+003, 2.177856e-002
3.598519e+003, 2.266811e-002
3.600447e+003, 2.401439e-002
3.602376e+003, 2.391948e-002
3.604304e+003, 2.439057e-002
3.606233e+003, 2.644941e-002
3.608161e+003, 2.735367e-002
3.610090e+003, 2.863139e-002
3.612018e+003, 3.032370e-002
3.613947e+003, 3.111880e-002
3.615875e+003, 3.158051e-002
3.617803e+003, 3.367507e-002
3.619732e+003, 3.440335e-002
3.621660e+003, 3.362766e-002
3.623589e+003, 3.460121e-002
3.625517e+003, 3.545766e-002
3.627446e+003, 3.512827e-002
3.629374e+003, 3.425566e-002
3.631303e+003, 3.310134e-002
3.633231e+003, 3.163207e-002
3.635160e+003, 3.021062e-002
3.637088e+003, 3.000245e-002
3.639017e+003, 2.913146e-002
3.640945e+003, 2.779771e-002
3.642874e+003, 2.787345e-002
3.644802e+003, 2.878802e-002
3.646730e+003, 2.895778e-002
3.648659e+003, 2.778019e-002
3.650587e+003, 2.719130e-002
3.652516e+003, 2.565355e-002
3.654444e+003, 2.459582e-002
3.656373e+003, 2.425064e-002
3.658301e+003, 2.282710e-002
3.660230e+003, 2.199976e-002
3.662158e+003, 2.048719e-002
3.664087e+003, 1.890717e-002
3.666015e+003, 1.843457e-002
3.667944e+003, 1.733219e-002
3.669872e+003, 1.600857e-002
3.671801e+003, 1.524417e-002
3.673729e+003, 1.417856e-002
3.675657e+003, 1.365683e-002
3.677586e+003, 1.378810e-002
3.679514e+003, 1.197708e-002
3.681443e+003, 1.060599e-002
3.683371e+003, 1.045906e-002
3.685300e+003, 1.028445e-002
3.687228e+003, 1.121927e-002
3.689157e+003, 1.165955e-002
3.691085e+003, 1.089117e-002
3.693014e+003, 1.038688e-002
3.694942e+003, 1.033768e-002
3.696871e+003, 1.085117e-002
3.698799e+003, 1.097921e-002
3.700728e+003, 1.049003e-002
3.702656e+003, 9.897036e-003
3.704584e+003, 1.037995e-002
3.706513e+003, 1.025392e-002
3.708441e+003, 1.019258e-002
3.710370e+003, 1.048936e-002
3.712298e+003, 1.030846e-002
3.714227e+003, 9.566985e-003
3.716155e+003, 9.682527e-003
3.718084e+003, 9.595689e-003
3.720012e+003, 1.056099e-002
3.721941e+003, 1.141111e-002
3.723869e+003, 1.122602e-002
3.725798e+003, 1.089608e-002
3.727726e+003, 1.062554e-002
3.729655e+003, 1.022143e-002
3.731583e+003, 1.073466e-002
3.733511e+003, 1.151578e-002
3.735440e+003, 1.157294e-002
3.737368e+003, 1.139390e-002
3.739297e+003, 1.080916e-002
3.741225e+003, 1.051683e-002
3.743154e+003, 1.152912e-002
3.745082e+003, 1.215197e-002
3.747011e+003, 1.175782e-002
3.748939e+003, 1.203934e-002
3.750868e+003, 1.091354e-002
3.752796e+003, 1.028893e-002
3.754725e+003, 1.009373e-002
3.756653e+003, 1.054390e-002
3.758582e+003, 1.010748e-002
3.760510e+003, 8.438972e-003
3.762438e+003, 8.700269e-003
3.764367e+003, 9.320216e-003
3.766295e+003, 1.026912e-002
3.768224e+003, 1.136890e-002
3.770152e+003, 1.203203e-002
3.772081e+003, 1.169772e-002
3.774009e+003, 1.073164e-002
3.775938e+003, 1.028189e-002
3.777866e+003, 1.063692e-002
3.779795e+003, 1.159060e-002
3.781723e+003, 1.088654e-002
3.783652e+003, 9.545390e-003
3.785580e+003, 8.779165e-003
3.787509e+003, 1.052951e-002
3.789437e+003, 1.178895e-002
3.791365e+003, 1.186209e-002
3.793294e+003, 1.184704e-002
3.795222e+003, 1.134431e-002
3.797151e+003, 1.038446e-002
3.799079e+003, 9.398131e-003
3.801008e+003, 9.580682e-003
3.802936e+003, 1.010862e-002
3.804865e+003, 1.039900e-002
3.806793e+003, 1.106666e-002
3.808722e+003, 1.081001e-002
3.810650e+003, 1.068733e-002
3.812579e+003, 1.082097e-002
3.814507e+003, 1.127209e-002
3.816436e+003, 1.187140e-002
3.818364e+003, 1.256140e-002
3.820292e+003, 1.327174e-002
3.822221e+003, 1.277344e-002
3.824149e+003, 1.083756e-002
3.826078e+003, 1.090333e-002
3.828006e+003, 1.032069e-002
3.829935e+003, 9.989406e-003
3.831863e+003, 1.120264e-002
3.833792e+003, 1.124147e-002
3.835720e+003, 1.097891e-002
3.837649e+003, 1.076461e-002
3.839577e+003, 1.105554e-002
3.841506e+003, 1.033098e-002
3.843434e+003, 9.396098e-003
3.845363e+003, 9.888881e-003
3.847291e+003, 1.107742e-002
3.849219e+003, 1.217034e-002
3.851148e+003, 1.230648e-002
3.853076e+003, 1.151245e-002
3.855005e+003, 1.047272e-002
3.856933e+003, 9.431333e-003
3.858862e+003, 9.333392e-003
3.860790e+003, 1.070406e-002
3.862719e+003, 1.159952e-002
3.864647e+003, 1.141651e-002
3.866576e+003, 1.124429e-002
3.868504e+003, 1.118404e-002
3.870433e+003, 1.159151e-002
3.872361e+003, 1.180628e-002
3.874290e+003, 1.117724e-002
3.876218e+003, 1.014540e-002
3.878146e+003, 9.911896e-003
3.880075e+003, 1.033532e-002
3.882003e+003, 1.068392e-002
3.883932e+003, 1.099731e-002
3.885860e+003, 1.166705e-002
3.887789e+003, 1.114326e-002
3.889717e+003, 1.063404e-002
3.891646e+003, 1.104949e-002
3.893574e+003, 1.083950e-002
3.895503e+003, 1.071506e-002
3.897431e+003, 1.138194e-002
3.899360e+003, 1.174474e-002
3.901288e+003, 1.117984e-002
3.903217e+003, 1.068197e-002
3.905145e+003, 1.185104e-002
3.907073e+003, 1.265710e-002
3.909002e+003, 1.135028e-002
3.910930e+003, 1.061894e-002
3.912859e+003, 1.148866e-002
3.914787e+003, 1.228587e-002
3.916716e+003, 1.188670e-002
3.918644e+003, 1.198405e-002
3.920573e+003, 1.065029e-002
3.922501e+003, 9.594368e-003
3.924430e+003, 1.153171e-002
3.926358e+003, 1.246282e-002
3.928287e+003, 1.203969e-002
3.930215e+003, 1.097889e-002
3.932144e+003, 1.113911e-002
3.934072e+003, 1.140933e-002
3.936000e+003, 1.146596e-002
3.937929e+003, 1.126611e-002
3.939857e+003, 1.150156e-002
3.941786e+003, 1.179764e-002
3.943714e+003, 1.127795e-002
3.945643e+003, 1.016769e-002
3.947571e+003, 9.332445e-003
3.949500e+003, 9.991690e-003
3.951428e+003, 1.185402e-002
3.953357e+003, 1.227860e-002
3.955285e+003, 1.181973e-002
3.957214e+003, 1.131050e-002
3.959142e+003, 1.133632e-002
3.961071e+003, 1.108236e-002
3.962999e+003, 1.123442e-002
3.964927e+003, 1.081993e-002
3.966856e+003, 1.131316e-002
3.968784e+003, 1.113690e-002
3.970713e+003, 1.132025e-002
3.972641e+003, 1.113547e-002
3.974570e+003, 1.142346e-002
3.976498e+003, 1.161002e-002
3.978427e+003, 1.069326e-002
3.980355e+003, 1.104945e-002
3.982284e+003, 1.162536e-002
3.984212e+003, 1.031026e-002
3.986141e+003, 1.059560e-002
3.988069e+003, 1.188471e-002
3.989998e+003, 1.170154e-002
3.991926e+003, 1.200815e-002
3.993854e+003, 1.146873e-002
3.995783e+003, 1.066731e-002
3.997711e+003, 1.068176e-002
3.999640e+003, 1.131718e-002
4.001568e+003, 0.000000e+000
##END=



