##NAMES=Spinel
##RRUFFID=R050411
##IDEAL CHEMISTRY=MgAl_2_O_4_
##LOCALITY=Mogok, Burma
##OWNER=RRUFF
##SOURCE=Marcus Origlieri
##DESCRIPTION=Pale pink gemstone
##STATUS=The identification of this mineral has been confirmed by X-ray diffraction and chemical analysis
##URL=rruff.info/R050411
##MEASURED CHEMISTRY=Mg_0.93_Al_2.04_O_4_
399.1926, 0.3457304
401.1211, 0.3444881
403.0496, 0.3461443
404.9780, 0.3644405
406.9065, 0.3714824
408.8350, 0.3825089
410.7634, 0.3811183
412.6919, 0.3575312
414.6204, 0.3499142
416.5488, 0.3608342
418.4773, 0.3653794
420.4058, 0.3612814
422.3342, 0.3593154
424.2627, 0.3655838
426.1912, 0.3689889
428.1196, 0.3688720
430.0481, 0.3698135
431.9766, 0.3734841
433.9050, 0.3763777
435.8335, 0.3720324
437.7620, 0.3698076
439.6904, 0.3769141
441.6189, 0.3850749
443.5474, 0.3829253
445.4758, 0.3788901
447.4043, 0.3813029
449.3328, 0.3775763
451.2612, 0.3739138
453.1897, 0.3771169
455.1182, 0.3745050
457.0466, 0.3668036
458.9751, 0.3669430
460.9036, 0.3660356
462.8320, 0.3614817
464.7605, 0.3570940
466.6890, 0.3544855
468.6174, 0.3543684
470.5459, 0.3511470
472.4744, 0.3425845
474.4028, 0.3388849
476.3313, 0.3369902
478.2598, 0.3336892
480.1882, 0.3327513
482.1167, 0.3317411
484.0452, 0.3309670
485.9736, 0.3289573
487.9021, 0.3252364
489.8306, 0.3229612
491.7590, 0.3212543
493.6875, 0.3190186
495.6160, 0.3165221
497.5444, 0.3126307
499.4729, 0.3082322
501.4014, 0.3058848
503.3298, 0.3039752
505.2583, 0.3009956
507.1868, 0.2963163
509.1152, 0.2911489
511.0437, 0.2872820
512.9722, 0.2833297
514.9006, 0.2791992
516.8291, 0.2760694
518.7576, 0.2738500
520.6860, 0.2690151
522.6145, 0.2630410
524.5430, 0.2586793
526.4714, 0.2546625
528.3999, 0.2511363
530.3284, 0.2458832
532.2568, 0.2416956
534.1853, 0.2383471
536.1138, 0.2337963
538.0422, 0.2274794
539.9707, 0.2230536
541.8992, 0.2189643
543.8276, 0.2136607
545.7561, 0.2092417
547.6846, 0.2064675
549.6130, 0.2026337
551.5415, 0.1982691
553.4700, 0.1948418
555.3984, 0.1922021
557.3269, 0.1884771
559.2554, 0.1858439
561.1838, 0.1832830
563.1123, 0.1795848
565.0408, 0.1763876
566.9692, 0.1754789
568.8977, 0.1753239
570.8262, 0.1765009
572.7546, 0.1803468
574.6831, 0.1854511
576.6116, 0.1898620
578.5400, 0.1905755
580.4685, 0.1865330
582.3970, 0.1810289
584.3254, 0.1747473
586.2539, 0.1672394
588.1824, 0.1602602
590.1108, 0.1539197
592.0393, 0.1483133
593.9678, 0.1432390
595.8962, 0.1388589
597.8247, 0.1351729
599.7532, 0.1318499
601.6816, 0.1285917
603.6101, 0.1257180
605.5386, 0.1230329
607.4670, 0.1206796
609.3955, 0.1193986
611.3240, 0.1183468
613.2524, 0.1182766
615.1809, 0.1192594
617.1094, 0.1216355
619.0378, 0.1255626
620.9663, 0.1299349
622.8948, 0.1357102
624.8232, 0.1430476
626.7517, 0.1521679
628.6802, 0.1640623
630.6086, 0.1785739
632.5371, 0.1957957
634.4656, 0.2142607
636.3940, 0.2335085
638.3225, 0.2534666
640.2510, 0.2732469
642.1794, 0.2917578
644.1079, 0.3088109
646.0364, 0.3238783
647.9648, 0.3376886
649.8933, 0.3502367
651.8218, 0.3598370
653.7502, 0.3659296
655.6787, 0.3688967
657.6072, 0.3686979
659.5356, 0.3658365
661.4641, 0.3628051
663.3926, 0.3587053
665.3210, 0.3534158
667.2495, 0.3470053
669.1780, 0.3408120
671.1064, 0.3344033
673.0349, 0.3269081
674.9634, 0.3192859
676.8918, 0.3124361
678.8203, 0.3044864
680.7488, 0.2967102
682.6772, 0.2898584
684.6057, 0.2817404
686.5342, 0.2732382
688.4626, 0.2654239
690.3911, 0.2580295
692.3196, 0.2498324
694.2480, 0.2416590
696.1765, 0.2341779
698.1050, 0.2271414
700.0334, 0.2206487
701.9619, 0.2146093
703.8904, 0.2087295
705.8188, 0.2036460
707.7473, 0.1989383
709.6758, 0.1939755
711.6042, 0.1892444
713.5327, 0.1850326
715.4612, 0.1809361
717.3896, 0.1768137
719.3181, 0.1729709
721.2466, 0.1690586
723.1750, 0.1652113
725.1035, 0.1615171
727.0320, 0.1580533
728.9604, 0.1547790
730.8889, 0.1512947
732.8174, 0.1479094
734.7458, 0.1449286
736.6743, 0.1419432
738.6028, 0.1387796
740.5313, 0.1356473
742.4597, 0.1330380
744.3882, 0.1306833
746.3167, 0.1277131
748.2451, 0.1250824
750.1736, 0.1230343
752.1021, 0.1204760
754.0305, 0.1179922
755.9590, 0.1157485
757.8875, 0.1135618
759.8159, 0.1115650
761.7444, 0.1092065
763.6729, 0.1073135
765.6013, 0.1058268
767.5298, 0.1042234
769.4583, 0.1022696
771.3867, 0.1001995
773.3152, 9.8451003E-02
775.2437, 9.7107977E-02
777.1721, 9.5578767E-02
779.1006, 9.3874440E-02
781.0291, 9.2448577E-02
782.9575, 9.0872653E-02
784.8860, 8.9366034E-02
786.8145, 8.8381663E-02
788.7429, 8.7085180E-02
790.6714, 8.5741892E-02
792.5999, 8.4553339E-02
794.5283, 8.3435893E-02
796.4568, 8.2291469E-02
798.3853, 8.1096500E-02
800.3137, 7.9887927E-02
802.2422, 7.8655951E-02
804.1707, 7.7287666E-02
806.0991, 7.5836241E-02
808.0276, 7.4666657E-02
809.9561, 7.3580183E-02
811.8845, 7.2391652E-02
813.8130, 7.1189567E-02
815.7415, 6.9819368E-02
817.6699, 6.8348616E-02
819.5984, 6.6867143E-02
821.5269, 6.5390468E-02
823.4553, 6.3669384E-02
825.3838, 6.1478380E-02
827.3123, 5.9701011E-02
829.2407, 5.8201779E-02
831.1692, 5.6187000E-02
833.0977, 5.4269489E-02
835.0261, 5.2380230E-02
836.9546, 5.0516881E-02
838.8831, 4.8760831E-02
840.8115, 4.7180951E-02
842.7400, 4.5506660E-02
844.6685, 4.3489851E-02
846.5969, 4.1756999E-02
848.5254, 4.0232640E-02
850.4539, 3.8569011E-02
852.3823, 3.7472121E-02
854.3108, 3.6411960E-02
856.2393, 3.4943439E-02
858.1677, 3.3620682E-02
860.0962, 3.2509111E-02
862.0247, 3.1087991E-02
863.9531, 2.9934900E-02
865.8816, 2.9023951E-02
867.8101, 2.8014161E-02
869.7385, 2.7305320E-02
871.6670, 2.6525211E-02
873.5955, 2.5461610E-02
875.5239, 2.5163131E-02
877.4524, 2.4739990E-02
879.3809, 2.3845291E-02
881.3093, 2.2973180E-02
883.2378, 2.2110609E-02
885.1663, 2.1243609E-02
887.0947, 2.0760760E-02
889.0232, 2.0422300E-02
890.9517, 1.9946709E-02
892.8801, 1.9478990E-02
894.8085, 1.9203249E-02
896.7370, 1.8890729E-02
898.6655, 1.8309470E-02
900.5939, 1.8036211E-02
902.5224, 1.7702671E-02
904.4509, 1.7281050E-02
906.3793, 1.6873790E-02
908.3078, 1.6529890E-02
910.2363, 1.6276250E-02
912.1647, 1.6136801E-02
914.0932, 1.5863011E-02
916.0217, 1.5588450E-02
917.9501, 1.5376050E-02
919.8786, 1.4793290E-02
921.8071, 1.4597400E-02
923.7355, 1.4932820E-02
925.6640, 1.4698300E-02
927.5925, 1.4142200E-02
929.5209, 1.3747530E-02
931.4494, 1.3648120E-02
933.3779, 1.3588740E-02
935.3063, 1.3412920E-02
937.2348, 1.3267480E-02
939.1633, 1.2960660E-02
941.0917, 1.2684680E-02
943.0202, 1.2545170E-02
944.9487, 1.2523570E-02
946.8771, 1.2576200E-02
948.8056, 1.2332050E-02
950.7341, 1.2193070E-02
952.6625, 1.2083260E-02
954.5910, 1.1986750E-02
956.5195, 1.1812500E-02
958.4479, 1.1555420E-02
960.3764, 1.1278340E-02
962.3049, 1.0977980E-02
964.2333, 1.0988470E-02
966.1618, 1.0960660E-02
968.0903, 1.0809050E-02
970.0187, 1.0761240E-02
971.9472, 1.0761320E-02
973.8757, 1.0465080E-02
975.8041, 1.0363430E-02
977.7326, 1.0600120E-02
979.6611, 1.0724580E-02
981.5895, 1.0701460E-02
983.5180, 1.0549530E-02
985.4465, 1.0456840E-02
987.3749, 1.0431540E-02
989.3034, 1.0280590E-02
991.2319, 1.0337940E-02
993.1603, 1.0351480E-02
995.0888, 1.0443010E-02
997.0173, 1.0607140E-02
998.9457, 1.0344520E-02
1000.874, 1.0122740E-02
1002.803, 1.0244720E-02
1004.731, 1.0480330E-02
1006.660, 1.0582180E-02
1008.588, 1.0246520E-02
1010.517, 9.9219922E-03
1012.445, 9.7372560E-03
1014.373, 9.8375939E-03
1016.302, 9.9492474E-03
1018.230, 9.7726164E-03
1020.159, 9.5913587E-03
1022.087, 9.4593549E-03
1024.016, 9.4711389E-03
1025.944, 9.4815781E-03
1027.873, 9.3020108E-03
1029.801, 9.0981098E-03
1031.730, 8.8508436E-03
1033.658, 8.8232365E-03
1035.587, 8.8043204E-03
1037.515, 8.6649153E-03
1039.444, 8.3927214E-03
1041.372, 8.5300067E-03
1043.301, 8.7845987E-03
1045.229, 8.6783608E-03
1047.157, 8.6401943E-03
1049.086, 8.6490205E-03
1051.014, 8.5249608E-03
1052.943, 8.4038060E-03
1054.871, 8.4486781E-03
1056.800, 8.5974690E-03
1058.728, 8.5528977E-03
1060.657, 8.0946079E-03
1062.585, 7.7401181E-03
1064.514, 7.6931589E-03
1066.442, 8.0775581E-03
1068.371, 8.2368162E-03
1070.299, 8.0747986E-03
1072.228, 8.2662627E-03
1074.156, 8.2146209E-03
1076.084, 8.2641328E-03
1078.013, 8.3343899E-03
1079.941, 7.9344856E-03
1081.870, 7.8712599E-03
1083.798, 7.7908682E-03
1085.727, 7.7698389E-03
1087.655, 7.7994312E-03
1089.584, 7.6340339E-03
1091.512, 7.5257570E-03
1093.441, 7.2777751E-03
1095.369, 7.0742141E-03
1097.298, 7.1430961E-03
1099.226, 7.3101060E-03
1101.155, 7.3424550E-03
1103.083, 7.1892519E-03
1105.011, 7.0525450E-03
1106.940, 7.0976461E-03
1108.868, 7.1870158E-03
1110.797, 7.0909248E-03
1112.725, 6.8025119E-03
1114.654, 6.5771872E-03
1116.582, 6.5878532E-03
1118.511, 6.8898648E-03
1120.439, 7.0045539E-03
1122.368, 6.7143911E-03
1124.296, 6.5745348E-03
1126.225, 6.6068801E-03
1128.153, 6.4364360E-03
1130.082, 6.2654018E-03
1132.010, 6.3512051E-03
1133.938, 6.3509122E-03
1135.867, 6.3339588E-03
1137.795, 6.3806861E-03
1139.724, 6.5887421E-03
1141.652, 6.2564169E-03
1143.581, 5.9087528E-03
1145.509, 6.0075289E-03
1147.438, 5.8433148E-03
1149.366, 5.6887828E-03
1151.295, 5.8971150E-03
1153.223, 6.0892510E-03
1155.152, 6.0667749E-03
1157.080, 5.6812461E-03
1159.009, 5.5367788E-03
1160.937, 5.5893580E-03
1162.865, 5.4605869E-03
1164.794, 5.4233759E-03
1166.722, 5.3299111E-03
1168.651, 5.1711858E-03
1170.579, 5.0826720E-03
1172.508, 5.1612109E-03
1174.436, 5.2418788E-03
1176.365, 5.2174479E-03
1178.293, 5.2420930E-03
1180.222, 5.4193609E-03
1182.150, 5.4828869E-03
1184.079, 5.3516710E-03
1186.007, 5.3251679E-03
1187.936, 5.0628642E-03
1189.864, 5.0086589E-03
1191.792, 5.0469218E-03
1193.721, 4.9360390E-03
1195.649, 4.9804118E-03
1197.578, 4.9958960E-03
1199.506, 4.8537632E-03
1201.435, 4.7083790E-03
1203.363, 4.6624681E-03
1205.292, 4.4978731E-03
1207.220, 4.5122919E-03
1209.149, 4.8817010E-03
1211.077, 4.9725641E-03
1213.006, 4.8913080E-03
1214.934, 4.6861800E-03
1216.863, 4.8030159E-03
1218.791, 4.6544890E-03
1220.719, 4.3374328E-03
1222.648, 4.5429468E-03
1224.576, 4.7839619E-03
1226.505, 4.8875008E-03
1228.433, 4.7571389E-03
1230.362, 4.7035301E-03
1232.290, 4.5588021E-03
1234.219, 4.4128592E-03
1236.147, 4.5442800E-03
1238.076, 4.7778818E-03
1240.004, 5.0522648E-03
1241.933, 4.9191611E-03
1243.861, 4.8901159E-03
1245.790, 4.8196041E-03
1247.718, 4.6857628E-03
1249.646, 4.7047422E-03
1251.575, 4.6306052E-03
1253.503, 4.5310589E-03
1255.432, 4.3452000E-03
1257.360, 4.3078251E-03
1259.289, 4.4029239E-03
1261.217, 4.5060618E-03
1263.146, 4.4902069E-03
1265.074, 4.6464340E-03
1267.003, 4.8858309E-03
1268.931, 5.0074300E-03
1270.860, 5.1850812E-03
1272.788, 5.1044519E-03
1274.717, 4.8340210E-03
1276.645, 4.9412800E-03
1278.573, 5.0758352E-03
1280.502, 4.9632709E-03
1282.430, 4.8156101E-03
1284.359, 4.6735341E-03
1286.287, 4.9566282E-03
1288.216, 5.1636542E-03
1290.144, 4.9490631E-03
1292.073, 4.9613840E-03
1294.001, 5.0943769E-03
1295.930, 4.9903612E-03
1297.858, 4.9628192E-03
1299.787, 5.1676990E-03
1301.715, 5.1788050E-03
1303.644, 5.1767118E-03
1305.572, 5.3071878E-03
1307.500, 5.2777720E-03
1309.429, 5.0892700E-03
1311.357, 5.0938278E-03
1313.286, 5.3828219E-03
1315.214, 5.6091421E-03
1317.143, 5.4379310E-03
1319.071, 5.3252708E-03
1321.000, 5.3313328E-03
1322.928, 5.3792018E-03
1324.857, 5.4860418E-03
1326.785, 5.6911660E-03
1328.714, 5.6473748E-03
1330.642, 5.8219782E-03
1332.571, 6.3458262E-03
1334.499, 6.3470970E-03
1336.427, 6.1774440E-03
1338.356, 6.0982052E-03
1340.284, 6.3386508E-03
1342.213, 6.5700049E-03
1344.141, 6.7270198E-03
1346.070, 6.8263710E-03
1347.998, 7.0969071E-03
1349.927, 7.4449470E-03
1351.855, 7.7570179E-03
1353.784, 7.9344651E-03
1355.712, 8.0872476E-03
1357.641, 8.2493639E-03
1359.569, 8.4480448E-03
1361.498, 8.7093003E-03
1363.426, 9.0749403E-03
1365.354, 9.3738567E-03
1367.283, 9.6097644E-03
1369.211, 1.0002350E-02
1371.140, 1.0258220E-02
1373.068, 1.0586220E-02
1374.997, 1.0894300E-02
1376.925, 1.1630420E-02
1378.854, 1.2347990E-02
1380.782, 1.2590780E-02
1382.711, 1.2621240E-02
1384.639, 1.3023060E-02
1386.568, 1.3637320E-02
1388.496, 1.3943510E-02
1390.424, 1.4380520E-02
1392.353, 1.4820770E-02
1394.281, 1.5272290E-02
1396.210, 1.5906930E-02
1398.138, 1.6235059E-02
1400.067, 1.6546400E-02
1401.995, 1.7016640E-02
1403.924, 1.7552869E-02
1405.852, 1.7925000E-02
1407.781, 1.8254541E-02
1409.709, 1.8409690E-02
1411.638, 1.8506311E-02
1413.566, 1.8742580E-02
1415.495, 1.9075090E-02
1417.423, 1.9379459E-02
1419.351, 1.9424999E-02
1421.280, 1.9446820E-02
1423.208, 1.9589631E-02
1425.137, 1.9667160E-02
1427.065, 1.9752691E-02
1428.994, 1.9842731E-02
1430.922, 1.9906670E-02
1432.851, 1.9985950E-02
1434.779, 1.9991299E-02
1436.708, 1.9901980E-02
1438.636, 1.9610370E-02
1440.565, 1.9677190E-02
1442.493, 1.9613819E-02
1444.422, 1.9554470E-02
1446.350, 1.9702559E-02
1448.278, 1.9701891E-02
1450.207, 1.9432951E-02
1452.135, 1.9302839E-02
1454.064, 1.9296190E-02
1455.992, 1.9144829E-02
1457.921, 1.9051639E-02
1459.849, 1.9210201E-02
1461.778, 1.9303180E-02
1463.706, 1.9147189E-02
1465.635, 1.8961800E-02
1467.563, 1.8840831E-02
1469.492, 1.9147400E-02
1471.420, 1.9370349E-02
1473.349, 1.9079549E-02
1475.277, 1.8939471E-02
1477.205, 1.8877920E-02
1479.134, 1.8960509E-02
1481.062, 1.9122319E-02
1482.991, 1.8968750E-02
1484.919, 1.8781651E-02
1486.848, 1.9160170E-02
1488.776, 1.9390600E-02
1490.705, 1.8910149E-02
1492.633, 1.8625280E-02
1494.562, 1.8645370E-02
1496.490, 1.8518250E-02
1498.419, 1.8325141E-02
1500.347, 1.8317331E-02
1502.276, 1.8440410E-02
1504.204, 1.8381590E-02
1506.132, 1.8156830E-02
1508.061, 1.8022791E-02
1509.989, 1.8034620E-02
1511.918, 1.7902009E-02
1513.846, 1.7837580E-02
1515.775, 1.7735230E-02
1517.703, 1.7531499E-02
1519.632, 1.7409790E-02
1521.560, 1.7448129E-02
1523.489, 1.7253481E-02
1525.417, 1.7066279E-02
1527.346, 1.6828431E-02
1529.274, 1.6386339E-02
1531.203, 1.6014921E-02
1533.131, 1.6074900E-02
1535.059, 1.6123200E-02
1536.988, 1.5813340E-02
1538.916, 1.5407360E-02
1540.845, 1.5214220E-02
1542.773, 1.5229500E-02
1544.702, 1.5166070E-02
1546.630, 1.4837510E-02
1548.559, 1.4550530E-02
1550.487, 1.4434740E-02
1552.416, 1.4551030E-02
1554.344, 1.4553470E-02
1556.273, 1.4101340E-02
1558.201, 1.3625500E-02
1560.130, 1.3287640E-02
1562.058, 1.3119610E-02
1563.986, 1.3099990E-02
1565.915, 1.3089220E-02
1567.843, 1.2861030E-02
1569.772, 1.2449660E-02
1571.700, 1.2182440E-02
1573.629, 1.2113420E-02
1575.557, 1.2115560E-02
1577.486, 1.1747230E-02
1579.414, 1.1450330E-02
1581.343, 1.1577540E-02
1583.271, 1.1553780E-02
1585.200, 1.1257640E-02
1587.128, 1.0924760E-02
1589.057, 1.1270630E-02
1590.985, 1.1376480E-02
1592.913, 1.1192730E-02
1594.842, 1.1014480E-02
1596.770, 1.1013170E-02
1598.699, 1.1098060E-02
1600.627, 1.0861550E-02
1602.556, 1.0670630E-02
1604.484, 1.0787070E-02
1606.413, 1.0613190E-02
1608.341, 1.0320500E-02
1610.270, 1.0282630E-02
1612.198, 1.0238840E-02
1614.127, 9.9981222E-03
1616.055, 9.9587403E-03
1617.984, 9.9898744E-03
1619.912, 9.8851742E-03
1621.840, 9.9734087E-03
1623.769, 1.0012930E-02
1625.697, 9.9661490E-03
1627.626, 9.9012917E-03
1629.554, 9.7977724E-03
1631.483, 9.9287014E-03
1633.411, 9.9391202E-03
1635.340, 9.7232889E-03
1637.268, 9.6038189E-03
1639.197, 9.7877942E-03
1641.125, 9.8896176E-03
1643.054, 9.9989520E-03
1644.982, 1.0062980E-02
1646.911, 9.8662199E-03
1648.839, 9.6457750E-03
1650.767, 9.3067717E-03
1652.696, 9.7718034E-03
1654.624, 9.9176560E-03
1656.553, 9.4727427E-03
1658.481, 9.3498724E-03
1660.410, 9.6662911E-03
1662.338, 9.8643266E-03
1664.267, 9.7114360E-03
1666.195, 9.4728936E-03
1668.124, 9.4088791E-03
1670.052, 9.4939806E-03
1671.981, 9.3197972E-03
1673.909, 9.1187796E-03
1675.838, 9.1838846E-03
1677.766, 9.1580870E-03
1679.694, 8.8788159E-03
1681.623, 8.9973081E-03
1683.551, 9.2431623E-03
1685.480, 8.9056101E-03
1687.408, 8.7717790E-03
1689.337, 9.1019953E-03
1691.265, 9.0386868E-03
1693.194, 9.0055447E-03
1695.122, 9.1957226E-03
1697.051, 8.9914491E-03
1698.979, 8.7490398E-03
1700.908, 8.7552629E-03
1702.836, 8.6899428E-03
1704.765, 8.6132586E-03
1706.693, 8.8457596E-03
1708.621, 8.8409176E-03
1710.550, 8.5012736E-03
1712.478, 8.2582505E-03
1714.407, 8.1920782E-03
1716.335, 8.2064103E-03
1718.264, 8.2093570E-03
1720.192, 8.3531430E-03
1722.121, 8.5354028E-03
1724.049, 8.5490625E-03
1725.978, 8.5690962E-03
1727.906, 8.4953420E-03
1729.835, 8.2776193E-03
1731.763, 7.8892531E-03
1733.692, 7.5805718E-03
1735.620, 7.4671991E-03
1737.548, 7.3076491E-03
1739.477, 7.1975142E-03
1741.405, 7.0576640E-03
1743.334, 6.9988980E-03
1745.262, 6.9463509E-03
1747.191, 6.8739890E-03
1749.119, 6.9717048E-03
1751.048, 7.4396501E-03
1752.976, 7.6346789E-03
1754.905, 7.7890442E-03
1756.833, 8.0992933E-03
1758.762, 7.9830401E-03
1760.690, 8.1648948E-03
1762.619, 8.5003404E-03
1764.547, 8.8984491E-03
1766.475, 8.8865617E-03
1768.404, 8.3563207E-03
1770.332, 8.1011206E-03
1772.261, 8.2013989E-03
1774.189, 8.2278512E-03
1776.118, 8.2311444E-03
1778.046, 8.2687829E-03
1779.975, 8.8461880E-03
1781.903, 9.5677972E-03
1783.832, 9.7244177E-03
1785.760, 9.6224742E-03
1787.689, 9.0433760E-03
1789.617, 9.2356494E-03
1791.546, 9.3567399E-03
1793.474, 9.4076507E-03
1795.402, 9.7271958E-03
1797.331, 9.5280670E-03
1799.259, 9.1466652E-03
1801.188, 9.3649393E-03
1803.116, 9.4743147E-03
1805.045, 9.2486925E-03
1806.973, 9.1792149E-03
1808.902, 9.3691973E-03
1810.830, 8.8378722E-03
1812.759, 8.7166969E-03
1814.687, 8.9321611E-03
1816.616, 8.7418174E-03
1818.544, 9.4481669E-03
1820.473, 9.8779248E-03
1822.401, 9.8705348E-03
1824.329, 9.6324608E-03
1826.258, 9.9808844E-03
1828.186, 1.0199890E-02
1830.115, 9.9610686E-03
1832.043, 1.0333080E-02
1833.972, 1.0458220E-02
1835.900, 1.0049410E-02
1837.829, 1.0270100E-02
1839.757, 1.0020830E-02
1841.686, 9.3200495E-03
1843.614, 9.7411480E-03
1845.543, 1.0206050E-02
1847.471, 9.9677676E-03
1849.400, 9.4735390E-03
1851.328, 8.9966292E-03
1853.256, 9.2454813E-03
1855.185, 9.8081334E-03
1857.113, 1.0336100E-02
1859.042, 1.0443740E-02
1860.970, 1.0503790E-02
1862.899, 9.5273890E-03
1864.827, 9.7936280E-03
1866.756, 1.1020220E-02
1868.684, 1.0767410E-02
1870.613, 9.9386377E-03
1872.541, 9.7345458E-03
1874.470, 9.5848050E-03
1876.398, 9.7673060E-03
1878.327, 9.7198393E-03
1880.255, 9.7914813E-03
1882.183, 1.0286020E-02
1884.112, 1.0730550E-02
1886.040, 1.0910480E-02
1887.969, 1.0330370E-02
1889.897, 9.3205972E-03
1891.826, 9.3830498E-03
1893.754, 9.4962008E-03
1895.683, 9.7584222E-03
1897.611, 1.0553480E-02
1899.540, 1.1175990E-02
1901.468, 1.1082860E-02
1903.397, 1.0608710E-02
1905.325, 9.9688051E-03
1907.254, 9.9932859E-03
1909.182, 1.0122620E-02
1911.110, 9.9157616E-03
1913.039, 1.0430830E-02
1914.967, 9.6328706E-03
1916.896, 9.0330839E-03
1918.824, 9.6905418E-03
1920.753, 1.1630570E-02
1922.681, 1.1351530E-02
1924.610, 1.0380210E-02
1926.538, 1.1024310E-02
1928.467, 1.1172230E-02
1930.395, 1.0845560E-02
1932.324, 1.0765920E-02
1934.252, 9.9869287E-03
1936.181, 9.3863979E-03
1938.109, 1.0419860E-02
1940.037, 1.0333980E-02
1941.966, 9.8658744E-03
1943.894, 1.1215460E-02
1945.823, 1.2033080E-02
1947.751, 1.0715330E-02
1949.680, 9.1868546E-03
1951.608, 8.7319417E-03
1953.537, 9.8091410E-03
1955.465, 9.8306229E-03
1957.394, 1.0115800E-02
1959.322, 1.2069410E-02
1961.251, 1.2143180E-02
1963.179, 1.0669640E-02
1965.108, 1.0296880E-02
1967.036, 1.0216290E-02
1968.964, 1.0122780E-02
1970.893, 1.2389700E-02
1972.821, 1.3736570E-02
1974.750, 1.2542350E-02
1976.678, 1.1213610E-02
1978.607, 1.1984680E-02
1980.535, 1.3061200E-02
1982.464, 1.3859110E-02
1984.392, 1.4825410E-02
1986.321, 1.4111640E-02
1988.249, 1.2908630E-02
1990.178, 1.3674170E-02
1992.106, 1.3976970E-02
1994.035, 1.4835070E-02
1995.963, 1.4342030E-02
1997.891, 1.2800780E-02
1999.820, 1.1922900E-02
2001.748, 1.1952350E-02
2003.677, 1.1689160E-02
2005.605, 1.2006380E-02
2007.534, 1.0952670E-02
2009.462, 1.1904050E-02
2011.391, 1.3365990E-02
2013.319, 1.1676380E-02
2015.248, 1.2932240E-02
2017.176, 1.6654531E-02
2019.105, 1.5033090E-02
2021.033, 1.4321490E-02
2022.962, 1.4444650E-02
2024.890, 1.1373880E-02
2026.818, 1.1273280E-02
2028.747, 1.4730560E-02
2030.675, 1.4965660E-02
2032.604, 1.4556090E-02
2034.532, 1.5386850E-02
2036.461, 1.5877930E-02
2038.389, 1.3779570E-02
2040.318, 1.2170930E-02
2042.246, 1.2070480E-02
2044.175, 1.0497530E-02
2046.103, 1.1518240E-02
2048.032, 1.4526400E-02
2049.960, 1.5600020E-02
2051.889, 1.4191910E-02
2053.817, 1.5278730E-02
2055.746, 1.5961440E-02
2057.674, 1.3923440E-02
2059.603, 1.3427030E-02
2061.531, 1.3448340E-02
2063.459, 1.5631840E-02
2065.388, 1.6114270E-02
2067.316, 1.3949310E-02
2069.245, 1.3967050E-02
2071.173, 1.4404230E-02
2073.102, 1.4558440E-02
2075.030, 1.4082080E-02
2076.959, 1.3467530E-02
2078.887, 1.4088250E-02
2080.816, 1.4669090E-02
2082.744, 1.4119150E-02
2084.673, 1.4351990E-02
2086.601, 1.5031830E-02
2088.530, 1.4530350E-02
2090.458, 1.2954000E-02
2092.386, 1.2818550E-02
2094.315, 1.2612360E-02
2096.243, 1.3187700E-02
2098.172, 1.4327550E-02
2100.100, 1.3634120E-02
2102.029, 1.2277190E-02
2103.957, 1.3330940E-02
2105.886, 1.3529960E-02
2107.814, 1.3468570E-02
2109.743, 1.4926300E-02
2111.671, 1.6079171E-02
2113.600, 1.6370781E-02
2115.528, 1.6475350E-02
2117.457, 1.4598870E-02
2119.385, 1.4126130E-02
2121.313, 1.4845510E-02
2123.242, 1.3171350E-02
2125.170, 1.1962910E-02
2127.099, 1.1535050E-02
2129.027, 1.1615870E-02
2130.956, 1.2059990E-02
2132.884, 1.1951420E-02
2134.813, 1.1611760E-02
2136.741, 1.2002650E-02
2138.670, 1.2217020E-02
2140.598, 1.2774950E-02
2142.527, 1.3810110E-02
2144.455, 1.3843030E-02
2146.384, 1.4526150E-02
2148.312, 1.2336940E-02
2150.240, 1.1486050E-02
2152.169, 1.1379980E-02
2154.097, 9.7279269E-03
2156.026, 9.3391258E-03
2157.954, 1.1703600E-02
2159.883, 1.5852600E-02
2161.811, 1.6829010E-02
2163.740, 1.8539140E-02
2165.668, 2.2922030E-02
2167.597, 2.0281030E-02
2169.525, 1.6033631E-02
2171.454, 1.5071960E-02
2173.382, 1.4537510E-02
2175.311, 1.6234679E-02
2177.239, 1.7626891E-02
2179.167, 1.7572621E-02
2181.096, 1.7150000E-02
2183.024, 1.6069241E-02
2184.953, 1.7206499E-02
2186.881, 1.8392280E-02
2188.810, 1.6624991E-02
2190.738, 1.5665730E-02
2192.667, 1.4999900E-02
2194.595, 1.5459000E-02
2196.524, 1.5858941E-02
2198.452, 1.6739810E-02
2200.381, 1.6465319E-02
2202.309, 1.5334620E-02
2204.238, 1.4858500E-02
2206.166, 1.4601960E-02
2208.094, 1.5651811E-02
2210.023, 1.5483950E-02
2211.951, 1.4131380E-02
2213.880, 1.3640600E-02
2215.808, 1.6306151E-02
2217.737, 1.8200651E-02
2219.665, 1.8145800E-02
2221.594, 1.6562721E-02
2223.522, 1.4964400E-02
2225.451, 1.6278571E-02
2227.379, 1.6137250E-02
2229.308, 1.5412430E-02
2231.236, 1.7755279E-02
2233.165, 1.7047949E-02
2235.093, 1.7091921E-02
2237.021, 1.8283609E-02
2238.950, 1.7433440E-02
2240.878, 1.5965629E-02
2242.807, 1.7520750E-02
2244.735, 1.7643280E-02
2246.664, 1.7798821E-02
2248.592, 1.6336160E-02
2250.521, 1.5677059E-02
2252.449, 1.6658310E-02
2254.378, 1.6642330E-02
2256.306, 1.7752791E-02
2258.235, 1.8542239E-02
2260.163, 1.7236220E-02
2262.092, 1.6237009E-02
2264.020, 1.6549630E-02
2265.948, 1.8116930E-02
2267.877, 1.9770220E-02
2269.805, 1.8708980E-02
2271.734, 1.7406819E-02
2273.662, 1.7123980E-02
2275.591, 1.7125459E-02
2277.519, 1.7411210E-02
2279.448, 1.7806521E-02
2281.376, 1.7979991E-02
2283.305, 1.8481901E-02
2285.233, 1.8679740E-02
2287.162, 1.9202899E-02
2289.090, 1.7912811E-02
2291.019, 1.7450981E-02
2292.947, 1.8010220E-02
2294.875, 1.7207621E-02
2296.804, 1.7489780E-02
2298.732, 1.7755410E-02
2300.661, 1.7696431E-02
2302.589, 1.7826440E-02
2304.518, 1.7662680E-02
2306.446, 1.7462339E-02
2308.375, 1.7401060E-02
2310.303, 1.8022070E-02
2312.232, 1.8511560E-02
2314.160, 1.8185589E-02
2316.089, 1.7806901E-02
2318.017, 1.7786160E-02
2319.946, 1.8253051E-02
2321.874, 1.8236490E-02
2323.802, 1.8793929E-02
2325.731, 1.8600950E-02
2327.659, 1.7674590E-02
2329.588, 1.6781360E-02
2331.516, 1.5922220E-02
2333.445, 1.6152261E-02
2335.373, 1.5807150E-02
2337.302, 1.6437409E-02
2339.230, 1.6571419E-02
2341.159, 1.6331300E-02
2343.087, 1.6722331E-02
2345.016, 1.6852761E-02
2346.944, 1.7628189E-02
2348.873, 1.7887151E-02
2350.801, 1.7468160E-02
2352.729, 1.7016711E-02
2354.658, 1.6033569E-02
2356.586, 1.6005620E-02
2358.515, 1.6354389E-02
2360.443, 1.6548960E-02
2362.372, 1.6294200E-02
2364.300, 1.6309340E-02
2366.229, 1.6570320E-02
2368.157, 1.6417179E-02
2370.086, 1.7247330E-02
2372.014, 1.7426170E-02
2373.942, 1.6649840E-02
2375.871, 1.6385950E-02
2377.799, 1.6067430E-02
2379.728, 1.5673781E-02
2381.656, 1.6264150E-02
2383.585, 1.7090119E-02
2385.513, 1.7278500E-02
2387.442, 1.7025691E-02
2389.370, 1.6827321E-02
2391.299, 1.7054649E-02
2393.227, 1.7713159E-02
2395.156, 1.7284749E-02
2397.084, 1.5719719E-02
2399.012, 1.5821461E-02
2400.941, 1.7350120E-02
2402.869, 1.7573500E-02
2404.798, 1.7528290E-02
2406.726, 1.7659290E-02
2408.655, 1.7138110E-02
2410.583, 1.7383009E-02
2412.512, 1.6852600E-02
2414.440, 1.6895911E-02
2416.369, 1.7723041E-02
2418.297, 1.8057911E-02
2420.226, 1.8345401E-02
2422.154, 1.8450590E-02
2424.083, 1.7637741E-02
2426.011, 1.7290041E-02
2427.939, 1.8479509E-02
2429.868, 1.9395120E-02
2431.796, 1.8740790E-02
2433.725, 1.8527320E-02
2435.653, 1.8864499E-02
2437.582, 1.8117441E-02
2439.510, 1.7205911E-02
2441.439, 1.6690310E-02
2443.367, 1.7478840E-02
2445.296, 1.8024040E-02
2447.224, 1.8517699E-02
2449.153, 1.9023251E-02
2451.081, 1.9359151E-02
2453.010, 1.8560160E-02
2454.938, 1.8108521E-02
2456.866, 1.9427480E-02
2458.795, 1.9076239E-02
2460.723, 1.8668640E-02
2462.652, 1.9531559E-02
2464.580, 1.9794051E-02
2466.509, 1.8473040E-02
2468.437, 1.7850099E-02
2470.366, 1.8099099E-02
2472.294, 1.7403580E-02
2474.223, 1.8006731E-02
2476.151, 1.9159030E-02
2478.080, 1.9286800E-02
2480.008, 1.8250899E-02
2481.937, 1.8168161E-02
2483.865, 1.9096410E-02
2485.793, 1.8793041E-02
2487.722, 1.8818270E-02
2489.650, 1.9231571E-02
2491.579, 1.9349759E-02
2493.507, 1.8967301E-02
2495.436, 1.8599430E-02
2497.364, 1.9549280E-02
2499.293, 1.8948440E-02
2501.221, 1.8700130E-02
2503.150, 1.9100999E-02
2505.078, 1.9299289E-02
2507.007, 1.9349910E-02
2508.935, 1.9723490E-02
2510.864, 1.9410251E-02
2512.792, 1.8655529E-02
2514.720, 1.8374240E-02
2516.649, 1.8574910E-02
2518.577, 1.8555110E-02
2520.506, 1.8328531E-02
2522.434, 1.8849039E-02
2524.363, 1.9444710E-02
2526.291, 1.9194100E-02
2528.220, 1.8885370E-02
2530.148, 1.9783551E-02
2532.077, 1.9344529E-02
2534.005, 1.8904410E-02
2535.934, 1.9561470E-02
2537.862, 2.0419620E-02
2539.791, 2.0309810E-02
2541.719, 2.0532841E-02
2543.647, 2.0051209E-02
2545.576, 1.9101171E-02
2547.504, 1.9076049E-02
2549.433, 1.9176520E-02
2551.361, 2.0205850E-02
2553.290, 2.0891551E-02
2555.218, 1.9743061E-02
2557.147, 1.9591590E-02
2559.075, 2.0613359E-02
2561.004, 2.0655351E-02
2562.932, 1.9788221E-02
2564.861, 2.0002790E-02
2566.789, 2.1046640E-02
2568.718, 2.1081360E-02
2570.646, 2.1459900E-02
2572.574, 2.1573581E-02
2574.503, 2.0993151E-02
2576.431, 1.9410269E-02
2578.360, 1.9365340E-02
2580.288, 1.9372771E-02
2582.217, 1.9194709E-02
2584.145, 2.0551560E-02
2586.074, 2.0778811E-02
2588.002, 1.9702230E-02
2589.931, 2.0081241E-02
2591.859, 2.1110170E-02
2593.788, 2.0967130E-02
2595.716, 2.0714801E-02
2597.645, 2.1130981E-02
2599.573, 2.1261120E-02
2601.501, 2.0664839E-02
2603.430, 2.0179501E-02
2605.358, 2.0238120E-02
2607.287, 2.1227291E-02
2609.215, 2.1247219E-02
2611.144, 2.1052871E-02
2613.072, 2.1251369E-02
2615.001, 2.2145281E-02
2616.929, 2.2611920E-02
2618.858, 2.1882899E-02
2620.786, 2.1824479E-02
2622.715, 2.1942319E-02
2624.643, 2.2312161E-02
2626.572, 2.1617800E-02
2628.500, 2.0777831E-02
2630.428, 2.0925149E-02
2632.357, 2.1227021E-02
2634.285, 2.1838840E-02
2636.214, 2.2046531E-02
2638.142, 2.1163341E-02
2640.071, 2.1097720E-02
2641.999, 2.2115709E-02
2643.928, 2.2412051E-02
2645.856, 2.1378830E-02
2647.785, 2.1773441E-02
2649.713, 2.1433519E-02
2651.642, 2.0532530E-02
2653.570, 2.0923709E-02
2655.499, 2.1438010E-02
2657.427, 2.0960310E-02
2659.355, 2.1034930E-02
2661.284, 2.1063650E-02
2663.212, 1.9923100E-02
2665.141, 1.9815531E-02
2667.069, 2.0762291E-02
2668.998, 2.0962151E-02
2670.926, 2.0540509E-02
2672.855, 2.0500170E-02
2674.783, 2.1076269E-02
2676.712, 2.1637989E-02
2678.640, 2.2096369E-02
2680.569, 2.2047291E-02
2682.497, 2.1482579E-02
2684.426, 2.1190470E-02
2686.354, 2.0831490E-02
2688.282, 2.0521050E-02
2690.211, 2.0707510E-02
2692.139, 2.0579990E-02
2694.068, 2.1063620E-02
2695.996, 2.2131670E-02
2697.925, 2.2073429E-02
2699.853, 2.0964321E-02
2701.782, 2.1060770E-02
2703.710, 2.1488311E-02
2705.639, 2.1669639E-02
2707.567, 2.1733981E-02
2709.496, 2.2177801E-02
2711.424, 2.1890780E-02
2713.353, 2.0709040E-02
2715.281, 2.0301171E-02
2717.209, 2.1324489E-02
2719.138, 2.1975080E-02
2721.066, 2.1676390E-02
2722.995, 2.2188449E-02
2724.923, 2.2457929E-02
2726.852, 2.1745849E-02
2728.780, 2.0946410E-02
2730.709, 2.1130679E-02
2732.637, 2.2336859E-02
2734.566, 2.3458220E-02
2736.494, 2.3595549E-02
2738.423, 2.2291049E-02
2740.351, 2.1743180E-02
2742.280, 2.2279950E-02
2744.208, 2.2412080E-02
2746.136, 2.1848761E-02
2748.065, 2.1615971E-02
2749.993, 2.2150930E-02
2751.922, 2.1797750E-02
2753.850, 2.1249561E-02
2755.779, 2.1806540E-02
2757.707, 2.2447750E-02
2759.636, 2.2948859E-02
2761.564, 2.2917980E-02
2763.493, 2.2529740E-02
2765.421, 2.2445841E-02
2767.350, 2.2586601E-02
2769.278, 2.2400120E-02
2771.207, 2.2241451E-02
2773.135, 2.2150891E-02
2775.063, 2.1449190E-02
2776.992, 2.1940950E-02
2778.920, 2.3191730E-02
2780.849, 2.3548741E-02
2782.777, 2.3000900E-02
2784.706, 2.1752730E-02
2786.634, 2.1417290E-02
2788.563, 2.1493809E-02
2790.491, 2.1891691E-02
2792.420, 2.2651119E-02
2794.348, 2.2792520E-02
2796.277, 2.1767750E-02
2798.205, 2.2175780E-02
2800.134, 2.2822499E-02
2802.062, 2.2475000E-02
2803.990, 2.1993721E-02
2805.919, 2.2025410E-02
2807.847, 2.2208991E-02
2809.776, 2.2554420E-02
2811.704, 2.3002060E-02
2813.633, 2.2959890E-02
2815.561, 2.2511531E-02
2817.490, 2.2175079E-02
2819.418, 2.3488190E-02
2821.347, 2.4400629E-02
2823.275, 2.4066459E-02
2825.204, 2.3827080E-02
2827.132, 2.3672970E-02
2829.061, 2.3061140E-02
2830.989, 2.2079131E-02
2832.917, 2.2951320E-02
2834.846, 2.3604650E-02
2836.774, 2.2716470E-02
2838.703, 2.2789780E-02
2840.631, 2.3026951E-02
2842.560, 2.2329619E-02
2844.488, 2.2527890E-02
2846.417, 2.2776200E-02
2848.345, 2.2000330E-02
2850.274, 2.1206601E-02
2852.202, 2.0465350E-02
2854.131, 2.0675140E-02
2856.059, 2.1167530E-02
2857.988, 2.1355519E-02
2859.916, 2.2149701E-02
2861.844, 2.2649510E-02
2863.773, 2.3295561E-02
2865.701, 2.4965471E-02
2867.630, 2.4344850E-02
2869.558, 2.2527371E-02
2871.487, 2.2822620E-02
2873.415, 2.3209579E-02
2875.344, 2.3897290E-02
2877.272, 2.4283910E-02
2879.201, 2.3920590E-02
2881.129, 2.4303120E-02
2883.058, 2.3286590E-02
2884.986, 2.2172131E-02
2886.915, 2.3261610E-02
2888.843, 2.3468770E-02
2890.771, 2.3388511E-02
2892.700, 2.4102990E-02
2894.628, 2.3111369E-02
2896.557, 2.2167860E-02
2898.485, 2.2970989E-02
2900.414, 2.3352860E-02
2902.342, 2.2745380E-02
2904.271, 2.1882581E-02
2906.199, 2.2752469E-02
2908.128, 2.3745909E-02
2910.056, 2.4049571E-02
2911.985, 2.2873210E-02
2913.913, 2.2072541E-02
2915.842, 2.1266390E-02
2917.770, 2.1055341E-02
2919.698, 2.1555750E-02
2921.627, 2.1190761E-02
2923.555, 1.9922029E-02
2925.484, 2.0032650E-02
2927.412, 2.0049799E-02
2929.341, 2.0108471E-02
2931.269, 2.1263950E-02
2933.198, 2.1643849E-02
2935.126, 2.2959720E-02
2937.055, 2.3943640E-02
2938.983, 2.3855669E-02
2940.912, 2.3905380E-02
2942.840, 2.3773830E-02
2944.769, 2.3591209E-02
2946.697, 2.3687720E-02
2948.625, 2.3601711E-02
2950.554, 2.3785850E-02
2952.482, 2.4861520E-02
2954.411, 2.4594041E-02
2956.339, 2.3859030E-02
2958.268, 2.3618780E-02
2960.196, 2.2903400E-02
2962.125, 2.3565611E-02
2964.053, 2.4762610E-02
2965.982, 2.5142230E-02
2967.910, 2.5018809E-02
2969.839, 2.4712430E-02
2971.767, 2.5562240E-02
2973.696, 2.6127880E-02
2975.624, 2.6547629E-02
2977.552, 2.7075810E-02
2979.481, 2.5970699E-02
2981.409, 2.5219319E-02
2983.338, 2.5793860E-02
2985.266, 2.6063209E-02
2987.195, 2.6657930E-02
2989.123, 2.7722331E-02
2991.052, 2.6555991E-02
2992.980, 2.5857700E-02
2994.909, 2.7024910E-02
2996.837, 2.6907990E-02
2998.766, 2.6613729E-02
3000.694, 2.6714461E-02
3002.623, 2.6164500E-02
3004.551, 2.6144739E-02
3006.479, 2.7316170E-02
3008.408, 2.7448820E-02
3010.336, 2.6570540E-02
3012.265, 2.6429789E-02
3014.193, 2.6650140E-02
3016.122, 2.6320569E-02
3018.050, 2.7180130E-02
3019.979, 2.8334221E-02
3021.907, 2.8421789E-02
3023.836, 2.7976820E-02
3025.764, 2.8249800E-02
3027.693, 2.7766980E-02
3029.621, 2.8015779E-02
3031.550, 2.8509401E-02
3033.478, 2.8013149E-02
3035.406, 2.6674300E-02
3037.335, 2.5996070E-02
3039.263, 2.6637290E-02
3041.192, 2.6917240E-02
3043.120, 2.7761210E-02
3045.049, 2.8062809E-02
3046.977, 2.7009239E-02
3048.906, 2.6671389E-02
3050.834, 2.7329041E-02
3052.763, 2.8400181E-02
3054.691, 2.8867180E-02
3056.620, 2.8824341E-02
3058.548, 2.8253360E-02
3060.477, 2.7069500E-02
3062.405, 2.7327869E-02
3064.333, 2.7532469E-02
3066.262, 2.7657880E-02
3068.190, 2.8684029E-02
3070.119, 2.9852530E-02
3072.047, 3.0117489E-02
3073.976, 3.0384051E-02
3075.904, 3.0583920E-02
3077.833, 3.0307731E-02
3079.761, 2.9138200E-02
3081.690, 2.8374510E-02
3083.618, 2.7311509E-02
3085.547, 2.9128680E-02
3087.475, 3.1136870E-02
3089.404, 3.0099619E-02
3091.332, 3.0926920E-02
3093.260, 3.2352969E-02
3095.189, 3.1044209E-02
3097.117, 2.8582489E-02
3099.046, 2.7927600E-02
3100.974, 2.8944639E-02
3102.903, 2.9730640E-02
3104.831, 3.0084340E-02
3106.760, 2.9753700E-02
3108.688, 2.9833671E-02
3110.617, 3.0069569E-02
3112.545, 2.9927300E-02
3114.474, 2.9225120E-02
3116.402, 2.9296931E-02
3118.331, 3.0085189E-02
3120.259, 3.0573120E-02
3122.188, 3.0868210E-02
3124.116, 2.9695390E-02
3126.044, 2.9350840E-02
3127.973, 3.0211920E-02
3129.901, 3.1643070E-02
3131.830, 3.2440279E-02
3133.758, 3.0300070E-02
3135.687, 2.9916350E-02
3137.615, 3.1426229E-02
3139.544, 3.1834900E-02
3141.472, 3.2983162E-02
3143.401, 3.3009809E-02
3145.329, 3.1372420E-02
3147.258, 3.1342469E-02
3149.186, 3.1415910E-02
3151.115, 3.1205259E-02
3153.043, 3.1892542E-02
3154.971, 3.1833831E-02
3156.900, 3.1213859E-02
3158.828, 3.1389911E-02
3160.757, 3.0970359E-02
3162.685, 3.1120559E-02
3164.614, 3.0732980E-02
3166.542, 3.0891091E-02
3168.471, 3.0340850E-02
3170.399, 3.0568531E-02
3172.328, 3.1285759E-02
3174.256, 3.3083439E-02
3176.185, 3.4068659E-02
3178.113, 3.2812390E-02
3180.042, 3.2512080E-02
3181.970, 3.2837421E-02
3183.898, 3.3214420E-02
3185.827, 3.3866890E-02
3187.755, 3.3031140E-02
3189.684, 3.2490559E-02
3191.612, 3.3163611E-02
3193.541, 3.2392830E-02
3195.469, 3.1525139E-02
3197.398, 3.1580579E-02
3199.326, 3.1990409E-02
3201.255, 3.2285411E-02
3203.183, 3.2035928E-02
3205.112, 3.1479049E-02
3207.040, 3.1863779E-02
3208.969, 3.4366138E-02
3210.897, 3.5690509E-02
3212.825, 3.4278370E-02
3214.754, 3.3676181E-02
3216.682, 3.4937479E-02
3218.611, 3.5167292E-02
3220.539, 3.4119219E-02
3222.468, 3.1307481E-02
3224.396, 3.1625278E-02
3226.325, 3.3735301E-02
3228.253, 3.4184720E-02
3230.182, 3.3593971E-02
3232.110, 3.4041770E-02
3234.039, 3.4840360E-02
3235.967, 3.5270840E-02
3237.896, 3.5542268E-02
3239.824, 3.4831051E-02
3241.752, 3.4679592E-02
3243.681, 3.3845440E-02
3245.609, 3.3598129E-02
3247.538, 3.4498539E-02
3249.466, 3.5257131E-02
3251.395, 3.5126619E-02
3253.323, 3.4374420E-02
3255.252, 3.4512170E-02
3257.180, 3.4890309E-02
3259.109, 3.4989011E-02
3261.037, 3.4571070E-02
3262.966, 3.4680590E-02
3264.894, 3.6012489E-02
3266.823, 3.5703059E-02
3268.751, 3.4797020E-02
3270.679, 3.5244871E-02
3272.608, 3.4783188E-02
3274.536, 3.3463411E-02
3276.465, 3.1947441E-02
3278.393, 3.3877540E-02
3280.322, 3.5597712E-02
3282.250, 3.5368111E-02
3284.179, 3.4509789E-02
3286.107, 3.4866750E-02
3288.036, 3.5137750E-02
3289.964, 3.4834731E-02
3291.893, 3.5732329E-02
3293.821, 3.6825441E-02
3295.750, 3.5973620E-02
3297.678, 3.5066109E-02
3299.606, 3.4386650E-02
3301.535, 3.4875080E-02
3303.463, 3.6494289E-02
3305.392, 3.6912329E-02
3307.320, 3.6051150E-02
3309.249, 3.4899611E-02
3311.177, 3.5406198E-02
3313.106, 3.5311271E-02
3315.034, 3.4004569E-02
3316.963, 3.4511920E-02
3318.891, 3.5891559E-02
3320.820, 3.6219958E-02
3322.748, 3.5890151E-02
3324.677, 3.5643809E-02
3326.605, 3.5356421E-02
3328.533, 3.7184220E-02
3330.462, 3.7556469E-02
3332.390, 3.6681451E-02
3334.319, 3.6840599E-02
3336.247, 3.7274711E-02
3338.176, 3.6888089E-02
3340.104, 3.5166051E-02
3342.033, 3.6043059E-02
3343.961, 3.6814500E-02
3345.890, 3.8110059E-02
3347.818, 3.9344959E-02
3349.747, 3.9772730E-02
3351.675, 3.9467528E-02
3353.604, 3.7597239E-02
3355.532, 3.6507361E-02
3357.460, 3.6797911E-02
3359.389, 3.8002972E-02
3361.317, 3.7289590E-02
3363.246, 3.5975989E-02
3365.174, 3.6833860E-02
3367.103, 3.7747320E-02
3369.031, 3.7537340E-02
3370.960, 3.6477782E-02
3372.888, 3.7070379E-02
3374.817, 3.8384330E-02
3376.745, 3.8954679E-02
3378.674, 3.9500099E-02
3380.602, 3.9402399E-02
3382.531, 3.7492052E-02
3384.459, 3.4486510E-02
3386.387, 3.3190358E-02
3388.316, 3.6685620E-02
3390.244, 4.0057790E-02
3392.173, 3.8985621E-02
3394.101, 3.7206300E-02
3396.030, 3.7109740E-02
3397.958, 3.7751410E-02
3399.887, 3.7159052E-02
3401.815, 3.6807168E-02
3403.744, 3.8238630E-02
3405.672, 4.0382020E-02
3407.601, 4.1196089E-02
3409.529, 3.7920061E-02
3411.458, 3.6054410E-02
3413.386, 3.8090020E-02
3415.314, 3.8715191E-02
3417.243, 3.8448151E-02
3419.171, 3.7841350E-02
3421.100, 3.7160750E-02
3423.028, 3.6327790E-02
3424.957, 3.7440378E-02
3426.885, 3.9759800E-02
3428.814, 4.0772822E-02
3430.742, 4.1180760E-02
3432.671, 3.9527670E-02
3434.599, 3.7763339E-02
3436.528, 3.8252339E-02
3438.456, 3.8524900E-02
3440.385, 3.8938768E-02
3442.313, 4.2356651E-02
3444.241, 4.1970350E-02
3446.170, 3.6885481E-02
3448.098, 3.8132660E-02
3450.027, 4.0403228E-02
3451.955, 3.9391428E-02
3453.884, 3.9299600E-02
3455.812, 3.9893270E-02
3457.741, 3.7319720E-02
3459.669, 3.7640698E-02
3461.598, 3.8566232E-02
3463.526, 3.7729379E-02
3465.455, 3.8253110E-02
3467.383, 3.8986120E-02
3469.312, 3.7704121E-02
3471.240, 3.6230341E-02
3473.168, 3.7859321E-02
3475.097, 3.7321970E-02
3477.025, 3.8743202E-02
3478.954, 3.8938191E-02
3480.882, 3.8944978E-02
3482.811, 3.8450021E-02
3484.739, 3.7686050E-02
3486.668, 3.8905639E-02
3488.596, 3.8749501E-02
3490.525, 3.8297459E-02
3492.453, 3.9292820E-02
3494.382, 3.8608991E-02
3496.310, 3.8369492E-02
3498.239, 4.0617190E-02
3500.167, 4.0565249E-02
3502.095, 3.8390730E-02
3504.024, 3.8036130E-02
3505.952, 3.8218349E-02
3507.881, 3.6967840E-02
3509.809, 3.5091750E-02
3511.738, 3.4438331E-02
3513.666, 3.6187991E-02
3515.595, 3.5885818E-02
3517.523, 3.5112221E-02
3519.452, 3.7642710E-02
3521.380, 3.6445830E-02
3523.309, 3.4059562E-02
3525.237, 3.6033642E-02
3527.166, 3.6865052E-02
3529.094, 3.7651401E-02
3531.022, 3.7522100E-02
3532.951, 3.7990950E-02
3534.879, 3.6717370E-02
3536.808, 3.6906291E-02
3538.736, 3.7248690E-02
3540.665, 3.6201902E-02
3542.593, 3.6774419E-02
3544.522, 3.5713810E-02
3546.450, 3.5637151E-02
3548.379, 3.7857741E-02
3550.307, 4.0633440E-02
3552.236, 4.1289829E-02
3554.164, 4.1368369E-02
3556.093, 4.1033819E-02
3558.021, 3.7792329E-02
3559.949, 3.5169821E-02
3561.878, 3.5227738E-02
3563.806, 3.4714650E-02
3565.735, 3.6099501E-02
3567.663, 3.7108269E-02
3569.592, 3.6620472E-02
3571.520, 3.7559818E-02
3573.449, 3.8542829E-02
3575.377, 3.9172560E-02
3577.306, 3.7647739E-02
3579.234, 3.4154490E-02
3581.163, 3.6273059E-02
3583.091, 3.8777068E-02
3585.020, 3.9333750E-02
3586.948, 3.9484732E-02
3588.876, 3.7278488E-02
3590.805, 3.3427160E-02
3592.733, 3.3460312E-02
3594.662, 3.5947800E-02
3596.590, 3.5672251E-02
3598.519, 3.7225399E-02
3600.447, 3.7342720E-02
3602.376, 3.3080321E-02
3604.304, 3.2921899E-02
3606.233, 3.5813492E-02
3608.161, 3.5771482E-02
3610.090, 3.4354530E-02
3612.018, 3.6597840E-02
3613.947, 3.7163291E-02
3615.875, 3.5545710E-02
3617.803, 3.4294020E-02
3619.732, 3.1652171E-02
3621.660, 3.5248011E-02
3623.589, 3.9078590E-02
3625.517, 3.4519151E-02
3627.446, 3.0796440E-02
3629.374, 2.9731590E-02
3631.303, 3.3065662E-02
3633.231, 3.5021000E-02
3635.160, 3.1436980E-02
3637.088, 3.2420721E-02
3639.017, 3.4788191E-02
3640.945, 3.2060239E-02
3642.874, 3.0686440E-02
3644.802, 3.1784281E-02
3646.730, 3.4403238E-02
3648.659, 3.6071680E-02
3650.587, 3.6404841E-02
3652.516, 3.4454849E-02
3654.444, 3.2660339E-02
3656.373, 3.0590169E-02
3658.301, 2.7840950E-02
3660.230, 2.9982381E-02
3662.158, 3.2497302E-02
3664.087, 3.5571169E-02
3666.015, 3.5278879E-02
3667.944, 3.3145029E-02
3669.872, 3.3051342E-02
3671.801, 3.3578921E-02
3673.729, 3.0732410E-02
3675.657, 2.9292330E-02
3677.586, 3.1106440E-02
3679.514, 3.4924351E-02
3681.443, 3.6388181E-02
3683.371, 3.4937508E-02
3685.300, 3.4989621E-02
3687.228, 3.5027038E-02
3689.157, 3.6173459E-02
3691.085, 3.3706199E-02
3693.014, 2.9141661E-02
3694.942, 3.0869801E-02
3696.871, 3.2374069E-02
3698.799, 3.0343650E-02
3700.728, 3.1180030E-02
3702.656, 3.0593600E-02
3704.584, 3.0309061E-02
3706.513, 3.3103500E-02
3708.441, 3.3659909E-02
3710.370, 3.1725250E-02
3712.298, 3.2067820E-02
3714.227, 3.2997411E-02
3716.155, 3.4707651E-02
3718.084, 3.5765842E-02
3720.012, 3.5366692E-02
3721.941, 3.5389058E-02
3723.869, 3.2960791E-02
3725.798, 3.2182161E-02
3727.726, 3.5517421E-02
3729.655, 3.4251131E-02
3731.583, 3.0399799E-02
3733.511, 3.1793941E-02
3735.440, 3.2198031E-02
3737.368, 3.1411480E-02
3739.297, 3.0113230E-02
3741.225, 3.2045089E-02
3743.154, 3.2537431E-02
3745.082, 3.1159669E-02
3747.011, 3.4340899E-02
3748.939, 3.3797290E-02
3750.868, 3.2549448E-02
3752.796, 3.3066839E-02
3754.725, 3.3605590E-02
3756.653, 3.4027979E-02
3758.582, 3.3068750E-02
3760.510, 3.1941380E-02
3762.438, 3.3145562E-02
3764.367, 3.4115549E-02
3766.295, 3.6591869E-02
3768.224, 3.7280690E-02
3770.152, 3.5238769E-02
3772.081, 3.2609731E-02
3774.009, 3.4900378E-02
3775.938, 3.5382461E-02
3777.866, 3.2180458E-02
3779.795, 3.1110860E-02
3781.723, 3.0905820E-02
3783.652, 3.0119130E-02
3785.580, 2.9225780E-02
3787.509, 2.9767960E-02
3789.437, 3.2478150E-02
3791.365, 3.3326939E-02
3793.294, 3.4877919E-02
3795.222, 3.6904931E-02
3797.151, 3.3688009E-02
3799.079, 3.2158472E-02
3801.008, 3.4323141E-02
3802.936, 3.7555791E-02
3804.865, 3.5846509E-02
3806.793, 3.4145009E-02
3808.722, 3.3734638E-02
3810.650, 3.5764121E-02
3812.579, 3.5925381E-02
3814.507, 3.2720599E-02
3816.436, 3.1661440E-02
3818.364, 3.3008430E-02
3820.292, 3.4911811E-02
3822.221, 3.6384359E-02
3824.149, 3.6534440E-02
3826.078, 3.4201890E-02
3828.006, 3.3204488E-02
3829.935, 3.3278309E-02
3831.863, 3.5661079E-02
3833.792, 3.6517091E-02
3835.720, 3.6193568E-02
3837.649, 3.1762779E-02
3839.577, 3.2299429E-02
3841.506, 3.3442222E-02
3843.434, 3.1613380E-02
3845.363, 3.0314781E-02
3847.291, 3.2025401E-02
3849.219, 3.5945609E-02
3851.148, 3.7195358E-02
3853.076, 3.5758711E-02
3855.005, 3.8218960E-02
3856.933, 3.7865750E-02
3858.862, 3.4382708E-02
3860.790, 3.5264269E-02
3862.719, 3.5679542E-02
3864.647, 3.3207651E-02
3866.576, 3.2980919E-02
3868.504, 3.2518860E-02
3870.433, 3.0796610E-02
3872.361, 3.2175232E-02
3874.290, 3.2692619E-02
3876.218, 3.5681572E-02
3878.146, 3.6703561E-02
3880.075, 3.4197509E-02
3882.003, 3.2023560E-02
3883.932, 3.4393430E-02
3885.860, 3.5538219E-02
3887.789, 3.3758141E-02
3889.717, 3.2535560E-02
3891.646, 3.5430871E-02
3893.574, 3.7151281E-02
3895.503, 3.5264470E-02
3897.431, 3.6273260E-02
3899.360, 3.5742309E-02
3901.288, 3.6102749E-02
3903.217, 3.7431940E-02
3905.145, 3.6500521E-02
3907.073, 3.6446720E-02
3909.002, 3.4695011E-02
3910.930, 3.2160889E-02
3912.859, 3.3441812E-02
3914.787, 3.3679899E-02
3916.716, 3.2100420E-02
3918.644, 3.1683609E-02
3920.573, 3.5597399E-02
3922.501, 3.7088942E-02
3924.430, 3.5622329E-02
3926.358, 3.4959279E-02
3928.287, 3.5096161E-02
3930.215, 3.4504268E-02
3932.144, 3.5020500E-02
3934.072, 3.5927899E-02
3936.000, 3.5964951E-02
3937.929, 3.7101340E-02
3939.857, 3.7533648E-02
3941.786, 3.7432808E-02
3943.714, 3.6618441E-02
3945.643, 3.6309961E-02
3947.571, 3.4935620E-02
3949.500, 3.3967052E-02
3951.428, 3.4394208E-02
3953.357, 3.3285029E-02
3955.285, 3.6455579E-02
3957.214, 4.0422961E-02
3959.142, 3.5636049E-02
3961.071, 3.5902519E-02
3962.999, 3.9267860E-02
3964.927, 3.8284201E-02
3966.856, 3.5684679E-02
3968.784, 3.8440838E-02
3970.713, 4.2204268E-02
3972.641, 4.1724399E-02
3974.570, 3.8273621E-02
3976.498, 3.6627151E-02
3978.427, 3.3892229E-02
3980.355, 3.4137052E-02
3982.284, 3.7741732E-02
3984.212, 3.6132090E-02
3986.141, 3.4295920E-02
3988.069, 3.7517421E-02
3989.998, 3.8430829E-02
3991.926, 3.9399561E-02
3993.854, 3.8812488E-02
3995.783, 3.8648728E-02
3997.711, 3.6384359E-02
3999.640, 3.6401909E-02
##END=



