##NAMES=Stibnite
##RRUFFID=R050066
##IDEAL CHEMISTRY=Sb^3+^_2_S^2-^_3_
##LOCALITY=Wuling, Jiangxi Province, China
##OWNER=RRUFF
##SOURCE=Rock Currier
##DESCRIPTION=Lead-gray prismatic crystal
##STATUS=The identification of this mineral has been confirmed by X-ray diffraction and chemical analysis
##URL=rruff.info/R050066
##MEASURED CHEMISTRY=Sb_2.00_S_3.00_
3.741225e+002, 1.163556e-001
3.760510e+002, 1.225821e-001
3.779795e+002, 1.255905e-001
3.799079e+002, 1.268346e-001
3.818364e+002, 1.252883e-001
3.837649e+002, 1.316375e-001
3.856933e+002, 1.381429e-001
3.876218e+002, 1.362394e-001
3.895503e+002, 1.356095e-001
3.914787e+002, 1.363475e-001
3.934072e+002, 1.414587e-001
3.953357e+002, 1.456185e-001
3.972641e+002, 1.511883e-001
3.991926e+002, 1.547322e-001
4.011211e+002, 1.533153e-001
4.030495e+002, 1.540689e-001
4.049780e+002, 1.583744e-001
4.069065e+002, 1.586044e-001
4.088349e+002, 1.575038e-001
4.107634e+002, 1.590442e-001
4.126919e+002, 1.633582e-001
4.146203e+002, 1.649415e-001
4.165488e+002, 1.638806e-001
4.184773e+002, 1.641997e-001
4.204057e+002, 1.660356e-001
4.223342e+002, 1.681035e-001
4.242627e+002, 1.689272e-001
4.261911e+002, 1.710640e-001
4.281196e+002, 1.721183e-001
4.300481e+002, 1.720406e-001
4.319765e+002, 1.746666e-001
4.339050e+002, 1.766209e-001
4.358335e+002, 1.770329e-001
4.377619e+002, 1.768172e-001
4.396904e+002, 1.770667e-001
4.416189e+002, 1.783138e-001
4.435473e+002, 1.810848e-001
4.454758e+002, 1.811770e-001
4.474043e+002, 1.830128e-001
4.493327e+002, 1.850050e-001
4.512612e+002, 1.849749e-001
4.531897e+002, 1.855129e-001
4.551181e+002, 1.867708e-001
4.570466e+002, 1.869181e-001
4.589751e+002, 1.873794e-001
4.609035e+002, 1.875257e-001
4.628320e+002, 1.896051e-001
4.647605e+002, 1.907248e-001
4.666889e+002, 1.908593e-001
4.686174e+002, 1.909910e-001
4.705459e+002, 1.914160e-001
4.724743e+002, 1.926851e-001
4.744028e+002, 1.924611e-001
4.763313e+002, 1.927957e-001
4.782597e+002, 1.951569e-001
4.801882e+002, 1.970419e-001
4.821167e+002, 1.973611e-001
4.840451e+002, 1.977456e-001
4.859736e+002, 1.987316e-001
4.879021e+002, 1.991286e-001
4.898305e+002, 2.003486e-001
4.917590e+002, 2.012298e-001
4.936875e+002, 2.020191e-001
4.956159e+002, 2.019009e-001
4.975444e+002, 2.032906e-001
4.994729e+002, 2.035970e-001
5.014013e+002, 2.038191e-001
5.033298e+002, 2.049819e-001
5.052583e+002, 2.066063e-001
5.071867e+002, 2.081382e-001
5.091152e+002, 2.071749e-001
5.110437e+002, 2.078660e-001
5.129721e+002, 2.095087e-001
5.149006e+002, 2.100700e-001
5.168290e+002, 2.104829e-001
5.187575e+002, 2.111648e-001
5.206860e+002, 2.119438e-001
5.226144e+002, 2.123586e-001
5.245429e+002, 2.135565e-001
5.264714e+002, 2.148969e-001
5.283998e+002, 2.150257e-001
5.303283e+002, 2.160003e-001
5.322568e+002, 2.161205e-001
5.341852e+002, 2.164360e-001
5.361137e+002, 2.174417e-001
5.380422e+002, 2.173847e-001
5.399706e+002, 2.177939e-001
5.418991e+002, 2.194839e-001
5.438276e+002, 2.202942e-001
5.457560e+002, 2.195166e-001
5.476845e+002, 2.197756e-001
5.496130e+002, 2.204243e-001
5.515414e+002, 2.209379e-001
5.534699e+002, 2.221126e-001
5.553984e+002, 2.222804e-001
5.573268e+002, 2.228207e-001
5.592553e+002, 2.229948e-001
5.611838e+002, 2.236830e-001
5.631122e+002, 2.237022e-001
5.650407e+002, 2.238539e-001
5.669692e+002, 2.248536e-001
5.688976e+002, 2.253456e-001
5.708261e+002, 2.259863e-001
5.727546e+002, 2.267496e-001
5.746830e+002, 2.273657e-001
5.766115e+002, 2.271926e-001
5.785400e+002, 2.280200e-001
5.804684e+002, 2.286224e-001
5.823969e+002, 2.293775e-001
5.843254e+002, 2.295043e-001
5.862538e+002, 2.306179e-001
5.881823e+002, 2.312218e-001
5.901108e+002, 2.311153e-001
5.920392e+002, 2.318952e-001
5.939677e+002, 2.329410e-001
5.958962e+002, 2.335132e-001
5.978246e+002, 2.334284e-001
5.997531e+002, 2.338210e-001
6.016816e+002, 2.343282e-001
6.036100e+002, 2.346347e-001
6.055385e+002, 2.357432e-001
6.074670e+002, 2.367353e-001
6.093954e+002, 2.366022e-001
6.113239e+002, 2.367359e-001
6.132524e+002, 2.371563e-001
6.151808e+002, 2.381189e-001
6.171093e+002, 2.391621e-001
6.190378e+002, 2.397683e-001
6.209662e+002, 2.401401e-001
6.228947e+002, 2.407483e-001
6.248232e+002, 2.408204e-001
6.267516e+002, 2.411514e-001
6.286801e+002, 2.421896e-001
6.306086e+002, 2.429703e-001
6.325370e+002, 2.430579e-001
6.344655e+002, 2.434176e-001
6.363940e+002, 2.439243e-001
6.383224e+002, 2.445274e-001
6.402509e+002, 2.450843e-001
6.421794e+002, 2.452312e-001
6.441078e+002, 2.456122e-001
6.460363e+002, 2.462872e-001
6.479648e+002, 2.465005e-001
6.498932e+002, 2.465652e-001
6.518217e+002, 2.468420e-001
6.537502e+002, 2.470892e-001
6.556786e+002, 2.480025e-001
6.576071e+002, 2.485307e-001
6.595356e+002, 2.488845e-001
6.614641e+002, 2.494789e-001
6.633925e+002, 2.499820e-001
6.653210e+002, 2.506509e-001
6.672495e+002, 2.514771e-001
6.691779e+002, 2.514856e-001
6.711064e+002, 2.512569e-001
6.730349e+002, 2.517786e-001
6.749633e+002, 2.527755e-001
6.768918e+002, 2.532528e-001
6.788203e+002, 2.531289e-001
6.807487e+002, 2.535135e-001
6.826772e+002, 2.542115e-001
6.846057e+002, 2.546104e-001
6.865341e+002, 2.551124e-001
6.884626e+002, 2.555237e-001
6.903911e+002, 2.559828e-001
6.923195e+002, 2.568381e-001
6.942480e+002, 2.571313e-001
6.961765e+002, 2.575346e-001
6.981049e+002, 2.581089e-001
7.000334e+002, 2.586273e-001
7.019619e+002, 2.582073e-001
7.038903e+002, 2.588547e-001
7.058188e+002, 2.593868e-001
7.077473e+002, 2.595283e-001
7.096757e+002, 2.596552e-001
7.116042e+002, 2.605726e-001
7.135327e+002, 2.610615e-001
7.154611e+002, 2.612025e-001
7.173896e+002, 2.618576e-001
7.193181e+002, 2.625830e-001
7.212465e+002, 2.625446e-001
7.231750e+002, 2.628708e-001
7.251035e+002, 2.639741e-001
7.270319e+002, 2.639315e-001
7.289604e+002, 2.642050e-001
7.308889e+002, 2.647384e-001
7.328173e+002, 2.647815e-001
7.347458e+002, 2.651206e-001
7.366743e+002, 2.659345e-001
7.386027e+002, 2.665722e-001
7.405312e+002, 2.669628e-001
7.424597e+002, 2.669054e-001
7.443881e+002, 2.672879e-001
7.463166e+002, 2.680854e-001
7.482451e+002, 2.683683e-001
7.501735e+002, 2.686809e-001
7.521020e+002, 2.692114e-001
7.540305e+002, 2.696259e-001
7.559589e+002, 2.697520e-001
7.578874e+002, 2.697977e-001
7.598159e+002, 2.705531e-001
7.617443e+002, 2.708866e-001
7.636728e+002, 2.709988e-001
7.656013e+002, 2.714879e-001
7.675297e+002, 2.721229e-001
7.694582e+002, 2.724319e-001
7.713867e+002, 2.727680e-001
7.733151e+002, 2.729741e-001
7.752436e+002, 2.735989e-001
7.771721e+002, 2.742653e-001
7.791005e+002, 2.749977e-001
7.810290e+002, 2.755618e-001
7.829575e+002, 2.760836e-001
7.848859e+002, 2.758086e-001
7.868144e+002, 2.759993e-001
7.887429e+002, 2.766100e-001
7.906713e+002, 2.775092e-001
7.925998e+002, 2.781214e-001
7.945283e+002, 2.781101e-001
7.964567e+002, 2.787203e-001
7.983852e+002, 2.790741e-001
8.003137e+002, 2.793185e-001
8.022421e+002, 2.797302e-001
8.041706e+002, 2.805800e-001
8.060991e+002, 2.812188e-001
8.080275e+002, 2.815014e-001
8.099560e+002, 2.821810e-001
8.118845e+002, 2.825723e-001
8.138129e+002, 2.825733e-001
8.157414e+002, 2.828187e-001
8.176699e+002, 2.829825e-001
8.195983e+002, 2.831852e-001
8.215268e+002, 2.836622e-001
8.234553e+002, 2.840821e-001
8.253837e+002, 2.843536e-001
8.273122e+002, 2.850219e-001
8.292407e+002, 2.854238e-001
8.311691e+002, 2.856705e-001
8.330976e+002, 2.855236e-001
8.350261e+002, 2.858054e-001
8.369545e+002, 2.859119e-001
8.388830e+002, 2.860891e-001
8.408115e+002, 2.865154e-001
8.427399e+002, 2.871677e-001
8.446684e+002, 2.878124e-001
8.465969e+002, 2.879435e-001
8.485253e+002, 2.880451e-001
8.504538e+002, 2.885909e-001
8.523823e+002, 2.891361e-001
8.543107e+002, 2.895325e-001
8.562392e+002, 2.898159e-001
8.581677e+002, 2.911639e-001
8.600961e+002, 2.918116e-001
8.620246e+002, 2.919213e-001
8.639531e+002, 2.921181e-001
8.658815e+002, 2.928659e-001
8.678100e+002, 2.937569e-001
8.697385e+002, 2.940582e-001
8.716669e+002, 2.943047e-001
8.735954e+002, 2.946114e-001
8.755239e+002, 2.952116e-001
8.774523e+002, 2.956527e-001
8.793808e+002, 2.960127e-001
8.813093e+002, 2.967987e-001
8.832377e+002, 2.971129e-001
8.851662e+002, 2.972979e-001
8.870947e+002, 2.980520e-001
8.890231e+002, 2.983705e-001
8.909516e+002, 2.987229e-001
8.928801e+002, 2.993207e-001
8.948085e+002, 2.997285e-001
8.967370e+002, 2.999950e-001
8.986655e+002, 3.007441e-001
9.005939e+002, 3.011044e-001
9.025224e+002, 3.014781e-001
9.044509e+002, 3.019212e-001
9.063793e+002, 3.023310e-001
9.083078e+002, 3.028192e-001
9.102363e+002, 3.031371e-001
9.121647e+002, 3.035235e-001
9.140932e+002, 3.038915e-001
9.160217e+002, 3.042480e-001
9.179501e+002, 3.047388e-001
9.198786e+002, 3.053274e-001
9.218071e+002, 3.057863e-001
9.237355e+002, 3.062668e-001
9.256640e+002, 3.066859e-001
9.275925e+002, 3.071579e-001
9.295209e+002, 3.076164e-001
9.314494e+002, 3.080394e-001
9.333779e+002, 3.085541e-001
9.353063e+002, 3.091274e-001
9.372348e+002, 3.096586e-001
9.391633e+002, 3.102087e-001
9.410917e+002, 3.107235e-001
9.430202e+002, 3.107791e-001
9.449487e+002, 3.109382e-001
9.468771e+002, 3.114086e-001
9.488056e+002, 3.118269e-001
9.507341e+002, 3.122359e-001
9.526625e+002, 3.126141e-001
9.545910e+002, 3.130429e-001
9.565195e+002, 3.134504e-001
9.584479e+002, 3.136960e-001
9.603764e+002, 3.140508e-001
9.623049e+002, 3.145123e-001
9.642333e+002, 3.149741e-001
9.661618e+002, 3.152511e-001
9.680903e+002, 3.155457e-001
9.700187e+002, 3.160746e-001
9.719472e+002, 3.166950e-001
9.738757e+002, 3.169338e-001
9.758041e+002, 3.171292e-001
9.777326e+002, 3.174812e-001
9.796611e+002, 3.179181e-001
9.815895e+002, 3.183027e-001
9.835180e+002, 3.183943e-001
9.854465e+002, 3.186707e-001
9.873749e+002, 3.191215e-001
9.893034e+002, 3.195238e-001
9.912319e+002, 3.197781e-001
9.931603e+002, 3.203063e-001
9.950888e+002, 3.208269e-001
9.970173e+002, 3.210769e-001
9.989457e+002, 3.213692e-001
1.000874e+003, 3.216093e-001
1.002803e+003, 3.217033e-001
1.004731e+003, 3.220329e-001
1.006660e+003, 3.225121e-001
1.008588e+003, 3.229090e-001
1.010517e+003, 3.234224e-001
1.012445e+003, 3.240896e-001
1.014373e+003, 3.243581e-001
1.016302e+003, 3.244067e-001
1.018230e+003, 3.246620e-001
1.020159e+003, 3.251189e-001
1.022087e+003, 3.254401e-001
1.024016e+003, 3.258969e-001
1.025944e+003, 3.263274e-001
1.027873e+003, 3.266010e-001
1.029801e+003, 3.268855e-001
1.031730e+003, 3.271254e-001
1.033658e+003, 3.273128e-001
1.035587e+003, 3.276619e-001
1.037515e+003, 3.281691e-001
1.039443e+003, 3.287209e-001
1.041372e+003, 3.290467e-001
1.043300e+003, 3.291743e-001
1.045229e+003, 3.292583e-001
1.047157e+003, 3.297069e-001
1.049086e+003, 3.302718e-001
1.051014e+003, 3.305952e-001
1.052943e+003, 3.308964e-001
1.054871e+003, 3.310319e-001
1.056800e+003, 3.310899e-001
1.058728e+003, 3.313595e-001
1.060657e+003, 3.315847e-001
1.062585e+003, 3.320941e-001
1.064514e+003, 3.326265e-001
1.066442e+003, 3.327722e-001
1.068370e+003, 3.328449e-001
1.070299e+003, 3.332187e-001
1.072227e+003, 3.335887e-001
1.074156e+003, 3.339031e-001
1.076084e+003, 3.342897e-001
1.078013e+003, 3.347145e-001
1.079941e+003, 3.350580e-001
1.081870e+003, 3.353470e-001
1.083798e+003, 3.355395e-001
1.085727e+003, 3.357095e-001
1.087655e+003, 3.361676e-001
1.089584e+003, 3.366522e-001
1.091512e+003, 3.369464e-001
1.093441e+003, 3.371657e-001
1.095369e+003, 3.375739e-001
1.097297e+003, 3.381736e-001
1.099226e+003, 3.385759e-001
1.101154e+003, 3.387921e-001
1.103083e+003, 3.390695e-001
1.105011e+003, 3.395467e-001
1.106940e+003, 3.400467e-001
1.108868e+003, 3.403629e-001
1.110797e+003, 3.404936e-001
1.112725e+003, 3.407780e-001
1.114654e+003, 3.410432e-001
1.116582e+003, 3.414564e-001
1.118511e+003, 3.418984e-001
1.120439e+003, 3.422725e-001
1.122368e+003, 3.426320e-001
1.124296e+003, 3.430426e-001
1.126224e+003, 3.434704e-001
1.128153e+003, 3.439414e-001
1.130081e+003, 3.446419e-001
1.132010e+003, 3.452717e-001
1.133938e+003, 3.459609e-001
1.135867e+003, 3.466390e-001
1.137795e+003, 3.471023e-001
1.139724e+003, 3.475426e-001
1.141652e+003, 3.482105e-001
1.143581e+003, 3.487673e-001
1.145509e+003, 3.491783e-001
1.147438e+003, 3.493736e-001
1.149366e+003, 3.494478e-001
1.151295e+003, 3.496693e-001
1.153223e+003, 3.500156e-001
1.155151e+003, 3.502092e-001
1.157080e+003, 3.503981e-001
1.159008e+003, 3.504895e-001
1.160937e+003, 3.505308e-001
1.162865e+003, 3.506981e-001
1.164794e+003, 3.508248e-001
1.166722e+003, 3.509707e-001
1.168651e+003, 3.511325e-001
1.170579e+003, 3.514104e-001
1.172508e+003, 3.517430e-001
1.174436e+003, 3.520356e-001
1.176365e+003, 3.522494e-001
1.178293e+003, 3.525076e-001
1.180222e+003, 3.527990e-001
1.182150e+003, 3.531348e-001
1.184078e+003, 3.535413e-001
1.186007e+003, 3.538210e-001
1.187935e+003, 3.542992e-001
1.189864e+003, 3.548709e-001
1.191792e+003, 3.550868e-001
1.193721e+003, 3.554500e-001
1.195649e+003, 3.559433e-001
1.197578e+003, 3.562969e-001
1.199506e+003, 3.566276e-001
1.201435e+003, 3.569736e-001
1.203363e+003, 3.570956e-001
1.205292e+003, 3.572523e-001
1.207220e+003, 3.574960e-001
1.209149e+003, 3.577661e-001
1.211077e+003, 3.580157e-001
1.213005e+003, 3.581688e-001
1.214934e+003, 3.586139e-001
1.216862e+003, 3.590651e-001
1.218791e+003, 3.591924e-001
1.220719e+003, 3.595694e-001
1.222648e+003, 3.599093e-001
1.224576e+003, 3.601155e-001
1.226505e+003, 3.603822e-001
1.228433e+003, 3.603853e-001
1.230362e+003, 3.605024e-001
1.232290e+003, 3.607732e-001
1.234219e+003, 3.609276e-001
1.236147e+003, 3.611283e-001
1.238076e+003, 3.614767e-001
1.240004e+003, 3.618707e-001
1.241932e+003, 3.621971e-001
1.243861e+003, 3.623673e-001
1.245789e+003, 3.625891e-001
1.247718e+003, 3.629275e-001
1.249646e+003, 3.631675e-001
1.251575e+003, 3.634339e-001
1.253503e+003, 3.637391e-001
1.255432e+003, 3.639826e-001
1.257360e+003, 3.640756e-001
1.259289e+003, 3.640696e-001
1.261217e+003, 3.642973e-001
1.263146e+003, 3.644822e-001
1.265074e+003, 3.646708e-001
1.267003e+003, 3.650845e-001
1.268931e+003, 3.654882e-001
1.270859e+003, 3.658150e-001
1.272788e+003, 3.660847e-001
1.274716e+003, 3.664321e-001
1.276645e+003, 3.668237e-001
1.278573e+003, 3.672867e-001
1.280502e+003, 3.675780e-001
1.282430e+003, 3.678137e-001
1.284359e+003, 3.682861e-001
1.286287e+003, 3.686012e-001
1.288216e+003, 3.689037e-001
1.290144e+003, 3.689993e-001
1.292073e+003, 3.691685e-001
1.294001e+003, 3.696367e-001
1.295930e+003, 3.700149e-001
1.297858e+003, 3.703190e-001
1.299786e+003, 3.706866e-001
1.301715e+003, 3.709342e-001
1.303643e+003, 3.712841e-001
1.305572e+003, 3.714570e-001
1.307500e+003, 3.715121e-001
1.309429e+003, 3.718320e-001
1.311357e+003, 3.721847e-001
1.313286e+003, 3.725307e-001
1.315214e+003, 3.728704e-001
1.317143e+003, 3.729420e-001
1.319071e+003, 3.730294e-001
1.321000e+003, 3.732826e-001
1.322928e+003, 3.735867e-001
1.324857e+003, 3.738643e-001
1.326785e+003, 3.741652e-001
1.328714e+003, 3.743111e-001
1.330642e+003, 3.745578e-001
1.332570e+003, 3.749965e-001
1.334499e+003, 3.754165e-001
1.336427e+003, 3.757520e-001
1.338356e+003, 3.759734e-001
1.340284e+003, 3.762731e-001
1.342213e+003, 3.764350e-001
1.344141e+003, 3.766652e-001
1.346070e+003, 3.770832e-001
1.347998e+003, 3.775161e-001
1.349927e+003, 3.779861e-001
1.351855e+003, 3.783494e-001
1.353784e+003, 3.788437e-001
1.355712e+003, 3.793445e-001
1.357641e+003, 3.796781e-001
1.359569e+003, 3.800849e-001
1.361497e+003, 3.805520e-001
1.363426e+003, 3.809631e-001
1.365354e+003, 3.813700e-001
1.367283e+003, 3.817168e-001
1.369211e+003, 3.819724e-001
1.371140e+003, 3.822404e-001
1.373068e+003, 3.827406e-001
1.374997e+003, 3.829758e-001
1.376925e+003, 3.832748e-001
1.378854e+003, 3.836177e-001
1.380782e+003, 3.837801e-001
1.382711e+003, 3.839434e-001
1.384639e+003, 3.839450e-001
1.386568e+003, 3.840553e-001
1.388496e+003, 3.842652e-001
1.390424e+003, 3.845578e-001
1.392353e+003, 3.848166e-001
1.394281e+003, 3.851544e-001
1.396210e+003, 3.854016e-001
1.398138e+003, 3.856625e-001
1.400067e+003, 3.859278e-001
1.401995e+003, 3.862632e-001
1.403924e+003, 3.867305e-001
1.405852e+003, 3.870054e-001
1.407781e+003, 3.871427e-001
1.409709e+003, 3.872775e-001
1.411638e+003, 3.874951e-001
1.413566e+003, 3.878706e-001
1.415495e+003, 3.881405e-001
1.417423e+003, 3.884152e-001
1.419351e+003, 3.887602e-001
1.421280e+003, 3.889446e-001
1.423208e+003, 3.892935e-001
1.425137e+003, 3.897170e-001
1.427065e+003, 3.899783e-001
1.428994e+003, 3.902099e-001
1.430922e+003, 3.905431e-001
1.432851e+003, 3.907830e-001
1.434779e+003, 3.914184e-001
1.436708e+003, 3.921849e-001
1.438636e+003, 3.924118e-001
1.440565e+003, 3.925731e-001
1.442493e+003, 3.930019e-001
1.444422e+003, 3.932713e-001
1.446350e+003, 3.937337e-001
1.448278e+003, 3.943074e-001
1.450207e+003, 3.946561e-001
1.452135e+003, 3.950484e-001
1.454064e+003, 3.954079e-001
1.455992e+003, 3.960287e-001
1.457921e+003, 3.963606e-001
1.459849e+003, 3.963753e-001
1.461778e+003, 3.964895e-001
1.463706e+003, 3.968870e-001
1.465635e+003, 3.971941e-001
1.467563e+003, 3.970925e-001
1.469492e+003, 3.970158e-001
1.471420e+003, 3.973557e-001
1.473349e+003, 3.974561e-001
1.475277e+003, 3.972774e-001
1.477205e+003, 3.972616e-001
1.479134e+003, 3.973908e-001
1.481062e+003, 3.977182e-001
1.482991e+003, 3.980304e-001
1.484919e+003, 3.982286e-001
1.486848e+003, 3.986228e-001
1.488776e+003, 3.991278e-001
1.490705e+003, 3.995115e-001
1.492633e+003, 3.999033e-001
1.494562e+003, 4.002941e-001
1.496490e+003, 4.006374e-001
1.498419e+003, 4.009671e-001
1.500347e+003, 4.012392e-001
1.502276e+003, 4.013106e-001
1.504204e+003, 4.016488e-001
1.506132e+003, 4.023779e-001
1.508061e+003, 4.027226e-001
1.509989e+003, 4.025737e-001
1.511918e+003, 4.026585e-001
1.513846e+003, 4.027864e-001
1.515775e+003, 4.028265e-001
1.517703e+003, 4.031068e-001
1.519632e+003, 4.034306e-001
1.521560e+003, 4.037072e-001
1.523489e+003, 4.038435e-001
1.525417e+003, 4.042453e-001
1.527346e+003, 4.045256e-001
1.529274e+003, 4.047301e-001
1.531203e+003, 4.048835e-001
1.533131e+003, 4.051714e-001
1.535059e+003, 4.054575e-001
1.536988e+003, 4.058004e-001
1.538916e+003, 4.064870e-001
1.540845e+003, 4.068353e-001
1.542773e+003, 4.068481e-001
1.544702e+003, 4.069553e-001
1.546630e+003, 4.070644e-001
1.548559e+003, 4.074533e-001
1.550487e+003, 4.078928e-001
1.552416e+003, 4.080497e-001
1.554344e+003, 4.083224e-001
1.556273e+003, 4.086792e-001
1.558201e+003, 4.091721e-001
1.560130e+003, 4.093654e-001
1.562058e+003, 4.092249e-001
1.563986e+003, 4.093334e-001
1.565915e+003, 4.094616e-001
1.567843e+003, 4.100376e-001
1.569772e+003, 4.106802e-001
1.571700e+003, 4.107581e-001
1.573629e+003, 4.110087e-001
1.575557e+003, 4.115933e-001
1.577486e+003, 4.117851e-001
1.579414e+003, 4.118004e-001
1.581343e+003, 4.121074e-001
1.583271e+003, 4.123966e-001
1.585200e+003, 4.126358e-001
1.587128e+003, 4.129909e-001
1.589057e+003, 4.132257e-001
1.590985e+003, 4.134728e-001
1.592913e+003, 4.137647e-001
1.594842e+003, 4.139274e-001
1.596770e+003, 4.143010e-001
1.598699e+003, 4.146840e-001
1.600627e+003, 4.150742e-001
1.602556e+003, 4.153348e-001
1.604484e+003, 4.154986e-001
1.606413e+003, 4.155756e-001
1.608341e+003, 4.157581e-001
1.610270e+003, 4.158595e-001
1.612198e+003, 4.160286e-001
1.614127e+003, 4.163794e-001
1.616055e+003, 4.169692e-001
1.617984e+003, 4.171458e-001
1.619912e+003, 4.171900e-001
1.621840e+003, 4.174915e-001
1.623769e+003, 4.180101e-001
1.625697e+003, 4.183544e-001
1.627626e+003, 4.183079e-001
1.629554e+003, 4.184490e-001
1.631483e+003, 4.187519e-001
1.633411e+003, 4.193235e-001
1.635340e+003, 4.197899e-001
1.637268e+003, 4.197417e-001
1.639197e+003, 4.198796e-001
1.641125e+003, 4.202578e-001
1.643054e+003, 4.203775e-001
1.644982e+003, 4.206401e-001
1.646911e+003, 4.208746e-001
1.648839e+003, 4.208727e-001
1.650767e+003, 4.212412e-001
1.652696e+003, 4.218096e-001
1.654624e+003, 4.216507e-001
1.656553e+003, 4.216617e-001
1.658481e+003, 4.220454e-001
1.660410e+003, 4.224730e-001
1.662338e+003, 4.228431e-001
1.664267e+003, 4.230508e-001
1.666195e+003, 4.232641e-001
1.668124e+003, 4.237054e-001
1.670052e+003, 4.241035e-001
1.671981e+003, 4.241962e-001
1.673909e+003, 4.242304e-001
1.675838e+003, 4.244613e-001
1.677766e+003, 4.247549e-001
1.679694e+003, 4.252709e-001
1.681623e+003, 4.257942e-001
1.683551e+003, 4.262736e-001
1.685480e+003, 4.264173e-001
1.687408e+003, 4.264958e-001
1.689337e+003, 4.267435e-001
1.691265e+003, 4.269934e-001
1.693194e+003, 4.271565e-001
1.695122e+003, 4.277811e-001
1.697051e+003, 4.284187e-001
1.698979e+003, 4.289134e-001
1.700908e+003, 4.292076e-001
1.702836e+003, 4.293130e-001
1.704765e+003, 4.297284e-001
1.706693e+003, 4.298272e-001
1.708621e+003, 4.299155e-001
1.710550e+003, 4.304806e-001
1.712478e+003, 4.310590e-001
1.714407e+003, 4.314136e-001
1.716335e+003, 4.318886e-001
1.718264e+003, 4.322442e-001
1.720192e+003, 4.322779e-001
1.722121e+003, 4.325960e-001
1.724049e+003, 4.330918e-001
1.725978e+003, 4.334792e-001
1.727906e+003, 4.342372e-001
1.729835e+003, 4.346119e-001
1.731763e+003, 4.348698e-001
1.733692e+003, 4.355758e-001
1.735620e+003, 4.358982e-001
1.737548e+003, 4.360417e-001
1.739477e+003, 4.360023e-001
1.741405e+003, 4.358084e-001
1.743334e+003, 4.356093e-001
1.745262e+003, 4.355133e-001
1.747191e+003, 4.354410e-001
1.749119e+003, 4.357193e-001
1.751048e+003, 4.359025e-001
1.752976e+003, 4.356726e-001
1.754905e+003, 4.357591e-001
1.756833e+003, 4.361030e-001
1.758762e+003, 4.361849e-001
1.760690e+003, 4.364514e-001
1.762619e+003, 4.367732e-001
1.764547e+003, 4.370263e-001
1.766475e+003, 4.371078e-001
1.768404e+003, 4.370121e-001
1.770332e+003, 4.375020e-001
1.772261e+003, 4.379015e-001
1.774189e+003, 4.378901e-001
1.776118e+003, 4.377593e-001
1.778046e+003, 4.376966e-001
1.779975e+003, 4.377371e-001
1.781903e+003, 4.380718e-001
1.783832e+003, 4.383156e-001
1.785760e+003, 4.384229e-001
1.787689e+003, 4.384894e-001
1.789617e+003, 4.387783e-001
1.791546e+003, 4.390925e-001
1.793474e+003, 4.389665e-001
1.795402e+003, 4.388952e-001
1.797331e+003, 4.388994e-001
1.799259e+003, 4.390641e-001
1.801188e+003, 4.391338e-001
1.803116e+003, 4.392636e-001
1.805045e+003, 4.395779e-001
1.806973e+003, 4.396701e-001
1.808902e+003, 4.397148e-001
1.810830e+003, 4.399489e-001
1.812759e+003, 4.401894e-001
1.814687e+003, 4.400735e-001
1.816616e+003, 4.400399e-001
1.818544e+003, 4.403979e-001
1.820473e+003, 4.405641e-001
1.822401e+003, 4.404871e-001
1.824329e+003, 4.405690e-001
1.826258e+003, 4.405268e-001
1.828186e+003, 4.406755e-001
1.830115e+003, 4.410638e-001
1.832043e+003, 4.415719e-001
1.833972e+003, 4.417116e-001
1.835900e+003, 4.415166e-001
1.837829e+003, 4.413547e-001
1.839757e+003, 4.416274e-001
1.841686e+003, 4.418684e-001
1.843614e+003, 4.421141e-001
1.845543e+003, 4.421001e-001
1.847471e+003, 4.424934e-001
1.849400e+003, 4.427944e-001
1.851328e+003, 4.427243e-001
1.853256e+003, 4.429086e-001
1.855185e+003, 4.430991e-001
1.857113e+003, 4.434350e-001
1.859042e+003, 4.437310e-001
1.860970e+003, 4.436374e-001
1.862899e+003, 4.435906e-001
1.864827e+003, 4.437476e-001
1.866756e+003, 4.443599e-001
1.868684e+003, 4.446703e-001
1.870613e+003, 4.447065e-001
1.872541e+003, 4.447194e-001
1.874470e+003, 4.445378e-001
1.876398e+003, 4.447332e-001
1.878327e+003, 4.449685e-001
1.880255e+003, 4.451141e-001
1.882183e+003, 4.445995e-001
1.884112e+003, 4.441697e-001
1.886040e+003, 4.447361e-001
1.887969e+003, 4.457809e-001
1.889897e+003, 4.468084e-001
1.891826e+003, 4.470536e-001
1.893754e+003, 4.466756e-001
1.895683e+003, 4.465485e-001
1.897611e+003, 4.472004e-001
1.899540e+003, 4.477695e-001
1.901468e+003, 4.476171e-001
1.903397e+003, 4.474368e-001
1.905325e+003, 4.485564e-001
1.907254e+003, 4.491534e-001
1.909182e+003, 4.488313e-001
1.911110e+003, 4.486948e-001
1.913039e+003, 4.493569e-001
1.914967e+003, 4.500038e-001
1.916896e+003, 4.501535e-001
1.918824e+003, 4.498558e-001
1.920753e+003, 4.498835e-001
1.922681e+003, 4.504216e-001
1.924610e+003, 4.504403e-001
1.926538e+003, 4.514824e-001
1.928467e+003, 4.521745e-001
1.930395e+003, 4.519745e-001
1.932324e+003, 4.522796e-001
1.934252e+003, 4.523580e-001
1.936181e+003, 4.517241e-001
1.938109e+003, 4.516950e-001
1.940037e+003, 4.527645e-001
1.941966e+003, 4.529209e-001
1.943894e+003, 4.526597e-001
1.945823e+003, 4.526851e-001
1.947751e+003, 4.534472e-001
1.949680e+003, 4.548071e-001
1.951608e+003, 4.543016e-001
1.953537e+003, 4.530220e-001
1.955465e+003, 4.519516e-001
1.957394e+003, 4.538411e-001
1.959322e+003, 4.567425e-001
1.961251e+003, 4.580611e-001
1.963179e+003, 4.574065e-001
1.965108e+003, 4.580933e-001
1.967036e+003, 4.572342e-001
1.968964e+003, 4.549987e-001
1.970893e+003, 4.558532e-001
1.972821e+003, 4.572403e-001
1.974750e+003, 4.571325e-001
1.976678e+003, 4.575896e-001
1.978607e+003, 4.589313e-001
1.980535e+003, 4.589483e-001
1.982464e+003, 4.586204e-001
1.984392e+003, 4.589878e-001
1.986321e+003, 4.579719e-001
1.988249e+003, 4.558912e-001
1.990178e+003, 4.568152e-001
1.992106e+003, 4.608468e-001
1.994035e+003, 4.620781e-001
1.995963e+003, 4.620916e-001
1.997891e+003, 4.629754e-001
1.999820e+003, 4.631332e-001
2.001748e+003, 4.614092e-001
2.003677e+003, 4.598965e-001
2.005605e+003, 4.618322e-001
2.007534e+003, 4.652663e-001
2.009462e+003, 4.658965e-001
2.011391e+003, 4.652367e-001
2.013319e+003, 4.654227e-001
2.015248e+003, 4.636504e-001
2.017176e+003, 4.639289e-001
2.019105e+003, 4.646076e-001
2.021033e+003, 4.642940e-001
2.022962e+003, 4.646128e-001
2.024890e+003, 4.659854e-001
2.026818e+003, 4.652717e-001
2.028747e+003, 4.667798e-001
2.030675e+003, 4.681304e-001
2.032604e+003, 4.677334e-001
2.034532e+003, 4.670587e-001
2.036461e+003, 4.647887e-001
2.038389e+003, 4.651226e-001
2.040318e+003, 4.675086e-001
2.042246e+003, 4.688743e-001
2.044175e+003, 4.683712e-001
2.046103e+003, 4.673373e-001
2.048031e+003, 4.673497e-001
2.049960e+003, 4.680489e-001
2.051888e+003, 4.692048e-001
2.053817e+003, 4.692187e-001
2.055745e+003, 4.694579e-001
2.057674e+003, 4.705745e-001
2.059602e+003, 4.698088e-001
2.061531e+003, 4.677194e-001
2.063459e+003, 4.667654e-001
2.065388e+003, 4.673026e-001
2.067316e+003, 4.681005e-001
2.069245e+003, 4.695264e-001
2.071173e+003, 4.707650e-001
2.073102e+003, 4.706239e-001
2.075030e+003, 4.711584e-001
2.076958e+003, 4.707674e-001
2.078887e+003, 4.707135e-001
2.080815e+003, 4.720704e-001
2.082744e+003, 4.715450e-001
2.084672e+003, 4.711345e-001
2.086601e+003, 4.712363e-001
2.088529e+003, 4.719327e-001
2.090458e+003, 4.724520e-001
2.092386e+003, 4.731705e-001
2.094315e+003, 4.730181e-001
2.096243e+003, 4.734655e-001
2.098172e+003, 4.745685e-001
2.100100e+003, 4.747100e-001
2.102029e+003, 4.741867e-001
2.103957e+003, 4.741099e-001
2.105885e+003, 4.753322e-001
2.107814e+003, 4.754675e-001
2.109742e+003, 4.745226e-001
2.111671e+003, 4.743460e-001
2.113599e+003, 4.744081e-001
2.115528e+003, 4.750082e-001
2.117456e+003, 4.752935e-001
2.119385e+003, 4.754421e-001
2.121313e+003, 4.752955e-001
2.123242e+003, 4.769549e-001
2.125170e+003, 4.783768e-001
2.127099e+003, 4.776323e-001
2.129027e+003, 4.781625e-001
2.130956e+003, 4.795957e-001
2.132884e+003, 4.787995e-001
2.134813e+003, 4.770714e-001
2.136741e+003, 4.777693e-001
2.138669e+003, 4.787822e-001
2.140598e+003, 4.795807e-001
2.142526e+003, 4.806209e-001
2.144455e+003, 4.803372e-001
2.146383e+003, 4.805546e-001
2.148312e+003, 4.816377e-001
2.150240e+003, 4.807403e-001
2.152169e+003, 4.807942e-001
2.154097e+003, 4.836957e-001
2.156026e+003, 4.860155e-001
2.157954e+003, 4.862718e-001
2.159883e+003, 4.840675e-001
2.161811e+003, 4.812686e-001
2.163740e+003, 4.806715e-001
2.165668e+003, 4.820413e-001
2.167596e+003, 4.813171e-001
2.169525e+003, 4.825547e-001
2.171453e+003, 4.827964e-001
2.173382e+003, 4.838567e-001
2.175310e+003, 4.828425e-001
2.177239e+003, 4.829513e-001
2.179167e+003, 4.831764e-001
2.181096e+003, 4.832224e-001
2.183024e+003, 4.842500e-001
2.184953e+003, 4.850358e-001
2.186881e+003, 4.844783e-001
2.188810e+003, 4.840114e-001
2.190738e+003, 4.829609e-001
2.192667e+003, 4.822904e-001
2.194595e+003, 4.845841e-001
2.196523e+003, 4.869974e-001
2.198452e+003, 4.869622e-001
2.200380e+003, 4.864103e-001
2.202309e+003, 4.861182e-001
2.204237e+003, 4.853748e-001
2.206166e+003, 4.849404e-001
2.208094e+003, 4.844618e-001
2.210023e+003, 4.850812e-001
2.211951e+003, 4.858927e-001
2.213880e+003, 4.856939e-001
2.215808e+003, 4.857539e-001
2.217737e+003, 4.867401e-001
2.219665e+003, 4.885777e-001
2.221594e+003, 4.887238e-001
2.223522e+003, 4.875627e-001
2.225450e+003, 4.870856e-001
2.227379e+003, 4.877102e-001
2.229307e+003, 4.880600e-001
2.231236e+003, 4.883614e-001
2.233164e+003, 4.890808e-001
2.235093e+003, 4.900049e-001
2.237021e+003, 4.899620e-001
2.238950e+003, 4.898537e-001
2.240878e+003, 4.900883e-001
2.242807e+003, 4.904511e-001
2.244735e+003, 4.897473e-001
2.246664e+003, 4.903351e-001
2.248592e+003, 4.919947e-001
2.250521e+003, 4.926004e-001
2.252449e+003, 4.918560e-001
2.254377e+003, 4.908327e-001
2.256306e+003, 4.904935e-001
2.258234e+003, 4.903690e-001
2.260163e+003, 4.903849e-001
2.262091e+003, 4.909890e-001
2.264020e+003, 4.906809e-001
2.265948e+003, 4.897719e-001
2.267877e+003, 4.894789e-001
2.269805e+003, 4.917386e-001
2.271734e+003, 4.930032e-001
2.273662e+003, 4.932132e-001
2.275591e+003, 4.943112e-001
2.277519e+003, 4.947048e-001
2.279448e+003, 4.945878e-001
2.281376e+003, 4.944866e-001
2.283304e+003, 4.941248e-001
2.285233e+003, 4.941061e-001
2.287161e+003, 4.941664e-001
2.289090e+003, 4.938920e-001
2.291018e+003, 4.937438e-001
2.292947e+003, 4.943285e-001
2.294875e+003, 4.946647e-001
2.296804e+003, 4.948923e-001
2.298732e+003, 4.953888e-001
2.300661e+003, 4.966081e-001
2.302589e+003, 4.970390e-001
2.304518e+003, 4.966290e-001
2.306446e+003, 4.959359e-001
2.308375e+003, 4.957489e-001
2.310303e+003, 4.961437e-001
2.312231e+003, 4.969406e-001
2.314160e+003, 4.976975e-001
2.316088e+003, 4.982992e-001
2.318017e+003, 4.986634e-001
2.319945e+003, 4.989206e-001
2.321874e+003, 4.986951e-001
2.323802e+003, 4.987307e-001
2.325731e+003, 4.995208e-001
2.327659e+003, 5.003419e-001
2.329588e+003, 5.004967e-001
2.331516e+003, 5.002756e-001
2.333445e+003, 5.006454e-001
2.335373e+003, 5.014617e-001
2.337302e+003, 5.015160e-001
2.339230e+003, 5.012451e-001
2.341158e+003, 5.011668e-001
2.343087e+003, 5.017763e-001
2.345015e+003, 5.018537e-001
2.346944e+003, 5.023226e-001
2.348872e+003, 5.023767e-001
2.350801e+003, 5.022995e-001
2.352729e+003, 5.022644e-001
2.354658e+003, 5.026887e-001
2.356586e+003, 5.030931e-001
2.358515e+003, 5.030404e-001
2.360443e+003, 5.034925e-001
2.362372e+003, 5.042892e-001
2.364300e+003, 5.044976e-001
2.366229e+003, 5.043180e-001
2.368157e+003, 5.046547e-001
2.370085e+003, 5.049496e-001
2.372014e+003, 5.048220e-001
2.373942e+003, 5.046819e-001
2.375871e+003, 5.047300e-001
2.377799e+003, 5.047382e-001
2.379728e+003, 5.050173e-001
2.381656e+003, 5.051268e-001
2.383585e+003, 5.052086e-001
2.385513e+003, 5.060114e-001
2.387442e+003, 5.057303e-001
2.389370e+003, 5.054145e-001
2.391299e+003, 5.057253e-001
2.393227e+003, 5.063581e-001
2.395156e+003, 5.061773e-001
2.397084e+003, 5.051941e-001
2.399012e+003, 5.055982e-001
2.400941e+003, 5.064077e-001
2.402869e+003, 5.057372e-001
2.404798e+003, 5.054035e-001
2.406726e+003, 5.062817e-001
2.408655e+003, 5.070419e-001
2.410583e+003, 5.074310e-001
2.412512e+003, 5.076444e-001
2.414440e+003, 5.081184e-001
2.416369e+003, 5.081209e-001
2.418297e+003, 5.075220e-001
2.420226e+003, 5.069253e-001
2.422154e+003, 5.070354e-001
2.424083e+003, 5.079640e-001
2.426011e+003, 5.085233e-001
2.427939e+003, 5.084825e-001
2.429868e+003, 5.081798e-001
2.431796e+003, 5.084854e-001
2.433725e+003, 5.082606e-001
2.435653e+003, 5.086421e-001
2.437582e+003, 5.086846e-001
2.439510e+003, 5.090604e-001
2.441439e+003, 5.094543e-001
2.443367e+003, 5.091622e-001
2.445296e+003, 5.092463e-001
2.447224e+003, 5.095903e-001
2.449153e+003, 5.094209e-001
2.451081e+003, 5.096680e-001
2.453010e+003, 5.105371e-001
2.454938e+003, 5.108178e-001
2.456866e+003, 5.108238e-001
2.458795e+003, 5.109381e-001
2.460723e+003, 5.111340e-001
2.462652e+003, 5.110314e-001
2.464580e+003, 5.113844e-001
2.466509e+003, 5.120905e-001
2.468437e+003, 5.120773e-001
2.470366e+003, 5.121092e-001
2.472294e+003, 5.124070e-001
2.474223e+003, 5.129412e-001
2.476151e+003, 5.133826e-001
2.478080e+003, 5.137764e-001
2.480008e+003, 5.135641e-001
2.481937e+003, 5.128201e-001
2.483865e+003, 5.126761e-001
2.485793e+003, 5.127463e-001
2.487722e+003, 5.131135e-001
2.489650e+003, 5.135834e-001
2.491579e+003, 5.146202e-001
2.493507e+003, 5.147868e-001
2.495436e+003, 5.139723e-001
2.497364e+003, 5.141615e-001
2.499293e+003, 5.149400e-001
2.501221e+003, 5.154578e-001
2.503150e+003, 5.157173e-001
2.505078e+003, 5.155658e-001
2.507007e+003, 5.160298e-001
2.508935e+003, 5.167422e-001
2.510864e+003, 5.166187e-001
2.512792e+003, 5.163813e-001
2.514720e+003, 5.165396e-001
2.516649e+003, 5.173120e-001
2.518577e+003, 5.178055e-001
2.520506e+003, 5.178905e-001
2.522434e+003, 5.177559e-001
2.524363e+003, 5.175741e-001
2.526291e+003, 5.180956e-001
2.528220e+003, 5.184678e-001
2.530148e+003, 5.183852e-001
2.532077e+003, 5.185250e-001
2.534005e+003, 5.189627e-001
2.535934e+003, 5.191739e-001
2.537862e+003, 5.195794e-001
2.539791e+003, 5.196294e-001
2.541719e+003, 5.198928e-001
2.543647e+003, 5.203151e-001
2.545576e+003, 5.207435e-001
2.547504e+003, 5.210509e-001
2.549433e+003, 5.208312e-001
2.551361e+003, 5.205746e-001
2.553290e+003, 5.210597e-001
2.555218e+003, 5.216839e-001
2.557147e+003, 5.214815e-001
2.559075e+003, 5.210868e-001
2.561004e+003, 5.211178e-001
2.562932e+003, 5.219744e-001
2.564861e+003, 5.226216e-001
2.566789e+003, 5.225167e-001
2.568718e+003, 5.225049e-001
2.570646e+003, 5.228993e-001
2.572574e+003, 5.235537e-001
2.574503e+003, 5.237839e-001
2.576431e+003, 5.233599e-001
2.578360e+003, 5.236800e-001
2.580288e+003, 5.244516e-001
2.582217e+003, 5.247291e-001
2.584145e+003, 5.241126e-001
2.586074e+003, 5.244468e-001
2.588002e+003, 5.254706e-001
2.589931e+003, 5.260750e-001
2.591859e+003, 5.263619e-001
2.593788e+003, 5.261404e-001
2.595716e+003, 5.261167e-001
2.597645e+003, 5.266106e-001
2.599573e+003, 5.270944e-001
2.601501e+003, 5.274811e-001
2.603430e+003, 5.279242e-001
2.605358e+003, 5.282764e-001
2.607287e+003, 5.284814e-001
2.609215e+003, 5.285965e-001
2.611144e+003, 5.289537e-001
2.613072e+003, 5.294400e-001
2.615001e+003, 5.297036e-001
2.616929e+003, 5.299879e-001
2.618858e+003, 5.305029e-001
2.620786e+003, 5.308822e-001
2.622715e+003, 5.310878e-001
2.624643e+003, 5.316045e-001
2.626572e+003, 5.318692e-001
2.628500e+003, 5.322545e-001
2.630428e+003, 5.324298e-001
2.632357e+003, 5.328017e-001
2.634285e+003, 5.334289e-001
2.636214e+003, 5.339186e-001
2.638142e+003, 5.343038e-001
2.640071e+003, 5.343572e-001
2.641999e+003, 5.347208e-001
2.643928e+003, 5.353246e-001
2.645856e+003, 5.354512e-001
2.647785e+003, 5.357744e-001
2.649713e+003, 5.363059e-001
2.651642e+003, 5.364461e-001
2.653570e+003, 5.366704e-001
2.655499e+003, 5.370528e-001
2.657427e+003, 5.373821e-001
2.659355e+003, 5.375215e-001
2.661284e+003, 5.378506e-001
2.663212e+003, 5.382158e-001
2.665141e+003, 5.384669e-001
2.667069e+003, 5.389496e-001
2.668998e+003, 5.394000e-001
2.670926e+003, 5.395646e-001
2.672855e+003, 5.394878e-001
2.674783e+003, 5.395423e-001
2.676712e+003, 5.397596e-001
2.678640e+003, 5.399606e-001
2.680569e+003, 5.402772e-001
2.682497e+003, 5.405214e-001
2.684426e+003, 5.408971e-001
2.686354e+003, 5.412187e-001
2.688282e+003, 5.412681e-001
2.690211e+003, 5.414277e-001
2.692139e+003, 5.416555e-001
2.694068e+003, 5.420634e-001
2.695996e+003, 5.422359e-001
2.697925e+003, 5.424464e-001
2.699853e+003, 5.425541e-001
2.701782e+003, 5.425298e-001
2.703710e+003, 5.429636e-001
2.705639e+003, 5.432133e-001
2.707567e+003, 5.432251e-001
2.709496e+003, 5.433928e-001
2.711424e+003, 5.435258e-001
2.713353e+003, 5.439345e-001
2.715281e+003, 5.439012e-001
2.717209e+003, 5.439508e-001
2.719138e+003, 5.445260e-001
2.721066e+003, 5.449626e-001
2.722995e+003, 5.448177e-001
2.724923e+003, 5.447128e-001
2.726852e+003, 5.450105e-001
2.728780e+003, 5.451007e-001
2.730709e+003, 5.451441e-001
2.732637e+003, 5.455312e-001
2.734566e+003, 5.457283e-001
2.736494e+003, 5.458446e-001
2.738423e+003, 5.458066e-001
2.740351e+003, 5.458271e-001
2.742280e+003, 5.461919e-001
2.744208e+003, 5.466130e-001
2.746136e+003, 5.468436e-001
2.748065e+003, 5.468679e-001
2.749993e+003, 5.468515e-001
2.751922e+003, 5.471435e-001
2.753850e+003, 5.474038e-001
2.755779e+003, 5.473816e-001
2.757707e+003, 5.476420e-001
2.759636e+003, 5.479665e-001
2.761564e+003, 5.484385e-001
2.763493e+003, 5.483026e-001
2.765421e+003, 5.485352e-001
2.767350e+003, 5.488935e-001
2.769278e+003, 5.491925e-001
2.771207e+003, 5.494205e-001
2.773135e+003, 5.492742e-001
2.775063e+003, 5.491717e-001
2.776992e+003, 5.492094e-001
2.778920e+003, 5.493406e-001
2.780849e+003, 5.499480e-001
2.782777e+003, 5.502362e-001
2.784706e+003, 5.502562e-001
2.786634e+003, 5.503125e-001
2.788563e+003, 5.506661e-001
2.790491e+003, 5.510418e-001
2.792420e+003, 5.511086e-001
2.794348e+003, 5.509477e-001
2.796277e+003, 5.510534e-001
2.798205e+003, 5.512098e-001
2.800134e+003, 5.515254e-001
2.802062e+003, 5.517644e-001
2.803990e+003, 5.518512e-001
2.805919e+003, 5.521301e-001
2.807847e+003, 5.527288e-001
2.809776e+003, 5.530748e-001
2.811704e+003, 5.528002e-001
2.813633e+003, 5.528895e-001
2.815561e+003, 5.531523e-001
2.817490e+003, 5.535669e-001
2.819418e+003, 5.537997e-001
2.821347e+003, 5.541037e-001
2.823275e+003, 5.548977e-001
2.825204e+003, 5.551636e-001
2.827132e+003, 5.549222e-001
2.829061e+003, 5.550305e-001
2.830989e+003, 5.553035e-001
2.832917e+003, 5.556202e-001
2.834846e+003, 5.559039e-001
2.836774e+003, 5.563759e-001
2.838703e+003, 5.568041e-001
2.840631e+003, 5.572525e-001
2.842560e+003, 5.573836e-001
2.844488e+003, 5.573396e-001
2.846417e+003, 5.576317e-001
2.848345e+003, 5.577531e-001
2.850274e+003, 5.581550e-001
2.852202e+003, 5.586661e-001
2.854131e+003, 5.589999e-001
2.856059e+003, 5.592517e-001
2.857988e+003, 5.593509e-001
2.859916e+003, 5.594338e-001
2.861844e+003, 5.595155e-001
2.863773e+003, 5.597236e-001
2.865701e+003, 5.599954e-001
2.867630e+003, 5.603460e-001
2.869558e+003, 5.606068e-001
2.871487e+003, 5.608065e-001
2.873415e+003, 5.611878e-001
2.875344e+003, 5.614944e-001
2.877272e+003, 5.620076e-001
2.879201e+003, 5.620752e-001
2.881129e+003, 5.619726e-001
2.883058e+003, 5.619422e-001
2.884986e+003, 5.619882e-001
2.886915e+003, 5.624607e-001
2.888843e+003, 5.628463e-001
2.890771e+003, 5.633167e-001
2.892700e+003, 5.634541e-001
2.894628e+003, 5.634603e-001
2.896557e+003, 5.637956e-001
2.898485e+003, 5.640690e-001
2.900414e+003, 5.645364e-001
2.902342e+003, 5.650416e-001
2.904271e+003, 5.653602e-001
2.906199e+003, 5.657359e-001
2.908128e+003, 5.660397e-001
2.910056e+003, 5.662736e-001
2.911985e+003, 5.666200e-001
2.913913e+003, 5.666446e-001
2.915842e+003, 5.665442e-001
2.917770e+003, 5.667749e-001
2.919698e+003, 5.670691e-001
2.921627e+003, 5.673149e-001
2.923555e+003, 5.680808e-001
2.925484e+003, 5.682302e-001
2.927412e+003, 5.677066e-001
2.929341e+003, 5.677199e-001
2.931269e+003, 5.681846e-001
2.933198e+003, 5.682043e-001
2.935126e+003, 5.679229e-001
2.937055e+003, 5.677256e-001
2.938983e+003, 5.680079e-001
2.940912e+003, 5.684153e-001
2.942840e+003, 5.688747e-001
2.944769e+003, 5.689317e-001
2.946697e+003, 5.688955e-001
2.948625e+003, 5.691933e-001
2.950554e+003, 5.696752e-001
2.952482e+003, 5.698538e-001
2.954411e+003, 5.702366e-001
2.956339e+003, 5.706221e-001
2.958268e+003, 5.706559e-001
2.960196e+003, 5.706520e-001
2.962125e+003, 5.711457e-001
2.964053e+003, 5.710502e-001
2.965982e+003, 5.703612e-001
2.967910e+003, 5.699087e-001
2.969839e+003, 5.696597e-001
2.971767e+003, 5.697753e-001
2.973696e+003, 5.697328e-001
2.975624e+003, 5.696488e-001
2.977552e+003, 5.692642e-001
2.979481e+003, 5.689698e-001
2.981409e+003, 5.689205e-001
2.983338e+003, 5.691419e-001
2.985266e+003, 5.694032e-001
2.987195e+003, 5.693377e-001
2.989123e+003, 5.690036e-001
2.991052e+003, 5.691012e-001
2.992980e+003, 5.694315e-001
2.994909e+003, 5.700652e-001
2.996837e+003, 5.705262e-001
2.998766e+003, 5.704136e-001
3.000694e+003, 5.704275e-001
3.002623e+003, 5.704871e-001
3.004551e+003, 5.707355e-001
3.006479e+003, 5.709641e-001
3.008408e+003, 5.707620e-001
3.010336e+003, 5.707003e-001
3.012265e+003, 5.712016e-001
3.014193e+003, 5.715838e-001
3.016122e+003, 5.717773e-001
3.018050e+003, 5.717805e-001
3.019979e+003, 5.720171e-001
3.021907e+003, 5.721731e-001
3.023836e+003, 5.724080e-001
3.025764e+003, 5.725435e-001
3.027693e+003, 5.726701e-001
3.029621e+003, 5.726660e-001
3.031550e+003, 5.724543e-001
3.033478e+003, 5.728892e-001
3.035406e+003, 5.736203e-001
3.037335e+003, 5.738710e-001
3.039263e+003, 5.739293e-001
3.041192e+003, 5.740150e-001
3.043120e+003, 5.740721e-001
3.045049e+003, 5.743654e-001
3.046977e+003, 5.746234e-001
3.048906e+003, 5.748399e-001
3.050834e+003, 5.749249e-001
3.052763e+003, 5.751453e-001
3.054691e+003, 5.753271e-001
3.056620e+003, 5.751116e-001
3.058548e+003, 5.749960e-001
3.060477e+003, 5.753678e-001
3.062405e+003, 5.759774e-001
3.064333e+003, 5.762245e-001
3.066262e+003, 5.763814e-001
3.068190e+003, 5.763257e-001
3.070119e+003, 5.769666e-001
3.072047e+003, 5.775240e-001
3.073976e+003, 5.772020e-001
3.075904e+003, 5.773078e-001
3.077833e+003, 5.775489e-001
3.079761e+003, 5.774890e-001
3.081690e+003, 5.778220e-001
3.083618e+003, 5.787129e-001
3.085547e+003, 5.789463e-001
3.087475e+003, 5.785813e-001
3.089404e+003, 5.788449e-001
3.091332e+003, 5.788023e-001
3.093260e+003, 5.784767e-001
3.095189e+003, 5.783631e-001
3.097117e+003, 5.782110e-001
3.099046e+003, 5.786872e-001
3.100974e+003, 5.794104e-001
3.102903e+003, 5.795659e-001
3.104831e+003, 5.793653e-001
3.106760e+003, 5.795506e-001
3.108688e+003, 5.800498e-001
3.110617e+003, 5.802530e-001
3.112545e+003, 5.804219e-001
3.114474e+003, 5.805019e-001
3.116402e+003, 5.805082e-001
3.118331e+003, 5.806715e-001
3.120259e+003, 5.810038e-001
3.122188e+003, 5.813230e-001
3.124116e+003, 5.813785e-001
3.126044e+003, 5.818231e-001
3.127973e+003, 5.823115e-001
3.129901e+003, 5.820475e-001
3.131830e+003, 5.821823e-001
3.133758e+003, 5.827053e-001
3.135687e+003, 5.827671e-001
3.137615e+003, 5.822598e-001
3.139544e+003, 5.821109e-001
3.141472e+003, 5.824227e-001
3.143401e+003, 5.833813e-001
3.145329e+003, 5.842323e-001
3.147258e+003, 5.846629e-001
3.149186e+003, 5.842302e-001
3.151115e+003, 5.837878e-001
3.153043e+003, 5.840564e-001
3.154971e+003, 5.843347e-001
3.156900e+003, 5.845898e-001
3.158828e+003, 5.851835e-001
3.160757e+003, 5.856114e-001
3.162685e+003, 5.859346e-001
3.164614e+003, 5.856988e-001
3.166542e+003, 5.858570e-001
3.168471e+003, 5.866643e-001
3.170399e+003, 5.873846e-001
3.172328e+003, 5.873994e-001
3.174256e+003, 5.874057e-001
3.176185e+003, 5.875433e-001
3.178113e+003, 5.873536e-001
3.180042e+003, 5.875205e-001
3.181970e+003, 5.875704e-001
3.183898e+003, 5.875779e-001
3.185827e+003, 5.879829e-001
3.187755e+003, 5.885513e-001
3.189684e+003, 5.889644e-001
3.191612e+003, 5.891222e-001
3.193541e+003, 5.891696e-001
3.195469e+003, 5.892187e-001
3.197398e+003, 5.890791e-001
3.199326e+003, 5.889758e-001
3.201255e+003, 5.894510e-001
3.203183e+003, 5.897633e-001
3.205112e+003, 5.896990e-001
3.207040e+003, 5.904832e-001
3.208969e+003, 5.908164e-001
3.210897e+003, 5.907695e-001
3.212825e+003, 5.906776e-001
3.214754e+003, 5.908508e-001
3.216682e+003, 5.914397e-001
3.218611e+003, 5.913081e-001
3.220539e+003, 5.917236e-001
3.222468e+003, 5.923998e-001
3.224396e+003, 5.925313e-001
3.226325e+003, 5.926502e-001
3.228253e+003, 5.928854e-001
3.230182e+003, 5.923941e-001
3.232110e+003, 5.928789e-001
3.234039e+003, 5.937116e-001
3.235967e+003, 5.939751e-001
3.237896e+003, 5.932382e-001
3.239824e+003, 5.932437e-001
3.241752e+003, 5.938220e-001
3.243681e+003, 5.942014e-001
3.245609e+003, 5.944705e-001
3.247538e+003, 5.946128e-001
3.249466e+003, 5.946155e-001
3.251395e+003, 5.948570e-001
3.253323e+003, 5.961237e-001
3.255252e+003, 5.969970e-001
3.257180e+003, 5.964075e-001
3.259109e+003, 5.957348e-001
3.261037e+003, 5.963210e-001
3.262966e+003, 5.962762e-001
3.264894e+003, 5.962449e-001
3.266823e+003, 5.970158e-001
3.268751e+003, 5.976157e-001
3.270679e+003, 5.980344e-001
3.272608e+003, 5.983055e-001
3.274536e+003, 5.990773e-001
3.276465e+003, 5.991981e-001
3.278393e+003, 5.987100e-001
3.280322e+003, 5.985517e-001
3.282250e+003, 5.984662e-001
3.284179e+003, 5.987296e-001
3.286107e+003, 5.997843e-001
3.288036e+003, 6.002221e-001
3.289964e+003, 6.001608e-001
3.291893e+003, 6.004489e-001
3.293821e+003, 6.008673e-001
3.295750e+003, 6.014699e-001
3.297678e+003, 6.011603e-001
3.299606e+003, 6.007478e-001
3.301535e+003, 6.008195e-001
3.303463e+003, 6.010280e-001
3.305392e+003, 6.017368e-001
3.307320e+003, 6.024641e-001
3.309249e+003, 6.020442e-001
3.311177e+003, 6.015545e-001
3.313106e+003, 6.018024e-001
3.315034e+003, 6.019540e-001
3.316963e+003, 6.022553e-001
3.318891e+003, 6.026098e-001
3.320820e+003, 6.023260e-001
3.322748e+003, 6.023109e-001
3.324677e+003, 6.026262e-001
3.326605e+003, 6.034581e-001
3.328533e+003, 6.038790e-001
3.330462e+003, 6.038501e-001
3.332390e+003, 6.038809e-001
3.334319e+003, 6.044948e-001
3.336247e+003, 6.048850e-001
3.338176e+003, 6.053109e-001
3.340104e+003, 6.060594e-001
3.342033e+003, 6.057938e-001
3.343961e+003, 6.048317e-001
3.345890e+003, 6.045724e-001
3.347818e+003, 6.050227e-001
3.349747e+003, 6.052307e-001
3.351675e+003, 6.057515e-001
3.353604e+003, 6.060336e-001
3.355532e+003, 6.060859e-001
3.357460e+003, 6.064333e-001
3.359389e+003, 6.064219e-001
3.361317e+003, 6.058468e-001
3.363246e+003, 6.062355e-001
3.365174e+003, 6.066933e-001
3.367103e+003, 6.069815e-001
3.369031e+003, 6.075985e-001
3.370960e+003, 6.074807e-001
3.372888e+003, 6.068687e-001
3.374817e+003, 6.073601e-001
3.376745e+003, 6.081631e-001
3.378674e+003, 6.087007e-001
3.380602e+003, 6.093845e-001
3.382531e+003, 6.093153e-001
3.384459e+003, 6.084486e-001
3.386387e+003, 6.082821e-001
3.388316e+003, 6.090282e-001
3.390244e+003, 6.093068e-001
3.392173e+003, 6.092374e-001
3.394101e+003, 6.098043e-001
3.396030e+003, 6.099825e-001
3.397958e+003, 6.098608e-001
3.399887e+003, 6.100026e-001
3.401815e+003, 6.105758e-001
3.403744e+003, 6.110467e-001
3.405672e+003, 6.110551e-001
3.407601e+003, 6.105430e-001
3.409529e+003, 6.106171e-001
3.411458e+003, 6.108723e-001
3.413386e+003, 6.109173e-001
3.415314e+003, 6.111246e-001
3.417243e+003, 6.118497e-001
3.419171e+003, 6.123269e-001
3.421100e+003, 6.124462e-001
3.423028e+003, 6.127961e-001
3.424957e+003, 6.128200e-001
3.426885e+003, 6.126902e-001
3.428814e+003, 6.126797e-001
3.430742e+003, 6.129150e-001
3.432671e+003, 6.136170e-001
3.434599e+003, 6.140715e-001
3.436528e+003, 6.140223e-001
3.438456e+003, 6.141534e-001
3.440385e+003, 6.146677e-001
3.442313e+003, 6.145194e-001
3.444241e+003, 6.150710e-001
3.446170e+003, 6.153156e-001
3.448098e+003, 6.150844e-001
3.450027e+003, 6.153650e-001
3.451955e+003, 6.156195e-001
3.453884e+003, 6.155223e-001
3.455812e+003, 6.154524e-001
3.457741e+003, 6.153339e-001
3.459669e+003, 6.160313e-001
3.461598e+003, 6.169316e-001
3.463526e+003, 6.173046e-001
3.465455e+003, 6.170120e-001
3.467383e+003, 6.169528e-001
3.469312e+003, 6.173723e-001
3.471240e+003, 6.168825e-001
3.473168e+003, 6.167309e-001
3.475097e+003, 6.174245e-001
3.477025e+003, 6.177358e-001
3.478954e+003, 6.182418e-001
3.480882e+003, 6.190937e-001
3.482811e+003, 6.186661e-001
3.484739e+003, 6.189037e-001
3.486668e+003, 6.197810e-001
3.488596e+003, 6.195874e-001
3.490525e+003, 6.192006e-001
3.492453e+003, 6.194202e-001
3.494382e+003, 6.199600e-001
3.496310e+003, 6.196918e-001
3.498239e+003, 6.193275e-001
3.500167e+003, 6.198856e-001
3.502095e+003, 6.204285e-001
3.504024e+003, 6.203133e-001
3.505952e+003, 6.205192e-001
3.507881e+003, 6.206338e-001
3.509809e+003, 6.200812e-001
3.511738e+003, 6.204418e-001
3.513666e+003, 6.212684e-001
3.515595e+003, 6.211408e-001
3.517523e+003, 6.212010e-001
3.519452e+003, 6.217951e-001
3.521380e+003, 6.217378e-001
3.523309e+003, 6.221885e-001
3.525237e+003, 6.229002e-001
3.527166e+003, 6.226504e-001
3.529094e+003, 6.223533e-001
3.531022e+003, 6.231398e-001
3.532951e+003, 6.236446e-001
3.534879e+003, 6.231723e-001
3.536808e+003, 6.232874e-001
3.538736e+003, 6.233830e-001
3.540665e+003, 6.237518e-001
3.542593e+003, 6.238427e-001
3.544522e+003, 6.231328e-001
3.546450e+003, 6.234177e-001
3.548379e+003, 6.240073e-001
3.550307e+003, 6.241500e-001
3.552236e+003, 6.246676e-001
3.554164e+003, 6.247153e-001
3.556093e+003, 6.243373e-001
3.558021e+003, 6.242474e-001
3.559949e+003, 6.242449e-001
3.561878e+003, 6.244280e-001
3.563806e+003, 6.246917e-001
3.565735e+003, 6.249299e-001
3.567663e+003, 6.256636e-001
3.569592e+003, 6.264259e-001
3.571520e+003, 6.263754e-001
3.573449e+003, 6.257662e-001
3.575377e+003, 6.258163e-001
3.577306e+003, 6.265661e-001
3.579234e+003, 6.266583e-001
3.581163e+003, 6.267535e-001
3.583091e+003, 6.274076e-001
3.585020e+003, 6.272594e-001
3.586948e+003, 6.278378e-001
3.588876e+003, 6.286611e-001
3.590805e+003, 6.278154e-001
3.592733e+003, 6.265752e-001
3.594662e+003, 6.271318e-001
3.596590e+003, 6.279437e-001
3.598519e+003, 6.283588e-001
3.600447e+003, 6.285720e-001
3.602376e+003, 6.285513e-001
3.604304e+003, 6.287409e-001
3.606233e+003, 6.290321e-001
3.608161e+003, 6.291775e-001
3.610090e+003, 6.294778e-001
3.612018e+003, 6.301522e-001
3.613947e+003, 6.299422e-001
3.615875e+003, 6.302342e-001
3.617803e+003, 6.307636e-001
3.619732e+003, 6.306813e-001
3.621660e+003, 6.311288e-001
3.623589e+003, 6.311522e-001
3.625517e+003, 6.304766e-001
3.627446e+003, 6.313277e-001
3.629374e+003, 6.317490e-001
3.631303e+003, 6.312867e-001
3.633231e+003, 6.314727e-001
3.635160e+003, 6.313483e-001
3.637088e+003, 6.317046e-001
3.639017e+003, 6.324915e-001
3.640945e+003, 6.324627e-001
3.642874e+003, 6.330375e-001
3.644802e+003, 6.341911e-001
3.646730e+003, 6.350840e-001
3.648659e+003, 6.352344e-001
3.650587e+003, 6.346615e-001
3.652516e+003, 6.344822e-001
3.654444e+003, 6.346902e-001
3.656373e+003, 6.348359e-001
3.658301e+003, 6.351369e-001
3.660230e+003, 6.352749e-001
3.662158e+003, 6.359518e-001
3.664087e+003, 6.361619e-001
3.666015e+003, 6.362092e-001
3.667944e+003, 6.372759e-001
3.669872e+003, 6.374804e-001
3.671801e+003, 6.367912e-001
3.673729e+003, 6.367604e-001
3.675657e+003, 6.373745e-001
3.677586e+003, 6.375104e-001
3.679514e+003, 6.372879e-001
3.681443e+003, 6.371345e-001
3.683371e+003, 6.374925e-001
3.685300e+003, 6.385512e-001
3.687228e+003, 6.388666e-001
3.689157e+003, 6.386279e-001
3.691085e+003, 6.382399e-001
3.693014e+003, 6.383787e-001
3.694942e+003, 6.393052e-001
3.696871e+003, 6.392493e-001
3.698799e+003, 6.393077e-001
3.700728e+003, 6.398823e-001
3.702656e+003, 6.401616e-001
3.704584e+003, 6.405486e-001
3.706513e+003, 6.400407e-001
3.708441e+003, 6.396409e-001
3.710370e+003, 6.404672e-001
3.712298e+003, 6.408434e-001
3.714227e+003, 6.407341e-001
3.716155e+003, 6.407192e-001
3.718084e+003, 6.408371e-001
3.720012e+003, 6.413387e-001
3.721941e+003, 6.422967e-001
3.723869e+003, 6.431739e-001
3.725798e+003, 6.443103e-001
3.727726e+003, 6.438600e-001
3.729655e+003, 6.426544e-001
3.731583e+003, 6.432931e-001
3.733511e+003, 6.443108e-001
3.735440e+003, 6.449006e-001
3.737368e+003, 6.454341e-001
3.739297e+003, 6.454077e-001
3.741225e+003, 6.458735e-001
3.743154e+003, 6.473559e-001
3.745082e+003, 6.464611e-001
3.747011e+003, 6.446894e-001
3.748939e+003, 6.456539e-001
3.750868e+003, 6.466106e-001
3.752796e+003, 6.456890e-001
3.754725e+003, 6.450410e-001
3.756653e+003, 6.454453e-001
3.758582e+003, 6.454706e-001
3.760510e+003, 6.451499e-001
3.762438e+003, 6.454014e-001
3.764367e+003, 6.463706e-001
3.766295e+003, 6.464379e-001
3.768224e+003, 6.463766e-001
3.770152e+003, 6.469249e-001
3.772081e+003, 6.467631e-001
3.774009e+003, 6.469304e-001
3.775938e+003, 6.473485e-001
3.777866e+003, 6.477571e-001
3.779795e+003, 6.476488e-001
3.781723e+003, 6.475995e-001
3.783652e+003, 6.475239e-001
3.785580e+003, 6.476831e-001
3.787509e+003, 6.478506e-001
3.789437e+003, 6.477873e-001
3.791365e+003, 6.480457e-001
3.793294e+003, 6.484279e-001
3.795222e+003, 6.498545e-001
3.797151e+003, 6.502140e-001
3.799079e+003, 6.492313e-001
3.801008e+003, 6.498091e-001
3.802936e+003, 6.506419e-001
3.804865e+003, 6.511040e-001
3.806793e+003, 6.510674e-001
3.808722e+003, 6.504642e-001
3.810650e+003, 6.503788e-001
3.812579e+003, 6.503810e-001
3.814507e+003, 6.511868e-001
3.816436e+003, 6.514280e-001
3.818364e+003, 6.510794e-001
3.820292e+003, 6.517289e-001
3.822221e+003, 6.523995e-001
3.824149e+003, 6.521528e-001
3.826078e+003, 6.523440e-001
3.828006e+003, 6.523296e-001
3.829935e+003, 6.522248e-001
3.831863e+003, 6.527242e-001
3.833792e+003, 6.532428e-001
3.835720e+003, 6.533963e-001
3.837649e+003, 6.542099e-001
3.839577e+003, 6.545936e-001
3.841506e+003, 6.543989e-001
3.843434e+003, 6.541761e-001
3.845363e+003, 6.546372e-001
3.847291e+003, 6.544912e-001
3.849219e+003, 6.538947e-001
3.851148e+003, 6.545250e-001
3.853076e+003, 6.562478e-001
3.855005e+003, 6.562980e-001
3.856933e+003, 6.556210e-001
3.858862e+003, 6.553022e-001
3.860790e+003, 6.550013e-001
3.862719e+003, 6.552048e-001
3.864647e+003, 6.559132e-001
3.866576e+003, 6.570504e-001
3.868504e+003, 6.574267e-001
3.870433e+003, 6.562141e-001
3.872361e+003, 6.552079e-001
3.874290e+003, 6.560341e-001
3.876218e+003, 6.560959e-001
3.878146e+003, 6.558348e-001
3.880075e+003, 6.565863e-001
3.882003e+003, 6.569476e-001
3.883932e+003, 6.572232e-001
3.885860e+003, 6.583731e-001
3.887789e+003, 6.590143e-001
3.889717e+003, 6.592370e-001
3.891646e+003, 6.588495e-001
3.893574e+003, 6.582857e-001
3.895503e+003, 6.584774e-001
3.897431e+003, 6.588882e-001
3.899360e+003, 6.601158e-001
3.901288e+003, 6.602982e-001
3.903217e+003, 6.595247e-001
3.905145e+003, 6.591610e-001
3.907073e+003, 6.593193e-001
3.909002e+003, 6.597298e-001
3.910930e+003, 6.601512e-001
3.912859e+003, 6.601839e-001
3.914787e+003, 6.598570e-001
3.916716e+003, 6.594815e-001
3.918644e+003, 6.598377e-001
3.920573e+003, 6.600811e-001
3.922501e+003, 6.608496e-001
3.924430e+003, 6.612458e-001
3.926358e+003, 6.609576e-001
3.928287e+003, 6.617327e-001
3.930215e+003, 6.624563e-001
3.932144e+003, 6.618261e-001
3.934072e+003, 6.616029e-001
3.936000e+003, 6.619217e-001
3.937929e+003, 6.626769e-001
3.939857e+003, 6.623563e-001
3.941786e+003, 6.616095e-001
3.943714e+003, 6.621985e-001
3.945643e+003, 6.629245e-001
3.947571e+003, 6.635972e-001
3.949500e+003, 6.636766e-001
3.951428e+003, 6.631958e-001
3.953357e+003, 6.637201e-001
3.955285e+003, 6.644968e-001
3.957214e+003, 6.646956e-001
3.959142e+003, 6.647211e-001
3.961071e+003, 6.643216e-001
3.962999e+003, 6.637275e-001
3.964927e+003, 6.644469e-001
3.966856e+003, 6.653653e-001
3.968784e+003, 6.659524e-001
3.970713e+003, 6.660014e-001
3.972641e+003, 6.657615e-001
3.974570e+003, 6.663526e-001
3.976498e+003, 6.664984e-001
3.978427e+003, 6.662550e-001
3.980355e+003, 6.660941e-001
3.982284e+003, 6.666569e-001
3.984212e+003, 6.675193e-001
3.986141e+003, 6.671562e-001
3.988069e+003, 6.670706e-001
3.989998e+003, 6.666743e-001
3.991926e+003, 6.666294e-001
3.993854e+003, 6.674950e-001
3.995783e+003, 6.686401e-001
3.997711e+003, 6.692399e-001
3.999640e+003, 6.688346e-001
##END=



