##NAMES=Tarbagataite
##RRUFFID=R130041
##IDEAL CHEMISTRY=(K[box])CaFe^2+^_7_Ti^4+^_2_(Si_4_O_12_)_2_O_2_(OH)_5_
##LOCALITY=Verkhnee Espe deposit, Akjailyautas Mountains, Kazakhstan
##OWNER=Elena Sokolova
##SOURCE=Elena Sokolova
##DESCRIPTION=Flakes brown or pale golden brown, with a colorless to very pale yellow streak and a vitreous to pearly lustre. Associated with astrophyllite, zinc pyrophanite, columbite-(Mn) and quartz. Data from Stepanov et al (2012) 
##STATUS=The identification of this mineral is confirmed by single-crystal X-ray diffraction and chemical analysis.
##URL=rruff.info/R130041
##MEASURED CHEMISTRY=(K_0.76_Rb_0.18_Na_0.12_Cs_0.04__0.90_)_Σ=2_(Ca_0.62_Na_0.38_)_Σ=1_(Fe^2+^_3.51_Mn_2.94_Mg_0.28_Zr_0.02_Zn_0.02__0.23_)_Σ=7_(Ti_1.57_Nb_0.30_Sn_0.11_Zr_0.02_)_Σ=2_[(Si_4.045_Al_0.015_)_Σ=8.12_O_12_]_2_O_2_[(OH_4.65_F_0.35_]
3997.91406, 0.22418
3995.98550, 0.22398
3994.05693, 0.22378
3992.12837, 0.22353
3990.19980, 0.22328
3988.27124, 0.22310
3986.34268, 0.22295
3984.41411, 0.22276
3982.48555, 0.22255
3980.55698, 0.22226
3978.62842, 0.22183
3976.69985, 0.22151
3974.77129, 0.22146
3972.84272, 0.22132
3970.91416, 0.22097
3968.98560, 0.22079
3967.05703, 0.22076
3965.12847, 0.22052
3963.19990, 0.22004
3961.27134, 0.21957
3959.34277, 0.21933
3957.41421, 0.21924
3955.48564, 0.21903
3953.55708, 0.21863
3951.62852, 0.21815
3949.69995, 0.21788
3947.77139, 0.21799
3945.84282, 0.21807
3943.91426, 0.21794
3941.98569, 0.21775
3940.05713, 0.21735
3938.12856, 0.21681
3936.20000, 0.21632
3934.27144, 0.21605
3932.34287, 0.21610
3930.41431, 0.21606
3928.48574, 0.21567
3926.55718, 0.21530
3924.62861, 0.21521
3922.70005, 0.21510
3920.77148, 0.21477
3918.84292, 0.21452
3916.91436, 0.21446
3914.98579, 0.21426
3913.05723, 0.21387
3911.12866, 0.21355
3909.20010, 0.21333
3907.27153, 0.21308
3905.34297, 0.21294
3903.41440, 0.21325
3901.48584, 0.21361
3899.55728, 0.21348
3897.62871, 0.21285
3895.70015, 0.21210
3893.77158, 0.21158
3891.84302, 0.21146
3889.91445, 0.21129
3887.98589, 0.21075
3886.05733, 0.21040
3884.12876, 0.21050
3882.20020, 0.21049
3880.27163, 0.21048
3878.34307, 0.21030
3876.41450, 0.20968
3874.48594, 0.20921
3872.55737, 0.20918
3870.62881, 0.20918
3868.70025, 0.20916
3866.77168, 0.20892
3864.84312, 0.20875
3862.91455, 0.20867
3860.98599, 0.20808
3859.05742, 0.20734
3857.12886, 0.20684
3855.20029, 0.20700
3853.27173, 0.20842
3851.34317, 0.20827
3849.41460, 0.20703
3847.48604, 0.20612
3845.55747, 0.20557
3843.62891, 0.20532
3841.70034, 0.20544
3839.77178, 0.20587
3837.84321, 0.20607
3835.91465, 0.20535
3833.98609, 0.20452
3832.05752, 0.20419
3830.12896, 0.20399
3828.20039, 0.20357
3826.27183, 0.20327
3824.34326, 0.20307
3822.41470, 0.20295
3820.48613, 0.20349
3818.55757, 0.20349
3816.62901, 0.20297
3814.70044, 0.20266
3812.77188, 0.20214
3810.84331, 0.20148
3808.91475, 0.20109
3806.98618, 0.20119
3805.05762, 0.20126
3803.12905, 0.20101
3801.20049, 0.20100
3799.27193, 0.20086
3797.34336, 0.20035
3795.41480, 0.19986
3793.48623, 0.19928
3791.55767, 0.19875
3789.62910, 0.19847
3787.70054, 0.19826
3785.77197, 0.19807
3783.84341, 0.19803
3781.91485, 0.19786
3779.98628, 0.19766
3778.05772, 0.19761
3776.12915, 0.19726
3774.20059, 0.19669
3772.27202, 0.19628
3770.34346, 0.19633
3768.41489, 0.19667
3766.48633, 0.19681
3764.55777, 0.19669
3762.62920, 0.19621
3760.70064, 0.19569
3758.77207, 0.19577
3756.84351, 0.19599
3754.91494, 0.19577
3752.98638, 0.19561
3751.05781, 0.19644
3749.12925, 0.19705
3747.20069, 0.19637
3745.27212, 0.19575
3743.34356, 0.19540
3741.41499, 0.19473
3739.48643, 0.19404
3737.55786, 0.19397
3735.62930, 0.19454
3733.70074, 0.19400
3731.77217, 0.19288
3729.84361, 0.19241
3727.91504, 0.19233
3725.98648, 0.19235
3724.05791, 0.19212
3722.12935, 0.19169
3720.20078, 0.19138
3718.27222, 0.19104
3716.34366, 0.19055
3714.41509, 0.19006
3712.48653, 0.19020
3710.55796, 0.19120
3708.62940, 0.19115
3706.70083, 0.19036
3704.77227, 0.18962
3702.84370, 0.18931
3700.91514, 0.18941
3698.98658, 0.18937
3697.05801, 0.18914
3695.12945, 0.18886
3693.20088, 0.18855
3691.27232, 0.18846
3689.34375, 0.18917
3687.41519, 0.18959
3685.48662, 0.18913
3683.55806, 0.18849
3681.62950, 0.18798
3679.70093, 0.18759
3677.77237, 0.18722
3675.84380, 0.18743
3673.91524, 0.18799
3671.98667, 0.18774
3670.05811, 0.18768
3668.12954, 0.18805
3666.20098, 0.18785
3664.27242, 0.18750
3662.34385, 0.18740
3660.41529, 0.18758
3658.48672, 0.18804
3656.55816, 0.18904
3654.62959, 0.18991
3652.70103, 0.18984
3650.77246, 0.19004
3648.84390, 0.19266
3646.91534, 0.19460
3644.98677, 0.19503
3643.05821, 0.19576
3641.12964, 0.19721
3639.20108, 0.19901
3637.27251, 0.20063
3635.34395, 0.20206
3633.41538, 0.20348
3631.48682, 0.20465
3629.55826, 0.20631
3627.62969, 0.20812
3625.70113, 0.20783
3623.77256, 0.20691
3621.84400, 0.20613
3619.91543, 0.20578
3617.98687, 0.20591
3616.05830, 0.20565
3614.12974, 0.20507
3612.20118, 0.20470
3610.27261, 0.20447
3608.34405, 0.20445
3606.41548, 0.20459
3604.48692, 0.20453
3602.55835, 0.20454
3600.62979, 0.20496
3598.70123, 0.20533
3596.77266, 0.20516
3594.84410, 0.20458
3592.91553, 0.20370
3590.98697, 0.20274
3589.05840, 0.20193
3587.12984, 0.20118
3585.20127, 0.20025
3583.27271, 0.19935
3581.34415, 0.19865
3579.41558, 0.19805
3577.48702, 0.19743
3575.55845, 0.19681
3573.62989, 0.19619
3571.70132, 0.19548
3569.77276, 0.19484
3567.84419, 0.19486
3565.91563, 0.19544
3563.98707, 0.19522
3562.05850, 0.19465
3560.12994, 0.19430
3558.20137, 0.19399
3556.27281, 0.19353
3554.34424, 0.19316
3552.41568, 0.19289
3550.48711, 0.19238
3548.55855, 0.19182
3546.62999, 0.19165
3544.70142, 0.19175
3542.77286, 0.19166
3540.84429, 0.19158
3538.91573, 0.19198
3536.98716, 0.19308
3535.05860, 0.19453
3533.13003, 0.19578
3531.20147, 0.19665
3529.27291, 0.19674
3527.34434, 0.19583
3525.41578, 0.19459
3523.48721, 0.19345
3521.55865, 0.19239
3519.63008, 0.19156
3517.70152, 0.19101
3515.77295, 0.19051
3513.84439, 0.18998
3511.91583, 0.18959
3509.98726, 0.18941
3508.05870, 0.18920
3506.13013, 0.18878
3504.20157, 0.18832
3502.27300, 0.18797
3500.34444, 0.18754
3498.41587, 0.18696
3496.48731, 0.18639
3494.55875, 0.18585
3492.63018, 0.18527
3490.70162, 0.18478
3488.77305, 0.18447
3486.84449, 0.18426
3484.91592, 0.18405
3482.98736, 0.18380
3481.05879, 0.18352
3479.13023, 0.18318
3477.20167, 0.18286
3475.27310, 0.18260
3473.34454, 0.18232
3471.41597, 0.18205
3469.48741, 0.18189
3467.55884, 0.18178
3465.63028, 0.18162
3463.70171, 0.18139
3461.77315, 0.18111
3459.84459, 0.18079
3457.91602, 0.18060
3455.98746, 0.18056
3454.05889, 0.18051
3452.13033, 0.18035
3450.20176, 0.18004
3448.27320, 0.17973
3446.34464, 0.17948
3444.41607, 0.17915
3442.48751, 0.17893
3440.55894, 0.17879
3438.63038, 0.17854
3436.70181, 0.17841
3434.77325, 0.17849
3432.84468, 0.17842
3430.91612, 0.17808
3428.98756, 0.17776
3427.05899, 0.17754
3425.13043, 0.17736
3423.20186, 0.17726
3421.27330, 0.17729
3419.34473, 0.17729
3417.41617, 0.17705
3415.48760, 0.17666
3413.55904, 0.17634
3411.63048, 0.17607
3409.70191, 0.17572
3407.77335, 0.17537
3405.84478, 0.17523
3403.91622, 0.17518
3401.98765, 0.17494
3400.05909, 0.17462
3398.13052, 0.17439
3396.20196, 0.17418
3394.27340, 0.17390
3392.34483, 0.17366
3390.41627, 0.17347
3388.48770, 0.17326
3386.55914, 0.17299
3384.63057, 0.17275
3382.70201, 0.17251
3380.77344, 0.17226
3378.84488, 0.17201
3376.91632, 0.17174
3374.98775, 0.17151
3373.05919, 0.17140
3371.13062, 0.17130
3369.20206, 0.17107
3367.27349, 0.17091
3365.34493, 0.17098
3363.41636, 0.17110
3361.48780, 0.17113
3359.55924, 0.17106
3357.63067, 0.17096
3355.70211, 0.17102
3353.77354, 0.17122
3351.84498, 0.17139
3349.91641, 0.17176
3347.98785, 0.17261
3346.05928, 0.17365
3344.13072, 0.17447
3342.20216, 0.17508
3340.27359, 0.17560
3338.34503, 0.17614
3336.41646, 0.17682
3334.48790, 0.17744
3332.55933, 0.17766
3330.63077, 0.17754
3328.70220, 0.17726
3326.77364, 0.17683
3324.84508, 0.17630
3322.91651, 0.17564
3320.98795, 0.17482
3319.05938, 0.17387
3317.13082, 0.17285
3315.20225, 0.17192
3313.27369, 0.17114
3311.34513, 0.17043
3309.41656, 0.16980
3307.48800, 0.16932
3305.55943, 0.16880
3303.63087, 0.16810
3301.70230, 0.16753
3299.77374, 0.16735
3297.84517, 0.16730
3295.91661, 0.16735
3293.98805, 0.16781
3292.05948, 0.16856
3290.13092, 0.16932
3288.20235, 0.17026
3286.27379, 0.17141
3284.34522, 0.17239
3282.41666, 0.17292
3280.48809, 0.17305
3278.55953, 0.17280
3276.63097, 0.17222
3274.70240, 0.17150
3272.77384, 0.17054
3270.84527, 0.16918
3268.91671, 0.16781
3266.98814, 0.16669
3265.05958, 0.16565
3263.13101, 0.16465
3261.20245, 0.16367
3259.27389, 0.16271
3257.34532, 0.16186
3255.41676, 0.16117
3253.48819, 0.16052
3251.55963, 0.15984
3249.63106, 0.15920
3247.70250, 0.15865
3245.77393, 0.15811
3243.84537, 0.15764
3241.91681, 0.15737
3239.98824, 0.15718
3238.05968, 0.15683
3236.13111, 0.15631
3234.20255, 0.15583
3232.27398, 0.15541
3230.34542, 0.15512
3228.41685, 0.15486
3226.48829, 0.15428
3224.55973, 0.15349
3222.63116, 0.15303
3220.70260, 0.15301
3218.77403, 0.15293
3216.84547, 0.15258
3214.91690, 0.15225
3212.98834, 0.15204
3211.05977, 0.15171
3209.13121, 0.15124
3207.20265, 0.15086
3205.27408, 0.15056
3203.34552, 0.15020
3201.41695, 0.14994
3199.48839, 0.14989
3197.55982, 0.14980
3195.63126, 0.14947
3193.70269, 0.14905
3191.77413, 0.14876
3189.84557, 0.14860
3187.91700, 0.14842
3185.98844, 0.14809
3184.05987, 0.14760
3182.13131, 0.14712
3180.20274, 0.14681
3178.27418, 0.14664
3176.34562, 0.14645
3174.41705, 0.14622
3172.48849, 0.14595
3170.55992, 0.14562
3168.63136, 0.14536
3166.70279, 0.14522
3164.77423, 0.14504
3162.84566, 0.14463
3160.91710, 0.14426
3158.98854, 0.14411
3157.05997, 0.14390
3155.13141, 0.14350
3153.20284, 0.14308
3151.27428, 0.14281
3149.34571, 0.14263
3147.41715, 0.14237
3145.48858, 0.14202
3143.56002, 0.14167
3141.63146, 0.14132
3139.70289, 0.14102
3137.77433, 0.14080
3135.84576, 0.14050
3133.91720, 0.14001
3131.98863, 0.13953
3130.06007, 0.13921
3128.13150, 0.13901
3126.20294, 0.13882
3124.27438, 0.13865
3122.34581, 0.13852
3120.41725, 0.13831
3118.48868, 0.13799
3116.56012, 0.13765
3114.63155, 0.13737
3112.70299, 0.13713
3110.77442, 0.13689
3108.84586, 0.13660
3106.91730, 0.13615
3104.98873, 0.13565
3103.06017, 0.13539
3101.13160, 0.13533
3099.20304, 0.13515
3097.27447, 0.13486
3095.34591, 0.13456
3093.41734, 0.13425
3091.48878, 0.13399
3089.56022, 0.13375
3087.63165, 0.13350
3085.70309, 0.13330
3083.77452, 0.13314
3081.84596, 0.13286
3079.91739, 0.13248
3077.98883, 0.13219
3076.06026, 0.13204
3074.13170, 0.13194
3072.20314, 0.13166
3070.27457, 0.13117
3068.34601, 0.13075
3066.41744, 0.13054
3064.48888, 0.13037
3062.56031, 0.13009
3060.63175, 0.12975
3058.70318, 0.12942
3056.77462, 0.12905
3054.84606, 0.12868
3052.91749, 0.12841
3050.98893, 0.12825
3049.06036, 0.12809
3047.13180, 0.12786
3045.20323, 0.12764
3043.27467, 0.12743
3041.34610, 0.12718
3039.41754, 0.12693
3037.48898, 0.12677
3035.56041, 0.12664
3033.63185, 0.12647
3031.70328, 0.12632
3029.77472, 0.12616
3027.84615, 0.12600
3025.91759, 0.12584
3023.98903, 0.12557
3022.06046, 0.12519
3020.13190, 0.12493
3018.20333, 0.12483
3016.27477, 0.12476
3014.34620, 0.12461
3012.41764, 0.12442
3010.48907, 0.12416
3008.56051, 0.12383
3006.63195, 0.12357
3004.70338, 0.12342
3002.77482, 0.12333
3000.84625, 0.12323
2998.91769, 0.12309
2996.98912, 0.12289
2995.06056, 0.12269
2993.13199, 0.12251
2991.20343, 0.12227
2989.27487, 0.12205
2987.34630, 0.12196
2985.41774, 0.12190
2983.48917, 0.12172
2981.56061, 0.12150
2979.63204, 0.12124
2977.70348, 0.12094
2975.77491, 0.12077
2973.84635, 0.12073
2971.91779, 0.12063
2969.98922, 0.12039
2968.06066, 0.12005
2966.13209, 0.11971
2964.20353, 0.11947
2962.27496, 0.11929
2960.34640, 0.11903
2958.41783, 0.11872
2956.48927, 0.11848
2954.56071, 0.11818
2952.63214, 0.11774
2950.70358, 0.11730
2948.77501, 0.11687
2946.84645, 0.11639
2944.91788, 0.11596
2942.98932, 0.11570
2941.06075, 0.11548
2939.13219, 0.11518
2937.20363, 0.11486
2935.27506, 0.11466
2933.34650, 0.11456
2931.41793, 0.11443
2929.48937, 0.11425
2927.56080, 0.11407
2925.63224, 0.11391
2923.70367, 0.11376
2921.77511, 0.11360
2919.84655, 0.11337
2917.91798, 0.11307
2915.98942, 0.11270
2914.06085, 0.11225
2912.13229, 0.11179
2910.20372, 0.11139
2908.27516, 0.11109
2906.34659, 0.11094
2904.41803, 0.11087
2902.48947, 0.11071
2900.56090, 0.11042
2898.63234, 0.11004
2896.70377, 0.10961
2894.77521, 0.10929
2892.84664, 0.10909
2890.91808, 0.10885
2888.98952, 0.10850
2887.06095, 0.10816
2885.13239, 0.10786
2883.20382, 0.10756
2881.27526, 0.10728
2879.34669, 0.10698
2877.41813, 0.10657
2875.48956, 0.10610
2873.56100, 0.10570
2871.63244, 0.10532
2869.70387, 0.10496
2867.77531, 0.10459
2865.84674, 0.10416
2863.91818, 0.10367
2861.98961, 0.10319
2860.06105, 0.10279
2858.13248, 0.10245
2856.20392, 0.10219
2854.27536, 0.10195
2852.34679, 0.10170
2850.41823, 0.10140
2848.48966, 0.10101
2846.56110, 0.10052
2844.63253, 0.09999
2842.70397, 0.09946
2840.77540, 0.09892
2838.84684, 0.09850
2836.91828, 0.09823
2834.98971, 0.09794
2833.06115, 0.09758
2831.13258, 0.09723
2829.20402, 0.09692
2827.27545, 0.09668
2825.34689, 0.09644
2823.41832, 0.09614
2821.48976, 0.09585
2819.56120, 0.09558
2817.63263, 0.09532
2815.70407, 0.09512
2813.77550, 0.09497
2811.84694, 0.09475
2809.91837, 0.09448
2807.98981, 0.09423
2806.06124, 0.09402
2804.13268, 0.09385
2802.20412, 0.09368
2800.27555, 0.09345
2798.34699, 0.09317
2796.41842, 0.09292
2794.48986, 0.09278
2792.56129, 0.09263
2790.63273, 0.09239
2788.70416, 0.09211
2786.77560, 0.09185
2784.84704, 0.09160
2782.91847, 0.09136
2780.98991, 0.09115
2779.06134, 0.09094
2777.13278, 0.09071
2775.20421, 0.09051
2773.27565, 0.09033
2771.34708, 0.09015
2769.41852, 0.08992
2767.48996, 0.08962
2765.56139, 0.08937
2763.63283, 0.08925
2761.70426, 0.08916
2759.77570, 0.08894
2757.84713, 0.08861
2755.91857, 0.08824
2753.99001, 0.08795
2752.06144, 0.08776
2750.13288, 0.08755
2748.20431, 0.08723
2746.27575, 0.08687
2744.34718, 0.08655
2742.41862, 0.08632
2740.49005, 0.08605
2738.56149, 0.08568
2736.63293, 0.08536
2734.70436, 0.08512
2732.77580, 0.08481
2730.84723, 0.08450
2728.91867, 0.08424
2726.99010, 0.08398
2725.06154, 0.08375
2723.13297, 0.08347
2721.20441, 0.08308
2719.27585, 0.08272
2717.34728, 0.08248
2715.41872, 0.08224
2713.49015, 0.08196
2711.56159, 0.08168
2709.63302, 0.08143
2707.70446, 0.08121
2705.77589, 0.08095
2703.84733, 0.08056
2701.91877, 0.08013
2699.99020, 0.07977
2698.06164, 0.07941
2696.13307, 0.07900
2694.20451, 0.07866
2692.27594, 0.07841
2690.34738, 0.07816
2688.41881, 0.07784
2686.49025, 0.07748
2684.56169, 0.07708
2682.63312, 0.07667
2680.70456, 0.07634
2678.77599, 0.07609
2676.84743, 0.07580
2674.91886, 0.07546
2672.99030, 0.07510
2671.06173, 0.07474
2669.13317, 0.07443
2667.20461, 0.07418
2665.27604, 0.07390
2663.34748, 0.07358
2661.41891, 0.07323
2659.49035, 0.07279
2657.56178, 0.07231
2655.63322, 0.07195
2653.70465, 0.07163
2651.77609, 0.07124
2649.84753, 0.07084
2647.91896, 0.07050
2645.99040, 0.07012
2644.06183, 0.06971
2642.13327, 0.06939
2640.20470, 0.06915
2638.27614, 0.06884
2636.34757, 0.06860
2634.41901, 0.06847
2632.49045, 0.06820
2630.56188, 0.06771
2628.63332, 0.06724
2626.70475, 0.06691
2624.77619, 0.06657
2622.84762, 0.06623
2620.91906, 0.06589
2618.99049, 0.06551
2617.06193, 0.06514
2615.13337, 0.06484
2613.20480, 0.06460
2611.27624, 0.06432
2609.34767, 0.06398
2607.41911, 0.06365
2605.49054, 0.06332
2603.56198, 0.06298
2601.63342, 0.06267
2599.70485, 0.06241
2597.77629, 0.06215
2595.84772, 0.06183
2593.91916, 0.06153
2591.99059, 0.06127
2590.06203, 0.06088
2588.13346, 0.06040
2586.20490, 0.06002
2584.27634, 0.05979
2582.34777, 0.05964
2580.41921, 0.05947
2578.49064, 0.05925
2576.56208, 0.05907
2574.63351, 0.05896
2572.70495, 0.05875
2570.77638, 0.05834
2568.84782, 0.05789
2566.91926, 0.05755
2564.99069, 0.05726
2563.06213, 0.05693
2561.13356, 0.05656
2559.20500, 0.05624
2557.27643, 0.05607
2555.34787, 0.05592
2553.41930, 0.05561
2551.49074, 0.05526
2549.56218, 0.05497
2547.63361, 0.05471
2545.70505, 0.05446
2543.77648, 0.05420
2541.84792, 0.05395
2539.91935, 0.05374
2537.99079, 0.05358
2536.06222, 0.05345
2534.13366, 0.05325
2532.20510, 0.05291
2530.27653, 0.05254
2528.34797, 0.05222
2526.41940, 0.05201
2524.49084, 0.05185
2522.56227, 0.05167
2520.63371, 0.05144
2518.70514, 0.05119
2516.77658, 0.05093
2514.84802, 0.05066
2512.91945, 0.05037
2510.99089, 0.05001
2509.06232, 0.04976
2507.13376, 0.04970
2505.20519, 0.04960
2503.27663, 0.04933
2501.34806, 0.04898
2499.41950, 0.04866
2497.49094, 0.04837
2495.56237, 0.04813
2493.63381, 0.04793
2491.70524, 0.04777
2489.77668, 0.04764
2487.84811, 0.04746
2485.91955, 0.04723
2483.99098, 0.04704
2482.06242, 0.04687
2480.13386, 0.04664
2478.20529, 0.04638
2476.27673, 0.04614
2474.34816, 0.04589
2472.41960, 0.04564
2470.49103, 0.04540
2468.56247, 0.04521
2466.63391, 0.04508
2464.70534, 0.04493
2462.77678, 0.04477
2460.84821, 0.04467
2458.91965, 0.04451
2456.99108, 0.04417
2455.06252, 0.04374
2453.13395, 0.04344
2451.20539, 0.04329
2449.27683, 0.04327
2447.34826, 0.04330
2445.41970, 0.04320
2443.49113, 0.04292
2441.56257, 0.04264
2439.63400, 0.04242
2437.70544, 0.04219
2435.77687, 0.04195
2433.84831, 0.04176
2431.91975, 0.04160
2429.99118, 0.04139
2428.06262, 0.04121
2426.13405, 0.04106
2424.20549, 0.04086
2422.27692, 0.04067
2420.34836, 0.04057
2418.41979, 0.04056
2416.49123, 0.04049
2414.56267, 0.04021
2412.63410, 0.03981
2410.70554, 0.03951
2408.77697, 0.03937
2406.84841, 0.03935
2404.91984, 0.03930
2402.99128, 0.03912
2401.06271, 0.03892
2399.13415, 0.03875
2397.20559, 0.03861
2395.27702, 0.03852
2393.34846, 0.03842
2391.41989, 0.03833
2389.49133, 0.03827
2387.56276, 0.03812
2385.63420, 0.03782
2383.70563, 0.03749
2381.77707, 0.03718
2379.84851, 0.03688
2377.91994, 0.03655
2375.99138, 0.03617
2374.06281, 0.03587
2372.13425, 0.03579
2370.20568, 0.03574
2368.27712, 0.03544
2366.34855, 0.03506
2364.41999, 0.03455
2362.49143, 0.03392
2360.56286, 0.03341
2358.63430, 0.03292
2356.70573, 0.03299
2354.77717, 0.03385
2352.84860, 0.03459
2350.92004, 0.03484
2348.99147, 0.03472
2347.06291, 0.03426
2345.13435, 0.03345
2343.20578, 0.03281
2341.27722, 0.03282
2339.34865, 0.03318
2337.42009, 0.03351
2335.49152, 0.03345
2333.56296, 0.03291
2331.63440, 0.03251
2329.70583, 0.03259
2327.77727, 0.03267
2325.84870, 0.03250
2323.92014, 0.03244
2321.99157, 0.03265
2320.06301, 0.03280
2318.13444, 0.03259
2316.20588, 0.03229
2314.27732, 0.03223
2312.34875, 0.03233
2310.42019, 0.03245
2308.49162, 0.03253
2306.56306, 0.03248
2304.63449, 0.03233
2302.70593, 0.03217
2300.77736, 0.03204
2298.84880, 0.03195
2296.92024, 0.03188
2294.99167, 0.03182
2293.06311, 0.03171
2291.13454, 0.03158
2289.20598, 0.03148
2287.27741, 0.03146
2285.34885, 0.03142
2283.42028, 0.03122
2281.49172, 0.03101
2279.56316, 0.03104
2277.63459, 0.03109
2275.70603, 0.03092
2273.77746, 0.03070
2271.84890, 0.03054
2269.92033, 0.03039
2267.99177, 0.03028
2266.06320, 0.03026
2264.13464, 0.03026
2262.20608, 0.03022
2260.27751, 0.03012
2258.34895, 0.03002
2256.42038, 0.02993
2254.49182, 0.02980
2252.56325, 0.02973
2250.63469, 0.02973
2248.70612, 0.02965
2246.77756, 0.02953
2244.84900, 0.02942
2242.92043, 0.02926
2240.99187, 0.02913
2239.06330, 0.02907
2237.13474, 0.02899
2235.20617, 0.02886
2233.27761, 0.02883
2231.34904, 0.02893
2229.42048, 0.02898
2227.49192, 0.02887
2225.56335, 0.02867
2223.63479, 0.02849
2221.70622, 0.02836
2219.77766, 0.02829
2217.84909, 0.02829
2215.92053, 0.02825
2213.99196, 0.02816
2212.06340, 0.02806
2210.13484, 0.02807
2208.20627, 0.02826
2206.27771, 0.02835
2204.34914, 0.02825
2202.42058, 0.02814
2200.49201, 0.02804
2198.56345, 0.02795
2196.63488, 0.02785
2194.70632, 0.02768
2192.77776, 0.02758
2190.84919, 0.02773
2188.92063, 0.02790
2186.99206, 0.02776
2185.06350, 0.02744
2183.13493, 0.02730
2181.20637, 0.02734
2179.27781, 0.02726
2177.34924, 0.02709
2175.42068, 0.02700
2173.49211, 0.02702
2171.56355, 0.02709
2169.63498, 0.02699
2167.70642, 0.02668
2165.77785, 0.02641
2163.84929, 0.02630
2161.92073, 0.02630
2159.99216, 0.02634
2158.06360, 0.02638
2156.13503, 0.02646
2154.20647, 0.02660
2152.27790, 0.02670
2150.34934, 0.02676
2148.42077, 0.02684
2146.49221, 0.02684
2144.56365, 0.02669
2142.63508, 0.02656
2140.70652, 0.02663
2138.77795, 0.02671
2136.84939, 0.02670
2134.92082, 0.02675
2132.99226, 0.02678
2131.06369, 0.02663
2129.13513, 0.02657
2127.20657, 0.02672
2125.27800, 0.02673
2123.34944, 0.02658
2121.42087, 0.02654
2119.49231, 0.02660
2117.56374, 0.02663
2115.63518, 0.02664
2113.70661, 0.02660
2111.77805, 0.02653
2109.84949, 0.02659
2107.92092, 0.02670
2105.99236, 0.02676
2104.06379, 0.02671
2102.13523, 0.02661
2100.20666, 0.02660
2098.27810, 0.02656
2096.34953, 0.02641
2094.42097, 0.02634
2092.49241, 0.02635
2090.56384, 0.02634
2088.63528, 0.02628
2086.70671, 0.02615
2084.77815, 0.02598
2082.84958, 0.02586
2080.92102, 0.02593
2078.99245, 0.02622
2077.06389, 0.02644
2075.13533, 0.02650
2073.20676, 0.02647
2071.27820, 0.02631
2069.34963, 0.02602
2067.42107, 0.02575
2065.49250, 0.02564
2063.56394, 0.02563
2061.63537, 0.02553
2059.70681, 0.02533
2057.77825, 0.02539
2055.84968, 0.02576
2053.92112, 0.02591
2051.99255, 0.02565
2050.06399, 0.02534
2048.13542, 0.02518
2046.20686, 0.02515
2044.27830, 0.02516
2042.34973, 0.02518
2040.42117, 0.02520
2038.49260, 0.02516
2036.56404, 0.02505
2034.63547, 0.02497
2032.70691, 0.02498
2030.77834, 0.02493
2028.84978, 0.02473
2026.92122, 0.02459
2024.99265, 0.02467
2023.06409, 0.02472
2021.13552, 0.02467
2019.20696, 0.02471
2017.27839, 0.02470
2015.34983, 0.02450
2013.42126, 0.02446
2011.49270, 0.02470
2009.56414, 0.02489
2007.63557, 0.02504
2005.70701, 0.02511
2003.77844, 0.02487
2001.84988, 0.02460
1999.92131, 0.02453
1997.99275, 0.02449
1996.06418, 0.02450
1994.13562, 0.02471
1992.20706, 0.02493
1990.27849, 0.02487
1988.34993, 0.02464
1986.42136, 0.02452
1984.49280, 0.02439
1982.56423, 0.02415
1980.63567, 0.02395
1978.70710, 0.02382
1976.77854, 0.02376
1974.84998, 0.02384
1972.92141, 0.02396
1970.99285, 0.02395
1969.06428, 0.02394
1967.13572, 0.02396
1965.20715, 0.02379
1963.27859, 0.02362
1961.35002, 0.02364
1959.42146, 0.02376
1957.49290, 0.02390
1955.56433, 0.02383
1953.63577, 0.02350
1951.70720, 0.02324
1949.77864, 0.02323
1947.85007, 0.02329
1945.92151, 0.02331
1943.99294, 0.02337
1942.06438, 0.02342
1940.13582, 0.02334
1938.20725, 0.02325
1936.27869, 0.02325
1934.35012, 0.02326
1932.42156, 0.02322
1930.49299, 0.02313
1928.56443, 0.02295
1926.63586, 0.02274
1924.70730, 0.02275
1922.77874, 0.02296
1920.85017, 0.02296
1918.92161, 0.02283
1916.99304, 0.02278
1915.06448, 0.02263
1913.13591, 0.02241
1911.20735, 0.02237
1909.27878, 0.02246
1907.35022, 0.02249
1905.42166, 0.02249
1903.49309, 0.02253
1901.56453, 0.02253
1899.63596, 0.02250
1897.70740, 0.02250
1895.77883, 0.02252
1893.85027, 0.02247
1891.92171, 0.02240
1889.99314, 0.02253
1888.06458, 0.02275
1886.13601, 0.02282
1884.20745, 0.02282
1882.27888, 0.02286
1880.35032, 0.02292
1878.42175, 0.02302
1876.49319, 0.02310
1874.56463, 0.02310
1872.63606, 0.02308
1870.70750, 0.02317
1868.77893, 0.02351
1866.85037, 0.02378
1864.92180, 0.02362
1862.99324, 0.02334
1861.06467, 0.02319
1859.13611, 0.02322
1857.20755, 0.02337
1855.27898, 0.02348
1853.35042, 0.02346
1851.42185, 0.02345
1849.49329, 0.02360
1847.56472, 0.02378
1845.63616, 0.02385
1843.70759, 0.02381
1841.77903, 0.02371
1839.85047, 0.02358
1837.92190, 0.02339
1835.99334, 0.02312
1834.06477, 0.02295
1832.13621, 0.02293
1830.20764, 0.02300
1828.27908, 0.02301
1826.35051, 0.02294
1824.42195, 0.02285
1822.49339, 0.02270
1820.56482, 0.02252
1818.63626, 0.02238
1816.70769, 0.02232
1814.77913, 0.02226
1812.85056, 0.02218
1810.92200, 0.02215
1808.99343, 0.02209
1807.06487, 0.02193
1805.13631, 0.02175
1803.20774, 0.02158
1801.27918, 0.02148
1799.35061, 0.02146
1797.42205, 0.02142
1795.49348, 0.02126
1793.56492, 0.02111
1791.63635, 0.02105
1789.70779, 0.02075
1787.77923, 0.02029
1785.85066, 0.01996
1783.92210, 0.01979
1781.99353, 0.01972
1780.06497, 0.01972
1778.13640, 0.01959
1776.20784, 0.01931
1774.27927, 0.01912
1772.35071, 0.01919
1770.42215, 0.01918
1768.49358, 0.01888
1766.56502, 0.01851
1764.63645, 0.01821
1762.70789, 0.01809
1760.77932, 0.01809
1758.85076, 0.01796
1756.92220, 0.01778
1754.99363, 0.01760
1753.06507, 0.01744
1751.13650, 0.01743
1749.20794, 0.01757
1747.27937, 0.01747
1745.35081, 0.01727
1743.42224, 0.01703
1741.49368, 0.01669
1739.56512, 0.01645
1737.63655, 0.01634
1735.70799, 0.01627
1733.77942, 0.01636
1731.85086, 0.01624
1729.92229, 0.01586
1727.99373, 0.01553
1726.06516, 0.01529
1724.13660, 0.01516
1722.20804, 0.01504
1720.27947, 0.01485
1718.35091, 0.01494
1716.42234, 0.01548
1714.49378, 0.01535
1712.56521, 0.01485
1710.63665, 0.01447
1708.70808, 0.01431
1706.77952, 0.01446
1704.85096, 0.01478
1702.92239, 0.01468
1700.99383, 0.01438
1699.06526, 0.01457
1697.13670, 0.01472
1695.20813, 0.01435
1693.27957, 0.01390
1691.35100, 0.01360
1689.42244, 0.01357
1687.49388, 0.01363
1685.56531, 0.01367
1683.63675, 0.01398
1681.70818, 0.01407
1679.77962, 0.01382
1677.85105, 0.01356
1675.92249, 0.01350
1673.99392, 0.01362
1672.06536, 0.01358
1670.13680, 0.01347
1668.20823, 0.01338
1666.27967, 0.01312
1664.35110, 0.01295
1662.42254, 0.01313
1660.49397, 0.01319
1658.56541, 0.01291
1656.63684, 0.01250
1654.70828, 0.01204
1652.77972, 0.01239
1650.85115, 0.01292
1648.92259, 0.01288
1646.99402, 0.01290
1645.06546, 0.01279
1643.13689, 0.01247
1641.20833, 0.01220
1639.27976, 0.01201
1637.35120, 0.01215
1635.42264, 0.01274
1633.49407, 0.01274
1631.56551, 0.01236
1629.63694, 0.01201
1627.70838, 0.01174
1625.77981, 0.01143
1623.85125, 0.01104
1621.92269, 0.01043
1619.99412, 0.00975
1618.06556, 0.00927
1616.13699, 0.00900
1614.20843, 0.00846
1612.27986, 0.00783
1610.35130, 0.00739
1608.42273, 0.00700
1606.49417, 0.00652
1604.56561, 0.00609
1602.63704, 0.00578
1600.70848, 0.00549
1598.77991, 0.00514
1596.85135, 0.00477
1594.92278, 0.00436
1592.99422, 0.00393
1591.06565, 0.00352
1589.13709, 0.00312
1587.20853, 0.00275
1585.27996, 0.00244
1583.35140, 0.00213
1581.42283, 0.00178
1579.49427, 0.00149
1577.56570, 0.00142
1575.63714, 0.00145
1573.70857, 0.00107
1571.78001, 0.00062
1569.85145, 0.00040
1567.92288, 0.00024
1565.99432, -0.00010
1564.06575, -0.00048
1562.13719, -0.00091
1560.20862, -0.00140
1558.28006, -0.00126
1556.35149, -0.00124
1554.42293, -0.00190
1552.49437, -0.00254
1550.56580, -0.00303
1548.63724, -0.00347
1546.70867, -0.00378
1544.78011, -0.00378
1542.85154, -0.00363
1540.92298, -0.00421
1538.99441, -0.00494
1537.06585, -0.00521
1535.13729, -0.00550
1533.20872, -0.00583
1531.28016, -0.00624
1529.35159, -0.00661
1527.42303, -0.00685
1525.49446, -0.00709
1523.56590, -0.00749
1521.63733, -0.00790
1519.70877, -0.00827
1517.78021, -0.00857
1515.85164, -0.00894
1513.92308, -0.00947
1511.99451, -0.00994
1510.06595, -0.01018
1508.13738, -0.01010
1506.20882, -0.00992
1504.28025, -0.01031
1502.35169, -0.01073
1500.42313, -0.01097
1498.49456, -0.01092
1496.56600, -0.01079
1494.63743, -0.01093
1492.70887, -0.01107
1490.78030, -0.01070
1488.85174, -0.00953
1486.92317, -0.00875
1484.99461, -0.00835
1483.06605, -0.00763
1481.13748, -0.00639
1479.20892, -0.00515
1477.28035, -0.00421
1475.35179, -0.00325
1473.42322, -0.00242
1471.49466, -0.00275
1469.56610, -0.00375
1467.63753, -0.00471
1465.70897, -0.00566
1463.78040, -0.00668
1461.85184, -0.00752
1459.92327, -0.00812
1457.99471, -0.00838
1456.06614, -0.00860
1454.13758, -0.00906
1452.20902, -0.00931
1450.28045, -0.00908
1448.35189, -0.00789
1446.42332, -0.00571
1444.49476, -0.00308
1442.56619, 0.00030
1440.63763, 0.00409
1438.70906, 0.00728
1436.78050, 0.00898
1434.85194, 0.00766
1432.92337, 0.00452
1430.99481, 0.00044
1429.06624, -0.00403
1427.13768, -0.00735
1425.20911, -0.00967
1423.28055, -0.01160
1421.35198, -0.01299
1419.42342, -0.01409
1417.49486, -0.01521
1415.56629, -0.01608
1413.63773, -0.01663
1411.70916, -0.01682
1409.78060, -0.01670
1407.85203, -0.01631
1405.92347, -0.01539
1403.99490, -0.01390
1402.06634, -0.01252
1400.13778, -0.01131
1398.20921, -0.01038
1396.28065, -0.01069
1394.35208, -0.01250
1392.42352, -0.01468
1390.49495, -0.01648
1388.56639, -0.01821
1386.63782, -0.01997
1384.70926, -0.02137
1382.78070, -0.02240
1380.85213, -0.02319
1378.92357, -0.02378
1376.99500, -0.02431
1375.06644, -0.02484
1373.13787, -0.02537
1371.20931, -0.02584
1369.28074, -0.02623
1367.35218, -0.02662
1365.42362, -0.02703
1363.49505, -0.02741
1361.56649, -0.02773
1359.63792, -0.02803
1357.70936, -0.02830
1355.78079, -0.02855
1353.85223, -0.02880
1351.92366, -0.02908
1349.99510, -0.02938
1348.06654, -0.02967
1346.13797, -0.02990
1344.20941, -0.03011
1342.28084, -0.03031
1340.35228, -0.03048
1338.42371, -0.03069
1336.49515, -0.03092
1334.56659, -0.03116
1332.63802, -0.03137
1330.70946, -0.03153
1328.78089, -0.03169
1326.85233, -0.03189
1324.92376, -0.03206
1322.99520, -0.03220
1321.06663, -0.03240
1319.13807, -0.03256
1317.20951, -0.03267
1315.28094, -0.03284
1313.35238, -0.03306
1311.42381, -0.03332
1309.49525, -0.03358
1307.56668, -0.03382
1305.63812, -0.03404
1303.70955, -0.03426
1301.78099, -0.03444
1299.85243, -0.03457
1297.92386, -0.03470
1295.99530, -0.03482
1294.06673, -0.03486
1292.13817, -0.03486
1290.20960, -0.03494
1288.28104, -0.03508
1286.35247, -0.03521
1284.42391, -0.03534
1282.49535, -0.03551
1280.56678, -0.03565
1278.63822, -0.03568
1276.70965, -0.03564
1274.78109, -0.03563
1272.85252, -0.03564
1270.92396, -0.03560
1268.99539, -0.03556
1267.06683, -0.03559
1265.13827, -0.03564
1263.20970, -0.03564
1261.28114, -0.03559
1259.35257, -0.03556
1257.42401, -0.03556
1255.49544, -0.03552
1253.56688, -0.03540
1251.63831, -0.03522
1249.70975, -0.03502
1247.78119, -0.03480
1245.85262, -0.03457
1243.92406, -0.03435
1241.99549, -0.03413
1240.06693, -0.03390
1238.13836, -0.03367
1236.20980, -0.03345
1234.28123, -0.03320
1232.35267, -0.03289
1230.42411, -0.03250
1228.49554, -0.03208
1226.56698, -0.03164
1224.63841, -0.03119
1222.70985, -0.03071
1220.78128, -0.03021
1218.85272, -0.02968
1216.92415, -0.02912
1214.99559, -0.02856
1213.06703, -0.02796
1211.13846, -0.02728
1209.20990, -0.02650
1207.28133, -0.02566
1205.35277, -0.02479
1203.42420, -0.02386
1201.49564, -0.02289
1199.56708, -0.02185
1197.63851, -0.02071
1195.70995, -0.01946
1193.78138, -0.01810
1191.85282, -0.01668
1189.92425, -0.01519
1187.99569, -0.01366
1186.06712, -0.01215
1184.13856, -0.01069
1182.21000, -0.00923
1180.28143, -0.00779
1178.35287, -0.00641
1176.42430, -0.00502
1174.49574, -0.00348
1172.56717, -0.00181
1170.63861, -0.00006
1168.71004, 0.00181
1166.78148, 0.00396
1164.85292, 0.00643
1162.92435, 0.00923
1160.99579, 0.01236
1159.06722, 0.01582
1157.13866, 0.01980
1155.21009, 0.02454
1153.28153, 0.02999
1151.35296, 0.03594
1149.42440, 0.04218
1147.49584, 0.04856
1145.56727, 0.05492
1143.63871, 0.06113
1141.71014, 0.06724
1139.78158, 0.07348
1137.85301, 0.08011
1135.92445, 0.08736
1133.99588, 0.09546
1132.06732, 0.10433
1130.13876, 0.11360
1128.21019, 0.12293
1126.28163, 0.13213
1124.35306, 0.14086
1122.42450, 0.14899
1120.49593, 0.15673
1118.56737, 0.16424
1116.63880, 0.17171
1114.71024, 0.17967
1112.78168, 0.18852
1110.85311, 0.19850
1108.92455, 0.20976
1106.99598, 0.22231
1105.06742, 0.23599
1103.13885, 0.25064
1101.21029, 0.26626
1099.28172, 0.28283
1097.35316, 0.30004
1095.42460, 0.31726
1093.49603, 0.33374
1091.56747, 0.34898
1089.63890, 0.36268
1087.71034, 0.37450
1085.78177, 0.38401
1083.85321, 0.39078
1081.92464, 0.39485
1079.99608, 0.39680
1078.06752, 0.39735
1076.13895, 0.39720
1074.21039, 0.39736
1072.28182, 0.39880
1070.35326, 0.40215
1068.42469, 0.40735
1066.49613, 0.41375
1064.56756, 0.42061
1062.63900, 0.42689
1060.71044, 0.43113
1058.78187, 0.43193
1056.85331, 0.42872
1054.92474, 0.42172
1052.99618, 0.41188
1051.06761, 0.40080
1049.13905, 0.38981
1047.21049, 0.37999
1045.28192, 0.37251
1043.35336, 0.36833
1041.42479, 0.36790
1039.49623, 0.37122
1037.56766, 0.37801
1035.63910, 0.38776
1033.71053, 0.39979
1031.78197, 0.41322
1029.85341, 0.42699
1027.92484, 0.44013
1025.99628, 0.45213
1024.06771, 0.46277
1022.13915, 0.47215
1020.21058, 0.48081
1018.28202, 0.48902
1016.35345, 0.49696
1014.42489, 0.50501
1012.49633, 0.51354
1010.56776, 0.52275
1008.63920, 0.53284
1006.71063, 0.54404
1004.78207, 0.55647
1002.85350, 0.57001
1000.92494, 0.58436
998.99637, 0.59923
997.06781, 0.61454
995.13925, 0.63002
993.21068, 0.64494
991.28212, 0.65884
989.35355, 0.67153
987.42499, 0.68243
985.49642, 0.69145
983.56786, 0.69920
981.63929, 0.70615
979.71073, 0.71211
977.78217, 0.71719
975.85360, 0.72222
973.92504, 0.72737
971.99647, 0.73189
970.06791, 0.73571
968.13934, 0.73950
966.21078, 0.74367
964.28221, 0.74859
962.35365, 0.75449
960.42509, 0.76111
958.49652, 0.76811
956.56796, 0.77445
954.63939, 0.77834
952.71083, 0.77912
950.78226, 0.77752
948.85370, 0.77428
946.92513, 0.77044
944.99657, 0.76743
943.06801, 0.76576
941.13944, 0.76475
939.21088, 0.76333
937.28231, 0.76020
935.35375, 0.75436
933.42518, 0.74545
931.49662, 0.73352
929.56805, 0.71903
927.63949, 0.70274
925.71093, 0.68555
923.78236, 0.66830
921.85380, 0.65120
919.92523, 0.63421
917.99667, 0.61735
916.06810, 0.60078
914.13954, 0.58451
912.21098, 0.56849
910.28241, 0.55284
908.35385, 0.53767
906.42528, 0.52270
904.49672, 0.50715
902.56815, 0.48969
900.63959, 0.46903
898.71102, 0.44450
896.78246, 0.41603
894.85390, 0.38421
892.92533, 0.35028
890.99677, 0.31556
889.06820, 0.28118
887.13964, 0.24830
885.21107, 0.21775
883.28251, 0.18987
881.35394, 0.16485
879.42538, 0.14267
877.49682, 0.12319
875.56825, 0.10624
873.63969, 0.09152
871.71112, 0.07866
869.78256, 0.06737
867.85399, 0.05736
865.92543, 0.04847
863.99686, 0.04057
862.06830, 0.03354
860.13974, 0.02735
858.21117, 0.02195
856.28261, 0.01715
854.35404, 0.01270
852.42548, 0.00857
850.49691, 0.00479
848.56835, 0.00133
846.63978, -0.00182
844.71122, -0.00465
842.78266, -0.00726
840.85409, -0.00966
838.92553, -0.01179
836.99696, -0.01368
835.06840, -0.01538
833.13983, -0.01689
831.21127, -0.01822
829.28270, -0.01934
827.35414, -0.02020
825.42558, -0.02097
823.49701, -0.02177
821.56845, -0.02232
819.63988, -0.02251
817.71132, -0.02255
815.78275, -0.02244
813.85419, -0.02224
811.92562, -0.02218
809.99706, -0.02221
808.06850, -0.02215
806.13993, -0.02220
804.21137, -0.02242
802.28280, -0.02264
800.35424, -0.02280
798.42567, -0.02296
796.49711, -0.02318
794.56854, -0.02346
792.63998, -0.02377
790.71142, -0.02419
788.78285, -0.02462
786.85429, -0.02483
784.92572, -0.02484
782.99716, -0.02493
781.06859, -0.02519
779.14003, -0.02544
777.21147, -0.02555
775.28290, -0.02560
773.35434, -0.02566
771.42577, -0.02577
769.49721, -0.02588
767.56864, -0.02588
765.64008, -0.02569
763.71151, -0.02538
761.78295, -0.02490
759.85439, -0.02410
757.92582, -0.02302
755.99726, -0.02172
754.06869, -0.02014
752.14013, -0.01838
750.21156, -0.01652
748.28300, -0.01448
746.35443, -0.01212
744.42587, -0.00950
742.49731, -0.00670
740.56874, -0.00369
738.64018, -0.00047
736.71161, 0.00292
734.78305, 0.00644
732.85448, 0.01000
730.92592, 0.01351
728.99735, 0.01687
727.06879, 0.02006
725.14023, 0.02315
723.21166, 0.02603
721.28310, 0.02852
719.35453, 0.03071
717.42597, 0.03285
715.49740, 0.03498
713.56884, 0.03693
711.64027, 0.03868
709.71171, 0.04048
707.78315, 0.04233
705.85458, 0.04414
703.92602, 0.04596
701.99745, 0.04776
700.06889, 0.04944
698.14032, 0.05068
696.21176, 0.05115
694.28319, 0.05094
692.35463, 0.05016
690.42607, 0.04873
688.49750, 0.04699
686.56894, 0.04562
684.64037, 0.04503
682.71181, 0.04514
680.78324, 0.04562
678.85468, 0.04653
676.92611, 0.04790
674.99755, 0.04928
673.06899, 0.05053
671.14042, 0.05165
669.21186, 0.05296
667.28329, 0.05503
665.35473, 0.05672
663.42616, 0.05822
661.49760, 0.06001
659.56903, 0.06200
657.64047, 0.06429
655.71191, 0.06705
653.78334, 0.06990
651.85478, 0.07207
649.92621, 0.07298
647.99765, 0.07214
646.06908, 0.06937
644.14052, 0.06540
642.21195, 0.06121
640.28339, 0.05710
638.35483, 0.05330
636.42626, 0.05013
634.49770, 0.04751
632.56913, 0.04542
630.64057, 0.04383
628.71200, 0.04247
626.78344, 0.04106
624.85488, 0.03954
622.92631, 0.03799
620.99775, 0.03669
619.06918, 0.03571
617.14062, 0.03470
615.21205, 0.03358
613.28349, 0.03251
611.35492, 0.03158
609.42636, 0.03088
607.49780, 0.03036
605.56923, 0.02981
603.64067, 0.02916
601.71210, 0.02875
599.78354, 0.02898
597.85497, 0.02979
595.92641, 0.03088
593.99784, 0.03237
592.06928, 0.03464
590.14072, 0.03761
588.21215, 0.04128
586.28359, 0.04635
584.35502, 0.05324
582.42646, 0.06198
580.49789, 0.07283
578.56933, 0.08534
576.64076, 0.09961
574.71220, 0.11566
572.78364, 0.13147
570.85507, 0.14582
568.92651, 0.15781
566.99794, 0.16523
565.06938, 0.16626
563.14081, 0.16091
561.21225, 0.15054
559.28368, 0.13736
557.35512, 0.12411
555.42656, 0.11289
553.49799, 0.10446
551.56943, 0.09885
549.64086, 0.09581
547.71230, 0.09482
545.78373, 0.09558
543.85517, 0.09805
541.92660, 0.10171
539.99804, 0.10553
538.06948, 0.10897
536.14091, 0.11192
534.21235, 0.11405
532.28378, 0.11518
530.35522, 0.11538
528.42665, 0.11508
526.49809, 0.11473
524.56952, 0.11435
522.64096, 0.11381
520.71240, 0.11328
518.78383, 0.11339
516.85527, 0.11465
514.92670, 0.11664
512.99814, 0.11940
511.06957, 0.12373
509.14101, 0.12975
507.21244, 0.13749
505.28388, 0.14656
503.35532, 0.15679
501.42675, 0.16874
499.49819, 0.18067
497.56962, 0.19230
495.64106, 0.20444
493.71249, 0.21715
491.78393, 0.23102
489.85537, 0.24457
487.92680, 0.25663
485.99824, 0.26947
484.06967, 0.28469
482.14111, 0.29996
480.21254, 0.31376
478.28398, 0.32722
476.35541, 0.34039
474.42685, 0.35351
472.49829, 0.36880
470.56972, 0.38539
468.64116, 0.40134
466.71259, 0.41700
464.78403, 0.42969
462.85546, 0.44057
460.92690, 0.45126
458.99833, 0.46003
457.06977, 0.46704
455.14121, 0.47109
453.21264, 0.47203
451.28408, 0.47158
449.35551, 0.47225
447.42695, 0.47311
445.49838, 0.47116
443.56982, 0.46517
441.64125, 0.45479
439.71269, 0.44492
437.78413, 0.43932
435.85556, 0.43526
433.92700, 0.42778
431.99843, 0.41661
430.06987, 0.40393
428.14130, 0.39290
##END=



