##NAMES=Teallite
##RRUFFID=R050434
##IDEAL CHEMISTRY=PbSnS_2_
##LOCALITY=Carhuaycollo, Carguaicollo District, Potosi, Bolivia
##OWNER=RRUFF
##SOURCE=University of Arizona Mineral Museum
##DESCRIPTION=Grayish black massive aggregate of thin folia with warped and bent crystals
##STATUS=The identification of this mineral has been confirmed by X-ray diffraction.
##URL=rruff.info/R050434
##MEASURED CHEMISTRY=(Pb_0.71_Sn_1.29_)_Î£=2_S_2.00_
399.1926, 0.3188967
401.1211, 0.3170376
403.0496, 0.3185618
404.9780, 0.3288142
406.9065, 0.3309125
408.8350, 0.3447386
410.7634, 0.3433008
412.6919, 0.3380170
414.6204, 0.3446327
416.5488, 0.3357344
418.4773, 0.3298979
420.4058, 0.3407187
422.3342, 0.3432617
424.2627, 0.3453678
426.1912, 0.3473797
428.1196, 0.3527222
430.0481, 0.3580190
431.9766, 0.3561091
433.9050, 0.3530968
435.8335, 0.3600312
437.7620, 0.3614192
439.6904, 0.3617842
441.6189, 0.3613921
443.5474, 0.3608049
445.4758, 0.3651801
447.4043, 0.3701948
449.3328, 0.3663751
451.2612, 0.3674354
453.1897, 0.3751861
455.1182, 0.3780564
457.0466, 0.3812986
458.9751, 0.3832262
460.9036, 0.3821906
462.8320, 0.3821678
464.7605, 0.3847850
466.6890, 0.3865551
468.6174, 0.3838109
470.5459, 0.3836567
472.4744, 0.3864875
474.4028, 0.3922650
476.3313, 0.3931136
478.2598, 0.3942567
480.1882, 0.3969142
482.1167, 0.3963419
484.0452, 0.3977244
485.9736, 0.3982306
487.9021, 0.3985107
489.8306, 0.3979112
491.7590, 0.3977109
493.6875, 0.4020382
495.6160, 0.4036471
497.5444, 0.4042674
499.4729, 0.4068388
501.4014, 0.4131615
503.3298, 0.4155140
505.2583, 0.4124690
507.1868, 0.4120102
509.1152, 0.4154590
511.0437, 0.4172546
512.9722, 0.4167525
514.9006, 0.4197807
516.8291, 0.4208308
518.7576, 0.4188481
520.6860, 0.4202788
522.6145, 0.4233757
524.5430, 0.4262475
526.4714, 0.4242993
528.3999, 0.4236926
530.3284, 0.4279561
532.2568, 0.4289150
534.1853, 0.4270737
536.1138, 0.4276010
538.0422, 0.4283518
539.9707, 0.4309099
541.8992, 0.4347389
543.8276, 0.4371955
545.7561, 0.4377085
547.6846, 0.4390866
549.6130, 0.4394918
551.5415, 0.4389684
553.4700, 0.4394465
555.3984, 0.4407868
557.3269, 0.4416988
559.2554, 0.4416724
561.1838, 0.4428655
563.1123, 0.4433858
565.0408, 0.4434390
566.9692, 0.4457479
568.8977, 0.4460540
570.8262, 0.4467807
572.7546, 0.4469871
574.6831, 0.4487469
576.6116, 0.4519739
578.5400, 0.4548521
580.4685, 0.4561105
582.3970, 0.4568949
584.3254, 0.4581042
586.2539, 0.4573046
588.1824, 0.4564101
590.1108, 0.4579622
592.0393, 0.4591637
593.9678, 0.4592951
595.8962, 0.4604176
597.8247, 0.4617834
599.7532, 0.4639026
601.6816, 0.4653703
603.6101, 0.4666007
605.5386, 0.4683101
607.4670, 0.4727503
609.3955, 0.4741327
611.3240, 0.4721446
613.2524, 0.4710112
615.1809, 0.4722495
617.1094, 0.4739469
619.0378, 0.4734111
620.9663, 0.4740255
622.8948, 0.4757009
624.8232, 0.4765302
626.7517, 0.4786058
628.6802, 0.4791357
630.6086, 0.4797160
632.5371, 0.4813376
634.4656, 0.4810014
636.3940, 0.4803655
638.3225, 0.4812737
640.2510, 0.4829584
642.1794, 0.4831836
644.1079, 0.4823033
646.0364, 0.4819466
647.9648, 0.4831457
649.8933, 0.4835354
651.8218, 0.4835443
653.7502, 0.4838413
655.6787, 0.4843214
657.6072, 0.4852353
659.5356, 0.4862967
661.4641, 0.4868056
663.3926, 0.4871223
665.3210, 0.4887617
667.2495, 0.4878042
669.1780, 0.4870184
671.1064, 0.4883237
673.0349, 0.4902433
674.9634, 0.4916189
676.8918, 0.4913120
678.8203, 0.4912891
680.7488, 0.4922343
682.6772, 0.4922347
684.6057, 0.4917693
686.5342, 0.4915765
688.4626, 0.4923893
690.3911, 0.4936780
692.3196, 0.4940769
694.2480, 0.4943110
696.1765, 0.4961134
698.1050, 0.4967602
700.0334, 0.4957784
701.9619, 0.4960762
703.8904, 0.4977832
705.8188, 0.4984250
707.7473, 0.4981198
709.6758, 0.4992864
711.6042, 0.4991192
713.5327, 0.4985403
715.4612, 0.4993570
717.3896, 0.5004567
719.3181, 0.5008866
721.2466, 0.5003350
723.1750, 0.5006109
725.1035, 0.5013868
727.0320, 0.5012514
728.9604, 0.5018373
730.8889, 0.5025698
732.8174, 0.5039571
734.7458, 0.5046855
736.6743, 0.5036869
738.6028, 0.5038818
740.5313, 0.5047995
742.4597, 0.5052227
744.3882, 0.5051029
746.3167, 0.5053788
748.2451, 0.5070820
750.1736, 0.5078058
752.1021, 0.5082614
754.0305, 0.5100144
755.9590, 0.5106806
757.8875, 0.5108243
759.8159, 0.5116316
761.7444, 0.5124288
763.6729, 0.5126218
765.6013, 0.5129145
767.5298, 0.5137115
769.4583, 0.5151246
771.3867, 0.5167305
773.3152, 0.5171524
775.2437, 0.5167435
777.1721, 0.5173407
779.1006, 0.5190721
781.0291, 0.5203764
782.9575, 0.5210686
784.8860, 0.5219352
786.8145, 0.5231900
788.7429, 0.5243186
790.6714, 0.5251335
792.5999, 0.5274408
794.5283, 0.5289441
796.4568, 0.5288863
798.3853, 0.5300050
800.3137, 0.5308611
802.2422, 0.5317171
804.1707, 0.5322651
806.0991, 0.5330811
808.0276, 0.5336366
809.9561, 0.5341307
811.8845, 0.5364270
813.8130, 0.5378026
815.7415, 0.5380839
817.6699, 0.5397599
819.5984, 0.5408606
821.5269, 0.5413830
823.4553, 0.5425776
825.3838, 0.5438973
827.3123, 0.5445940
829.2407, 0.5457191
831.1692, 0.5474871
833.0977, 0.5482925
835.0261, 0.5491340
836.9546, 0.5493533
838.8831, 0.5497385
840.8115, 0.5504159
842.7400, 0.5518531
844.6685, 0.5524257
846.5969, 0.5526564
848.5254, 0.5531473
850.4539, 0.5540859
852.3823, 0.5553071
854.3108, 0.5569501
856.2393, 0.5581537
858.1677, 0.5593444
860.0962, 0.5599309
862.0247, 0.5611079
863.9531, 0.5620733
865.8816, 0.5617969
867.8101, 0.5617969
869.7385, 0.5634959
871.6670, 0.5654136
873.5955, 0.5671331
875.5239, 0.5676284
877.4524, 0.5683065
879.3809, 0.5691629
881.3093, 0.5699927
883.2378, 0.5707210
885.1663, 0.5721183
887.0947, 0.5740517
889.0232, 0.5740129
890.9517, 0.5733798
892.8801, 0.5755222
894.8085, 0.5771082
896.7370, 0.5771545
898.6655, 0.5770467
900.5939, 0.5782188
902.5224, 0.5794041
904.4509, 0.5801539
906.3793, 0.5817721
908.3078, 0.5834305
910.2363, 0.5837438
912.1647, 0.5839826
914.0932, 0.5846221
916.0217, 0.5846936
917.9501, 0.5856927
919.8786, 0.5878086
921.8071, 0.5890033
923.7355, 0.5893933
925.6640, 0.5896830
927.5925, 0.5908335
929.5209, 0.5921661
931.4494, 0.5920281
933.3779, 0.5917472
935.3063, 0.5929140
937.2348, 0.5946230
939.1633, 0.5959683
941.0917, 0.5963293
943.0202, 0.5966587
944.9487, 0.5976225
946.8771, 0.5978518
948.8056, 0.5980740
950.7341, 0.5991977
952.6625, 0.6002402
954.5910, 0.6008859
956.5195, 0.6013272
958.4479, 0.6025712
960.3764, 0.6040522
962.3049, 0.6052364
964.2333, 0.6061050
966.1618, 0.6069639
968.0903, 0.6074184
970.0187, 0.6079955
971.9472, 0.6087289
973.8757, 0.6094680
975.8041, 0.6103937
977.7326, 0.6108819
979.6611, 0.6116045
981.5895, 0.6115994
983.5180, 0.6120353
985.4465, 0.6135458
987.3749, 0.6148817
989.3034, 0.6157880
991.2319, 0.6166867
993.1603, 0.6175782
995.0888, 0.6182396
997.0173, 0.6187212
998.9457, 0.6191590
1000.874, 0.6205129
1002.803, 0.6222331
1004.731, 0.6237694
1006.660, 0.6247870
1008.588, 0.6257209
1010.517, 0.6266235
1012.445, 0.6272479
1014.373, 0.6286684
1016.302, 0.6302446
1018.230, 0.6312569
1020.159, 0.6317276
1022.087, 0.6316139
1024.016, 0.6320603
1025.944, 0.6327402
1027.873, 0.6337609
1029.801, 0.6350375
1031.730, 0.6360857
1033.658, 0.6370807
1035.587, 0.6379718
1037.515, 0.6388542
1039.444, 0.6392910
1041.372, 0.6400774
1043.301, 0.6417084
1045.229, 0.6420473
1047.157, 0.6418908
1049.086, 0.6429407
1051.014, 0.6440886
1052.943, 0.6438393
1054.871, 0.6441739
1056.800, 0.6452926
1058.728, 0.6458272
1060.657, 0.6461048
1062.585, 0.6463022
1064.514, 0.6469232
1066.442, 0.6479366
1068.371, 0.6485499
1070.299, 0.6492735
1072.228, 0.6498953
1074.156, 0.6505046
1076.084, 0.6509596
1078.013, 0.6514045
1079.941, 0.6518555
1081.870, 0.6520562
1083.798, 0.6526852
1085.727, 0.6534368
1087.655, 0.6539827
1089.584, 0.6546563
1091.512, 0.6556719
1093.441, 0.6569014
1095.369, 0.6570528
1097.298, 0.6568180
1099.226, 0.6577553
1101.155, 0.6588114
1103.083, 0.6592993
1105.011, 0.6602470
1106.940, 0.6607081
1108.868, 0.6610945
1110.797, 0.6608814
1112.725, 0.6616343
1114.654, 0.6634372
1116.582, 0.6646223
1118.511, 0.6655999
1120.439, 0.6664785
1122.368, 0.6668980
1124.296, 0.6673071
1126.225, 0.6681795
1128.153, 0.6691480
1130.082, 0.6699851
1132.010, 0.6714246
1133.938, 0.6732534
1135.867, 0.6751964
1137.795, 0.6770165
1139.724, 0.6778100
1141.652, 0.6788086
1143.581, 0.6797783
1145.509, 0.6812734
1147.438, 0.6823797
1149.366, 0.6821716
1151.295, 0.6823540
1153.223, 0.6827979
1155.152, 0.6827306
1157.080, 0.6819318
1159.009, 0.6818703
1160.937, 0.6827137
1162.865, 0.6831701
1164.794, 0.6827710
1166.722, 0.6831211
1168.651, 0.6837289
1170.579, 0.6839023
1172.508, 0.6838724
1174.436, 0.6844984
1176.365, 0.6854655
1178.293, 0.6862447
1180.222, 0.6869193
1182.150, 0.6875733
1184.079, 0.6885945
1186.007, 0.6893320
1187.936, 0.6903881
1189.864, 0.6913449
1191.792, 0.6920387
1193.721, 0.6929855
1195.649, 0.6943910
1197.578, 0.6953330
1199.506, 0.6955947
1201.435, 0.6958767
1203.363, 0.6961558
1205.292, 0.6965340
1207.220, 0.6970052
1209.149, 0.6976584
1211.077, 0.6982316
1213.006, 0.6983477
1214.934, 0.6986117
1216.863, 0.6994082
1218.791, 0.6998987
1220.719, 0.7004777
1222.648, 0.7012697
1224.576, 0.7019989
1226.505, 0.7027045
1228.433, 0.7028262
1230.362, 0.7034502
1232.290, 0.7042831
1234.219, 0.7048922
1236.147, 0.7054312
1238.076, 0.7054835
1240.004, 0.7058122
1241.933, 0.7063913
1243.861, 0.7073134
1245.790, 0.7082791
1247.718, 0.7088206
1249.646, 0.7092417
1251.575, 0.7095250
1253.503, 0.7097318
1255.432, 0.7106596
1257.360, 0.7105420
1259.289, 0.7100983
1261.217, 0.7104857
1263.146, 0.7107316
1265.074, 0.7114140
1267.003, 0.7125605
1268.931, 0.7137141
1270.860, 0.7145910
1272.788, 0.7154441
1274.717, 0.7163512
1276.645, 0.7164201
1278.573, 0.7173178
1280.502, 0.7182901
1282.430, 0.7181134
1284.359, 0.7183194
1286.287, 0.7192314
1288.216, 0.7196804
1290.144, 0.7201175
1292.073, 0.7205274
1294.001, 0.7213725
1295.930, 0.7222541
1297.858, 0.7230043
1299.787, 0.7231486
1301.715, 0.7234826
1303.644, 0.7236065
1305.572, 0.7236947
1307.500, 0.7248749
1309.429, 0.7259552
1311.357, 0.7258316
1313.286, 0.7259076
1315.214, 0.7267094
1317.143, 0.7278736
1319.071, 0.7283414
1321.000, 0.7284256
1322.928, 0.7289475
1324.857, 0.7295496
1326.785, 0.7301299
1328.714, 0.7310748
1330.642, 0.7326376
1332.571, 0.7334071
1334.499, 0.7332805
1336.427, 0.7335303
1338.356, 0.7338868
1340.284, 0.7348012
1342.213, 0.7359681
1344.141, 0.7371910
1346.070, 0.7382172
1347.998, 0.7385234
1349.927, 0.7390174
1351.855, 0.7396503
1353.784, 0.7406130
1355.712, 0.7416841
1357.641, 0.7420515
1359.569, 0.7426080
1361.498, 0.7437302
1363.426, 0.7444909
1365.354, 0.7456481
1367.283, 0.7468482
1369.211, 0.7478837
1371.140, 0.7485442
1373.068, 0.7497087
1374.997, 0.7511308
1376.925, 0.7515258
1378.854, 0.7512183
1380.782, 0.7514023
1382.711, 0.7513543
1384.639, 0.7513251
1386.568, 0.7520605
1388.496, 0.7527878
1390.424, 0.7527383
1392.353, 0.7531241
1394.281, 0.7544301
1396.210, 0.7547705
1398.138, 0.7551179
1400.067, 0.7561046
1401.995, 0.7560647
1403.924, 0.7560830
1405.852, 0.7567068
1407.781, 0.7574208
1409.709, 0.7580620
1411.638, 0.7582750
1413.566, 0.7590289
1415.495, 0.7600800
1417.423, 0.7605683
1419.351, 0.7609645
1421.280, 0.7619364
1423.208, 0.7623425
1425.137, 0.7623549
1427.065, 0.7633188
1428.994, 0.7646813
1430.922, 0.7656412
1432.851, 0.7663705
1434.779, 0.7669920
1436.708, 0.7675805
1438.636, 0.7687594
1440.565, 0.7703357
1442.493, 0.7708186
1444.422, 0.7712719
1446.350, 0.7720278
1448.278, 0.7730781
1450.207, 0.7744453
1452.135, 0.7756364
1454.064, 0.7763472
1455.992, 0.7767753
1457.921, 0.7769024
1459.849, 0.7776537
1461.778, 0.7787161
1463.706, 0.7795563
1465.635, 0.7798975
1467.563, 0.7795730
1469.492, 0.7785895
1471.420, 0.7784064
1473.349, 0.7783527
1475.277, 0.7778257
1477.205, 0.7779443
1479.134, 0.7782688
1481.062, 0.7785897
1482.991, 0.7795681
1484.919, 0.7807007
1486.848, 0.7821940
1488.776, 0.7829626
1490.705, 0.7831300
1492.633, 0.7832938
1494.562, 0.7839607
1496.490, 0.7848155
1498.419, 0.7854577
1500.347, 0.7864931
1502.276, 0.7876912
1504.204, 0.7886127
1506.132, 0.7897807
1508.061, 0.7903399
1509.989, 0.7902150
1511.918, 0.7900251
1513.846, 0.7907552
1515.775, 0.7919074
1517.703, 0.7923371
1519.632, 0.7924647
1521.560, 0.7933084
1523.489, 0.7951147
1525.417, 0.7959489
1527.346, 0.7964203
1529.274, 0.7968197
1531.203, 0.7971968
1533.131, 0.7980677
1535.059, 0.7984132
1536.988, 0.7992306
1538.916, 0.8001686
1540.845, 0.8013401
1542.773, 0.8024836
1544.702, 0.8032458
1546.630, 0.8034422
1548.559, 0.8037191
1550.487, 0.8043494
1552.416, 0.8049113
1554.344, 0.8057221
1556.273, 0.8067542
1558.201, 0.8081033
1560.130, 0.8082014
1562.058, 0.8080942
1563.986, 0.8088848
1565.915, 0.8087262
1567.843, 0.8085849
1569.772, 0.8091290
1571.700, 0.8094925
1573.629, 0.8102948
1575.557, 0.8114631
1577.486, 0.8124703
1579.414, 0.8130162
1581.343, 0.8133518
1583.271, 0.8144169
1585.200, 0.8149149
1587.128, 0.8154747
1589.057, 0.8163071
1590.985, 0.8166710
1592.913, 0.8166674
1594.842, 0.8166068
1596.770, 0.8176107
1598.699, 0.8193768
1600.627, 0.8197832
1602.556, 0.8205352
1604.484, 0.8209327
1606.413, 0.8213099
1608.341, 0.8222061
1610.270, 0.8232240
1612.198, 0.8235065
1614.127, 0.8235744
1616.055, 0.8244234
1617.984, 0.8254318
1619.912, 0.8258479
1621.840, 0.8257275
1623.769, 0.8265459
1625.697, 0.8278346
1627.626, 0.8280323
1629.554, 0.8280244
1631.483, 0.8291416
1633.411, 0.8304873
1635.340, 0.8315234
1637.268, 0.8314278
1639.197, 0.8311662
1641.125, 0.8311914
1643.054, 0.8320437
1644.982, 0.8328524
1646.911, 0.8334545
1648.839, 0.8341241
1650.767, 0.8345752
1652.696, 0.8351786
1654.624, 0.8358021
1656.553, 0.8359089
1658.481, 0.8355207
1660.410, 0.8359428
1662.338, 0.8359954
1664.267, 0.8362106
1666.195, 0.8370143
1668.124, 0.8373601
1670.052, 0.8370311
1671.981, 0.8375315
1673.909, 0.8392401
1675.838, 0.8396115
1677.766, 0.8400044
1679.694, 0.8409157
1681.623, 0.8405476
1683.551, 0.8404573
1685.480, 0.8414557
1687.408, 0.8424310
1689.337, 0.8421965
1691.265, 0.8429453
1693.194, 0.8446386
1695.122, 0.8452746
1697.051, 0.8451302
1698.979, 0.8456943
1700.908, 0.8464837
1702.836, 0.8471389
1704.765, 0.8473750
1706.693, 0.8474648
1708.621, 0.8479356
1710.550, 0.8480703
1712.478, 0.8484116
1714.407, 0.8487701
1716.335, 0.8495883
1718.264, 0.8504372
1720.192, 0.8509487
1722.121, 0.8515781
1724.049, 0.8516065
1725.978, 0.8520113
1727.906, 0.8526360
1729.835, 0.8535236
1731.763, 0.8543843
1733.692, 0.8545998
1735.620, 0.8546982
1737.548, 0.8552126
1739.477, 0.8554050
1741.405, 0.8547372
1743.334, 0.8544951
1745.262, 0.8550953
1747.191, 0.8558117
1749.119, 0.8559136
1751.048, 0.8558781
1752.976, 0.8566832
1754.905, 0.8565695
1756.833, 0.8564962
1758.762, 0.8568349
1760.690, 0.8576131
1762.619, 0.8583502
1764.547, 0.8581213
1766.475, 0.8587739
1768.404, 0.8602449
1770.332, 0.8609864
1772.261, 0.8599180
1774.189, 0.8602315
1776.118, 0.8619267
1778.046, 0.8628281
1779.975, 0.8627648
1781.903, 0.8633543
1783.832, 0.8635770
1785.760, 0.8636829
1787.689, 0.8631959
1789.617, 0.8624507
1791.546, 0.8635926
1793.474, 0.8643734
1795.402, 0.8640684
1797.331, 0.8641675
1799.259, 0.8653954
1801.188, 0.8659007
1803.116, 0.8657234
1805.045, 0.8661321
1806.973, 0.8662996
1808.902, 0.8669380
1810.830, 0.8678286
1812.759, 0.8676724
1814.687, 0.8675640
1816.616, 0.8676187
1818.544, 0.8676910
1820.473, 0.8667235
1822.401, 0.8666269
1824.329, 0.8678746
1826.258, 0.8685043
1828.186, 0.8678665
1830.115, 0.8689678
1832.043, 0.8708988
1833.972, 0.8718240
1835.900, 0.8709248
1837.829, 0.8699014
1839.757, 0.8693217
1841.686, 0.8700305
1843.614, 0.8716063
1845.543, 0.8728276
1847.471, 0.8728863
1849.400, 0.8731307
1851.328, 0.8727102
1853.256, 0.8715948
1855.185, 0.8713782
1857.113, 0.8721566
1859.042, 0.8738380
1860.970, 0.8750940
1862.899, 0.8759466
1864.827, 0.8766369
1866.756, 0.8764622
1868.684, 0.8766841
1870.613, 0.8780833
1872.541, 0.8790135
1874.470, 0.8780921
1876.398, 0.8779796
1878.327, 0.8777541
1880.255, 0.8775722
1882.183, 0.8768870
1884.112, 0.8784416
1886.040, 0.8794976
1887.969, 0.8808832
1889.897, 0.8806930
1891.826, 0.8794701
1893.754, 0.8795701
1895.683, 0.8804464
1897.611, 0.8811855
1899.540, 0.8807697
1901.468, 0.8800849
1903.397, 0.8789517
1905.325, 0.8795183
1907.254, 0.8801805
1909.182, 0.8811592
1911.110, 0.8817528
1913.039, 0.8817903
1914.967, 0.8790209
1916.896, 0.8764364
1918.824, 0.8754014
1920.753, 0.8778513
1922.681, 0.8800068
1924.610, 0.8803592
1926.538, 0.8792883
1928.467, 0.8791374
1930.395, 0.8783748
1932.324, 0.8777954
1934.252, 0.8771591
1936.181, 0.8764044
1938.109, 0.8759692
1940.037, 0.8751422
1941.966, 0.8739665
1943.894, 0.8718037
1945.823, 0.8701311
1947.751, 0.8708552
1949.680, 0.8719643
1951.608, 0.8707514
1953.537, 0.8684898
1955.465, 0.8667499
1957.394, 0.8635322
1959.322, 0.8624269
1961.251, 0.8590501
1963.179, 0.8602761
1965.108, 0.8588184
1967.036, 0.8544835
1968.964, 0.8552897
1970.893, 0.8586401
1972.821, 0.8564466
1974.750, 0.8556039
1976.678, 0.8572135
1978.607, 0.8537391
1980.535, 0.8603984
1982.464, 0.8661333
1984.392, 0.8663019
1986.321, 0.8659754
1988.249, 0.8649445
1990.178, 0.8681790
1992.106, 0.8692043
1994.035, 0.8714589
1995.963, 0.8755921
1997.891, 0.8741878
1999.820, 0.8726254
2001.748, 0.8726974
2003.677, 0.8669819
2005.605, 0.8654689
2007.534, 0.8657390
2009.462, 0.8621058
2011.391, 0.8641763
2013.319, 0.8669724
2015.248, 0.8671816
2017.176, 0.8692920
2019.105, 0.8740219
2021.033, 0.8729944
2022.962, 0.8674322
2024.890, 0.8630837
2026.818, 0.8656142
2028.747, 0.8657749
2030.675, 0.8669063
2032.604, 0.8711956
2034.532, 0.8713843
2036.461, 0.8741857
2038.389, 0.8765882
2040.318, 0.8765553
2042.246, 0.8811115
2044.175, 0.8864393
2046.103, 0.8916224
2048.032, 0.8903908
2049.960, 0.8940908
2051.889, 0.8999680
2053.817, 0.9016309
2055.746, 0.9004645
2057.674, 0.9010814
2059.603, 0.9060212
2061.531, 0.9083257
2063.459, 0.9080790
2065.388, 0.9070738
2067.316, 0.9098198
2069.245, 0.9096154
2071.173, 0.9105245
2073.102, 0.9151989
2075.030, 0.9167186
2076.959, 0.9161201
2078.887, 0.9144974
2080.816, 0.9176881
2082.744, 0.9186440
2084.673, 0.9217655
2086.601, 0.9251505
2088.530, 0.9244682
2090.458, 0.9218875
2092.386, 0.9225483
2094.315, 0.9244389
2096.243, 0.9280676
2098.172, 0.9285591
2100.100, 0.9254608
2102.029, 0.9239632
2103.957, 0.9277862
2105.886, 0.9269755
2107.814, 0.9271440
2109.743, 0.9285859
2111.671, 0.9290732
2113.600, 0.9254559
2115.528, 0.9248415
2117.457, 0.9307107
2119.385, 0.9320347
2121.313, 0.9319552
2123.242, 0.9313390
2125.170, 0.9298650
2127.099, 0.9288441
2129.027, 0.9298561
2130.956, 0.9285758
2132.884, 0.9249715
2134.813, 0.9210938
2136.741, 0.9188179
2138.670, 0.9188548
2140.598, 0.9182648
2142.527, 0.9144059
2144.455, 0.9134560
2146.384, 0.9095083
2148.312, 0.9045433
2150.240, 0.9030744
2152.169, 0.9022470
2154.097, 0.9007090
2156.026, 0.8993368
2157.954, 0.8947693
2159.883, 0.8934189
2161.811, 0.8957694
2163.740, 0.8972761
2165.668, 0.9024860
2167.597, 0.9082566
2169.525, 0.9110555
2171.454, 0.9171910
2173.382, 0.9206803
2175.311, 0.9201918
2177.239, 0.9167374
2179.167, 0.9162598
2181.096, 0.9172077
2183.024, 0.9150328
2184.953, 0.9219791
2186.881, 0.9245963
2188.810, 0.9234117
2190.738, 0.9225582
2192.667, 0.9241591
2194.595, 0.9282616
2196.524, 0.9320471
2198.452, 0.9324287
2200.381, 0.9324327
2202.309, 0.9356892
2204.238, 0.9368714
2206.166, 0.9376286
2208.094, 0.9381207
2210.023, 0.9371992
2211.951, 0.9383038
2213.880, 0.9408903
2215.808, 0.9419390
2217.737, 0.9415701
2219.665, 0.9457877
2221.594, 0.9482395
2223.522, 0.9470752
2225.451, 0.9506703
2227.379, 0.9508408
2229.308, 0.9497948
2231.236, 0.9523431
2233.165, 0.9572468
2235.093, 0.9564214
2237.021, 0.9535024
2238.950, 0.9548478
2240.878, 0.9579107
2242.807, 0.9595704
2244.735, 0.9600633
2246.664, 0.9607920
2248.592, 0.9635527
2250.521, 0.9631924
2252.449, 0.9642269
2254.378, 0.9662145
2256.306, 0.9663355
2258.235, 0.9676458
2260.163, 0.9681266
2262.092, 0.9674760
2264.020, 0.9683604
2265.948, 0.9704790
2267.877, 0.9748862
2269.805, 0.9751725
2271.734, 0.9750088
2273.662, 0.9780171
2275.591, 0.9793443
2277.519, 0.9823945
2279.448, 0.9863035
2281.376, 0.9869695
2283.305, 0.9877441
2285.233, 0.9885853
2287.162, 0.9908295
2289.090, 0.9924679
2291.019, 0.9940837
2292.947, 0.9937643
2294.875, 0.9934398
2296.804, 0.9954639
2298.732, 0.9974645
2300.661, 0.9993099
2302.589, 1.000906
2304.518, 1.001720
2306.446, 1.002360
2308.375, 1.001730
2310.303, 1.003184
2312.232, 1.005713
2314.160, 1.007163
2316.089, 1.008593
2318.017, 1.008419
2319.946, 1.008360
2321.874, 1.009743
2323.802, 1.012033
2325.731, 1.012507
2327.659, 1.011995
2329.588, 1.011313
2331.516, 1.012480
2333.445, 1.013983
2335.373, 1.014342
2337.302, 1.015690
2339.230, 1.015532
2341.159, 1.014993
2343.087, 1.015267
2345.016, 1.017249
2346.944, 1.017416
2348.873, 1.017674
2350.801, 1.019459
2352.729, 1.020008
2354.658, 1.020629
2356.586, 1.021722
2358.515, 1.021944
2360.443, 1.023606
2362.372, 1.025191
2364.300, 1.022466
2366.229, 1.020958
2368.157, 1.022314
2370.086, 1.023636
2372.014, 1.024486
2373.942, 1.023753
2375.871, 1.023542
2377.799, 1.024209
2379.728, 1.024387
2381.656, 1.024243
2383.585, 1.023574
2385.513, 1.023355
2387.442, 1.025060
2389.370, 1.026104
2391.299, 1.026957
2393.227, 1.028075
2395.156, 1.028278
2397.084, 1.028255
2399.012, 1.029424
2400.941, 1.028509
2402.869, 1.028268
2404.798, 1.030303
2406.726, 1.028252
2408.655, 1.026980
2410.583, 1.029241
2412.512, 1.029489
2414.440, 1.029218
2416.369, 1.030715
2418.297, 1.031921
2420.226, 1.033540
2422.154, 1.034443
2424.083, 1.032900
2426.011, 1.031688
2427.939, 1.031607
2429.868, 1.033990
2431.796, 1.034690
2433.725, 1.033760
2435.653, 1.034287
2437.582, 1.035339
2439.510, 1.036551
2441.439, 1.035579
2443.367, 1.036277
2445.296, 1.038801
2447.224, 1.041276
2449.153, 1.040794
2451.081, 1.039844
2453.010, 1.040317
2454.938, 1.040027
2456.866, 1.041195
2458.795, 1.046357
2460.723, 1.045905
2462.652, 1.042988
2464.580, 1.044701
2466.509, 1.044412
2468.437, 1.043579
2470.366, 1.043247
2472.294, 1.043679
2474.223, 1.045005
2476.151, 1.044370
2478.080, 1.046319
2480.008, 1.048900
2481.937, 1.048494
2483.865, 1.050590
2485.793, 1.050723
2487.722, 1.048600
2489.650, 1.045130
2491.579, 1.045815
2493.507, 1.048175
2495.436, 1.049176
2497.364, 1.051021
2499.293, 1.053377
2501.221, 1.054848
2503.150, 1.053631
2505.078, 1.051079
2507.007, 1.053040
2508.935, 1.055261
2510.864, 1.056975
2512.792, 1.058035
2514.720, 1.056476
2516.649, 1.055167
2518.577, 1.055436
2520.506, 1.057372
2522.434, 1.060328
2524.363, 1.060373
2526.291, 1.060006
2528.220, 1.061593
2530.148, 1.061148
2532.077, 1.060604
2534.005, 1.062865
2535.934, 1.064100
2537.862, 1.062358
2539.791, 1.061895
2541.719, 1.062425
2543.647, 1.061560
2545.576, 1.062658
2547.504, 1.064903
2549.433, 1.066514
2551.361, 1.067491
2553.290, 1.067673
2555.218, 1.069637
2557.147, 1.070494
2559.075, 1.067814
2561.004, 1.067513
2562.932, 1.071650
2564.861, 1.073661
2566.789, 1.071134
2568.718, 1.070561
2570.646, 1.073538
2572.574, 1.073626
2574.503, 1.073534
2576.431, 1.073799
2578.360, 1.074971
2580.288, 1.077791
2582.217, 1.078882
2584.145, 1.078534
2586.074, 1.078257
2588.002, 1.078222
2589.931, 1.077210
2591.859, 1.077678
2593.788, 1.082048
2595.716, 1.084017
2597.645, 1.082072
2599.573, 1.081573
2601.501, 1.082191
2603.430, 1.083359
2605.358, 1.085444
2607.287, 1.085902
2609.215, 1.086761
2611.144, 1.087305
2613.072, 1.086981
2615.001, 1.087652
2616.929, 1.088808
2618.858, 1.094224
2620.786, 1.096398
2622.715, 1.094367
2624.643, 1.094725
2626.572, 1.095707
2628.500, 1.097080
2630.428, 1.096603
2632.357, 1.095556
2634.285, 1.096496
2636.214, 1.099503
2638.142, 1.102160
2640.071, 1.102489
2641.999, 1.102272
2643.928, 1.103830
2645.856, 1.103816
2647.785, 1.103327
2649.713, 1.103761
2651.642, 1.105674
2653.570, 1.107238
2655.499, 1.109090
2657.427, 1.109584
2659.355, 1.110726
2661.284, 1.111318
2663.212, 1.109876
2665.141, 1.110588
2667.069, 1.112501
2668.998, 1.112344
2670.926, 1.110129
2672.855, 1.111063
2674.783, 1.114470
2676.712, 1.115731
2678.640, 1.115525
2680.569, 1.114711
2682.497, 1.113878
2684.426, 1.115822
2686.354, 1.117310
2688.282, 1.118683
2690.211, 1.119553
2692.139, 1.118579
2694.068, 1.120616
2695.996, 1.120870
2697.925, 1.120239
2699.853, 1.121181
2701.782, 1.120989
2703.710, 1.122643
2705.639, 1.124278
2707.567, 1.124951
2709.496, 1.124251
2711.424, 1.123688
2713.353, 1.124950
2715.281, 1.125816
2717.209, 1.126869
2719.138, 1.126077
2721.066, 1.125192
2722.995, 1.126973
2724.923, 1.129057
2726.852, 1.128741
2728.780, 1.129843
2730.709, 1.130206
2732.637, 1.129948
2734.566, 1.130785
2736.494, 1.132728
2738.423, 1.132326
2740.351, 1.132352
2742.280, 1.132634
2744.208, 1.133764
2746.136, 1.135612
2748.065, 1.135895
2749.993, 1.135028
2751.922, 1.135139
2753.850, 1.135475
2755.779, 1.133969
2757.707, 1.135393
2759.636, 1.138310
2761.564, 1.138622
2763.493, 1.137715
2765.421, 1.137937
2767.350, 1.139564
2769.278, 1.140754
2771.207, 1.141824
2773.135, 1.141197
2775.063, 1.141598
2776.992, 1.142369
2778.920, 1.141981
2780.849, 1.141185
2782.777, 1.141609
2784.706, 1.143578
2786.634, 1.145335
2788.563, 1.146056
2790.491, 1.145905
2792.420, 1.147037
2794.348, 1.150233
2796.277, 1.151665
2798.205, 1.151793
2800.134, 1.150503
2802.062, 1.148520
2803.990, 1.148127
2805.919, 1.149998
2807.847, 1.151482
2809.776, 1.151524
2811.704, 1.153272
2813.633, 1.155810
2815.561, 1.157894
2817.490, 1.159083
2819.418, 1.156264
2821.347, 1.155275
2823.275, 1.157261
2825.204, 1.158561
2827.132, 1.159482
2829.061, 1.161159
2830.989, 1.161215
2832.917, 1.161310
2834.846, 1.162083
2836.774, 1.163029
2838.703, 1.165463
2840.631, 1.167822
2842.560, 1.168691
2844.488, 1.170831
2846.417, 1.173200
2848.345, 1.174071
2850.274, 1.171926
2852.202, 1.169147
2854.131, 1.169696
2856.059, 1.171427
2857.988, 1.170953
2859.916, 1.172127
2861.844, 1.174084
2863.773, 1.175252
2865.701, 1.174766
2867.630, 1.174279
2869.558, 1.176760
2871.487, 1.178222
2873.415, 1.176805
2875.344, 1.176933
2877.272, 1.176703
2879.201, 1.176650
2881.129, 1.176731
2883.058, 1.179219
2884.986, 1.181843
2886.915, 1.182202
2888.843, 1.183130
2890.771, 1.183329
2892.700, 1.184258
2894.628, 1.186268
2896.557, 1.186927
2898.485, 1.188078
2900.414, 1.190171
2902.342, 1.189488
2904.271, 1.188648
2906.199, 1.190234
2908.128, 1.191510
2910.056, 1.192839
2911.985, 1.191577
2913.913, 1.191608
2915.842, 1.192548
2917.770, 1.193937
2919.698, 1.193046
2921.627, 1.192626
2923.555, 1.193429
2925.484, 1.193335
2927.412, 1.194911
2929.341, 1.193554
2931.269, 1.193292
2933.198, 1.194826
2935.126, 1.194512
2937.055, 1.193672
2938.983, 1.192910
2940.912, 1.194025
2942.840, 1.194424
2944.769, 1.195746
2946.697, 1.196671
2948.625, 1.195335
2950.554, 1.197035
2952.482, 1.200171
2954.411, 1.201402
2956.339, 1.201319
2958.268, 1.200390
2960.196, 1.199157
2962.125, 1.199348
2964.053, 1.200070
2965.982, 1.198606
2967.910, 1.197499
2969.839, 1.199648
2971.767, 1.199288
2973.696, 1.197059
2975.624, 1.197310
2977.552, 1.198773
2979.481, 1.197905
2981.409, 1.195780
2983.338, 1.196747
2985.266, 1.196933
2987.195, 1.196415
2989.123, 1.200160
2991.052, 1.202123
2992.980, 1.203995
2994.909, 1.202836
2996.837, 1.200915
2998.766, 1.200777
3000.694, 1.200466
3002.623, 1.201128
3004.551, 1.202001
3006.479, 1.204188
3008.408, 1.205195
3010.336, 1.203569
3012.265, 1.205610
3014.193, 1.206344
3016.122, 1.203698
3018.050, 1.203727
3019.979, 1.204634
3021.907, 1.206930
3023.836, 1.209207
3025.764, 1.210348
3027.693, 1.210360
3029.621, 1.210073
3031.550, 1.209401
3033.478, 1.210725
3035.406, 1.212796
3037.335, 1.214478
3039.263, 1.213505
3041.192, 1.213052
3043.120, 1.214536
3045.049, 1.215822
3046.977, 1.215110
3048.906, 1.216071
3050.834, 1.217127
3052.763, 1.217105
3054.691, 1.218372
3056.620, 1.219295
3058.548, 1.219620
3060.477, 1.219462
3062.405, 1.221482
3064.333, 1.222599
3066.262, 1.220197
3068.190, 1.220570
3070.119, 1.220153
3072.047, 1.220613
3073.976, 1.222981
3075.904, 1.221331
3077.833, 1.221153
3079.761, 1.224105
3081.690, 1.223000
3083.618, 1.222933
3085.547, 1.225247
3087.475, 1.228253
3089.404, 1.229140
3091.332, 1.227838
3093.260, 1.228725
3095.189, 1.230258
3097.117, 1.229152
3099.046, 1.230286
3100.974, 1.231277
3102.903, 1.230892
3104.831, 1.231030
3106.760, 1.231399
3108.688, 1.232503
3110.617, 1.234901
3112.545, 1.237422
3114.474, 1.238788
3116.402, 1.237678
3118.331, 1.234810
3120.259, 1.234290
3122.188, 1.234832
3124.116, 1.236785
3126.044, 1.237960
3127.973, 1.239859
3129.901, 1.243024
3131.830, 1.242195
3133.758, 1.238188
3135.687, 1.240615
3137.615, 1.242718
3139.544, 1.242367
3141.472, 1.241650
3143.401, 1.242951
3145.329, 1.247061
3147.258, 1.247918
3149.186, 1.244443
3151.115, 1.243280
3153.043, 1.246333
3154.971, 1.245324
3156.900, 1.244167
3158.828, 1.245102
3160.757, 1.246524
3162.685, 1.247711
3164.614, 1.249046
3166.542, 1.251930
3168.471, 1.252972
3170.399, 1.250133
3172.328, 1.250495
3174.256, 1.254619
3176.185, 1.254924
3178.113, 1.254910
3180.042, 1.253855
3181.970, 1.252860
3183.898, 1.254899
3185.827, 1.260042
3187.755, 1.260725
3189.684, 1.257475
3191.612, 1.256128
3193.541, 1.257431
3195.469, 1.256644
3197.398, 1.259759
3199.326, 1.261521
3201.255, 1.260471
3203.183, 1.261496
3205.112, 1.262850
3207.040, 1.264126
3208.969, 1.263837
3210.897, 1.263432
3212.825, 1.263785
3214.754, 1.268186
3216.682, 1.271155
3218.611, 1.270127
3220.539, 1.270231
3222.468, 1.268483
3224.396, 1.263696
3226.325, 1.265300
3228.253, 1.272497
3230.182, 1.273894
3232.110, 1.270278
3234.039, 1.269729
3235.967, 1.269742
3237.896, 1.271459
3239.824, 1.273633
3241.752, 1.275484
3243.681, 1.275160
3245.609, 1.276587
3247.538, 1.279143
3249.466, 1.278793
3251.395, 1.278730
3253.323, 1.277824
3255.252, 1.276442
3257.180, 1.275079
3259.109, 1.277515
3261.037, 1.278507
3262.966, 1.279229
3264.894, 1.282175
3266.823, 1.282051
3268.751, 1.280935
3270.679, 1.281712
3272.608, 1.281393
3274.536, 1.286127
3276.465, 1.288131
3278.393, 1.287738
3280.322, 1.287759
3282.250, 1.286512
3284.179, 1.285508
3286.107, 1.289288
3288.036, 1.291264
3289.964, 1.290800
3291.893, 1.291229
3293.821, 1.288467
3295.750, 1.290852
3297.678, 1.295537
3299.606, 1.298903
3301.535, 1.301378
3303.463, 1.298129
3305.392, 1.295278
3307.320, 1.295518
3309.249, 1.297842
3311.177, 1.299587
3313.106, 1.299884
3315.034, 1.298886
3316.963, 1.299774
3318.891, 1.298370
3320.820, 1.297407
3322.748, 1.299277
3324.677, 1.302688
3326.605, 1.303592
3328.533, 1.304488
3330.462, 1.305507
3332.390, 1.306477
3334.319, 1.308433
3336.247, 1.309151
3338.176, 1.309198
3340.104, 1.308162
3342.033, 1.305634
3343.961, 1.303879
3345.890, 1.304122
3347.818, 1.305755
3349.747, 1.303185
3351.675, 1.300318
3353.604, 1.299636
3355.532, 1.304878
3357.460, 1.308606
3359.389, 1.307088
3361.317, 1.306186
3363.246, 1.311059
3365.174, 1.312881
3367.103, 1.311906
3369.031, 1.313543
3370.960, 1.316044
3372.888, 1.314819
3374.817, 1.313403
3376.745, 1.316923
3378.674, 1.317534
3380.602, 1.315908
3382.531, 1.318399
3384.459, 1.315971
3386.387, 1.313187
3388.316, 1.319046
3390.244, 1.324902
3392.173, 1.324725
3394.101, 1.321193
3396.030, 1.316294
3397.958, 1.319236
3399.887, 1.322895
3401.815, 1.322108
3403.744, 1.322531
3405.672, 1.320013
3407.601, 1.318170
3409.529, 1.320674
3411.458, 1.323799
3413.386, 1.326430
3415.314, 1.324326
3417.243, 1.325399
3419.171, 1.328828
3421.100, 1.328410
3423.028, 1.330397
3424.957, 1.333033
3426.885, 1.332367
3428.814, 1.333734
3430.742, 1.333614
3432.671, 1.332559
3434.599, 1.332607
3436.528, 1.334410
3438.456, 1.333824
3440.385, 1.333504
3442.313, 1.336705
3444.241, 1.338637
3446.170, 1.338178
3448.098, 1.338377
3450.027, 1.338032
3451.955, 1.335368
3453.884, 1.333402
3455.812, 1.338045
3457.741, 1.341415
3459.669, 1.339859
3461.598, 1.338975
3463.526, 1.340073
3465.455, 1.339653
3467.383, 1.336026
3469.312, 1.336048
3471.240, 1.342508
3473.168, 1.344593
3475.097, 1.344149
3477.025, 1.344103
3478.954, 1.345615
3480.882, 1.346194
3482.811, 1.344226
3484.739, 1.346734
3486.668, 1.348864
3488.596, 1.347346
3490.525, 1.344021
3492.453, 1.344370
3494.382, 1.344418
3496.310, 1.346517
3498.239, 1.352512
3500.167, 1.354423
3502.095, 1.351853
3504.024, 1.347908
3505.952, 1.345841
3507.881, 1.347443
3509.809, 1.349567
3511.738, 1.350267
3513.666, 1.350164
3515.595, 1.349113
3517.523, 1.348567
3519.452, 1.351409
3521.380, 1.353346
3523.309, 1.351702
3525.237, 1.351888
3527.166, 1.352414
3529.094, 1.356932
3531.022, 1.360282
3532.951, 1.359541
3534.879, 1.361548
3536.808, 1.359951
3538.736, 1.357320
3540.665, 1.355608
3542.593, 1.357590
3544.522, 1.358371
3546.450, 1.358883
3548.379, 1.358766
3550.307, 1.358574
3552.236, 1.360134
3554.164, 1.358937
3556.093, 1.362308
3558.021, 1.365532
3559.949, 1.366765
3561.878, 1.369827
3563.806, 1.372789
3565.735, 1.371658
3567.663, 1.368801
3569.592, 1.369609
3571.520, 1.368672
3573.449, 1.368056
3575.377, 1.371237
3577.306, 1.369042
3579.234, 1.369215
3581.163, 1.369964
3583.091, 1.367996
3585.020, 1.365023
3586.948, 1.365578
3588.876, 1.370332
3590.805, 1.372223
3592.733, 1.374500
3594.662, 1.375749
3596.590, 1.373409
3598.519, 1.369956
3600.447, 1.367703
3602.376, 1.372066
3604.304, 1.372563
3606.233, 1.373511
3608.161, 1.376753
3610.090, 1.376678
3612.018, 1.373616
3613.947, 1.373399
3615.875, 1.374528
3617.803, 1.372571
3619.732, 1.372900
3621.660, 1.374633
3623.589, 1.375128
3625.517, 1.377299
3627.446, 1.382605
3629.374, 1.384650
3631.303, 1.384021
3633.231, 1.386017
3635.160, 1.391028
3637.088, 1.390829
3639.017, 1.389780
3640.945, 1.393003
3642.874, 1.394624
3644.802, 1.390489
3646.730, 1.388379
3648.659, 1.388382
3650.587, 1.387490
3652.516, 1.386973
3654.444, 1.392943
3656.373, 1.391463
3658.301, 1.388057
3660.230, 1.388819
3662.158, 1.389346
3664.087, 1.392058
3666.015, 1.391412
3667.944, 1.389420
3669.872, 1.392829
3671.801, 1.393733
3673.729, 1.396275
3675.657, 1.396131
3677.586, 1.396914
3679.514, 1.401269
3681.443, 1.400969
3683.371, 1.399817
3685.300, 1.402125
3687.228, 1.397343
3689.157, 1.393510
3691.085, 1.396996
3693.014, 1.403741
3694.942, 1.403853
3696.871, 1.400689
3698.799, 1.407119
3700.728, 1.411142
3702.656, 1.409320
3704.584, 1.407994
3706.513, 1.408046
3708.441, 1.409687
3710.370, 1.413554
3712.298, 1.411968
3714.227, 1.413154
3716.155, 1.414128
3718.084, 1.416635
3720.012, 1.418976
3721.941, 1.420330
3723.869, 1.421978
3725.798, 1.417329
3727.726, 1.418342
3729.655, 1.416092
3731.583, 1.418592
3733.511, 1.422257
3735.440, 1.414274
3737.368, 1.409697
3739.297, 1.410320
3741.225, 1.414981
3743.154, 1.421712
3745.082, 1.420746
3747.011, 1.421925
3748.939, 1.427705
3750.868, 1.427385
3752.796, 1.423501
3754.725, 1.420631
3756.653, 1.419621
3758.582, 1.421075
3760.510, 1.426720
3762.438, 1.429030
3764.367, 1.430284
3766.295, 1.426094
3768.224, 1.425255
3770.152, 1.426449
3772.081, 1.429434
3774.009, 1.434061
3775.938, 1.435928
3777.866, 1.436595
3779.795, 1.437752
3781.723, 1.435701
3783.652, 1.436039
3785.580, 1.433421
3787.509, 1.430582
3789.437, 1.431551
3791.365, 1.440199
3793.294, 1.441219
3795.222, 1.439097
3797.151, 1.442691
3799.079, 1.448514
3801.008, 1.448499
3802.936, 1.442844
3804.865, 1.445636
3806.793, 1.448310
3808.722, 1.445482
3810.650, 1.441777
3812.579, 1.441792
3814.507, 1.445506
3816.436, 1.448662
3818.364, 1.449069
3820.292, 1.454038
3822.221, 1.454836
3824.149, 1.454024
3826.078, 1.455330
3828.006, 1.457777
3829.935, 1.456957
3831.863, 1.450632
3833.792, 1.448292
3835.720, 1.453288
3837.649, 1.452927
3839.577, 1.451029
3841.506, 1.450355
3843.434, 1.448912
3845.363, 1.451547
3847.291, 1.453827
3849.219, 1.455792
3851.148, 1.455811
3853.076, 1.457578
3855.005, 1.465455
3856.933, 1.467972
3858.862, 1.463873
3860.790, 1.466779
3862.719, 1.471604
3864.647, 1.466349
3866.576, 1.464303
3868.504, 1.466084
3870.433, 1.468397
3872.361, 1.467971
3874.290, 1.467029
3876.218, 1.471107
3878.146, 1.474729
3880.075, 1.478496
3882.003, 1.477912
3883.932, 1.475232
3885.860, 1.473796
3887.789, 1.474930
3889.717, 1.473629
3891.646, 1.476530
3893.574, 1.481889
3895.503, 1.485579
3897.431, 1.484943
3899.360, 1.482998
3901.288, 1.479033
3903.217, 1.473583
3905.145, 1.473056
3907.073, 1.475412
3909.002, 1.474738
3910.930, 1.470763
3912.859, 1.476534
3914.787, 1.487278
3916.716, 1.485576
3918.644, 1.485936
3920.573, 1.488321
3922.501, 1.485993
3924.430, 1.483425
3926.358, 1.484229
3928.287, 1.484839
3930.215, 1.487176
3932.144, 1.494482
3934.072, 1.487521
3936.000, 1.483099
3937.929, 1.491104
3939.857, 1.496406
3941.786, 1.499188
3943.714, 1.495253
3945.643, 1.489332
3947.571, 1.491514
3949.500, 1.491903
3951.428, 1.485678
3953.357, 1.488627
3955.285, 1.493684
3957.214, 1.497757
3959.142, 1.501117
3961.071, 1.497530
3962.999, 1.492470
3964.927, 1.493191
3966.856, 1.499395
3968.784, 1.505374
3970.713, 1.507151
3972.641, 1.505668
3974.570, 1.504714
3976.498, 1.505559
3978.427, 1.503731
3980.355, 1.503457
3982.284, 1.506625
3984.212, 1.506007
3986.141, 1.504626
3988.069, 1.503349
3989.998, 1.501807
3991.926, 1.505571
3993.854, 1.510737
3995.783, 1.511693
3997.711, 1.507659
3999.640, 1.508386
##END=



