##NAMES=Tremolite
##RRUFFID=R050498
##IDEAL CHEMISTRY=[box]Ca_2_Mg_5_Si_8_O_22_(OH)_2_
##LOCALITY=Inyo County, California, USA
##OWNER=RRUFF
##SOURCE=California Institute of Technology
##DESCRIPTION=Group of pale blue parallel acicular crystals
##STATUS=The identification of this mineral has been confirmed by X-ray diffraction and chemical analysis
##URL=rruff.info/R050498
##MEASURED CHEMISTRY=(Ca_1.95_Na_0.05_)_Σ=2_(Mg_4.75_Fe^3+^_0.13_Fe^2+^_0.07_Mn_0.05_)_Σ=5_(Si_7.92_Al_0.08_)_Σ=8_O_22_(OH)_2_; OH estimated by charge balance
3.953357e+002, 1.361150e-001
3.972641e+002, 1.412096e-001
3.991926e+002, 1.430603e-001
4.011211e+002, 1.364854e-001
4.030495e+002, 1.343079e-001
4.049780e+002, 1.341158e-001
4.069065e+002, 1.334699e-001
4.088349e+002, 1.381935e-001
4.107634e+002, 1.454107e-001
4.126919e+002, 1.509557e-001
4.146203e+002, 1.499289e-001
4.165488e+002, 1.498978e-001
4.184773e+002, 1.497799e-001
4.204057e+002, 1.448012e-001
4.223342e+002, 1.361820e-001
4.242627e+002, 1.273561e-001
4.261911e+002, 1.255499e-001
4.281196e+002, 1.309729e-001
4.300481e+002, 1.405544e-001
4.319765e+002, 1.554609e-001
4.339050e+002, 1.711537e-001
4.358335e+002, 1.832912e-001
4.377619e+002, 1.923587e-001
4.396904e+002, 1.987260e-001
4.416189e+002, 2.005387e-001
4.435473e+002, 2.004659e-001
4.454758e+002, 1.984236e-001
4.474043e+002, 1.951680e-001
4.493327e+002, 1.909546e-001
4.512612e+002, 1.841560e-001
4.531897e+002, 1.798140e-001
4.551181e+002, 1.780801e-001
4.570466e+002, 1.765320e-001
4.589751e+002, 1.750781e-001
4.609035e+002, 1.735383e-001
4.628320e+002, 1.717364e-001
4.647605e+002, 1.685136e-001
4.666889e+002, 1.660615e-001
4.686174e+002, 1.640488e-001
4.705459e+002, 1.598796e-001
4.724743e+002, 1.540580e-001
4.744028e+002, 1.482830e-001
4.763313e+002, 1.431039e-001
4.782597e+002, 1.372073e-001
4.801882e+002, 1.307017e-001
4.821167e+002, 1.242630e-001
4.840451e+002, 1.184843e-001
4.859736e+002, 1.130418e-001
4.879021e+002, 1.093021e-001
4.898305e+002, 1.083757e-001
4.917590e+002, 1.084000e-001
4.936875e+002, 1.101827e-001
4.956159e+002, 1.135126e-001
4.975444e+002, 1.169255e-001
4.994729e+002, 1.196095e-001
5.014013e+002, 1.230070e-001
5.033298e+002, 1.273814e-001
5.052583e+002, 1.322902e-001
5.071867e+002, 1.348908e-001
5.091152e+002, 1.330336e-001
5.110437e+002, 1.281141e-001
5.129721e+002, 1.215556e-001
5.149006e+002, 1.147436e-001
5.168290e+002, 1.091159e-001
5.187575e+002, 1.042344e-001
5.206860e+002, 1.002276e-001
5.226144e+002, 9.795618e-002
5.245429e+002, 9.780618e-002
5.264714e+002, 9.848005e-002
5.283998e+002, 9.864359e-002
5.303283e+002, 9.821270e-002
5.322568e+002, 9.694648e-002
5.341852e+002, 9.538259e-002
5.361137e+002, 9.359355e-002
5.380422e+002, 9.077954e-002
5.399706e+002, 8.666894e-002
5.418991e+002, 8.150371e-002
5.438276e+002, 7.553370e-002
5.457560e+002, 6.883730e-002
5.476845e+002, 6.265246e-002
5.496130e+002, 5.699740e-002
5.515414e+002, 5.185534e-002
5.534699e+002, 4.716916e-002
5.553984e+002, 4.273032e-002
5.573268e+002, 3.910135e-002
5.592553e+002, 3.586594e-002
5.611838e+002, 3.269549e-002
5.631122e+002, 2.988672e-002
5.650407e+002, 2.731387e-002
5.669692e+002, 2.462726e-002
5.688976e+002, 2.213955e-002
5.708261e+002, 2.002834e-002
5.727546e+002, 1.802550e-002
5.746830e+002, 1.665891e-002
5.766115e+002, 1.523285e-002
5.785400e+002, 1.403687e-002
5.804684e+002, 1.311649e-002
5.823969e+002, 1.212630e-002
5.843254e+002, 1.126106e-002
5.862538e+002, 1.085797e-002
5.881823e+002, 1.052116e-002
5.901108e+002, 1.003813e-002
5.920392e+002, 1.000208e-002
5.939677e+002, 9.952976e-003
5.958962e+002, 9.654189e-003
5.978246e+002, 9.545282e-003
5.997531e+002, 9.478472e-003
6.016816e+002, 9.472675e-003
6.036100e+002, 9.393728e-003
6.055385e+002, 9.353358e-003
6.074670e+002, 9.697960e-003
6.093954e+002, 9.672629e-003
6.113239e+002, 9.625735e-003
6.132524e+002, 9.602266e-003
6.151808e+002, 9.816932e-003
6.171093e+002, 1.010865e-002
6.190378e+002, 1.024282e-002
6.209662e+002, 1.027536e-002
6.228947e+002, 1.057096e-002
6.248232e+002, 1.114092e-002
6.267516e+002, 1.158991e-002
6.286801e+002, 1.210335e-002
6.306086e+002, 1.298578e-002
6.325370e+002, 1.418630e-002
6.344655e+002, 1.561563e-002
6.363940e+002, 1.756059e-002
6.383224e+002, 2.002697e-002
6.402509e+002, 2.254271e-002
6.421794e+002, 2.481363e-002
6.441078e+002, 2.632731e-002
6.460363e+002, 2.650273e-002
6.479648e+002, 2.585729e-002
6.498932e+002, 2.552135e-002
6.518217e+002, 2.606186e-002
6.537502e+002, 2.727855e-002
6.556786e+002, 2.910808e-002
6.576071e+002, 3.119251e-002
6.595356e+002, 3.296947e-002
6.614641e+002, 3.392832e-002
6.633925e+002, 3.367706e-002
6.653210e+002, 3.238840e-002
6.672495e+002, 3.070324e-002
6.691779e+002, 2.879713e-002
6.711064e+002, 2.745540e-002
6.730349e+002, 2.783373e-002
6.749633e+002, 2.971634e-002
6.768918e+002, 3.274208e-002
6.788203e+002, 3.682789e-002
6.807487e+002, 4.114465e-002
6.826772e+002, 4.487240e-002
6.846057e+002, 4.703800e-002
6.865341e+002, 4.668193e-002
6.884626e+002, 4.357969e-002
6.903911e+002, 3.865726e-002
6.923195e+002, 3.339174e-002
6.942480e+002, 2.848063e-002
6.961765e+002, 2.482822e-002
6.981049e+002, 2.233496e-002
7.000334e+002, 2.069401e-002
7.019619e+002, 1.955078e-002
7.038903e+002, 1.891589e-002
7.058188e+002, 1.845266e-002
7.077473e+002, 1.786068e-002
7.096757e+002, 1.736694e-002
7.116042e+002, 1.726943e-002
7.135327e+002, 1.717763e-002
7.154611e+002, 1.737512e-002
7.173896e+002, 1.794112e-002
7.193181e+002, 1.885213e-002
7.212465e+002, 2.029363e-002
7.231750e+002, 2.203168e-002
7.251035e+002, 2.313526e-002
7.270319e+002, 2.287017e-002
7.289604e+002, 2.215536e-002
7.308889e+002, 2.167930e-002
7.328173e+002, 2.208962e-002
7.347458e+002, 2.349523e-002
7.366743e+002, 2.555187e-002
7.386027e+002, 2.797826e-002
7.405312e+002, 3.012593e-002
7.424597e+002, 3.195343e-002
7.443881e+002, 3.437274e-002
7.463166e+002, 3.832334e-002
7.482451e+002, 4.384804e-002
7.501735e+002, 5.096738e-002
7.521020e+002, 5.901028e-002
7.540305e+002, 6.648295e-002
7.559589e+002, 7.079694e-002
7.578874e+002, 6.920209e-002
7.598159e+002, 6.217736e-002
7.617443e+002, 5.213166e-002
7.636728e+002, 4.168060e-002
7.656013e+002, 3.279835e-002
7.675297e+002, 2.638519e-002
7.694582e+002, 2.196786e-002
7.713867e+002, 1.904236e-002
7.733151e+002, 1.714075e-002
7.752436e+002, 1.605720e-002
7.771721e+002, 1.547723e-002
7.791005e+002, 1.509228e-002
7.810290e+002, 1.481412e-002
7.829575e+002, 1.473960e-002
7.848859e+002, 1.477619e-002
7.868144e+002, 1.474326e-002
7.887429e+002, 1.470491e-002
7.906713e+002, 1.498185e-002
7.925998e+002, 1.521413e-002
7.945283e+002, 1.530386e-002
7.964567e+002, 1.560309e-002
7.983852e+002, 1.584206e-002
8.003137e+002, 1.596169e-002
8.022421e+002, 1.602842e-002
8.041706e+002, 1.622828e-002
8.060991e+002, 1.658071e-002
8.080275e+002, 1.692323e-002
8.099560e+002, 1.737249e-002
8.118845e+002, 1.783583e-002
8.138129e+002, 1.817890e-002
8.157414e+002, 1.873141e-002
8.176699e+002, 1.934672e-002
8.195983e+002, 1.988968e-002
8.215268e+002, 2.038605e-002
8.234553e+002, 2.103796e-002
8.253837e+002, 2.175238e-002
8.273122e+002, 2.253956e-002
8.292407e+002, 2.339028e-002
8.311691e+002, 2.427191e-002
8.330976e+002, 2.515081e-002
8.350261e+002, 2.627943e-002
8.369545e+002, 2.740037e-002
8.388830e+002, 2.856584e-002
8.408115e+002, 2.984807e-002
8.427399e+002, 3.127538e-002
8.446684e+002, 3.293955e-002
8.465969e+002, 3.500367e-002
8.485253e+002, 3.704597e-002
8.504538e+002, 3.849640e-002
8.523823e+002, 3.936050e-002
8.543107e+002, 3.994702e-002
8.562392e+002, 4.086160e-002
8.581677e+002, 4.257236e-002
8.600961e+002, 4.427719e-002
8.620246e+002, 4.611169e-002
8.639531e+002, 4.824686e-002
8.658815e+002, 5.062890e-002
8.678100e+002, 5.326973e-002
8.697385e+002, 5.610419e-002
8.716669e+002, 5.916783e-002
8.735954e+002, 6.251062e-002
8.755239e+002, 6.588760e-002
8.774523e+002, 6.907584e-002
8.793808e+002, 7.213061e-002
8.813093e+002, 7.540914e-002
8.832377e+002, 7.918451e-002
8.851662e+002, 8.315517e-002
8.870947e+002, 8.724877e-002
8.890231e+002, 9.161571e-002
8.909516e+002, 9.611564e-002
8.928801e+002, 1.006789e-001
8.948085e+002, 1.055887e-001
8.967370e+002, 1.110297e-001
8.986655e+002, 1.170315e-001
9.005939e+002, 1.234230e-001
9.025224e+002, 1.301874e-001
9.044509e+002, 1.371398e-001
9.063793e+002, 1.443773e-001
9.083078e+002, 1.520758e-001
9.102363e+002, 1.598576e-001
9.121647e+002, 1.668969e-001
9.140932e+002, 1.724334e-001
9.160217e+002, 1.756342e-001
9.179501e+002, 1.751547e-001
9.198786e+002, 1.710344e-001
9.218071e+002, 1.644527e-001
9.237355e+002, 1.565396e-001
9.256640e+002, 1.477165e-001
9.275925e+002, 1.389791e-001
9.295209e+002, 1.324087e-001
9.314494e+002, 1.300195e-001
9.333779e+002, 1.322695e-001
9.353063e+002, 1.382174e-001
9.372348e+002, 1.465575e-001
9.391633e+002, 1.559274e-001
9.410917e+002, 1.652779e-001
9.430202e+002, 1.740614e-001
9.449487e+002, 1.814623e-001
9.468771e+002, 1.865266e-001
9.488056e+002, 1.887285e-001
9.507341e+002, 1.889344e-001
9.526625e+002, 1.875938e-001
9.545910e+002, 1.853117e-001
9.565195e+002, 1.826688e-001
9.584479e+002, 1.798460e-001
9.603764e+002, 1.769709e-001
9.623049e+002, 1.742557e-001
9.642333e+002, 1.718326e-001
9.661618e+002, 1.698312e-001
9.680903e+002, 1.679872e-001
9.700187e+002, 1.666349e-001
9.719472e+002, 1.656460e-001
9.738757e+002, 1.649602e-001
9.758041e+002, 1.647305e-001
9.777326e+002, 1.648224e-001
9.796611e+002, 1.650760e-001
9.815895e+002, 1.657316e-001
9.835180e+002, 1.666075e-001
9.854465e+002, 1.673333e-001
9.873749e+002, 1.678509e-001
9.893034e+002, 1.680082e-001
9.912319e+002, 1.672668e-001
9.931603e+002, 1.656488e-001
9.950888e+002, 1.629567e-001
9.970173e+002, 1.588425e-001
9.989457e+002, 1.536473e-001
1.000874e+003, 1.476780e-001
1.002803e+003, 1.410025e-001
1.004731e+003, 1.340416e-001
1.006660e+003, 1.267986e-001
1.008588e+003, 1.196078e-001
1.010517e+003, 1.124153e-001
1.012445e+003, 1.052922e-001
1.014373e+003, 9.832270e-002
1.016302e+003, 9.139740e-002
1.018230e+003, 8.496511e-002
1.020159e+003, 7.937376e-002
1.022087e+003, 7.452714e-002
1.024016e+003, 7.060514e-002
1.025944e+003, 6.768665e-002
1.027873e+003, 6.579848e-002
1.029801e+003, 6.520775e-002
1.031730e+003, 6.677075e-002
1.033658e+003, 7.086090e-002
1.035587e+003, 7.658239e-002
1.037515e+003, 8.066215e-002
1.039443e+003, 7.987210e-002
1.041372e+003, 7.599521e-002
1.043300e+003, 7.278396e-002
1.045229e+003, 7.168433e-002
1.047157e+003, 7.177430e-002
1.049086e+003, 7.242004e-002
1.051014e+003, 7.328979e-002
1.052943e+003, 7.403258e-002
1.054871e+003, 7.479734e-002
1.056800e+003, 7.538684e-002
1.058728e+003, 7.584892e-002
1.060657e+003, 7.613539e-002
1.062585e+003, 7.625464e-002
1.064514e+003, 7.608381e-002
1.066442e+003, 7.576244e-002
1.068370e+003, 7.510675e-002
1.070299e+003, 7.382071e-002
1.072227e+003, 7.207513e-002
1.074156e+003, 7.017127e-002
1.076084e+003, 6.809557e-002
1.078013e+003, 6.600070e-002
1.079941e+003, 6.418624e-002
1.081870e+003, 6.280608e-002
1.083798e+003, 6.178944e-002
1.085727e+003, 6.124591e-002
1.087655e+003, 6.134589e-002
1.089584e+003, 6.182744e-002
1.091512e+003, 6.273767e-002
1.093441e+003, 6.384158e-002
1.095369e+003, 6.454483e-002
1.097297e+003, 6.503794e-002
1.099226e+003, 6.562570e-002
1.101154e+003, 6.593533e-002
1.103083e+003, 6.592582e-002
1.105011e+003, 6.578325e-002
1.106940e+003, 6.504429e-002
1.108868e+003, 6.377845e-002
1.110797e+003, 6.198982e-002
1.112725e+003, 5.982748e-002
1.114654e+003, 5.727027e-002
1.116582e+003, 5.433723e-002
1.118511e+003, 5.098737e-002
1.120439e+003, 4.728338e-002
1.122368e+003, 4.364390e-002
1.124296e+003, 4.110207e-002
1.126224e+003, 4.002162e-002
1.128153e+003, 3.954444e-002
1.130081e+003, 3.836468e-002
1.132010e+003, 3.596403e-002
1.133938e+003, 3.269625e-002
1.135867e+003, 2.939020e-002
1.137795e+003, 2.623917e-002
1.139724e+003, 2.330042e-002
1.141652e+003, 2.063289e-002
1.143581e+003, 1.811415e-002
1.145509e+003, 1.578723e-002
1.147438e+003, 1.365563e-002
1.149366e+003, 1.179451e-002
1.151295e+003, 1.024756e-002
1.153223e+003, 8.868525e-003
1.155151e+003, 7.708670e-003
1.157080e+003, 6.670536e-003
1.159008e+003, 5.836680e-003
1.160937e+003, 5.307368e-003
1.162865e+003, 4.914890e-003
1.164794e+003, 4.439330e-003
1.166722e+003, 4.096044e-003
1.168651e+003, 3.908361e-003
1.170579e+003, 3.613969e-003
1.172508e+003, 3.518538e-003
1.174436e+003, 3.273801e-003
1.176365e+003, 2.998250e-003
1.178293e+003, 2.902782e-003
1.180222e+003, 2.808735e-003
1.182150e+003, 2.703517e-003
1.184078e+003, 2.511853e-003
1.186007e+003, 2.383298e-003
1.187935e+003, 2.397394e-003
1.189864e+003, 2.375437e-003
1.191792e+003, 2.300656e-003
1.193721e+003, 2.209536e-003
1.195649e+003, 2.048608e-003
1.197578e+003, 2.025598e-003
1.199506e+003, 2.015995e-003
1.201435e+003, 1.907342e-003
1.203363e+003, 1.862924e-003
1.205292e+003, 1.854591e-003
1.207220e+003, 1.768439e-003
1.209149e+003, 1.713362e-003
1.211077e+003, 1.618104e-003
1.213005e+003, 1.562093e-003
1.214934e+003, 1.556729e-003
1.216862e+003, 1.522991e-003
1.218791e+003, 1.479427e-003
1.220719e+003, 1.415770e-003
1.222648e+003, 1.318851e-003
1.224576e+003, 1.369321e-003
1.226505e+003, 1.460492e-003
1.228433e+003, 1.402132e-003
1.230362e+003, 1.261612e-003
1.232290e+003, 1.280602e-003
1.234219e+003, 1.289025e-003
1.236147e+003, 1.309375e-003
1.238076e+003, 1.359566e-003
1.240004e+003, 1.510671e-003
1.241932e+003, 1.517421e-003
1.243861e+003, 1.389022e-003
1.245789e+003, 1.348540e-003
1.247718e+003, 1.312369e-003
1.249646e+003, 1.273505e-003
1.251575e+003, 1.249402e-003
1.253503e+003, 1.207155e-003
1.255432e+003, 1.116467e-003
1.257360e+003, 1.036405e-003
1.259289e+003, 9.467782e-004
1.261217e+003, 8.966959e-004
1.263146e+003, 1.020265e-003
1.265074e+003, 1.148524e-003
1.267003e+003, 1.123390e-003
1.268931e+003, 1.082421e-003
1.270859e+003, 1.122999e-003
1.272788e+003, 1.200048e-003
1.274716e+003, 1.184637e-003
1.276645e+003, 1.163791e-003
1.278573e+003, 1.249771e-003
1.280502e+003, 1.256836e-003
1.282430e+003, 1.274399e-003
1.284359e+003, 1.193322e-003
1.286287e+003, 1.021273e-003
1.288216e+003, 1.075224e-003
1.290144e+003, 1.148531e-003
1.292073e+003, 1.244711e-003
1.294001e+003, 1.449717e-003
1.295930e+003, 1.328900e-003
1.297858e+003, 1.121051e-003
1.299786e+003, 1.103517e-003
1.301715e+003, 1.196128e-003
1.303643e+003, 1.137308e-003
1.305572e+003, 1.101324e-003
1.307500e+003, 1.175966e-003
1.309429e+003, 1.221871e-003
1.311357e+003, 1.285159e-003
1.313286e+003, 1.353171e-003
1.315214e+003, 1.301047e-003
1.317143e+003, 1.276367e-003
1.319071e+003, 1.254277e-003
1.321000e+003, 1.213966e-003
1.322928e+003, 1.178673e-003
1.324857e+003, 1.144810e-003
1.326785e+003, 1.282820e-003
1.328714e+003, 1.333410e-003
1.330642e+003, 1.289531e-003
1.332570e+003, 1.410270e-003
1.334499e+003, 1.429468e-003
1.336427e+003, 1.393237e-003
1.338356e+003, 1.488159e-003
1.340284e+003, 1.546457e-003
1.342213e+003, 1.518729e-003
1.344141e+003, 1.576018e-003
1.346070e+003, 1.646938e-003
1.347998e+003, 1.692398e-003
1.349927e+003, 1.742335e-003
1.351855e+003, 1.716979e-003
1.353784e+003, 1.661638e-003
1.355712e+003, 1.776591e-003
1.357641e+003, 1.864817e-003
1.359569e+003, 2.021773e-003
1.361497e+003, 2.239882e-003
1.363426e+003, 2.368190e-003
1.365354e+003, 2.321636e-003
1.367283e+003, 2.357131e-003
1.369211e+003, 2.324627e-003
1.371140e+003, 2.334936e-003
1.373068e+003, 2.521729e-003
1.374997e+003, 2.576438e-003
1.376925e+003, 2.620253e-003
1.378854e+003, 2.824076e-003
1.380782e+003, 2.884026e-003
1.382711e+003, 2.948932e-003
1.384639e+003, 3.215716e-003
1.386568e+003, 3.642279e-003
1.388496e+003, 3.731329e-003
1.390424e+003, 3.739863e-003
1.392353e+003, 3.912991e-003
1.394281e+003, 4.166167e-003
1.396210e+003, 4.256870e-003
1.398138e+003, 4.363120e-003
1.400067e+003, 4.417005e-003
1.401995e+003, 4.382218e-003
1.403924e+003, 4.566420e-003
1.405852e+003, 4.624106e-003
1.407781e+003, 4.623611e-003
1.409709e+003, 4.740008e-003
1.411638e+003, 4.911412e-003
1.413566e+003, 5.092760e-003
1.415495e+003, 5.386754e-003
1.417423e+003, 5.850422e-003
1.419351e+003, 6.028822e-003
1.421280e+003, 5.718655e-003
1.423208e+003, 5.716256e-003
1.425137e+003, 5.759387e-003
1.427065e+003, 5.723917e-003
1.428994e+003, 5.826112e-003
1.430922e+003, 5.809447e-003
1.432851e+003, 5.794638e-003
1.434779e+003, 6.127827e-003
1.436708e+003, 6.464274e-003
1.438636e+003, 6.311989e-003
1.440565e+003, 6.053477e-003
1.442493e+003, 5.951542e-003
1.444422e+003, 5.993056e-003
1.446350e+003, 6.123747e-003
1.448278e+003, 6.297489e-003
1.450207e+003, 6.235241e-003
1.452135e+003, 6.228016e-003
1.454064e+003, 6.419484e-003
1.455992e+003, 7.258613e-003
1.457921e+003, 7.344730e-003
1.459849e+003, 6.600133e-003
1.461778e+003, 6.386738e-003
1.463706e+003, 6.697711e-003
1.465635e+003, 6.788874e-003
1.467563e+003, 6.644328e-003
1.469492e+003, 6.720647e-003
1.471420e+003, 7.123717e-003
1.473349e+003, 7.118028e-003
1.475277e+003, 6.720682e-003
1.477205e+003, 6.443480e-003
1.479134e+003, 6.266222e-003
1.481062e+003, 6.163836e-003
1.482991e+003, 6.012774e-003
1.484919e+003, 5.775693e-003
1.486848e+003, 5.795510e-003
1.488776e+003, 5.846716e-003
1.490705e+003, 5.511564e-003
1.492633e+003, 5.108316e-003
1.494562e+003, 5.223171e-003
1.496490e+003, 5.439166e-003
1.498419e+003, 5.082395e-003
1.500347e+003, 4.579802e-003
1.502276e+003, 4.256785e-003
1.504204e+003, 4.663532e-003
1.506132e+003, 5.376743e-003
1.508061e+003, 4.773853e-003
1.509989e+003, 4.004354e-003
1.511918e+003, 3.861498e-003
1.513846e+003, 3.616917e-003
1.515775e+003, 3.418288e-003
1.517703e+003, 3.373752e-003
1.519632e+003, 3.663524e-003
1.521560e+003, 3.796019e-003
1.523489e+003, 3.340513e-003
1.525417e+003, 3.134314e-003
1.527346e+003, 2.911080e-003
1.529274e+003, 2.718640e-003
1.531203e+003, 2.648506e-003
1.533131e+003, 2.819596e-003
1.535059e+003, 2.660518e-003
1.536988e+003, 2.783200e-003
1.538916e+003, 3.588377e-003
1.540845e+003, 3.559610e-003
1.542773e+003, 2.996438e-003
1.544702e+003, 2.629933e-003
1.546630e+003, 2.154463e-003
1.548559e+003, 2.141488e-003
1.550487e+003, 2.375176e-003
1.552416e+003, 2.329505e-003
1.554344e+003, 2.375135e-003
1.556273e+003, 2.714563e-003
1.558201e+003, 3.537530e-003
1.560130e+003, 3.361089e-003
1.562058e+003, 2.250579e-003
1.563986e+003, 1.871167e-003
1.565915e+003, 1.857032e-003
1.567843e+003, 1.943135e-003
1.569772e+003, 2.150910e-003
1.571700e+003, 1.859452e-003
1.573629e+003, 1.885773e-003
1.575557e+003, 2.554372e-003
1.577486e+003, 2.369708e-003
1.579414e+003, 1.802926e-003
1.581343e+003, 1.899536e-003
1.583271e+003, 1.873027e-003
1.585200e+003, 1.691898e-003
1.587128e+003, 1.618578e-003
1.589057e+003, 1.665290e-003
1.590985e+003, 1.772529e-003
1.592913e+003, 1.807593e-003
1.594842e+003, 1.796062e-003
1.596770e+003, 1.841734e-003
1.598699e+003, 1.919010e-003
1.600627e+003, 1.936538e-003
1.602556e+003, 1.883970e-003
1.604484e+003, 1.908577e-003
1.606413e+003, 1.930943e-003
1.608341e+003, 1.871601e-003
1.610270e+003, 1.921517e-003
1.612198e+003, 2.022281e-003
1.614127e+003, 2.234506e-003
1.616055e+003, 2.788461e-003
1.617984e+003, 2.499868e-003
1.619912e+003, 1.888423e-003
1.621840e+003, 2.031267e-003
1.623769e+003, 2.211604e-003
1.625697e+003, 1.990897e-003
1.627626e+003, 1.992985e-003
1.629554e+003, 1.950035e-003
1.631483e+003, 1.811321e-003
1.633411e+003, 2.157229e-003
1.635340e+003, 2.739110e-003
1.637268e+003, 2.408111e-003
1.639197e+003, 1.850737e-003
1.641125e+003, 1.757677e-003
1.643054e+003, 2.073939e-003
1.644982e+003, 2.616979e-003
1.646911e+003, 2.742747e-003
1.648839e+003, 2.451859e-003
1.650767e+003, 2.986805e-003
1.652696e+003, 4.127366e-003
1.654624e+003, 3.245977e-003
1.656553e+003, 2.133149e-003
1.658481e+003, 1.971642e-003
1.660410e+003, 2.089858e-003
1.662338e+003, 2.169082e-003
1.664267e+003, 2.100541e-003
1.666195e+003, 2.083277e-003
1.668124e+003, 2.495266e-003
1.670052e+003, 2.575458e-003
1.671981e+003, 2.354152e-003
1.673909e+003, 2.544363e-003
1.675838e+003, 2.697491e-003
1.677766e+003, 2.319841e-003
1.679694e+003, 2.327658e-003
1.681623e+003, 2.681165e-003
1.683551e+003, 3.611257e-003
1.685480e+003, 3.626465e-003
1.687408e+003, 2.875355e-003
1.689337e+003, 2.727174e-003
1.691265e+003, 2.699423e-003
1.693194e+003, 2.844482e-003
1.695122e+003, 3.554544e-003
1.697051e+003, 3.393808e-003
1.698979e+003, 3.413629e-003
1.700908e+003, 3.738445e-003
1.702836e+003, 2.961235e-003
1.704765e+003, 2.779523e-003
1.706693e+003, 2.723200e-003
1.708621e+003, 2.641626e-003
1.710550e+003, 2.547198e-003
1.712478e+003, 2.649731e-003
1.714407e+003, 2.853253e-003
1.716335e+003, 3.472356e-003
1.718264e+003, 3.383964e-003
1.720192e+003, 2.620156e-003
1.722121e+003, 2.415105e-003
1.724049e+003, 2.467574e-003
1.725978e+003, 2.452050e-003
1.727906e+003, 2.425229e-003
1.729835e+003, 2.352345e-003
1.731763e+003, 2.755189e-003
1.733692e+003, 3.321769e-003
1.735620e+003, 2.790561e-003
1.737548e+003, 2.290536e-003
1.739477e+003, 2.443941e-003
1.741405e+003, 2.397644e-003
1.743334e+003, 2.219376e-003
1.745262e+003, 2.156899e-003
1.747191e+003, 2.124530e-003
1.749119e+003, 1.978935e-003
1.751048e+003, 2.045361e-003
1.752976e+003, 1.698283e-003
1.754905e+003, 1.481321e-003
1.756833e+003, 1.619810e-003
1.758762e+003, 1.556734e-003
1.760690e+003, 1.676323e-003
1.762619e+003, 1.805720e-003
1.764547e+003, 1.676165e-003
1.766475e+003, 1.763021e-003
1.768404e+003, 1.876738e-003
1.770332e+003, 1.929321e-003
1.772261e+003, 1.933272e-003
1.774189e+003, 1.561914e-003
1.776118e+003, 1.391163e-003
1.778046e+003, 1.402968e-003
1.779975e+003, 1.419050e-003
1.781903e+003, 1.262227e-003
1.783832e+003, 1.147771e-003
1.785760e+003, 1.006184e-003
1.787689e+003, 9.129904e-004
1.789617e+003, 1.080008e-003
1.791546e+003, 1.365269e-003
1.793474e+003, 1.442669e-003
1.795402e+003, 1.209048e-003
1.797331e+003, 1.006177e-003
1.799259e+003, 8.469660e-004
1.801188e+003, 8.779436e-004
1.803116e+003, 8.597128e-004
1.805045e+003, 7.307460e-004
1.806973e+003, 5.962508e-004
1.808902e+003, 6.111916e-004
1.810830e+003, 7.515522e-004
1.812759e+003, 7.497967e-004
1.814687e+003, 5.584677e-004
1.816616e+003, 5.948707e-004
1.818544e+003, 5.625485e-004
1.820473e+003, 5.556300e-004
1.822401e+003, 6.001191e-004
1.824329e+003, 7.312177e-004
1.826258e+003, 4.737472e-004
1.828186e+003, 2.274994e-004
1.830115e+003, 2.588878e-004
1.832043e+003, 3.848971e-004
1.833972e+003, 4.509251e-004
1.835900e+003, 1.054297e-004
1.837829e+003, 1.471172e-005
1.839757e+003, 3.163815e-004
1.841686e+003, 2.976283e-004
1.843614e+003, 1.505314e-004
1.845543e+003, -2.576998e-005
1.847471e+003, -1.880806e-004
1.849400e+003, 1.239532e-004
1.851328e+003, 2.770787e-004
1.853256e+003, 1.158657e-004
1.855185e+003, 2.537945e-004
1.857113e+003, 4.765128e-004
1.859042e+003, 5.126673e-004
1.860970e+003, 2.173742e-004
1.862899e+003, 3.909785e-005
1.864827e+003, -7.253824e-005
1.866756e+003, -1.142617e-004
1.868684e+003, 2.182211e-004
1.870613e+003, 2.953624e-004
1.872541e+003, 2.755937e-004
1.874470e+003, 3.102101e-004
1.876398e+003, -9.835231e-005
1.878327e+003, -2.966302e-004
1.880255e+003, 2.620676e-005
1.882183e+003, -2.184343e-004
1.884112e+003, -6.433387e-004
1.886040e+003, -8.623985e-004
1.887969e+003, -6.995455e-004
1.889897e+003, -5.852919e-004
1.891826e+003, -6.091661e-004
1.893754e+003, -3.344808e-004
1.895683e+003, -6.094732e-005
1.897611e+003, -2.997857e-004
1.899540e+003, -7.687788e-004
1.901468e+003, -8.514216e-004
1.903397e+003, -9.789323e-004
1.905325e+003, -6.975548e-004
1.907254e+003, -7.290042e-004
1.909182e+003, -1.160544e-003
1.911110e+003, -1.038213e-003
1.913039e+003, -4.276710e-004
1.914967e+003, -1.602786e-004
1.916896e+003, -1.306432e-004
1.918824e+003, -1.926621e-004
1.920753e+003, -4.977748e-004
1.922681e+003, -8.320410e-004
1.924610e+003, -1.101528e-003
1.926538e+003, -6.796371e-004
1.928467e+003, -4.843119e-004
1.930395e+003, -7.882196e-004
1.932324e+003, -6.939371e-004
1.934252e+003, -6.768160e-004
1.936181e+003, -9.919713e-004
1.938109e+003, -6.819259e-004
1.940037e+003, -3.337447e-004
1.941966e+003, -6.608261e-004
1.943894e+003, -1.141105e-003
1.945823e+003, -1.510894e-003
1.947751e+003, -2.073784e-003
1.949680e+003, -2.083460e-003
1.951608e+003, -1.658463e-003
1.953537e+003, -9.813877e-004
1.955465e+003, -1.488413e-003
1.957394e+003, -1.780426e-003
1.959322e+003, -1.044622e-003
1.961251e+003, -1.192184e-003
1.963179e+003, -1.522373e-003
1.965108e+003, -1.347427e-003
1.967036e+003, -1.584909e-003
1.968964e+003, -1.749181e-003
1.970893e+003, -1.429957e-003
1.972821e+003, -1.722274e-003
1.974750e+003, -1.832320e-003
1.976678e+003, -2.655854e-003
1.978607e+003, -2.106932e-003
1.980535e+003, -1.374660e-003
1.982464e+003, -1.868952e-003
1.984392e+003, -1.623672e-003
1.986321e+003, -1.421446e-003
1.988249e+003, -1.797482e-003
1.990178e+003, -2.047623e-003
1.992106e+003, -1.309210e-003
1.994035e+003, -7.592863e-004
1.995963e+003, -1.394744e-003
1.997891e+003, -1.740179e-003
1.999820e+003, -2.021156e-003
2.001748e+003, -2.040877e-003
2.003677e+003, -2.081019e-003
2.005605e+003, -2.239288e-003
2.007534e+003, -1.855358e-003
2.009462e+003, -1.677534e-003
2.011391e+003, -1.921534e-003
2.013319e+003, -8.433810e-004
2.015248e+003, 1.597567e-005
2.017176e+003, 1.335470e-005
2.019105e+003, 4.205527e-005
2.021033e+003, 3.048831e-004
2.022962e+003, 1.060220e-004
2.024890e+003, -5.942304e-005
2.026818e+003, -1.836070e-004
2.028747e+003, 2.490664e-004
2.030675e+003, 9.566844e-004
2.032604e+003, 1.086705e-003
2.034532e+003, 5.198692e-004
2.036461e+003, -5.926120e-004
2.038389e+003, -2.226911e-004
2.040318e+003, 8.810668e-004
2.042246e+003, 5.386709e-004
2.044175e+003, -2.732107e-004
2.046103e+003, -3.745342e-004
2.048031e+003, -6.905396e-004
2.049960e+003, -4.481757e-006
2.051888e+003, 1.161221e-003
2.053817e+003, 1.365422e-003
2.055745e+003, 9.211008e-004
2.057674e+003, 1.382845e-003
2.059602e+003, 1.530119e-003
2.061531e+003, 9.843782e-004
2.063459e+003, 4.924404e-004
2.065388e+003, -3.110425e-004
2.067316e+003, -1.033186e-003
2.069245e+003, -6.943893e-004
2.071173e+003, -3.184500e-004
2.073102e+003, -3.869452e-004
2.075030e+003, -4.863949e-006
2.076958e+003, 1.693574e-004
2.078887e+003, -4.047995e-004
2.080815e+003, -3.564948e-004
2.082744e+003, 2.389206e-004
2.084672e+003, 2.951256e-004
2.086601e+003, -3.736698e-004
2.088529e+003, 5.605188e-005
2.090458e+003, 6.402792e-004
2.092386e+003, 7.656265e-004
2.094315e+003, 7.539894e-004
2.096243e+003, 4.951750e-004
2.098172e+003, 5.202057e-004
2.100100e+003, 6.015556e-004
2.102029e+003, 1.651875e-004
2.103957e+003, 1.716240e-004
2.105885e+003, 6.420637e-004
2.107814e+003, 7.073332e-004
2.109742e+003, -2.189234e-004
2.111671e+003, -2.770696e-004
2.113599e+003, 5.874166e-005
2.115528e+003, 5.220820e-005
2.117456e+003, 1.863579e-004
2.119385e+003, 8.626364e-005
2.121313e+003, 3.603697e-004
2.123242e+003, 7.075468e-004
2.125170e+003, 4.308769e-004
2.127099e+003, 2.387146e-004
2.129027e+003, 4.557291e-004
2.130956e+003, 7.947927e-004
2.132884e+003, 1.176281e-003
2.134813e+003, 1.141310e-003
2.136741e+003, 6.059567e-004
2.138669e+003, 4.544354e-004
2.140598e+003, 1.364891e-003
2.142526e+003, 1.925634e-003
2.144455e+003, 1.368295e-003
2.146383e+003, 7.062149e-004
2.148312e+003, 7.786851e-004
2.150240e+003, 4.854158e-004
2.152169e+003, 1.447972e-003
2.154097e+003, 2.036989e-003
2.156026e+003, 1.686633e-003
2.157954e+003, 1.777476e-003
2.159883e+003, 8.656643e-004
2.161811e+003, -2.911617e-004
2.163740e+003, -3.408175e-004
2.165668e+003, 6.851365e-004
2.167596e+003, 5.994216e-004
2.169525e+003, 5.256617e-005
2.171453e+003, -3.063898e-004
2.173382e+003, 5.194503e-004
2.175310e+003, 8.141065e-004
2.177239e+003, 4.442369e-004
2.179167e+003, 1.029091e-003
2.181096e+003, 1.788292e-003
2.183024e+003, 1.903671e-003
2.184953e+003, 6.227358e-004
2.186881e+003, -3.360135e-004
2.188810e+003, 2.443111e-004
2.190738e+003, 3.845035e-004
2.192667e+003, -2.584700e-005
2.194595e+003, -1.167483e-005
2.196523e+003, 5.184666e-004
2.198452e+003, 3.614859e-004
2.200380e+003, 2.645478e-004
2.202309e+003, 5.099205e-004
2.204237e+003, 3.490362e-004
2.206166e+003, -1.337519e-004
2.208094e+003, -5.797152e-004
2.210023e+003, 3.382750e-005
2.211951e+003, 5.945284e-004
2.213880e+003, 1.133485e-004
2.215808e+003, 1.819828e-004
2.217737e+003, 1.167414e-003
2.219665e+003, 2.127908e-003
2.221594e+003, 1.746663e-003
2.223522e+003, 7.634596e-004
2.225450e+003, 5.473119e-004
2.227379e+003, 4.793631e-004
2.229307e+003, 1.591835e-004
2.231236e+003, 3.248104e-005
2.233164e+003, 3.663085e-004
2.235093e+003, 9.602780e-004
2.237021e+003, 1.527244e-003
2.238950e+003, 1.592211e-003
2.240878e+003, 1.255558e-003
2.242807e+003, 1.138459e-003
2.244735e+003, 1.072863e-003
2.246664e+003, 4.919331e-004
2.248592e+003, 6.354440e-004
2.250521e+003, 1.389249e-003
2.252449e+003, 8.955105e-004
2.254377e+003, 6.392854e-004
2.256306e+003, 1.076310e-003
2.258234e+003, 1.340720e-003
2.260163e+003, 1.087271e-003
2.262091e+003, 8.654745e-004
2.264020e+003, 1.154394e-003
2.265948e+003, 1.530675e-003
2.267877e+003, 1.346398e-003
2.269805e+003, 1.019477e-003
2.271734e+003, 9.412449e-004
2.273662e+003, 1.825734e-003
2.275591e+003, 2.218889e-003
2.277519e+003, 1.849593e-003
2.279448e+003, 1.320165e-003
2.281376e+003, 8.961646e-004
2.283304e+003, 6.698141e-004
2.285233e+003, 9.629753e-004
2.287161e+003, 1.342888e-003
2.289090e+003, 1.282196e-003
2.291018e+003, 1.795316e-003
2.292947e+003, 2.148793e-003
2.294875e+003, 1.720929e-003
2.296804e+003, 1.374656e-003
2.298732e+003, 1.351651e-003
2.300661e+003, 1.751557e-003
2.302589e+003, 2.140340e-003
2.304518e+003, 2.074028e-003
2.306446e+003, 1.829690e-003
2.308375e+003, 1.613909e-003
2.310303e+003, 1.701064e-003
2.312231e+003, 1.797551e-003
2.314160e+003, 1.885114e-003
2.316088e+003, 2.032608e-003
2.318017e+003, 2.262684e-003
2.319945e+003, 2.269368e-003
2.321874e+003, 2.134385e-003
2.323802e+003, 2.366181e-003
2.325731e+003, 2.775178e-003
2.327659e+003, 3.183431e-003
2.329588e+003, 3.683880e-003
2.331516e+003, 3.592121e-003
2.333445e+003, 3.308118e-003
2.335373e+003, 3.564546e-003
2.337302e+003, 3.919522e-003
2.339230e+003, 4.105834e-003
2.341158e+003, 4.057471e-003
2.343087e+003, 3.802809e-003
2.345015e+003, 3.506602e-003
2.346944e+003, 2.812203e-003
2.348872e+003, 2.268761e-003
2.350801e+003, 2.661295e-003
2.352729e+003, 3.144667e-003
2.354658e+003, 3.679502e-003
2.356586e+003, 4.107977e-003
2.358515e+003, 4.440031e-003
2.360443e+003, 4.856552e-003
2.362372e+003, 4.993094e-003
2.364300e+003, 5.029417e-003
2.366229e+003, 5.039551e-003
2.368157e+003, 4.654373e-003
2.370085e+003, 3.958464e-003
2.372014e+003, 3.327253e-003
2.373942e+003, 2.945482e-003
2.375871e+003, 2.777719e-003
2.377799e+003, 2.495941e-003
2.379728e+003, 2.317420e-003
2.381656e+003, 1.911767e-003
2.383585e+003, 1.502370e-003
2.385513e+003, 1.699513e-003
2.387442e+003, 2.021556e-003
2.389370e+003, 2.003416e-003
2.391299e+003, 1.818995e-003
2.393227e+003, 1.991950e-003
2.395156e+003, 2.279684e-003
2.397084e+003, 1.966575e-003
2.399012e+003, 1.659979e-003
2.400941e+003, 1.527049e-003
2.402869e+003, 1.471435e-003
2.404798e+003, 1.617418e-003
2.406726e+003, 1.595484e-003
2.408655e+003, 1.653176e-003
2.410583e+003, 2.011850e-003
2.412512e+003, 1.710382e-003
2.414440e+003, 1.660840e-003
2.416369e+003, 1.573952e-003
2.418297e+003, 1.293770e-003
2.420226e+003, 1.378214e-003
2.422154e+003, 1.463757e-003
2.424083e+003, 1.686853e-003
2.426011e+003, 1.409131e-003
2.427939e+003, 1.312083e-003
2.429868e+003, 1.695525e-003
2.431796e+003, 1.808857e-003
2.433725e+003, 1.397555e-003
2.435653e+003, 1.178909e-003
2.437582e+003, 1.390606e-003
2.439510e+003, 1.723615e-003
2.441439e+003, 1.392123e-003
2.443367e+003, 1.576142e-003
2.445296e+003, 2.253189e-003
2.447224e+003, 1.627561e-003
2.449153e+003, 1.005865e-003
2.451081e+003, 1.648148e-003
2.453010e+003, 1.898020e-003
2.454938e+003, 1.539595e-003
2.456866e+003, 1.640293e-003
2.458795e+003, 2.021722e-003
2.460723e+003, 1.958072e-003
2.462652e+003, 1.800502e-003
2.464580e+003, 1.719157e-003
2.466509e+003, 1.902671e-003
2.468437e+003, 2.410634e-003
2.470366e+003, 2.279086e-003
2.472294e+003, 1.633076e-003
2.474223e+003, 1.126694e-003
2.476151e+003, 1.267722e-003
2.478080e+003, 1.687385e-003
2.480008e+003, 2.364035e-003
2.481937e+003, 2.679442e-003
2.483865e+003, 2.251886e-003
2.485793e+003, 1.587568e-003
2.487722e+003, 1.740809e-003
2.489650e+003, 2.286403e-003
2.491579e+003, 2.323685e-003
2.493507e+003, 2.125998e-003
2.495436e+003, 1.938300e-003
2.497364e+003, 1.812430e-003
2.499293e+003, 1.970300e-003
2.501221e+003, 2.115906e-003
2.503150e+003, 2.409614e-003
2.505078e+003, 2.830905e-003
2.507007e+003, 2.482146e-003
2.508935e+003, 1.841969e-003
2.510864e+003, 1.812750e-003
2.512792e+003, 1.918912e-003
2.514720e+003, 2.003229e-003
2.516649e+003, 2.153660e-003
2.518577e+003, 1.816013e-003
2.520506e+003, 1.502956e-003
2.522434e+003, 1.663235e-003
2.524363e+003, 2.098786e-003
2.526291e+003, 2.093283e-003
2.528220e+003, 1.635174e-003
2.530148e+003, 1.695970e-003
2.532077e+003, 1.941246e-003
2.534005e+003, 1.931992e-003
2.535934e+003, 1.660891e-003
2.537862e+003, 1.828606e-003
2.539791e+003, 2.025852e-003
2.541719e+003, 1.813231e-003
2.543647e+003, 1.734775e-003
2.545576e+003, 1.790695e-003
2.547504e+003, 1.997713e-003
2.549433e+003, 1.997642e-003
2.551361e+003, 1.760227e-003
2.553290e+003, 1.929618e-003
2.555218e+003, 2.135943e-003
2.557147e+003, 1.797227e-003
2.559075e+003, 1.501498e-003
2.561004e+003, 1.758447e-003
2.562932e+003, 1.932294e-003
2.564861e+003, 1.873257e-003
2.566789e+003, 1.820607e-003
2.568718e+003, 1.837440e-003
2.570646e+003, 1.824256e-003
2.572574e+003, 1.798083e-003
2.574503e+003, 1.732987e-003
2.576431e+003, 1.741075e-003
2.578360e+003, 1.813860e-003
2.580288e+003, 2.006815e-003
2.582217e+003, 1.639002e-003
2.584145e+003, 1.541563e-003
2.586074e+003, 1.888756e-003
2.588002e+003, 2.005560e-003
2.589931e+003, 2.104149e-003
2.591859e+003, 1.885348e-003
2.593788e+003, 1.557813e-003
2.595716e+003, 1.619209e-003
2.597645e+003, 1.808695e-003
2.599573e+003, 1.715699e-003
2.601501e+003, 1.896485e-003
2.603430e+003, 2.115946e-003
2.605358e+003, 2.162178e-003
2.607287e+003, 1.731559e-003
2.609215e+003, 1.371796e-003
2.611144e+003, 1.649371e-003
2.613072e+003, 1.845555e-003
2.615001e+003, 1.848419e-003
2.616929e+003, 1.905057e-003
2.618858e+003, 2.022189e-003
2.620786e+003, 2.097300e-003
2.622715e+003, 2.080686e-003
2.624643e+003, 2.052188e-003
2.626572e+003, 1.926105e-003
2.628500e+003, 2.060427e-003
2.630428e+003, 2.327075e-003
2.632357e+003, 2.196248e-003
2.634285e+003, 2.023961e-003
2.636214e+003, 1.910775e-003
2.638142e+003, 1.858716e-003
2.640071e+003, 1.871153e-003
2.641999e+003, 1.883957e-003
2.643928e+003, 2.045858e-003
2.645856e+003, 2.244906e-003
2.647785e+003, 1.955492e-003
2.649713e+003, 2.110249e-003
2.651642e+003, 2.362604e-003
2.653570e+003, 2.238032e-003
2.655499e+003, 2.419010e-003
2.657427e+003, 2.592256e-003
2.659355e+003, 2.311795e-003
2.661284e+003, 2.157569e-003
2.663212e+003, 2.362178e-003
2.665141e+003, 2.521697e-003
2.667069e+003, 2.497171e-003
2.668998e+003, 2.415173e-003
2.670926e+003, 2.264084e-003
2.672855e+003, 2.438623e-003
2.674783e+003, 2.582339e-003
2.676712e+003, 2.459455e-003
2.678640e+003, 2.470151e-003
2.680569e+003, 2.437348e-003
2.682497e+003, 2.298863e-003
2.684426e+003, 2.181768e-003
2.686354e+003, 2.154128e-003
2.688282e+003, 2.232639e-003
2.690211e+003, 2.358512e-003
2.692139e+003, 2.408053e-003
2.694068e+003, 2.521454e-003
2.695996e+003, 2.711922e-003
2.697925e+003, 2.491813e-003
2.699853e+003, 2.198922e-003
2.701782e+003, 2.504779e-003
2.703710e+003, 2.774074e-003
2.705639e+003, 2.765661e-003
2.707567e+003, 2.801575e-003
2.709496e+003, 2.653153e-003
2.711424e+003, 2.584585e-003
2.713353e+003, 2.427362e-003
2.715281e+003, 2.304547e-003
2.717209e+003, 2.367027e-003
2.719138e+003, 2.502443e-003
2.721066e+003, 2.693736e-003
2.722995e+003, 2.769469e-003
2.724923e+003, 2.697631e-003
2.726852e+003, 2.650312e-003
2.728780e+003, 2.484060e-003
2.730709e+003, 2.604094e-003
2.732637e+003, 2.744624e-003
2.734566e+003, 2.532757e-003
2.736494e+003, 2.405651e-003
2.738423e+003, 2.460941e-003
2.740351e+003, 2.521040e-003
2.742280e+003, 2.585869e-003
2.744208e+003, 2.782292e-003
2.746136e+003, 2.944804e-003
2.748065e+003, 2.877275e-003
2.749993e+003, 2.771649e-003
2.751922e+003, 2.841086e-003
2.753850e+003, 2.996958e-003
2.755779e+003, 2.915257e-003
2.757707e+003, 2.588015e-003
2.759636e+003, 2.584270e-003
2.761564e+003, 2.775214e-003
2.763493e+003, 2.762871e-003
2.765421e+003, 2.800396e-003
2.767350e+003, 2.493991e-003
2.769278e+003, 2.598390e-003
2.771207e+003, 3.062535e-003
2.773135e+003, 3.066729e-003
2.775063e+003, 2.941428e-003
2.776992e+003, 2.761542e-003
2.778920e+003, 2.543333e-003
2.780849e+003, 2.585946e-003
2.782777e+003, 2.585568e-003
2.784706e+003, 2.715382e-003
2.786634e+003, 2.821315e-003
2.788563e+003, 2.731634e-003
2.790491e+003, 3.093261e-003
2.792420e+003, 3.374307e-003
2.794348e+003, 3.265082e-003
2.796277e+003, 3.197989e-003
2.798205e+003, 3.309740e-003
2.800134e+003, 3.344350e-003
2.802062e+003, 2.961063e-003
2.803990e+003, 2.845705e-003
2.805919e+003, 3.044442e-003
2.807847e+003, 3.078002e-003
2.809776e+003, 2.939707e-003
2.811704e+003, 2.932238e-003
2.813633e+003, 3.011861e-003
2.815561e+003, 3.114790e-003
2.817490e+003, 3.121277e-003
2.819418e+003, 2.959764e-003
2.821347e+003, 3.193115e-003
2.823275e+003, 3.447942e-003
2.825204e+003, 3.420589e-003
2.827132e+003, 3.640531e-003
2.829061e+003, 3.683959e-003
2.830989e+003, 3.472964e-003
2.832917e+003, 3.323840e-003
2.834846e+003, 3.356845e-003
2.836774e+003, 3.381138e-003
2.838703e+003, 3.265599e-003
2.840631e+003, 3.489548e-003
2.842560e+003, 3.497927e-003
2.844488e+003, 3.424730e-003
2.846417e+003, 3.707730e-003
2.848345e+003, 3.717475e-003
2.850274e+003, 3.509775e-003
2.852202e+003, 3.546128e-003
2.854131e+003, 3.661048e-003
2.856059e+003, 3.732478e-003
2.857988e+003, 3.878655e-003
2.859916e+003, 3.957843e-003
2.861844e+003, 3.839370e-003
2.863773e+003, 3.775004e-003
2.865701e+003, 3.395929e-003
2.867630e+003, 3.239561e-003
2.869558e+003, 3.453525e-003
2.871487e+003, 3.870014e-003
2.873415e+003, 4.001693e-003
2.875344e+003, 3.743144e-003
2.877272e+003, 3.605058e-003
2.879201e+003, 3.523613e-003
2.881129e+003, 3.459781e-003
2.883058e+003, 3.565125e-003
2.884986e+003, 3.529208e-003
2.886915e+003, 3.532385e-003
2.888843e+003, 3.773240e-003
2.890771e+003, 3.787435e-003
2.892700e+003, 3.607170e-003
2.894628e+003, 3.715155e-003
2.896557e+003, 4.002632e-003
2.898485e+003, 3.852935e-003
2.900414e+003, 3.806873e-003
2.902342e+003, 4.019059e-003
2.904271e+003, 4.293461e-003
2.906199e+003, 4.328046e-003
2.908128e+003, 4.048194e-003
2.910056e+003, 3.866677e-003
2.911985e+003, 3.807442e-003
2.913913e+003, 3.742521e-003
2.915842e+003, 3.842620e-003
2.917770e+003, 4.123943e-003
2.919698e+003, 4.445963e-003
2.921627e+003, 4.426416e-003
2.923555e+003, 4.432210e-003
2.925484e+003, 4.649869e-003
2.927412e+003, 4.711983e-003
2.929341e+003, 4.493912e-003
2.931269e+003, 4.536399e-003
2.933198e+003, 4.545084e-003
2.935126e+003, 4.280737e-003
2.937055e+003, 4.398522e-003
2.938983e+003, 4.226676e-003
2.940912e+003, 4.089023e-003
2.942840e+003, 3.894660e-003
2.944769e+003, 4.050341e-003
2.946697e+003, 4.295273e-003
2.948625e+003, 4.601858e-003
2.950554e+003, 4.676145e-003
2.952482e+003, 4.438633e-003
2.954411e+003, 4.154105e-003
2.956339e+003, 4.148017e-003
2.958268e+003, 4.334872e-003
2.960196e+003, 4.409487e-003
2.962125e+003, 4.147822e-003
2.964053e+003, 3.728159e-003
2.965982e+003, 3.830099e-003
2.967910e+003, 4.093841e-003
2.969839e+003, 3.475297e-003
2.971767e+003, 3.299414e-003
2.973696e+003, 3.862398e-003
2.975624e+003, 3.783677e-003
2.977552e+003, 3.660718e-003
2.979481e+003, 3.675520e-003
2.981409e+003, 3.736108e-003
2.983338e+003, 3.622788e-003
2.985266e+003, 3.430296e-003
2.987195e+003, 3.288275e-003
2.989123e+003, 3.579223e-003
2.991052e+003, 3.819220e-003
2.992980e+003, 3.583458e-003
2.994909e+003, 3.656176e-003
2.996837e+003, 3.909528e-003
2.998766e+003, 3.962129e-003
3.000694e+003, 3.751529e-003
3.002623e+003, 3.602550e-003
3.004551e+003, 3.718228e-003
3.006479e+003, 3.591000e-003
3.008408e+003, 3.611043e-003
3.010336e+003, 3.720439e-003
3.012265e+003, 3.439355e-003
3.014193e+003, 3.705580e-003
3.016122e+003, 4.432488e-003
3.018050e+003, 4.109417e-003
3.019979e+003, 3.487210e-003
3.021907e+003, 3.449430e-003
3.023836e+003, 3.400861e-003
3.025764e+003, 3.346400e-003
3.027693e+003, 3.298698e-003
3.029621e+003, 3.302970e-003
3.031550e+003, 3.615004e-003
3.033478e+003, 3.720268e-003
3.035406e+003, 4.074125e-003
3.037335e+003, 4.265245e-003
3.039263e+003, 3.696628e-003
3.041192e+003, 3.430366e-003
3.043120e+003, 3.533503e-003
3.045049e+003, 3.720526e-003
3.046977e+003, 3.974650e-003
3.048906e+003, 3.630236e-003
3.050834e+003, 3.090713e-003
3.052763e+003, 3.278982e-003
3.054691e+003, 3.617797e-003
3.056620e+003, 3.593535e-003
3.058548e+003, 3.398430e-003
3.060477e+003, 3.385485e-003
3.062405e+003, 3.811435e-003
3.064333e+003, 4.070197e-003
3.066262e+003, 4.012492e-003
3.068190e+003, 3.583015e-003
3.070119e+003, 3.410720e-003
3.072047e+003, 3.617330e-003
3.073976e+003, 3.616393e-003
3.075904e+003, 3.318622e-003
3.077833e+003, 3.369212e-003
3.079761e+003, 3.498549e-003
3.081690e+003, 3.497207e-003
3.083618e+003, 3.597185e-003
3.085547e+003, 3.762178e-003
3.087475e+003, 3.905243e-003
3.089404e+003, 3.982061e-003
3.091332e+003, 4.379366e-003
3.093260e+003, 4.193798e-003
3.095189e+003, 3.959052e-003
3.097117e+003, 4.147261e-003
3.099046e+003, 3.968115e-003
3.100974e+003, 3.687705e-003
3.102903e+003, 4.127227e-003
3.104831e+003, 4.179902e-003
3.106760e+003, 3.932289e-003
3.108688e+003, 4.033955e-003
3.110617e+003, 3.845190e-003
3.112545e+003, 3.865001e-003
3.114474e+003, 3.905439e-003
3.116402e+003, 3.855616e-003
3.118331e+003, 3.882839e-003
3.120259e+003, 4.002053e-003
3.122188e+003, 4.154098e-003
3.124116e+003, 4.041169e-003
3.126044e+003, 3.835339e-003
3.127973e+003, 3.433321e-003
3.129901e+003, 3.395256e-003
3.131830e+003, 3.509766e-003
3.133758e+003, 3.653677e-003
3.135687e+003, 3.657125e-003
3.137615e+003, 3.946960e-003
3.139544e+003, 4.243876e-003
3.141472e+003, 4.217939e-003
3.143401e+003, 4.058563e-003
3.145329e+003, 4.092684e-003
3.147258e+003, 4.303714e-003
3.149186e+003, 3.989088e-003
3.151115e+003, 3.789935e-003
3.153043e+003, 3.768633e-003
3.154971e+003, 4.016099e-003
3.156900e+003, 4.296741e-003
3.158828e+003, 4.091565e-003
3.160757e+003, 4.039603e-003
3.162685e+003, 4.027629e-003
3.164614e+003, 3.640896e-003
3.166542e+003, 3.963529e-003
3.168471e+003, 4.070465e-003
3.170399e+003, 3.908755e-003
3.172328e+003, 3.844687e-003
3.174256e+003, 3.681822e-003
3.176185e+003, 3.503910e-003
3.178113e+003, 3.666155e-003
3.180042e+003, 4.091822e-003
3.181970e+003, 4.544797e-003
3.183898e+003, 4.675786e-003
3.185827e+003, 4.400686e-003
3.187755e+003, 4.489340e-003
3.189684e+003, 4.354505e-003
3.191612e+003, 3.676964e-003
3.193541e+003, 3.326631e-003
3.195469e+003, 3.705638e-003
3.197398e+003, 3.891709e-003
3.199326e+003, 3.555913e-003
3.201255e+003, 3.687853e-003
3.203183e+003, 3.947368e-003
3.205112e+003, 4.297463e-003
3.207040e+003, 4.445180e-003
3.208969e+003, 4.359285e-003
3.210897e+003, 4.151631e-003
3.212825e+003, 3.837018e-003
3.214754e+003, 3.496788e-003
3.216682e+003, 3.469346e-003
3.218611e+003, 3.649401e-003
3.220539e+003, 3.772126e-003
3.222468e+003, 3.921025e-003
3.224396e+003, 3.651333e-003
3.226325e+003, 3.765161e-003
3.228253e+003, 4.119832e-003
3.230182e+003, 3.853603e-003
3.232110e+003, 3.529130e-003
3.234039e+003, 3.564488e-003
3.235967e+003, 3.851239e-003
3.237896e+003, 3.696646e-003
3.239824e+003, 3.300640e-003
3.241752e+003, 3.630963e-003
3.243681e+003, 4.117520e-003
3.245609e+003, 4.243102e-003
3.247538e+003, 4.324038e-003
3.249466e+003, 4.395254e-003
3.251395e+003, 4.169381e-003
3.253323e+003, 4.211060e-003
3.255252e+003, 3.766690e-003
3.257180e+003, 3.667602e-003
3.259109e+003, 3.657393e-003
3.261037e+003, 3.457489e-003
3.262966e+003, 3.762983e-003
3.264894e+003, 4.408606e-003
3.266823e+003, 4.404874e-003
3.268751e+003, 3.603501e-003
3.270679e+003, 3.316841e-003
3.272608e+003, 3.179420e-003
3.274536e+003, 3.146350e-003
3.276465e+003, 3.716870e-003
3.278393e+003, 3.891856e-003
3.280322e+003, 3.153525e-003
3.282250e+003, 3.245579e-003
3.284179e+003, 3.404944e-003
3.286107e+003, 3.362039e-003
3.288036e+003, 3.217107e-003
3.289964e+003, 3.301662e-003
3.291893e+003, 3.220465e-003
3.293821e+003, 3.138321e-003
3.295750e+003, 3.366776e-003
3.297678e+003, 3.453369e-003
3.299606e+003, 3.701941e-003
3.301535e+003, 4.166087e-003
3.303463e+003, 3.280472e-003
3.305392e+003, 2.662934e-003
3.307320e+003, 2.725821e-003
3.309249e+003, 2.760318e-003
3.311177e+003, 3.093449e-003
3.313106e+003, 3.403486e-003
3.315034e+003, 3.428660e-003
3.316963e+003, 3.246103e-003
3.318891e+003, 3.619962e-003
3.320820e+003, 4.029016e-003
3.322748e+003, 4.278960e-003
3.324677e+003, 4.130822e-003
3.326605e+003, 3.692635e-003
3.328533e+003, 3.142558e-003
3.330462e+003, 2.696743e-003
3.332390e+003, 2.737416e-003
3.334319e+003, 3.111802e-003
3.336247e+003, 2.999899e-003
3.338176e+003, 2.891541e-003
3.340104e+003, 2.734932e-003
3.342033e+003, 2.617993e-003
3.343961e+003, 2.956269e-003
3.345890e+003, 3.588822e-003
3.347818e+003, 3.931494e-003
3.349747e+003, 3.543250e-003
3.351675e+003, 3.095020e-003
3.353604e+003, 3.174145e-003
3.355532e+003, 3.528628e-003
3.357460e+003, 3.251973e-003
3.359389e+003, 2.722212e-003
3.361317e+003, 2.852840e-003
3.363246e+003, 2.966087e-003
3.365174e+003, 3.154121e-003
3.367103e+003, 3.124129e-003
3.369031e+003, 3.223208e-003
3.370960e+003, 3.634662e-003
3.372888e+003, 3.557377e-003
3.374817e+003, 3.632682e-003
3.376745e+003, 3.526816e-003
3.378674e+003, 3.461689e-003
3.380602e+003, 3.345396e-003
3.382531e+003, 3.255272e-003
3.384459e+003, 3.714118e-003
3.386387e+003, 3.863561e-003
3.388316e+003, 3.898255e-003
3.390244e+003, 3.545014e-003
3.392173e+003, 3.489536e-003
3.394101e+003, 3.307968e-003
3.396030e+003, 3.189033e-003
3.397958e+003, 3.277462e-003
3.399887e+003, 3.113896e-003
3.401815e+003, 3.148156e-003
3.403744e+003, 3.304510e-003
3.405672e+003, 3.450547e-003
3.407601e+003, 3.314167e-003
3.409529e+003, 3.404435e-003
3.411458e+003, 3.464445e-003
3.413386e+003, 3.512835e-003
3.415314e+003, 3.975037e-003
3.417243e+003, 3.969514e-003
3.419171e+003, 3.421806e-003
3.421100e+003, 3.069379e-003
3.423028e+003, 3.457650e-003
3.424957e+003, 3.862375e-003
3.426885e+003, 3.707879e-003
3.428814e+003, 3.409171e-003
3.430742e+003, 3.246303e-003
3.432671e+003, 3.217202e-003
3.434599e+003, 3.404527e-003
3.436528e+003, 3.897558e-003
3.438456e+003, 3.898327e-003
3.440385e+003, 3.870420e-003
3.442313e+003, 3.855628e-003
3.444241e+003, 4.034178e-003
3.446170e+003, 4.159380e-003
3.448098e+003, 4.329623e-003
3.450027e+003, 4.557526e-003
3.451955e+003, 4.360650e-003
3.453884e+003, 3.773466e-003
3.455812e+003, 4.056227e-003
3.457741e+003, 4.572146e-003
3.459669e+003, 4.244128e-003
3.461598e+003, 3.900165e-003
3.463526e+003, 3.677037e-003
3.465455e+003, 3.869891e-003
3.467383e+003, 4.205382e-003
3.469312e+003, 4.477445e-003
3.471240e+003, 4.821391e-003
3.473168e+003, 5.011877e-003
3.475097e+003, 5.031248e-003
3.477025e+003, 4.478463e-003
3.478954e+003, 3.477028e-003
3.480882e+003, 3.648166e-003
3.482811e+003, 3.827136e-003
3.484739e+003, 3.546459e-003
3.486668e+003, 3.365438e-003
3.488596e+003, 3.566522e-003
3.490525e+003, 3.502497e-003
3.492453e+003, 3.580242e-003
3.494382e+003, 3.923073e-003
3.496310e+003, 4.050992e-003
3.498239e+003, 3.995663e-003
3.500167e+003, 3.546506e-003
3.502095e+003, 3.161973e-003
3.504024e+003, 3.662518e-003
3.505952e+003, 3.657385e-003
3.507881e+003, 3.737306e-003
3.509809e+003, 4.402680e-003
3.511738e+003, 4.368645e-003
3.513666e+003, 4.665023e-003
3.515595e+003, 4.251525e-003
3.517523e+003, 3.817715e-003
3.519452e+003, 3.407617e-003
3.521380e+003, 3.211616e-003
3.523309e+003, 3.448369e-003
3.525237e+003, 2.918245e-003
3.527166e+003, 2.554411e-003
3.529094e+003, 3.208996e-003
3.531022e+003, 3.632250e-003
3.532951e+003, 3.664344e-003
3.534879e+003, 3.643885e-003
3.536808e+003, 3.029963e-003
3.538736e+003, 2.488909e-003
3.540665e+003, 2.393057e-003
3.542593e+003, 3.063382e-003
3.544522e+003, 3.597121e-003
3.546450e+003, 3.143876e-003
3.548379e+003, 2.501744e-003
3.550307e+003, 2.835361e-003
3.552236e+003, 3.285005e-003
3.554164e+003, 3.037295e-003
3.556093e+003, 2.739178e-003
3.558021e+003, 2.665873e-003
3.559949e+003, 2.992121e-003
3.561878e+003, 3.264158e-003
3.563806e+003, 3.527058e-003
3.565735e+003, 3.411113e-003
3.567663e+003, 3.184648e-003
3.569592e+003, 3.254947e-003
3.571520e+003, 3.365536e-003
3.573449e+003, 3.133461e-003
3.575377e+003, 2.634503e-003
3.577306e+003, 2.414227e-003
3.579234e+003, 2.039966e-003
3.581163e+003, 2.099724e-003
3.583091e+003, 2.313620e-003
3.585020e+003, 3.135758e-003
3.586948e+003, 3.354869e-003
3.588876e+003, 3.483676e-003
3.590805e+003, 2.995495e-003
3.592733e+003, 2.622610e-003
3.594662e+003, 3.235883e-003
3.596590e+003, 3.579865e-003
3.598519e+003, 3.387457e-003
3.600447e+003, 3.014948e-003
3.602376e+003, 3.086489e-003
3.604304e+003, 2.636808e-003
3.606233e+003, 2.649435e-003
3.608161e+003, 3.048558e-003
3.610090e+003, 1.828900e-003
3.612018e+003, 1.437606e-003
3.613947e+003, 1.820824e-003
3.615875e+003, 2.263703e-003
3.617803e+003, 3.285925e-003
3.619732e+003, 3.483677e-003
3.621660e+003, 2.367666e-003
3.623589e+003, 2.383933e-003
3.625517e+003, 2.272443e-003
3.627446e+003, 3.368332e-003
3.629374e+003, 4.264414e-003
3.631303e+003, 3.165905e-003
3.633231e+003, 2.185138e-003
3.635160e+003, 2.140783e-003
3.637088e+003, 2.659414e-003
3.639017e+003, 2.772150e-003
3.640945e+003, 2.786988e-003
3.642874e+003, 2.550368e-003
3.644802e+003, 2.482486e-003
3.646730e+003, 3.684361e-003
3.648659e+003, 5.229940e-003
3.650587e+003, 4.770369e-003
3.652516e+003, 2.782899e-003
3.654444e+003, 2.541263e-003
3.656373e+003, 2.778841e-003
3.658301e+003, 2.111718e-003
3.660230e+003, 2.016135e-003
3.662158e+003, 2.065752e-003
3.664087e+003, 2.593620e-003
3.666015e+003, 3.238816e-003
3.667944e+003, 4.327970e-003
3.669872e+003, 8.184209e-003
3.671801e+003, 1.232501e-002
3.673729e+003, 1.317785e-002
3.675657e+003, 8.311461e-003
3.677586e+003, 2.494661e-003
3.679514e+003, 1.069399e-003
3.681443e+003, 1.302336e-003
3.683371e+003, 1.803480e-003
3.685300e+003, 1.604278e-003
3.687228e+003, 2.536619e-003
3.689157e+003, 2.733186e-003
3.691085e+003, 1.570693e-003
3.693014e+003, 9.828151e-004
3.694942e+003, 9.466567e-004
3.696871e+003, 1.688914e-003
3.698799e+003, 2.255676e-003
3.700728e+003, 1.954905e-003
3.702656e+003, 1.822368e-003
3.704584e+003, 1.573600e-003
3.706513e+003, 1.182645e-003
3.708441e+003, 2.314524e-003
3.710370e+003, 3.159248e-003
3.712298e+003, 2.955413e-003
3.714227e+003, 1.974707e-003
3.716155e+003, 1.306169e-003
3.718084e+003, 1.976926e-003
3.720012e+003, 1.983471e-003
3.721941e+003, 5.875977e-004
3.723869e+003, 1.247992e-003
3.725798e+003, 2.287069e-003
3.727726e+003, 2.117292e-003
3.729655e+003, 1.507068e-003
3.731583e+003, 2.339913e-003
3.733511e+003, 3.386369e-003
3.735440e+003, 3.884021e-003
3.737368e+003, 2.696200e-003
3.739297e+003, 1.763868e-003
3.741225e+003, 2.881405e-003
3.743154e+003, 5.059864e-003
3.745082e+003, 5.324898e-003
3.747011e+003, 4.234259e-003
3.748939e+003, 4.154880e-003
3.750868e+003, 3.455201e-003
3.752796e+003, 3.327903e-003
3.754725e+003, 2.342854e-003
3.756653e+003, 1.720056e-003
3.758582e+003, 1.701008e-003
3.760510e+003, 1.261401e-003
3.762438e+003, 6.255393e-004
3.764367e+003, 1.071258e-003
3.766295e+003, 1.498059e-003
3.768224e+003, 2.084805e-003
3.770152e+003, 2.455276e-003
3.772081e+003, 2.375441e-003
3.774009e+003, 2.237541e-003
3.775938e+003, 1.891960e-003
3.777866e+003, 1.694952e-003
3.779795e+003, 1.857684e-003
3.781723e+003, 1.461668e-003
3.783652e+003, 1.244858e-003
3.785580e+003, 1.351219e-003
3.787509e+003, 1.126360e-003
3.789437e+003, 1.002320e-003
3.791365e+003, 1.309081e-003
3.793294e+003, 1.632179e-003
3.795222e+003, 1.852697e-003
3.797151e+003, 1.633369e-003
3.799079e+003, 1.611919e-003
3.801008e+003, 3.027299e-003
3.802936e+003, 3.498148e-003
3.804865e+003, 2.966638e-003
3.806793e+003, 3.205351e-003
3.808722e+003, 2.121217e-003
3.810650e+003, 1.307455e-003
3.812579e+003, 7.285835e-004
3.814507e+003, 1.717176e-003
3.816436e+003, 2.615415e-003
3.818364e+003, 2.141147e-003
3.820292e+003, 2.743630e-003
3.822221e+003, 2.543356e-003
3.824149e+003, 1.273447e-003
3.826078e+003, 1.196855e-003
3.828006e+003, 1.732311e-003
3.829935e+003, 2.472199e-003
3.831863e+003, 2.423757e-003
3.833792e+003, 2.765455e-003
3.835720e+003, 3.407464e-003
3.837649e+003, 3.475583e-003
3.839577e+003, 2.574240e-003
3.841506e+003, 1.751722e-003
3.843434e+003, 1.626302e-003
3.845363e+003, 1.835547e-003
3.847291e+003, 1.672393e-003
3.849219e+003, 2.293588e-003
3.851148e+003, 3.658984e-003
3.853076e+003, 5.978941e-003
3.855005e+003, 5.113447e-003
3.856933e+003, 3.119572e-003
3.858862e+003, 1.974816e-003
3.860790e+003, 1.602671e-003
3.862719e+003, 2.053232e-003
3.864647e+003, 2.206985e-003
3.866576e+003, 1.358970e-003
3.868504e+003, 1.799228e-003
3.870433e+003, 2.294113e-003
3.872361e+003, 1.898962e-003
3.874290e+003, 1.902516e-003
3.876218e+003, 1.490166e-003
3.878146e+003, 2.346683e-003
3.880075e+003, 3.337947e-003
3.882003e+003, 2.478281e-003
3.883932e+003, 2.083421e-003
3.885860e+003, 2.337185e-003
3.887789e+003, 1.823507e-003
3.889717e+003, 1.940962e-003
3.891646e+003, 1.929304e-003
3.893574e+003, 1.661933e-003
3.895503e+003, 1.893943e-003
3.897431e+003, 2.441359e-003
3.899360e+003, 2.217090e-003
3.901288e+003, 1.818192e-003
3.903217e+003, 1.847487e-003
3.905145e+003, 1.722012e-003
3.907073e+003, 1.290910e-003
3.909002e+003, 1.931636e-003
3.910930e+003, 1.796419e-003
3.912859e+003, 1.173180e-003
3.914787e+003, 1.276740e-003
3.916716e+003, 1.611485e-003
3.918644e+003, 1.564627e-003
3.920573e+003, 1.328685e-003
3.922501e+003, 1.473629e-003
3.924430e+003, 1.416616e-003
3.926358e+003, 6.818493e-004
3.928287e+003, 8.421402e-004
3.930215e+003, 1.361882e-003
3.932144e+003, 1.110818e-003
3.934072e+003, 8.186045e-004
3.936000e+003, 1.080675e-003
3.937929e+003, 1.069111e-003
3.939857e+003, 4.239806e-004
3.941786e+003, 8.214314e-004
3.943714e+003, 1.489415e-003
3.945643e+003, 1.674299e-003
3.947571e+003, 1.901034e-003
3.949500e+003, 1.539540e-003
3.951428e+003, 1.518076e-003
3.953357e+003, 1.833153e-003
3.955285e+003, 1.411963e-003
3.957214e+003, 1.493007e-003
3.959142e+003, 1.850167e-003
3.961071e+003, 1.509676e-003
3.962999e+003, 1.157610e-003
3.964927e+003, 1.301529e-003
3.966856e+003, 1.639504e-003
3.968784e+003, 1.264598e-003
3.970713e+003, 7.768544e-004
3.972641e+003, 7.591139e-004
3.974570e+003, 1.022801e-003
3.976498e+003, 9.980304e-004
3.978427e+003, 3.154691e-004
3.980355e+003, 3.727869e-004
3.982284e+003, 9.503978e-004
3.984212e+003, 1.209033e-003
3.986141e+003, 5.543653e-004
3.988069e+003, 6.088885e-004
3.989998e+003, 1.080115e-003
3.991926e+003, 6.470308e-004
3.993854e+003, 1.290367e-003
3.995783e+003, 1.983880e-003
3.997711e+003, 1.800300e-003
##END=



