##NAMES=Vanadinite
##RRUFFID=R050189
##IDEAL CHEMISTRY=Pb^2+^_5_(V^5+^O_4_)_3_Cl
##LOCALITY=Puzzler mine, Yuma County, Arizona, USA
##OWNER=RRUFF
##SOURCE=Dave Bunk Minerals
##DESCRIPTION=Red and green hexagonal prisms
##STATUS=The identification of this mineral has been confirmed by X-ray diffraction and chemical analysis
##URL=rruff.info/R050189
##MEASURED CHEMISTRY=Pb_5.00_(V_1.00_O_4_)_3_Cl_1.00_
3.741225e+002, 2.823018e-001
3.760510e+002, 2.642550e-001
3.779795e+002, 2.429405e-001
3.799079e+002, 2.290294e-001
3.818364e+002, 2.249759e-001
3.837649e+002, 2.158261e-001
3.856933e+002, 2.051927e-001
3.876218e+002, 1.937427e-001
3.895503e+002, 1.904455e-001
3.914787e+002, 1.873936e-001
3.934072e+002, 1.796139e-001
3.953357e+002, 1.746413e-001
3.972641e+002, 1.799648e-001
3.991926e+002, 1.836166e-001
4.011211e+002, 1.789200e-001
4.030495e+002, 1.778460e-001
4.049780e+002, 1.780221e-001
4.069065e+002, 1.813883e-001
4.088349e+002, 1.835548e-001
4.107634e+002, 1.886717e-001
4.126919e+002, 1.941226e-001
4.146203e+002, 1.940821e-001
4.165488e+002, 1.897356e-001
4.184773e+002, 1.894612e-001
4.204057e+002, 1.855887e-001
4.223342e+002, 1.779462e-001
4.242627e+002, 1.703477e-001
4.261911e+002, 1.661375e-001
4.281196e+002, 1.651620e-001
4.300481e+002, 1.644088e-001
4.319765e+002, 1.644225e-001
4.339050e+002, 1.672240e-001
4.358335e+002, 1.718539e-001
4.377619e+002, 1.764797e-001
4.396904e+002, 1.800282e-001
4.416189e+002, 1.862407e-001
4.435473e+002, 1.915999e-001
4.454758e+002, 1.966697e-001
4.474043e+002, 2.000602e-001
4.493327e+002, 2.028770e-001
4.512612e+002, 2.069946e-001
4.531897e+002, 2.115547e-001
4.551181e+002, 2.162457e-001
4.570466e+002, 2.222805e-001
4.589751e+002, 2.266345e-001
4.609035e+002, 2.291967e-001
4.628320e+002, 2.308968e-001
4.647605e+002, 2.345470e-001
4.666889e+002, 2.376946e-001
4.686174e+002, 2.412920e-001
4.705459e+002, 2.463644e-001
4.724743e+002, 2.505239e-001
4.744028e+002, 2.518136e-001
4.763313e+002, 2.538144e-001
4.782597e+002, 2.572565e-001
4.801882e+002, 2.601388e-001
4.821167e+002, 2.639071e-001
4.840451e+002, 2.680547e-001
4.859736e+002, 2.701119e-001
4.879021e+002, 2.715658e-001
4.898305e+002, 2.746888e-001
4.917590e+002, 2.791346e-001
4.936875e+002, 2.834698e-001
4.956159e+002, 2.874455e-001
4.975444e+002, 2.905437e-001
4.994729e+002, 2.948961e-001
5.014013e+002, 2.987438e-001
5.033298e+002, 3.013421e-001
5.052583e+002, 3.039999e-001
5.071867e+002, 3.078630e-001
5.091152e+002, 3.110898e-001
5.110437e+002, 3.143556e-001
5.129721e+002, 3.178034e-001
5.149006e+002, 3.198488e-001
5.168290e+002, 3.223994e-001
5.187575e+002, 3.242800e-001
5.206860e+002, 3.264470e-001
5.226144e+002, 3.289779e-001
5.245429e+002, 3.316149e-001
5.264714e+002, 3.359713e-001
5.283998e+002, 3.398576e-001
5.303283e+002, 3.438596e-001
5.322568e+002, 3.475831e-001
5.341852e+002, 3.513705e-001
5.361137e+002, 3.562495e-001
5.380422e+002, 3.609670e-001
5.399706e+002, 3.632171e-001
5.418991e+002, 3.646595e-001
5.438276e+002, 3.639042e-001
5.457560e+002, 3.625681e-001
5.476845e+002, 3.626848e-001
5.496130e+002, 3.639097e-001
5.515414e+002, 3.670449e-001
5.534699e+002, 3.727143e-001
5.553984e+002, 3.774602e-001
5.573268e+002, 3.816722e-001
5.592553e+002, 3.858150e-001
5.611838e+002, 3.887624e-001
5.631122e+002, 3.892139e-001
5.650407e+002, 3.885706e-001
5.669692e+002, 3.885857e-001
5.688976e+002, 3.894604e-001
5.708261e+002, 3.911430e-001
5.727546e+002, 3.929956e-001
5.746830e+002, 3.956346e-001
5.766115e+002, 4.001975e-001
5.785400e+002, 4.046574e-001
5.804684e+002, 4.070380e-001
5.823969e+002, 4.095521e-001
5.843254e+002, 4.134775e-001
5.862538e+002, 4.155427e-001
5.881823e+002, 4.176908e-001
5.901108e+002, 4.226031e-001
5.920392e+002, 4.268624e-001
5.939677e+002, 4.289542e-001
5.958962e+002, 4.312095e-001
5.978246e+002, 4.339076e-001
5.997531e+002, 4.364944e-001
6.016816e+002, 4.391549e-001
6.036100e+002, 4.430858e-001
6.055385e+002, 4.464199e-001
6.074670e+002, 4.500257e-001
6.093954e+002, 4.533224e-001
6.113239e+002, 4.565225e-001
6.132524e+002, 4.601783e-001
6.151808e+002, 4.639880e-001
6.171093e+002, 4.676517e-001
6.190378e+002, 4.708041e-001
6.209662e+002, 4.751204e-001
6.228947e+002, 4.788454e-001
6.248232e+002, 4.820859e-001
6.267516e+002, 4.851649e-001
6.286801e+002, 4.888214e-001
6.306086e+002, 4.932998e-001
6.325370e+002, 4.972399e-001
6.344655e+002, 5.011640e-001
6.363940e+002, 5.059366e-001
6.383224e+002, 5.103632e-001
6.402509e+002, 5.134440e-001
6.421794e+002, 5.167312e-001
6.441078e+002, 5.195410e-001
6.460363e+002, 5.218185e-001
6.479648e+002, 5.250119e-001
6.498932e+002, 5.294901e-001
6.518217e+002, 5.342020e-001
6.537502e+002, 5.373406e-001
6.556786e+002, 5.400451e-001
6.576071e+002, 5.424296e-001
6.595356e+002, 5.453900e-001
6.614641e+002, 5.499417e-001
6.633925e+002, 5.522727e-001
6.653210e+002, 5.544130e-001
6.672495e+002, 5.585570e-001
6.691779e+002, 5.618783e-001
6.711064e+002, 5.648288e-001
6.730349e+002, 5.664212e-001
6.749633e+002, 5.669385e-001
6.768918e+002, 5.689459e-001
6.788203e+002, 5.708543e-001
6.807487e+002, 5.732874e-001
6.826772e+002, 5.751763e-001
6.846057e+002, 5.769387e-001
6.865341e+002, 5.784899e-001
6.884626e+002, 5.805864e-001
6.903911e+002, 5.828210e-001
6.923195e+002, 5.840805e-001
6.942480e+002, 5.849940e-001
6.961765e+002, 5.863816e-001
6.981049e+002, 5.874100e-001
7.000334e+002, 5.877964e-001
7.019619e+002, 5.874605e-001
7.038903e+002, 5.853364e-001
7.058188e+002, 5.825957e-001
7.077473e+002, 5.801910e-001
7.096757e+002, 5.776427e-001
7.116042e+002, 5.730470e-001
7.135327e+002, 5.672341e-001
7.154611e+002, 5.607640e-001
7.173896e+002, 5.531737e-001
7.193181e+002, 5.443281e-001
7.212465e+002, 5.346975e-001
7.231750e+002, 5.243298e-001
7.251035e+002, 5.134083e-001
7.270319e+002, 5.022510e-001
7.289604e+002, 4.908622e-001
7.308889e+002, 4.784072e-001
7.328173e+002, 4.666618e-001
7.347458e+002, 4.550900e-001
7.366743e+002, 4.431524e-001
7.386027e+002, 4.311697e-001
7.405312e+002, 4.196314e-001
7.424597e+002, 4.081569e-001
7.443881e+002, 3.968671e-001
7.463166e+002, 3.861126e-001
7.482451e+002, 3.761460e-001
7.501735e+002, 3.668870e-001
7.521020e+002, 3.589286e-001
7.540305e+002, 3.521478e-001
7.559589e+002, 3.465905e-001
7.578874e+002, 3.419634e-001
7.598159e+002, 3.384125e-001
7.617443e+002, 3.361512e-001
7.636728e+002, 3.353518e-001
7.656013e+002, 3.363399e-001
7.675297e+002, 3.384982e-001
7.694582e+002, 3.414647e-001
7.713867e+002, 3.453397e-001
7.733151e+002, 3.502377e-001
7.752436e+002, 3.560058e-001
7.771721e+002, 3.625222e-001
7.791005e+002, 3.691698e-001
7.810290e+002, 3.755639e-001
7.829575e+002, 3.813814e-001
7.848859e+002, 3.864140e-001
7.868144e+002, 3.904272e-001
7.887429e+002, 3.929546e-001
7.906713e+002, 3.939612e-001
7.925998e+002, 3.926666e-001
7.945283e+002, 3.888031e-001
7.964567e+002, 3.821543e-001
7.983852e+002, 3.730686e-001
8.003137e+002, 3.615918e-001
8.022421e+002, 3.483540e-001
8.041706e+002, 3.338497e-001
8.060991e+002, 3.183394e-001
8.080275e+002, 3.028410e-001
8.099560e+002, 2.881837e-001
8.118845e+002, 2.753219e-001
8.138129e+002, 2.638479e-001
8.157414e+002, 2.539756e-001
8.176699e+002, 2.460822e-001
8.195983e+002, 2.398239e-001
8.215268e+002, 2.352214e-001
8.234553e+002, 2.316260e-001
8.253837e+002, 2.275854e-001
8.273122e+002, 2.224185e-001
8.292407e+002, 2.167401e-001
8.311691e+002, 2.100924e-001
8.330976e+002, 2.021791e-001
8.350261e+002, 1.935993e-001
8.369545e+002, 1.844957e-001
8.388830e+002, 1.751096e-001
8.408115e+002, 1.658357e-001
8.427399e+002, 1.567673e-001
8.446684e+002, 1.477655e-001
8.465969e+002, 1.387594e-001
8.485253e+002, 1.297540e-001
8.504538e+002, 1.211875e-001
8.523823e+002, 1.131336e-001
8.543107e+002, 1.052018e-001
8.562392e+002, 9.742901e-002
8.581677e+002, 8.983354e-002
8.600961e+002, 8.251977e-002
8.620246e+002, 7.580680e-002
8.639531e+002, 6.991546e-002
8.658815e+002, 6.484556e-002
8.678100e+002, 6.004883e-002
8.697385e+002, 5.593844e-002
8.716669e+002, 5.246184e-002
8.735954e+002, 4.918823e-002
8.755239e+002, 4.635892e-002
8.774523e+002, 4.370685e-002
8.793808e+002, 4.111429e-002
8.813093e+002, 3.854312e-002
8.832377e+002, 3.617204e-002
8.851662e+002, 3.417557e-002
8.870947e+002, 3.223265e-002
8.890231e+002, 3.044535e-002
8.909516e+002, 2.909712e-002
8.928801e+002, 2.793280e-002
8.948085e+002, 2.681270e-002
8.967370e+002, 2.573450e-002
8.986655e+002, 2.473300e-002
9.005939e+002, 2.382594e-002
9.025224e+002, 2.306332e-002
9.044509e+002, 2.239953e-002
9.063793e+002, 2.169727e-002
9.083078e+002, 2.104779e-002
9.102363e+002, 2.056337e-002
9.121647e+002, 2.026143e-002
9.140932e+002, 2.003213e-002
9.160217e+002, 2.004601e-002
9.179501e+002, 2.023036e-002
9.198786e+002, 2.035566e-002
9.218071e+002, 2.020542e-002
9.237355e+002, 2.012869e-002
9.256640e+002, 1.997817e-002
9.275925e+002, 1.985109e-002
9.295209e+002, 2.005510e-002
9.314494e+002, 2.051296e-002
9.333779e+002, 2.113514e-002
9.353063e+002, 2.172984e-002
9.372348e+002, 2.242783e-002
9.391633e+002, 2.365107e-002
9.410917e+002, 2.519638e-002
9.430202e+002, 2.723828e-002
9.449487e+002, 2.973981e-002
9.468771e+002, 3.259682e-002
9.488056e+002, 3.582606e-002
9.507341e+002, 3.907328e-002
9.526625e+002, 4.192170e-002
9.545910e+002, 4.388244e-002
9.565195e+002, 4.445204e-002
9.584479e+002, 4.374803e-002
9.603764e+002, 4.233317e-002
9.623049e+002, 4.072909e-002
9.642333e+002, 3.949004e-002
9.661618e+002, 3.852674e-002
9.680903e+002, 3.800734e-002
9.700187e+002, 3.794640e-002
9.719472e+002, 3.834359e-002
9.738757e+002, 3.903293e-002
9.758041e+002, 3.945778e-002
9.777326e+002, 3.985910e-002
9.796611e+002, 4.012855e-002
9.815895e+002, 4.026388e-002
9.835180e+002, 4.015796e-002
9.854465e+002, 4.018358e-002
9.873749e+002, 4.057084e-002
9.893034e+002, 4.117521e-002
9.912319e+002, 4.226385e-002
9.931603e+002, 4.380275e-002
9.950888e+002, 4.551855e-002
9.970173e+002, 4.685530e-002
9.989457e+002, 4.757419e-002
1.000874e+003, 4.780214e-002
1.002803e+003, 4.703820e-002
1.004731e+003, 4.559854e-002
1.006660e+003, 4.412406e-002
1.008588e+003, 4.264271e-002
1.010517e+003, 4.126552e-002
1.012445e+003, 4.007145e-002
1.014373e+003, 3.887949e-002
1.016302e+003, 3.788066e-002
1.018230e+003, 3.718052e-002
1.020159e+003, 3.665084e-002
1.022087e+003, 3.611884e-002
1.024016e+003, 3.576113e-002
1.025944e+003, 3.563238e-002
1.027873e+003, 3.592465e-002
1.029801e+003, 3.627893e-002
1.031730e+003, 3.663539e-002
1.033658e+003, 3.687569e-002
1.035587e+003, 3.713868e-002
1.037515e+003, 3.759567e-002
1.039443e+003, 3.812915e-002
1.041372e+003, 3.840427e-002
1.043300e+003, 3.865425e-002
1.045229e+003, 3.902803e-002
1.047157e+003, 3.921326e-002
1.049086e+003, 3.951527e-002
1.051014e+003, 3.975911e-002
1.052943e+003, 3.980679e-002
1.054871e+003, 4.017283e-002
1.056800e+003, 4.059839e-002
1.058728e+003, 4.101552e-002
1.060657e+003, 4.156107e-002
1.062585e+003, 4.218828e-002
1.064514e+003, 4.269757e-002
1.066442e+003, 4.323893e-002
1.068370e+003, 4.383720e-002
1.070299e+003, 4.442401e-002
1.072227e+003, 4.510267e-002
1.074156e+003, 4.576397e-002
1.076084e+003, 4.642003e-002
1.078013e+003, 4.707009e-002
1.079941e+003, 4.765715e-002
1.081870e+003, 4.824027e-002
1.083798e+003, 4.898363e-002
1.085727e+003, 4.958784e-002
1.087655e+003, 5.009587e-002
1.089584e+003, 5.071700e-002
1.091512e+003, 5.102271e-002
1.093441e+003, 5.141940e-002
1.095369e+003, 5.220474e-002
1.097297e+003, 5.303300e-002
1.099226e+003, 5.368277e-002
1.101154e+003, 5.424021e-002
1.103083e+003, 5.474821e-002
1.105011e+003, 5.525095e-002
1.106940e+003, 5.569639e-002
1.108868e+003, 5.623183e-002
1.110797e+003, 5.681622e-002
1.112725e+003, 5.749926e-002
1.114654e+003, 5.807367e-002
1.116582e+003, 5.860873e-002
1.118511e+003, 5.900802e-002
1.120439e+003, 5.926463e-002
1.122368e+003, 5.955406e-002
1.124296e+003, 5.995106e-002
1.126224e+003, 6.054013e-002
1.128153e+003, 6.127384e-002
1.130081e+003, 6.185754e-002
1.132010e+003, 6.237592e-002
1.133938e+003, 6.300490e-002
1.135867e+003, 6.375726e-002
1.137795e+003, 6.437870e-002
1.139724e+003, 6.472977e-002
1.141652e+003, 6.513664e-002
1.143581e+003, 6.569891e-002
1.145509e+003, 6.614032e-002
1.147438e+003, 6.666312e-002
1.149366e+003, 6.720354e-002
1.151295e+003, 6.763151e-002
1.153223e+003, 6.820376e-002
1.155151e+003, 6.875212e-002
1.157080e+003, 6.909171e-002
1.159008e+003, 6.960876e-002
1.160937e+003, 7.026222e-002
1.162865e+003, 7.071553e-002
1.164794e+003, 7.114926e-002
1.166722e+003, 7.168608e-002
1.168651e+003, 7.216299e-002
1.170579e+003, 7.267381e-002
1.172508e+003, 7.323918e-002
1.174436e+003, 7.377203e-002
1.176365e+003, 7.426482e-002
1.178293e+003, 7.478689e-002
1.180222e+003, 7.532734e-002
1.182150e+003, 7.604662e-002
1.184078e+003, 7.669702e-002
1.186007e+003, 7.722348e-002
1.187935e+003, 7.787605e-002
1.189864e+003, 7.853166e-002
1.191792e+003, 7.913296e-002
1.193721e+003, 7.983617e-002
1.195649e+003, 8.039057e-002
1.197578e+003, 8.099537e-002
1.199506e+003, 8.152629e-002
1.201435e+003, 8.196115e-002
1.203363e+003, 8.251165e-002
1.205292e+003, 8.314462e-002
1.207220e+003, 8.372532e-002
1.209149e+003, 8.446286e-002
1.211077e+003, 8.506960e-002
1.213005e+003, 8.547907e-002
1.214934e+003, 8.606235e-002
1.216862e+003, 8.673062e-002
1.218791e+003, 8.737052e-002
1.220719e+003, 8.802620e-002
1.222648e+003, 8.867029e-002
1.224576e+003, 8.927891e-002
1.226505e+003, 8.991041e-002
1.228433e+003, 9.067752e-002
1.230362e+003, 9.153382e-002
1.232290e+003, 9.222260e-002
1.234219e+003, 9.282572e-002
1.236147e+003, 9.345943e-002
1.238076e+003, 9.413470e-002
1.240004e+003, 9.476303e-002
1.241932e+003, 9.550986e-002
1.243861e+003, 9.625789e-002
1.245789e+003, 9.709209e-002
1.247718e+003, 9.789439e-002
1.249646e+003, 9.863655e-002
1.251575e+003, 9.949731e-002
1.253503e+003, 1.004179e-001
1.255432e+003, 1.012425e-001
1.257360e+003, 1.019102e-001
1.259289e+003, 1.026468e-001
1.261217e+003, 1.034726e-001
1.263146e+003, 1.043070e-001
1.265074e+003, 1.051620e-001
1.267003e+003, 1.062062e-001
1.268931e+003, 1.073081e-001
1.270859e+003, 1.083831e-001
1.272788e+003, 1.096702e-001
1.274716e+003, 1.108804e-001
1.276645e+003, 1.118875e-001
1.278573e+003, 1.126838e-001
1.280502e+003, 1.132833e-001
1.282430e+003, 1.138177e-001
1.284359e+003, 1.139854e-001
1.286287e+003, 1.141260e-001
1.288216e+003, 1.144696e-001
1.290144e+003, 1.148207e-001
1.292073e+003, 1.153813e-001
1.294001e+003, 1.160429e-001
1.295930e+003, 1.166238e-001
1.297858e+003, 1.172574e-001
1.299786e+003, 1.178484e-001
1.301715e+003, 1.186114e-001
1.303643e+003, 1.194735e-001
1.305572e+003, 1.202110e-001
1.307500e+003, 1.207137e-001
1.309429e+003, 1.214117e-001
1.311357e+003, 1.220610e-001
1.313286e+003, 1.225949e-001
1.315214e+003, 1.230692e-001
1.317143e+003, 1.235184e-001
1.319071e+003, 1.240672e-001
1.321000e+003, 1.246782e-001
1.322928e+003, 1.252242e-001
1.324857e+003, 1.256978e-001
1.326785e+003, 1.262484e-001
1.328714e+003, 1.266329e-001
1.330642e+003, 1.271931e-001
1.332570e+003, 1.280243e-001
1.334499e+003, 1.287100e-001
1.336427e+003, 1.293640e-001
1.338356e+003, 1.301271e-001
1.340284e+003, 1.308659e-001
1.342213e+003, 1.315262e-001
1.344141e+003, 1.322650e-001
1.346070e+003, 1.329932e-001
1.347998e+003, 1.336978e-001
1.349927e+003, 1.344354e-001
1.351855e+003, 1.353031e-001
1.353784e+003, 1.360863e-001
1.355712e+003, 1.368049e-001
1.357641e+003, 1.377364e-001
1.359569e+003, 1.385988e-001
1.361497e+003, 1.394199e-001
1.363426e+003, 1.404320e-001
1.365354e+003, 1.412979e-001
1.367283e+003, 1.421817e-001
1.369211e+003, 1.433415e-001
1.371140e+003, 1.443065e-001
1.373068e+003, 1.452814e-001
1.374997e+003, 1.463862e-001
1.376925e+003, 1.473977e-001
1.378854e+003, 1.483719e-001
1.380782e+003, 1.491189e-001
1.382711e+003, 1.498595e-001
1.384639e+003, 1.508307e-001
1.386568e+003, 1.518935e-001
1.388496e+003, 1.527345e-001
1.390424e+003, 1.535873e-001
1.392353e+003, 1.545797e-001
1.394281e+003, 1.553762e-001
1.396210e+003, 1.560417e-001
1.398138e+003, 1.569673e-001
1.400067e+003, 1.577696e-001
1.401995e+003, 1.583532e-001
1.403924e+003, 1.590073e-001
1.405852e+003, 1.598313e-001
1.407781e+003, 1.607775e-001
1.409709e+003, 1.616368e-001
1.411638e+003, 1.623073e-001
1.413566e+003, 1.629763e-001
1.415495e+003, 1.635344e-001
1.417423e+003, 1.643381e-001
1.419351e+003, 1.652893e-001
1.421280e+003, 1.660081e-001
1.423208e+003, 1.667063e-001
1.425137e+003, 1.674225e-001
1.427065e+003, 1.682456e-001
1.428994e+003, 1.690612e-001
1.430922e+003, 1.695735e-001
1.432851e+003, 1.700481e-001
1.434779e+003, 1.706561e-001
1.436708e+003, 1.713587e-001
1.438636e+003, 1.718645e-001
1.440565e+003, 1.721564e-001
1.442493e+003, 1.723885e-001
1.444422e+003, 1.727347e-001
1.446350e+003, 1.731751e-001
1.448278e+003, 1.737126e-001
1.450207e+003, 1.742133e-001
1.452135e+003, 1.745512e-001
1.454064e+003, 1.748000e-001
1.455992e+003, 1.752354e-001
1.457921e+003, 1.753396e-001
1.459849e+003, 1.752306e-001
1.461778e+003, 1.754071e-001
1.463706e+003, 1.755800e-001
1.465635e+003, 1.754627e-001
1.467563e+003, 1.750665e-001
1.469492e+003, 1.750662e-001
1.471420e+003, 1.752664e-001
1.473349e+003, 1.753310e-001
1.475277e+003, 1.753475e-001
1.477205e+003, 1.753628e-001
1.479134e+003, 1.753664e-001
1.481062e+003, 1.754586e-001
1.482991e+003, 1.756285e-001
1.484919e+003, 1.759855e-001
1.486848e+003, 1.764542e-001
1.488776e+003, 1.767511e-001
1.490705e+003, 1.769778e-001
1.492633e+003, 1.772490e-001
1.494562e+003, 1.777753e-001
1.496490e+003, 1.782955e-001
1.498419e+003, 1.785612e-001
1.500347e+003, 1.788732e-001
1.502276e+003, 1.793613e-001
1.504204e+003, 1.801072e-001
1.506132e+003, 1.809688e-001
1.508061e+003, 1.812478e-001
1.509989e+003, 1.812208e-001
1.511918e+003, 1.815379e-001
1.513846e+003, 1.820693e-001
1.515775e+003, 1.826258e-001
1.517703e+003, 1.830212e-001
1.519632e+003, 1.835803e-001
1.521560e+003, 1.841379e-001
1.523489e+003, 1.844454e-001
1.525417e+003, 1.848367e-001
1.527346e+003, 1.850587e-001
1.529274e+003, 1.850955e-001
1.531203e+003, 1.852771e-001
1.533131e+003, 1.857031e-001
1.535059e+003, 1.858500e-001
1.536988e+003, 1.859689e-001
1.538916e+003, 1.866395e-001
1.540845e+003, 1.869265e-001
1.542773e+003, 1.867416e-001
1.544702e+003, 1.867725e-001
1.546630e+003, 1.868179e-001
1.548559e+003, 1.869704e-001
1.550487e+003, 1.871445e-001
1.552416e+003, 1.871950e-001
1.554344e+003, 1.874070e-001
1.556273e+003, 1.876128e-001
1.558201e+003, 1.879925e-001
1.560130e+003, 1.880619e-001
1.562058e+003, 1.877899e-001
1.563986e+003, 1.879391e-001
1.565915e+003, 1.881379e-001
1.567843e+003, 1.884398e-001
1.569772e+003, 1.887553e-001
1.571700e+003, 1.888260e-001
1.573629e+003, 1.891187e-001
1.575557e+003, 1.895356e-001
1.577486e+003, 1.897335e-001
1.579414e+003, 1.899182e-001
1.581343e+003, 1.902514e-001
1.583271e+003, 1.906914e-001
1.585200e+003, 1.908046e-001
1.587128e+003, 1.907544e-001
1.589057e+003, 1.908843e-001
1.590985e+003, 1.910833e-001
1.592913e+003, 1.911013e-001
1.594842e+003, 1.912017e-001
1.596770e+003, 1.913997e-001
1.598699e+003, 1.917742e-001
1.600627e+003, 1.919403e-001
1.602556e+003, 1.919715e-001
1.604484e+003, 1.921690e-001
1.606413e+003, 1.924500e-001
1.608341e+003, 1.928954e-001
1.610270e+003, 1.934101e-001
1.612198e+003, 1.936098e-001
1.614127e+003, 1.939213e-001
1.616055e+003, 1.946503e-001
1.617984e+003, 1.948551e-001
1.619912e+003, 1.949071e-001
1.621840e+003, 1.953282e-001
1.623769e+003, 1.957244e-001
1.625697e+003, 1.961468e-001
1.627626e+003, 1.965140e-001
1.629554e+003, 1.967393e-001
1.631483e+003, 1.970137e-001
1.633411e+003, 1.975930e-001
1.635340e+003, 1.982777e-001
1.637268e+003, 1.983833e-001
1.639197e+003, 1.984565e-001
1.641125e+003, 1.987751e-001
1.643054e+003, 1.993369e-001
1.644982e+003, 2.000850e-001
1.646911e+003, 2.001376e-001
1.648839e+003, 2.002298e-001
1.650767e+003, 2.008849e-001
1.652696e+003, 2.017003e-001
1.654624e+003, 2.016544e-001
1.656553e+003, 2.014519e-001
1.658481e+003, 2.013727e-001
1.660410e+003, 2.013518e-001
1.662338e+003, 2.016922e-001
1.664267e+003, 2.021789e-001
1.666195e+003, 2.024498e-001
1.668124e+003, 2.026804e-001
1.670052e+003, 2.028275e-001
1.671981e+003, 2.030606e-001
1.673909e+003, 2.035049e-001
1.675838e+003, 2.039401e-001
1.677766e+003, 2.041135e-001
1.679694e+003, 2.042164e-001
1.681623e+003, 2.042387e-001
1.683551e+003, 2.049228e-001
1.685480e+003, 2.052193e-001
1.687408e+003, 2.052512e-001
1.689337e+003, 2.053448e-001
1.691265e+003, 2.056054e-001
1.693194e+003, 2.061421e-001
1.695122e+003, 2.070292e-001
1.697051e+003, 2.074268e-001
1.698979e+003, 2.077849e-001
1.700908e+003, 2.080544e-001
1.702836e+003, 2.078211e-001
1.704765e+003, 2.081854e-001
1.706693e+003, 2.086263e-001
1.708621e+003, 2.088284e-001
1.710550e+003, 2.090420e-001
1.712478e+003, 2.094795e-001
1.714407e+003, 2.099708e-001
1.716335e+003, 2.105940e-001
1.718264e+003, 2.111790e-001
1.720192e+003, 2.117585e-001
1.722121e+003, 2.126419e-001
1.724049e+003, 2.134153e-001
1.725978e+003, 2.140319e-001
1.727906e+003, 2.145730e-001
1.729835e+003, 2.149148e-001
1.731763e+003, 2.153441e-001
1.733692e+003, 2.156248e-001
1.735620e+003, 2.153899e-001
1.737548e+003, 2.149948e-001
1.739477e+003, 2.149575e-001
1.741405e+003, 2.149667e-001
1.743334e+003, 2.148639e-001
1.745262e+003, 2.149724e-001
1.747191e+003, 2.154453e-001
1.749119e+003, 2.159013e-001
1.751048e+003, 2.160564e-001
1.752976e+003, 2.162019e-001
1.754905e+003, 2.166475e-001
1.756833e+003, 2.169134e-001
1.758762e+003, 2.171692e-001
1.760690e+003, 2.175466e-001
1.762619e+003, 2.177814e-001
1.764547e+003, 2.182226e-001
1.766475e+003, 2.188596e-001
1.768404e+003, 2.193655e-001
1.770332e+003, 2.197993e-001
1.772261e+003, 2.203023e-001
1.774189e+003, 2.205581e-001
1.776118e+003, 2.206751e-001
1.778046e+003, 2.208014e-001
1.779975e+003, 2.214758e-001
1.781903e+003, 2.219896e-001
1.783832e+003, 2.221244e-001
1.785760e+003, 2.223043e-001
1.787689e+003, 2.225383e-001
1.789617e+003, 2.232259e-001
1.791546e+003, 2.238486e-001
1.793474e+003, 2.241465e-001
1.795402e+003, 2.242838e-001
1.797331e+003, 2.245833e-001
1.799259e+003, 2.249860e-001
1.801188e+003, 2.254349e-001
1.803116e+003, 2.260779e-001
1.805045e+003, 2.260570e-001
1.806973e+003, 2.258967e-001
1.808902e+003, 2.262416e-001
1.810830e+003, 2.269743e-001
1.812759e+003, 2.275317e-001
1.814687e+003, 2.275162e-001
1.816616e+003, 2.279192e-001
1.818544e+003, 2.286206e-001
1.820473e+003, 2.291776e-001
1.822401e+003, 2.293901e-001
1.824329e+003, 2.298149e-001
1.826258e+003, 2.301193e-001
1.828186e+003, 2.302465e-001
1.830115e+003, 2.304853e-001
1.832043e+003, 2.307066e-001
1.833972e+003, 2.313360e-001
1.835900e+003, 2.317515e-001
1.837829e+003, 2.319609e-001
1.839757e+003, 2.321873e-001
1.841686e+003, 2.326113e-001
1.843614e+003, 2.330361e-001
1.845543e+003, 2.332850e-001
1.847471e+003, 2.339107e-001
1.849400e+003, 2.346241e-001
1.851328e+003, 2.347008e-001
1.853256e+003, 2.349807e-001
1.855185e+003, 2.354867e-001
1.857113e+003, 2.361047e-001
1.859042e+003, 2.365455e-001
1.860970e+003, 2.364703e-001
1.862899e+003, 2.365428e-001
1.864827e+003, 2.369692e-001
1.866756e+003, 2.376848e-001
1.868684e+003, 2.381727e-001
1.870613e+003, 2.379948e-001
1.872541e+003, 2.381626e-001
1.874470e+003, 2.384555e-001
1.876398e+003, 2.390788e-001
1.878327e+003, 2.397711e-001
1.880255e+003, 2.401902e-001
1.882183e+003, 2.400818e-001
1.884112e+003, 2.403072e-001
1.886040e+003, 2.406444e-001
1.887969e+003, 2.411708e-001
1.889897e+003, 2.410913e-001
1.891826e+003, 2.412145e-001
1.893754e+003, 2.412557e-001
1.895683e+003, 2.411266e-001
1.897611e+003, 2.415158e-001
1.899540e+003, 2.421031e-001
1.901468e+003, 2.429215e-001
1.903397e+003, 2.432987e-001
1.905325e+003, 2.438638e-001
1.907254e+003, 2.441866e-001
1.909182e+003, 2.443343e-001
1.911110e+003, 2.447123e-001
1.913039e+003, 2.446523e-001
1.914967e+003, 2.445912e-001
1.916896e+003, 2.447865e-001
1.918824e+003, 2.452783e-001
1.920753e+003, 2.457753e-001
1.922681e+003, 2.460170e-001
1.924610e+003, 2.464823e-001
1.926538e+003, 2.469044e-001
1.928467e+003, 2.470599e-001
1.930395e+003, 2.473339e-001
1.932324e+003, 2.475523e-001
1.934252e+003, 2.480145e-001
1.936181e+003, 2.483498e-001
1.938109e+003, 2.483827e-001
1.940037e+003, 2.480382e-001
1.941966e+003, 2.481121e-001
1.943894e+003, 2.492040e-001
1.945823e+003, 2.492746e-001
1.947751e+003, 2.483626e-001
1.949680e+003, 2.475544e-001
1.951608e+003, 2.474510e-001
1.953537e+003, 2.488236e-001
1.955465e+003, 2.504747e-001
1.957394e+003, 2.516554e-001
1.959322e+003, 2.513525e-001
1.961251e+003, 2.509290e-001
1.963179e+003, 2.515979e-001
1.965108e+003, 2.507909e-001
1.967036e+003, 2.509125e-001
1.968964e+003, 2.517377e-001
1.970893e+003, 2.519038e-001
1.972821e+003, 2.516902e-001
1.974750e+003, 2.517086e-001
1.976678e+003, 2.526419e-001
1.978607e+003, 2.537758e-001
1.980535e+003, 2.544601e-001
1.982464e+003, 2.550105e-001
1.984392e+003, 2.564385e-001
1.986321e+003, 2.561250e-001
1.988249e+003, 2.550571e-001
1.990178e+003, 2.549610e-001
1.992106e+003, 2.555766e-001
1.994035e+003, 2.571563e-001
1.995963e+003, 2.576266e-001
1.997891e+003, 2.573960e-001
1.999820e+003, 2.563090e-001
2.001748e+003, 2.559324e-001
2.003677e+003, 2.571191e-001
2.005605e+003, 2.576030e-001
2.007534e+003, 2.571270e-001
2.009462e+003, 2.565664e-001
2.011391e+003, 2.563779e-001
2.013319e+003, 2.574937e-001
2.015248e+003, 2.575313e-001
2.017176e+003, 2.568875e-001
2.019105e+003, 2.572917e-001
2.021033e+003, 2.580675e-001
2.022962e+003, 2.583890e-001
2.024890e+003, 2.585176e-001
2.026818e+003, 2.597069e-001
2.028747e+003, 2.605323e-001
2.030675e+003, 2.597678e-001
2.032604e+003, 2.601409e-001
2.034532e+003, 2.611969e-001
2.036461e+003, 2.617650e-001
2.038389e+003, 2.623354e-001
2.040318e+003, 2.629062e-001
2.042246e+003, 2.625264e-001
2.044175e+003, 2.630484e-001
2.046103e+003, 2.645269e-001
2.048031e+003, 2.664405e-001
2.049960e+003, 2.669576e-001
2.051888e+003, 2.652917e-001
2.053817e+003, 2.651741e-001
2.055745e+003, 2.660927e-001
2.057674e+003, 2.662460e-001
2.059602e+003, 2.661921e-001
2.061531e+003, 2.673479e-001
2.063459e+003, 2.685165e-001
2.065388e+003, 2.685142e-001
2.067316e+003, 2.677765e-001
2.069245e+003, 2.678554e-001
2.071173e+003, 2.689346e-001
2.073102e+003, 2.691404e-001
2.075030e+003, 2.702078e-001
2.076958e+003, 2.711630e-001
2.078887e+003, 2.711009e-001
2.080815e+003, 2.714732e-001
2.082744e+003, 2.711152e-001
2.084672e+003, 2.708147e-001
2.086601e+003, 2.717324e-001
2.088529e+003, 2.722491e-001
2.090458e+003, 2.722992e-001
2.092386e+003, 2.721904e-001
2.094315e+003, 2.716206e-001
2.096243e+003, 2.713138e-001
2.098172e+003, 2.715409e-001
2.100100e+003, 2.728006e-001
2.102029e+003, 2.746283e-001
2.103957e+003, 2.756138e-001
2.105885e+003, 2.753304e-001
2.107814e+003, 2.751995e-001
2.109742e+003, 2.752625e-001
2.111671e+003, 2.750539e-001
2.113599e+003, 2.750095e-001
2.115528e+003, 2.757312e-001
2.117456e+003, 2.761144e-001
2.119385e+003, 2.760413e-001
2.121313e+003, 2.766604e-001
2.123242e+003, 2.765364e-001
2.125170e+003, 2.755317e-001
2.127099e+003, 2.753871e-001
2.129027e+003, 2.753430e-001
2.130956e+003, 2.749912e-001
2.132884e+003, 2.753404e-001
2.134813e+003, 2.770109e-001
2.136741e+003, 2.780083e-001
2.138669e+003, 2.776710e-001
2.140598e+003, 2.772232e-001
2.142526e+003, 2.768585e-001
2.144455e+003, 2.765951e-001
2.146383e+003, 2.761655e-001
2.148312e+003, 2.756746e-001
2.150240e+003, 2.755703e-001
2.152169e+003, 2.755648e-001
2.154097e+003, 2.742759e-001
2.156026e+003, 2.716476e-001
2.157954e+003, 2.724381e-001
2.159883e+003, 2.780491e-001
2.161811e+003, 2.802728e-001
2.163740e+003, 2.802397e-001
2.165668e+003, 2.803871e-001
2.167596e+003, 2.802496e-001
2.169525e+003, 2.811908e-001
2.171453e+003, 2.813457e-001
2.173382e+003, 2.815326e-001
2.175310e+003, 2.824170e-001
2.177239e+003, 2.824818e-001
2.179167e+003, 2.819590e-001
2.181096e+003, 2.818586e-001
2.183024e+003, 2.815843e-001
2.184953e+003, 2.821085e-001
2.186881e+003, 2.833813e-001
2.188810e+003, 2.847491e-001
2.190738e+003, 2.846792e-001
2.192667e+003, 2.839698e-001
2.194595e+003, 2.845431e-001
2.196523e+003, 2.846470e-001
2.198452e+003, 2.846165e-001
2.200380e+003, 2.854620e-001
2.202309e+003, 2.869954e-001
2.204237e+003, 2.864878e-001
2.206166e+003, 2.857354e-001
2.208094e+003, 2.855402e-001
2.210023e+003, 2.860928e-001
2.211951e+003, 2.868777e-001
2.213880e+003, 2.874653e-001
2.215808e+003, 2.875122e-001
2.217737e+003, 2.875725e-001
2.219665e+003, 2.878375e-001
2.221594e+003, 2.890842e-001
2.223522e+003, 2.896137e-001
2.225450e+003, 2.891060e-001
2.227379e+003, 2.890222e-001
2.229307e+003, 2.892376e-001
2.231236e+003, 2.904366e-001
2.233164e+003, 2.916926e-001
2.235093e+003, 2.924548e-001
2.237021e+003, 2.923335e-001
2.238950e+003, 2.917841e-001
2.240878e+003, 2.923725e-001
2.242807e+003, 2.933383e-001
2.244735e+003, 2.941027e-001
2.246664e+003, 2.939295e-001
2.248592e+003, 2.934923e-001
2.250521e+003, 2.935064e-001
2.252449e+003, 2.934636e-001
2.254377e+003, 2.940031e-001
2.256306e+003, 2.943961e-001
2.258234e+003, 2.947395e-001
2.260163e+003, 2.955861e-001
2.262091e+003, 2.960646e-001
2.264020e+003, 2.949117e-001
2.265948e+003, 2.954338e-001
2.267877e+003, 2.967901e-001
2.269805e+003, 2.973167e-001
2.271734e+003, 2.976873e-001
2.273662e+003, 2.977176e-001
2.275591e+003, 2.974232e-001
2.277519e+003, 2.974491e-001
2.279448e+003, 2.977583e-001
2.281376e+003, 2.982466e-001
2.283304e+003, 2.989230e-001
2.285233e+003, 2.993000e-001
2.287161e+003, 2.995242e-001
2.289090e+003, 2.999164e-001
2.291018e+003, 3.002888e-001
2.292947e+003, 3.000887e-001
2.294875e+003, 2.998077e-001
2.296804e+003, 3.000106e-001
2.298732e+003, 3.003066e-001
2.300661e+003, 3.005583e-001
2.302589e+003, 3.008322e-001
2.304518e+003, 3.010142e-001
2.306446e+003, 3.007077e-001
2.308375e+003, 3.009378e-001
2.310303e+003, 3.016048e-001
2.312231e+003, 3.016847e-001
2.314160e+003, 3.016252e-001
2.316088e+003, 3.020750e-001
2.318017e+003, 3.028556e-001
2.319945e+003, 3.034219e-001
2.321874e+003, 3.038685e-001
2.323802e+003, 3.048414e-001
2.325731e+003, 3.045000e-001
2.327659e+003, 3.035312e-001
2.329588e+003, 3.033462e-001
2.331516e+003, 3.040316e-001
2.333445e+003, 3.046094e-001
2.335373e+003, 3.047214e-001
2.337302e+003, 3.049542e-001
2.339230e+003, 3.050570e-001
2.341158e+003, 3.056806e-001
2.343087e+003, 3.059388e-001
2.345015e+003, 3.058210e-001
2.346944e+003, 3.057218e-001
2.348872e+003, 3.055666e-001
2.350801e+003, 3.058912e-001
2.352729e+003, 3.065324e-001
2.354658e+003, 3.068852e-001
2.356586e+003, 3.070359e-001
2.358515e+003, 3.074820e-001
2.360443e+003, 3.079878e-001
2.362372e+003, 3.080901e-001
2.364300e+003, 3.079788e-001
2.366229e+003, 3.082390e-001
2.368157e+003, 3.083940e-001
2.370085e+003, 3.083865e-001
2.372014e+003, 3.086322e-001
2.373942e+003, 3.085911e-001
2.375871e+003, 3.088443e-001
2.377799e+003, 3.092268e-001
2.379728e+003, 3.090556e-001
2.381656e+003, 3.087780e-001
2.383585e+003, 3.094225e-001
2.385513e+003, 3.100659e-001
2.387442e+003, 3.098691e-001
2.389370e+003, 3.100388e-001
2.391299e+003, 3.100383e-001
2.393227e+003, 3.101475e-001
2.395156e+003, 3.107364e-001
2.397084e+003, 3.113832e-001
2.399012e+003, 3.116650e-001
2.400941e+003, 3.113620e-001
2.402869e+003, 3.116184e-001
2.404798e+003, 3.117328e-001
2.406726e+003, 3.121908e-001
2.408655e+003, 3.129908e-001
2.410583e+003, 3.133321e-001
2.412512e+003, 3.134425e-001
2.414440e+003, 3.130381e-001
2.416369e+003, 3.130919e-001
2.418297e+003, 3.138007e-001
2.420226e+003, 3.138430e-001
2.422154e+003, 3.139352e-001
2.424083e+003, 3.144227e-001
2.426011e+003, 3.148130e-001
2.427939e+003, 3.154726e-001
2.429868e+003, 3.152721e-001
2.431796e+003, 3.148295e-001
2.433725e+003, 3.153389e-001
2.435653e+003, 3.163156e-001
2.437582e+003, 3.171169e-001
2.439510e+003, 3.168667e-001
2.441439e+003, 3.165334e-001
2.443367e+003, 3.166683e-001
2.445296e+003, 3.165614e-001
2.447224e+003, 3.169359e-001
2.449153e+003, 3.174609e-001
2.451081e+003, 3.175002e-001
2.453010e+003, 3.178384e-001
2.454938e+003, 3.186302e-001
2.456866e+003, 3.188421e-001
2.458795e+003, 3.182765e-001
2.460723e+003, 3.185428e-001
2.462652e+003, 3.191479e-001
2.464580e+003, 3.194489e-001
2.466509e+003, 3.201084e-001
2.468437e+003, 3.205052e-001
2.470366e+003, 3.199714e-001
2.472294e+003, 3.198086e-001
2.474223e+003, 3.202575e-001
2.476151e+003, 3.203748e-001
2.478080e+003, 3.205206e-001
2.480008e+003, 3.210258e-001
2.481937e+003, 3.220068e-001
2.483865e+003, 3.222460e-001
2.485793e+003, 3.222155e-001
2.487722e+003, 3.221751e-001
2.489650e+003, 3.220576e-001
2.491579e+003, 3.220913e-001
2.493507e+003, 3.218275e-001
2.495436e+003, 3.218011e-001
2.497364e+003, 3.222577e-001
2.499293e+003, 3.230689e-001
2.501221e+003, 3.236527e-001
2.503150e+003, 3.236096e-001
2.505078e+003, 3.243777e-001
2.507007e+003, 3.246685e-001
2.508935e+003, 3.243131e-001
2.510864e+003, 3.245898e-001
2.512792e+003, 3.249343e-001
2.514720e+003, 3.250133e-001
2.516649e+003, 3.252807e-001
2.518577e+003, 3.257482e-001
2.520506e+003, 3.253213e-001
2.522434e+003, 3.248782e-001
2.524363e+003, 3.254384e-001
2.526291e+003, 3.257864e-001
2.528220e+003, 3.261121e-001
2.530148e+003, 3.265528e-001
2.532077e+003, 3.270268e-001
2.534005e+003, 3.271843e-001
2.535934e+003, 3.270838e-001
2.537862e+003, 3.266784e-001
2.539791e+003, 3.276872e-001
2.541719e+003, 3.283881e-001
2.543647e+003, 3.276004e-001
2.545576e+003, 3.274873e-001
2.547504e+003, 3.280414e-001
2.549433e+003, 3.285284e-001
2.551361e+003, 3.288984e-001
2.553290e+003, 3.293937e-001
2.555218e+003, 3.299647e-001
2.557147e+003, 3.302429e-001
2.559075e+003, 3.305808e-001
2.561004e+003, 3.305856e-001
2.562932e+003, 3.306650e-001
2.564861e+003, 3.312413e-001
2.566789e+003, 3.313939e-001
2.568718e+003, 3.311730e-001
2.570646e+003, 3.309751e-001
2.572574e+003, 3.313761e-001
2.574503e+003, 3.321328e-001
2.576431e+003, 3.324681e-001
2.578360e+003, 3.323154e-001
2.580288e+003, 3.320394e-001
2.582217e+003, 3.317670e-001
2.584145e+003, 3.316298e-001
2.586074e+003, 3.320628e-001
2.588002e+003, 3.329728e-001
2.589931e+003, 3.334069e-001
2.591859e+003, 3.335659e-001
2.593788e+003, 3.337007e-001
2.595716e+003, 3.339356e-001
2.597645e+003, 3.340396e-001
2.599573e+003, 3.342915e-001
2.601501e+003, 3.347372e-001
2.603430e+003, 3.349730e-001
2.605358e+003, 3.351516e-001
2.607287e+003, 3.347856e-001
2.609215e+003, 3.350182e-001
2.611144e+003, 3.353029e-001
2.613072e+003, 3.357272e-001
2.615001e+003, 3.365822e-001
2.616929e+003, 3.372944e-001
2.618858e+003, 3.370239e-001
2.620786e+003, 3.365799e-001
2.622715e+003, 3.368169e-001
2.624643e+003, 3.371225e-001
2.626572e+003, 3.374783e-001
2.628500e+003, 3.380311e-001
2.630428e+003, 3.386365e-001
2.632357e+003, 3.388779e-001
2.634285e+003, 3.386114e-001
2.636214e+003, 3.383394e-001
2.638142e+003, 3.384553e-001
2.640071e+003, 3.390260e-001
2.641999e+003, 3.395475e-001
2.643928e+003, 3.400723e-001
2.645856e+003, 3.398437e-001
2.647785e+003, 3.397244e-001
2.649713e+003, 3.403485e-001
2.651642e+003, 3.411578e-001
2.653570e+003, 3.414038e-001
2.655499e+003, 3.407978e-001
2.657427e+003, 3.402330e-001
2.659355e+003, 3.406443e-001
2.661284e+003, 3.413491e-001
2.663212e+003, 3.414850e-001
2.665141e+003, 3.415834e-001
2.667069e+003, 3.421517e-001
2.668998e+003, 3.421030e-001
2.670926e+003, 3.419605e-001
2.672855e+003, 3.419648e-001
2.674783e+003, 3.421464e-001
2.676712e+003, 3.428145e-001
2.678640e+003, 3.431060e-001
2.680569e+003, 3.430199e-001
2.682497e+003, 3.432857e-001
2.684426e+003, 3.433773e-001
2.686354e+003, 3.434283e-001
2.688282e+003, 3.436534e-001
2.690211e+003, 3.438755e-001
2.692139e+003, 3.444204e-001
2.694068e+003, 3.449846e-001
2.695996e+003, 3.451155e-001
2.697925e+003, 3.450916e-001
2.699853e+003, 3.452590e-001
2.701782e+003, 3.454180e-001
2.703710e+003, 3.457573e-001
2.705639e+003, 3.462791e-001
2.707567e+003, 3.463106e-001
2.709496e+003, 3.461784e-001
2.711424e+003, 3.464911e-001
2.713353e+003, 3.471361e-001
2.715281e+003, 3.471697e-001
2.717209e+003, 3.473840e-001
2.719138e+003, 3.479066e-001
2.721066e+003, 3.483900e-001
2.722995e+003, 3.485597e-001
2.724923e+003, 3.484596e-001
2.726852e+003, 3.483707e-001
2.728780e+003, 3.485194e-001
2.730709e+003, 3.487836e-001
2.732637e+003, 3.488773e-001
2.734566e+003, 3.494187e-001
2.736494e+003, 3.502055e-001
2.738423e+003, 3.500634e-001
2.740351e+003, 3.497773e-001
2.742280e+003, 3.498779e-001
2.744208e+003, 3.498221e-001
2.746136e+003, 3.502084e-001
2.748065e+003, 3.505512e-001
2.749993e+003, 3.510775e-001
2.751922e+003, 3.513352e-001
2.753850e+003, 3.513189e-001
2.755779e+003, 3.514175e-001
2.757707e+003, 3.516704e-001
2.759636e+003, 3.517639e-001
2.761564e+003, 3.520016e-001
2.763493e+003, 3.522231e-001
2.765421e+003, 3.523411e-001
2.767350e+003, 3.530282e-001
2.769278e+003, 3.534412e-001
2.771207e+003, 3.535453e-001
2.773135e+003, 3.536168e-001
2.775063e+003, 3.538303e-001
2.776992e+003, 3.541991e-001
2.778920e+003, 3.545958e-001
2.780849e+003, 3.543603e-001
2.782777e+003, 3.544682e-001
2.784706e+003, 3.546182e-001
2.786634e+003, 3.543908e-001
2.788563e+003, 3.541988e-001
2.790491e+003, 3.548256e-001
2.792420e+003, 3.556176e-001
2.794348e+003, 3.562388e-001
2.796277e+003, 3.561650e-001
2.798205e+003, 3.558439e-001
2.800134e+003, 3.560245e-001
2.802062e+003, 3.565089e-001
2.803990e+003, 3.567502e-001
2.805919e+003, 3.571628e-001
2.807847e+003, 3.573026e-001
2.809776e+003, 3.571773e-001
2.811704e+003, 3.576771e-001
2.813633e+003, 3.582909e-001
2.815561e+003, 3.587159e-001
2.817490e+003, 3.589481e-001
2.819418e+003, 3.585970e-001
2.821347e+003, 3.591350e-001
2.823275e+003, 3.597399e-001
2.825204e+003, 3.595945e-001
2.827132e+003, 3.597142e-001
2.829061e+003, 3.603901e-001
2.830989e+003, 3.609026e-001
2.832917e+003, 3.614390e-001
2.834846e+003, 3.616051e-001
2.836774e+003, 3.618487e-001
2.838703e+003, 3.623089e-001
2.840631e+003, 3.629404e-001
2.842560e+003, 3.639180e-001
2.844488e+003, 3.647341e-001
2.846417e+003, 3.646913e-001
2.848345e+003, 3.653927e-001
2.850274e+003, 3.660785e-001
2.852202e+003, 3.663435e-001
2.854131e+003, 3.661344e-001
2.856059e+003, 3.661515e-001
2.857988e+003, 3.662734e-001
2.859916e+003, 3.657493e-001
2.861844e+003, 3.655784e-001
2.863773e+003, 3.659641e-001
2.865701e+003, 3.660970e-001
2.867630e+003, 3.659302e-001
2.869558e+003, 3.661899e-001
2.871487e+003, 3.664119e-001
2.873415e+003, 3.666294e-001
2.875344e+003, 3.672027e-001
2.877272e+003, 3.674026e-001
2.879201e+003, 3.673589e-001
2.881129e+003, 3.675229e-001
2.883058e+003, 3.678385e-001
2.884986e+003, 3.673110e-001
2.886915e+003, 3.674940e-001
2.888843e+003, 3.688488e-001
2.890771e+003, 3.694984e-001
2.892700e+003, 3.693586e-001
2.894628e+003, 3.697629e-001
2.896557e+003, 3.707039e-001
2.898485e+003, 3.709480e-001
2.900414e+003, 3.710963e-001
2.902342e+003, 3.717285e-001
2.904271e+003, 3.722310e-001
2.906199e+003, 3.722868e-001
2.908128e+003, 3.724546e-001
2.910056e+003, 3.736066e-001
2.911985e+003, 3.746183e-001
2.913913e+003, 3.752026e-001
2.915842e+003, 3.756656e-001
2.917770e+003, 3.761274e-001
2.919698e+003, 3.764994e-001
2.921627e+003, 3.766398e-001
2.923555e+003, 3.768002e-001
2.925484e+003, 3.766763e-001
2.927412e+003, 3.761297e-001
2.929341e+003, 3.751682e-001
2.931269e+003, 3.748369e-001
2.933198e+003, 3.745673e-001
2.935126e+003, 3.743227e-001
2.937055e+003, 3.739818e-001
2.938983e+003, 3.735656e-001
2.940912e+003, 3.730750e-001
2.942840e+003, 3.730660e-001
2.944769e+003, 3.736180e-001
2.946697e+003, 3.735250e-001
2.948625e+003, 3.740909e-001
2.950554e+003, 3.745447e-001
2.952482e+003, 3.744540e-001
2.954411e+003, 3.743345e-001
2.956339e+003, 3.748798e-001
2.958268e+003, 3.749148e-001
2.960196e+003, 3.745690e-001
2.962125e+003, 3.744311e-001
2.964053e+003, 3.740113e-001
2.965982e+003, 3.732111e-001
2.967910e+003, 3.728057e-001
2.969839e+003, 3.724627e-001
2.971767e+003, 3.717852e-001
2.973696e+003, 3.718596e-001
2.975624e+003, 3.718503e-001
2.977552e+003, 3.714382e-001
2.979481e+003, 3.715463e-001
2.981409e+003, 3.719237e-001
2.983338e+003, 3.722011e-001
2.985266e+003, 3.726436e-001
2.987195e+003, 3.729101e-001
2.989123e+003, 3.725797e-001
2.991052e+003, 3.723630e-001
2.992980e+003, 3.724901e-001
2.994909e+003, 3.731138e-001
2.996837e+003, 3.732237e-001
2.998766e+003, 3.731090e-001
3.000694e+003, 3.732709e-001
3.002623e+003, 3.735978e-001
3.004551e+003, 3.739462e-001
3.006479e+003, 3.744686e-001
3.008408e+003, 3.748485e-001
3.010336e+003, 3.746785e-001
3.012265e+003, 3.747950e-001
3.014193e+003, 3.749833e-001
3.016122e+003, 3.753192e-001
3.018050e+003, 3.758509e-001
3.019979e+003, 3.761249e-001
3.021907e+003, 3.759078e-001
3.023836e+003, 3.758568e-001
3.025764e+003, 3.763904e-001
3.027693e+003, 3.767495e-001
3.029621e+003, 3.768878e-001
3.031550e+003, 3.768554e-001
3.033478e+003, 3.769834e-001
3.035406e+003, 3.770794e-001
3.037335e+003, 3.768321e-001
3.039263e+003, 3.775788e-001
3.041192e+003, 3.780236e-001
3.043120e+003, 3.781019e-001
3.045049e+003, 3.783526e-001
3.046977e+003, 3.786293e-001
3.048906e+003, 3.785307e-001
3.050834e+003, 3.784599e-001
3.052763e+003, 3.786828e-001
3.054691e+003, 3.789950e-001
3.056620e+003, 3.799936e-001
3.058548e+003, 3.798536e-001
3.060477e+003, 3.792814e-001
3.062405e+003, 3.799222e-001
3.064333e+003, 3.803617e-001
3.066262e+003, 3.806646e-001
3.068190e+003, 3.802544e-001
3.070119e+003, 3.807154e-001
3.072047e+003, 3.811225e-001
3.073976e+003, 3.808677e-001
3.075904e+003, 3.810951e-001
3.077833e+003, 3.815225e-001
3.079761e+003, 3.820975e-001
3.081690e+003, 3.822550e-001
3.083618e+003, 3.822692e-001
3.085547e+003, 3.826433e-001
3.087475e+003, 3.825040e-001
3.089404e+003, 3.826691e-001
3.091332e+003, 3.828711e-001
3.093260e+003, 3.834569e-001
3.095189e+003, 3.842636e-001
3.097117e+003, 3.846620e-001
3.099046e+003, 3.844694e-001
3.100974e+003, 3.848232e-001
3.102903e+003, 3.848477e-001
3.104831e+003, 3.844874e-001
3.106760e+003, 3.847197e-001
3.108688e+003, 3.854130e-001
3.110617e+003, 3.854781e-001
3.112545e+003, 3.853750e-001
3.114474e+003, 3.858338e-001
3.116402e+003, 3.864788e-001
3.118331e+003, 3.875804e-001
3.120259e+003, 3.874181e-001
3.122188e+003, 3.869109e-001
3.124116e+003, 3.867234e-001
3.126044e+003, 3.861252e-001
3.127973e+003, 3.857491e-001
3.129901e+003, 3.860825e-001
3.131830e+003, 3.864489e-001
3.133758e+003, 3.876009e-001
3.135687e+003, 3.884683e-001
3.137615e+003, 3.880501e-001
3.139544e+003, 3.878027e-001
3.141472e+003, 3.883089e-001
3.143401e+003, 3.885706e-001
3.145329e+003, 3.881949e-001
3.147258e+003, 3.885360e-001
3.149186e+003, 3.889692e-001
3.151115e+003, 3.898084e-001
3.153043e+003, 3.903828e-001
3.154971e+003, 3.902237e-001
3.156900e+003, 3.903781e-001
3.158828e+003, 3.905907e-001
3.160757e+003, 3.905835e-001
3.162685e+003, 3.908499e-001
3.164614e+003, 3.906601e-001
3.166542e+003, 3.908885e-001
3.168471e+003, 3.913635e-001
3.170399e+003, 3.919957e-001
3.172328e+003, 3.920841e-001
3.174256e+003, 3.917560e-001
3.176185e+003, 3.922337e-001
3.178113e+003, 3.933501e-001
3.180042e+003, 3.932216e-001
3.181970e+003, 3.924452e-001
3.183898e+003, 3.919030e-001
3.185827e+003, 3.925796e-001
3.187755e+003, 3.936983e-001
3.189684e+003, 3.939684e-001
3.191612e+003, 3.940578e-001
3.193541e+003, 3.941000e-001
3.195469e+003, 3.941096e-001
3.197398e+003, 3.945069e-001
3.199326e+003, 3.947195e-001
3.201255e+003, 3.945622e-001
3.203183e+003, 3.945081e-001
3.205112e+003, 3.951552e-001
3.207040e+003, 3.954446e-001
3.208969e+003, 3.954611e-001
3.210897e+003, 3.953012e-001
3.212825e+003, 3.949372e-001
3.214754e+003, 3.951160e-001
3.216682e+003, 3.956062e-001
3.218611e+003, 3.957914e-001
3.220539e+003, 3.964758e-001
3.222468e+003, 3.970779e-001
3.224396e+003, 3.967361e-001
3.226325e+003, 3.967535e-001
3.228253e+003, 3.973962e-001
3.230182e+003, 3.979022e-001
3.232110e+003, 3.979686e-001
3.234039e+003, 3.992513e-001
3.235967e+003, 3.997631e-001
3.237896e+003, 3.992302e-001
3.239824e+003, 3.994453e-001
3.241752e+003, 3.996548e-001
3.243681e+003, 3.987124e-001
3.245609e+003, 3.980485e-001
3.247538e+003, 3.985463e-001
3.249466e+003, 3.990684e-001
3.251395e+003, 3.989692e-001
3.253323e+003, 3.990283e-001
3.255252e+003, 3.995282e-001
3.257180e+003, 4.005338e-001
3.259109e+003, 4.015325e-001
3.261037e+003, 4.019654e-001
3.262966e+003, 4.012966e-001
3.264894e+003, 4.009876e-001
3.266823e+003, 4.021011e-001
3.268751e+003, 4.029421e-001
3.270679e+003, 4.017154e-001
3.272608e+003, 4.019868e-001
3.274536e+003, 4.022447e-001
3.276465e+003, 4.024626e-001
3.278393e+003, 4.031477e-001
3.280322e+003, 4.033205e-001
3.282250e+003, 4.033547e-001
3.284179e+003, 4.037112e-001
3.286107e+003, 4.036288e-001
3.288036e+003, 4.035390e-001
3.289964e+003, 4.035707e-001
3.291893e+003, 4.046490e-001
3.293821e+003, 4.047362e-001
3.295750e+003, 4.048826e-001
3.297678e+003, 4.054650e-001
3.299606e+003, 4.054567e-001
3.301535e+003, 4.057078e-001
3.303463e+003, 4.049495e-001
3.305392e+003, 4.054691e-001
3.307320e+003, 4.067280e-001
3.309249e+003, 4.069023e-001
3.311177e+003, 4.066167e-001
3.313106e+003, 4.070663e-001
3.315034e+003, 4.082016e-001
3.316963e+003, 4.083452e-001
3.318891e+003, 4.073961e-001
3.320820e+003, 4.077097e-001
3.322748e+003, 4.077446e-001
3.324677e+003, 4.077269e-001
3.326605e+003, 4.085934e-001
3.328533e+003, 4.088455e-001
3.330462e+003, 4.085620e-001
3.332390e+003, 4.081907e-001
3.334319e+003, 4.087919e-001
3.336247e+003, 4.091705e-001
3.338176e+003, 4.094160e-001
3.340104e+003, 4.100064e-001
3.342033e+003, 4.101727e-001
3.343961e+003, 4.106836e-001
3.345890e+003, 4.107218e-001
3.347818e+003, 4.106832e-001
3.349747e+003, 4.103183e-001
3.351675e+003, 4.102875e-001
3.353604e+003, 4.107862e-001
3.355532e+003, 4.105597e-001
3.357460e+003, 4.106835e-001
3.359389e+003, 4.113036e-001
3.361317e+003, 4.112372e-001
3.363246e+003, 4.119351e-001
3.365174e+003, 4.127031e-001
3.367103e+003, 4.126139e-001
3.369031e+003, 4.115051e-001
3.370960e+003, 4.116297e-001
3.372888e+003, 4.123648e-001
3.374817e+003, 4.126557e-001
3.376745e+003, 4.127149e-001
3.378674e+003, 4.131684e-001
3.380602e+003, 4.132162e-001
3.382531e+003, 4.132156e-001
3.384459e+003, 4.133515e-001
3.386387e+003, 4.132602e-001
3.388316e+003, 4.131905e-001
3.390244e+003, 4.125242e-001
3.392173e+003, 4.122570e-001
3.394101e+003, 4.132541e-001
3.396030e+003, 4.145791e-001
3.397958e+003, 4.147000e-001
3.399887e+003, 4.143358e-001
3.401815e+003, 4.148035e-001
3.403744e+003, 4.147072e-001
3.405672e+003, 4.151281e-001
3.407601e+003, 4.151849e-001
3.409529e+003, 4.147633e-001
3.411458e+003, 4.153699e-001
3.413386e+003, 4.155594e-001
3.415314e+003, 4.148022e-001
3.417243e+003, 4.155655e-001
3.419171e+003, 4.167651e-001
3.421100e+003, 4.163202e-001
3.423028e+003, 4.157526e-001
3.424957e+003, 4.158930e-001
3.426885e+003, 4.159677e-001
3.428814e+003, 4.161601e-001
3.430742e+003, 4.174649e-001
3.432671e+003, 4.175142e-001
3.434599e+003, 4.175057e-001
3.436528e+003, 4.174152e-001
3.438456e+003, 4.174835e-001
3.440385e+003, 4.179113e-001
3.442313e+003, 4.181598e-001
3.444241e+003, 4.184098e-001
3.446170e+003, 4.182687e-001
3.448098e+003, 4.178838e-001
3.450027e+003, 4.184806e-001
3.451955e+003, 4.190223e-001
3.453884e+003, 4.182729e-001
3.455812e+003, 4.179391e-001
3.457741e+003, 4.191959e-001
3.459669e+003, 4.205563e-001
3.461598e+003, 4.196464e-001
3.463526e+003, 4.185383e-001
3.465455e+003, 4.189886e-001
3.467383e+003, 4.206145e-001
3.469312e+003, 4.215891e-001
3.471240e+003, 4.209980e-001
3.473168e+003, 4.210747e-001
3.475097e+003, 4.210510e-001
3.477025e+003, 4.211275e-001
3.478954e+003, 4.210526e-001
3.480882e+003, 4.209920e-001
3.482811e+003, 4.218850e-001
3.484739e+003, 4.219435e-001
3.486668e+003, 4.220958e-001
3.488596e+003, 4.221891e-001
3.490525e+003, 4.222545e-001
3.492453e+003, 4.218389e-001
3.494382e+003, 4.210803e-001
3.496310e+003, 4.213761e-001
3.498239e+003, 4.218830e-001
3.500167e+003, 4.231107e-001
3.502095e+003, 4.236938e-001
3.504024e+003, 4.231319e-001
3.505952e+003, 4.231125e-001
3.507881e+003, 4.242283e-001
3.509809e+003, 4.241603e-001
3.511738e+003, 4.236793e-001
3.513666e+003, 4.236071e-001
3.515595e+003, 4.234017e-001
3.517523e+003, 4.240539e-001
3.519452e+003, 4.250588e-001
3.521380e+003, 4.249126e-001
3.523309e+003, 4.246112e-001
3.525237e+003, 4.248792e-001
3.527166e+003, 4.248543e-001
3.529094e+003, 4.239689e-001
3.531022e+003, 4.234871e-001
3.532951e+003, 4.230237e-001
3.534879e+003, 4.241270e-001
3.536808e+003, 4.260668e-001
3.538736e+003, 4.255326e-001
3.540665e+003, 4.247675e-001
3.542593e+003, 4.253606e-001
3.544522e+003, 4.258026e-001
3.546450e+003, 4.255855e-001
3.548379e+003, 4.253865e-001
3.550307e+003, 4.252023e-001
3.552236e+003, 4.254874e-001
3.554164e+003, 4.261380e-001
3.556093e+003, 4.266376e-001
3.558021e+003, 4.262703e-001
3.559949e+003, 4.260108e-001
3.561878e+003, 4.278642e-001
3.563806e+003, 4.282800e-001
3.565735e+003, 4.279053e-001
3.567663e+003, 4.284676e-001
3.569592e+003, 4.284582e-001
3.571520e+003, 4.280590e-001
3.573449e+003, 4.280341e-001
3.575377e+003, 4.280736e-001
3.577306e+003, 4.280857e-001
3.579234e+003, 4.276964e-001
3.581163e+003, 4.269018e-001
3.583091e+003, 4.281156e-001
3.585020e+003, 4.300572e-001
3.586948e+003, 4.295300e-001
3.588876e+003, 4.278487e-001
3.590805e+003, 4.276976e-001
3.592733e+003, 4.287939e-001
3.594662e+003, 4.297722e-001
3.596590e+003, 4.301700e-001
3.598519e+003, 4.301941e-001
3.600447e+003, 4.303819e-001
3.602376e+003, 4.306885e-001
3.604304e+003, 4.308162e-001
3.606233e+003, 4.298413e-001
3.608161e+003, 4.305858e-001
3.610090e+003, 4.320401e-001
3.612018e+003, 4.321917e-001
3.613947e+003, 4.328061e-001
3.615875e+003, 4.327234e-001
3.617803e+003, 4.331969e-001
3.619732e+003, 4.331440e-001
3.621660e+003, 4.329726e-001
3.623589e+003, 4.331101e-001
3.625517e+003, 4.320970e-001
3.627446e+003, 4.327752e-001
3.629374e+003, 4.336334e-001
3.631303e+003, 4.334070e-001
3.633231e+003, 4.337305e-001
3.635160e+003, 4.323956e-001
3.637088e+003, 4.317557e-001
3.639017e+003, 4.330645e-001
3.640945e+003, 4.329524e-001
3.642874e+003, 4.339183e-001
3.644802e+003, 4.352991e-001
3.646730e+003, 4.359991e-001
3.648659e+003, 4.368906e-001
3.650587e+003, 4.365344e-001
3.652516e+003, 4.350605e-001
3.654444e+003, 4.340710e-001
3.656373e+003, 4.344107e-001
3.658301e+003, 4.351854e-001
3.660230e+003, 4.357659e-001
3.662158e+003, 4.358225e-001
3.664087e+003, 4.357946e-001
3.666015e+003, 4.349836e-001
3.667944e+003, 4.345782e-001
3.669872e+003, 4.362547e-001
3.671801e+003, 4.377115e-001
3.673729e+003, 4.388272e-001
3.675657e+003, 4.393616e-001
3.677586e+003, 4.386747e-001
3.679514e+003, 4.373898e-001
3.681443e+003, 4.364328e-001
3.683371e+003, 4.367142e-001
3.685300e+003, 4.379684e-001
3.687228e+003, 4.387062e-001
3.689157e+003, 4.383760e-001
3.691085e+003, 4.388364e-001
3.693014e+003, 4.392497e-001
3.694942e+003, 4.389744e-001
3.696871e+003, 4.393203e-001
3.698799e+003, 4.397046e-001
3.700728e+003, 4.406276e-001
3.702656e+003, 4.401407e-001
3.704584e+003, 4.387770e-001
3.706513e+003, 4.392943e-001
3.708441e+003, 4.406961e-001
3.710370e+003, 4.413826e-001
3.712298e+003, 4.424837e-001
3.714227e+003, 4.438277e-001
3.716155e+003, 4.443628e-001
3.718084e+003, 4.429436e-001
3.720012e+003, 4.418679e-001
3.721941e+003, 4.411078e-001
3.723869e+003, 4.418190e-001
3.725798e+003, 4.437800e-001
3.727726e+003, 4.440205e-001
3.729655e+003, 4.426964e-001
3.731583e+003, 4.436048e-001
3.733511e+003, 4.438325e-001
3.735440e+003, 4.446509e-001
3.737368e+003, 4.456575e-001
3.739297e+003, 4.438883e-001
3.741225e+003, 4.432341e-001
3.743154e+003, 4.444939e-001
3.745082e+003, 4.442725e-001
3.747011e+003, 4.445096e-001
3.748939e+003, 4.453444e-001
3.750868e+003, 4.460675e-001
3.752796e+003, 4.456973e-001
3.754725e+003, 4.451858e-001
3.756653e+003, 4.461721e-001
3.758582e+003, 4.465950e-001
3.760510e+003, 4.464533e-001
3.762438e+003, 4.462844e-001
3.764367e+003, 4.472768e-001
3.766295e+003, 4.475750e-001
3.768224e+003, 4.470437e-001
3.770152e+003, 4.463572e-001
3.772081e+003, 4.472032e-001
3.774009e+003, 4.484302e-001
3.775938e+003, 4.481257e-001
3.777866e+003, 4.475189e-001
3.779795e+003, 4.472101e-001
3.781723e+003, 4.469808e-001
3.783652e+003, 4.476760e-001
3.785580e+003, 4.483144e-001
3.787509e+003, 4.483702e-001
3.789437e+003, 4.479862e-001
3.791365e+003, 4.481526e-001
3.793294e+003, 4.488747e-001
3.795222e+003, 4.485413e-001
3.797151e+003, 4.486632e-001
3.799079e+003, 4.495110e-001
3.801008e+003, 4.497810e-001
3.802936e+003, 4.492337e-001
3.804865e+003, 4.501629e-001
3.806793e+003, 4.508987e-001
3.808722e+003, 4.500738e-001
3.810650e+003, 4.494684e-001
3.812579e+003, 4.514145e-001
3.814507e+003, 4.527237e-001
3.816436e+003, 4.498926e-001
3.818364e+003, 4.485209e-001
3.820292e+003, 4.501932e-001
3.822221e+003, 4.513952e-001
3.824149e+003, 4.509419e-001
3.826078e+003, 4.518124e-001
3.828006e+003, 4.532379e-001
3.829935e+003, 4.524413e-001
3.831863e+003, 4.509005e-001
3.833792e+003, 4.506851e-001
3.835720e+003, 4.516413e-001
3.837649e+003, 4.531701e-001
3.839577e+003, 4.551018e-001
3.841506e+003, 4.561887e-001
3.843434e+003, 4.544349e-001
3.845363e+003, 4.527598e-001
3.847291e+003, 4.527921e-001
3.849219e+003, 4.534670e-001
3.851148e+003, 4.543631e-001
3.853076e+003, 4.546283e-001
3.855005e+003, 4.539221e-001
3.856933e+003, 4.546767e-001
3.858862e+003, 4.550637e-001
3.860790e+003, 4.548531e-001
3.862719e+003, 4.541766e-001
3.864647e+003, 4.541809e-001
3.866576e+003, 4.542166e-001
3.868504e+003, 4.553988e-001
3.870433e+003, 4.566129e-001
3.872361e+003, 4.551862e-001
3.874290e+003, 4.549865e-001
3.876218e+003, 4.561772e-001
3.878146e+003, 4.566296e-001
3.880075e+003, 4.563307e-001
3.882003e+003, 4.555648e-001
3.883932e+003, 4.563602e-001
3.885860e+003, 4.564895e-001
3.887789e+003, 4.566834e-001
3.889717e+003, 4.565876e-001
3.891646e+003, 4.573290e-001
3.893574e+003, 4.576148e-001
3.895503e+003, 4.568351e-001
3.897431e+003, 4.568337e-001
3.899360e+003, 4.578003e-001
3.901288e+003, 4.585631e-001
3.903217e+003, 4.582640e-001
3.905145e+003, 4.575605e-001
3.907073e+003, 4.583948e-001
3.909002e+003, 4.586267e-001
3.910930e+003, 4.588602e-001
3.912859e+003, 4.588645e-001
3.914787e+003, 4.592097e-001
3.916716e+003, 4.592918e-001
3.918644e+003, 4.604355e-001
3.920573e+003, 4.604857e-001
3.922501e+003, 4.600573e-001
3.924430e+003, 4.608411e-001
3.926358e+003, 4.610792e-001
3.928287e+003, 4.608296e-001
3.930215e+003, 4.607336e-001
3.932144e+003, 4.618504e-001
3.934072e+003, 4.611359e-001
3.936000e+003, 4.606451e-001
3.937929e+003, 4.615584e-001
3.939857e+003, 4.613387e-001
3.941786e+003, 4.602241e-001
3.943714e+003, 4.600300e-001
3.945643e+003, 4.607690e-001
3.947571e+003, 4.619680e-001
3.949500e+003, 4.616907e-001
3.951428e+003, 4.619370e-001
3.953357e+003, 4.627277e-001
3.955285e+003, 4.636196e-001
3.957214e+003, 4.644935e-001
3.959142e+003, 4.646222e-001
3.961071e+003, 4.644030e-001
3.962999e+003, 4.643264e-001
3.964927e+003, 4.641895e-001
3.966856e+003, 4.646349e-001
3.968784e+003, 4.641177e-001
3.970713e+003, 4.647405e-001
3.972641e+003, 4.653229e-001
3.974570e+003, 4.650498e-001
3.976498e+003, 4.652134e-001
3.978427e+003, 4.658607e-001
3.980355e+003, 4.648575e-001
3.982284e+003, 4.638944e-001
3.984212e+003, 4.636317e-001
3.986141e+003, 4.632187e-001
3.988069e+003, 4.648187e-001
3.989998e+003, 4.676180e-001
3.991926e+003, 4.681801e-001
3.993854e+003, 4.681978e-001
3.995783e+003, 4.672041e-001
3.997711e+003, 4.666091e-001
3.999640e+003, 4.670844e-001
##END=



