##NAMES=Zircon
##RRUFFID=R050488
##IDEAL CHEMISTRY=Zr^4+^SiO_4_
##LOCALITY=Sigulani Village, Tambani Area, Blantyre District, Nyassaland
##OWNER=RRUFF
##SOURCE=California Institute of Technology
##DESCRIPTION=Brown fragment
##STATUS=The identification of this mineral has been confirmed by X-ray diffraction and chemical analysis
##URL=rruff.info/R050488
##MEASURED CHEMISTRY=(Zr_0.99_Hf_0.01_)_Î£=1_Si_1.00_O_4_
3.741225e+002, 2.077447e-001
3.760510e+002, 2.307341e-001
3.779795e+002, 2.329745e-001
3.799079e+002, 2.339621e-001
3.818364e+002, 2.375184e-001
3.837649e+002, 2.312796e-001
3.856933e+002, 2.251772e-001
3.876218e+002, 2.147164e-001
3.895503e+002, 2.046593e-001
3.914787e+002, 1.976724e-001
3.934072e+002, 1.901773e-001
3.953357e+002, 1.782644e-001
3.972641e+002, 1.714258e-001
3.991926e+002, 1.654258e-001
4.011211e+002, 1.597955e-001
4.030495e+002, 1.519602e-001
4.049780e+002, 1.397365e-001
4.069065e+002, 1.326329e-001
4.088349e+002, 1.258634e-001
4.107634e+002, 1.177822e-001
4.126919e+002, 1.141292e-001
4.146203e+002, 1.125704e-001
4.165488e+002, 1.119934e-001
4.184773e+002, 1.145452e-001
4.204057e+002, 1.212779e-001
4.223342e+002, 1.283169e-001
4.242627e+002, 1.360949e-001
4.261911e+002, 1.463099e-001
4.281196e+002, 1.583542e-001
4.300481e+002, 1.674376e-001
4.319765e+002, 1.670708e-001
4.339050e+002, 1.583043e-001
4.358335e+002, 1.460496e-001
4.377619e+002, 1.344490e-001
4.396904e+002, 1.250432e-001
4.416189e+002, 1.160348e-001
4.435473e+002, 1.088341e-001
4.454758e+002, 1.017965e-001
4.474043e+002, 9.507897e-002
4.493327e+002, 8.941443e-002
4.512612e+002, 8.528253e-002
4.531897e+002, 8.063321e-002
4.551181e+002, 7.563589e-002
4.570466e+002, 7.065231e-002
4.589751e+002, 6.498636e-002
4.609035e+002, 5.923117e-002
4.628320e+002, 5.492235e-002
4.647605e+002, 5.093631e-002
4.666889e+002, 4.700780e-002
4.686174e+002, 4.412219e-002
4.705459e+002, 4.194644e-002
4.724743e+002, 4.035816e-002
4.744028e+002, 3.864633e-002
4.763313e+002, 3.700050e-002
4.782597e+002, 3.577517e-002
4.801882e+002, 3.458926e-002
4.821167e+002, 3.362533e-002
4.840451e+002, 3.334159e-002
4.859736e+002, 3.353266e-002
4.879021e+002, 3.336849e-002
4.898305e+002, 3.379456e-002
4.917590e+002, 3.448066e-002
4.936875e+002, 3.500041e-002
4.956159e+002, 3.513789e-002
4.975444e+002, 3.569592e-002
4.994729e+002, 3.612120e-002
5.014013e+002, 3.646260e-002
5.033298e+002, 3.674927e-002
5.052583e+002, 3.695755e-002
5.071867e+002, 3.793625e-002
5.091152e+002, 3.798878e-002
5.110437e+002, 3.861909e-002
5.129721e+002, 3.987202e-002
5.149006e+002, 4.078352e-002
5.168290e+002, 4.126516e-002
5.187575e+002, 4.195950e-002
5.206860e+002, 4.315574e-002
5.226144e+002, 4.405644e-002
5.245429e+002, 4.445538e-002
5.264714e+002, 4.464656e-002
5.283998e+002, 4.558460e-002
5.303283e+002, 4.701678e-002
5.322568e+002, 4.782080e-002
5.341852e+002, 4.883718e-002
5.361137e+002, 5.025635e-002
5.380422e+002, 5.145455e-002
5.399706e+002, 5.231570e-002
5.418991e+002, 5.378494e-002
5.438276e+002, 5.493427e-002
5.457560e+002, 5.543205e-002
5.476845e+002, 5.610489e-002
5.496130e+002, 5.665572e-002
5.515414e+002, 5.784627e-002
5.534699e+002, 5.981575e-002
5.553984e+002, 6.112532e-002
5.573268e+002, 6.276843e-002
5.592553e+002, 6.494216e-002
5.611838e+002, 6.674215e-002
5.631122e+002, 6.835462e-002
5.650407e+002, 7.009766e-002
5.669692e+002, 7.203741e-002
5.688976e+002, 7.399745e-002
5.708261e+002, 7.630857e-002
5.727546e+002, 7.863951e-002
5.746830e+002, 8.084505e-002
5.766115e+002, 8.263683e-002
5.785400e+002, 8.457382e-002
5.804684e+002, 8.572285e-002
5.823969e+002, 8.669209e-002
5.843254e+002, 8.842491e-002
5.862538e+002, 9.141583e-002
5.881823e+002, 9.483992e-002
5.901108e+002, 9.855977e-002
5.920392e+002, 1.030941e-001
5.939677e+002, 1.088514e-001
5.958962e+002, 1.157497e-001
5.978246e+002, 1.234595e-001
5.997531e+002, 1.320807e-001
6.016816e+002, 1.405895e-001
6.036100e+002, 1.479665e-001
6.055385e+002, 1.534809e-001
6.074670e+002, 1.565964e-001
6.093954e+002, 1.572242e-001
6.113239e+002, 1.555578e-001
6.132524e+002, 1.520189e-001
6.151808e+002, 1.475707e-001
6.171093e+002, 1.419120e-001
6.190378e+002, 1.345964e-001
6.209662e+002, 1.266935e-001
6.228947e+002, 1.188286e-001
6.248232e+002, 1.108973e-001
6.267516e+002, 1.032844e-001
6.286801e+002, 9.616179e-002
6.306086e+002, 8.990902e-002
6.325370e+002, 8.431882e-002
6.344655e+002, 7.951428e-002
6.363940e+002, 7.569753e-002
6.383224e+002, 7.257023e-002
6.402509e+002, 6.998345e-002
6.421794e+002, 6.789417e-002
6.441078e+002, 6.650183e-002
6.460363e+002, 6.583886e-002
6.479648e+002, 6.525815e-002
6.498932e+002, 6.437225e-002
6.518217e+002, 6.376494e-002
6.537502e+002, 6.327108e-002
6.556786e+002, 6.297714e-002
6.576071e+002, 6.267874e-002
6.595356e+002, 6.248947e-002
6.614641e+002, 6.256813e-002
6.633925e+002, 6.262896e-002
6.653210e+002, 6.279001e-002
6.672495e+002, 6.329376e-002
6.691779e+002, 6.396177e-002
6.711064e+002, 6.447160e-002
6.730349e+002, 6.497415e-002
6.749633e+002, 6.556762e-002
6.768918e+002, 6.617356e-002
6.788203e+002, 6.690592e-002
6.807487e+002, 6.762710e-002
6.826772e+002, 6.816740e-002
6.846057e+002, 6.886956e-002
6.865341e+002, 6.970423e-002
6.884626e+002, 7.039198e-002
6.903911e+002, 7.120276e-002
6.923195e+002, 7.185947e-002
6.942480e+002, 7.239121e-002
6.961765e+002, 7.293481e-002
6.981049e+002, 7.358409e-002
7.000334e+002, 7.432120e-002
7.019619e+002, 7.485729e-002
7.038903e+002, 7.561084e-002
7.058188e+002, 7.632960e-002
7.077473e+002, 7.708100e-002
7.096757e+002, 7.782993e-002
7.116042e+002, 7.864285e-002
7.135327e+002, 7.955010e-002
7.154611e+002, 8.050504e-002
7.173896e+002, 8.141693e-002
7.193181e+002, 8.233132e-002
7.212465e+002, 8.339442e-002
7.231750e+002, 8.463264e-002
7.251035e+002, 8.578760e-002
7.270319e+002, 8.666593e-002
7.289604e+002, 8.757868e-002
7.308889e+002, 8.845708e-002
7.328173e+002, 8.935696e-002
7.347458e+002, 9.042215e-002
7.366743e+002, 9.178563e-002
7.386027e+002, 9.322986e-002
7.405312e+002, 9.450035e-002
7.424597e+002, 9.563945e-002
7.443881e+002, 9.709577e-002
7.463166e+002, 9.865623e-002
7.482451e+002, 9.994987e-002
7.501735e+002, 1.015450e-001
7.521020e+002, 1.033067e-001
7.540305e+002, 1.049501e-001
7.559589e+002, 1.068422e-001
7.578874e+002, 1.086920e-001
7.598159e+002, 1.106571e-001
7.617443e+002, 1.127660e-001
7.636728e+002, 1.146819e-001
7.656013e+002, 1.165115e-001
7.675297e+002, 1.185760e-001
7.694582e+002, 1.206496e-001
7.713867e+002, 1.227872e-001
7.733151e+002, 1.249233e-001
7.752436e+002, 1.272132e-001
7.771721e+002, 1.294338e-001
7.791005e+002, 1.318042e-001
7.810290e+002, 1.339930e-001
7.829575e+002, 1.359572e-001
7.848859e+002, 1.378568e-001
7.868144e+002, 1.397023e-001
7.887429e+002, 1.413096e-001
7.906713e+002, 1.427949e-001
7.925998e+002, 1.439832e-001
7.945283e+002, 1.450147e-001
7.964567e+002, 1.461091e-001
7.983852e+002, 1.472579e-001
8.003137e+002, 1.487319e-001
8.022421e+002, 1.507749e-001
8.041706e+002, 1.534020e-001
8.060991e+002, 1.564277e-001
8.080275e+002, 1.594474e-001
8.099560e+002, 1.626408e-001
8.118845e+002, 1.660366e-001
8.138129e+002, 1.692624e-001
8.157414e+002, 1.724387e-001
8.176699e+002, 1.757891e-001
8.195983e+002, 1.791767e-001
8.215268e+002, 1.825163e-001
8.234553e+002, 1.859331e-001
8.253837e+002, 1.895548e-001
8.273122e+002, 1.931930e-001
8.292407e+002, 1.965343e-001
8.311691e+002, 1.998839e-001
8.330976e+002, 2.033705e-001
8.350261e+002, 2.070589e-001
8.369545e+002, 2.107509e-001
8.388830e+002, 2.143020e-001
8.408115e+002, 2.178882e-001
8.427399e+002, 2.213860e-001
8.446684e+002, 2.249794e-001
8.465969e+002, 2.285531e-001
8.485253e+002, 2.318168e-001
8.504538e+002, 2.349318e-001
8.523823e+002, 2.379592e-001
8.543107e+002, 2.408429e-001
8.562392e+002, 2.432825e-001
8.581677e+002, 2.459022e-001
8.600961e+002, 2.480495e-001
8.620246e+002, 2.498798e-001
8.639531e+002, 2.518303e-001
8.658815e+002, 2.538445e-001
8.678100e+002, 2.559303e-001
8.697385e+002, 2.578285e-001
8.716669e+002, 2.594803e-001
8.735954e+002, 2.609999e-001
8.755239e+002, 2.624975e-001
8.774523e+002, 2.637949e-001
8.793808e+002, 2.644986e-001
8.813093e+002, 2.647426e-001
8.832377e+002, 2.647226e-001
8.851662e+002, 2.645774e-001
8.870947e+002, 2.641184e-001
8.890231e+002, 2.632902e-001
8.909516e+002, 2.622114e-001
8.928801e+002, 2.609128e-001
8.948085e+002, 2.595976e-001
8.967370e+002, 2.578282e-001
8.986655e+002, 2.557888e-001
9.005939e+002, 2.535733e-001
9.025224e+002, 2.511666e-001
9.044509e+002, 2.487845e-001
9.063793e+002, 2.460784e-001
9.083078e+002, 2.432148e-001
9.102363e+002, 2.406401e-001
9.121647e+002, 2.379075e-001
9.140932e+002, 2.350356e-001
9.160217e+002, 2.321306e-001
9.179501e+002, 2.293939e-001
9.198786e+002, 2.267732e-001
9.218071e+002, 2.241448e-001
9.237355e+002, 2.213159e-001
9.256640e+002, 2.183488e-001
9.275925e+002, 2.151694e-001
9.295209e+002, 2.120694e-001
9.314494e+002, 2.090960e-001
9.333779e+002, 2.060224e-001
9.353063e+002, 2.029484e-001
9.372348e+002, 1.998695e-001
9.391633e+002, 1.970318e-001
9.410917e+002, 1.944438e-001
9.430202e+002, 1.920758e-001
9.449487e+002, 1.900836e-001
9.468771e+002, 1.882567e-001
9.488056e+002, 1.862913e-001
9.507341e+002, 1.842402e-001
9.526625e+002, 1.823515e-001
9.545910e+002, 1.804290e-001
9.565195e+002, 1.784587e-001
9.584479e+002, 1.765083e-001
9.603764e+002, 1.747553e-001
9.623049e+002, 1.730613e-001
9.642333e+002, 1.714618e-001
9.661618e+002, 1.698826e-001
9.680903e+002, 1.681740e-001
9.700187e+002, 1.666850e-001
9.719472e+002, 1.655405e-001
9.738757e+002, 1.641649e-001
9.758041e+002, 1.626961e-001
9.777326e+002, 1.609704e-001
9.796611e+002, 1.589904e-001
9.815895e+002, 1.568056e-001
9.835180e+002, 1.545755e-001
9.854465e+002, 1.525662e-001
9.873749e+002, 1.504554e-001
9.893034e+002, 1.480459e-001
9.912319e+002, 1.456604e-001
9.931603e+002, 1.432905e-001
9.950888e+002, 1.407893e-001
9.970173e+002, 1.380756e-001
9.989457e+002, 1.354381e-001
1.000874e+003, 1.329094e-001
1.002803e+003, 1.302576e-001
1.004731e+003, 1.274533e-001
1.006660e+003, 1.246218e-001
1.008588e+003, 1.218436e-001
1.010517e+003, 1.190190e-001
1.012445e+003, 1.161518e-001
1.014373e+003, 1.134809e-001
1.016302e+003, 1.108025e-001
1.018230e+003, 1.081371e-001
1.020159e+003, 1.055311e-001
1.022087e+003, 1.028443e-001
1.024016e+003, 1.001778e-001
1.025944e+003, 9.773325e-002
1.027873e+003, 9.562930e-002
1.029801e+003, 9.376483e-002
1.031730e+003, 9.206345e-002
1.033658e+003, 9.070997e-002
1.035587e+003, 8.944516e-002
1.037515e+003, 8.810625e-002
1.039443e+003, 8.681048e-002
1.041372e+003, 8.554746e-002
1.043300e+003, 8.411942e-002
1.045229e+003, 8.246236e-002
1.047157e+003, 8.084148e-002
1.049086e+003, 7.917509e-002
1.051014e+003, 7.726996e-002
1.052943e+003, 7.526989e-002
1.054871e+003, 7.325155e-002
1.056800e+003, 7.111213e-002
1.058728e+003, 6.885617e-002
1.060657e+003, 6.653382e-002
1.062585e+003, 6.406511e-002
1.064514e+003, 6.148180e-002
1.066442e+003, 5.897928e-002
1.068370e+003, 5.646141e-002
1.070299e+003, 5.399567e-002
1.072227e+003, 5.165797e-002
1.074156e+003, 4.900212e-002
1.076084e+003, 4.633914e-002
1.078013e+003, 4.414150e-002
1.079941e+003, 4.214155e-002
1.081870e+003, 3.987067e-002
1.083798e+003, 3.765040e-002
1.085727e+003, 3.587311e-002
1.087655e+003, 3.453938e-002
1.089584e+003, 3.362207e-002
1.091512e+003, 3.312751e-002
1.093441e+003, 3.274595e-002
1.095369e+003, 3.215890e-002
1.097297e+003, 3.117506e-002
1.099226e+003, 2.998439e-002
1.101154e+003, 2.887304e-002
1.103083e+003, 2.793373e-002
1.105011e+003, 2.689481e-002
1.106940e+003, 2.588776e-002
1.108868e+003, 2.494202e-002
1.110797e+003, 2.399037e-002
1.112725e+003, 2.303354e-002
1.114654e+003, 2.208939e-002
1.116582e+003, 2.117945e-002
1.118511e+003, 2.026059e-002
1.120439e+003, 1.942616e-002
1.122368e+003, 1.871879e-002
1.124296e+003, 1.791636e-002
1.126224e+003, 1.715361e-002
1.128153e+003, 1.654818e-002
1.130081e+003, 1.592737e-002
1.132010e+003, 1.522225e-002
1.133938e+003, 1.468310e-002
1.135867e+003, 1.433708e-002
1.137795e+003, 1.403430e-002
1.139724e+003, 1.373220e-002
1.141652e+003, 1.331262e-002
1.143581e+003, 1.280810e-002
1.145509e+003, 1.245217e-002
1.147438e+003, 1.213696e-002
1.149366e+003, 1.179051e-002
1.151295e+003, 1.144393e-002
1.153223e+003, 1.110651e-002
1.155151e+003, 1.075079e-002
1.157080e+003, 1.044634e-002
1.159008e+003, 1.009332e-002
1.160937e+003, 9.658284e-003
1.162865e+003, 9.230192e-003
1.164794e+003, 8.976818e-003
1.166722e+003, 8.594198e-003
1.168651e+003, 8.237413e-003
1.170579e+003, 8.050641e-003
1.172508e+003, 7.807160e-003
1.174436e+003, 7.527424e-003
1.176365e+003, 7.218230e-003
1.178293e+003, 7.040011e-003
1.180222e+003, 6.888308e-003
1.182150e+003, 6.600029e-003
1.184078e+003, 6.508239e-003
1.186007e+003, 6.288199e-003
1.187935e+003, 6.052190e-003
1.189864e+003, 5.821989e-003
1.191792e+003, 5.595609e-003
1.193721e+003, 5.520511e-003
1.195649e+003, 5.343695e-003
1.197578e+003, 5.191426e-003
1.199506e+003, 5.106036e-003
1.201435e+003, 5.018591e-003
1.203363e+003, 4.917892e-003
1.205292e+003, 4.847142e-003
1.207220e+003, 4.735711e-003
1.209149e+003, 4.554977e-003
1.211077e+003, 4.476817e-003
1.213005e+003, 4.383974e-003
1.214934e+003, 4.303859e-003
1.216862e+003, 4.256475e-003
1.218791e+003, 4.239256e-003
1.220719e+003, 4.150707e-003
1.222648e+003, 4.005664e-003
1.224576e+003, 3.820554e-003
1.226505e+003, 3.760612e-003
1.228433e+003, 3.676251e-003
1.230362e+003, 3.612545e-003
1.232290e+003, 3.627595e-003
1.234219e+003, 3.622989e-003
1.236147e+003, 3.516313e-003
1.238076e+003, 3.437106e-003
1.240004e+003, 3.432679e-003
1.241932e+003, 3.435213e-003
1.243861e+003, 3.359076e-003
1.245789e+003, 3.253625e-003
1.247718e+003, 3.145368e-003
1.249646e+003, 3.156489e-003
1.251575e+003, 3.212853e-003
1.253503e+003, 3.335146e-003
1.255432e+003, 3.369344e-003
1.257360e+003, 3.420821e-003
1.259289e+003, 3.468910e-003
1.261217e+003, 3.420171e-003
1.263146e+003, 3.502615e-003
1.265074e+003, 3.627039e-003
1.267003e+003, 3.592918e-003
1.268931e+003, 3.618304e-003
1.270859e+003, 3.775489e-003
1.272788e+003, 3.964954e-003
1.274716e+003, 4.092915e-003
1.276645e+003, 4.105018e-003
1.278573e+003, 4.136336e-003
1.280502e+003, 4.201286e-003
1.282430e+003, 4.224898e-003
1.284359e+003, 4.268117e-003
1.286287e+003, 4.153426e-003
1.288216e+003, 4.033621e-003
1.290144e+003, 4.020363e-003
1.292073e+003, 4.032651e-003
1.294001e+003, 3.953256e-003
1.295930e+003, 3.875904e-003
1.297858e+003, 3.943107e-003
1.299786e+003, 4.018436e-003
1.301715e+003, 3.995291e-003
1.303643e+003, 3.789322e-003
1.305572e+003, 3.758381e-003
1.307500e+003, 4.034316e-003
1.309429e+003, 4.180439e-003
1.311357e+003, 4.137225e-003
1.313286e+003, 4.174426e-003
1.315214e+003, 4.154393e-003
1.317143e+003, 4.048357e-003
1.319071e+003, 4.152347e-003
1.321000e+003, 4.171907e-003
1.322928e+003, 4.099503e-003
1.324857e+003, 4.054722e-003
1.326785e+003, 4.095326e-003
1.328714e+003, 4.177684e-003
1.330642e+003, 4.229357e-003
1.332570e+003, 4.291656e-003
1.334499e+003, 4.465905e-003
1.336427e+003, 4.390846e-003
1.338356e+003, 4.308676e-003
1.340284e+003, 4.316365e-003
1.342213e+003, 4.312187e-003
1.344141e+003, 4.405919e-003
1.346070e+003, 4.543473e-003
1.347998e+003, 4.550260e-003
1.349927e+003, 4.530228e-003
1.351855e+003, 4.440115e-003
1.353784e+003, 4.548016e-003
1.355712e+003, 4.650468e-003
1.357641e+003, 4.636464e-003
1.359569e+003, 4.760024e-003
1.361497e+003, 4.861471e-003
1.363426e+003, 4.821002e-003
1.365354e+003, 4.914666e-003
1.367283e+003, 4.999597e-003
1.369211e+003, 5.031090e-003
1.371140e+003, 5.102142e-003
1.373068e+003, 5.190919e-003
1.374997e+003, 5.177130e-003
1.376925e+003, 5.199960e-003
1.378854e+003, 5.285874e-003
1.380782e+003, 5.296274e-003
1.382711e+003, 5.414852e-003
1.384639e+003, 5.483152e-003
1.386568e+003, 5.578526e-003
1.388496e+003, 5.655303e-003
1.390424e+003, 5.683723e-003
1.392353e+003, 5.900703e-003
1.394281e+003, 6.104196e-003
1.396210e+003, 6.183970e-003
1.398138e+003, 6.185738e-003
1.400067e+003, 6.087830e-003
1.401995e+003, 6.045145e-003
1.403924e+003, 6.174129e-003
1.405852e+003, 6.286250e-003
1.407781e+003, 6.319638e-003
1.409709e+003, 6.336529e-003
1.411638e+003, 6.419034e-003
1.413566e+003, 6.459964e-003
1.415495e+003, 6.420176e-003
1.417423e+003, 6.379968e-003
1.419351e+003, 6.503056e-003
1.421280e+003, 6.564125e-003
1.423208e+003, 6.587929e-003
1.425137e+003, 6.592677e-003
1.427065e+003, 6.662503e-003
1.428994e+003, 6.768596e-003
1.430922e+003, 6.806846e-003
1.432851e+003, 6.810097e-003
1.434779e+003, 6.919074e-003
1.436708e+003, 7.006383e-003
1.438636e+003, 6.880905e-003
1.440565e+003, 6.745210e-003
1.442493e+003, 6.887383e-003
1.444422e+003, 6.903098e-003
1.446350e+003, 6.891078e-003
1.448278e+003, 6.963371e-003
1.450207e+003, 6.927730e-003
1.452135e+003, 6.805698e-003
1.454064e+003, 6.796557e-003
1.455992e+003, 6.894994e-003
1.457921e+003, 6.873341e-003
1.459849e+003, 6.906184e-003
1.461778e+003, 6.855025e-003
1.463706e+003, 6.791352e-003
1.465635e+003, 6.739676e-003
1.467563e+003, 6.573465e-003
1.469492e+003, 6.593849e-003
1.471420e+003, 6.792303e-003
1.473349e+003, 6.980701e-003
1.475277e+003, 7.051805e-003
1.477205e+003, 7.064513e-003
1.479134e+003, 7.066444e-003
1.481062e+003, 7.112810e-003
1.482991e+003, 7.058225e-003
1.484919e+003, 7.077735e-003
1.486848e+003, 7.282190e-003
1.488776e+003, 7.420846e-003
1.490705e+003, 7.276234e-003
1.492633e+003, 7.199673e-003
1.494562e+003, 7.340721e-003
1.496490e+003, 7.541425e-003
1.498419e+003, 7.691828e-003
1.500347e+003, 7.756805e-003
1.502276e+003, 7.754531e-003
1.504204e+003, 7.814262e-003
1.506132e+003, 7.870639e-003
1.508061e+003, 7.844088e-003
1.509989e+003, 7.736456e-003
1.511918e+003, 7.688704e-003
1.513846e+003, 7.811689e-003
1.515775e+003, 7.938538e-003
1.517703e+003, 8.040460e-003
1.519632e+003, 8.139721e-003
1.521560e+003, 8.108492e-003
1.523489e+003, 8.159190e-003
1.525417e+003, 8.289263e-003
1.527346e+003, 8.368361e-003
1.529274e+003, 8.425573e-003
1.531203e+003, 8.506698e-003
1.533131e+003, 8.419869e-003
1.535059e+003, 8.457183e-003
1.536988e+003, 8.643704e-003
1.538916e+003, 8.706464e-003
1.540845e+003, 8.625424e-003
1.542773e+003, 8.681104e-003
1.544702e+003, 8.795780e-003
1.546630e+003, 8.842162e-003
1.548559e+003, 8.891598e-003
1.550487e+003, 8.955255e-003
1.552416e+003, 8.926890e-003
1.554344e+003, 9.029370e-003
1.556273e+003, 9.056833e-003
1.558201e+003, 9.090458e-003
1.560130e+003, 9.160538e-003
1.562058e+003, 9.121091e-003
1.563986e+003, 9.186826e-003
1.565915e+003, 9.275210e-003
1.567843e+003, 9.244095e-003
1.569772e+003, 9.383653e-003
1.571700e+003, 9.483263e-003
1.573629e+003, 9.516253e-003
1.575557e+003, 9.505271e-003
1.577486e+003, 9.460742e-003
1.579414e+003, 9.605083e-003
1.581343e+003, 9.710927e-003
1.583271e+003, 9.717621e-003
1.585200e+003, 9.777628e-003
1.587128e+003, 9.816099e-003
1.589057e+003, 9.897027e-003
1.590985e+003, 9.967076e-003
1.592913e+003, 1.017239e-002
1.594842e+003, 1.034829e-002
1.596770e+003, 1.043026e-002
1.598699e+003, 1.037518e-002
1.600627e+003, 1.028409e-002
1.602556e+003, 1.032574e-002
1.604484e+003, 1.044168e-002
1.606413e+003, 1.044263e-002
1.608341e+003, 1.035317e-002
1.610270e+003, 1.039517e-002
1.612198e+003, 1.057720e-002
1.614127e+003, 1.058313e-002
1.616055e+003, 1.047446e-002
1.617984e+003, 1.052420e-002
1.619912e+003, 1.054592e-002
1.621840e+003, 1.047788e-002
1.623769e+003, 1.056015e-002
1.625697e+003, 1.076224e-002
1.627626e+003, 1.087025e-002
1.629554e+003, 1.094439e-002
1.631483e+003, 1.088090e-002
1.633411e+003, 1.085267e-002
1.635340e+003, 1.081522e-002
1.637268e+003, 1.077447e-002
1.639197e+003, 1.087883e-002
1.641125e+003, 1.108645e-002
1.643054e+003, 1.119687e-002
1.644982e+003, 1.121435e-002
1.646911e+003, 1.121700e-002
1.648839e+003, 1.112794e-002
1.650767e+003, 1.095552e-002
1.652696e+003, 1.093220e-002
1.654624e+003, 1.111555e-002
1.656553e+003, 1.107307e-002
1.658481e+003, 1.097595e-002
1.660410e+003, 1.084313e-002
1.662338e+003, 1.086319e-002
1.664267e+003, 1.090515e-002
1.666195e+003, 1.094707e-002
1.668124e+003, 1.102339e-002
1.670052e+003, 1.094746e-002
1.671981e+003, 1.090518e-002
1.673909e+003, 1.078820e-002
1.675838e+003, 1.065054e-002
1.677766e+003, 1.059954e-002
1.679694e+003, 1.056850e-002
1.681623e+003, 1.065601e-002
1.683551e+003, 1.060023e-002
1.685480e+003, 1.065677e-002
1.687408e+003, 1.080902e-002
1.689337e+003, 1.089065e-002
1.691265e+003, 1.088418e-002
1.693194e+003, 1.086297e-002
1.695122e+003, 1.089913e-002
1.697051e+003, 1.093822e-002
1.698979e+003, 1.084168e-002
1.700908e+003, 1.079568e-002
1.702836e+003, 1.085765e-002
1.704765e+003, 1.092243e-002
1.706693e+003, 1.105702e-002
1.708621e+003, 1.107091e-002
1.710550e+003, 1.098847e-002
1.712478e+003, 1.081192e-002
1.714407e+003, 1.073867e-002
1.716335e+003, 1.088696e-002
1.718264e+003, 1.074402e-002
1.720192e+003, 1.061539e-002
1.722121e+003, 1.070522e-002
1.724049e+003, 1.089957e-002
1.725978e+003, 1.102322e-002
1.727906e+003, 1.091758e-002
1.729835e+003, 1.074513e-002
1.731763e+003, 1.081605e-002
1.733692e+003, 1.081701e-002
1.735620e+003, 1.067081e-002
1.737548e+003, 1.034778e-002
1.739477e+003, 1.014069e-002
1.741405e+003, 1.005654e-002
1.743334e+003, 1.000585e-002
1.745262e+003, 9.986727e-003
1.747191e+003, 9.971760e-003
1.749119e+003, 1.003406e-002
1.751048e+003, 1.026525e-002
1.752976e+003, 1.056948e-002
1.754905e+003, 1.071223e-002
1.756833e+003, 1.058433e-002
1.758762e+003, 1.063570e-002
1.760690e+003, 1.081205e-002
1.762619e+003, 1.097984e-002
1.764547e+003, 1.123001e-002
1.766475e+003, 1.118514e-002
1.768404e+003, 1.116945e-002
1.770332e+003, 1.130078e-002
1.772261e+003, 1.120660e-002
1.774189e+003, 1.128016e-002
1.776118e+003, 1.157628e-002
1.778046e+003, 1.169913e-002
1.779975e+003, 1.178917e-002
1.781903e+003, 1.200992e-002
1.783832e+003, 1.212166e-002
1.785760e+003, 1.212177e-002
1.787689e+003, 1.217346e-002
1.789617e+003, 1.238339e-002
1.791546e+003, 1.241531e-002
1.793474e+003, 1.229427e-002
1.795402e+003, 1.209992e-002
1.797331e+003, 1.215167e-002
1.799259e+003, 1.220655e-002
1.801188e+003, 1.219275e-002
1.803116e+003, 1.227189e-002
1.805045e+003, 1.236708e-002
1.806973e+003, 1.233674e-002
1.808902e+003, 1.236427e-002
1.810830e+003, 1.235544e-002
1.812759e+003, 1.220198e-002
1.814687e+003, 1.217055e-002
1.816616e+003, 1.214661e-002
1.818544e+003, 1.205396e-002
1.820473e+003, 1.215990e-002
1.822401e+003, 1.220834e-002
1.824329e+003, 1.217595e-002
1.826258e+003, 1.229876e-002
1.828186e+003, 1.247723e-002
1.830115e+003, 1.250789e-002
1.832043e+003, 1.239281e-002
1.833972e+003, 1.245065e-002
1.835900e+003, 1.253523e-002
1.837829e+003, 1.221356e-002
1.839757e+003, 1.210197e-002
1.841686e+003, 1.223347e-002
1.843614e+003, 1.231439e-002
1.845543e+003, 1.221072e-002
1.847471e+003, 1.208141e-002
1.849400e+003, 1.205483e-002
1.851328e+003, 1.215402e-002
1.853256e+003, 1.225383e-002
1.855185e+003, 1.224366e-002
1.857113e+003, 1.220673e-002
1.859042e+003, 1.233135e-002
1.860970e+003, 1.223953e-002
1.862899e+003, 1.239341e-002
1.864827e+003, 1.236634e-002
1.866756e+003, 1.241392e-002
1.868684e+003, 1.262820e-002
1.870613e+003, 1.253756e-002
1.872541e+003, 1.241100e-002
1.874470e+003, 1.252242e-002
1.876398e+003, 1.269154e-002
1.878327e+003, 1.254157e-002
1.880255e+003, 1.258649e-002
1.882183e+003, 1.266458e-002
1.884112e+003, 1.245627e-002
1.886040e+003, 1.249025e-002
1.887969e+003, 1.262822e-002
1.889897e+003, 1.253487e-002
1.891826e+003, 1.261194e-002
1.893754e+003, 1.292374e-002
1.895683e+003, 1.257649e-002
1.897611e+003, 1.261142e-002
1.899540e+003, 1.314270e-002
1.901468e+003, 1.285494e-002
1.903397e+003, 1.235534e-002
1.905325e+003, 1.247373e-002
1.907254e+003, 1.258472e-002
1.909182e+003, 1.263375e-002
1.911110e+003, 1.294235e-002
1.913039e+003, 1.298382e-002
1.914967e+003, 1.279087e-002
1.916896e+003, 1.264100e-002
1.918824e+003, 1.272891e-002
1.920753e+003, 1.269441e-002
1.922681e+003, 1.283414e-002
1.924610e+003, 1.263475e-002
1.926538e+003, 1.282817e-002
1.928467e+003, 1.292295e-002
1.930395e+003, 1.308094e-002
1.932324e+003, 1.307625e-002
1.934252e+003, 1.309631e-002
1.936181e+003, 1.314526e-002
1.938109e+003, 1.303574e-002
1.940037e+003, 1.296654e-002
1.941966e+003, 1.295726e-002
1.943894e+003, 1.302067e-002
1.945823e+003, 1.305794e-002
1.947751e+003, 1.337146e-002
1.949680e+003, 1.381049e-002
1.951608e+003, 1.374982e-002
1.953537e+003, 1.374514e-002
1.955465e+003, 1.360435e-002
1.957394e+003, 1.296137e-002
1.959322e+003, 1.289702e-002
1.961251e+003, 1.392634e-002
1.963179e+003, 1.403015e-002
1.965108e+003, 1.376201e-002
1.967036e+003, 1.387301e-002
1.968964e+003, 1.358283e-002
1.970893e+003, 1.292895e-002
1.972821e+003, 1.296787e-002
1.974750e+003, 1.404784e-002
1.976678e+003, 1.456847e-002
1.978607e+003, 1.465195e-002
1.980535e+003, 1.480520e-002
1.982464e+003, 1.518018e-002
1.984392e+003, 1.482563e-002
1.986321e+003, 1.457905e-002
1.988249e+003, 1.496083e-002
1.990178e+003, 1.477955e-002
1.992106e+003, 1.497260e-002
1.994035e+003, 1.511295e-002
1.995963e+003, 1.469420e-002
1.997891e+003, 1.494344e-002
1.999820e+003, 1.593186e-002
2.001748e+003, 1.549934e-002
2.003677e+003, 1.460117e-002
2.005605e+003, 1.530752e-002
2.007534e+003, 1.685950e-002
2.009462e+003, 1.737850e-002
2.011391e+003, 1.591913e-002
2.013319e+003, 1.516883e-002
2.015248e+003, 1.550603e-002
2.017176e+003, 1.605941e-002
2.019105e+003, 1.589740e-002
2.021033e+003, 1.529619e-002
2.022962e+003, 1.569671e-002
2.024890e+003, 1.611562e-002
2.026818e+003, 1.614076e-002
2.028747e+003, 1.737465e-002
2.030675e+003, 1.845534e-002
2.032604e+003, 1.830391e-002
2.034532e+003, 1.727526e-002
2.036461e+003, 1.646925e-002
2.038389e+003, 1.687190e-002
2.040318e+003, 1.751740e-002
2.042246e+003, 1.731300e-002
2.044175e+003, 1.667613e-002
2.046103e+003, 1.617573e-002
2.048031e+003, 1.711655e-002
2.049960e+003, 1.776945e-002
2.051888e+003, 1.711813e-002
2.053817e+003, 1.716799e-002
2.055745e+003, 1.718330e-002
2.057674e+003, 1.714935e-002
2.059602e+003, 1.686937e-002
2.061531e+003, 1.672195e-002
2.063459e+003, 1.687057e-002
2.065388e+003, 1.666147e-002
2.067316e+003, 1.662586e-002
2.069245e+003, 1.664448e-002
2.071173e+003, 1.687399e-002
2.073102e+003, 1.697189e-002
2.075030e+003, 1.662497e-002
2.076958e+003, 1.636958e-002
2.078887e+003, 1.680114e-002
2.080815e+003, 1.727905e-002
2.082744e+003, 1.697924e-002
2.084672e+003, 1.679669e-002
2.086601e+003, 1.652721e-002
2.088529e+003, 1.602463e-002
2.090458e+003, 1.640748e-002
2.092386e+003, 1.678574e-002
2.094315e+003, 1.700212e-002
2.096243e+003, 1.707255e-002
2.098172e+003, 1.718410e-002
2.100100e+003, 1.771391e-002
2.102029e+003, 1.802763e-002
2.103957e+003, 1.820031e-002
2.105885e+003, 1.755381e-002
2.107814e+003, 1.698144e-002
2.109742e+003, 1.669705e-002
2.111671e+003, 1.670513e-002
2.113599e+003, 1.695727e-002
2.115528e+003, 1.728499e-002
2.117456e+003, 1.697200e-002
2.119385e+003, 1.653080e-002
2.121313e+003, 1.685776e-002
2.123242e+003, 1.704323e-002
2.125170e+003, 1.680263e-002
2.127099e+003, 1.737278e-002
2.129027e+003, 1.727082e-002
2.130956e+003, 1.681931e-002
2.132884e+003, 1.712916e-002
2.134813e+003, 1.723847e-002
2.136741e+003, 1.732136e-002
2.138669e+003, 1.772909e-002
2.140598e+003, 1.774669e-002
2.142526e+003, 1.760115e-002
2.144455e+003, 1.734257e-002
2.146383e+003, 1.760936e-002
2.148312e+003, 1.825118e-002
2.150240e+003, 1.862081e-002
2.152169e+003, 1.828288e-002
2.154097e+003, 1.835659e-002
2.156026e+003, 1.836755e-002
2.157954e+003, 1.872366e-002
2.159883e+003, 1.997709e-002
2.161811e+003, 2.077297e-002
2.163740e+003, 2.115878e-002
2.165668e+003, 2.159274e-002
2.167596e+003, 2.106257e-002
2.169525e+003, 2.047978e-002
2.171453e+003, 1.953139e-002
2.173382e+003, 1.917394e-002
2.175310e+003, 1.943908e-002
2.177239e+003, 1.965231e-002
2.179167e+003, 1.892375e-002
2.181096e+003, 1.882879e-002
2.183024e+003, 1.972193e-002
2.184953e+003, 2.006287e-002
2.186881e+003, 1.951010e-002
2.188810e+003, 1.937700e-002
2.190738e+003, 1.895547e-002
2.192667e+003, 1.871045e-002
2.194595e+003, 1.970567e-002
2.196523e+003, 2.050356e-002
2.198452e+003, 2.025902e-002
2.200380e+003, 1.987523e-002
2.202309e+003, 1.928683e-002
2.204237e+003, 1.900241e-002
2.206166e+003, 1.920971e-002
2.208094e+003, 1.936405e-002
2.210023e+003, 1.987220e-002
2.211951e+003, 2.037412e-002
2.213880e+003, 2.038326e-002
2.215808e+003, 2.001805e-002
2.217737e+003, 2.005644e-002
2.219665e+003, 2.080563e-002
2.221594e+003, 2.051516e-002
2.223522e+003, 1.941334e-002
2.225450e+003, 1.896401e-002
2.227379e+003, 1.915057e-002
2.229307e+003, 2.038663e-002
2.231236e+003, 2.049254e-002
2.233164e+003, 1.976829e-002
2.235093e+003, 1.981304e-002
2.237021e+003, 2.056761e-002
2.238950e+003, 2.079870e-002
2.240878e+003, 2.027290e-002
2.242807e+003, 1.986236e-002
2.244735e+003, 1.993638e-002
2.246664e+003, 2.026397e-002
2.248592e+003, 2.047594e-002
2.250521e+003, 2.034182e-002
2.252449e+003, 2.034837e-002
2.254377e+003, 2.042148e-002
2.256306e+003, 1.994046e-002
2.258234e+003, 1.996450e-002
2.260163e+003, 2.042841e-002
2.262091e+003, 2.005277e-002
2.264020e+003, 2.009323e-002
2.265948e+003, 2.037537e-002
2.267877e+003, 2.015986e-002
2.269805e+003, 2.006340e-002
2.271734e+003, 2.053962e-002
2.273662e+003, 2.128447e-002
2.275591e+003, 2.127723e-002
2.277519e+003, 2.125243e-002
2.279448e+003, 2.112761e-002
2.281376e+003, 2.118242e-002
2.283304e+003, 2.130636e-002
2.285233e+003, 2.120451e-002
2.287161e+003, 2.086887e-002
2.289090e+003, 2.062006e-002
2.291018e+003, 2.052905e-002
2.292947e+003, 2.084596e-002
2.294875e+003, 2.070733e-002
2.296804e+003, 2.048333e-002
2.298732e+003, 2.039915e-002
2.300661e+003, 2.081585e-002
2.302589e+003, 2.085371e-002
2.304518e+003, 2.057740e-002
2.306446e+003, 2.034133e-002
2.308375e+003, 2.018582e-002
2.310303e+003, 2.013109e-002
2.312231e+003, 2.049856e-002
2.314160e+003, 2.075831e-002
2.316088e+003, 2.071750e-002
2.318017e+003, 2.069322e-002
2.319945e+003, 2.112356e-002
2.321874e+003, 2.147363e-002
2.323802e+003, 2.143365e-002
2.325731e+003, 2.091614e-002
2.327659e+003, 2.052378e-002
2.329588e+003, 2.031495e-002
2.331516e+003, 2.024187e-002
2.333445e+003, 2.041686e-002
2.335373e+003, 2.057135e-002
2.337302e+003, 2.055775e-002
2.339230e+003, 2.042493e-002
2.341158e+003, 2.042675e-002
2.343087e+003, 2.057674e-002
2.345015e+003, 2.036863e-002
2.346944e+003, 2.048707e-002
2.348872e+003, 2.065984e-002
2.350801e+003, 2.068608e-002
2.352729e+003, 2.076004e-002
2.354658e+003, 2.051964e-002
2.356586e+003, 2.021779e-002
2.358515e+003, 2.021597e-002
2.360443e+003, 2.059009e-002
2.362372e+003, 2.093561e-002
2.364300e+003, 2.103502e-002
2.366229e+003, 2.090777e-002
2.368157e+003, 2.066786e-002
2.370085e+003, 2.046370e-002
2.372014e+003, 2.069238e-002
2.373942e+003, 2.087777e-002
2.375871e+003, 2.066379e-002
2.377799e+003, 2.052284e-002
2.379728e+003, 2.087198e-002
2.381656e+003, 2.088943e-002
2.383585e+003, 2.081743e-002
2.385513e+003, 2.084924e-002
2.387442e+003, 2.071752e-002
2.389370e+003, 2.081220e-002
2.391299e+003, 2.086027e-002
2.393227e+003, 2.096727e-002
2.395156e+003, 2.111481e-002
2.397084e+003, 2.105176e-002
2.399012e+003, 2.116212e-002
2.400941e+003, 2.119723e-002
2.402869e+003, 2.076102e-002
2.404798e+003, 2.088417e-002
2.406726e+003, 2.146961e-002
2.408655e+003, 2.140429e-002
2.410583e+003, 2.139112e-002
2.412512e+003, 2.201818e-002
2.414440e+003, 2.247695e-002
2.416369e+003, 2.219753e-002
2.418297e+003, 2.160539e-002
2.420226e+003, 2.143541e-002
2.422154e+003, 2.181158e-002
2.424083e+003, 2.184009e-002
2.426011e+003, 2.156461e-002
2.427939e+003, 2.147352e-002
2.429868e+003, 2.189716e-002
2.431796e+003, 2.229591e-002
2.433725e+003, 2.154691e-002
2.435653e+003, 2.121886e-002
2.437582e+003, 2.175195e-002
2.439510e+003, 2.214710e-002
2.441439e+003, 2.212248e-002
2.443367e+003, 2.201829e-002
2.445296e+003, 2.202334e-002
2.447224e+003, 2.172040e-002
2.449153e+003, 2.170920e-002
2.451081e+003, 2.204179e-002
2.453010e+003, 2.230345e-002
2.454938e+003, 2.237347e-002
2.456866e+003, 2.216755e-002
2.458795e+003, 2.182635e-002
2.460723e+003, 2.185770e-002
2.462652e+003, 2.192874e-002
2.464580e+003, 2.202334e-002
2.466509e+003, 2.212743e-002
2.468437e+003, 2.225201e-002
2.470366e+003, 2.202283e-002
2.472294e+003, 2.220709e-002
2.474223e+003, 2.243919e-002
2.476151e+003, 2.227945e-002
2.478080e+003, 2.184919e-002
2.480008e+003, 2.180440e-002
2.481937e+003, 2.226375e-002
2.483865e+003, 2.254986e-002
2.485793e+003, 2.234553e-002
2.487722e+003, 2.227511e-002
2.489650e+003, 2.231337e-002
2.491579e+003, 2.205537e-002
2.493507e+003, 2.196655e-002
2.495436e+003, 2.195561e-002
2.497364e+003, 2.202409e-002
2.499293e+003, 2.210533e-002
2.501221e+003, 2.228276e-002
2.503150e+003, 2.235710e-002
2.505078e+003, 2.213280e-002
2.507007e+003, 2.193676e-002
2.508935e+003, 2.203709e-002
2.510864e+003, 2.230059e-002
2.512792e+003, 2.222077e-002
2.514720e+003, 2.207698e-002
2.516649e+003, 2.199717e-002
2.518577e+003, 2.219677e-002
2.520506e+003, 2.253545e-002
2.522434e+003, 2.262991e-002
2.524363e+003, 2.229293e-002
2.526291e+003, 2.233303e-002
2.528220e+003, 2.259855e-002
2.530148e+003, 2.254510e-002
2.532077e+003, 2.217411e-002
2.534005e+003, 2.186860e-002
2.535934e+003, 2.224005e-002
2.537862e+003, 2.276048e-002
2.539791e+003, 2.264963e-002
2.541719e+003, 2.234497e-002
2.543647e+003, 2.243726e-002
2.545576e+003, 2.283496e-002
2.547504e+003, 2.271355e-002
2.549433e+003, 2.219993e-002
2.551361e+003, 2.208703e-002
2.553290e+003, 2.234600e-002
2.555218e+003, 2.293084e-002
2.557147e+003, 2.310903e-002
2.559075e+003, 2.293404e-002
2.561004e+003, 2.308396e-002
2.562932e+003, 2.328820e-002
2.564861e+003, 2.303086e-002
2.566789e+003, 2.293429e-002
2.568718e+003, 2.292695e-002
2.570646e+003, 2.333868e-002
2.572574e+003, 2.341191e-002
2.574503e+003, 2.305027e-002
2.576431e+003, 2.314197e-002
2.578360e+003, 2.299493e-002
2.580288e+003, 2.304791e-002
2.582217e+003, 2.315703e-002
2.584145e+003, 2.343788e-002
2.586074e+003, 2.377171e-002
2.588002e+003, 2.355232e-002
2.589931e+003, 2.304818e-002
2.591859e+003, 2.325769e-002
2.593788e+003, 2.381880e-002
2.595716e+003, 2.368493e-002
2.597645e+003, 2.351902e-002
2.599573e+003, 2.376474e-002
2.601501e+003, 2.394118e-002
2.603430e+003, 2.381358e-002
2.605358e+003, 2.387047e-002
2.607287e+003, 2.387333e-002
2.609215e+003, 2.398353e-002
2.611144e+003, 2.424510e-002
2.613072e+003, 2.409499e-002
2.615001e+003, 2.450817e-002
2.616929e+003, 2.478314e-002
2.618858e+003, 2.471895e-002
2.620786e+003, 2.476085e-002
2.622715e+003, 2.482154e-002
2.624643e+003, 2.475652e-002
2.626572e+003, 2.448066e-002
2.628500e+003, 2.444865e-002
2.630428e+003, 2.469091e-002
2.632357e+003, 2.486251e-002
2.634285e+003, 2.487377e-002
2.636214e+003, 2.482398e-002
2.638142e+003, 2.464504e-002
2.640071e+003, 2.474217e-002
2.641999e+003, 2.480114e-002
2.643928e+003, 2.458771e-002
2.645856e+003, 2.463502e-002
2.647785e+003, 2.481066e-002
2.649713e+003, 2.497445e-002
2.651642e+003, 2.518101e-002
2.653570e+003, 2.522280e-002
2.655499e+003, 2.494360e-002
2.657427e+003, 2.480258e-002
2.659355e+003, 2.482645e-002
2.661284e+003, 2.496438e-002
2.663212e+003, 2.501876e-002
2.665141e+003, 2.500061e-002
2.667069e+003, 2.484266e-002
2.668998e+003, 2.497339e-002
2.670926e+003, 2.507754e-002
2.672855e+003, 2.506164e-002
2.674783e+003, 2.485363e-002
2.676712e+003, 2.479321e-002
2.678640e+003, 2.467400e-002
2.680569e+003, 2.467101e-002
2.682497e+003, 2.478364e-002
2.684426e+003, 2.481439e-002
2.686354e+003, 2.493934e-002
2.688282e+003, 2.503562e-002
2.690211e+003, 2.512072e-002
2.692139e+003, 2.509481e-002
2.694068e+003, 2.505782e-002
2.695996e+003, 2.529754e-002
2.697925e+003, 2.530817e-002
2.699853e+003, 2.505173e-002
2.701782e+003, 2.494198e-002
2.703710e+003, 2.513707e-002
2.705639e+003, 2.540497e-002
2.707567e+003, 2.550350e-002
2.709496e+003, 2.547874e-002
2.711424e+003, 2.540152e-002
2.713353e+003, 2.555502e-002
2.715281e+003, 2.577117e-002
2.717209e+003, 2.564089e-002
2.719138e+003, 2.521807e-002
2.721066e+003, 2.534679e-002
2.722995e+003, 2.575464e-002
2.724923e+003, 2.582993e-002
2.726852e+003, 2.590049e-002
2.728780e+003, 2.581857e-002
2.730709e+003, 2.566172e-002
2.732637e+003, 2.581855e-002
2.734566e+003, 2.580476e-002
2.736494e+003, 2.589737e-002
2.738423e+003, 2.614880e-002
2.740351e+003, 2.612102e-002
2.742280e+003, 2.599984e-002
2.744208e+003, 2.594586e-002
2.746136e+003, 2.586675e-002
2.748065e+003, 2.601828e-002
2.749993e+003, 2.606291e-002
2.751922e+003, 2.619071e-002
2.753850e+003, 2.640411e-002
2.755779e+003, 2.624800e-002
2.757707e+003, 2.629367e-002
2.759636e+003, 2.632207e-002
2.761564e+003, 2.637528e-002
2.763493e+003, 2.646925e-002
2.765421e+003, 2.658321e-002
2.767350e+003, 2.654140e-002
2.769278e+003, 2.654857e-002
2.771207e+003, 2.660961e-002
2.773135e+003, 2.669145e-002
2.775063e+003, 2.675357e-002
2.776992e+003, 2.679569e-002
2.778920e+003, 2.672189e-002
2.780849e+003, 2.699830e-002
2.782777e+003, 2.716848e-002
2.784706e+003, 2.724509e-002
2.786634e+003, 2.737928e-002
2.788563e+003, 2.750883e-002
2.790491e+003, 2.728097e-002
2.792420e+003, 2.701118e-002
2.794348e+003, 2.693509e-002
2.796277e+003, 2.676484e-002
2.798205e+003, 2.684169e-002
2.800134e+003, 2.718502e-002
2.802062e+003, 2.729881e-002
2.803990e+003, 2.730422e-002
2.805919e+003, 2.748153e-002
2.807847e+003, 2.756095e-002
2.809776e+003, 2.758277e-002
2.811704e+003, 2.733713e-002
2.813633e+003, 2.721873e-002
2.815561e+003, 2.730954e-002
2.817490e+003, 2.746717e-002
2.819418e+003, 2.767957e-002
2.821347e+003, 2.791349e-002
2.823275e+003, 2.791537e-002
2.825204e+003, 2.785566e-002
2.827132e+003, 2.788936e-002
2.829061e+003, 2.794562e-002
2.830989e+003, 2.779101e-002
2.832917e+003, 2.791184e-002
2.834846e+003, 2.780971e-002
2.836774e+003, 2.777127e-002
2.838703e+003, 2.782808e-002
2.840631e+003, 2.789091e-002
2.842560e+003, 2.824248e-002
2.844488e+003, 2.828104e-002
2.846417e+003, 2.764079e-002
2.848345e+003, 2.705527e-002
2.850274e+003, 2.685915e-002
2.852202e+003, 2.695549e-002
2.854131e+003, 2.713070e-002
2.856059e+003, 2.739738e-002
2.857988e+003, 2.771216e-002
2.859916e+003, 2.797897e-002
2.861844e+003, 2.804819e-002
2.863773e+003, 2.804170e-002
2.865701e+003, 2.806381e-002
2.867630e+003, 2.808779e-002
2.869558e+003, 2.827545e-002
2.871487e+003, 2.817710e-002
2.873415e+003, 2.820268e-002
2.875344e+003, 2.827201e-002
2.877272e+003, 2.843056e-002
2.879201e+003, 2.863536e-002
2.881129e+003, 2.854637e-002
2.883058e+003, 2.847541e-002
2.884986e+003, 2.869955e-002
2.886915e+003, 2.871348e-002
2.888843e+003, 2.851157e-002
2.890771e+003, 2.859855e-002
2.892700e+003, 2.853391e-002
2.894628e+003, 2.848372e-002
2.896557e+003, 2.863919e-002
2.898485e+003, 2.882443e-002
2.900414e+003, 2.876400e-002
2.902342e+003, 2.869952e-002
2.904271e+003, 2.898435e-002
2.906199e+003, 2.915034e-002
2.908128e+003, 2.891396e-002
2.910056e+003, 2.835374e-002
2.911985e+003, 2.802833e-002
2.913913e+003, 2.748441e-002
2.915842e+003, 2.731781e-002
2.917770e+003, 2.745645e-002
2.919698e+003, 2.760017e-002
2.921627e+003, 2.806460e-002
2.923555e+003, 2.831363e-002
2.925484e+003, 2.846912e-002
2.927412e+003, 2.861072e-002
2.929341e+003, 2.921580e-002
2.931269e+003, 2.959089e-002
2.933198e+003, 2.936481e-002
2.935126e+003, 2.885772e-002
2.937055e+003, 2.876622e-002
2.938983e+003, 2.922426e-002
2.940912e+003, 2.920918e-002
2.942840e+003, 2.903583e-002
2.944769e+003, 2.921361e-002
2.946697e+003, 2.883767e-002
2.948625e+003, 2.899118e-002
2.950554e+003, 2.949395e-002
2.952482e+003, 2.980800e-002
2.954411e+003, 2.992340e-002
2.956339e+003, 2.950568e-002
2.958268e+003, 2.911984e-002
2.960196e+003, 2.924279e-002
2.962125e+003, 2.951171e-002
2.964053e+003, 2.977083e-002
2.965982e+003, 2.947460e-002
2.967910e+003, 2.887580e-002
2.969839e+003, 2.914457e-002
2.971767e+003, 2.954106e-002
2.973696e+003, 2.935765e-002
2.975624e+003, 2.902357e-002
2.977552e+003, 2.911778e-002
2.979481e+003, 2.944012e-002
2.981409e+003, 2.926611e-002
2.983338e+003, 2.889961e-002
2.985266e+003, 2.882478e-002
2.987195e+003, 2.870439e-002
2.989123e+003, 2.918050e-002
2.991052e+003, 2.989708e-002
2.992980e+003, 2.985359e-002
2.994909e+003, 2.967326e-002
2.996837e+003, 2.954866e-002
2.998766e+003, 2.943041e-002
3.000694e+003, 2.891771e-002
3.002623e+003, 2.921854e-002
3.004551e+003, 3.004878e-002
3.006479e+003, 3.003283e-002
3.008408e+003, 2.977472e-002
3.010336e+003, 2.962600e-002
3.012265e+003, 2.928030e-002
3.014193e+003, 2.852118e-002
3.016122e+003, 2.752650e-002
3.018050e+003, 2.791784e-002
3.019979e+003, 2.974320e-002
3.021907e+003, 3.033458e-002
3.023836e+003, 3.019055e-002
3.025764e+003, 3.030936e-002
3.027693e+003, 3.045549e-002
3.029621e+003, 3.038001e-002
3.031550e+003, 3.028210e-002
3.033478e+003, 3.011105e-002
3.035406e+003, 3.011223e-002
3.037335e+003, 3.014611e-002
3.039263e+003, 3.062457e-002
3.041192e+003, 3.087259e-002
3.043120e+003, 3.063576e-002
3.045049e+003, 3.042683e-002
3.046977e+003, 3.051081e-002
3.048906e+003, 3.074665e-002
3.050834e+003, 3.098103e-002
3.052763e+003, 3.093843e-002
3.054691e+003, 3.068225e-002
3.056620e+003, 3.001198e-002
3.058548e+003, 3.005624e-002
3.060477e+003, 3.059043e-002
3.062405e+003, 3.066353e-002
3.064333e+003, 3.068973e-002
3.066262e+003, 3.067291e-002
3.068190e+003, 3.089491e-002
3.070119e+003, 3.120351e-002
3.072047e+003, 3.105050e-002
3.073976e+003, 3.130701e-002
3.075904e+003, 3.102396e-002
3.077833e+003, 3.112945e-002
3.079761e+003, 3.128301e-002
3.081690e+003, 3.111127e-002
3.083618e+003, 3.095585e-002
3.085547e+003, 3.048412e-002
3.087475e+003, 3.064523e-002
3.089404e+003, 3.103708e-002
3.091332e+003, 3.103000e-002
3.093260e+003, 3.124723e-002
3.095189e+003, 3.104612e-002
3.097117e+003, 3.115656e-002
3.099046e+003, 3.116391e-002
3.100974e+003, 3.151672e-002
3.102903e+003, 3.161876e-002
3.104831e+003, 3.114968e-002
3.106760e+003, 3.153613e-002
3.108688e+003, 3.215770e-002
3.110617e+003, 3.207596e-002
3.112545e+003, 3.147674e-002
3.114474e+003, 3.161269e-002
3.116402e+003, 3.230439e-002
3.118331e+003, 3.269251e-002
3.120259e+003, 3.239583e-002
3.122188e+003, 3.181825e-002
3.124116e+003, 3.199967e-002
3.126044e+003, 3.262894e-002
3.127973e+003, 3.282695e-002
3.129901e+003, 3.259546e-002
3.131830e+003, 3.266703e-002
3.133758e+003, 3.280313e-002
3.135687e+003, 3.242792e-002
3.137615e+003, 3.236157e-002
3.139544e+003, 3.219339e-002
3.141472e+003, 3.214895e-002
3.143401e+003, 3.272163e-002
3.145329e+003, 3.285032e-002
3.147258e+003, 3.259718e-002
3.149186e+003, 3.270109e-002
3.151115e+003, 3.302125e-002
3.153043e+003, 3.304310e-002
3.154971e+003, 3.260650e-002
3.156900e+003, 3.265432e-002
3.158828e+003, 3.289867e-002
3.160757e+003, 3.296878e-002
3.162685e+003, 3.305474e-002
3.164614e+003, 3.299236e-002
3.166542e+003, 3.299820e-002
3.168471e+003, 3.284698e-002
3.170399e+003, 3.323466e-002
3.172328e+003, 3.333353e-002
3.174256e+003, 3.292872e-002
3.176185e+003, 3.310335e-002
3.178113e+003, 3.331766e-002
3.180042e+003, 3.355283e-002
3.181970e+003, 3.382084e-002
3.183898e+003, 3.377089e-002
3.185827e+003, 3.341871e-002
3.187755e+003, 3.341182e-002
3.189684e+003, 3.361690e-002
3.191612e+003, 3.353847e-002
3.193541e+003, 3.292205e-002
3.195469e+003, 3.248596e-002
3.197398e+003, 3.275885e-002
3.199326e+003, 3.312786e-002
3.201255e+003, 3.367545e-002
3.203183e+003, 3.409229e-002
3.205112e+003, 3.405726e-002
3.207040e+003, 3.405002e-002
3.208969e+003, 3.415216e-002
3.210897e+003, 3.373941e-002
3.212825e+003, 3.334472e-002
3.214754e+003, 3.366831e-002
3.216682e+003, 3.394176e-002
3.218611e+003, 3.379106e-002
3.220539e+003, 3.390975e-002
3.222468e+003, 3.477103e-002
3.224396e+003, 3.492013e-002
3.226325e+003, 3.437150e-002
3.228253e+003, 3.426328e-002
3.230182e+003, 3.431353e-002
3.232110e+003, 3.438719e-002
3.234039e+003, 3.394222e-002
3.235967e+003, 3.419935e-002
3.237896e+003, 3.480854e-002
3.239824e+003, 3.461554e-002
3.241752e+003, 3.398024e-002
3.243681e+003, 3.385850e-002
3.245609e+003, 3.424786e-002
3.247538e+003, 3.390194e-002
3.249466e+003, 3.354865e-002
3.251395e+003, 3.371610e-002
3.253323e+003, 3.401527e-002
3.255252e+003, 3.462591e-002
3.257180e+003, 3.475233e-002
3.259109e+003, 3.409062e-002
3.261037e+003, 3.387522e-002
3.262966e+003, 3.445050e-002
3.264894e+003, 3.448077e-002
3.266823e+003, 3.424746e-002
3.268751e+003, 3.419362e-002
3.270679e+003, 3.432420e-002
3.272608e+003, 3.442757e-002
3.274536e+003, 3.438411e-002
3.276465e+003, 3.413208e-002
3.278393e+003, 3.408056e-002
3.280322e+003, 3.426465e-002
3.282250e+003, 3.395647e-002
3.284179e+003, 3.375641e-002
3.286107e+003, 3.412047e-002
3.288036e+003, 3.420024e-002
3.289964e+003, 3.422171e-002
3.291893e+003, 3.414305e-002
3.293821e+003, 3.425489e-002
3.295750e+003, 3.474762e-002
3.297678e+003, 3.506839e-002
3.299606e+003, 3.500973e-002
3.301535e+003, 3.442865e-002
3.303463e+003, 3.405412e-002
3.305392e+003, 3.435535e-002
3.307320e+003, 3.431876e-002
3.309249e+003, 3.367541e-002
3.311177e+003, 3.401207e-002
3.313106e+003, 3.446181e-002
3.315034e+003, 3.462245e-002
3.316963e+003, 3.470254e-002
3.318891e+003, 3.478561e-002
3.320820e+003, 3.491828e-002
3.322748e+003, 3.486935e-002
3.324677e+003, 3.465302e-002
3.326605e+003, 3.449615e-002
3.328533e+003, 3.453880e-002
3.330462e+003, 3.494295e-002
3.332390e+003, 3.474042e-002
3.334319e+003, 3.446752e-002
3.336247e+003, 3.471563e-002
3.338176e+003, 3.510285e-002
3.340104e+003, 3.504585e-002
3.342033e+003, 3.470171e-002
3.343961e+003, 3.430210e-002
3.345890e+003, 3.409279e-002
3.347818e+003, 3.428489e-002
3.349747e+003, 3.472349e-002
3.351675e+003, 3.502369e-002
3.353604e+003, 3.437955e-002
3.355532e+003, 3.440656e-002
3.357460e+003, 3.464498e-002
3.359389e+003, 3.419653e-002
3.361317e+003, 3.441051e-002
3.363246e+003, 3.508112e-002
3.365174e+003, 3.513727e-002
3.367103e+003, 3.517791e-002
3.369031e+003, 3.524226e-002
3.370960e+003, 3.503095e-002
3.372888e+003, 3.489344e-002
3.374817e+003, 3.498296e-002
3.376745e+003, 3.505101e-002
3.378674e+003, 3.476660e-002
3.380602e+003, 3.461400e-002
3.382531e+003, 3.457368e-002
3.384459e+003, 3.470378e-002
3.386387e+003, 3.458105e-002
3.388316e+003, 3.401072e-002
3.390244e+003, 3.406243e-002
3.392173e+003, 3.474847e-002
3.394101e+003, 3.507481e-002
3.396030e+003, 3.458062e-002
3.397958e+003, 3.447608e-002
3.399887e+003, 3.472577e-002
3.401815e+003, 3.452745e-002
3.403744e+003, 3.446799e-002
3.405672e+003, 3.459940e-002
3.407601e+003, 3.469740e-002
3.409529e+003, 3.457984e-002
3.411458e+003, 3.436055e-002
3.413386e+003, 3.412898e-002
3.415314e+003, 3.416153e-002
3.417243e+003, 3.444227e-002
3.419171e+003, 3.448404e-002
3.421100e+003, 3.456840e-002
3.423028e+003, 3.490049e-002
3.424957e+003, 3.508762e-002
3.426885e+003, 3.510116e-002
3.428814e+003, 3.480765e-002
3.430742e+003, 3.383052e-002
3.432671e+003, 3.413003e-002
3.434599e+003, 3.472292e-002
3.436528e+003, 3.461044e-002
3.438456e+003, 3.456019e-002
3.440385e+003, 3.457929e-002
3.442313e+003, 3.465289e-002
3.444241e+003, 3.494615e-002
3.446170e+003, 3.513143e-002
3.448098e+003, 3.532530e-002
3.450027e+003, 3.556974e-002
3.451955e+003, 3.550968e-002
3.453884e+003, 3.510369e-002
3.455812e+003, 3.522065e-002
3.457741e+003, 3.495936e-002
3.459669e+003, 3.440682e-002
3.461598e+003, 3.475420e-002
3.463526e+003, 3.529633e-002
3.465455e+003, 3.514877e-002
3.467383e+003, 3.501070e-002
3.469312e+003, 3.514084e-002
3.471240e+003, 3.483461e-002
3.473168e+003, 3.461462e-002
3.475097e+003, 3.438863e-002
3.477025e+003, 3.457315e-002
3.478954e+003, 3.470111e-002
3.480882e+003, 3.519478e-002
3.482811e+003, 3.562720e-002
3.484739e+003, 3.465670e-002
3.486668e+003, 3.410621e-002
3.488596e+003, 3.390041e-002
3.490525e+003, 3.404754e-002
3.492453e+003, 3.438988e-002
3.494382e+003, 3.419920e-002
3.496310e+003, 3.382554e-002
3.498239e+003, 3.382992e-002
3.500167e+003, 3.405641e-002
3.502095e+003, 3.434924e-002
3.504024e+003, 3.480684e-002
3.505952e+003, 3.491590e-002
3.507881e+003, 3.474872e-002
3.509809e+003, 3.496493e-002
3.511738e+003, 3.498788e-002
3.513666e+003, 3.475322e-002
3.515595e+003, 3.429778e-002
3.517523e+003, 3.420999e-002
3.519452e+003, 3.441401e-002
3.521380e+003, 3.424191e-002
3.523309e+003, 3.459777e-002
3.525237e+003, 3.486697e-002
3.527166e+003, 3.470583e-002
3.529094e+003, 3.458672e-002
3.531022e+003, 3.410881e-002
3.532951e+003, 3.390560e-002
3.534879e+003, 3.411972e-002
3.536808e+003, 3.432880e-002
3.538736e+003, 3.359024e-002
3.540665e+003, 3.351929e-002
3.542593e+003, 3.416154e-002
3.544522e+003, 3.384919e-002
3.546450e+003, 3.409350e-002
3.548379e+003, 3.482772e-002
3.550307e+003, 3.449529e-002
3.552236e+003, 3.374482e-002
3.554164e+003, 3.354068e-002
3.556093e+003, 3.338747e-002
3.558021e+003, 3.333723e-002
3.559949e+003, 3.349047e-002
3.561878e+003, 3.348866e-002
3.563806e+003, 3.365660e-002
3.565735e+003, 3.347084e-002
3.567663e+003, 3.317716e-002
3.569592e+003, 3.303072e-002
3.571520e+003, 3.312636e-002
3.573449e+003, 3.339290e-002
3.575377e+003, 3.284669e-002
3.577306e+003, 3.232692e-002
3.579234e+003, 3.298812e-002
3.581163e+003, 3.315723e-002
3.583091e+003, 3.295371e-002
3.585020e+003, 3.280033e-002
3.586948e+003, 3.270382e-002
3.588876e+003, 3.234690e-002
3.590805e+003, 3.178394e-002
3.592733e+003, 3.212136e-002
3.594662e+003, 3.296149e-002
3.596590e+003, 3.289490e-002
3.598519e+003, 3.244925e-002
3.600447e+003, 3.292886e-002
3.602376e+003, 3.301313e-002
3.604304e+003, 3.273011e-002
3.606233e+003, 3.275733e-002
3.608161e+003, 3.289760e-002
3.610090e+003, 3.258342e-002
3.612018e+003, 3.231804e-002
3.613947e+003, 3.291864e-002
3.615875e+003, 3.272733e-002
3.617803e+003, 3.247242e-002
3.619732e+003, 3.265939e-002
3.621660e+003, 3.268151e-002
3.623589e+003, 3.317628e-002
3.625517e+003, 3.378276e-002
3.627446e+003, 3.334553e-002
3.629374e+003, 3.233905e-002
3.631303e+003, 3.231970e-002
3.633231e+003, 3.303796e-002
3.635160e+003, 3.326466e-002
3.637088e+003, 3.328853e-002
3.639017e+003, 3.310346e-002
3.640945e+003, 3.255018e-002
3.642874e+003, 3.189651e-002
3.644802e+003, 3.128760e-002
3.646730e+003, 3.137559e-002
3.648659e+003, 3.188940e-002
3.650587e+003, 3.170765e-002
3.652516e+003, 3.143707e-002
3.654444e+003, 3.151178e-002
3.656373e+003, 3.153973e-002
3.658301e+003, 3.175427e-002
3.660230e+003, 3.146007e-002
3.662158e+003, 3.104817e-002
3.664087e+003, 3.122492e-002
3.666015e+003, 3.124663e-002
3.667944e+003, 3.153470e-002
3.669872e+003, 3.226033e-002
3.671801e+003, 3.270334e-002
3.673729e+003, 3.238494e-002
3.675657e+003, 3.183536e-002
3.677586e+003, 3.132940e-002
3.679514e+003, 3.133447e-002
3.681443e+003, 3.165687e-002
3.683371e+003, 3.186088e-002
3.685300e+003, 3.189531e-002
3.687228e+003, 3.103593e-002
3.689157e+003, 3.126834e-002
3.691085e+003, 3.187986e-002
3.693014e+003, 3.193391e-002
3.694942e+003, 3.205755e-002
3.696871e+003, 3.178898e-002
3.698799e+003, 3.177426e-002
3.700728e+003, 3.219918e-002
3.702656e+003, 3.242117e-002
3.704584e+003, 3.215286e-002
3.706513e+003, 3.170979e-002
3.708441e+003, 3.049521e-002
3.710370e+003, 3.035004e-002
3.712298e+003, 3.082318e-002
3.714227e+003, 3.091492e-002
3.716155e+003, 3.064953e-002
3.718084e+003, 3.098069e-002
3.720012e+003, 3.173051e-002
3.721941e+003, 3.254433e-002
3.723869e+003, 3.207301e-002
3.725798e+003, 3.203832e-002
3.727726e+003, 3.227080e-002
3.729655e+003, 3.134449e-002
3.731583e+003, 3.059077e-002
3.733511e+003, 3.142120e-002
3.735440e+003, 3.158692e-002
3.737368e+003, 3.102099e-002
3.739297e+003, 3.103407e-002
3.741225e+003, 3.169598e-002
3.743154e+003, 3.159102e-002
3.745082e+003, 3.171990e-002
3.747011e+003, 3.184333e-002
3.748939e+003, 3.214120e-002
3.750868e+003, 3.224900e-002
3.752796e+003, 3.162433e-002
3.754725e+003, 3.150106e-002
3.756653e+003, 3.156380e-002
3.758582e+003, 3.084680e-002
3.760510e+003, 3.109741e-002
3.762438e+003, 3.184449e-002
3.764367e+003, 3.139883e-002
3.766295e+003, 3.075495e-002
3.768224e+003, 3.070505e-002
3.770152e+003, 3.118719e-002
3.772081e+003, 3.147208e-002
3.774009e+003, 3.213355e-002
3.775938e+003, 3.293840e-002
3.777866e+003, 3.233159e-002
3.779795e+003, 3.126083e-002
3.781723e+003, 3.114461e-002
3.783652e+003, 3.155558e-002
3.785580e+003, 3.158473e-002
3.787509e+003, 3.137990e-002
3.789437e+003, 3.183324e-002
3.791365e+003, 3.239437e-002
3.793294e+003, 3.222935e-002
3.795222e+003, 3.218586e-002
3.797151e+003, 3.254659e-002
3.799079e+003, 3.268754e-002
3.801008e+003, 3.235604e-002
3.802936e+003, 3.166138e-002
3.804865e+003, 3.154200e-002
3.806793e+003, 3.195556e-002
3.808722e+003, 3.243269e-002
3.810650e+003, 3.290382e-002
3.812579e+003, 3.273726e-002
3.814507e+003, 3.233787e-002
3.816436e+003, 3.220261e-002
3.818364e+003, 3.198711e-002
3.820292e+003, 3.201605e-002
3.822221e+003, 3.229344e-002
3.824149e+003, 3.287935e-002
3.826078e+003, 3.277091e-002
3.828006e+003, 3.286906e-002
3.829935e+003, 3.302841e-002
3.831863e+003, 3.227362e-002
3.833792e+003, 3.162507e-002
3.835720e+003, 3.157455e-002
3.837649e+003, 3.161466e-002
3.839577e+003, 3.214163e-002
3.841506e+003, 3.245431e-002
3.843434e+003, 3.202439e-002
3.845363e+003, 3.166166e-002
3.847291e+003, 3.281587e-002
3.849219e+003, 3.358237e-002
3.851148e+003, 3.285117e-002
3.853076e+003, 3.243348e-002
3.855005e+003, 3.191535e-002
3.856933e+003, 3.160052e-002
3.858862e+003, 3.170937e-002
3.860790e+003, 3.154391e-002
3.862719e+003, 3.200605e-002
3.864647e+003, 3.296125e-002
3.866576e+003, 3.312733e-002
3.868504e+003, 3.296504e-002
3.870433e+003, 3.303513e-002
3.872361e+003, 3.287941e-002
3.874290e+003, 3.269476e-002
3.876218e+003, 3.244394e-002
3.878146e+003, 3.283768e-002
3.880075e+003, 3.291618e-002
3.882003e+003, 3.282947e-002
3.883932e+003, 3.306707e-002
3.885860e+003, 3.277499e-002
3.887789e+003, 3.245325e-002
3.889717e+003, 3.332858e-002
3.891646e+003, 3.368842e-002
3.893574e+003, 3.338116e-002
3.895503e+003, 3.272922e-002
3.897431e+003, 3.319605e-002
3.899360e+003, 3.357239e-002
3.901288e+003, 3.286583e-002
3.903217e+003, 3.342020e-002
3.905145e+003, 3.343964e-002
3.907073e+003, 3.306541e-002
3.909002e+003, 3.367857e-002
3.910930e+003, 3.353925e-002
3.912859e+003, 3.366571e-002
3.914787e+003, 3.367335e-002
3.916716e+003, 3.318214e-002
3.918644e+003, 3.288556e-002
3.920573e+003, 3.278497e-002
3.922501e+003, 3.319204e-002
3.924430e+003, 3.357573e-002
3.926358e+003, 3.340252e-002
3.928287e+003, 3.328943e-002
3.930215e+003, 3.313373e-002
3.932144e+003, 3.262524e-002
3.934072e+003, 3.261817e-002
3.936000e+003, 3.302253e-002
3.937929e+003, 3.370003e-002
3.939857e+003, 3.375078e-002
3.941786e+003, 3.305416e-002
3.943714e+003, 3.268288e-002
3.945643e+003, 3.324107e-002
3.947571e+003, 3.329751e-002
3.949500e+003, 3.278151e-002
3.951428e+003, 3.237005e-002
3.953357e+003, 3.243968e-002
3.955285e+003, 3.281152e-002
3.957214e+003, 3.335515e-002
3.959142e+003, 3.382989e-002
3.961071e+003, 3.436720e-002
3.962999e+003, 3.435853e-002
3.964927e+003, 3.382562e-002
3.966856e+003, 3.383850e-002
3.968784e+003, 3.337562e-002
3.970713e+003, 3.373249e-002
3.972641e+003, 3.391499e-002
3.974570e+003, 3.360517e-002
3.976498e+003, 3.373572e-002
3.978427e+003, 3.391561e-002
3.980355e+003, 3.402382e-002
3.982284e+003, 3.396178e-002
3.984212e+003, 3.320512e-002
3.986141e+003, 3.312903e-002
3.988069e+003, 3.354172e-002
3.989998e+003, 3.423396e-002
3.991926e+003, 3.487829e-002
3.993854e+003, 3.467835e-002
3.995783e+003, 3.441733e-002
3.997711e+003, 3.411758e-002
3.999640e+003, 3.364113e-002
##END=



