##NAMES=Analcime
##RRUFFID=R040128
##IDEAL CHEMISTRY=NaAlSi_2_O_6_&#183;H_2_O
##LOCALITY=Mont Saint-Hilaire, Rouville County, Quebec, Canada
##OWNER=RRUFF
##SOURCE=Bob Downs
##DESCRIPTION=White trapezohedra associated with black arfvedsonite, R040127
##STATUS=The identification of this mineral has been confirmed by X-ray diffraction and chemical analysis
##URL=rruff.info/R040128
##MEASURED CHEMISTRY=Na_0.93_(Si_2.04_Al_0.99_)O_6_Â·H_2_O
399.1926, 0.169908
401.1211, 0.160073
403.0496, 0.160843
404.9780, 0.164088
406.9065, 0.167410
408.8350, 0.171591
410.7634, 0.172776
412.6919, 0.173088
414.6204, 0.174325
416.5488, 0.175386
418.4773, 0.175258
420.4058, 0.176139
422.3342, 0.180738
424.2627, 0.185955
426.1912, 0.188097
428.1196, 0.187672
430.0481, 0.189971
431.9766, 0.194906
433.9050, 0.199284
435.8335, 0.199325
437.7620, 0.197466
439.6904, 0.196285
441.6189, 0.193951
443.5474, 0.190282
445.4758, 0.184875
447.4043, 0.176768
449.3328, 0.167675
451.2612, 0.158291
453.1897, 0.150119
455.1182, 0.141547
457.0466, 0.132163
458.9751, 0.123105
460.9036, 0.114254
462.8320, 0.107004
464.7605, 0.100660
466.6890, 0.094821
468.6174, 0.089513
470.5459, 0.085277
472.4744, 0.080851
474.4028, 0.077409
476.3313, 0.073569
478.2598, 0.069467
480.1882, 0.066662
482.1167, 0.064958
484.0452, 0.063635
485.9736, 0.062382
487.9021, 0.060870
489.8306, 0.059671
491.7590, 0.058506
493.6875, 0.056615
495.6160, 0.054729
497.5444, 0.053328
499.4729, 0.051797
501.4014, 0.050427
503.3298, 0.049543
505.2583, 0.049020
507.1868, 0.048783
509.1152, 0.048264
511.0437, 0.047379
512.9722, 0.046586
514.9006, 0.045542
516.8291, 0.044882
518.7576, 0.044420
520.6860, 0.044083
522.6145, 0.043618
524.5430, 0.042662
526.4714, 0.041723
528.3999, 0.041495
530.3284, 0.041418
532.2568, 0.040662
534.1853, 0.039974
536.1138, 0.039507
538.0422, 0.039294
539.9707, 0.039173
541.8992, 0.038789
543.8276, 0.038530
545.7561, 0.038813
547.6846, 0.038686
549.6130, 0.038021
551.5415, 0.037495
553.4700, 0.036971
555.3984, 0.036671
557.3269, 0.036507
559.2554, 0.036112
561.1838, 0.036001
563.1123, 0.035430
565.0408, 0.034920
566.9692, 0.034766
568.8977, 0.034912
570.8262, 0.034787
572.7546, 0.034292
574.6831, 0.034274
576.6116, 0.034482
578.5400, 0.034702
580.4685, 0.035123
582.3970, 0.035313
584.3254, 0.035328
586.2539, 0.035796
588.1824, 0.036368
590.1108, 0.036482
592.0393, 0.036860
593.9678, 0.037749
595.8962, 0.038837
597.8247, 0.039362
599.7532, 0.039783
601.6816, 0.040138
603.6101, 0.040620
605.5386, 0.041614
607.4670, 0.042577
609.3955, 0.043077
611.3240, 0.043803
613.2524, 0.044131
615.1809, 0.043754
617.1094, 0.043328
619.0378, 0.043122
620.9663, 0.042737
622.8948, 0.042043
624.8232, 0.041424
626.7517, 0.040413
628.6802, 0.039256
630.6086, 0.038732
632.5371, 0.038300
634.4656, 0.037478
636.3940, 0.036685
638.3225, 0.036316
640.2510, 0.035792
642.1794, 0.035069
644.1079, 0.034443
646.0364, 0.033784
647.9648, 0.033293
649.8933, 0.032879
651.8218, 0.033007
653.7502, 0.033564
655.6787, 0.034075
657.6072, 0.034529
659.5356, 0.035035
661.4641, 0.036000
663.3926, 0.036705
665.3210, 0.037452
667.2495, 0.038138
669.1780, 0.038428
671.1064, 0.038413
673.0349, 0.038694
674.9634, 0.038911
676.8918, 0.039326
678.8203, 0.040089
680.7488, 0.041217
682.6772, 0.042556
684.6057, 0.044167
686.5342, 0.045912
688.4626, 0.048040
690.3911, 0.049967
692.3196, 0.051755
694.2480, 0.053427
696.1765, 0.054441
698.1050, 0.054838
700.0334, 0.055375
701.9619, 0.056220
703.8904, 0.057541
705.8188, 0.059121
707.7473, 0.060738
709.6758, 0.062620
711.6042, 0.064753
713.5327, 0.066810
715.4612, 0.069173
717.3896, 0.071728
719.3181, 0.074135
721.2466, 0.076866
723.1750, 0.080338
725.1035, 0.083608
727.0320, 0.086772
728.9604, 0.089018
730.8889, 0.089821
732.8174, 0.090252
734.7458, 0.090948
736.6743, 0.091197
738.6028, 0.090626
740.5313, 0.089614
742.4597, 0.088087
744.3882, 0.085164
746.3167, 0.081338
748.2451, 0.077694
750.1736, 0.074435
752.1021, 0.071920
754.0305, 0.070673
755.9590, 0.070436
757.8875, 0.070918
759.8159, 0.072069
761.7444, 0.073420
763.6729, 0.074200
765.6013, 0.074072
767.5298, 0.072484
769.4583, 0.069149
771.3867, 0.064551
773.3152, 0.059075
775.2437, 0.053098
777.1721, 0.047441
779.1006, 0.042719
781.0291, 0.038728
782.9575, 0.035119
784.8860, 0.032167
786.8145, 0.029934
788.7429, 0.027832
790.6714, 0.025936
792.5999, 0.024173
794.5283, 0.022738
796.4568, 0.021474
798.3853, 0.020368
800.3137, 0.019331
802.2422, 0.018478
804.1707, 0.017952
806.0991, 0.017543
808.0276, 0.017155
809.9561, 0.016925
811.8845, 0.016999
813.8130, 0.017143
815.7415, 0.017160
817.6699, 0.017322
819.5984, 0.017742
821.5269, 0.017993
823.4553, 0.017993
825.3838, 0.018001
827.3123, 0.018255
829.2407, 0.018871
831.1692, 0.019518
833.0977, 0.020107
835.0261, 0.020936
836.9546, 0.021754
838.8831, 0.022521
840.8115, 0.023233
842.7400, 0.023749
844.6685, 0.023875
846.5969, 0.023844
848.5254, 0.023920
850.4539, 0.024266
852.3823, 0.024376
854.3108, 0.024622
856.2393, 0.025135
858.1677, 0.025665
860.0962, 0.026096
862.0247, 0.026763
863.9531, 0.027608
865.8816, 0.028436
867.8101, 0.029594
869.7385, 0.030674
871.6670, 0.031575
873.5955, 0.032602
875.5239, 0.033670
877.4524, 0.034872
879.3809, 0.036196
881.3093, 0.037458
883.2378, 0.038846
885.1663, 0.040480
887.0947, 0.042229
889.0232, 0.044196
890.9517, 0.046439
892.8801, 0.048724
894.8085, 0.050638
896.7370, 0.052919
898.6655, 0.055578
900.5939, 0.058499
902.5224, 0.061576
904.4509, 0.064823
906.3793, 0.068167
908.3078, 0.071702
910.2363, 0.075762
912.1647, 0.079770
914.0932, 0.083638
916.0217, 0.087553
917.9501, 0.091372
919.8786, 0.095107
921.8071, 0.098808
923.7355, 0.102489
925.6640, 0.106140
927.5925, 0.109927
929.5209, 0.114120
931.4494, 0.118509
933.3779, 0.123038
935.3063, 0.128035
937.2348, 0.133704
939.1633, 0.139823
941.0917, 0.146727
943.0202, 0.154338
944.9487, 0.161940
946.8771, 0.170000
948.8056, 0.178918
950.7341, 0.188191
952.6625, 0.197574
954.5910, 0.207436
956.5195, 0.217768
958.4479, 0.227867
960.3764, 0.237901
962.3049, 0.247888
964.2333, 0.257905
966.1618, 0.267747
968.0903, 0.276719
970.0187, 0.285101
971.9472, 0.292555
973.8757, 0.298387
975.8041, 0.303079
977.7326, 0.306595
979.6611, 0.308673
981.5895, 0.309583
983.5180, 0.310070
985.4465, 0.310114
987.3749, 0.309876
989.3034, 0.310087
991.2319, 0.310402
993.1603, 0.310337
995.0888, 0.309752
997.0173, 0.308974
998.9457, 0.308271
1000.8740, 0.307280
1002.8030, 0.305850
1004.7310, 0.304115
1006.6600, 0.302169
1008.5880, 0.299832
1010.5170, 0.297160
1012.4450, 0.294263
1014.3730, 0.290955
1016.3020, 0.286843
1018.2300, 0.282124
1020.1590, 0.277415
1022.0870, 0.272944
1024.0160, 0.268137
1025.9440, 0.263351
1027.8730, 0.259237
1029.8010, 0.254904
1031.7300, 0.250210
1033.6580, 0.245483
1035.5870, 0.240789
1037.5150, 0.235936
1039.4440, 0.230442
1041.3720, 0.224009
1043.3010, 0.217158
1045.2290, 0.210289
1047.1570, 0.203163
1049.0860, 0.195716
1051.0140, 0.188536
1052.9430, 0.181417
1054.8710, 0.174260
1056.8000, 0.167395
1058.7280, 0.160831
1060.6570, 0.154117
1062.5850, 0.147608
1064.5140, 0.141430
1066.4420, 0.135615
1068.3710, 0.130448
1070.2990, 0.125397
1072.2280, 0.120690
1074.1560, 0.116601
1076.0840, 0.112927
1078.0130, 0.109421
1079.9410, 0.106348
1081.8700, 0.103727
1083.7980, 0.101653
1085.7270, 0.099851
1087.6550, 0.098611
1089.5840, 0.097805
1091.5120, 0.097030
1093.4410, 0.096128
1095.3690, 0.095323
1097.2980, 0.094400
1099.2260, 0.093289
1101.1550, 0.092150
1103.0830, 0.091027
1105.0110, 0.089743
1106.9400, 0.088323
1108.8680, 0.086933
1110.7970, 0.085496
1112.7250, 0.084046
1114.6540, 0.082538
1116.5820, 0.080856
1118.5110, 0.078962
1120.4390, 0.077006
1122.3680, 0.074816
1124.2960, 0.072500
1126.2250, 0.069990
1128.1530, 0.067494
1130.0820, 0.065218
1132.0100, 0.063076
1133.9380, 0.060943
1135.8670, 0.058565
1137.7950, 0.056452
1139.7240, 0.054532
1141.6520, 0.052616
1143.5810, 0.050735
1145.5090, 0.048666
1147.4380, 0.046644
1149.3660, 0.044541
1151.2950, 0.042624
1153.2230, 0.040974
1155.1520, 0.039359
1157.0800, 0.037761
1159.0090, 0.036171
1160.9370, 0.034389
1162.8650, 0.032778
1164.7940, 0.031213
1166.7220, 0.029637
1168.6510, 0.027928
1170.5790, 0.026238
1172.5080, 0.024832
1174.4360, 0.023511
1176.3650, 0.022045
1178.2930, 0.020752
1180.2220, 0.019469
1182.1500, 0.018234
1184.0790, 0.017232
1186.0070, 0.016294
1187.9360, 0.015339
1189.8640, 0.014596
1191.7920, 0.013934
1193.7210, 0.013189
1195.6490, 0.012426
1197.5780, 0.011754
1199.5060, 0.011181
1201.4350, 0.010692
1203.3630, 0.010125
1205.2920, 0.009630
1207.2200, 0.009089
1209.1490, 0.008579
1211.0770, 0.008023
1213.0060, 0.007714
1214.9340, 0.007404
1216.8630, 0.007054
1218.7910, 0.006726
1220.7190, 0.006485
1222.6480, 0.006270
1224.5760, 0.005829
1226.5050, 0.005398
1228.4330, 0.005054
1230.3620, 0.004870
1232.2900, 0.004873
1234.2190, 0.004872
1236.1470, 0.004654
1238.0760, 0.004455
1240.0040, 0.004178
1241.9330, 0.003998
1243.8610, 0.003946
1245.7900, 0.003610
1247.7180, 0.003402
1249.6460, 0.003343
1251.5750, 0.003211
1253.5030, 0.003192
1255.4320, 0.003087
1257.3600, 0.002839
1259.2890, 0.002650
1261.2170, 0.002565
1263.1460, 0.002506
1265.0740, 0.002347
1267.0030, 0.002263
1268.9310, 0.002308
1270.8600, 0.002346
1272.7880, 0.002222
1274.7170, 0.002162
1276.6450, 0.002281
1278.5730, 0.002479
1280.5020, 0.002326
1282.4300, 0.002168
1284.3590, 0.002123
1286.2870, 0.002098
1288.2160, 0.002100
1290.1440, 0.002113
1292.0730, 0.001821
1294.0010, 0.001716
1295.9300, 0.001983
1297.8580, 0.002080
1299.7870, 0.001985
1301.7150, 0.001843
1303.6440, 0.001809
1305.5720, 0.001844
1307.5000, 0.001824
1309.4290, 0.001621
1311.3570, 0.001786
1313.2860, 0.001795
1315.2140, 0.001678
1317.1430, 0.001796
1319.0710, 0.001764
1321.0000, 0.001739
1322.9280, 0.001740
1324.8570, 0.001691
1326.7850, 0.001719
1328.7140, 0.001844
1330.6420, 0.001771
1332.5710, 0.001762
1334.4990, 0.001839
1336.4270, 0.001864
1338.3560, 0.001808
1340.2840, 0.001799
1342.2130, 0.001784
1344.1410, 0.001820
1346.0700, 0.001933
1347.9980, 0.001877
1349.9270, 0.001597
1351.8550, 0.001548
1353.7840, 0.001795
1355.7120, 0.001881
1357.6410, 0.001726
1359.5690, 0.001783
1361.4980, 0.001836
1363.4260, 0.001978
1365.3540, 0.002063
1367.2830, 0.002074
1369.2110, 0.002043
1371.1400, 0.002067
1373.0680, 0.002233
1374.9970, 0.002129
1376.9250, 0.001921
1378.8540, 0.002077
1380.7820, 0.002115
1382.7110, 0.001993
1384.6390, 0.002150
1386.5680, 0.002348
1388.4960, 0.002383
1390.4240, 0.002404
1392.3530, 0.002520
1394.2810, 0.002672
1396.2100, 0.002776
1398.1380, 0.002624
1400.0670, 0.002476
1401.9950, 0.002651
1403.9240, 0.002622
1405.8520, 0.002464
1407.7810, 0.002606
1409.7090, 0.002711
1411.6380, 0.002688
1413.5660, 0.003107
1415.4950, 0.003246
1417.4230, 0.003060
1419.3510, 0.003161
1421.2800, 0.003132
1423.2080, 0.003057
1425.1370, 0.003252
1427.0650, 0.003497
1428.9940, 0.003532
1430.9220, 0.003444
1432.8510, 0.003495
1434.7790, 0.003559
1436.7080, 0.003638
1438.6360, 0.003876
1440.5650, 0.004213
1442.4930, 0.004344
1444.4220, 0.004305
1446.3500, 0.004434
1448.2780, 0.004551
1450.2070, 0.004306
1452.1350, 0.003947
1454.0640, 0.003826
1455.9920, 0.004183
1457.9210, 0.004071
1459.8490, 0.003940
1461.7780, 0.004016
1463.7060, 0.004065
1465.6350, 0.004030
1467.5630, 0.003937
1469.4920, 0.004062
1471.4200, 0.004279
1473.3490, 0.004397
1475.2770, 0.004326
1477.2050, 0.004040
1479.1340, 0.003838
1481.0620, 0.003931
1482.9910, 0.003826
1484.9190, 0.003615
1486.8480, 0.003579
1488.7760, 0.003826
1490.7050, 0.004019
1492.6330, 0.003985
1494.5620, 0.003886
1496.4900, 0.003999
1498.4190, 0.003983
1500.3470, 0.003850
1502.2760, 0.003797
1504.2040, 0.003920
1506.1320, 0.004238
1508.0610, 0.004170
1509.9890, 0.004137
1511.9180, 0.004269
1513.8460, 0.004106
1515.7750, 0.003692
1517.7030, 0.003766
1519.6320, 0.004200
1521.5600, 0.004240
1523.4890, 0.003849
1525.4170, 0.003629
1527.3460, 0.003568
1529.2740, 0.003770
1531.2030, 0.003874
1533.1310, 0.003938
1535.0590, 0.003924
1536.9880, 0.004079
1538.9160, 0.004359
1540.8450, 0.004359
1542.7730, 0.004394
1544.7020, 0.004520
1546.6300, 0.004369
1548.5590, 0.004088
1550.4870, 0.004109
1552.4160, 0.004296
1554.3440, 0.004406
1556.2730, 0.004523
1558.2010, 0.004838
1560.1300, 0.004863
1562.0580, 0.004500
1563.9860, 0.004483
1565.9150, 0.004567
1567.8430, 0.004692
1569.7720, 0.004798
1571.7000, 0.004600
1573.6290, 0.004514
1575.5570, 0.004789
1577.4860, 0.004840
1579.4140, 0.004675
1581.3430, 0.004366
1583.2710, 0.004448
1585.2000, 0.004718
1587.1280, 0.004817
1589.0570, 0.004742
1590.9850, 0.004750
1592.9130, 0.004971
1594.8420, 0.005288
1596.7700, 0.005479
1598.6990, 0.005672
1600.6270, 0.005941
1602.5560, 0.006292
1604.4840, 0.006734
1606.4130, 0.007038
1608.3410, 0.007313
1610.2700, 0.007989
1612.1980, 0.008826
1614.1270, 0.009948
1616.0550, 0.011587
1617.9840, 0.013630
1619.9120, 0.015739
1621.8400, 0.018255
1623.7690, 0.020776
1625.6970, 0.022935
1627.6260, 0.024897
1629.5540, 0.026653
1631.4830, 0.027292
1633.4110, 0.026400
1635.3400, 0.024608
1637.2680, 0.022208
1639.1970, 0.019475
1641.1250, 0.017111
1643.0540, 0.015141
1644.9820, 0.013317
1646.9110, 0.011873
1648.8390, 0.011047
1650.7670, 0.010284
1652.6960, 0.009687
1654.6240, 0.008837
1656.5530, 0.007732
1658.4810, 0.006922
1660.4100, 0.006340
1662.3380, 0.006091
1664.2670, 0.005858
1666.1950, 0.005547
1668.1240, 0.005004
1670.0520, 0.004948
1671.9810, 0.004899
1673.9090, 0.004698
1675.8380, 0.004450
1677.7660, 0.004036
1679.6940, 0.003880
1681.6230, 0.003734
1683.5510, 0.003643
1685.4800, 0.003388
1687.4080, 0.003444
1689.3370, 0.003583
1691.2650, 0.003187
1693.1940, 0.003179
1695.1220, 0.003419
1697.0510, 0.003122
1698.9790, 0.003163
1700.9080, 0.003065
1702.8360, 0.003057
1704.7650, 0.003193
1706.6930, 0.003115
1708.6210, 0.002962
1710.5500, 0.003115
1712.4780, 0.003012
1714.4070, 0.002925
1716.3350, 0.002949
1718.2640, 0.002986
1720.1920, 0.003006
1722.1210, 0.002840
1724.0490, 0.002730
1725.9780, 0.002659
1727.9060, 0.002270
1729.8350, 0.002230
1731.7630, 0.002339
1733.6920, 0.002557
1735.6200, 0.002128
1737.5480, 0.002047
1739.4770, 0.002468
1741.4050, 0.002482
1743.3340, 0.002583
1745.2620, 0.002740
1747.1910, 0.002858
1749.1190, 0.002861
1751.0480, 0.002717
1752.9760, 0.002570
1754.9050, 0.002699
1756.8330, 0.002857
1758.7620, 0.002999
1760.6900, 0.003420
1762.6190, 0.003437
1764.5470, 0.003117
1766.4750, 0.002897
1768.4040, 0.002694
1770.3320, 0.002640
1772.2610, 0.002977
1774.1890, 0.003039
1776.1180, 0.002817
1778.0460, 0.003011
1779.9750, 0.003214
1781.9030, 0.003351
1783.8320, 0.003059
1785.7600, 0.002634
1787.6890, 0.002763
1789.6170, 0.003164
1791.5460, 0.003016
1793.4740, 0.002604
1795.4020, 0.002753
1797.3310, 0.002934
1799.2590, 0.002977
1801.1880, 0.002855
1803.1160, 0.002597
1805.0450, 0.002772
1806.9730, 0.002768
1808.9020, 0.002562
1810.8300, 0.002474
1812.7590, 0.002217
1814.6870, 0.001951
1816.6160, 0.002216
1818.5440, 0.002683
1820.4730, 0.002307
1822.4010, 0.002308
1824.3290, 0.002635
1826.2580, 0.002723
1828.1860, 0.002648
1830.1150, 0.002099
1832.0430, 0.001653
1833.9720, 0.001719
1835.9000, 0.002015
1837.8290, 0.002160
1839.7570, 0.001936
1841.6860, 0.002141
1843.6140, 0.002227
1845.5430, 0.002082
1847.4710, 0.002499
1849.4000, 0.002578
1851.3280, 0.001998
1853.2560, 0.001565
1855.1850, 0.001221
1857.1130, 0.001501
1859.0420, 0.001574
1860.9700, 0.002004
1862.8990, 0.001657
1864.8270, 0.001194
1866.7560, 0.001762
1868.6840, 0.002012
1870.6130, 0.002049
1872.5410, 0.002578
1874.4700, 0.001994
1876.3980, 0.001312
1878.3270, 0.000904
1880.2550, 0.001279
1882.1830, 0.001496
1884.1120, 0.000750
1886.0400, 0.001156
1887.9690, 0.002381
1889.8970, 0.002127
1891.8260, 0.001764
1893.7540, 0.001989
1895.6830, 0.001820
1897.6110, 0.001353
1899.5400, 0.001712
1901.4680, 0.001609
1903.3970, 0.000837
1905.3250, 0.000631
1907.2540, 0.001073
1909.1820, 0.001237
1911.1100, 0.000843
1913.0390, 0.000462
1914.9670, 0.000593
1916.8960, 0.000322
1918.8240, 0.000355
1920.7530, -0.000121
1922.6810, -0.000466
1924.6100, -0.000002
1926.5380, 0.000432
1928.4670, 0.000777
1930.3950, 0.001247
1932.3240, 0.000912
1934.2520, 0.000414
1936.1810, -0.000864
1938.1090, -0.001653
1940.0370, -0.000948
1941.9660, -0.000351
1943.8940, -0.001152
1945.8230, -0.001409
1947.7510, -0.001292
1949.6800, -0.002043
1951.6080, -0.002038
1953.5370, -0.001002
1955.4650, -0.000898
1957.3940, -0.001539
1959.3220, -0.001238
1961.2510, -0.001273
1963.1790, -0.002221
1965.1080, -0.004017
1967.0360, -0.004398
1968.9640, -0.003050
1970.8930, -0.004124
1972.8210, -0.004105
1974.7500, -0.002615
1976.6780, -0.002006
1978.6070, -0.000504
1980.5350, 0.000995
1982.4640, -0.000119
1984.3920, -0.002401
1986.3210, -0.002017
1988.2490, -0.002328
1990.1780, -0.003152
1992.1060, -0.002080
1994.0350, -0.000912
1995.9630, -0.002734
1997.8910, -0.004459
1999.8200, -0.003139
2001.7480, -0.001830
2003.6770, -0.001456
2005.6050, -0.002421
2007.5340, -0.002521
2009.4620, -0.001691
2011.3910, -0.003258
2013.3190, -0.002810
2015.2480, -0.002889
2017.1760, -0.003364
2019.1050, -0.005249
2021.0330, -0.004490
2022.9620, -0.004275
2024.8900, -0.005524
2026.8180, -0.004216
2028.7470, -0.004294
2030.6750, -0.005279
2032.6040, -0.004685
2034.5320, -0.003560
2036.4610, -0.003913
2038.3890, -0.003885
2040.3180, -0.003726
2042.2460, -0.002292
2044.1750, -0.001320
2046.1030, -0.001064
2048.0320, -0.001283
2049.9600, -0.001980
2051.8890, -0.003245
2053.8170, -0.002063
2055.7460, -0.000213
2057.6740, -0.001537
2059.6030, -0.002919
2061.5310, -0.001515
2063.4590, -0.000485
2065.3880, -0.001334
2067.3160, -0.002090
2069.2450, -0.001777
2071.1730, -0.001107
2073.1020, -0.000617
2075.0300, -0.001391
2076.9590, -0.001014
2078.8870, -0.000276
2080.8160, -0.000195
2082.7440, -0.000310
2084.6730, -0.000841
2086.6010, -0.000576
2088.5300, -0.000412
2090.4580, -0.000712
2092.3860, -0.000596
2094.3150, -0.001079
2096.2430, -0.000663
2098.1720, -0.000309
2100.1000, -0.000395
2102.0290, 0.000233
2103.9570, 0.001084
2105.8860, 0.000698
2107.8140, 0.000533
2109.7430, 0.000606
2111.6710, 0.000411
2113.6000, 0.000921
2115.5280, 0.001041
2117.4570, 0.000312
2119.3850, 0.000920
2121.3130, 0.001114
2123.2420, -0.000145
2125.1700, -0.000681
2127.0990, -0.000748
2129.0270, -0.000685
2130.9560, -0.001207
2132.8840, -0.001309
2134.8130, -0.002366
2136.7410, -0.002799
2138.6700, -0.001568
2140.5980, -0.000949
2142.5270, 0.000333
2144.4550, 0.000283
2146.3840, -0.001154
2148.3120, -0.002348
2150.2400, -0.001845
2152.1690, -0.002007
2154.0970, -0.004239
2156.0260, -0.005187
2157.9540, -0.001288
2159.8830, 0.001071
2161.8110, -0.000216
2163.7400, 0.001291
2165.6680, 0.002912
2167.5970, 0.003150
2169.5250, 0.002533
2171.4540, 0.001109
2173.3820, 0.001039
2175.3110, 0.002663
2177.2390, 0.001228
2179.1670, -0.000610
2181.0960, 0.000452
2183.0240, 0.002144
2184.9530, 0.002578
2186.8810, 0.002059
2188.8100, 0.001863
2190.7380, 0.002055
2192.6670, 0.001748
2194.5950, 0.001752
2196.5240, 0.003373
2198.4520, 0.003528
2200.3810, 0.002558
2202.3090, 0.001401
2204.2380, 0.001874
2206.1660, 0.002305
2208.0940, 0.002292
2210.0230, 0.003484
2211.9510, 0.004105
2213.8800, 0.004209
2215.8080, 0.005247
2217.7370, 0.005502
2219.6650, 0.005200
2221.5940, 0.003899
2223.5220, 0.004545
2225.4510, 0.004780
2227.3790, 0.004050
2229.3080, 0.003717
2231.2360, 0.002819
2233.1650, 0.003082
2235.0930, 0.003404
2237.0210, 0.002907
2238.9500, 0.002953
2240.8780, 0.003175
2242.8070, 0.003946
2244.7350, 0.004254
2246.6640, 0.003668
2248.5920, 0.003136
2250.5210, 0.002897
2252.4490, 0.003257
2254.3780, 0.004371
2256.3060, 0.004866
2258.2350, 0.004260
2260.1630, 0.003594
2262.0920, 0.003432
2264.0200, 0.002949
2265.9480, 0.003083
2267.8770, 0.003022
2269.8050, 0.002776
2271.7340, 0.003283
2273.6620, 0.003355
2275.5910, 0.003454
2277.5190, 0.004113
2279.4480, 0.004140
2281.3760, 0.003446
2283.3050, 0.003948
2285.2330, 0.004404
2287.1620, 0.004107
2289.0900, 0.004797
2291.0190, 0.004955
2292.9470, 0.004269
2294.8750, 0.004347
2296.8040, 0.004435
2298.7320, 0.004084
2300.6610, 0.004010
2302.5890, 0.003311
2304.5180, 0.003387
2306.4460, 0.004047
2308.3750, 0.003678
2310.3030, 0.003212
2312.2320, 0.003207
2314.1600, 0.003242
2316.0890, 0.004014
2318.0170, 0.004305
2319.9460, 0.004096
2321.8740, 0.004709
2323.8020, 0.005365
2325.7310, 0.004452
2327.6590, 0.003843
2329.5880, 0.003914
2331.5160, 0.003554
2333.4450, 0.003391
2335.3730, 0.003134
2337.3020, 0.002920
2339.2300, 0.003304
2341.1590, 0.003526
2343.0870, 0.003142
2345.0160, 0.003064
2346.9440, 0.003287
2348.8730, 0.003058
2350.8010, 0.003089
2352.7290, 0.003679
2354.6580, 0.004036
2356.5860, 0.003812
2358.5150, 0.003899
2360.4430, 0.003892
2362.3720, 0.003320
2364.3000, 0.002791
2366.2290, 0.003031
2368.1570, 0.003696
2370.0860, 0.003752
2372.0140, 0.002988
2373.9420, 0.002315
2375.8710, 0.002741
2377.7990, 0.003465
2379.7280, 0.003812
2381.6560, 0.003641
2383.5850, 0.003310
2385.5130, 0.002857
2387.4420, 0.002665
2389.3700, 0.002646
2391.2990, 0.003104
2393.2270, 0.003763
2395.1560, 0.003564
2397.0840, 0.003152
2399.0120, 0.003083
2400.9410, 0.003466
2402.8690, 0.003559
2404.7980, 0.003527
2406.7260, 0.003497
2408.6550, 0.003313
2410.5830, 0.003225
2412.5120, 0.003314
2414.4400, 0.003674
2416.3690, 0.004273
2418.2970, 0.004289
2420.2260, 0.004219
2422.1540, 0.003932
2424.0830, 0.003099
2426.0110, 0.003114
2427.9390, 0.003767
2429.8680, 0.003735
2431.7960, 0.003248
2433.7250, 0.003007
2435.6530, 0.003237
2437.5820, 0.003344
2439.5100, 0.003219
2441.4390, 0.002610
2443.3670, 0.003253
2445.2960, 0.003534
2447.2240, 0.003607
2449.1530, 0.003828
2451.0810, 0.004248
2453.0100, 0.004343
2454.9380, 0.004661
2456.8660, 0.004279
2458.7950, 0.003897
2460.7230, 0.003931
2462.6520, 0.004174
2464.5800, 0.003986
2466.5090, 0.003718
2468.4370, 0.003663
2470.3660, 0.003228
2472.2940, 0.003179
2474.2230, 0.003502
2476.1510, 0.003900
2478.0800, 0.003668
2480.0080, 0.004248
2481.9370, 0.004650
2483.8650, 0.003503
2485.7930, 0.002846
2487.7220, 0.003388
2489.6500, 0.003573
2491.5790, 0.003435
2493.5070, 0.004309
2495.4360, 0.005172
2497.3640, 0.004279
2499.2930, 0.003353
2501.2210, 0.003281
2503.1500, 0.003885
2505.0780, 0.003337
2507.0070, 0.003233
2508.9350, 0.004017
2510.8640, 0.003682
2512.7920, 0.003683
2514.7200, 0.004081
2516.6490, 0.004543
2518.5770, 0.004225
2520.5060, 0.003859
2522.4340, 0.004153
2524.3630, 0.004466
2526.2910, 0.004463
2528.2200, 0.004685
2530.1480, 0.004673
2532.0770, 0.004662
2534.0050, 0.004601
2535.9340, 0.004559
2537.8620, 0.004902
2539.7910, 0.005221
2541.7190, 0.005296
2543.6470, 0.004797
2545.5760, 0.004116
2547.5040, 0.003966
2549.4330, 0.004806
2551.3610, 0.005673
2553.2900, 0.005264
2555.2180, 0.004639
2557.1470, 0.004734
2559.0750, 0.004809
2561.0040, 0.004572
2562.9320, 0.004626
2564.8610, 0.004796
2566.7890, 0.004960
2568.7180, 0.005425
2570.6460, 0.005704
2572.5740, 0.005446
2574.5030, 0.005176
2576.4310, 0.005316
2578.3600, 0.005335
2580.2880, 0.005056
2582.2170, 0.004781
2584.1450, 0.003887
2586.0740, 0.003893
2588.0020, 0.004398
2589.9310, 0.004653
2591.8590, 0.004558
2593.7880, 0.004517
2595.7160, 0.004743
2597.6450, 0.004156
2599.5730, 0.003646
2601.5010, 0.004002
2603.4300, 0.004136
2605.3580, 0.004243
2607.2870, 0.003938
2609.2150, 0.003493
2611.1440, 0.003516
2613.0720, 0.004143
2615.0010, 0.004587
2616.9290, 0.004098
2618.8580, 0.004281
2620.7860, 0.004701
2622.7150, 0.004624
2624.6430, 0.004620
2626.5720, 0.004337
2628.5000, 0.004513
2630.4280, 0.004970
2632.3570, 0.004752
2634.2850, 0.004375
2636.2140, 0.004581
2638.1420, 0.004763
2640.0710, 0.004505
2641.9990, 0.004371
2643.9280, 0.004458
2645.8560, 0.004343
2647.7850, 0.004545
2649.7130, 0.004722
2651.6420, 0.004416
2653.5700, 0.004364
2655.4990, 0.004587
2657.4270, 0.004777
2659.3550, 0.004553
2661.2840, 0.004408
2663.2120, 0.004476
2665.1410, 0.004292
2667.0690, 0.003303
2668.9980, 0.002964
2670.9260, 0.003143
2672.8550, 0.003566
2674.7830, 0.004055
2676.7120, 0.003962
2678.6400, 0.004106
2680.5690, 0.004040
2682.4970, 0.004136
2684.4260, 0.004560
2686.3540, 0.004355
2688.2820, 0.004027
2690.2110, 0.003558
2692.1390, 0.003441
2694.0680, 0.003830
2695.9960, 0.003982
2697.9250, 0.003660
2699.8530, 0.003346
2701.7820, 0.003839
2703.7100, 0.004399
2705.6390, 0.004553
2707.5670, 0.003999
2709.4960, 0.003789
2711.4240, 0.004104
2713.3530, 0.003858
2715.2810, 0.004070
2717.2090, 0.004494
2719.1380, 0.004356
2721.0660, 0.003696
2722.9950, 0.003664
2724.9230, 0.004204
2726.8520, 0.004540
2728.7800, 0.004610
2730.7090, 0.004128
2732.6370, 0.004162
2734.5660, 0.004385
2736.4940, 0.004085
2738.4230, 0.003903
2740.3510, 0.004268
2742.2800, 0.004275
2744.2080, 0.004012
2746.1360, 0.003798
2748.0650, 0.004105
2749.9930, 0.004342
2751.9220, 0.004320
2753.8500, 0.004397
2755.7790, 0.004302
2757.7070, 0.003753
2759.6360, 0.003466
2761.5640, 0.003630
2763.4930, 0.003504
2765.4210, 0.004022
2767.3500, 0.005023
2769.2780, 0.004796
2771.2070, 0.004640
2773.1350, 0.004798
2775.0630, 0.005038
2776.9920, 0.004909
2778.9200, 0.004371
2780.8490, 0.004459
2782.7770, 0.004996
2784.7060, 0.004518
2786.6340, 0.003804
2788.5630, 0.003402
2790.4910, 0.003793
2792.4200, 0.004414
2794.3480, 0.005214
2796.2770, 0.005800
2798.2050, 0.005690
2800.1340, 0.004642
2802.0620, 0.004282
2803.9900, 0.004924
2805.9190, 0.005290
2807.8470, 0.005077
2809.7760, 0.005111
2811.7040, 0.004957
2813.6330, 0.004272
2815.5610, 0.004131
2817.4900, 0.004544
2819.4180, 0.004811
2821.3470, 0.004889
2823.2750, 0.005063
2825.2040, 0.004761
2827.1320, 0.004764
2829.0610, 0.004439
2830.9890, 0.003780
2832.9170, 0.004660
2834.8460, 0.005241
2836.7740, 0.004708
2838.7030, 0.004140
2840.6310, 0.004141
2842.5600, 0.003938
2844.4880, 0.003879
2846.4170, 0.004285
2848.3450, 0.004853
2850.2740, 0.004687
2852.2020, 0.004093
2854.1310, 0.003595
2856.0590, 0.003637
2857.9880, 0.003751
2859.9160, 0.004452
2861.8440, 0.004760
2863.7730, 0.004978
2865.7010, 0.004934
2867.6300, 0.004382
2869.5580, 0.003738
2871.4870, 0.004352
2873.4150, 0.004837
2875.3440, 0.005520
2877.2720, 0.005441
2879.2010, 0.005091
2881.1290, 0.004516
2883.0580, 0.003852
2884.9860, 0.004367
2886.9150, 0.004742
2888.8430, 0.004451
2890.7710, 0.004143
2892.7000, 0.003657
2894.6280, 0.003660
2896.5570, 0.003977
2898.4850, 0.004064
2900.4140, 0.004492
2902.3420, 0.005180
2904.2710, 0.004736
2906.1990, 0.004373
2908.1280, 0.004337
2910.0560, 0.004479
2911.9850, 0.004510
2913.9130, 0.004640
2915.8420, 0.004535
2917.7700, 0.004629
2919.6980, 0.004496
2921.6270, 0.003848
2923.5550, 0.003669
2925.4840, 0.004264
2927.4120, 0.003777
2929.3410, 0.003068
2931.2690, 0.003232
2933.1980, 0.003868
2935.1260, 0.003974
2937.0550, 0.004300
2938.9830, 0.004428
2940.9120, 0.004069
2942.8400, 0.004164
2944.7690, 0.004190
2946.6970, 0.004350
2948.6250, 0.004429
2950.5540, 0.004478
2952.4820, 0.004421
2954.4110, 0.003273
2956.3390, 0.003567
2958.2680, 0.004292
2960.1960, 0.003909
2962.1250, 0.004205
2964.0530, 0.004415
2965.9820, 0.004938
2967.9100, 0.005705
2969.8390, 0.005522
2971.7670, 0.004951
2973.6960, 0.004983
2975.6240, 0.004988
2977.5520, 0.004861
2979.4810, 0.005549
2981.4090, 0.005965
2983.3380, 0.005062
2985.2660, 0.004254
2987.1950, 0.004802
2989.1230, 0.005859
2991.0520, 0.005802
2992.9800, 0.004998
2994.9090, 0.004405
2996.8370, 0.005115
2998.7660, 0.005698
3000.6940, 0.005519
3002.6230, 0.005202
3004.5510, 0.005194
3006.4790, 0.004491
3008.4080, 0.003857
3010.3360, 0.004557
3012.2650, 0.005279
3014.1930, 0.005312
3016.1220, 0.004807
3018.0500, 0.004432
3019.9790, 0.004677
3021.9070, 0.004417
3023.8360, 0.004777
3025.7640, 0.005261
3027.6930, 0.005258
3029.6210, 0.005708
3031.5500, 0.005566
3033.4780, 0.005107
3035.4060, 0.005048
3037.3350, 0.004997
3039.2630, 0.005376
3041.1920, 0.006509
3043.1200, 0.006811
3045.0490, 0.006216
3046.9770, 0.006185
3048.9060, 0.006716
3050.8340, 0.007206
3052.7630, 0.006425
3054.6910, 0.006166
3056.6200, 0.006324
3058.5480, 0.006007
3060.4770, 0.006377
3062.4050, 0.006774
3064.3330, 0.006154
3066.2620, 0.005828
3068.1900, 0.005780
3070.1190, 0.006308
3072.0470, 0.006760
3073.9760, 0.006253
3075.9040, 0.006100
3077.8330, 0.006158
3079.7610, 0.005816
3081.6900, 0.006191
3083.6180, 0.006463
3085.5470, 0.007309
3087.4750, 0.007526
3089.4040, 0.007430
3091.3320, 0.007050
3093.2600, 0.006557
3095.1890, 0.006086
3097.1170, 0.006227
3099.0460, 0.006610
3100.9740, 0.006884
3102.9030, 0.007491
3104.8310, 0.007178
3106.7600, 0.006631
3108.6880, 0.005978
3110.6170, 0.006415
3112.5450, 0.007585
3114.4740, 0.007919
3116.4020, 0.007847
3118.3310, 0.007656
3120.2590, 0.006911
3122.1880, 0.007182
3124.1160, 0.007091
3126.0440, 0.006491
3127.9730, 0.006890
3129.9010, 0.007040
3131.8300, 0.006278
3133.7580, 0.007162
3135.6870, 0.007722
3137.6150, 0.006893
3139.5440, 0.006954
3141.4720, 0.007817
3143.4010, 0.006973
3145.3290, 0.006564
3147.2580, 0.006095
3149.1860, 0.005570
3151.1150, 0.006924
3153.0430, 0.007460
3154.9710, 0.006569
3156.9000, 0.007134
3158.8280, 0.007352
3160.7570, 0.007118
3162.6850, 0.007334
3164.6140, 0.006746
3166.5420, 0.007137
3168.4710, 0.008508
3170.3990, 0.009262
3172.3280, 0.008064
3174.2560, 0.006897
3176.1850, 0.006921
3178.1130, 0.006756
3180.0420, 0.007317
3181.9700, 0.008262
3183.8980, 0.007661
3185.8270, 0.007878
3187.7550, 0.008795
3189.6840, 0.008932
3191.6120, 0.009033
3193.5410, 0.008525
3195.4690, 0.008034
3197.3980, 0.007796
3199.3260, 0.007922
3201.2550, 0.007689
3203.1830, 0.007709
3205.1120, 0.007445
3207.0400, 0.007151
3208.9690, 0.007156
3210.8970, 0.007122
3212.8250, 0.007270
3214.7540, 0.007927
3216.6820, 0.008421
3218.6110, 0.008507
3220.5390, 0.009340
3222.4680, 0.008853
3224.3960, 0.009035
3226.3250, 0.008957
3228.2530, 0.008315
3230.1820, 0.008001
3232.1100, 0.008791
3234.0390, 0.009616
3235.9670, 0.009828
3237.8960, 0.009913
3239.8240, 0.009500
3241.7520, 0.008105
3243.6810, 0.007355
3245.6090, 0.007357
3247.5380, 0.007982
3249.4660, 0.008030
3251.3950, 0.008034
3253.3230, 0.008552
3255.2520, 0.008760
3257.1800, 0.008422
3259.1090, 0.007796
3261.0370, 0.007969
3262.9660, 0.008081
3264.8940, 0.008302
3266.8230, 0.008771
3268.7510, 0.008941
3270.6790, 0.009124
3272.6080, 0.008757
3274.5360, 0.008476
3276.4650, 0.007760
3278.3930, 0.007237
3280.3220, 0.008036
3282.2500, 0.008338
3284.1790, 0.007943
3286.1070, 0.008255
3288.0360, 0.009686
3289.9640, 0.009720
3291.8930, 0.008278
3293.8210, 0.007843
3295.7500, 0.008702
3297.6780, 0.009144
3299.6060, 0.009038
3301.5350, 0.010123
3303.4630, 0.009980
3305.3920, 0.009432
3307.3200, 0.008741
3309.2490, 0.008949
3311.1770, 0.010297
3313.1060, 0.010638
3315.0340, 0.010862
3316.9630, 0.010083
3318.8910, 0.008789
3320.8200, 0.008976
3322.7480, 0.009968
3324.6770, 0.009757
3326.6050, 0.009846
3328.5330, 0.010430
3330.4620, 0.010106
3332.3900, 0.009307
3334.3190, 0.010156
3336.2470, 0.009953
3338.1760, 0.009570
3340.1040, 0.010066
3342.0330, 0.010441
3343.9610, 0.010627
3345.8900, 0.010403
3347.8180, 0.010300
3349.7470, 0.010784
3351.6750, 0.011562
3353.6040, 0.011198
3355.5320, 0.010825
3357.4600, 0.009982
3359.3890, 0.009847
3361.3170, 0.010173
3363.2460, 0.010686
3365.1740, 0.011134
3367.1030, 0.010320
3369.0310, 0.009952
3370.9600, 0.009951
3372.8880, 0.010107
3374.8170, 0.010843
3376.7450, 0.011623
3378.6740, 0.011227
3380.6020, 0.010869
3382.5310, 0.011287
3384.4590, 0.010875
3386.3870, 0.010582
3388.3160, 0.011588
3390.2440, 0.011421
3392.1730, 0.010212
3394.1010, 0.010290
3396.0300, 0.009655
3397.9580, 0.009074
3399.8870, 0.010582
3401.8150, 0.011776
3403.7440, 0.012605
3405.6720, 0.012490
3407.6010, 0.011417
3409.5290, 0.011062
3411.4580, 0.011582
3413.3860, 0.011787
3415.3140, 0.012254
3417.2430, 0.013479
3419.1710, 0.012899
3421.1000, 0.012604
3423.0280, 0.013298
3424.9570, 0.012701
3426.8850, 0.012609
3428.8140, 0.013401
3430.7420, 0.013352
3432.6710, 0.012253
3434.5990, 0.012966
3436.5280, 0.013861
3438.4560, 0.013510
3440.3850, 0.013092
3442.3130, 0.013438
3444.2410, 0.013662
3446.1700, 0.013634
3448.0980, 0.013258
3450.0270, 0.013981
3451.9550, 0.013715
3453.8840, 0.013538
3455.8120, 0.014218
3457.7410, 0.014147
3459.6690, 0.014077
3461.5980, 0.014796
3463.5260, 0.014467
3465.4550, 0.014892
3467.3830, 0.014270
3469.3120, 0.013511
3471.2400, 0.013445
3473.1680, 0.013229
3475.0970, 0.013950
3477.0250, 0.014494
3478.9540, 0.016088
3480.8820, 0.016306
3482.8110, 0.014533
3484.7390, 0.014310
3486.6680, 0.014384
3488.5960, 0.014325
3490.5250, 0.014936
3492.4530, 0.015208
3494.3820, 0.015258
3496.3100, 0.015501
3498.2390, 0.015755
3500.1670, 0.015144
3502.0950, 0.014857
3504.0240, 0.015265
3505.9520, 0.014815
3507.8810, 0.014934
3509.8090, 0.016078
3511.7380, 0.017284
3513.6660, 0.017170
3515.5950, 0.016337
3517.5230, 0.016380
3519.4520, 0.016584
3521.3800, 0.016215
3523.3090, 0.016442
3525.2370, 0.016350
3527.1660, 0.017634
3529.0940, 0.017535
3531.0220, 0.015532
3532.9510, 0.015852
3534.8790, 0.016684
3536.8080, 0.016356
3538.7360, 0.017672
3540.6650, 0.019141
3542.5930, 0.019219
3544.5220, 0.019135
3546.4500, 0.018472
3548.3790, 0.017929
3550.3070, 0.018162
3552.2360, 0.018902
3554.1640, 0.018272
3556.0930, 0.017677
3558.0210, 0.017220
3559.9490, 0.017761
3561.8780, 0.017635
3563.8060, 0.016702
3565.7350, 0.016267
3567.6630, 0.016217
3569.5920, 0.015901
3571.5200, 0.014887
3573.4490, 0.015143
3575.3770, 0.014807
3577.3060, 0.015252
3579.2340, 0.016389
3581.1630, 0.016843
3583.0910, 0.017124
3585.0200, 0.016611
3586.9480, 0.016638
3588.8760, 0.016839
3590.8050, 0.016977
3592.7330, 0.017064
3594.6620, 0.017292
3596.5900, 0.017365
3598.5190, 0.017932
3600.4470, 0.018982
3602.3760, 0.019770
3604.3040, 0.019769
3606.2330, 0.018741
3608.1610, 0.019290
3610.0900, 0.019801
3612.0180, 0.018700
3613.9470, 0.017908
3615.8750, 0.018035
3617.8030, 0.018944
3619.7320, 0.018855
3621.6600, 0.016745
3623.5890, 0.014934
3625.5170, 0.014233
3627.4460, 0.015033
3629.3740, 0.015149
3631.3030, 0.012945
3633.2310, 0.011143
3635.1600, 0.011361
3637.0880, 0.011481
3639.0170, 0.010755
3640.9450, 0.010425
3642.8740, 0.009566
3644.8020, 0.008280
3646.7300, 0.006979
3648.6590, 0.006685
3650.5870, 0.006240
3652.5160, 0.005827
3654.4440, 0.007202
3656.3730, 0.007854
3658.3010, 0.007477
3660.2300, 0.007445
3662.1580, 0.007225
3664.0870, 0.006610
3666.0150, 0.007132
3667.9440, 0.007457
3669.8720, 0.007055
3671.8010, 0.006836
3673.7290, 0.006105
3675.6570, 0.004855
3677.5860, 0.004784
3679.5140, 0.004918
3681.4430, 0.006457
3683.3710, 0.005861
3685.3000, 0.004411
3687.2280, 0.004557
3689.1570, 0.004249
3691.0850, 0.005477
3693.0140, 0.005613
3694.9420, 0.005480
3696.8710, 0.005745
3698.7990, 0.004774
3700.7280, 0.003582
3702.6560, 0.004263
3704.5840, 0.003580
3706.5130, 0.003701
3708.4410, 0.005049
3710.3700, 0.005642
3712.2980, 0.004446
3714.2270, 0.003219
3716.1550, 0.003416
3718.0840, 0.003616
3720.0120, 0.006574
3721.9410, 0.008194
3723.8690, 0.007796
3725.7980, 0.005932
3727.7260, 0.004811
3729.6550, 0.005809
3731.5830, 0.006608
3733.5110, 0.005800
3735.4400, 0.005307
3737.3680, 0.003923
3739.2970, 0.004155
3741.2250, 0.005347
3743.1540, 0.005594
3745.0820, 0.005684
3747.0110, 0.004572
3748.9390, 0.004838
3750.8680, 0.004980
3752.7960, 0.004305
3754.7250, 0.004729
3756.6530, 0.005931
3758.5820, 0.004632
3760.5100, 0.004398
3762.4380, 0.003093
3764.3670, 0.003434
3766.2950, 0.005096
3768.2240, 0.004601
3770.1520, 0.002927
3772.0810, 0.002661
3774.0090, 0.004814
3775.9380, 0.005601
3777.8660, 0.003896
3779.7950, 0.004785
3781.7230, 0.005229
3783.6520, 0.005761
3785.5800, 0.005803
3787.5090, 0.003758
3789.4370, 0.003451
3791.3650, 0.005288
3793.2940, 0.005730
3795.2220, 0.005313
3797.1510, 0.004748
3799.0790, 0.005153
3801.0080, 0.005828
3802.9360, 0.004642
3804.8650, 0.003301
3806.7930, 0.003876
3808.7220, 0.004735
3810.6500, 0.003934
3812.5790, 0.005132
3814.5070, 0.005749
3816.4360, 0.004801
3818.3640, 0.006095
3820.2920, 0.006967
3822.2210, 0.007505
3824.1490, 0.006646
3826.0780, 0.005091
3828.0060, 0.003347
3829.9350, 0.003652
3831.8630, 0.004049
3833.7920, 0.003878
3835.7200, 0.005477
3837.6490, 0.006749
3839.5770, 0.006980
3841.5060, 0.007506
3843.4340, 0.005980
3845.3630, 0.003460
3847.2910, 0.004852
3849.2190, 0.005478
3851.1480, 0.004572
3853.0760, 0.005536
3855.0050, 0.004656
3856.9330, 0.002648
3858.8620, 0.003279
3860.7900, 0.005001
3862.7190, 0.007055
3864.6470, 0.007881
3866.5760, 0.005223
3868.5040, 0.004556
3870.4330, 0.005392
3872.3610, 0.004997
3874.2900, 0.004039
3876.2180, 0.003529
3878.1460, 0.005543
3880.0750, 0.006754
3882.0030, 0.005356
3883.9320, 0.006356
3885.8600, 0.006516
3887.7890, 0.004861
3889.7170, 0.003688
3891.6460, 0.004128
3893.5740, 0.004917
3895.5030, 0.003920
3897.4310, 0.004366
3899.3600, 0.005618
3901.2880, 0.005917
3903.2170, 0.006633
3905.1450, 0.005043
3907.0730, 0.004525
3909.0020, 0.005207
3910.9300, 0.006056
3912.8590, 0.006807
3914.7870, 0.005278
3916.7160, 0.004733
3918.6440, 0.005580
3920.5730, 0.005147
3922.5010, 0.004714
3924.4300, 0.005924
3926.3580, 0.007067
3928.2870, 0.006701
3930.2150, 0.005904
3932.1440, 0.005154
3934.0720, 0.003984
3936.0000, 0.003365
3937.9290, 0.003956
3939.8570, 0.005410
3941.7860, 0.005627
3943.7140, 0.005078
3945.6430, 0.004842
3947.5710, 0.005069
3949.5000, 0.004857
3951.4280, 0.005526
3953.3570, 0.006312
3955.2850, 0.006063
3957.2140, 0.005267
3959.1420, 0.005451
3961.0710, 0.006525
3962.9990, 0.006133
3964.9270, 0.004912
3966.8560, 0.004100
3968.7840, 0.004075
3970.7130, 0.004987
3972.6410, 0.004816
3974.5700, 0.003808
3976.4980, 0.005037
3978.4270, 0.004844
3980.3550, 0.004946
3982.2840, 0.005912
3984.2120, 0.005247
3986.1410, 0.004195
3988.0690, 0.004956
3989.9980, 0.005221
3991.9260, 0.005262
3993.8540, 0.005072
3995.7830, 0.004983
3997.7110, 0.004763
3999.6400, 0.004766
##END=



