##NAMES=Calcite
##RRUFFID=R040170
##IDEAL CHEMISTRY=CaCO_3_
##LOCALITY=Peramea, Lerida Province, Catalonia, Spain
##OWNER=RRUFF
##SOURCE=University of Arizona Mineral Museum
##DESCRIPTION=Pink fragment
##STATUS=The identification of this mineral has been confirmed by X-ray diffraction and chemical analysis
##URL=rruff.info/R040170
##MEASURED CHEMISTRY=(Ca_0.99_Mg_0.01_)CO_3_; trace amounts of Co
399.1926, 0.029939
401.1211, 0.024243
403.0496, 0.024360
404.9780, 0.024614
406.9065, 0.025123
408.8350, 0.023573
410.7634, 0.023548
412.6919, 0.024160
414.6204, 0.024136
416.5488, 0.024168
418.4773, 0.023330
420.4058, 0.022274
422.3342, 0.022267
424.2627, 0.023314
426.1912, 0.023464
428.1196, 0.022504
430.0481, 0.021788
431.9766, 0.021024
433.9050, 0.021528
435.8335, 0.022585
437.7620, 0.022452
439.6904, 0.022481
441.6189, 0.023557
443.5474, 0.023378
445.4758, 0.023020
447.4043, 0.023308
449.3328, 0.023344
451.2612, 0.022748
453.1897, 0.022038
455.1182, 0.021976
457.0466, 0.021552
458.9751, 0.021227
460.9036, 0.021274
462.8320, 0.021644
464.7605, 0.022568
466.6890, 0.022259
468.6174, 0.021306
470.5459, 0.021222
472.4744, 0.021098
474.4028, 0.020895
476.3313, 0.020279
478.2598, 0.018998
480.1882, 0.017639
482.1167, 0.017407
484.0452, 0.017189
485.9736, 0.017202
487.9021, 0.017176
489.8306, 0.016547
491.7590, 0.016068
493.6875, 0.015400
495.6160, 0.015228
497.5444, 0.015552
499.4729, 0.015280
501.4014, 0.014941
503.3298, 0.015021
505.2583, 0.014937
507.1868, 0.014206
509.1152, 0.013802
511.0437, 0.014060
512.9722, 0.014341
514.9006, 0.014114
516.8291, 0.013996
518.7576, 0.013644
520.6860, 0.013215
522.6145, 0.013248
524.5430, 0.013193
526.4714, 0.013361
528.3999, 0.013742
530.3284, 0.013482
532.2568, 0.013422
534.1853, 0.013654
536.1138, 0.013298
538.0422, 0.013076
539.9707, 0.013035
541.8992, 0.012914
543.8276, 0.012627
545.7561, 0.012490
547.6846, 0.011972
549.6130, 0.011278
551.5415, 0.011121
553.4700, 0.011416
555.3984, 0.011183
557.3269, 0.011186
559.2554, 0.011248
561.1838, 0.010846
563.1123, 0.010854
565.0408, 0.011183
566.9692, 0.011495
568.8977, 0.011690
570.8262, 0.011653
572.7546, 0.011794
574.6831, 0.012033
576.6116, 0.011543
578.5400, 0.011391
580.4685, 0.011633
582.3970, 0.011746
584.3254, 0.011969
586.2539, 0.011850
588.1824, 0.011734
590.1108, 0.011981
592.0393, 0.012334
593.9678, 0.012563
595.8962, 0.012642
597.8247, 0.012780
599.7532, 0.013106
601.6816, 0.013617
603.6101, 0.014485
605.5386, 0.015326
607.4670, 0.015747
609.3955, 0.016263
611.3240, 0.016615
613.2524, 0.016802
615.1809, 0.016910
617.1094, 0.017045
619.0378, 0.016887
620.9663, 0.016639
622.8948, 0.016702
624.8232, 0.017098
626.7517, 0.017288
628.6802, 0.016944
630.6086, 0.016710
632.5371, 0.016245
634.4656, 0.015620
636.3940, 0.015082
638.3225, 0.014844
640.2510, 0.014553
642.1794, 0.014218
644.1079, 0.014435
646.0364, 0.014569
647.9648, 0.014479
649.8933, 0.014547
651.8218, 0.014801
653.7502, 0.015070
655.6787, 0.015223
657.6072, 0.015725
659.5356, 0.016635
661.4641, 0.017429
663.3926, 0.018311
665.3210, 0.019587
667.2495, 0.020936
669.1780, 0.021666
671.1064, 0.021249
673.0349, 0.020153
674.9634, 0.019214
676.8918, 0.018519
678.8203, 0.017920
680.7488, 0.017523
682.6772, 0.017158
684.6057, 0.016837
686.5342, 0.016377
688.4626, 0.016278
690.3911, 0.016664
692.3196, 0.017461
694.2480, 0.018244
696.1765, 0.019189
698.1050, 0.020491
700.0334, 0.022038
701.9619, 0.024369
703.8904, 0.028145
705.8188, 0.034125
707.7473, 0.044532
709.6758, 0.062328
711.6042, 0.079957
713.5327, 0.077180
715.4612, 0.056828
717.3896, 0.038124
719.3181, 0.026957
721.2466, 0.021076
723.1750, 0.017502
725.1035, 0.015284
727.0320, 0.013884
728.9604, 0.012877
730.8889, 0.012408
732.8174, 0.012293
734.7458, 0.012198
736.6743, 0.011948
738.6028, 0.011670
740.5313, 0.011656
742.4597, 0.011546
744.3882, 0.011514
746.3167, 0.011568
748.2451, 0.011373
750.1736, 0.011276
752.1021, 0.011324
754.0305, 0.011482
755.9590, 0.011621
757.8875, 0.011535
759.8159, 0.011676
761.7444, 0.011911
763.6729, 0.012032
765.6013, 0.012202
767.5298, 0.012408
769.4583, 0.012364
771.3867, 0.012429
773.3152, 0.012538
775.2437, 0.012934
777.1721, 0.013188
779.1006, 0.013088
781.0291, 0.013190
782.9575, 0.013356
784.8860, 0.013287
786.8145, 0.013349
788.7429, 0.013584
790.6714, 0.013492
792.5999, 0.013466
794.5283, 0.013771
796.4568, 0.013814
798.3853, 0.013709
800.3137, 0.013833
802.2422, 0.014097
804.1707, 0.014314
806.0991, 0.014372
808.0276, 0.014535
809.9561, 0.014693
811.8845, 0.014940
813.8130, 0.015169
815.7415, 0.015409
817.6699, 0.015587
819.5984, 0.015801
821.5269, 0.015958
823.4553, 0.016196
825.3838, 0.016335
827.3123, 0.016837
829.2407, 0.017314
831.1692, 0.017600
833.0977, 0.018348
835.0261, 0.019187
836.9546, 0.020051
838.8831, 0.021070
840.8115, 0.022086
842.7400, 0.024059
844.6685, 0.028451
846.5969, 0.036357
848.5254, 0.039122
850.4539, 0.033679
852.3823, 0.032265
854.3108, 0.035840
856.2393, 0.041713
858.1677, 0.050165
860.0962, 0.063001
862.0247, 0.082219
863.9531, 0.110573
865.8816, 0.152293
867.8101, 0.213532
869.7385, 0.287832
871.6670, 0.332930
873.5955, 0.319967
875.5239, 0.280029
877.4524, 0.235993
879.3809, 0.190373
881.3093, 0.147533
883.2378, 0.108813
885.1663, 0.068002
887.0947, 0.035069
889.0232, 0.020661
890.9517, 0.017082
892.8801, 0.015948
894.8085, 0.015284
896.7370, 0.015053
898.6655, 0.015027
900.5939, 0.014954
902.5224, 0.015033
904.4509, 0.015137
906.3793, 0.015197
908.3078, 0.015109
910.2363, 0.015096
912.1647, 0.015339
914.0932, 0.015506
916.0217, 0.015425
917.9501, 0.015577
919.8786, 0.015992
921.8071, 0.016213
923.7355, 0.016135
925.6640, 0.016464
927.5925, 0.016894
929.5209, 0.017186
931.4494, 0.017429
933.3779, 0.017544
935.3063, 0.017795
937.2348, 0.018231
939.1633, 0.018431
941.0917, 0.018520
943.0202, 0.018780
944.9487, 0.019137
946.8771, 0.019557
948.8056, 0.019868
950.7341, 0.020394
952.6625, 0.020969
954.5910, 0.021277
956.5195, 0.021681
958.4479, 0.022111
960.3764, 0.022517
962.3049, 0.022946
964.2333, 0.023330
966.1618, 0.023595
968.0903, 0.023971
970.0187, 0.024575
971.9472, 0.025227
973.8757, 0.025787
975.8041, 0.026327
977.7326, 0.026954
979.6611, 0.027636
981.5895, 0.028341
983.5180, 0.029143
985.4465, 0.029897
987.3749, 0.030575
989.3034, 0.031190
991.2319, 0.031900
993.1603, 0.032881
995.0888, 0.033890
997.0173, 0.034632
998.9457, 0.035411
1000.8740, 0.036333
1002.8030, 0.037250
1004.7310, 0.038048
1006.6600, 0.038932
1008.5880, 0.039857
1010.5170, 0.040838
1012.4450, 0.041722
1014.3730, 0.042289
1016.3020, 0.042317
1018.2300, 0.041978
1020.1590, 0.041228
1022.0870, 0.040187
1024.0160, 0.039026
1025.9440, 0.037959
1027.8730, 0.036955
1029.8010, 0.036229
1031.7300, 0.035623
1033.6580, 0.034861
1035.5870, 0.034371
1037.5150, 0.034117
1039.4440, 0.033698
1041.3720, 0.033369
1043.3010, 0.033325
1045.2290, 0.033245
1047.1570, 0.032796
1049.0860, 0.032517
1051.0140, 0.032233
1052.9430, 0.031768
1054.8710, 0.031707
1056.8000, 0.031780
1058.7280, 0.031733
1060.6570, 0.031881
1062.5850, 0.032041
1064.5140, 0.032535
1066.4420, 0.033308
1068.3710, 0.034064
1070.2990, 0.034615
1072.2280, 0.035222
1074.1560, 0.035955
1076.0840, 0.037013
1078.0130, 0.038180
1079.9410, 0.039162
1081.8700, 0.040377
1083.7980, 0.041856
1085.7270, 0.042985
1087.6550, 0.043324
1089.5840, 0.043009
1091.5120, 0.042714
1093.4410, 0.042454
1095.3690, 0.042408
1097.2980, 0.042702
1099.2260, 0.043140
1101.1550, 0.043782
1103.0830, 0.044347
1105.0110, 0.044815
1106.9400, 0.045534
1108.8680, 0.046571
1110.7970, 0.047560
1112.7250, 0.048448
1114.6540, 0.049539
1116.5820, 0.050984
1118.5110, 0.052693
1120.4390, 0.054646
1122.3680, 0.056847
1124.2960, 0.059043
1126.2250, 0.060964
1128.1530, 0.063415
1130.0820, 0.066400
1132.0100, 0.068906
1133.9380, 0.071142
1135.8670, 0.073088
1137.7950, 0.074272
1139.7240, 0.075075
1141.6520, 0.075428
1143.5810, 0.074966
1145.5090, 0.074156
1147.4380, 0.073271
1149.3660, 0.072674
1151.2950, 0.072493
1153.2230, 0.072884
1155.1520, 0.073533
1157.0800, 0.074008
1159.0090, 0.074250
1160.9370, 0.074135
1162.8650, 0.073484
1164.7940, 0.072439
1166.7220, 0.071225
1168.6510, 0.069894
1170.5790, 0.068688
1172.5080, 0.067762
1174.4360, 0.066888
1176.3650, 0.066070
1178.2930, 0.065209
1180.2220, 0.064034
1182.1500, 0.062690
1184.0790, 0.061242
1186.0070, 0.059902
1187.9360, 0.058362
1189.8640, 0.056717
1191.7920, 0.055491
1193.7210, 0.054394
1195.6490, 0.053328
1197.5780, 0.052524
1199.5060, 0.052122
1201.4350, 0.051978
1203.3630, 0.051632
1205.2920, 0.051611
1207.2200, 0.051726
1209.1490, 0.051935
1211.0770, 0.052284
1213.0060, 0.052763
1214.9340, 0.053361
1216.8630, 0.053987
1218.7910, 0.054661
1220.7190, 0.055317
1222.6480, 0.056128
1224.5760, 0.056839
1226.5050, 0.057755
1228.4330, 0.058855
1230.3620, 0.059807
1232.2900, 0.060854
1234.2190, 0.062268
1236.1470, 0.063462
1238.0760, 0.064540
1240.0040, 0.065610
1241.9330, 0.066734
1243.8610, 0.067954
1245.7900, 0.069238
1247.7180, 0.070462
1249.6460, 0.071959
1251.5750, 0.073591
1253.5030, 0.075139
1255.4320, 0.076736
1257.3600, 0.078632
1259.2890, 0.080384
1261.2170, 0.082041
1263.1460, 0.084063
1265.0740, 0.086241
1267.0030, 0.088161
1268.9310, 0.090019
1270.8600, 0.092071
1272.7880, 0.094453
1274.7170, 0.096857
1276.6450, 0.099385
1278.5730, 0.101972
1280.5020, 0.104315
1282.4300, 0.106860
1284.3590, 0.109696
1286.2870, 0.112531
1288.2160, 0.115465
1290.1440, 0.118323
1292.0730, 0.121381
1294.0010, 0.124711
1295.9300, 0.128405
1297.8580, 0.132196
1299.7870, 0.135917
1301.7150, 0.140000
1303.6440, 0.144241
1305.5720, 0.148670
1307.5000, 0.153035
1309.4290, 0.157753
1311.3570, 0.162622
1313.2860, 0.167461
1315.2140, 0.172576
1317.1430, 0.177652
1319.0710, 0.183141
1321.0000, 0.189038
1322.9280, 0.195015
1324.8570, 0.201108
1326.7850, 0.207716
1328.7140, 0.214520
1330.6420, 0.221707
1332.5710, 0.229547
1334.4990, 0.237624
1336.4270, 0.245934
1338.3560, 0.254685
1340.2840, 0.263840
1342.2130, 0.273620
1344.1410, 0.283883
1346.0700, 0.294451
1347.9980, 0.305555
1349.9270, 0.317537
1351.8550, 0.329992
1353.7840, 0.343000
1355.7120, 0.356751
1357.6410, 0.370974
1359.5690, 0.385710
1361.4980, 0.402044
1363.4260, 0.419247
1365.3540, 0.436108
1367.2830, 0.453928
1369.2110, 0.472317
1371.1400, 0.490933
1373.0680, 0.509970
1374.9970, 0.529464
1376.9250, 0.549628
1378.8540, 0.570175
1380.7820, 0.590758
1382.7110, 0.611865
1384.6390, 0.632853
1386.5680, 0.653131
1388.4960, 0.671689
1390.4240, 0.687473
1392.3530, 0.700057
1394.2810, 0.709105
1396.2100, 0.714215
1398.1380, 0.715367
1400.0670, 0.713951
1401.9950, 0.711326
1403.9240, 0.706435
1405.8520, 0.698491
1407.7810, 0.686714
1409.7090, 0.671661
1411.6380, 0.654605
1413.5660, 0.637201
1415.4950, 0.619692
1417.4230, 0.603149
1419.3510, 0.587454
1421.2800, 0.572578
1423.2080, 0.558915
1425.1370, 0.545719
1427.0650, 0.532884
1428.9940, 0.520560
1430.9220, 0.508526
1432.8510, 0.497212
1434.7790, 0.486725
1436.7080, 0.476826
1438.6360, 0.467236
1440.5650, 0.457486
1442.4930, 0.447798
1444.4220, 0.438580
1446.3500, 0.429249
1448.2780, 0.419910
1450.2070, 0.410557
1452.1350, 0.400574
1454.0640, 0.390266
1455.9920, 0.380142
1457.9210, 0.370483
1459.8490, 0.361159
1461.7780, 0.351766
1463.7060, 0.342783
1465.6350, 0.333817
1467.5630, 0.324780
1469.4920, 0.316215
1471.4200, 0.307560
1473.3490, 0.299015
1475.2770, 0.290859
1477.2050, 0.282863
1479.1340, 0.274788
1481.0620, 0.266804
1482.9910, 0.258958
1484.9190, 0.251334
1486.8480, 0.243865
1488.7760, 0.236378
1490.7050, 0.229221
1492.6330, 0.221905
1494.5620, 0.214554
1496.4900, 0.207429
1498.4190, 0.200251
1500.3470, 0.193371
1502.2760, 0.186588
1504.2040, 0.179806
1506.1320, 0.173329
1508.0610, 0.166505
1509.9890, 0.159578
1511.9180, 0.153152
1513.8460, 0.146906
1515.7750, 0.140713
1517.7030, 0.134446
1519.6320, 0.127994
1521.5600, 0.121509
1523.4890, 0.115565
1525.4170, 0.109753
1527.3460, 0.103690
1529.2740, 0.097578
1531.2030, 0.091688
1533.1310, 0.085758
1535.0590, 0.079781
1536.9880, 0.073843
1538.9160, 0.068018
1540.8450, 0.062166
1542.7730, 0.056221
1544.7020, 0.050422
1546.6300, 0.044706
1548.5590, 0.039442
1550.4870, 0.035117
1552.4160, 0.031678
1554.3440, 0.028767
1556.2730, 0.026555
1558.2010, 0.024647
1560.1300, 0.023137
1562.0580, 0.021965
1563.9860, 0.020909
1565.9150, 0.020186
1567.8430, 0.019632
1569.7720, 0.018592
1571.7000, 0.017822
1573.6290, 0.017333
1575.5570, 0.016845
1577.4860, 0.016501
1579.4140, 0.016350
1581.3430, 0.016292
1583.2710, 0.016059
1585.2000, 0.015688
1587.1280, 0.015447
1589.0570, 0.015080
1590.9850, 0.014399
1592.9130, 0.013863
1594.8420, 0.013427
1596.7700, 0.013050
1598.6990, 0.012558
1600.6270, 0.011929
1602.5560, 0.011476
1604.4840, 0.011250
1606.4130, 0.011030
1608.3410, 0.010792
1610.2700, 0.010537
1612.1980, 0.010281
1614.1270, 0.009872
1616.0550, 0.009464
1617.9840, 0.009126
1619.9120, 0.008878
1621.8400, 0.009105
1623.7690, 0.009324
1625.6970, 0.009234
1627.6260, 0.008911
1629.5540, 0.008641
1631.4830, 0.008727
1633.4110, 0.008794
1635.3400, 0.008576
1637.2680, 0.008381
1639.1970, 0.008312
1641.1250, 0.008318
1643.0540, 0.008303
1644.9820, 0.008309
1646.9110, 0.008316
1648.8390, 0.008060
1650.7670, 0.007870
1652.6960, 0.007755
1654.6240, 0.007572
1656.5530, 0.007441
1658.4810, 0.007480
1660.4100, 0.007463
1662.3380, 0.007161
1664.2670, 0.006851
1666.1950, 0.006888
1668.1240, 0.006881
1670.0520, 0.007107
1671.9810, 0.007223
1673.9090, 0.007133
1675.8380, 0.006898
1677.7660, 0.006588
1679.6940, 0.006506
1681.6230, 0.006526
1683.5510, 0.006488
1685.4800, 0.006273
1687.4080, 0.006174
1689.3370, 0.006068
1691.2650, 0.005982
1693.1940, 0.005953
1695.1220, 0.005905
1697.0510, 0.005661
1698.9790, 0.005413
1700.9080, 0.005530
1702.8360, 0.005648
1704.7650, 0.005646
1706.6930, 0.005742
1708.6210, 0.005588
1710.5500, 0.005472
1712.4780, 0.005714
1714.4070, 0.005798
1716.3350, 0.005466
1718.2640, 0.005134
1720.1920, 0.005142
1722.1210, 0.005154
1724.0490, 0.005463
1725.9780, 0.005548
1727.9060, 0.005232
1729.8350, 0.005014
1731.7630, 0.005041
1733.6920, 0.004793
1735.6200, 0.004725
1737.5480, 0.004845
1739.4770, 0.004553
1741.4050, 0.004297
1743.3340, 0.004245
1745.2620, 0.004369
1747.1910, 0.004279
1749.1190, 0.003801
1751.0480, 0.003911
1752.9760, 0.004335
1754.9050, 0.004441
1756.8330, 0.004200
1758.7620, 0.004232
1760.6900, 0.004618
1762.6190, 0.004487
1764.5470, 0.004773
1766.4750, 0.005223
1768.4040, 0.005366
1770.3320, 0.005744
1772.2610, 0.005471
1774.1890, 0.005635
1776.1180, 0.006497
1778.0460, 0.007046
1779.9750, 0.007753
1781.9030, 0.008897
1783.8320, 0.009835
1785.7600, 0.010840
1787.6890, 0.012475
1789.6170, 0.014697
1791.5460, 0.016941
1793.4740, 0.018335
1795.4020, 0.018694
1797.3310, 0.018668
1799.2590, 0.017352
1801.1880, 0.014705
1803.1160, 0.011708
1805.0450, 0.009301
1806.9730, 0.007745
1808.9020, 0.006729
1810.8300, 0.006073
1812.7590, 0.005506
1814.6870, 0.005010
1816.6160, 0.004476
1818.5440, 0.004281
1820.4730, 0.004689
1822.4010, 0.004606
1824.3290, 0.004290
1826.2580, 0.003878
1828.1860, 0.003648
1830.1150, 0.003994
1832.0430, 0.004124
1833.9720, 0.003730
1835.9000, 0.003662
1837.8290, 0.003696
1839.7570, 0.003646
1841.6860, 0.003874
1843.6140, 0.003772
1845.5430, 0.003489
1847.4710, 0.003886
1849.4000, 0.003885
1851.3280, 0.003467
1853.2560, 0.003756
1855.1850, 0.004150
1857.1130, 0.003924
1859.0420, 0.003658
1860.9700, 0.003746
1862.8990, 0.003986
1864.8270, 0.004111
1866.7560, 0.004107
1868.6840, 0.003679
1870.6130, 0.003169
1872.5410, 0.003377
1874.4700, 0.003673
1876.3980, 0.003785
1878.3270, 0.003842
1880.2550, 0.003817
1882.1830, 0.004203
1884.1120, 0.003866
1886.0400, 0.003429
1887.9690, 0.003466
1889.8970, 0.003416
1891.8260, 0.003747
1893.7540, 0.004336
1895.6830, 0.004481
1897.6110, 0.003957
1899.5400, 0.003348
1901.4680, 0.003588
1903.3970, 0.003847
1905.3250, 0.003773
1907.2540, 0.003690
1909.1820, 0.003072
1911.1100, 0.002555
1913.0390, 0.002896
1914.9670, 0.003102
1916.8960, 0.003560
1918.8240, 0.004019
1920.7530, 0.003476
1922.6810, 0.003812
1924.6100, 0.004446
1926.5380, 0.004048
1928.4670, 0.003680
1930.3950, 0.003129
1932.3240, 0.003147
1934.2520, 0.003009
1936.1810, 0.003928
1938.1090, 0.004328
1940.0370, 0.003505
1941.9660, 0.003698
1943.8940, 0.004006
1945.8230, 0.003155
1947.7510, 0.003422
1949.6800, 0.004431
1951.6080, 0.004494
1953.5370, 0.004141
1955.4650, 0.004323
1957.3940, 0.003965
1959.3220, 0.003223
1961.2510, 0.002757
1963.1790, 0.002887
1965.1080, 0.002890
1967.0360, 0.002604
1968.9640, 0.003450
1970.8930, 0.005140
1972.8210, 0.003872
1974.7500, 0.001818
1976.6780, 0.002135
1978.6070, 0.004663
1980.5350, 0.005822
1982.4640, 0.005025
1984.3920, 0.004671
1986.3210, 0.005375
1988.2490, 0.005295
1990.1780, 0.005355
1992.1060, 0.005989
1994.0350, 0.004851
1995.9630, 0.003023
1997.8910, 0.003158
1999.8200, 0.003299
2001.7480, 0.002755
2003.6770, 0.003346
2005.6050, 0.004531
2007.5340, 0.004762
2009.4620, 0.004754
2011.3910, 0.004275
2013.3190, 0.003572
2015.2480, 0.001758
2017.1760, 0.001742
2019.1050, 0.002821
2021.0330, 0.001927
2022.9620, 0.002879
2024.8900, 0.003757
2026.8180, 0.003807
2028.7470, 0.003648
2030.6750, 0.004133
2032.6040, 0.003782
2034.5320, 0.003725
2036.4610, 0.004166
2038.3890, 0.004082
2040.3180, 0.004060
2042.2460, 0.004508
2044.1750, 0.005212
2046.1030, 0.004631
2048.0320, 0.005236
2049.9600, 0.005546
2051.8890, 0.005608
2053.8170, 0.006087
2055.7460, 0.005485
2057.6740, 0.005401
2059.6030, 0.006587
2061.5310, 0.006826
2063.4590, 0.005535
2065.3880, 0.005169
2067.3160, 0.005995
2069.2450, 0.006157
2071.1730, 0.006081
2073.1020, 0.005361
2075.0300, 0.005417
2076.9590, 0.005542
2078.8870, 0.005578
2080.8160, 0.006389
2082.7440, 0.006264
2084.6730, 0.006110
2086.6010, 0.006068
2088.5300, 0.005452
2090.4580, 0.006192
2092.3860, 0.006337
2094.3150, 0.006152
2096.2430, 0.006231
2098.1720, 0.005909
2100.1000, 0.005698
2102.0290, 0.005209
2103.9570, 0.005662
2105.8860, 0.006238
2107.8140, 0.006736
2109.7430, 0.007299
2111.6710, 0.006833
2113.6000, 0.007063
2115.5280, 0.007278
2117.4570, 0.006695
2119.3850, 0.005381
2121.3130, 0.005024
2123.2420, 0.005663
2125.1700, 0.005293
2127.0990, 0.004745
2129.0270, 0.004553
2130.9560, 0.004382
2132.8840, 0.004072
2134.8130, 0.005255
2136.7410, 0.005748
2138.6700, 0.005144
2140.5980, 0.004420
2142.5270, 0.004848
2144.4550, 0.005632
2146.3840, 0.004778
2148.3120, 0.006442
2150.2400, 0.007230
2152.1690, 0.005173
2154.0970, 0.003573
2156.0260, 0.003215
2157.9540, 0.004127
2159.8830, 0.006456
2161.8110, 0.006041
2163.7400, 0.005000
2165.6680, 0.006768
2167.5970, 0.008058
2169.5250, 0.006470
2171.4540, 0.004391
2173.3820, 0.003268
2175.3110, 0.004505
2177.2390, 0.007412
2179.1670, 0.006382
2181.0960, 0.005621
2183.0240, 0.008363
2184.9530, 0.008181
2186.8810, 0.007087
2188.8100, 0.007287
2190.7380, 0.006488
2192.6670, 0.005266
2194.5950, 0.005190
2196.5240, 0.005992
2198.4520, 0.006431
2200.3810, 0.006162
2202.3090, 0.006404
2204.2380, 0.006158
2206.1660, 0.005910
2208.0940, 0.006458
2210.0230, 0.007181
2211.9510, 0.007456
2213.8800, 0.007169
2215.8080, 0.007426
2217.7370, 0.007357
2219.6650, 0.005669
2221.5940, 0.005313
2223.5220, 0.007443
2225.4510, 0.008332
2227.3790, 0.007327
2229.3080, 0.006372
2231.2360, 0.006329
2233.1650, 0.007460
2235.0930, 0.009166
2237.0210, 0.008638
2238.9500, 0.006682
2240.8780, 0.006049
2242.8070, 0.006740
2244.7350, 0.006939
2246.6640, 0.006403
2248.5920, 0.005884
2250.5210, 0.006187
2252.4490, 0.006722
2254.3780, 0.007232
2256.3060, 0.007552
2258.2350, 0.007458
2260.1630, 0.007632
2262.0920, 0.007447
2264.0200, 0.006883
2265.9480, 0.006470
2267.8770, 0.006945
2269.8050, 0.007139
2271.7340, 0.006455
2273.6620, 0.006674
2275.5910, 0.007166
2277.5190, 0.007230
2279.4480, 0.007312
2281.3760, 0.008384
2283.3050, 0.009225
2285.2330, 0.009370
2287.1620, 0.008864
2289.0900, 0.008753
2291.0190, 0.008758
2292.9470, 0.008501
2294.8750, 0.007734
2296.8040, 0.007558
2298.7320, 0.007838
2300.6610, 0.007884
2302.5890, 0.007698
2304.5180, 0.008226
2306.4460, 0.009162
2308.3750, 0.009280
2310.3030, 0.009378
2312.2320, 0.009328
2314.1600, 0.008707
2316.0890, 0.008715
2318.0170, 0.009186
2319.9460, 0.009434
2321.8740, 0.010034
2323.8020, 0.010452
2325.7310, 0.009761
2327.6590, 0.008763
2329.5880, 0.008587
2331.5160, 0.008406
2333.4450, 0.007924
2335.3730, 0.008028
2337.3020, 0.008538
2339.2300, 0.008816
2341.1590, 0.008985
2343.0870, 0.008758
2345.0160, 0.008565
2346.9440, 0.008749
2348.8730, 0.008961
2350.8010, 0.008623
2352.7290, 0.008630
2354.6580, 0.009109
2356.5860, 0.009572
2358.5150, 0.009746
2360.4430, 0.009186
2362.3720, 0.008339
2364.3000, 0.008117
2366.2290, 0.008405
2368.1570, 0.008454
2370.0860, 0.008355
2372.0140, 0.008199
2373.9420, 0.008463
2375.8710, 0.008359
2377.7990, 0.008084
2379.7280, 0.008152
2381.6560, 0.008244
2383.5850, 0.007727
2385.5130, 0.007955
2387.4420, 0.008146
2389.3700, 0.007907
2391.2990, 0.007681
2393.2270, 0.007661
2395.1560, 0.008134
2397.0840, 0.008931
2399.0120, 0.008977
2400.9410, 0.008439
2402.8690, 0.008269
2404.7980, 0.008372
2406.7260, 0.008549
2408.6550, 0.007808
2410.5830, 0.007912
2412.5120, 0.007987
2414.4400, 0.007585
2416.3690, 0.007877
2418.2970, 0.008330
2420.2260, 0.008445
2422.1540, 0.008329
2424.0830, 0.008214
2426.0110, 0.008138
2427.9390, 0.008246
2429.8680, 0.009071
2431.7960, 0.009475
2433.7250, 0.008739
2435.6530, 0.008237
2437.5820, 0.008157
2439.5100, 0.008920
2441.4390, 0.009757
2443.3670, 0.009448
2445.2960, 0.009216
2447.2240, 0.009509
2449.1530, 0.010223
2451.0810, 0.009460
2453.0100, 0.008664
2454.9380, 0.009365
2456.8660, 0.009994
2458.7950, 0.009969
2460.7230, 0.009752
2462.6520, 0.009734
2464.5800, 0.009954
2466.5090, 0.010163
2468.4370, 0.010090
2470.3660, 0.010180
2472.2940, 0.010233
2474.2230, 0.010812
2476.1510, 0.011414
2478.0800, 0.011658
2480.0080, 0.011961
2481.9370, 0.012037
2483.8650, 0.012012
2485.7930, 0.012432
2487.7220, 0.012715
2489.6500, 0.012751
2491.5790, 0.013145
2493.5070, 0.014255
2495.4360, 0.015601
2497.3640, 0.016504
2499.2930, 0.016851
2501.2210, 0.017454
2503.1500, 0.018558
2505.0780, 0.019483
2507.0070, 0.019422
2508.9350, 0.019149
2510.8640, 0.019258
2512.7920, 0.020298
2514.7200, 0.020286
2516.6490, 0.019406
2518.5770, 0.019230
2520.5060, 0.019526
2522.4340, 0.018781
2524.3630, 0.018377
2526.2910, 0.017887
2528.2200, 0.015965
2530.1480, 0.015111
2532.0770, 0.014990
2534.0050, 0.013950
2535.9340, 0.013869
2537.8620, 0.014122
2539.7910, 0.013149
2541.7190, 0.012319
2543.6470, 0.012254
2545.5760, 0.012100
2547.5040, 0.012054
2549.4330, 0.011479
2551.3610, 0.011247
2553.2900, 0.010970
2555.2180, 0.010674
2557.1470, 0.011177
2559.0750, 0.011819
2561.0040, 0.011869
2562.9320, 0.011725
2564.8610, 0.011695
2566.7890, 0.012043
2568.7180, 0.012230
2570.6460, 0.011773
2572.5740, 0.011499
2574.5030, 0.011013
2576.4310, 0.010815
2578.3600, 0.010762
2580.2880, 0.010888
2582.2170, 0.010949
2584.1450, 0.011060
2586.0740, 0.010859
2588.0020, 0.010745
2589.9310, 0.011298
2591.8590, 0.011424
2593.7880, 0.011513
2595.7160, 0.011367
2597.6450, 0.011254
2599.5730, 0.011272
2601.5010, 0.011276
2603.4300, 0.011099
2605.3580, 0.010955
2607.2870, 0.010863
2609.2150, 0.010707
2611.1440, 0.010298
2613.0720, 0.009584
2615.0010, 0.010156
2616.9290, 0.010670
2618.8580, 0.009911
2620.7860, 0.009651
2622.7150, 0.009701
2624.6430, 0.009298
2626.5720, 0.009341
2628.5000, 0.009473
2630.4280, 0.009527
2632.3570, 0.009929
2634.2850, 0.009992
2636.2140, 0.009519
2638.1420, 0.009237
2640.0710, 0.009218
2641.9990, 0.009896
2643.9280, 0.010374
2645.8560, 0.009861
2647.7850, 0.009271
2649.7130, 0.009735
2651.6420, 0.010038
2653.5700, 0.009544
2655.4990, 0.009554
2657.4270, 0.009851
2659.3550, 0.009455
2661.2840, 0.008765
2663.2120, 0.009155
2665.1410, 0.009124
2667.0690, 0.008602
2668.9980, 0.008773
2670.9260, 0.008635
2672.8550, 0.008376
2674.7830, 0.008769
2676.7120, 0.009019
2678.6400, 0.008732
2680.5690, 0.008593
2682.4970, 0.008669
2684.4260, 0.008791
2686.3540, 0.008588
2688.2820, 0.008320
2690.2110, 0.008173
2692.1390, 0.008119
2694.0680, 0.008292
2695.9960, 0.008249
2697.9250, 0.008190
2699.8530, 0.008437
2701.7820, 0.008560
2703.7100, 0.008491
2705.6390, 0.008216
2707.5670, 0.008098
2709.4960, 0.008448
2711.4240, 0.008273
2713.3530, 0.007895
2715.2810, 0.008007
2717.2090, 0.008520
2719.1380, 0.008721
2721.0660, 0.008458
2722.9950, 0.007961
2724.9230, 0.008092
2726.8520, 0.008129
2728.7800, 0.008322
2730.7090, 0.008022
2732.6370, 0.008106
2734.5660, 0.008226
2736.4940, 0.007793
2738.4230, 0.007561
2740.3510, 0.007840
2742.2800, 0.008057
2744.2080, 0.008198
2746.1360, 0.007970
2748.0650, 0.007388
2749.9930, 0.007364
2751.9220, 0.007912
2753.8500, 0.007828
2755.7790, 0.007530
2757.7070, 0.007689
2759.6360, 0.007640
2761.5640, 0.007336
2763.4930, 0.007466
2765.4210, 0.007995
2767.3500, 0.007857
2769.2780, 0.007501
2771.2070, 0.007500
2773.1350, 0.007853
2775.0630, 0.007783
2776.9920, 0.007613
2778.9200, 0.007524
2780.8490, 0.007309
2782.7770, 0.007446
2784.7060, 0.007763
2786.6340, 0.008414
2788.5630, 0.008453
2790.4910, 0.008078
2792.4200, 0.008000
2794.3480, 0.007742
2796.2770, 0.007114
2798.2050, 0.007111
2800.1340, 0.007648
2802.0620, 0.008153
2803.9900, 0.007951
2805.9190, 0.007362
2807.8470, 0.007480
2809.7760, 0.008287
2811.7040, 0.008536
2813.6330, 0.008689
2815.5610, 0.008014
2817.4900, 0.008122
2819.4180, 0.008357
2821.3470, 0.008223
2823.2750, 0.008949
2825.2040, 0.009110
2827.1320, 0.008662
2829.0610, 0.009154
2830.9890, 0.009441
2832.9170, 0.009130
2834.8460, 0.009443
2836.7740, 0.010342
2838.7030, 0.010690
2840.6310, 0.010126
2842.5600, 0.010306
2844.4880, 0.010606
2846.4170, 0.010793
2848.3450, 0.010452
2850.2740, 0.010309
2852.2020, 0.010863
2854.1310, 0.011819
2856.0590, 0.012350
2857.9880, 0.012744
2859.9160, 0.013138
2861.8440, 0.013253
2863.7730, 0.013093
2865.7010, 0.012797
2867.6300, 0.013178
2869.5580, 0.013285
2871.4870, 0.013333
2873.4150, 0.013350
2875.3440, 0.013386
2877.2720, 0.013419
2879.2010, 0.013212
2881.1290, 0.012861
2883.0580, 0.012810
2884.9860, 0.012900
2886.9150, 0.012616
2888.8430, 0.012042
2890.7710, 0.011489
2892.7000, 0.011803
2894.6280, 0.012421
2896.5570, 0.012438
2898.4850, 0.011929
2900.4140, 0.011875
2902.3420, 0.012115
2904.2710, 0.012795
2906.1990, 0.012935
2908.1280, 0.011926
2910.0560, 0.011720
2911.9850, 0.011770
2913.9130, 0.012319
2915.8420, 0.012842
2917.7700, 0.012651
2919.6980, 0.012934
2921.6270, 0.013394
2923.5550, 0.013272
2925.4840, 0.012981
2927.4120, 0.013143
2929.3410, 0.013457
2931.2690, 0.013280
2933.1980, 0.013123
2935.1260, 0.013311
2937.0550, 0.013850
2938.9830, 0.014465
2940.9120, 0.013943
2942.8400, 0.013352
2944.7690, 0.013523
2946.6970, 0.013814
2948.6250, 0.013885
2950.5540, 0.014008
2952.4820, 0.013960
2954.4110, 0.013574
2956.3390, 0.013543
2958.2680, 0.013808
2960.1960, 0.013947
2962.1250, 0.014160
2964.0530, 0.014155
2965.9820, 0.014469
2967.9100, 0.014944
2969.8390, 0.015263
2971.7670, 0.015063
2973.6960, 0.014022
2975.6240, 0.014019
2977.5520, 0.014869
2979.4810, 0.014389
2981.4090, 0.013935
2983.3380, 0.014871
2985.2660, 0.014820
2987.1950, 0.014239
2989.1230, 0.014437
2991.0520, 0.013863
2992.9800, 0.013165
2994.9090, 0.013173
2996.8370, 0.013009
2998.7660, 0.012870
3000.6940, 0.013702
3002.6230, 0.013822
3004.5510, 0.013712
3006.4790, 0.014685
3008.4080, 0.014771
3010.3360, 0.013553
3012.2650, 0.013494
3014.1930, 0.014207
3016.1220, 0.014071
3018.0500, 0.013542
3019.9790, 0.013596
3021.9070, 0.013943
3023.8360, 0.014700
3025.7640, 0.014694
3027.6930, 0.014514
3029.6210, 0.014245
3031.5500, 0.014037
3033.4780, 0.014078
3035.4060, 0.014810
3037.3350, 0.015075
3039.2630, 0.014826
3041.1920, 0.014733
3043.1200, 0.014229
3045.0490, 0.014101
3046.9770, 0.014746
3048.9060, 0.015391
3050.8340, 0.015560
3052.7630, 0.015696
3054.6910, 0.015953
3056.6200, 0.016534
3058.5480, 0.016470
3060.4770, 0.016742
3062.4050, 0.016303
3064.3330, 0.015229
3066.2620, 0.015406
3068.1900, 0.015962
3070.1190, 0.016262
3072.0470, 0.016061
3073.9760, 0.016392
3075.9040, 0.017342
3077.8330, 0.017994
3079.7610, 0.017912
3081.6900, 0.016893
3083.6180, 0.016475
3085.5470, 0.017155
3087.4750, 0.017461
3089.4040, 0.017946
3091.3320, 0.018877
3093.2600, 0.018599
3095.1890, 0.018101
3097.1170, 0.017819
3099.0460, 0.018063
3100.9740, 0.018681
3102.9030, 0.019065
3104.8310, 0.018733
3106.7600, 0.018631
3108.6880, 0.018827
3110.6170, 0.018855
3112.5450, 0.019536
3114.4740, 0.019387
3116.4020, 0.019002
3118.3310, 0.018766
3120.2590, 0.018875
3122.1880, 0.019747
3124.1160, 0.019887
3126.0440, 0.019730
3127.9730, 0.020253
3129.9010, 0.020172
3131.8300, 0.019277
3133.7580, 0.019029
3135.6870, 0.019250
3137.6150, 0.019497
3139.5440, 0.020333
3141.4720, 0.020339
3143.4010, 0.019497
3145.3290, 0.019042
3147.2580, 0.020245
3149.1860, 0.020721
3151.1150, 0.019904
3153.0430, 0.019898
3154.9710, 0.020520
3156.9000, 0.021274
3158.8280, 0.021562
3160.7570, 0.020531
3162.6850, 0.019566
3164.6140, 0.019098
3166.5420, 0.019629
3168.4710, 0.020765
3170.3990, 0.020898
3172.3280, 0.021234
3174.2560, 0.022366
3176.1850, 0.021903
3178.1130, 0.021818
3180.0420, 0.022138
3181.9700, 0.021499
3183.8980, 0.021075
3185.8270, 0.021038
3187.7550, 0.020492
3189.6840, 0.020045
3191.6120, 0.020470
3193.5410, 0.021791
3195.4690, 0.021995
3197.3980, 0.022050
3199.3260, 0.022078
3201.2550, 0.021796
3203.1830, 0.022053
3205.1120, 0.022718
3207.0400, 0.023077
3208.9690, 0.022320
3210.8970, 0.021641
3212.8250, 0.022233
3214.7540, 0.022364
3216.6820, 0.021770
3218.6110, 0.022368
3220.5390, 0.022413
3222.4680, 0.021568
3224.3960, 0.021538
3226.3250, 0.021921
3228.2530, 0.022142
3230.1820, 0.022235
3232.1100, 0.022744
3234.0390, 0.022971
3235.9670, 0.022488
3237.8960, 0.021841
3239.8240, 0.021278
3241.7520, 0.021951
3243.6810, 0.022630
3245.6090, 0.022649
3247.5380, 0.022524
3249.4660, 0.023032
3251.3950, 0.022961
3253.3230, 0.022941
3255.2520, 0.022859
3257.1800, 0.022443
3259.1090, 0.022806
3261.0370, 0.022527
3262.9660, 0.022241
3264.8940, 0.022584
3266.8230, 0.022452
3268.7510, 0.022512
3270.6790, 0.023847
3272.6080, 0.024526
3274.5360, 0.023496
3276.4650, 0.022379
3278.3930, 0.021699
3280.3220, 0.022122
3282.2500, 0.022489
3284.1790, 0.022376
3286.1070, 0.021902
3288.0360, 0.021739
3289.9640, 0.022304
3291.8930, 0.023055
3293.8210, 0.023229
3295.7500, 0.022511
3297.6780, 0.022554
3299.6060, 0.023179
3301.5350, 0.023697
3303.4630, 0.022786
3305.3920, 0.022655
3307.3200, 0.023430
3309.2490, 0.023280
3311.1770, 0.023526
3313.1060, 0.023751
3315.0340, 0.023088
3316.9630, 0.023301
3318.8910, 0.023222
3320.8200, 0.022555
3322.7480, 0.022480
3324.6770, 0.023430
3326.6050, 0.023515
3328.5330, 0.023493
3330.4620, 0.023350
3332.3900, 0.024067
3334.3190, 0.024219
3336.2470, 0.023879
3338.1760, 0.022870
3340.1040, 0.022910
3342.0330, 0.023593
3343.9610, 0.023228
3345.8900, 0.023341
3347.8180, 0.023339
3349.7470, 0.022538
3351.6750, 0.023033
3353.6040, 0.023936
3355.5320, 0.024785
3357.4600, 0.024607
3359.3890, 0.024393
3361.3170, 0.024589
3363.2460, 0.024044
3365.1740, 0.023254
3367.1030, 0.023070
3369.0310, 0.023779
3370.9600, 0.023720
3372.8880, 0.023812
3374.8170, 0.024122
3376.7450, 0.025076
3378.6740, 0.024670
3380.6020, 0.023458
3382.5310, 0.023449
3384.4590, 0.023920
3386.3870, 0.025089
3388.3160, 0.024685
3390.2440, 0.023226
3392.1730, 0.023247
3394.1010, 0.024396
3396.0300, 0.023625
3397.9580, 0.023391
3399.8870, 0.024331
3401.8150, 0.023357
3403.7440, 0.023527
3405.6720, 0.025321
3407.6010, 0.024848
3409.5290, 0.022997
3411.4580, 0.023613
3413.3860, 0.024982
3415.3140, 0.023729
3417.2430, 0.023955
3419.1710, 0.024828
3421.1000, 0.024676
3423.0280, 0.024221
3424.9570, 0.023761
3426.8850, 0.023681
3428.8140, 0.023993
3430.7420, 0.022741
3432.6710, 0.022748
3434.5990, 0.023872
3436.5280, 0.024351
3438.4560, 0.023445
3440.3850, 0.023654
3442.3130, 0.024228
3444.2410, 0.023401
3446.1700, 0.023292
3448.0980, 0.024297
3450.0270, 0.024172
3451.9550, 0.023859
3453.8840, 0.023613
3455.8120, 0.022166
3457.7410, 0.021965
3459.6690, 0.023597
3461.5980, 0.024272
3463.5260, 0.024314
3465.4550, 0.023836
3467.3830, 0.022321
3469.3120, 0.022715
3471.2400, 0.023391
3473.1680, 0.023186
3475.0970, 0.023163
3477.0250, 0.023531
3478.9540, 0.023658
3480.8820, 0.023196
3482.8110, 0.023433
3484.7390, 0.022612
3486.6680, 0.021743
3488.5960, 0.022236
3490.5250, 0.023135
3492.4530, 0.023301
3494.3820, 0.022731
3496.3100, 0.022441
3498.2390, 0.022731
3500.1670, 0.023412
3502.0950, 0.023637
3504.0240, 0.023696
3505.9520, 0.023734
3507.8810, 0.022086
3509.8090, 0.021222
3511.7380, 0.021697
3513.6660, 0.022465
3515.5950, 0.022679
3517.5230, 0.021828
3519.4520, 0.021647
3521.3800, 0.023031
3523.3090, 0.023851
3525.2370, 0.021878
3527.1660, 0.020771
3529.0940, 0.021861
3531.0220, 0.022274
3532.9510, 0.022060
3534.8790, 0.021560
3536.8080, 0.022301
3538.7360, 0.023148
3540.6650, 0.023314
3542.5930, 0.021481
3544.5220, 0.021611
3546.4500, 0.022772
3548.3790, 0.022685
3550.3070, 0.021923
3552.2360, 0.020282
3554.1640, 0.019668
3556.0930, 0.020124
3558.0210, 0.021377
3559.9490, 0.022899
3561.8780, 0.022914
3563.8060, 0.021841
3565.7350, 0.020434
3567.6630, 0.020104
3569.5920, 0.020942
3571.5200, 0.022470
3573.4490, 0.023039
3575.3770, 0.022338
3577.3060, 0.021742
3579.2340, 0.020815
3581.1630, 0.020413
3583.0910, 0.019683
3585.0200, 0.018862
3586.9480, 0.018693
3588.8760, 0.019009
3590.8050, 0.020357
3592.7330, 0.020979
3594.6620, 0.021435
3596.5900, 0.020775
3598.5190, 0.019770
3600.4470, 0.020158
3602.3760, 0.021611
3604.3040, 0.021321
3606.2330, 0.020641
3608.1610, 0.020460
3610.0900, 0.019922
3612.0180, 0.019588
3613.9470, 0.020620
3615.8750, 0.021718
3617.8030, 0.021303
3619.7320, 0.021284
3621.6600, 0.019982
3623.5890, 0.020327
3625.5170, 0.020291
3627.4460, 0.020462
3629.3740, 0.020207
3631.3030, 0.020293
3633.2310, 0.021164
3635.1600, 0.021130
3637.0880, 0.019332
3639.0170, 0.019098
3640.9450, 0.020428
3642.8740, 0.020025
3644.8020, 0.018289
3646.7300, 0.017708
3648.6590, 0.019650
3650.5870, 0.020204
3652.5160, 0.019931
3654.4440, 0.020651
3656.3730, 0.019726
3658.3010, 0.019736
3660.2300, 0.020683
3662.1580, 0.021671
3664.0870, 0.022662
3666.0150, 0.021937
3667.9440, 0.020702
3669.8720, 0.019906
3671.8010, 0.021396
3673.7290, 0.025930
3675.6570, 0.029437
3677.5860, 0.028002
3679.5140, 0.023920
3681.4430, 0.020909
3683.3710, 0.019777
3685.3000, 0.020184
3687.2280, 0.019220
3689.1570, 0.019111
3691.0850, 0.020014
3693.0140, 0.019806
3694.9420, 0.019436
3696.8710, 0.019283
3698.7990, 0.019357
3700.7280, 0.019760
3702.6560, 0.019754
3704.5840, 0.020047
3706.5130, 0.020625
3708.4410, 0.019042
3710.3700, 0.018913
3712.2980, 0.020282
3714.2270, 0.019622
3716.1550, 0.019591
3718.0840, 0.020854
3720.0120, 0.021232
3721.9410, 0.021184
3723.8690, 0.020429
3725.7980, 0.020383
3727.7260, 0.020858
3729.6550, 0.020748
3731.5830, 0.020326
3733.5110, 0.020715
3735.4400, 0.020756
3737.3680, 0.020168
3739.2970, 0.019992
3741.2250, 0.019785
3743.1540, 0.020701
3745.0820, 0.020648
3747.0110, 0.020765
3748.9390, 0.020407
3750.8680, 0.020282
3752.7960, 0.019671
3754.7250, 0.020151
3756.6530, 0.020919
3758.5820, 0.020463
3760.5100, 0.020124
3762.4380, 0.020910
3764.3670, 0.020447
3766.2950, 0.019137
3768.2240, 0.019814
3770.1520, 0.021795
3772.0810, 0.021546
3774.0090, 0.021654
3775.9380, 0.022040
3777.8660, 0.021873
3779.7950, 0.020798
3781.7230, 0.020371
3783.6520, 0.021260
3785.5800, 0.021161
3787.5090, 0.021226
3789.4370, 0.021718
3791.3650, 0.022193
3793.2940, 0.020958
3795.2220, 0.021404
3797.1510, 0.022604
3799.0790, 0.021904
3801.0080, 0.021031
3802.9360, 0.021370
3804.8650, 0.021310
3806.7930, 0.020224
3808.7220, 0.020845
3810.6500, 0.021743
3812.5790, 0.022189
3814.5070, 0.021521
3816.4360, 0.021395
3818.3640, 0.021618
3820.2920, 0.021560
3822.2210, 0.021466
3824.1490, 0.021044
3826.0780, 0.021291
3828.0060, 0.021801
3829.9350, 0.022344
3831.8630, 0.021258
3833.7920, 0.019535
3835.7200, 0.019251
3837.6490, 0.020058
3839.5770, 0.021133
3841.5060, 0.019999
3843.4340, 0.019969
3845.3630, 0.021431
3847.2910, 0.021514
3849.2190, 0.020523
3851.1480, 0.019969
3853.0760, 0.020694
3855.0050, 0.020087
3856.9330, 0.019180
3858.8620, 0.020864
3860.7900, 0.022082
3862.7190, 0.021335
3864.6470, 0.021124
3866.5760, 0.021849
3868.5040, 0.020109
3870.4330, 0.019666
3872.3610, 0.020157
3874.2900, 0.020108
3876.2180, 0.020909
3878.1460, 0.022153
3880.0750, 0.022884
3882.0030, 0.023074
3883.9320, 0.022211
3885.8600, 0.021979
3887.7890, 0.023201
3889.7170, 0.022794
3891.6460, 0.022596
3893.5740, 0.023177
3895.5030, 0.023357
3897.4310, 0.023118
3899.3600, 0.022363
3901.2880, 0.021543
3903.2170, 0.022964
3905.1450, 0.024071
3907.0730, 0.023019
3909.0020, 0.023313
3910.9300, 0.021740
3912.8590, 0.019898
3914.7870, 0.019858
3916.7160, 0.020489
3918.6440, 0.020181
3920.5730, 0.021203
3922.5010, 0.020378
3924.4300, 0.020682
3926.3580, 0.021047
3928.2870, 0.021539
3930.2150, 0.022627
3932.1440, 0.022277
3934.0720, 0.021699
3936.0000, 0.021392
3937.9290, 0.021379
3939.8570, 0.020912
3941.7860, 0.021879
3943.7140, 0.022547
3945.6430, 0.021208
3947.5710, 0.021019
3949.5000, 0.021500
3951.4280, 0.021419
3953.3570, 0.022473
3955.2850, 0.023171
3957.2140, 0.023095
3959.1420, 0.023275
3961.0710, 0.023522
3962.9990, 0.022105
3964.9270, 0.021214
3966.8560, 0.020803
3968.7840, 0.022048
3970.7130, 0.022459
3972.6410, 0.021480
3974.5700, 0.020019
3976.4980, 0.019738
3978.4270, 0.021573
3980.3550, 0.023275
3982.2840, 0.023997
3984.2120, 0.023154
3986.1410, 0.022809
3988.0690, 0.023063
3989.9980, 0.022506
3991.9260, 0.021712
3993.8540, 0.022223
3995.7830, 0.023124
3997.7110, 0.023202
3999.6400, 0.023213
##END=



