##NAMES=Chenevixite
##RRUFFID=R040166
##IDEAL CHEMISTRY=Cu^2+^Fe^3+^(As^5+^O_4_)(OH)_2_
##LOCALITY=Volcanic Sunnyside mine, Santa Cruz County, Arizona, USA
##OWNER=RRUFF
##SOURCE=Andy Anderson
##DESCRIPTION=Green earthy massive
##STATUS=The identification of this mineral has been confirmed by X-ray diffraction and chemical analysis
##URL=rruff.info/R040166
##MEASURED CHEMISTRY=Cu_2.00_(Fe^3+^_1.98_[box]_0.02_)_Σ=2_((As_0.94_S_0.06_)O_4_)_2_(OH)_4_·1.49H_2_O
399.1926, 0.219212
401.1211, 0.198463
403.0496, 0.199417
404.9780, 0.193586
406.9065, 0.191050
408.8350, 0.184428
410.7634, 0.177353
412.6919, 0.172573
414.6204, 0.165789
416.5488, 0.157745
418.4773, 0.153660
420.4058, 0.152455
422.3342, 0.152886
424.2627, 0.155713
426.1912, 0.161862
428.1196, 0.169111
430.0481, 0.177000
431.9766, 0.186484
433.9050, 0.192359
435.8335, 0.192900
437.7620, 0.192450
439.6904, 0.193850
441.6189, 0.194851
443.5474, 0.194568
445.4758, 0.194409
447.4043, 0.195812
449.3328, 0.196903
451.2612, 0.197378
453.1897, 0.199160
455.1182, 0.201050
457.0466, 0.201485
458.9751, 0.202089
460.9036, 0.202046
462.8320, 0.201022
464.7605, 0.199997
466.6890, 0.197784
468.6174, 0.195012
470.5459, 0.192247
472.4744, 0.188211
474.4028, 0.182880
476.3313, 0.176884
478.2598, 0.170084
480.1882, 0.163482
482.1167, 0.157973
484.0452, 0.153605
485.9736, 0.151360
487.9021, 0.151351
489.8306, 0.153448
491.7590, 0.158022
493.6875, 0.164449
495.6160, 0.172299
497.5444, 0.180729
499.4729, 0.189264
501.4014, 0.196715
503.3298, 0.202017
505.2583, 0.205972
507.1868, 0.208052
509.1152, 0.207801
511.0437, 0.205922
512.9722, 0.202615
514.9006, 0.197714
516.8291, 0.191903
518.7576, 0.186621
520.6860, 0.181641
522.6145, 0.176298
524.5430, 0.171834
526.4714, 0.168245
528.3999, 0.164252
530.3284, 0.160046
532.2568, 0.155699
534.1853, 0.151126
536.1138, 0.146152
538.0422, 0.140601
539.9707, 0.134996
541.8992, 0.129243
543.8276, 0.123552
545.7561, 0.118504
547.6846, 0.114001
549.6130, 0.109741
551.5415, 0.106131
553.4700, 0.103415
555.3984, 0.100970
557.3269, 0.099029
559.2554, 0.097870
561.1838, 0.096590
563.1123, 0.094926
565.0408, 0.093543
566.9692, 0.092126
568.8977, 0.090672
570.8262, 0.089355
572.7546, 0.088275
574.6831, 0.087492
576.6116, 0.086956
578.5400, 0.086597
580.4685, 0.086152
582.3970, 0.085535
584.3254, 0.084527
586.2539, 0.083252
588.1824, 0.081634
590.1108, 0.080010
592.0393, 0.078459
593.9678, 0.076734
595.8962, 0.074906
597.8247, 0.073135
599.7532, 0.071650
601.6816, 0.070584
603.6101, 0.069508
605.5386, 0.068502
607.4670, 0.067751
609.3955, 0.066848
611.3240, 0.065648
613.2524, 0.064594
615.1809, 0.063903
617.1094, 0.063312
619.0378, 0.062467
620.9663, 0.061330
622.8948, 0.059831
624.8232, 0.058337
626.7517, 0.056894
628.6802, 0.055523
630.6086, 0.054475
632.5371, 0.053900
634.4656, 0.053567
636.3940, 0.053415
638.3225, 0.053452
640.2510, 0.053640
642.1794, 0.053681
644.1079, 0.053747
646.0364, 0.053568
647.9648, 0.053174
649.8933, 0.052599
651.8218, 0.052328
653.7502, 0.052181
655.6787, 0.052166
657.6072, 0.052479
659.5356, 0.053113
661.4641, 0.053858
663.3926, 0.054625
665.3210, 0.055569
667.2495, 0.056775
669.1780, 0.057662
671.1064, 0.058354
673.0349, 0.059181
674.9634, 0.060210
676.8918, 0.061278
678.8203, 0.062401
680.7488, 0.063541
682.6772, 0.064597
684.6057, 0.065752
686.5342, 0.067141
688.4626, 0.068628
690.3911, 0.070161
692.3196, 0.071603
694.2480, 0.072706
696.1765, 0.073318
698.1050, 0.073431
700.0334, 0.073346
701.9619, 0.073336
703.8904, 0.073552
705.8188, 0.074144
707.7473, 0.075228
709.6758, 0.076790
711.6042, 0.078512
713.5327, 0.080266
715.4612, 0.082281
717.3896, 0.084519
719.3181, 0.086777
721.2466, 0.089217
723.1750, 0.092109
725.1035, 0.095234
727.0320, 0.098402
728.9604, 0.101829
730.8889, 0.105432
732.8174, 0.109457
734.7458, 0.113666
736.6743, 0.117916
738.6028, 0.122369
740.5313, 0.127233
742.4597, 0.132488
744.3882, 0.137988
746.3167, 0.143666
748.2451, 0.149535
750.1736, 0.155662
752.1021, 0.162163
754.0305, 0.169016
755.9590, 0.176274
757.8875, 0.184019
759.8159, 0.192014
761.7444, 0.200566
763.6729, 0.209431
765.6013, 0.218634
767.5298, 0.228252
769.4583, 0.238305
771.3867, 0.249088
773.3152, 0.260070
775.2437, 0.270691
777.1721, 0.280942
779.1006, 0.290785
781.0291, 0.300246
782.9575, 0.309755
784.8860, 0.319976
786.8145, 0.331141
788.7429, 0.342979
790.6714, 0.354494
792.5999, 0.365545
794.5283, 0.375249
796.4568, 0.383008
798.3853, 0.388288
800.3137, 0.391307
802.2422, 0.392383
804.1707, 0.391385
806.0991, 0.388710
808.0276, 0.384393
809.9561, 0.377766
811.8845, 0.368772
813.8130, 0.358687
815.7415, 0.347418
817.6699, 0.335006
819.5984, 0.322251
821.5269, 0.309703
823.4553, 0.297824
825.3838, 0.286897
827.3123, 0.276879
829.2407, 0.267754
831.1692, 0.259278
833.0977, 0.250963
835.0261, 0.242691
836.9546, 0.234381
838.8831, 0.226086
840.8115, 0.218034
842.7400, 0.210353
844.6685, 0.203013
846.5969, 0.196815
848.5254, 0.191762
850.4539, 0.187870
852.3823, 0.185154
854.3108, 0.183646
856.2393, 0.182506
858.1677, 0.180830
860.0962, 0.178502
862.0247, 0.175560
863.9531, 0.172104
865.8816, 0.168720
867.8101, 0.165778
869.7385, 0.163101
871.6670, 0.160613
873.5955, 0.158035
875.5239, 0.155701
877.4524, 0.153164
879.3809, 0.150104
881.3093, 0.146834
883.2378, 0.143472
885.1663, 0.139735
887.0947, 0.135762
889.0232, 0.131553
890.9517, 0.127346
892.8801, 0.122987
894.8085, 0.118170
896.7370, 0.113137
898.6655, 0.108152
900.5939, 0.103278
902.5224, 0.098038
904.4509, 0.092722
906.3793, 0.087844
908.3078, 0.083457
910.2363, 0.079423
912.1647, 0.075722
914.0932, 0.072262
916.0217, 0.068926
917.9501, 0.065754
919.8786, 0.062717
921.8071, 0.060209
923.7355, 0.058058
925.6640, 0.056076
927.5925, 0.054587
929.5209, 0.053544
931.4494, 0.052587
933.3779, 0.051919
935.3063, 0.051721
937.2348, 0.051739
939.1633, 0.051907
941.0917, 0.052490
943.0202, 0.053421
944.9487, 0.054416
946.8771, 0.055373
948.8056, 0.056372
950.7341, 0.056936
952.6625, 0.056680
954.5910, 0.055485
956.5195, 0.053660
958.4479, 0.051995
960.3764, 0.050821
962.3049, 0.049953
964.2333, 0.049826
966.1618, 0.050617
968.0903, 0.052309
970.0187, 0.055120
971.9472, 0.058900
973.8757, 0.063680
975.8041, 0.069643
977.7326, 0.076577
979.6611, 0.084161
981.5895, 0.092118
983.5180, 0.099727
985.4465, 0.105985
987.3749, 0.109805
989.3034, 0.110665
991.2319, 0.109199
993.1603, 0.107212
995.0888, 0.105887
997.0173, 0.105591
998.9457, 0.106581
1000.8740, 0.108877
1002.8030, 0.112559
1004.7310, 0.117784
1006.6600, 0.124475
1008.5880, 0.132412
1010.5170, 0.141027
1012.4450, 0.149575
1014.3730, 0.157106
1016.3020, 0.162884
1018.2300, 0.166382
1020.1590, 0.167383
1022.0870, 0.166234
1024.0160, 0.163393
1025.9440, 0.159278
1027.8730, 0.154162
1029.8010, 0.148635
1031.7300, 0.143450
1033.6580, 0.138796
1035.5870, 0.134895
1037.5150, 0.131914
1039.4440, 0.129235
1041.3720, 0.126262
1043.3010, 0.122960
1045.2290, 0.119533
1047.1570, 0.116255
1049.0860, 0.112829
1051.0140, 0.108770
1052.9430, 0.104144
1054.8710, 0.099250
1056.8000, 0.094458
1058.7280, 0.090020
1060.6570, 0.085941
1062.5850, 0.082364
1064.5140, 0.079189
1066.4420, 0.076234
1068.3710, 0.073692
1070.2990, 0.071446
1072.2280, 0.069826
1074.1560, 0.069024
1076.0840, 0.068461
1078.0130, 0.068137
1079.9410, 0.068301
1081.8700, 0.068719
1083.7980, 0.069209
1085.7270, 0.069745
1087.6550, 0.070336
1089.5840, 0.070855
1091.5120, 0.071127
1093.4410, 0.071317
1095.3690, 0.071240
1097.2980, 0.070954
1099.2260, 0.070566
1101.1550, 0.069910
1103.0830, 0.069156
1105.0110, 0.068353
1106.9400, 0.067425
1108.8680, 0.066479
1110.7970, 0.065436
1112.7250, 0.064482
1114.6540, 0.063555
1116.5820, 0.062662
1118.5110, 0.061591
1120.4390, 0.060331
1122.3680, 0.059006
1124.2960, 0.057581
1126.2250, 0.056125
1128.1530, 0.054640
1130.0820, 0.053053
1132.0100, 0.051597
1133.9380, 0.050363
1135.8670, 0.049123
1137.7950, 0.047908
1139.7240, 0.046770
1141.6520, 0.045450
1143.5810, 0.044102
1145.5090, 0.042812
1147.4380, 0.041358
1149.3660, 0.039803
1151.2950, 0.038615
1153.2230, 0.037725
1155.1520, 0.036769
1157.0800, 0.036105
1159.0090, 0.036125
1160.9370, 0.036554
1162.8650, 0.036990
1164.7940, 0.036944
1166.7220, 0.036380
1168.6510, 0.035674
1170.5790, 0.035015
1172.5080, 0.034379
1174.4360, 0.033757
1176.3650, 0.033228
1178.2930, 0.032668
1180.2220, 0.032067
1182.1500, 0.031547
1184.0790, 0.031008
1186.0070, 0.030392
1187.9360, 0.029868
1189.8640, 0.029504
1191.7920, 0.029133
1193.7210, 0.028745
1195.6490, 0.028365
1197.5780, 0.028048
1199.5060, 0.027579
1201.4350, 0.027048
1203.3630, 0.026607
1205.2920, 0.026070
1207.2200, 0.025313
1209.1490, 0.024423
1211.0770, 0.023657
1213.0060, 0.022912
1214.9340, 0.022071
1216.8630, 0.021184
1218.7910, 0.020293
1220.7190, 0.019458
1222.6480, 0.018657
1224.5760, 0.017892
1226.5050, 0.017122
1228.4330, 0.016529
1230.3620, 0.016100
1232.2900, 0.015738
1234.2190, 0.015471
1236.1470, 0.015168
1238.0760, 0.014933
1240.0040, 0.014778
1241.9330, 0.014611
1243.8610, 0.014487
1245.7900, 0.014299
1247.7180, 0.014116
1249.6460, 0.014054
1251.5750, 0.014026
1253.5030, 0.014023
1255.4320, 0.013957
1257.3600, 0.013741
1259.2890, 0.013634
1261.2170, 0.013488
1263.1460, 0.013397
1265.0740, 0.013554
1267.0030, 0.013719
1268.9310, 0.013767
1270.8600, 0.013778
1272.7880, 0.013832
1274.7170, 0.013935
1276.6450, 0.014036
1278.5730, 0.014032
1280.5020, 0.013963
1282.4300, 0.014004
1284.3590, 0.014147
1286.2870, 0.014188
1288.2160, 0.014177
1290.1440, 0.014149
1292.0730, 0.014068
1294.0010, 0.014030
1295.9300, 0.013968
1297.8580, 0.013936
1299.7870, 0.013906
1301.7150, 0.013914
1303.6440, 0.013879
1305.5720, 0.013762
1307.5000, 0.013843
1309.4290, 0.013880
1311.3570, 0.013852
1313.2860, 0.013966
1315.2140, 0.014071
1317.1430, 0.014103
1319.0710, 0.014036
1321.0000, 0.014084
1322.9280, 0.014104
1324.8570, 0.013998
1326.7850, 0.014029
1328.7140, 0.014191
1330.6420, 0.014228
1332.5710, 0.014173
1334.4990, 0.014177
1336.4270, 0.014286
1338.3560, 0.014389
1340.2840, 0.014515
1342.2130, 0.014535
1344.1410, 0.014502
1346.0700, 0.014481
1347.9980, 0.014612
1349.9270, 0.014731
1351.8550, 0.014809
1353.7840, 0.014953
1355.7120, 0.014918
1357.6410, 0.014834
1359.5690, 0.014872
1361.4980, 0.014895
1363.4260, 0.014906
1365.3540, 0.014993
1367.2830, 0.015114
1369.2110, 0.015107
1371.1400, 0.015056
1373.0680, 0.015162
1374.9970, 0.015333
1376.9250, 0.015606
1378.8540, 0.015783
1380.7820, 0.015737
1382.7110, 0.015787
1384.6390, 0.015928
1386.5680, 0.016131
1388.4960, 0.016256
1390.4240, 0.016274
1392.3530, 0.016400
1394.2810, 0.016511
1396.2100, 0.016577
1398.1380, 0.016672
1400.0670, 0.016720
1401.9950, 0.016837
1403.9240, 0.017011
1405.8520, 0.017116
1407.7810, 0.017259
1409.7090, 0.017479
1411.6380, 0.017703
1413.5660, 0.017833
1415.4950, 0.017987
1417.4230, 0.018262
1419.3510, 0.018465
1421.2800, 0.018534
1423.2080, 0.018661
1425.1370, 0.018837
1427.0650, 0.018962
1428.9940, 0.019034
1430.9220, 0.019155
1432.8510, 0.019297
1434.7790, 0.019570
1436.7080, 0.019836
1438.6360, 0.019936
1440.5650, 0.020036
1442.4930, 0.020052
1444.4220, 0.020161
1446.3500, 0.020242
1448.2780, 0.020331
1450.2070, 0.020428
1452.1350, 0.020433
1454.0640, 0.020386
1455.9920, 0.020599
1457.9210, 0.020671
1459.8490, 0.020514
1461.7780, 0.020354
1463.7060, 0.020257
1465.6350, 0.020047
1467.5630, 0.019770
1469.4920, 0.019666
1471.4200, 0.019593
1473.3490, 0.019548
1475.2770, 0.019473
1477.2050, 0.019258
1479.1340, 0.018996
1481.0620, 0.018910
1482.9910, 0.018771
1484.9190, 0.018696
1486.8480, 0.018638
1488.7760, 0.018658
1490.7050, 0.018618
1492.6330, 0.018343
1494.5620, 0.018227
1496.4900, 0.018313
1498.4190, 0.018265
1500.3470, 0.018262
1502.2760, 0.018234
1504.2040, 0.018292
1506.1320, 0.018473
1508.0610, 0.018439
1509.9890, 0.018326
1511.9180, 0.018165
1513.8460, 0.018068
1515.7750, 0.018150
1517.7030, 0.018282
1519.6320, 0.018452
1521.5600, 0.018521
1523.4890, 0.018456
1525.4170, 0.018485
1527.3460, 0.018566
1529.2740, 0.018542
1531.2030, 0.018683
1533.1310, 0.018953
1535.0590, 0.019099
1536.9880, 0.019182
1538.9160, 0.019486
1540.8450, 0.019676
1542.7730, 0.019659
1544.7020, 0.019733
1546.6300, 0.019771
1548.5590, 0.019720
1550.4870, 0.019940
1552.4160, 0.020311
1554.3440, 0.020630
1556.2730, 0.020746
1558.2010, 0.020973
1560.1300, 0.021127
1562.0580, 0.021146
1563.9860, 0.021191
1565.9150, 0.021306
1567.8430, 0.021511
1569.7720, 0.021797
1571.7000, 0.021959
1573.6290, 0.022042
1575.5570, 0.022364
1577.4860, 0.022540
1579.4140, 0.022594
1581.3430, 0.022766
1583.2710, 0.022926
1585.2000, 0.022985
1587.1280, 0.023164
1589.0570, 0.023385
1590.9850, 0.023429
1592.9130, 0.023523
1594.8420, 0.023687
1596.7700, 0.023777
1598.6990, 0.023877
1600.6270, 0.024012
1602.5560, 0.024258
1604.4840, 0.024512
1606.4130, 0.024598
1608.3410, 0.024628
1610.2700, 0.024567
1612.1980, 0.024668
1614.1270, 0.024820
1616.0550, 0.025033
1617.9840, 0.025159
1619.9120, 0.025259
1621.8400, 0.025335
1623.7690, 0.025299
1625.6970, 0.025189
1627.6260, 0.025207
1629.5540, 0.025329
1631.4830, 0.025268
1633.4110, 0.025387
1635.3400, 0.025674
1637.2680, 0.025556
1639.1970, 0.025375
1641.1250, 0.025446
1643.0540, 0.025452
1644.9820, 0.025394
1646.9110, 0.025357
1648.8390, 0.025306
1650.7670, 0.025284
1652.6960, 0.025408
1654.6240, 0.025140
1656.5530, 0.024607
1658.4810, 0.024400
1660.4100, 0.024412
1662.3380, 0.024332
1664.2670, 0.024099
1666.1950, 0.023978
1668.1240, 0.024004
1670.0520, 0.023887
1671.9810, 0.023563
1673.9090, 0.023369
1675.8380, 0.023312
1677.7660, 0.023197
1679.6940, 0.023002
1681.6230, 0.022913
1683.5510, 0.023159
1685.4800, 0.023094
1687.4080, 0.022735
1689.3370, 0.022509
1691.2650, 0.022373
1693.1940, 0.022284
1695.1220, 0.022503
1697.0510, 0.022448
1698.9790, 0.022461
1700.9080, 0.022495
1702.8360, 0.022271
1704.7650, 0.022207
1706.6930, 0.022102
1708.6210, 0.022041
1710.5500, 0.021976
1712.4780, 0.021949
1714.4070, 0.021931
1716.3350, 0.022137
1718.2640, 0.022116
1720.1920, 0.021716
1722.1210, 0.021534
1724.0490, 0.021523
1725.9780, 0.021466
1727.9060, 0.021355
1729.8350, 0.021366
1731.7630, 0.021582
1733.6920, 0.021778
1735.6200, 0.021520
1737.5480, 0.021308
1739.4770, 0.021365
1741.4050, 0.021265
1743.3340, 0.021274
1745.2620, 0.021404
1747.1910, 0.021366
1749.1190, 0.021216
1751.0480, 0.021139
1752.9760, 0.021142
1754.9050, 0.021218
1756.8330, 0.021165
1758.7620, 0.021063
1760.6900, 0.021093
1762.6190, 0.021263
1764.5470, 0.021209
1766.4750, 0.021181
1768.4040, 0.021164
1770.3320, 0.021157
1772.2610, 0.021214
1774.1890, 0.021138
1776.1180, 0.021058
1778.0460, 0.021220
1779.9750, 0.021480
1781.9030, 0.021605
1783.8320, 0.021544
1785.7600, 0.021489
1787.6890, 0.021461
1789.6170, 0.021521
1791.5460, 0.021466
1793.4740, 0.021387
1795.4020, 0.021618
1797.3310, 0.021830
1799.2590, 0.021854
1801.1880, 0.021700
1803.1160, 0.021521
1805.0450, 0.021451
1806.9730, 0.021589
1808.9020, 0.021828
1810.8300, 0.021833
1812.7590, 0.021801
1814.6870, 0.021983
1816.6160, 0.021932
1818.5440, 0.022030
1820.4730, 0.021864
1822.4010, 0.021655
1824.3290, 0.021694
1826.2580, 0.021898
1828.1860, 0.021879
1830.1150, 0.021891
1832.0430, 0.021990
1833.9720, 0.022186
1835.9000, 0.022215
1837.8290, 0.022242
1839.7570, 0.022378
1841.6860, 0.022475
1843.6140, 0.022456
1845.5430, 0.022580
1847.4710, 0.022609
1849.4000, 0.022801
1851.3280, 0.023206
1853.2560, 0.023184
1855.1850, 0.023028
1857.1130, 0.022936
1859.0420, 0.022733
1860.9700, 0.022823
1862.8990, 0.022667
1864.8270, 0.022414
1866.7560, 0.022786
1868.6840, 0.023189
1870.6130, 0.023134
1872.5410, 0.022996
1874.4700, 0.022760
1876.3980, 0.022766
1878.3270, 0.023052
1880.2550, 0.023034
1882.1830, 0.023263
1884.1120, 0.023310
1886.0400, 0.023207
1887.9690, 0.023288
1889.8970, 0.023544
1891.8260, 0.023988
1893.7540, 0.024310
1895.6830, 0.024123
1897.6110, 0.024076
1899.5400, 0.024209
1901.4680, 0.024285
1903.3970, 0.024341
1905.3250, 0.024114
1907.2540, 0.023858
1909.1820, 0.023826
1911.1100, 0.023854
1913.0390, 0.024033
1914.9670, 0.024216
1916.8960, 0.024452
1918.8240, 0.024931
1920.7530, 0.025109
1922.6810, 0.024828
1924.6100, 0.024791
1926.5380, 0.024394
1928.4670, 0.024312
1930.3950, 0.024410
1932.3240, 0.024114
1934.2520, 0.024478
1936.1810, 0.025358
1938.1090, 0.025210
1940.0370, 0.025070
1941.9660, 0.025687
1943.8940, 0.025904
1945.8230, 0.025579
1947.7510, 0.026014
1949.6800, 0.025515
1951.6080, 0.025104
1953.5370, 0.025272
1955.4650, 0.024631
1957.3940, 0.023787
1959.3220, 0.023754
1961.2510, 0.024137
1963.1790, 0.024984
1965.1080, 0.025284
1967.0360, 0.024381
1968.9640, 0.024479
1970.8930, 0.024737
1972.8210, 0.024473
1974.7500, 0.024427
1976.6780, 0.025724
1978.6070, 0.026598
1980.5350, 0.025956
1982.4640, 0.025313
1984.3920, 0.024962
1986.3210, 0.024780
1988.2490, 0.024616
1990.1780, 0.024747
1992.1060, 0.025318
1994.0350, 0.025453
1995.9630, 0.024928
1997.8910, 0.024491
1999.8200, 0.024051
2001.7480, 0.023151
2003.6770, 0.023080
2005.6050, 0.023536
2007.5340, 0.024240
2009.4620, 0.025115
2011.3910, 0.024014
2013.3190, 0.023509
2015.2480, 0.024036
2017.1760, 0.024315
2019.1050, 0.023784
2021.0330, 0.023739
2022.9620, 0.023241
2024.8900, 0.023428
2026.8180, 0.024579
2028.7470, 0.024266
2030.6750, 0.023201
2032.6040, 0.024400
2034.5320, 0.025550
2036.4610, 0.025939
2038.3890, 0.025341
2040.3180, 0.025661
2042.2460, 0.025498
2044.1750, 0.024734
2046.1030, 0.025535
2048.0320, 0.026667
2049.9600, 0.026556
2051.8890, 0.025694
2053.8170, 0.025868
2055.7460, 0.025658
2057.6740, 0.025312
2059.6030, 0.025604
2061.5310, 0.025911
2063.4590, 0.025767
2065.3880, 0.025418
2067.3160, 0.025100
2069.2450, 0.025105
2071.1730, 0.025201
2073.1020, 0.025714
2075.0300, 0.025953
2076.9590, 0.026219
2078.8870, 0.025982
2080.8160, 0.025829
2082.7440, 0.025802
2084.6730, 0.025930
2086.6010, 0.025655
2088.5300, 0.025316
2090.4580, 0.025606
2092.3860, 0.025872
2094.3150, 0.025849
2096.2430, 0.025555
2098.1720, 0.026007
2100.1000, 0.026701
2102.0290, 0.026900
2103.9570, 0.026427
2105.8860, 0.026494
2107.8140, 0.026645
2109.7430, 0.026771
2111.6710, 0.026602
2113.6000, 0.026365
2115.5280, 0.026474
2117.4570, 0.026521
2119.3850, 0.026538
2121.3130, 0.026733
2123.2420, 0.026646
2125.1700, 0.026367
2127.0990, 0.026820
2129.0270, 0.026576
2130.9560, 0.025636
2132.8840, 0.025276
2134.8130, 0.025616
2136.7410, 0.026327
2138.6700, 0.026965
2140.5980, 0.027248
2142.5270, 0.026046
2144.4550, 0.025634
2146.3840, 0.026654
2148.3120, 0.027811
2150.2400, 0.028638
2152.1690, 0.028503
2154.0970, 0.027415
2156.0260, 0.025211
2157.9540, 0.026775
2159.8830, 0.031489
2161.8110, 0.031985
2163.7400, 0.030580
2165.6680, 0.030726
2167.5970, 0.031787
2169.5250, 0.031074
2171.4540, 0.030098
2173.3820, 0.029896
2175.3110, 0.030068
2177.2390, 0.029648
2179.1670, 0.028245
2181.0960, 0.028306
2183.0240, 0.028981
2184.9530, 0.028817
2186.8810, 0.028877
2188.8100, 0.028562
2190.7380, 0.029024
2192.6670, 0.029558
2194.5950, 0.029379
2196.5240, 0.028892
2198.4520, 0.028719
2200.3810, 0.028643
2202.3090, 0.027812
2204.2380, 0.027832
2206.1660, 0.028771
2208.0940, 0.028913
2210.0230, 0.028223
2211.9510, 0.028571
2213.8800, 0.029012
2215.8080, 0.029558
2217.7370, 0.029873
2219.6650, 0.029321
2221.5940, 0.029049
2223.5220, 0.029019
2225.4510, 0.028627
2227.3790, 0.028627
2229.3080, 0.029315
2231.2360, 0.029426
2233.1650, 0.029197
2235.0930, 0.028893
2237.0210, 0.028369
2238.9500, 0.028950
2240.8780, 0.029471
2242.8070, 0.029655
2244.7350, 0.030096
2246.6640, 0.030158
2248.5920, 0.029606
2250.5210, 0.029164
2252.4490, 0.028401
2254.3780, 0.028842
2256.3060, 0.030093
2258.2350, 0.030210
2260.1630, 0.030342
2262.0920, 0.030467
2264.0200, 0.030042
2265.9480, 0.029712
2267.8770, 0.029442
2269.8050, 0.029657
2271.7340, 0.029945
2273.6620, 0.029952
2275.5910, 0.030011
2277.5190, 0.030131
2279.4480, 0.030336
2281.3760, 0.030681
2283.3050, 0.031001
2285.2330, 0.031003
2287.1620, 0.030554
2289.0900, 0.030062
2291.0190, 0.030470
2292.9470, 0.031030
2294.8750, 0.030852
2296.8040, 0.030485
2298.7320, 0.030264
2300.6610, 0.030195
2302.5890, 0.030387
2304.5180, 0.030810
2306.4460, 0.030931
2308.3750, 0.030569
2310.3030, 0.030602
2312.2320, 0.030556
2314.1600, 0.030995
2316.0890, 0.031434
2318.0170, 0.031284
2319.9460, 0.031618
2321.8740, 0.032110
2323.8020, 0.032266
2325.7310, 0.031400
2327.6590, 0.030544
2329.5880, 0.030737
2331.5160, 0.031133
2333.4450, 0.031032
2335.3730, 0.030847
2337.3020, 0.030906
2339.2300, 0.030984
2341.1590, 0.031162
2343.0870, 0.031463
2345.0160, 0.031391
2346.9440, 0.031047
2348.8730, 0.031013
2350.8010, 0.031147
2352.7290, 0.030986
2354.6580, 0.031134
2356.5860, 0.031450
2358.5150, 0.031708
2360.4430, 0.031697
2362.3720, 0.031443
2364.3000, 0.031344
2366.2290, 0.031736
2368.1570, 0.031728
2370.0860, 0.031555
2372.0140, 0.031679
2373.9420, 0.031532
2375.8710, 0.031255
2377.7990, 0.031188
2379.7280, 0.031474
2381.6560, 0.032023
2383.5850, 0.032070
2385.5130, 0.031708
2387.4420, 0.031651
2389.3700, 0.031932
2391.2990, 0.032168
2393.2270, 0.032226
2395.1560, 0.031897
2397.0840, 0.031374
2399.0120, 0.031722
2400.9410, 0.032213
2402.8690, 0.032280
2404.7980, 0.032392
2406.7260, 0.032689
2408.6550, 0.032791
2410.5830, 0.032770
2412.5120, 0.032509
2414.4400, 0.032260
2416.3690, 0.032489
2418.2970, 0.032936
2420.2260, 0.032643
2422.1540, 0.032552
2424.0830, 0.033413
2426.0110, 0.033467
2427.9390, 0.032955
2429.8680, 0.032972
2431.7960, 0.032544
2433.7250, 0.032468
2435.6530, 0.032830
2437.5820, 0.033110
2439.5100, 0.033290
2441.4390, 0.033514
2443.3670, 0.033871
2445.2960, 0.034183
2447.2240, 0.034375
2449.1530, 0.034466
2451.0810, 0.034227
2453.0100, 0.033837
2454.9380, 0.033852
2456.8660, 0.033940
2458.7950, 0.034130
2460.7230, 0.033891
2462.6520, 0.033910
2464.5800, 0.034133
2466.5090, 0.034127
2468.4370, 0.033757
2470.3660, 0.033677
2472.2940, 0.033969
2474.2230, 0.034455
2476.1510, 0.034176
2478.0800, 0.034067
2480.0080, 0.033975
2481.9370, 0.033923
2483.8650, 0.034474
2485.7930, 0.034824
2487.7220, 0.034690
2489.6500, 0.034390
2491.5790, 0.034715
2493.5070, 0.034892
2495.4360, 0.034929
2497.3640, 0.034888
2499.2930, 0.034801
2501.2210, 0.034843
2503.1500, 0.034992
2505.0780, 0.034856
2507.0070, 0.035167
2508.9350, 0.035247
2510.8640, 0.035209
2512.7920, 0.035173
2514.7200, 0.035119
2516.6490, 0.035376
2518.5770, 0.035696
2520.5060, 0.035339
2522.4340, 0.035340
2524.3630, 0.035555
2526.2910, 0.035763
2528.2200, 0.035801
2530.1480, 0.035504
2532.0770, 0.035590
2534.0050, 0.035703
2535.9340, 0.035836
2537.8620, 0.035787
2539.7910, 0.035890
2541.7190, 0.035808
2543.6470, 0.035627
2545.5760, 0.035876
2547.5040, 0.036362
2549.4330, 0.036480
2551.3610, 0.036046
2553.2900, 0.035534
2555.2180, 0.035849
2557.1470, 0.036272
2559.0750, 0.036576
2561.0040, 0.036667
2562.9320, 0.036495
2564.8610, 0.036787
2566.7890, 0.037018
2568.7180, 0.036922
2570.6460, 0.036951
2572.5740, 0.036714
2574.5030, 0.036715
2576.4310, 0.037447
2578.3600, 0.037497
2580.2880, 0.036994
2582.2170, 0.036812
2584.1450, 0.037224
2586.0740, 0.037295
2588.0020, 0.037150
2589.9310, 0.037022
2591.8590, 0.036885
2593.7880, 0.036779
2595.7160, 0.036782
2597.6450, 0.036879
2599.5730, 0.037085
2601.5010, 0.036928
2603.4300, 0.037038
2605.3580, 0.037509
2607.2870, 0.037854
2609.2150, 0.037809
2611.1440, 0.037438
2613.0720, 0.037688
2615.0010, 0.037922
2616.9290, 0.037583
2618.8580, 0.037357
2620.7860, 0.037450
2622.7150, 0.037661
2624.6430, 0.037743
2626.5720, 0.037906
2628.5000, 0.038026
2630.4280, 0.038289
2632.3570, 0.038252
2634.2850, 0.037720
2636.2140, 0.037543
2638.1420, 0.038003
2640.0710, 0.038297
2641.9990, 0.038424
2643.9280, 0.038230
2645.8560, 0.038096
2647.7850, 0.038096
2649.7130, 0.038007
2651.6420, 0.038088
2653.5700, 0.038417
2655.4990, 0.038586
2657.4270, 0.038587
2659.3550, 0.038461
2661.2840, 0.038201
2663.2120, 0.038013
2665.1410, 0.038079
2667.0690, 0.038315
2668.9980, 0.038237
2670.9260, 0.038159
2672.8550, 0.038076
2674.7830, 0.038186
2676.7120, 0.038460
2678.6400, 0.038359
2680.5690, 0.038118
2682.4970, 0.038511
2684.4260, 0.038862
2686.3540, 0.038701
2688.2820, 0.038352
2690.2110, 0.038498
2692.1390, 0.038777
2694.0680, 0.039196
2695.9960, 0.039252
2697.9250, 0.038990
2699.8530, 0.039143
2701.7820, 0.039394
2703.7100, 0.039527
2705.6390, 0.039599
2707.5670, 0.039675
2709.4960, 0.039762
2711.4240, 0.039909
2713.3530, 0.039856
2715.2810, 0.039823
2717.2090, 0.039661
2719.1380, 0.039605
2721.0660, 0.039652
2722.9950, 0.039923
2724.9230, 0.040241
2726.8520, 0.040311
2728.7800, 0.040364
2730.7090, 0.040584
2732.6370, 0.040471
2734.5660, 0.040183
2736.4940, 0.040209
2738.4230, 0.040433
2740.3510, 0.040672
2742.2800, 0.041013
2744.2080, 0.041128
2746.1360, 0.041128
2748.0650, 0.041163
2749.9930, 0.041314
2751.9220, 0.041421
2753.8500, 0.041478
2755.7790, 0.041237
2757.7070, 0.041164
2759.6360, 0.041658
2761.5640, 0.041492
2763.4930, 0.041350
2765.4210, 0.041576
2767.3500, 0.041624
2769.2780, 0.041830
2771.2070, 0.041801
2773.1350, 0.041940
2775.0630, 0.042252
2776.9920, 0.042401
2778.9200, 0.042261
2780.8490, 0.042399
2782.7770, 0.042701
2784.7060, 0.042733
2786.6340, 0.042768
2788.5630, 0.042855
2790.4910, 0.042864
2792.4200, 0.042766
2794.3480, 0.042728
2796.2770, 0.042962
2798.2050, 0.043379
2800.1340, 0.043513
2802.0620, 0.043491
2803.9900, 0.043415
2805.9190, 0.043329
2807.8470, 0.043643
2809.7760, 0.044034
2811.7040, 0.044036
2813.6330, 0.044004
2815.5610, 0.044133
2817.4900, 0.044335
2819.4180, 0.044536
2821.3470, 0.044736
2823.2750, 0.044477
2825.2040, 0.044437
2827.1320, 0.044797
2829.0610, 0.044918
2830.9890, 0.044827
2832.9170, 0.044726
2834.8460, 0.044945
2836.7740, 0.045540
2838.7030, 0.045781
2840.6310, 0.045567
2842.5600, 0.045412
2844.4880, 0.045942
2846.4170, 0.046326
2848.3450, 0.046231
2850.2740, 0.046246
2852.2020, 0.046481
2854.1310, 0.047131
2856.0590, 0.047347
2857.9880, 0.047236
2859.9160, 0.047082
2861.8440, 0.047361
2863.7730, 0.047789
2865.7010, 0.047853
2867.6300, 0.048064
2869.5580, 0.048137
2871.4870, 0.048166
2873.4150, 0.048176
2875.3440, 0.048279
2877.2720, 0.048286
2879.2010, 0.048215
2881.1290, 0.047980
2883.0580, 0.048258
2884.9860, 0.048547
2886.9150, 0.048127
2888.8430, 0.048293
2890.7710, 0.048902
2892.7000, 0.049249
2894.6280, 0.049489
2896.5570, 0.048851
2898.4850, 0.048919
2900.4140, 0.049490
2902.3420, 0.049876
2904.2710, 0.050324
2906.1990, 0.050545
2908.1280, 0.050470
2910.0560, 0.050459
2911.9850, 0.050753
2913.9130, 0.051579
2915.8420, 0.051643
2917.7700, 0.051601
2919.6980, 0.051947
2921.6270, 0.052207
2923.5550, 0.052226
2925.4840, 0.052128
2927.4120, 0.052138
2929.3410, 0.052569
2931.2690, 0.053068
2933.1980, 0.053260
2935.1260, 0.052970
2937.0550, 0.052668
2938.9830, 0.052247
2940.9120, 0.052097
2942.8400, 0.052317
2944.7690, 0.052142
2946.6970, 0.052046
2948.6250, 0.051999
2950.5540, 0.052233
2952.4820, 0.052958
2954.4110, 0.053764
2956.3390, 0.053977
2958.2680, 0.053662
2960.1960, 0.053115
2962.1250, 0.053558
2964.0530, 0.054456
2965.9820, 0.054256
2967.9100, 0.053730
2969.8390, 0.053457
2971.7670, 0.053418
2973.6960, 0.053211
2975.6240, 0.053212
2977.5520, 0.053715
2979.4810, 0.053903
2981.4090, 0.053658
2983.3380, 0.053463
2985.2660, 0.053121
2987.1950, 0.053116
2989.1230, 0.053330
2991.0520, 0.053098
2992.9800, 0.053761
2994.9090, 0.054452
2996.8370, 0.054347
2998.7660, 0.054666
3000.6940, 0.054915
3002.6230, 0.054744
3004.5510, 0.055286
3006.4790, 0.055290
3008.4080, 0.055019
3010.3360, 0.055408
3012.2650, 0.055520
3014.1930, 0.055172
3016.1220, 0.055417
3018.0500, 0.055455
3019.9790, 0.055366
3021.9070, 0.055990
3023.8360, 0.056299
3025.7640, 0.056259
3027.6930, 0.056374
3029.6210, 0.056598
3031.5500, 0.057229
3033.4780, 0.057495
3035.4060, 0.057648
3037.3350, 0.057468
3039.2630, 0.057668
3041.1920, 0.058068
3043.1200, 0.058228
3045.0490, 0.057969
3046.9770, 0.057908
3048.9060, 0.058333
3050.8340, 0.058678
3052.7630, 0.058365
3054.6910, 0.058211
3056.6200, 0.058758
3058.5480, 0.059339
3060.4770, 0.059631
3062.4050, 0.059540
3064.3330, 0.059600
3066.2620, 0.060020
3068.1900, 0.060009
3070.1190, 0.059903
3072.0470, 0.060272
3073.9760, 0.060470
3075.9040, 0.060452
3077.8330, 0.060324
3079.7610, 0.060118
3081.6900, 0.060336
3083.6180, 0.060856
3085.5470, 0.061324
3087.4750, 0.061658
3089.4040, 0.061595
3091.3320, 0.062003
3093.2600, 0.062017
3095.1890, 0.061715
3097.1170, 0.062654
3099.0460, 0.063320
3100.9740, 0.063472
3102.9030, 0.063199
3104.8310, 0.063266
3106.7600, 0.063631
3108.6880, 0.063633
3110.6170, 0.063893
3112.5450, 0.064383
3114.4740, 0.064686
3116.4020, 0.064797
3118.3310, 0.064946
3120.2590, 0.065308
3122.1880, 0.065380
3124.1160, 0.065337
3126.0440, 0.065554
3127.9730, 0.066205
3129.9010, 0.066540
3131.8300, 0.066886
3133.7580, 0.067001
3135.6870, 0.066868
3137.6150, 0.066703
3139.5440, 0.066892
3141.4720, 0.067064
3143.4010, 0.067706
3145.3290, 0.068089
3147.2580, 0.067877
3149.1860, 0.068164
3151.1150, 0.068558
3153.0430, 0.068583
3154.9710, 0.068959
3156.9000, 0.069207
3158.8280, 0.069502
3160.7570, 0.069687
3162.6850, 0.070196
3164.6140, 0.070503
3166.5420, 0.070572
3168.4710, 0.070802
3170.3990, 0.071005
3172.3280, 0.071363
3174.2560, 0.072048
3176.1850, 0.072089
3178.1130, 0.072269
3180.0420, 0.072657
3181.9700, 0.072601
3183.8980, 0.073023
3185.8270, 0.073377
3187.7550, 0.073323
3189.6840, 0.073982
3191.6120, 0.074095
3193.5410, 0.073796
3195.4690, 0.074357
3197.3980, 0.075294
3199.3260, 0.075941
3201.2550, 0.076251
3203.1830, 0.076539
3205.1120, 0.076977
3207.0400, 0.077149
3208.9690, 0.077640
3210.8970, 0.077748
3212.8250, 0.077663
3214.7540, 0.078077
3216.6820, 0.078434
3218.6110, 0.078675
3220.5390, 0.078989
3222.4680, 0.079535
3224.3960, 0.079691
3226.3250, 0.080112
3228.2530, 0.080771
3230.1820, 0.080993
3232.1100, 0.080831
3234.0390, 0.080811
3235.9670, 0.081451
3237.8960, 0.082359
3239.8240, 0.083108
3241.7520, 0.083079
3243.6810, 0.083032
3245.6090, 0.083788
3247.5380, 0.084245
3249.4660, 0.084432
3251.3950, 0.085017
3253.3230, 0.085372
3255.2520, 0.085519
3257.1800, 0.085530
3259.1090, 0.085929
3261.0370, 0.087071
3262.9660, 0.087311
3264.8940, 0.087776
3266.8230, 0.088401
3268.7510, 0.087917
3270.6790, 0.087369
3272.6080, 0.088713
3274.5360, 0.090315
3276.4650, 0.090492
3278.3930, 0.090595
3280.3220, 0.091111
3282.2500, 0.091333
3284.1790, 0.091671
3286.1070, 0.092410
3288.0360, 0.092866
3289.9640, 0.094121
3291.8930, 0.094858
3293.8210, 0.095128
3295.7500, 0.095866
3297.6780, 0.096294
3299.6060, 0.097029
3301.5350, 0.098222
3303.4630, 0.098822
3305.3920, 0.099552
3307.3200, 0.100353
3309.2490, 0.101323
3311.1770, 0.102454
3313.1060, 0.103035
3315.0340, 0.104058
3316.9630, 0.105430
3318.8910, 0.106304
3320.8200, 0.106973
3322.7480, 0.107851
3324.6770, 0.108811
3326.6050, 0.110253
3328.5330, 0.111960
3330.4620, 0.113680
3332.3900, 0.114806
3334.3190, 0.116527
3336.2470, 0.118747
3338.1760, 0.120636
3340.1040, 0.122108
3342.0330, 0.124086
3343.9610, 0.125673
3345.8900, 0.127150
3347.8180, 0.129144
3349.7470, 0.131315
3351.6750, 0.132990
3353.6040, 0.135232
3355.5320, 0.138075
3357.4600, 0.139690
3359.3890, 0.140979
3361.3170, 0.143507
3363.2460, 0.146590
3365.1740, 0.148593
3367.1030, 0.150091
3369.0310, 0.152442
3370.9600, 0.155132
3372.8880, 0.156554
3374.8170, 0.157594
3376.7450, 0.159689
3378.6740, 0.162520
3380.6020, 0.164262
3382.5310, 0.165798
3384.4590, 0.167455
3386.3870, 0.169779
3388.3160, 0.172405
3390.2440, 0.174302
3392.1730, 0.177093
3394.1010, 0.180336
3396.0300, 0.183624
3397.9580, 0.186346
3399.8870, 0.188080
3401.8150, 0.189208
3403.7440, 0.188958
3405.6720, 0.188228
3407.6010, 0.186370
3409.5290, 0.182048
3411.4580, 0.176787
3413.3860, 0.170960
3415.3140, 0.164344
3417.2430, 0.157557
3419.1710, 0.151493
3421.1000, 0.146178
3423.0280, 0.140349
3424.9570, 0.135250
3426.8850, 0.130456
3428.8140, 0.125600
3430.7420, 0.120905
3432.6710, 0.116921
3434.5990, 0.113217
3436.5280, 0.108848
3438.4560, 0.104968
3440.3850, 0.102369
3442.3130, 0.099424
3444.2410, 0.095978
3446.1700, 0.093632
3448.0980, 0.092022
3450.0270, 0.089707
3451.9550, 0.087706
3453.8840, 0.085353
3455.8120, 0.083718
3457.7410, 0.082916
3459.6690, 0.080908
3461.5980, 0.078952
3463.5260, 0.078188
3465.4550, 0.077490
3467.3830, 0.076157
3469.3120, 0.075124
3471.2400, 0.074263
3473.1680, 0.073560
3475.0970, 0.072234
3477.0250, 0.070797
3478.9540, 0.070288
3480.8820, 0.070081
3482.8110, 0.069299
3484.7390, 0.068333
3486.6680, 0.067610
3488.5960, 0.067439
3490.5250, 0.067183
3492.4530, 0.065661
3494.3820, 0.065017
3496.3100, 0.065519
3498.2390, 0.064761
3500.1670, 0.064268
3502.0950, 0.064244
3504.0240, 0.063518
3505.9520, 0.062380
3507.8810, 0.061808
3509.8090, 0.061117
3511.7380, 0.060416
3513.6660, 0.060540
3515.5950, 0.060087
3517.5230, 0.059422
3519.4520, 0.059782
3521.3800, 0.059500
3523.3090, 0.058447
3525.2370, 0.058294
3527.1660, 0.057695
3529.0940, 0.057279
3531.0220, 0.056809
3532.9510, 0.056227
3534.8790, 0.056389
3536.8080, 0.056154
3538.7360, 0.055573
3540.6650, 0.055166
3542.5930, 0.055393
3544.5220, 0.054463
3546.4500, 0.054249
3548.3790, 0.054003
3550.3070, 0.053305
3552.2360, 0.053105
3554.1640, 0.052764
3556.0930, 0.051975
3558.0210, 0.051848
3559.9490, 0.052126
3561.8780, 0.051628
3563.8060, 0.051309
3565.7350, 0.050919
3567.6630, 0.050366
3569.5920, 0.049437
3571.5200, 0.049378
3573.4490, 0.050425
3575.3770, 0.050111
3577.3060, 0.049601
3579.2340, 0.050090
3581.1630, 0.048577
3583.0910, 0.047553
3585.0200, 0.048382
3586.9480, 0.048644
3588.8760, 0.047722
3590.8050, 0.047153
3592.7330, 0.047253
3594.6620, 0.047968
3596.5900, 0.049278
3598.5190, 0.049009
3600.4470, 0.047126
3602.3760, 0.046361
3604.3040, 0.047057
3606.2330, 0.047257
3608.1610, 0.047296
3610.0900, 0.047608
3612.0180, 0.047458
3613.9470, 0.047574
3615.8750, 0.048540
3617.8030, 0.049219
3619.7320, 0.050121
3621.6600, 0.051118
3623.5890, 0.050978
3625.5170, 0.050624
3627.4460, 0.049299
3629.3740, 0.048855
3631.3030, 0.048513
3633.2310, 0.048057
3635.1600, 0.048684
3637.0880, 0.048886
3639.0170, 0.048709
3640.9450, 0.048530
3642.8740, 0.048128
3644.8020, 0.047891
3646.7300, 0.046882
3648.6590, 0.046374
3650.5870, 0.046302
3652.5160, 0.046901
3654.4440, 0.047623
3656.3730, 0.047373
3658.3010, 0.047526
3660.2300, 0.047027
3662.1580, 0.046939
3664.0870, 0.047747
3666.0150, 0.048097
3667.9440, 0.047410
3669.8720, 0.047382
3671.8010, 0.047191
3673.7290, 0.046670
3675.6570, 0.047432
3677.5860, 0.048064
3679.5140, 0.048026
3681.4430, 0.048391
3683.3710, 0.048529
3685.3000, 0.048720
3687.2280, 0.050044
3689.1570, 0.051276
3691.0850, 0.052199
3693.0140, 0.051908
3694.9420, 0.051701
3696.8710, 0.052756
3698.7990, 0.052098
3700.7280, 0.051192
3702.6560, 0.050945
3704.5840, 0.051159
3706.5130, 0.050157
3708.4410, 0.048018
3710.3700, 0.047001
3712.2980, 0.046459
3714.2270, 0.045922
3716.1550, 0.045123
3718.0840, 0.044368
3720.0120, 0.044366
3721.9410, 0.045111
3723.8690, 0.044639
3725.7980, 0.043724
3727.7260, 0.043237
3729.6550, 0.042676
3731.5830, 0.043321
3733.5110, 0.043399
3735.4400, 0.042848
3737.3680, 0.043222
3739.2970, 0.042468
3741.2250, 0.042131
3743.1540, 0.043655
3745.0820, 0.043925
3747.0110, 0.043564
3748.9390, 0.044071
3750.8680, 0.044197
3752.7960, 0.043594
3754.7250, 0.042761
3756.6530, 0.042747
3758.5820, 0.043919
3760.5100, 0.044656
3762.4380, 0.044330
3764.3670, 0.043750
3766.2950, 0.042870
3768.2240, 0.042562
3770.1520, 0.042892
3772.0810, 0.043027
3774.0090, 0.043236
3775.9380, 0.043338
3777.8660, 0.043768
3779.7950, 0.043557
3781.7230, 0.042904
3783.6520, 0.043595
3785.5800, 0.044456
3787.5090, 0.044036
3789.4370, 0.043629
3791.3650, 0.044344
3793.2940, 0.044843
3795.2220, 0.044654
3797.1510, 0.044884
3799.0790, 0.044663
3801.0080, 0.044425
3802.9360, 0.044247
3804.8650, 0.044241
3806.7930, 0.044937
3808.7220, 0.044318
3810.6500, 0.043905
3812.5790, 0.043909
3814.5070, 0.044400
3816.4360, 0.044896
3818.3640, 0.044944
3820.2920, 0.045397
3822.2210, 0.045575
3824.1490, 0.045498
3826.0780, 0.044897
3828.0060, 0.044117
3829.9350, 0.044669
3831.8630, 0.044873
3833.7920, 0.044803
3835.7200, 0.044587
3837.6490, 0.045159
3839.5770, 0.045417
3841.5060, 0.045328
3843.4340, 0.045695
3845.3630, 0.045396
3847.2910, 0.044351
3849.2190, 0.044312
3851.1480, 0.045011
3853.0760, 0.046207
3855.0050, 0.046238
3856.9330, 0.045920
3858.8620, 0.045868
3860.7900, 0.045535
3862.7190, 0.045331
3864.6470, 0.044875
3866.5760, 0.044638
3868.5040, 0.044653
3870.4330, 0.044947
3872.3610, 0.045207
3874.2900, 0.044835
3876.2180, 0.045408
3878.1460, 0.046633
3880.0750, 0.046811
3882.0030, 0.046850
3883.9320, 0.046802
3885.8600, 0.045710
3887.7890, 0.045397
3889.7170, 0.045912
3891.6460, 0.046080
3893.5740, 0.045979
3895.5030, 0.046134
3897.4310, 0.046342
3899.3600, 0.046605
3901.2880, 0.046846
3903.2170, 0.046722
3905.1450, 0.046706
3907.0730, 0.045597
3909.0020, 0.044918
3910.9300, 0.045637
3912.8590, 0.046175
3914.7870, 0.046561
3916.7160, 0.046875
3918.6440, 0.046475
3920.5730, 0.045169
3922.5010, 0.044453
3924.4300, 0.044665
3926.3580, 0.045669
3928.2870, 0.046503
3930.2150, 0.046412
3932.1440, 0.046784
3934.0720, 0.046772
3936.0000, 0.046481
3937.9290, 0.046208
3939.8570, 0.046900
3941.7860, 0.047067
3943.7140, 0.046618
3945.6430, 0.046792
3947.5710, 0.046543
3949.5000, 0.046558
3951.4280, 0.046425
3953.3570, 0.046684
3955.2850, 0.046724
3957.2140, 0.046874
3959.1420, 0.046914
3961.0710, 0.047535
3962.9990, 0.047606
3964.9270, 0.047891
3966.8560, 0.047631
3968.7840, 0.047422
3970.7130, 0.047800
3972.6410, 0.046822
3974.5700, 0.046509
3976.4980, 0.047791
3978.4270, 0.047399
3980.3550, 0.047024
3982.2840, 0.047436
3984.2120, 0.047927
3986.1410, 0.047657
3988.0690, 0.047688
3989.9980, 0.047322
3991.9260, 0.047900
3993.8540, 0.048170
3995.7830, 0.047966
3997.7110, 0.048258
##END=



