##NAMES=Eliseevite
##RRUFFID=R130075
##IDEAL CHEMISTRY=Na_1.5_Li{Ti^4+^_2_O_2_[Si_4_O_10.5_(OH)_1.5_]}&#183;2H_2_O
##LOCALITY=Mt. Alluaiv, Lovozero alkaline massif, Kola Peninsula, Russia
##OWNER=Sergey V. Krivovichev
##SOURCE=Sergey V. Krivovichev
##DESCRIPTION=Colorless to pale creamy transparent long-prismatic crystals. Associated with albite, analcime, catapleiite, chabazite-Ca, gmelinite-K, manganoneptunite, microcline, murmanite, and an ussingite. Data from Yakovenchuk et al (2011)
##STATUS=The identification of this mineral has been confirmed by X-ray diffraction and chemical analysis
##URL=rruff.info/R130075
##MEASURED CHEMISTRY=(Na_1.51_K_0.01_Ca_0.01_)_Σ=1.53_Li_0.98_[(Ti_1.89_Nb_0.03_Fe^3+^_0.01_Al_0.01_)_Σ=1.94_Si_4_O_12.26_(OH)_1.74_]∙2.12H_2_O
400.16000, 1.17614
401.12425, 1.24432
402.08850, 1.28693
403.05275, 1.29546
404.01699, 1.28693
404.98124, 1.26705
405.94549, 1.23296
406.90974, 1.19034
407.87399, 1.16761
408.83824, 1.18466
409.80249, 1.26136
410.76673, 1.39489
411.73098, 1.56534
412.69523, 1.73296
413.65948, 1.82387
414.62373, 1.75852
415.58798, 1.58807
416.55223, 1.44318
417.51647, 1.46307
418.48072, 1.68182
419.44497, 1.84375
420.40922, 1.76989
421.37347, 1.60796
422.33772, 1.45455
423.30197, 1.29830
424.26621, 1.12784
425.23046, 1.00852
426.19471, 1.03693
427.15896, 1.19602
428.12321, 1.38352
429.08746, 1.50284
430.05171, 1.54261
431.01595, 1.55114
431.98020, 1.55682
432.94445, 1.55966
433.90870, 1.55682
434.87295, 1.56534
435.83720, 1.58807
436.80145, 1.58807
437.76570, 1.52841
438.72994, 1.46023
439.69419, 1.44887
440.65844, 1.51989
441.62269, 1.62500
442.58694, 1.69602
443.55119, 1.70739
444.51544, 1.68466
445.47968, 1.65625
446.44393, 1.62784
447.40818, 1.61080
448.37243, 1.61364
449.33668, 1.63921
450.30093, 1.67330
451.26518, 1.70455
452.22942, 1.72727
453.19367, 1.73864
454.15792, 1.74148
455.12217, 1.75000
456.08642, 1.76136
457.05067, 1.76136
458.01492, 1.73296
458.97916, 1.69886
459.94341, 1.67330
460.90766, 1.65057
461.87191, 1.62784
462.83616, 1.62500
463.80041, 1.65909
464.76466, 1.72159
465.72890, 1.77841
466.69315, 1.80682
467.65740, 1.79830
468.62165, 1.77273
469.58590, 1.74148
470.55015, 1.72727
471.51440, 1.73011
472.47864, 1.75284
473.44289, 1.77557
474.40714, 1.78693
475.37139, 1.78125
476.33564, 1.76136
477.29989, 1.73296
478.26414, 1.70171
479.22838, 1.67614
480.19263, 1.67614
481.15688, 1.69886
482.12113, 1.73011
483.08538, 1.75284
484.04963, 1.75000
485.01388, 1.73580
485.97812, 1.73580
486.94237, 1.75284
487.90662, 1.77273
488.87087, 1.77557
489.83512, 1.75284
490.79937, 1.72159
491.76362, 1.69602
492.72786, 1.69034
493.69211, 1.70455
494.65636, 1.72443
495.62061, 1.73864
496.58486, 1.74148
497.54911, 1.73864
498.51336, 1.73296
499.47761, 1.73580
500.44185, 1.74148
501.40610, 1.75568
502.37035, 1.76705
503.33460, 1.77273
504.29885, 1.76705
505.26310, 1.75568
506.22735, 1.75000
507.19159, 1.75000
508.15584, 1.75284
509.12009, 1.75568
510.08434, 1.75284
511.04859, 1.74716
512.01284, 1.73864
512.97709, 1.73296
513.94133, 1.73296
514.90558, 1.74148
515.86983, 1.75284
516.83408, 1.76136
517.79833, 1.76989
518.76258, 1.76989
519.72683, 1.75852
520.69107, 1.74432
521.65532, 1.73296
522.61957, 1.73011
523.58382, 1.73580
524.54807, 1.74432
525.51232, 1.74716
526.47657, 1.74148
527.44081, 1.72443
528.40506, 1.70739
529.36931, 1.69886
530.33356, 1.69318
531.29781, 1.68750
532.26206, 1.68466
533.22631, 1.68182
534.19055, 1.67614
535.15480, 1.66477
536.11905, 1.64489
537.08330, 1.62784
538.04755, 1.61648
539.01180, 1.61364
539.97605, 1.61080
540.94029, 1.61364
541.90454, 1.61648
542.86879, 1.60796
543.83304, 1.58523
544.79729, 1.56534
545.76154, 1.55114
546.72579, 1.55114
547.69003, 1.55682
548.65428, 1.56534
549.61853, 1.57671
550.58278, 1.58239
551.54703, 1.57671
552.51128, 1.55966
553.47553, 1.55398
554.43977, 1.55966
555.40402, 1.57671
556.36827, 1.59659
557.33252, 1.60511
558.29677, 1.60227
559.26102, 1.59091
560.22527, 1.57671
561.18952, 1.57386
562.15376, 1.58239
563.11801, 1.59659
564.08226, 1.61364
565.04651, 1.62784
566.01076, 1.63352
566.97501, 1.62500
567.93926, 1.60796
568.90350, 1.59659
569.86775, 1.59659
570.83200, 1.60796
571.79625, 1.62784
572.76050, 1.64204
573.72475, 1.64489
574.68900, 1.64204
575.65324, 1.63352
576.61749, 1.62500
577.58174, 1.62216
578.54599, 1.62784
579.51024, 1.64489
580.47449, 1.66193
581.43874, 1.67046
582.40298, 1.66193
583.36723, 1.64773
584.33148, 1.63636
585.29573, 1.63068
586.25998, 1.63636
587.22423, 1.64489
588.18848, 1.65909
589.15272, 1.66761
590.11697, 1.66477
591.08122, 1.65341
592.04547, 1.63921
593.00972, 1.62500
593.97397, 1.62216
594.93822, 1.62784
595.90246, 1.63921
596.86671, 1.64489
597.83096, 1.63921
598.79521, 1.62500
599.75946, 1.60796
600.72371, 1.59091
601.68796, 1.58239
602.65220, 1.58523
603.61645, 1.59375
604.58070, 1.60227
605.54495, 1.59943
606.50920, 1.58807
607.47345, 1.57102
608.43770, 1.55682
609.40194, 1.54830
610.36619, 1.55114
611.33044, 1.55682
612.29469, 1.56534
613.25894, 1.56250
614.22319, 1.55682
615.18744, 1.54830
616.15168, 1.53977
617.11593, 1.53693
618.08018, 1.53693
619.04443, 1.54545
620.00868, 1.55114
620.97293, 1.55682
621.93718, 1.55966
622.90143, 1.55966
623.86567, 1.55682
624.82992, 1.55966
625.79417, 1.56250
626.75842, 1.57386
627.72267, 1.58239
628.68692, 1.58523
629.65117, 1.58807
630.61541, 1.59091
631.57966, 1.59375
632.54391, 1.59375
633.50816, 1.59943
634.47241, 1.60511
635.43666, 1.61364
636.40091, 1.62216
637.36515, 1.62784
638.32940, 1.63352
639.29365, 1.63352
640.25790, 1.63352
641.22215, 1.63352
642.18640, 1.63921
643.15065, 1.64773
644.11489, 1.65341
645.07914, 1.65625
646.04339, 1.65625
647.00764, 1.65625
647.97189, 1.65625
648.93614, 1.65909
649.90039, 1.65909
650.86463, 1.66193
651.82888, 1.66193
652.79313, 1.65909
653.75738, 1.65909
654.72163, 1.65909
655.68588, 1.65909
656.65013, 1.65909
657.61437, 1.65909
658.57862, 1.65341
659.54287, 1.64489
660.50712, 1.63352
661.47137, 1.62500
662.43562, 1.62216
663.39987, 1.62216
664.36411, 1.62500
665.32836, 1.62500
666.29261, 1.63352
667.25686, 1.65057
668.22111, 1.67046
669.18536, 1.67046
670.14961, 1.65909
671.11385, 1.64773
672.07810, 1.64489
673.04235, 1.64773
674.00660, 1.65057
674.97085, 1.65057
675.93510, 1.64773
676.89935, 1.64489
677.86359, 1.64773
678.82784, 1.65341
679.79209, 1.66193
680.75634, 1.66761
681.72059, 1.66761
682.68484, 1.65909
683.64909, 1.64489
684.61334, 1.63636
685.57758, 1.63068
686.54183, 1.63352
687.50608, 1.63636
688.47033, 1.63921
689.43458, 1.63921
690.39883, 1.63352
691.36308, 1.62500
692.32732, 1.61932
693.29157, 1.61648
694.25582, 1.61648
695.22007, 1.61932
696.18432, 1.62500
697.14857, 1.62784
698.11282, 1.62784
699.07706, 1.62216
700.04131, 1.61648
701.00556, 1.61364
701.96981, 1.61080
702.93406, 1.61648
703.89831, 1.62216
704.86256, 1.63068
705.82680, 1.63352
706.79105, 1.63068
707.75530, 1.62784
708.71955, 1.62500
709.68380, 1.62216
710.64805, 1.62500
711.61230, 1.63068
712.57654, 1.63921
713.54079, 1.64489
714.50504, 1.64489
715.46929, 1.64489
716.43354, 1.63921
717.39779, 1.63636
718.36204, 1.64204
719.32628, 1.65341
720.29053, 1.66477
721.25478, 1.67046
722.21903, 1.67046
723.18328, 1.66477
724.14753, 1.65909
725.11178, 1.65341
726.07602, 1.65625
727.04027, 1.66761
728.00452, 1.68466
728.96877, 1.69886
729.93302, 1.70455
730.89727, 1.70171
731.86152, 1.69602
732.82576, 1.69602
733.79001, 1.70171
734.75426, 1.71307
735.71851, 1.72727
736.68276, 1.74148
737.64701, 1.74716
738.61126, 1.74716
739.57550, 1.74432
740.53975, 1.74432
741.50400, 1.74716
742.46825, 1.75568
743.43250, 1.76989
744.39675, 1.78125
745.36100, 1.78693
746.32525, 1.78693
747.28949, 1.78693
748.25374, 1.78693
749.21799, 1.78977
750.18224, 1.80114
751.14649, 1.81534
752.11074, 1.82387
753.07499, 1.83239
754.03923, 1.83523
755.00348, 1.83523
755.96773, 1.83807
756.93198, 1.84091
757.89623, 1.84943
758.86048, 1.85795
759.82473, 1.86364
760.78897, 1.86932
761.75322, 1.87216
762.71747, 1.87500
763.68172, 1.87784
764.64597, 1.88068
765.61022, 1.88636
766.57447, 1.89489
767.53871, 1.89773
768.50296, 1.90341
769.46721, 1.90341
770.43146, 1.90625
771.39571, 1.91193
772.35996, 1.91477
773.32421, 1.92045
774.28845, 1.92614
775.25270, 1.92898
776.21695, 1.93182
777.18120, 1.93466
778.14545, 1.93750
779.10970, 1.94318
780.07395, 1.94602
781.03819, 1.95171
782.00244, 1.95455
782.96669, 1.95739
783.93094, 1.96023
784.89519, 1.96023
785.85944, 1.96307
786.82369, 1.96591
787.78793, 1.96875
788.75218, 1.97443
789.71643, 1.97727
790.68068, 1.97727
791.64493, 1.97443
792.60918, 1.97159
793.57343, 1.96875
794.53767, 1.96875
795.50192, 1.97159
796.46617, 1.97443
797.43042, 1.98011
798.39467, 1.98296
799.35892, 1.98296
800.32317, 1.98011
801.28741, 1.97443
802.25166, 1.97159
803.21591, 1.97159
804.18016, 1.97443
805.14441, 1.98011
806.10866, 1.98580
807.07291, 1.98864
808.03716, 1.98580
809.00140, 1.98296
809.96565, 1.97443
810.92990, 1.97159
811.89415, 1.97443
812.85840, 1.98296
813.82265, 1.99148
814.78690, 1.99432
815.75114, 1.99148
816.71539, 1.98580
817.67964, 1.97727
818.64389, 1.97159
819.60814, 1.97443
820.57239, 1.98296
821.53664, 1.99432
822.50088, 2.00000
823.46513, 1.99432
824.42938, 1.98580
825.39363, 1.97443
826.35788, 1.96875
827.32213, 1.96591
828.28638, 1.97159
829.25062, 1.97727
830.21487, 1.98011
831.17912, 1.97443
832.14337, 1.96307
833.10762, 1.95171
834.07187, 1.94034
835.03612, 1.93750
836.00036, 1.94034
836.96461, 1.94886
837.92886, 1.95455
838.89311, 1.95455
839.85736, 1.94886
840.82161, 1.94034
841.78586, 1.93182
842.75010, 1.92898
843.71435, 1.93182
844.67860, 1.93750
845.64285, 1.94034
846.60710, 1.94034
847.57135, 1.93182
848.53560, 1.92045
849.49984, 1.91193
850.46409, 1.90341
851.42834, 1.90341
852.39259, 1.90625
853.35684, 1.90909
854.32109, 1.90909
855.28534, 1.90341
856.24958, 1.89489
857.21383, 1.88352
858.17808, 1.87500
859.14233, 1.87216
860.10658, 1.87216
861.07083, 1.87216
862.03508, 1.86932
862.99932, 1.86364
863.96357, 1.85511
864.92782, 1.84943
865.89207, 1.84091
866.85632, 1.83807
867.82057, 1.83807
868.78482, 1.83807
869.74907, 1.83239
870.71331, 1.82670
871.67756, 1.81818
872.64181, 1.80966
873.60606, 1.80114
874.57031, 1.79830
875.53456, 1.79545
876.49881, 1.79261
877.46305, 1.78977
878.42730, 1.78125
879.39155, 1.77557
880.35580, 1.76705
881.32005, 1.76420
882.28430, 1.76136
883.24855, 1.76136
884.21279, 1.76136
885.17704, 1.75568
886.14129, 1.74716
887.10554, 1.73864
888.06979, 1.73011
889.03404, 1.72159
889.99829, 1.71875
890.96253, 1.71875
891.92678, 1.71591
892.89103, 1.71023
893.85528, 1.69886
894.81953, 1.68750
895.78378, 1.67898
896.74803, 1.67330
897.71227, 1.67330
898.67652, 1.67614
899.64077, 1.67330
900.60502, 1.66477
901.56927, 1.65341
902.53352, 1.63921
903.49777, 1.63068
904.46201, 1.62784
905.42626, 1.63068
906.39051, 1.63352
907.35476, 1.63068
908.31901, 1.62784
909.28326, 1.61932
910.24751, 1.60796
911.21175, 1.59659
912.17600, 1.59091
913.14025, 1.58523
914.10450, 1.58523
915.06875, 1.58239
916.03300, 1.57671
916.99725, 1.57102
917.96149, 1.55682
918.92574, 1.54545
919.88999, 1.53409
920.85424, 1.52841
921.81849, 1.52557
922.78274, 1.52557
923.74699, 1.52557
924.71123, 1.51705
925.67548, 1.50852
926.63973, 1.49716
927.60398, 1.48864
928.56823, 1.48580
929.53248, 1.48580
930.49673, 1.49148
931.46098, 1.49432
932.42522, 1.49432
933.38947, 1.48864
934.35372, 1.48011
935.31797, 1.47159
936.28222, 1.46875
937.24647, 1.46875
938.21072, 1.47443
939.17496, 1.48011
940.13921, 1.48011
941.10346, 1.47727
942.06771, 1.46591
943.03196, 1.45455
943.99621, 1.44602
944.96046, 1.44318
945.92470, 1.44602
946.88895, 1.45170
947.85320, 1.45739
948.81745, 1.45455
949.78170, 1.44602
950.74595, 1.43466
951.71020, 1.42614
952.67444, 1.42045
953.63869, 1.42045
954.60294, 1.42614
955.56719, 1.42614
956.53144, 1.42045
957.49569, 1.40909
958.45994, 1.39205
959.42418, 1.38068
960.38843, 1.37216
961.35268, 1.37216
962.31693, 1.37784
963.28118, 1.37784
964.24543, 1.37500
965.20968, 1.36364
966.17392, 1.34943
967.13817, 1.33239
968.10242, 1.32102
969.06667, 1.31250
970.03092, 1.31250
970.99517, 1.31534
971.95942, 1.31250
972.92366, 1.30682
973.88791, 1.29261
974.85216, 1.27841
975.81641, 1.26705
976.78066, 1.26421
977.74491, 1.26705
978.70916, 1.26989
979.67340, 1.27273
980.63765, 1.26705
981.60190, 1.25568
982.56615, 1.24148
983.53040, 1.22727
984.49465, 1.21875
985.45890, 1.21591
986.42314, 1.21875
987.38739, 1.21875
988.35164, 1.21591
989.31589, 1.20455
990.28014, 1.18750
991.24439, 1.17046
992.20864, 1.15625
993.17289, 1.15057
994.13713, 1.15057
995.10138, 1.15341
996.06563, 1.15057
997.02988, 1.14205
997.99413, 1.12784
998.95838, 1.11080
999.92263, 1.09659
1000.88687, 1.08807
1001.85112, 1.08239
1002.81537, 1.07670
1003.77962, 1.07386
1004.74387, 1.07102
1005.70812, 1.06534
1006.67237, 1.05966
1007.63661, 1.05398
1008.60086, 1.05114
1009.56511, 1.05398
1010.52936, 1.05966
1011.49361, 1.06250
1012.45786, 1.05966
1013.42211, 1.05114
1014.38635, 1.04262
1015.35060, 1.03409
1016.31485, 1.03125
1017.27910, 1.03409
1018.24335, 1.03977
1019.20760, 1.04262
1020.17185, 1.04545
1021.13609, 1.04830
1022.10034, 1.04545
1023.06459, 1.04262
1024.02884, 1.04545
1024.99309, 1.05114
1025.95734, 1.05966
1026.92159, 1.06818
1027.88583, 1.07386
1028.85008, 1.07670
1029.81433, 1.07670
1030.77858, 1.07386
1031.74283, 1.07102
1032.70708, 1.07670
1033.67133, 1.08239
1034.63557, 1.09375
1035.59982, 1.10227
1036.56407, 1.11080
1037.52832, 1.11080
1038.49257, 1.11080
1039.45682, 1.11080
1040.42107, 1.11648
1041.38531, 1.12784
1042.34956, 1.13920
1043.31381, 1.14773
1044.27806, 1.15341
1045.24231, 1.15625
1046.20656, 1.15341
1047.17081, 1.15341
1048.13505, 1.15625
1049.09930, 1.16477
1050.06355, 1.17330
1051.02780, 1.18466
1051.99205, 1.19034
1052.95630, 1.19034
1053.92055, 1.19034
1054.88480, 1.18750
1055.84904, 1.19034
1056.81329, 1.19602
1057.77754, 1.20455
1058.74179, 1.21023
1059.70604, 1.21591
1060.67029, 1.21875
1061.63454, 1.21591
1062.59878, 1.21307
1063.56303, 1.21307
1064.52728, 1.21591
1065.49153, 1.22159
1066.45578, 1.23011
1067.42003, 1.23580
1068.38428, 1.23864
1069.34852, 1.23864
1070.31277, 1.23864
1071.27702, 1.24148
1072.24127, 1.24432
1073.20552, 1.25000
1074.16977, 1.25852
1075.13402, 1.26705
1076.09826, 1.26989
1077.06251, 1.27273
1078.02676, 1.27841
1078.99101, 1.28409
1079.95526, 1.29261
1080.91951, 1.30114
1081.88376, 1.31250
1082.84800, 1.31818
1083.81225, 1.32102
1084.77650, 1.32102
1085.74075, 1.32386
1086.70500, 1.32671
1087.66925, 1.33239
1088.63350, 1.33807
1089.59774, 1.34659
1090.56199, 1.35511
1091.52624, 1.35795
1092.49049, 1.36080
1093.45474, 1.35795
1094.41899, 1.35795
1095.38324, 1.36080
1096.34748, 1.36364
1097.31173, 1.36932
1098.27598, 1.37500
1099.24023, 1.37784
1100.20448, 1.37784
1101.16873, 1.37500
1102.13298, 1.37500
1103.09722, 1.37500
1104.06147, 1.37500
1105.02572, 1.37784
1105.98997, 1.38352
1106.95422, 1.38352
1107.91847, 1.38352
1108.88272, 1.37784
1109.84696, 1.37500
1110.81121, 1.37216
1111.77546, 1.36932
1112.73971, 1.37216
1113.70396, 1.37784
1114.66821, 1.38068
1115.63246, 1.38068
1116.59671, 1.37784
1117.56095, 1.37216
1118.52520, 1.36932
1119.48945, 1.36648
1120.45370, 1.36648
1121.41795, 1.37216
1122.38220, 1.37216
1123.34645, 1.37216
1124.31069, 1.36648
1125.27494, 1.36080
1126.23919, 1.35511
1127.20344, 1.34659
1128.16769, 1.34091
1129.13194, 1.34659
1130.09619, 1.35795
1131.06043, 1.37500
1132.02468, 1.38920
1132.98893, 1.40057
1133.95318, 1.40625
1134.91743, 1.41477
1135.88168, 1.42898
1136.84593, 1.44318
1137.81017, 1.45739
1138.77442, 1.46591
1139.73867, 1.46875
1140.70292, 1.46875
1141.66717, 1.46591
1142.63142, 1.46875
1143.59567, 1.47727
1144.55991, 1.48864
1145.52416, 1.49716
1146.48841, 1.50284
1147.45266, 1.50568
1148.41691, 1.50568
1149.38116, 1.50568
1150.34541, 1.50568
1151.30965, 1.50852
1152.27390, 1.51420
1153.23815, 1.51989
1154.20240, 1.52557
1155.16665, 1.52841
1156.13090, 1.53125
1157.09515, 1.52841
1158.05939, 1.52841
1159.02364, 1.53125
1159.98789, 1.53409
1160.95214, 1.54261
1161.91639, 1.54830
1162.88064, 1.55114
1163.84489, 1.55682
1164.80913, 1.55682
1165.77338, 1.55966
1166.73763, 1.56534
1167.70188, 1.57102
1168.66613, 1.57955
1169.63038, 1.58807
1170.59463, 1.59659
1171.55887, 1.60227
1172.52312, 1.60796
1173.48737, 1.61080
1174.45162, 1.61648
1175.41587, 1.61932
1176.38012, 1.62500
1177.34437, 1.63068
1178.30862, 1.63636
1179.27286, 1.64204
1180.23711, 1.64489
1181.20136, 1.64773
1182.16561, 1.65341
1183.12986, 1.65909
1184.09411, 1.66477
1185.05836, 1.67330
1186.02260, 1.68182
1186.98685, 1.69034
1187.95110, 1.69318
1188.91535, 1.69602
1189.87960, 1.69602
1190.84385, 1.69886
1191.80810, 1.70171
1192.77234, 1.70455
1193.73659, 1.71023
1194.70084, 1.71307
1195.66509, 1.71591
1196.62934, 1.71591
1197.59359, 1.71591
1198.55784, 1.71307
1199.52208, 1.71591
1200.48633, 1.71591
1201.45058, 1.71875
1202.41483, 1.71875
1203.37908, 1.71591
1204.34333, 1.71307
1205.30758, 1.71307
1206.27182, 1.71307
1207.23607, 1.71875
1208.20032, 1.72443
1209.16457, 1.72727
1210.12882, 1.73011
1211.09307, 1.73011
1212.05732, 1.73011
1213.02156, 1.73011
1213.98581, 1.73296
1214.95006, 1.73580
1215.91431, 1.73864
1216.87856, 1.74148
1217.84281, 1.74148
1218.80706, 1.74148
1219.77130, 1.74148
1220.73555, 1.74432
1221.69980, 1.74716
1222.66405, 1.74716
1223.62830, 1.75000
1224.59255, 1.75000
1225.55680, 1.74716
1226.52104, 1.74716
1227.48529, 1.74716
1228.44954, 1.74716
1229.41379, 1.74716
1230.37804, 1.75000
1231.34229, 1.75000
1232.30654, 1.74716
1233.27078, 1.74716
1234.23503, 1.74432
1235.19928, 1.74432
1236.16353, 1.74716
1237.12778, 1.75000
1238.09203, 1.75000
1239.05628, 1.75000
1240.02053, 1.75000
1240.98477, 1.75000
1241.94902, 1.75000
1242.91327, 1.75000
1243.87752, 1.75284
1244.84177, 1.75568
1245.80602, 1.75568
1246.77027, 1.75284
1247.73451, 1.75284
1248.69876, 1.75284
1249.66301, 1.75284
1250.62726, 1.75284
1251.59151, 1.75284
1252.55576, 1.75568
1253.52001, 1.75568
1254.48425, 1.75568
1255.44850, 1.75568
1256.41275, 1.75284
1257.37700, 1.75284
1258.34125, 1.75568
1259.30550, 1.75568
1260.26975, 1.75852
1261.23399, 1.76136
1262.19824, 1.76136
1263.16249, 1.75852
1264.12674, 1.75568
1265.09099, 1.75568
1266.05524, 1.75568
1267.01949, 1.75852
1267.98373, 1.76420
1268.94798, 1.76420
1269.91223, 1.76705
1270.87648, 1.76705
1271.84073, 1.76989
1272.80498, 1.76989
1273.76923, 1.77273
1274.73347, 1.77557
1275.69772, 1.78125
1276.66197, 1.78693
1277.62622, 1.78977
1278.59047, 1.78977
1279.55472, 1.79261
1280.51897, 1.79261
1281.48321, 1.79545
1282.44746, 1.80114
1283.41171, 1.80398
1284.37596, 1.80966
1285.34021, 1.81250
1286.30446, 1.81534
1287.26871, 1.81534
1288.23295, 1.81818
1289.19720, 1.81818
1290.16145, 1.81534
1291.12570, 1.81534
1292.08995, 1.81534
1293.05420, 1.81534
1294.01845, 1.81818
1294.98269, 1.82102
1295.94694, 1.82387
1296.91119, 1.82387
1297.87544, 1.82670
1298.83969, 1.82955
1299.80394, 1.82955
1300.76819, 1.83239
1301.73244, 1.82955
1302.69668, 1.82955
1303.66093, 1.82670
1304.62518, 1.82387
1305.58943, 1.82387
1306.55368, 1.82387
1307.51793, 1.82387
1308.48218, 1.82387
1309.44642, 1.82102
1310.41067, 1.81818
1311.37492, 1.81818
1312.33917, 1.81818
1313.30342, 1.81818
1314.26767, 1.81818
1315.23192, 1.81818
1316.19616, 1.81818
1317.16041, 1.81818
1318.12466, 1.81534
1319.08891, 1.81534
1320.05316, 1.81250
1321.01741, 1.80966
1321.98166, 1.80966
1322.94590, 1.80966
1323.91015, 1.80682
1324.87440, 1.80682
1325.83865, 1.80682
1326.80290, 1.80682
1327.76715, 1.80682
1328.73140, 1.80398
1329.69564, 1.80114
1330.65989, 1.79830
1331.62414, 1.79545
1332.58839, 1.78977
1333.55264, 1.78409
1334.51689, 1.77841
1335.48114, 1.77273
1336.44538, 1.76705
1337.40963, 1.76420
1338.37388, 1.76989
1339.33813, 1.77841
1340.30238, 1.78409
1341.26663, 1.78693
1342.23088, 1.78977
1343.19512, 1.78977
1344.15937, 1.79261
1345.12362, 1.79545
1346.08787, 1.79545
1347.05212, 1.79830
1348.01637, 1.79830
1348.98062, 1.79830
1349.94486, 1.79830
1350.90911, 1.79830
1351.87336, 1.79545
1352.83761, 1.79545
1353.80186, 1.79830
1354.76611, 1.79830
1355.73036, 1.79830
1356.69460, 1.79830
1357.65885, 1.79830
1358.62310, 1.79830
1359.58735, 1.79830
1360.55160, 1.80114
1361.51585, 1.80682
1362.48010, 1.80682
1363.44435, 1.80114
1364.40859, 1.78977
1365.37284, 1.78125
1366.33709, 1.77557
1367.30134, 1.77273
1368.26559, 1.76989
1369.22984, 1.76420
1370.19409, 1.75852
1371.15833, 1.75284
1372.12258, 1.75000
1373.08683, 1.74432
1374.05108, 1.73580
1375.01533, 1.73580
1375.97958, 1.73296
1376.94383, 1.73011
1377.90807, 1.73296
1378.87232, 1.72727
1379.83657, 1.72727
1380.80082, 1.73011
1381.76507, 1.72727
1382.72932, 1.72443
1383.69357, 1.72443
1384.65781, 1.72727
1385.62206, 1.72443
1386.58631, 1.72443
1387.55056, 1.72443
1388.51481, 1.72727
1389.47906, 1.72727
1390.44331, 1.72443
1391.40755, 1.72727
1392.37180, 1.72727
1393.33605, 1.74148
1394.30030, 1.75852
1395.26455, 1.77273
1396.22880, 1.77557
1397.19305, 1.77841
1398.15729, 1.77557
1399.12154, 1.76989
1400.08579, 1.75852
1401.05004, 1.75000
1402.01429, 1.75284
1402.97854, 1.76136
1403.94279, 1.76989
1404.90703, 1.77557
1405.87128, 1.77557
1406.83553, 1.76705
1407.79978, 1.76136
1408.76403, 1.75852
1409.72828, 1.76136
1410.69253, 1.76705
1411.65677, 1.77273
1412.62102, 1.77557
1413.58527, 1.77557
1414.54952, 1.77557
1415.51377, 1.77557
1416.47802, 1.77841
1417.44227, 1.78693
1418.40651, 1.79830
1419.37076, 1.79830
1420.33501, 1.78977
1421.29926, 1.78693
1422.26351, 1.78409
1423.22776, 1.78125
1424.19201, 1.77273
1425.15626, 1.76705
1426.12050, 1.76420
1427.08475, 1.76989
1428.04900, 1.77841
1429.01325, 1.78693
1429.97750, 1.78693
1430.94175, 1.77841
1431.90600, 1.77273
1432.87024, 1.76989
1433.83449, 1.77273
1434.79874, 1.78409
1435.76299, 1.79830
1436.72724, 1.80398
1437.69149, 1.79830
1438.65574, 1.78693
1439.61998, 1.77557
1440.58423, 1.76705
1441.54848, 1.76420
1442.51273, 1.76705
1443.47698, 1.77273
1444.44123, 1.77841
1445.40548, 1.78409
1446.36972, 1.78977
1447.33397, 1.78693
1448.29822, 1.77841
1449.26247, 1.76989
1450.22672, 1.76705
1451.19097, 1.77273
1452.15522, 1.77841
1453.11946, 1.78693
1454.08371, 1.79830
1455.04796, 1.80966
1456.01221, 1.82387
1456.97646, 1.83239
1457.94071, 1.82102
1458.90496, 1.80682
1459.86920, 1.79545
1460.83345, 1.78693
1461.79770, 1.78693
1462.76195, 1.78977
1463.72620, 1.79261
1464.69045, 1.79261
1465.65470, 1.78409
1466.61894, 1.78125
1467.58319, 1.78693
1468.54744, 1.79545
1469.51169, 1.80966
1470.47594, 1.82955
1471.44019, 1.85227
1472.40444, 1.86648
1473.36868, 1.86932
1474.33293, 1.86648
1475.29718, 1.86648
1476.26143, 1.86648
1477.22568, 1.86648
1478.18993, 1.86364
1479.15418, 1.86364
1480.11842, 1.86364
1481.08267, 1.86648
1482.04692, 1.86648
1483.01117, 1.86648
1483.97542, 1.87216
1484.93967, 1.88068
1485.90392, 1.88920
1486.86817, 1.89773
1487.83241, 1.90909
1488.79666, 1.91477
1489.76091, 1.91193
1490.72516, 1.90057
1491.68941, 1.88352
1492.65366, 1.87500
1493.61791, 1.87216
1494.58215, 1.87784
1495.54640, 1.88352
1496.51065, 1.88352
1497.47490, 1.88068
1498.43915, 1.87216
1499.40340, 1.86364
1500.36765, 1.85511
1501.33189, 1.84943
1502.29614, 1.84659
1503.26039, 1.85227
1504.22464, 1.86364
1505.18889, 1.88352
1506.15314, 1.91761
1507.11739, 1.92614
1508.08163, 1.90341
1509.04588, 1.87784
1510.01013, 1.86080
1510.97438, 1.84943
1511.93863, 1.84091
1512.90288, 1.83807
1513.86713, 1.84091
1514.83137, 1.85227
1515.79562, 1.86364
1516.75987, 1.87216
1517.72412, 1.86932
1518.68837, 1.86932
1519.65262, 1.87500
1520.61687, 1.88920
1521.58111, 1.89489
1522.54536, 1.88636
1523.50961, 1.87500
1524.47386, 1.86932
1525.43811, 1.86648
1526.40236, 1.86080
1527.36661, 1.85227
1528.33085, 1.84659
1529.29510, 1.84091
1530.25935, 1.84375
1531.22360, 1.84943
1532.18785, 1.86080
1533.15210, 1.86648
1534.11635, 1.85795
1535.08059, 1.84375
1536.04484, 1.84375
1537.00909, 1.85227
1537.97334, 1.86932
1538.93759, 1.89773
1539.90184, 1.91761
1540.86609, 1.91193
1541.83033, 1.89205
1542.79458, 1.87784
1543.75883, 1.86648
1544.72308, 1.85511
1545.68733, 1.84091
1546.65158, 1.83239
1547.61583, 1.82955
1548.58008, 1.83239
1549.54432, 1.83523
1550.50857, 1.83523
1551.47282, 1.83239
1552.43707, 1.83523
1553.40132, 1.84091
1554.36557, 1.85227
1555.32982, 1.86080
1556.29406, 1.87216
1557.25831, 1.89205
1558.22256, 1.91761
1559.18681, 1.91193
1560.15106, 1.86932
1561.11531, 1.84375
1562.07956, 1.83239
1563.04380, 1.83239
1564.00805, 1.83239
1564.97230, 1.82955
1565.93655, 1.82670
1566.90080, 1.82670
1567.86505, 1.83239
1568.82930, 1.84091
1569.79354, 1.83807
1570.75779, 1.82670
1571.72204, 1.81818
1572.68629, 1.81534
1573.65054, 1.81818
1574.61479, 1.82670
1575.57904, 1.82955
1576.54328, 1.82387
1577.50753, 1.80682
1578.47178, 1.79545
1579.43603, 1.78693
1580.40028, 1.78125
1581.36453, 1.77557
1582.32878, 1.76705
1583.29302, 1.76420
1584.25727, 1.75852
1585.22152, 1.75284
1586.18577, 1.74716
1587.15002, 1.74432
1588.11427, 1.74148
1589.07852, 1.73580
1590.04276, 1.73011
1591.00701, 1.72443
1591.97126, 1.71875
1592.93551, 1.71591
1593.89976, 1.71307
1594.86401, 1.71023
1595.82826, 1.70739
1596.79250, 1.69886
1597.75675, 1.69318
1598.72100, 1.68750
1599.68525, 1.68466
1600.64950, 1.67898
1601.61375, 1.67330
1602.57800, 1.66761
1603.54224, 1.65909
1604.50649, 1.65057
1605.47074, 1.64489
1606.43499, 1.64204
1607.39924, 1.63921
1608.36349, 1.63068
1609.32774, 1.61932
1610.29198, 1.60796
1611.25623, 1.59659
1612.22048, 1.58523
1613.18473, 1.57955
1614.14898, 1.57955
1615.11323, 1.58239
1616.07748, 1.57671
1617.04173, 1.55966
1618.00597, 1.53693
1618.97022, 1.51989
1619.93447, 1.51136
1620.89872, 1.50852
1621.86297, 1.51136
1622.82722, 1.50852
1623.79147, 1.49432
1624.75571, 1.47727
1625.71996, 1.46591
1626.68421, 1.45739
1627.64846, 1.44318
1628.61271, 1.42614
1629.57696, 1.40625
1630.54121, 1.39205
1631.50545, 1.38920
1632.46970, 1.39205
1633.43395, 1.40909
1634.39820, 1.43750
1635.36245, 1.46307
1636.32670, 1.47443
1637.29095, 1.47159
1638.25519, 1.46307
1639.21944, 1.45739
1640.18369, 1.45739
1641.14794, 1.46023
1642.11219, 1.46591
1643.07644, 1.47159
1644.04069, 1.48011
1645.00493, 1.50000
1645.96918, 1.52273
1646.93343, 1.53693
1647.89768, 1.53125
1648.86193, 1.52273
1649.82618, 1.52273
1650.79043, 1.53125
1651.75467, 1.55114
1652.71892, 1.57671
1653.68317, 1.57955
1654.64742, 1.55966
1655.61167, 1.54545
1656.57592, 1.54261
1657.54017, 1.54261
1658.50441, 1.54545
1659.46866, 1.55114
1660.43291, 1.55966
1661.39716, 1.57386
1662.36141, 1.58523
1663.32566, 1.59375
1664.28991, 1.59659
1665.25415, 1.59943
1666.21840, 1.60796
1667.18265, 1.62216
1668.14690, 1.63921
1669.11115, 1.65625
1670.07540, 1.66477
1671.03965, 1.66761
1672.00389, 1.66761
1672.96814, 1.67330
1673.93239, 1.68182
1674.89664, 1.68466
1675.86089, 1.68466
1676.82514, 1.68182
1677.78939, 1.68466
1678.75364, 1.69318
1679.71788, 1.70739
1680.68213, 1.72159
1681.64638, 1.73864
1682.61063, 1.75852
1683.57488, 1.78125
1684.53913, 1.78125
1685.50338, 1.76705
1686.46762, 1.75852
1687.43187, 1.75852
1688.39612, 1.76136
1689.36037, 1.76420
1690.32462, 1.75852
1691.28887, 1.75284
1692.25312, 1.75000
1693.21736, 1.75284
1694.18161, 1.75852
1695.14586, 1.76420
1696.11011, 1.75000
1697.07436, 1.73011
1698.03861, 1.71591
1699.00286, 1.71875
1699.96710, 1.74716
1700.93135, 1.77841
1701.89560, 1.79830
1702.85985, 1.80682
1703.82410, 1.82102
1704.78835, 1.83239
1705.75260, 1.83807
1706.71684, 1.83239
1707.68109, 1.82670
1708.64534, 1.82387
1709.60959, 1.82387
1710.57384, 1.82670
1711.53809, 1.83239
1712.50234, 1.84091
1713.46658, 1.85227
1714.43083, 1.86364
1715.39508, 1.87500
1716.35933, 1.88352
1717.32358, 1.88068
1718.28783, 1.86648
1719.25208, 1.84659
1720.21632, 1.83523
1721.18057, 1.82955
1722.14482, 1.82955
1723.10907, 1.82670
1724.07332, 1.82387
1725.03757, 1.82102
1726.00182, 1.81818
1726.96606, 1.82387
1727.93031, 1.82955
1728.89456, 1.83523
1729.85881, 1.84091
1730.82306, 1.84659
1731.78731, 1.85227
1732.75156, 1.86080
1733.71580, 1.86648
1734.68005, 1.85511
1735.64430, 1.83807
1736.60855, 1.83239
1737.57280, 1.83523
1738.53705, 1.83807
1739.50130, 1.83807
1740.46555, 1.83523
1741.42979, 1.83523
1742.39404, 1.84091
1743.35829, 1.84375
1744.32254, 1.84659
1745.28679, 1.84943
1746.25104, 1.85511
1747.21529, 1.86648
1748.17953, 1.87500
1749.14378, 1.87784
1750.10803, 1.88068
1751.07228, 1.87784
1752.03653, 1.87216
1753.00078, 1.86648
1753.96503, 1.86648
1754.92927, 1.87216
1755.89352, 1.88068
1756.85777, 1.88352
1757.82202, 1.88636
1758.78627, 1.89205
1759.75052, 1.89773
1760.71477, 1.90625
1761.67901, 1.91193
1762.64326, 1.90909
1763.60751, 1.90341
1764.57176, 1.90341
1765.53601, 1.90625
1766.50026, 1.91193
1767.46451, 1.91761
1768.42875, 1.92614
1769.39300, 1.93182
1770.35725, 1.94318
1771.32150, 1.95455
1772.28575, 1.95455
1773.25000, 1.94602
1774.21425, 1.93750
1775.17849, 1.93182
1776.14274, 1.92898
1777.10699, 1.92898
1778.07124, 1.92898
1779.03549, 1.93182
1779.99974, 1.93466
1780.96399, 1.93182
1781.92823, 1.92898
1782.89248, 1.92898
1783.85673, 1.93182
1784.82098, 1.93182
1785.78523, 1.93182
1786.74948, 1.92898
1787.71373, 1.92614
1788.67797, 1.93182
1789.64222, 1.93750
1790.60647, 1.94886
1791.57072, 1.95739
1792.53497, 1.95739
1793.49922, 1.95171
1794.46347, 1.94318
1795.42771, 1.94034
1796.39196, 1.93750
1797.35621, 1.93750
1798.32046, 1.94034
1799.28471, 1.94318
1800.24896, 1.94886
1801.21321, 1.94602
1802.17746, 1.94034
1803.14170, 1.93466
1804.10595, 1.92898
1805.07020, 1.92614
1806.03445, 1.92614
1806.99870, 1.93182
1807.96295, 1.93466
1808.92720, 1.94034
1809.89144, 1.94318
1810.85569, 1.94034
1811.81994, 1.93750
1812.78419, 1.93182
1813.74844, 1.92614
1814.71269, 1.92614
1815.67694, 1.92898
1816.64118, 1.93182
1817.60543, 1.93182
1818.56968, 1.92898
1819.53393, 1.92614
1820.49818, 1.92614
1821.46243, 1.92898
1822.42668, 1.93182
1823.39092, 1.93750
1824.35517, 1.94318
1825.31942, 1.94318
1826.28367, 1.94034
1827.24792, 1.94034
1828.21217, 1.94318
1829.17642, 1.94886
1830.14066, 1.94886
1831.10491, 1.94034
1832.06916, 1.93466
1833.03341, 1.92898
1833.99766, 1.92898
1834.96191, 1.92898
1835.92616, 1.92898
1836.89040, 1.92898
1837.85465, 1.92898
1838.81890, 1.92614
1839.78315, 1.92898
1840.74740, 1.93182
1841.71165, 1.93750
1842.67590, 1.94318
1843.64014, 1.94886
1844.60439, 1.94602
1845.56864, 1.94034
1846.53289, 1.93466
1847.49714, 1.93182
1848.46139, 1.93182
1849.42564, 1.92614
1850.38988, 1.92330
1851.35413, 1.92330
1852.31838, 1.92045
1853.28263, 1.92045
1854.24688, 1.92045
1855.21113, 1.92045
1856.17538, 1.92045
1857.13962, 1.92330
1858.10387, 1.92330
1859.06812, 1.92045
1860.03237, 1.92045
1860.99662, 1.91761
1861.96087, 1.91761
1862.92512, 1.92045
1863.88937, 1.92045
1864.85361, 1.92614
1865.81786, 1.93182
1866.78211, 1.94034
1867.74636, 1.94602
1868.71061, 1.94318
1869.67486, 1.93750
1870.63911, 1.92614
1871.60335, 1.92045
1872.56760, 1.91761
1873.53185, 1.91477
1874.49610, 1.91477
1875.46035, 1.91477
1876.42460, 1.91193
1877.38885, 1.91193
1878.35309, 1.91193
1879.31734, 1.91193
1880.28159, 1.91193
1881.24584, 1.91193
1882.21009, 1.91193
1883.17434, 1.91193
1884.13859, 1.91193
1885.10283, 1.91193
1886.06708, 1.91193
1887.03133, 1.91193
1887.99558, 1.91761
1888.95983, 1.92045
1889.92408, 1.91761
1890.88833, 1.91477
1891.85257, 1.90909
1892.81682, 1.90909
1893.78107, 1.90909
1894.74532, 1.90909
1895.70957, 1.90625
1896.67382, 1.90625
1897.63807, 1.90341
1898.60231, 1.90341
1899.56656, 1.90341
1900.53081, 1.90341
1901.49506, 1.90057
1902.45931, 1.90057
1903.42356, 1.90057
1904.38781, 1.90057
1905.35205, 1.90057
1906.31630, 1.90341
1907.28055, 1.90341
1908.24480, 1.90625
1909.20905, 1.90625
1910.17330, 1.90341
1911.13755, 1.90057
1912.10179, 1.89773
1913.06604, 1.89489
1914.03029, 1.89489
1914.99454, 1.89773
1915.95879, 1.90057
1916.92304, 1.90341
1917.88729, 1.90341
1918.85153, 1.90057
1919.81578, 1.89773
1920.78003, 1.89773
1921.74428, 1.89773
1922.70853, 1.90057
1923.67278, 1.89773
1924.63703, 1.89205
1925.60128, 1.88920
1926.56552, 1.88636
1927.52977, 1.88352
1928.49402, 1.88352
1929.45827, 1.88352
1930.42252, 1.88352
1931.38677, 1.88352
1932.35102, 1.88352
1933.31526, 1.88352
1934.27951, 1.88352
1935.24376, 1.88068
1936.20801, 1.88068
1937.17226, 1.87784
1938.13651, 1.88068
1939.10076, 1.88068
1940.06500, 1.88636
1941.02925, 1.88920
1941.99350, 1.89205
1942.95775, 1.89205
1943.92200, 1.88636
1944.88625, 1.88352
1945.85050, 1.88068
1946.81474, 1.88068
1947.77899, 1.87784
1948.74324, 1.87784
1949.70749, 1.87784
1950.67174, 1.87500
1951.63599, 1.87500
1952.60024, 1.87216
1953.56448, 1.87500
1954.52873, 1.87500
1955.49298, 1.87500
1956.45723, 1.87500
1957.42148, 1.87216
1958.38573, 1.86932
1959.34998, 1.86648
1960.31422, 1.86648
1961.27847, 1.86932
1962.24272, 1.86932
1963.20697, 1.87216
1964.17122, 1.87216
1965.13547, 1.87500
1966.09972, 1.87784
1967.06396, 1.87500
1968.02821, 1.87216
1968.99246, 1.86932
1969.95671, 1.86648
1970.92096, 1.86648
1971.88521, 1.86932
1972.84946, 1.86932
1973.81370, 1.86648
1974.77795, 1.86364
1975.74220, 1.86364
1976.70645, 1.86080
1977.67070, 1.86080
1978.63495, 1.86364
1979.59920, 1.86364
1980.56344, 1.86364
1981.52769, 1.86364
1982.49194, 1.86080
1983.45619, 1.86080
1984.42044, 1.85795
1985.38469, 1.86080
1986.34894, 1.86080
1987.31319, 1.86364
1988.27743, 1.86364
1989.24168, 1.86648
1990.20593, 1.86648
1991.17018, 1.86364
1992.13443, 1.86364
1993.09868, 1.86080
1994.06293, 1.85795
1995.02717, 1.85795
1995.99142, 1.85795
1996.95567, 1.85795
1997.91992, 1.85511
1998.88417, 1.85227
1999.84842, 1.85227
2000.81267, 1.84943
2001.77691, 1.84943
2002.74116, 1.84943
2003.70541, 1.85227
2004.66966, 1.85227
2005.63391, 1.85227
2006.59816, 1.85227
2007.56241, 1.84943
2008.52665, 1.84943
2009.49090, 1.84659
2010.45515, 1.84659
2011.41940, 1.84659
2012.38365, 1.84659
2013.34790, 1.84659
2014.31215, 1.84659
2015.27639, 1.84659
2016.24064, 1.84659
2017.20489, 1.84659
2018.16914, 1.84659
2019.13339, 1.84375
2020.09764, 1.84375
2021.06189, 1.84091
2022.02613, 1.84091
2022.99038, 1.84091
2023.95463, 1.84091
2024.91888, 1.84091
2025.88313, 1.84091
2026.84738, 1.83807
2027.81163, 1.83807
2028.77587, 1.83523
2029.74012, 1.83523
2030.70437, 1.83523
2031.66862, 1.83523
2032.63287, 1.83523
2033.59712, 1.83523
2034.56137, 1.83523
2035.52561, 1.83523
2036.48986, 1.83239
2037.45411, 1.83239
2038.41836, 1.83239
2039.38261, 1.83239
2040.34686, 1.83523
2041.31111, 1.83523
2042.27535, 1.83523
2043.23960, 1.83523
2044.20385, 1.83239
2045.16810, 1.82955
2046.13235, 1.82955
2047.09660, 1.82955
2048.06085, 1.82955
2049.02510, 1.82955
2049.98934, 1.82955
2050.95359, 1.82955
2051.91784, 1.82955
2052.88209, 1.82670
2053.84634, 1.82387
2054.81059, 1.82387
2055.77484, 1.82387
2056.73908, 1.82670
2057.70333, 1.82670
2058.66758, 1.82670
2059.63183, 1.82670
2060.59608, 1.82387
2061.56033, 1.82387
2062.52458, 1.82387
2063.48882, 1.82387
2064.45307, 1.82670
2065.41732, 1.82670
2066.38157, 1.82670
2067.34582, 1.82670
2068.31007, 1.82387
2069.27432, 1.82102
2070.23856, 1.82102
2071.20281, 1.82102
2072.16706, 1.82102
2073.13131, 1.82102
2074.09556, 1.82387
2075.05981, 1.82387
2076.02406, 1.82102
2076.98830, 1.81818
2077.95255, 1.81818
2078.91680, 1.81818
2079.88105, 1.81818
2080.84530, 1.82102
2081.80955, 1.82102
2082.77380, 1.82102
2083.73804, 1.82102
2084.70229, 1.81818
2085.66654, 1.81534
2086.63079, 1.81534
2087.59504, 1.81534
2088.55929, 1.81818
2089.52354, 1.81818
2090.48778, 1.82102
2091.45203, 1.81818
2092.41628, 1.81818
2093.38053, 1.81534
2094.34478, 1.81250
2095.30903, 1.80966
2096.27328, 1.81250
2097.23752, 1.81534
2098.20177, 1.81534
2099.16602, 1.81534
2100.13027, 1.81534
2101.09452, 1.81534
2102.05877, 1.81250
2103.02302, 1.80966
2103.98726, 1.81250
2104.95151, 1.81250
2105.91576, 1.81534
2106.88001, 1.81534
2107.84426, 1.81534
2108.80851, 1.81250
2109.77276, 1.80966
2110.73701, 1.80682
2111.70125, 1.80682
2112.66550, 1.80682
2113.62975, 1.80966
2114.59400, 1.81250
2115.55825, 1.81250
2116.52250, 1.81250
2117.48675, 1.80966
2118.45099, 1.80682
2119.41524, 1.80682
2120.37949, 1.80966
2121.34374, 1.80966
2122.30799, 1.81250
2123.27224, 1.81250
2124.23649, 1.81250
2125.20073, 1.80966
2126.16498, 1.80682
2127.12923, 1.80682
2128.09348, 1.80682
2129.05773, 1.80682
2130.02198, 1.80682
2130.98623, 1.80966
2131.95047, 1.80966
2132.91472, 1.80966
2133.87897, 1.80682
2134.84322, 1.80398
2135.80747, 1.80398
2136.77172, 1.80398
2137.73597, 1.80682
2138.70021, 1.80682
2139.66446, 1.80682
2140.62871, 1.80398
2141.59296, 1.80398
2142.55721, 1.80114
2143.52146, 1.80114
2144.48571, 1.80114
2145.44995, 1.80114
2146.41420, 1.80114
2147.37845, 1.80114
2148.34270, 1.80114
2149.30695, 1.79830
2150.27120, 1.79830
2151.23545, 1.79830
2152.19969, 1.79830
2153.16394, 1.79545
2154.12819, 1.79830
2155.09244, 1.79545
2156.05669, 1.78977
2157.02094, 1.77841
2157.98519, 1.77273
2158.94943, 1.76989
2159.91368, 1.77273
2160.87793, 1.78125
2161.84218, 1.78693
2162.80643, 1.78977
2163.77068, 1.78977
2164.73493, 1.78977
2165.69917, 1.78977
2166.66342, 1.78977
2167.62767, 1.78977
2168.59192, 1.78693
2169.55617, 1.78977
2170.52042, 1.78693
2171.48467, 1.78693
2172.44892, 1.78693
2173.41316, 1.78977
2174.37741, 1.78693
2175.34166, 1.78409
2176.30591, 1.78693
2177.27016, 1.78693
2178.23441, 1.78693
2179.19866, 1.78977
2180.16290, 1.79261
2181.12715, 1.79261
2182.09140, 1.78977
2183.05565, 1.78977
2184.01990, 1.78977
2184.98415, 1.78977
2185.94840, 1.78977
2186.91264, 1.79261
2187.87689, 1.79261
2188.84114, 1.78977
2189.80539, 1.78977
2190.76964, 1.78977
2191.73389, 1.78977
2192.69814, 1.78977
2193.66238, 1.78977
2194.62663, 1.78977
2195.59088, 1.78977
2196.55513, 1.78693
2197.51938, 1.78693
2198.48363, 1.78693
2199.44788, 1.78693
2200.41212, 1.78693
2201.37637, 1.78693
2202.34062, 1.78693
2203.30487, 1.78693
2204.26912, 1.78693
2205.23337, 1.78409
2206.19762, 1.78409
2207.16186, 1.78409
2208.12611, 1.78409
2209.09036, 1.78409
2210.05461, 1.78409
2211.01886, 1.78409
2211.98311, 1.78409
2212.94736, 1.78409
2213.91160, 1.78125
2214.87585, 1.78125
2215.84010, 1.78125
2216.80435, 1.78125
2217.76860, 1.78125
2218.73285, 1.78125
2219.69710, 1.78125
2220.66134, 1.77841
2221.62559, 1.77841
2222.58984, 1.77841
2223.55409, 1.77841
2224.51834, 1.77841
2225.48259, 1.77841
2226.44684, 1.77841
2227.41108, 1.77557
2228.37533, 1.77557
2229.33958, 1.77557
2230.30383, 1.77557
2231.26808, 1.77273
2232.23233, 1.77273
2233.19658, 1.77273
2234.16083, 1.77273
2235.12507, 1.77273
2236.08932, 1.77273
2237.05357, 1.76989
2238.01782, 1.76989
2238.98207, 1.76989
2239.94632, 1.76989
2240.91057, 1.76989
2241.87481, 1.76989
2242.83906, 1.76989
2243.80331, 1.76989
2244.76756, 1.76989
2245.73181, 1.76989
2246.69606, 1.76989
2247.66031, 1.76989
2248.62455, 1.76989
2249.58880, 1.76989
2250.55305, 1.76989
2251.51730, 1.76989
2252.48155, 1.76705
2253.44580, 1.76705
2254.41005, 1.76705
2255.37429, 1.76705
2256.33854, 1.76989
2257.30279, 1.76989
2258.26704, 1.76989
2259.23129, 1.76705
2260.19554, 1.76705
2261.15979, 1.76705
2262.12403, 1.76705
2263.08828, 1.76705
2264.05253, 1.76705
2265.01678, 1.76705
2265.98103, 1.76705
2266.94528, 1.76705
2267.90953, 1.76420
2268.87377, 1.76705
2269.83802, 1.76705
2270.80227, 1.76705
2271.76652, 1.76705
2272.73077, 1.76420
2273.69502, 1.76136
2274.65927, 1.76136
2275.62351, 1.76136
2276.58776, 1.76136
2277.55201, 1.76136
2278.51626, 1.76136
2279.48051, 1.75852
2280.44476, 1.75568
2281.40901, 1.75568
2282.37325, 1.75568
2283.33750, 1.75852
2284.30175, 1.75852
2285.26600, 1.75568
2286.23025, 1.75568
2287.19450, 1.75568
2288.15875, 1.75284
2289.12299, 1.75284
2290.08724, 1.75000
2291.05149, 1.75000
2292.01574, 1.75000
2292.97999, 1.75000
2293.94424, 1.75000
2294.90849, 1.75000
2295.87274, 1.74716
2296.83698, 1.74716
2297.80123, 1.74716
2298.76548, 1.74716
2299.72973, 1.74716
2300.69398, 1.74432
2301.65823, 1.74432
2302.62248, 1.74148
2303.58672, 1.74432
2304.55097, 1.74432
2305.51522, 1.74148
2306.47947, 1.73864
2307.44372, 1.74148
2308.40797, 1.73864
2309.37222, 1.73864
2310.33646, 1.73864
2311.30071, 1.73864
2312.26496, 1.73864
2313.22921, 1.73864
2314.19346, 1.73580
2315.15771, 1.73864
2316.12196, 1.73580
2317.08620, 1.73580
2318.05045, 1.73580
2319.01470, 1.73580
2319.97895, 1.73580
2320.94320, 1.73580
2321.90745, 1.73580
2322.87170, 1.73296
2323.83594, 1.73296
2324.80019, 1.73296
2325.76444, 1.73296
2326.72869, 1.73011
2327.69294, 1.73011
2328.65719, 1.73011
2329.62144, 1.73011
2330.58568, 1.73011
2331.54993, 1.73011
2332.51418, 1.72727
2333.47843, 1.72727
2334.44268, 1.72727
2335.40693, 1.72727
2336.37118, 1.72727
2337.33542, 1.72727
2338.29967, 1.72443
2339.26392, 1.72443
2340.22817, 1.72443
2341.19242, 1.72443
2342.15667, 1.72159
2343.12092, 1.72159
2344.08516, 1.72159
2345.04941, 1.72159
2346.01366, 1.71875
2346.97791, 1.72159
2347.94216, 1.71875
2348.90641, 1.71875
2349.87066, 1.71591
2350.83490, 1.71591
2351.79915, 1.71591
2352.76340, 1.71591
2353.72765, 1.71591
2354.69190, 1.71307
2355.65615, 1.71307
2356.62040, 1.71307
2357.58465, 1.71307
2358.54889, 1.71023
2359.51314, 1.71023
2360.47739, 1.71023
2361.44164, 1.71023
2362.40589, 1.71023
2363.37014, 1.71023
2364.33439, 1.71023
2365.29863, 1.71023
2366.26288, 1.70739
2367.22713, 1.70739
2368.19138, 1.70739
2369.15563, 1.70739
2370.11988, 1.70739
2371.08413, 1.70739
2372.04837, 1.70739
2373.01262, 1.70455
2373.97687, 1.70455
2374.94112, 1.70455
2375.90537, 1.70455
2376.86962, 1.70455
2377.83387, 1.70455
2378.79811, 1.70171
2379.76236, 1.70171
2380.72661, 1.70171
2381.69086, 1.70171
2382.65511, 1.70171
2383.61936, 1.70171
2384.58361, 1.70171
2385.54785, 1.69886
2386.51210, 1.70171
2387.47635, 1.70171
2388.44060, 1.69886
2389.40485, 1.69886
2390.36910, 1.69886
2391.33335, 1.69886
2392.29759, 1.69886
2393.26184, 1.69886
2394.22609, 1.69602
2395.19034, 1.69602
2396.15459, 1.69602
2397.11884, 1.69602
2398.08309, 1.69886
2399.04733, 1.69886
2400.01158, 1.70171
2400.97583, 1.69886
2401.94008, 1.69602
2402.90433, 1.69602
2403.86858, 1.69602
2404.83283, 1.69602
2405.79707, 1.69602
2406.76132, 1.69602
2407.72557, 1.69602
2408.68982, 1.69602
2409.65407, 1.69602
2410.61832, 1.69318
2411.58257, 1.69034
2412.54681, 1.69034
2413.51106, 1.69318
2414.47531, 1.69318
2415.43956, 1.69318
2416.40381, 1.69318
2417.36806, 1.69034
2418.33231, 1.68750
2419.29656, 1.68750
2420.26080, 1.68466
2421.22505, 1.68466
2422.18930, 1.68466
2423.15355, 1.68466
2424.11780, 1.68466
2425.08205, 1.68182
2426.04630, 1.67898
2427.01054, 1.67898
2427.97479, 1.67898
2428.93904, 1.67898
2429.90329, 1.68182
2430.86754, 1.68466
2431.83179, 1.68466
2432.79604, 1.68466
2433.76028, 1.68182
2434.72453, 1.68182
2435.68878, 1.67898
2436.65303, 1.67898
2437.61728, 1.67898
2438.58153, 1.68182
2439.54578, 1.68182
2440.51002, 1.68182
2441.47427, 1.67898
2442.43852, 1.67898
2443.40277, 1.67614
2444.36702, 1.67614
2445.33127, 1.67614
2446.29552, 1.67614
2447.25976, 1.67614
2448.22401, 1.67614
2449.18826, 1.67614
2450.15251, 1.67614
2451.11676, 1.67330
2452.08101, 1.67330
2453.04526, 1.67330
2454.00950, 1.67330
2454.97375, 1.67330
2455.93800, 1.67330
2456.90225, 1.67330
2457.86650, 1.67046
2458.83075, 1.66761
2459.79500, 1.66761
2460.75924, 1.66761
2461.72349, 1.66761
2462.68774, 1.66761
2463.65199, 1.66761
2464.61624, 1.66761
2465.58049, 1.66761
2466.54474, 1.66761
2467.50898, 1.66477
2468.47323, 1.66477
2469.43748, 1.66477
2470.40173, 1.66477
2471.36598, 1.66477
2472.33023, 1.66193
2473.29448, 1.66193
2474.25872, 1.66193
2475.22297, 1.66193
2476.18722, 1.65909
2477.15147, 1.65909
2478.11572, 1.65909
2479.07997, 1.65909
2480.04422, 1.65909
2481.00847, 1.65909
2481.97271, 1.65625
2482.93696, 1.65625
2483.90121, 1.65625
2484.86546, 1.65625
2485.82971, 1.65625
2486.79396, 1.65341
2487.75821, 1.65341
2488.72245, 1.65341
2489.68670, 1.65341
2490.65095, 1.65341
2491.61520, 1.65341
2492.57945, 1.65341
2493.54370, 1.65057
2494.50795, 1.65057
2495.47219, 1.65057
2496.43644, 1.65057
2497.40069, 1.64773
2498.36494, 1.64773
2499.32919, 1.64773
2500.29344, 1.64773
2501.25769, 1.64773
2502.22193, 1.64773
2503.18618, 1.64773
2504.15043, 1.64489
2505.11468, 1.64489
2506.07893, 1.64489
2507.04318, 1.64489
2508.00743, 1.64489
2508.97167, 1.64489
2509.93592, 1.64204
2510.90017, 1.64204
2511.86442, 1.64204
2512.82867, 1.63921
2513.79292, 1.63921
2514.75717, 1.63921
2515.72141, 1.63921
2516.68566, 1.63636
2517.64991, 1.63636
2518.61416, 1.63636
2519.57841, 1.63636
2520.54266, 1.63636
2521.50691, 1.63352
2522.47115, 1.63352
2523.43540, 1.63352
2524.39965, 1.63352
2525.36390, 1.63352
2526.32815, 1.63352
2527.29240, 1.63352
2528.25665, 1.63068
2529.22089, 1.63068
2530.18514, 1.62784
2531.14939, 1.62784
2532.11364, 1.62784
2533.07789, 1.62784
2534.04214, 1.62784
2535.00639, 1.62784
2535.97063, 1.62500
2536.93488, 1.62500
2537.89913, 1.62216
2538.86338, 1.62216
2539.82763, 1.62216
2540.79188, 1.62500
2541.75613, 1.62500
2542.72038, 1.62500
2543.68462, 1.62216
2544.64887, 1.62216
2545.61312, 1.61932
2546.57737, 1.61932
2547.54162, 1.61932
2548.50587, 1.61932
2549.47012, 1.61932
2550.43436, 1.61648
2551.39861, 1.61648
2552.36286, 1.61364
2553.32711, 1.61364
2554.29136, 1.61364
2555.25561, 1.61364
2556.21986, 1.61364
2557.18410, 1.61364
2558.14835, 1.61364
2559.11260, 1.61364
2560.07685, 1.61080
2561.04110, 1.61080
2562.00535, 1.60796
2562.96960, 1.60796
2563.93384, 1.60796
2564.89809, 1.60796
2565.86234, 1.60796
2566.82659, 1.60511
2567.79084, 1.60511
2568.75509, 1.60227
2569.71934, 1.60227
2570.68358, 1.60227
2571.64783, 1.60227
2572.61208, 1.60511
2573.57633, 1.60511
2574.54058, 1.60227
2575.50483, 1.60227
2576.46908, 1.59943
2577.43332, 1.59943
2578.39757, 1.59943
2579.36182, 1.59943
2580.32607, 1.59943
2581.29032, 1.59943
2582.25457, 1.59943
2583.21882, 1.59659
2584.18306, 1.59659
2585.14731, 1.59375
2586.11156, 1.59375
2587.07581, 1.59375
2588.04006, 1.59375
2589.00431, 1.59375
2589.96856, 1.59375
2590.93280, 1.59375
2591.89705, 1.59091
2592.86130, 1.59091
2593.82555, 1.59091
2594.78980, 1.59091
2595.75405, 1.59091
2596.71830, 1.59091
2597.68254, 1.58807
2598.64679, 1.58807
2599.61104, 1.58523
2600.57529, 1.58523
2601.53954, 1.58523
2602.50379, 1.58523
2603.46804, 1.58523
2604.43229, 1.58523
2605.39653, 1.58239
2606.36078, 1.58239
2607.32503, 1.57955
2608.28928, 1.57955
2609.25353, 1.57955
2610.21778, 1.57955
2611.18203, 1.57955
2612.14627, 1.57955
2613.11052, 1.57955
2614.07477, 1.57671
2615.03902, 1.57671
2616.00327, 1.57671
2616.96752, 1.57671
2617.93177, 1.57671
2618.89601, 1.57671
2619.86026, 1.57671
2620.82451, 1.57386
2621.78876, 1.57386
2622.75301, 1.57102
2623.71726, 1.57102
2624.68151, 1.57102
2625.64575, 1.57102
2626.61000, 1.57102
2627.57425, 1.57102
2628.53850, 1.57102
2629.50275, 1.56818
2630.46700, 1.56534
2631.43125, 1.56534
2632.39549, 1.56534
2633.35974, 1.56534
2634.32399, 1.56534
2635.28824, 1.56534
2636.25249, 1.56534
2637.21674, 1.56250
2638.18099, 1.56250
2639.14523, 1.55966
2640.10948, 1.55966
2641.07373, 1.55682
2642.03798, 1.55966
2643.00223, 1.55966
2643.96648, 1.55682
2644.93073, 1.55682
2645.89497, 1.55682
2646.85922, 1.55398
2647.82347, 1.55114
2648.78772, 1.55114
2649.75197, 1.55114
2650.71622, 1.55114
2651.68047, 1.55114
2652.64471, 1.55114
2653.60896, 1.54830
2654.57321, 1.54830
2655.53746, 1.54545
2656.50171, 1.54545
2657.46596, 1.54545
2658.43021, 1.54545
2659.39445, 1.54545
2660.35870, 1.54545
2661.32295, 1.54261
2662.28720, 1.54261
2663.25145, 1.53977
2664.21570, 1.53977
2665.17995, 1.53977
2666.14420, 1.53977
2667.10844, 1.53977
2668.07269, 1.53977
2669.03694, 1.53977
2670.00119, 1.53977
2670.96544, 1.53693
2671.92969, 1.53409
2672.89394, 1.53409
2673.85818, 1.53409
2674.82243, 1.53409
2675.78668, 1.53409
2676.75093, 1.53409
2677.71518, 1.53409
2678.67943, 1.53125
2679.64368, 1.52841
2680.60792, 1.52841
2681.57217, 1.52841
2682.53642, 1.52841
2683.50067, 1.52841
2684.46492, 1.52841
2685.42917, 1.52841
2686.39342, 1.52557
2687.35766, 1.52557
2688.32191, 1.52273
2689.28616, 1.52273
2690.25041, 1.52273
2691.21466, 1.52273
2692.17891, 1.52273
2693.14316, 1.51989
2694.10740, 1.51989
2695.07165, 1.51989
2696.03590, 1.51705
2697.00015, 1.51705
2697.96440, 1.51705
2698.92865, 1.51705
2699.89290, 1.51705
2700.85714, 1.51420
2701.82139, 1.51420
2702.78564, 1.51136
2703.74989, 1.51136
2704.71414, 1.51136
2705.67839, 1.50852
2706.64264, 1.50852
2707.60688, 1.50852
2708.57113, 1.50852
2709.53538, 1.50852
2710.49963, 1.50568
2711.46388, 1.50568
2712.42813, 1.50568
2713.39238, 1.50568
2714.35662, 1.50284
2715.32087, 1.50284
2716.28512, 1.50000
2717.24937, 1.50000
2718.21362, 1.49716
2719.17787, 1.49716
2720.14212, 1.49716
2721.10636, 1.49716
2722.07061, 1.49716
2723.03486, 1.49716
2723.99911, 1.49432
2724.96336, 1.49432
2725.92761, 1.49432
2726.89186, 1.49432
2727.85611, 1.49148
2728.82035, 1.49148
2729.78460, 1.49148
2730.74885, 1.49148
2731.71310, 1.48864
2732.67735, 1.48580
2733.64160, 1.48580
2734.60585, 1.48580
2735.57009, 1.48580
2736.53434, 1.48580
2737.49859, 1.48295
2738.46284, 1.48295
2739.42709, 1.48295
2740.39134, 1.48011
2741.35559, 1.48011
2742.31983, 1.47727
2743.28408, 1.47727
2744.24833, 1.47727
2745.21258, 1.48011
2746.17683, 1.48011
2747.14108, 1.47727
2748.10533, 1.47727
2749.06957, 1.47443
2750.03382, 1.47443
2750.99807, 1.47443
2751.96232, 1.47443
2752.92657, 1.47443
2753.89082, 1.47443
2754.85507, 1.47159
2755.81931, 1.47159
2756.78356, 1.46875
2757.74781, 1.46591
2758.71206, 1.46591
2759.67631, 1.46591
2760.64056, 1.46591
2761.60481, 1.46591
2762.56905, 1.46591
2763.53330, 1.46591
2764.49755, 1.46307
2765.46180, 1.46307
2766.42605, 1.46023
2767.39030, 1.46023
2768.35455, 1.46023
2769.31879, 1.46307
2770.28304, 1.46307
2771.24729, 1.46023
2772.21154, 1.45739
2773.17579, 1.45739
2774.14004, 1.45455
2775.10429, 1.45170
2776.06853, 1.45170
2777.03278, 1.45170
2777.99703, 1.45455
2778.96128, 1.45170
2779.92553, 1.45170
2780.88978, 1.44887
2781.85403, 1.44602
2782.81827, 1.44602
2783.78252, 1.44318
2784.74677, 1.44318
2785.71102, 1.44318
2786.67527, 1.44318
2787.63952, 1.44318
2788.60377, 1.44318
2789.56802, 1.44034
2790.53226, 1.43750
2791.49651, 1.43750
2792.46076, 1.43466
2793.42501, 1.43466
2794.38926, 1.43466
2795.35351, 1.43466
2796.31776, 1.43466
2797.28200, 1.43182
2798.24625, 1.42898
2799.21050, 1.42898
2800.17475, 1.42614
2801.13900, 1.42614
2802.10325, 1.42614
2803.06750, 1.42614
2804.03174, 1.42330
2804.99599, 1.42330
2805.96024, 1.42045
2806.92449, 1.41762
2807.88874, 1.41762
2808.85299, 1.41477
2809.81724, 1.41477
2810.78148, 1.41477
2811.74573, 1.41193
2812.70998, 1.41193
2813.67423, 1.40909
2814.63848, 1.40625
2815.60273, 1.40341
2816.56698, 1.40341
2817.53122, 1.40341
2818.49547, 1.40057
2819.45972, 1.40057
2820.42397, 1.40057
2821.38822, 1.39773
2822.35247, 1.39489
2823.31672, 1.39205
2824.28096, 1.38920
2825.24521, 1.38920
2826.20946, 1.38636
2827.17371, 1.38352
2828.13796, 1.38068
2829.10221, 1.37784
2830.06646, 1.37500
2831.03070, 1.37216
2831.99495, 1.36932
2832.95920, 1.36932
2833.92345, 1.36648
2834.88770, 1.36364
2835.85195, 1.36080
2836.81620, 1.35795
2837.78044, 1.35511
2838.74469, 1.34943
2839.70894, 1.34375
2840.67319, 1.33807
2841.63744, 1.33239
2842.60169, 1.32386
2843.56594, 1.31818
2844.53018, 1.30966
2845.49443, 1.30114
2846.45868, 1.28977
2847.42293, 1.27841
2848.38718, 1.26705
2849.35143, 1.25852
2850.31568, 1.25000
2851.27992, 1.24432
2852.24417, 1.24148
2853.20842, 1.24148
2854.17267, 1.24148
2855.13692, 1.24148
2856.10117, 1.24432
2857.06542, 1.25000
2858.02967, 1.25284
2858.99391, 1.25852
2859.95816, 1.26421
2860.92241, 1.26705
2861.88666, 1.27273
2862.85091, 1.27273
2863.81516, 1.27557
2864.77941, 1.27841
2865.74365, 1.27841
2866.70790, 1.27841
2867.67215, 1.27557
2868.63640, 1.27557
2869.60065, 1.27557
2870.56490, 1.27557
2871.52915, 1.27557
2872.49339, 1.27557
2873.45764, 1.27557
2874.42189, 1.27557
2875.38614, 1.27273
2876.35039, 1.27273
2877.31464, 1.26989
2878.27889, 1.26989
2879.24313, 1.26989
2880.20738, 1.26989
2881.17163, 1.26989
2882.13588, 1.26705
2883.10013, 1.26705
2884.06438, 1.26421
2885.02863, 1.26136
2885.99287, 1.26136
2886.95712, 1.25852
2887.92137, 1.25568
2888.88562, 1.25284
2889.84987, 1.25000
2890.81412, 1.24716
2891.77837, 1.24432
2892.74261, 1.24148
2893.70686, 1.23864
2894.67111, 1.23580
2895.63536, 1.23580
2896.59961, 1.23296
2897.56386, 1.23011
2898.52811, 1.22443
2899.49235, 1.22159
2900.45660, 1.21875
2901.42085, 1.21591
2902.38510, 1.21023
2903.34935, 1.20739
2904.31360, 1.20455
2905.27785, 1.20171
2906.24209, 1.19602
2907.20634, 1.19318
2908.17059, 1.18750
2909.13484, 1.17898
2910.09909, 1.17330
2911.06334, 1.16761
2912.02759, 1.16193
2912.99183, 1.15341
2913.95608, 1.14489
2914.92033, 1.13352
2915.88458, 1.12216
2916.84883, 1.11364
2917.81308, 1.10511
2918.77733, 1.09659
2919.74158, 1.09091
2920.70582, 1.08523
2921.67007, 1.08239
2922.63432, 1.07955
2923.59857, 1.07670
2924.56282, 1.07670
2925.52707, 1.07955
2926.49132, 1.08239
2927.45556, 1.08807
2928.41981, 1.09375
2929.38406, 1.09943
2930.34831, 1.10511
2931.31256, 1.11080
2932.27681, 1.11648
2933.24106, 1.12216
2934.20530, 1.12784
2935.16955, 1.13352
2936.13380, 1.14205
2937.09805, 1.14773
2938.06230, 1.15625
2939.02655, 1.15909
2939.99080, 1.16477
2940.95504, 1.17046
2941.91929, 1.17330
2942.88354, 1.17898
2943.84779, 1.18182
2944.81204, 1.18466
2945.77629, 1.18750
2946.74054, 1.19034
2947.70478, 1.19318
2948.66903, 1.19318
2949.63328, 1.19034
2950.59753, 1.19034
2951.56178, 1.19034
2952.52603, 1.19034
2953.49028, 1.19034
2954.45452, 1.18750
2955.41877, 1.18750
2956.38302, 1.18750
2957.34727, 1.18466
2958.31152, 1.18466
2959.27577, 1.18466
2960.24002, 1.18750
2961.20426, 1.18750
2962.16851, 1.19034
2963.13276, 1.19318
2964.09701, 1.19602
2965.06126, 1.19602
2966.02551, 1.19886
2966.98976, 1.20171
2967.95400, 1.20455
2968.91825, 1.20739
2969.88250, 1.21023
2970.84675, 1.21591
2971.81100, 1.21875
2972.77525, 1.22159
2973.73950, 1.22443
2974.70374, 1.22443
2975.66799, 1.22727
2976.63224, 1.22727
2977.59649, 1.22727
2978.56074, 1.23011
2979.52499, 1.23296
2980.48924, 1.23296
2981.45349, 1.23296
2982.41773, 1.23296
2983.38198, 1.23296
2984.34623, 1.23296
2985.31048, 1.23296
2986.27473, 1.23296
2987.23898, 1.23296
2988.20323, 1.23580
2989.16747, 1.23580
2990.13172, 1.23580
2991.09597, 1.23580
2992.06022, 1.23580
2993.02447, 1.23580
2993.98872, 1.23580
2994.95297, 1.23580
2995.91721, 1.23580
2996.88146, 1.23296
2997.84571, 1.23296
2998.80996, 1.23296
2999.77421, 1.23011
3000.73846, 1.22727
3001.70271, 1.22727
3002.66695, 1.22443
3003.63120, 1.22443
3004.59545, 1.22443
3005.55970, 1.22443
3006.52395, 1.22443
3007.48820, 1.22159
3008.45245, 1.22159
3009.41669, 1.22159
3010.38094, 1.22159
3011.34519, 1.22159
3012.30944, 1.22159
3013.27369, 1.22159
3014.23794, 1.22159
3015.20219, 1.21875
3016.16643, 1.21591
3017.13068, 1.21307
3018.09493, 1.21307
3019.05918, 1.21023
3020.02343, 1.20739
3020.98768, 1.20739
3021.95193, 1.20739
3022.91617, 1.20739
3023.88042, 1.20455
3024.84467, 1.20455
3025.80892, 1.20171
3026.77317, 1.20171
3027.73742, 1.19886
3028.70167, 1.19886
3029.66591, 1.19886
3030.63016, 1.19886
3031.59441, 1.19886
3032.55866, 1.19886
3033.52291, 1.19602
3034.48716, 1.19318
3035.45141, 1.19034
3036.41565, 1.19034
3037.37990, 1.18750
3038.34415, 1.18466
3039.30840, 1.18466
3040.27265, 1.18466
3041.23690, 1.18182
3042.20115, 1.17898
3043.16540, 1.17898
3044.12964, 1.17614
3045.09389, 1.17614
3046.05814, 1.17330
3047.02239, 1.17330
3047.98664, 1.17046
3048.95089, 1.17046
3049.91514, 1.16761
3050.87938, 1.16477
3051.84363, 1.16193
3052.80788, 1.16193
3053.77213, 1.16193
3054.73638, 1.15909
3055.70063, 1.15909
3056.66488, 1.15625
3057.62912, 1.15341
3058.59337, 1.15057
3059.55762, 1.14773
3060.52187, 1.14489
3061.48612, 1.14489
3062.45037, 1.14489
3063.41462, 1.14489
3064.37886, 1.14205
3065.34311, 1.13920
3066.30736, 1.13920
3067.27161, 1.13636
3068.23586, 1.13636
3069.20011, 1.13352
3070.16436, 1.13068
3071.12860, 1.12784
3072.09285, 1.12500
3073.05710, 1.12216
3074.02135, 1.12216
3074.98560, 1.11932
3075.94985, 1.11932
3076.91410, 1.11932
3077.87834, 1.11932
3078.84259, 1.11932
3079.80684, 1.11648
3080.77109, 1.11364
3081.73534, 1.11080
3082.69959, 1.10795
3083.66384, 1.10511
3084.62808, 1.10511
3085.59233, 1.10227
3086.55658, 1.10227
3087.52083, 1.09943
3088.48508, 1.09659
3089.44933, 1.09375
3090.41358, 1.09091
3091.37782, 1.09091
3092.34207, 1.08807
3093.30632, 1.08523
3094.27057, 1.08523
3095.23482, 1.08239
3096.19907, 1.07955
3097.16332, 1.07670
3098.12756, 1.07670
3099.09181, 1.07386
3100.05606, 1.07386
3101.02031, 1.07102
3101.98456, 1.06818
3102.94881, 1.06534
3103.91306, 1.06250
3104.87731, 1.05966
3105.84155, 1.05966
3106.80580, 1.05682
3107.77005, 1.05682
3108.73430, 1.05682
3109.69855, 1.05398
3110.66280, 1.05114
3111.62705, 1.04830
3112.59129, 1.04545
3113.55554, 1.04545
3114.51979, 1.04262
3115.48404, 1.04262
3116.44829, 1.03977
3117.41254, 1.03977
3118.37679, 1.03693
3119.34103, 1.03409
3120.30528, 1.03125
3121.26953, 1.02841
3122.23378, 1.02557
3123.19803, 1.02273
3124.16228, 1.01989
3125.12653, 1.01705
3126.09077, 1.01420
3127.05502, 1.01420
3128.01927, 1.01136
3128.98352, 1.00852
3129.94777, 1.00568
3130.91202, 1.00284
3131.87627, 1.00284
3132.84051, 1.00000
3133.80476, 0.99716
3134.76901, 0.99432
3135.73326, 0.99148
3136.69751, 0.98864
3137.66176, 0.98864
3138.62601, 0.98580
3139.59025, 0.98295
3140.55450, 0.98011
3141.51875, 0.97727
3142.48300, 0.97443
3143.44725, 0.97159
3144.41150, 0.96875
3145.37575, 0.96591
3146.33999, 0.96591
3147.30424, 0.96307
3148.26849, 0.96023
3149.23274, 0.95739
3150.19699, 0.95739
3151.16124, 0.95455
3152.12549, 0.95171
3153.08973, 0.94886
3154.05398, 0.94602
3155.01823, 0.94318
3155.98248, 0.94034
3156.94673, 0.93750
3157.91098, 0.93466
3158.87523, 0.93182
3159.83947, 0.92898
3160.80372, 0.92614
3161.76797, 0.92330
3162.73222, 0.92046
3163.69647, 0.91761
3164.66072, 0.91477
3165.62497, 0.91193
3166.58922, 0.90909
3167.55346, 0.90625
3168.51771, 0.90625
3169.48196, 0.90341
3170.44621, 0.90057
3171.41046, 0.89773
3172.37471, 0.89489
3173.33896, 0.88921
3174.30320, 0.88636
3175.26745, 0.88352
3176.23170, 0.88068
3177.19595, 0.88068
3178.16020, 0.87784
3179.12445, 0.87500
3180.08870, 0.87216
3181.05294, 0.86932
3182.01719, 0.86648
3182.98144, 0.86364
3183.94569, 0.86080
3184.90994, 0.85796
3185.87419, 0.85511
3186.83844, 0.85227
3187.80268, 0.84943
3188.76693, 0.84659
3189.73118, 0.84375
3190.69543, 0.84091
3191.65968, 0.83807
3192.62393, 0.83523
3193.58818, 0.83239
3194.55242, 0.82955
3195.51667, 0.82671
3196.48092, 0.82386
3197.44517, 0.82102
3198.40942, 0.81534
3199.37367, 0.81250
3200.33792, 0.80966
3201.30216, 0.80682
3202.26641, 0.80398
3203.23066, 0.80114
3204.19491, 0.79830
3205.15916, 0.79546
3206.12341, 0.79261
3207.08766, 0.78977
3208.05190, 0.78693
3209.01615, 0.78409
3209.98040, 0.78125
3210.94465, 0.77841
3211.90890, 0.77557
3212.87315, 0.77273
3213.83740, 0.76989
3214.80164, 0.76705
3215.76589, 0.76421
3216.73014, 0.76136
3217.69439, 0.76136
3218.65864, 0.75852
3219.62289, 0.75568
3220.58714, 0.75000
3221.55138, 0.74716
3222.51563, 0.74432
3223.47988, 0.74148
3224.44413, 0.73864
3225.40838, 0.73580
3226.37263, 0.73295
3227.33688, 0.73011
3228.30113, 0.72727
3229.26537, 0.72443
3230.22962, 0.72159
3231.19387, 0.71875
3232.15812, 0.71591
3233.12237, 0.71591
3234.08662, 0.71307
3235.05087, 0.70739
3236.01511, 0.70455
3236.97936, 0.70170
3237.94361, 0.69886
3238.90786, 0.69602
3239.87211, 0.69318
3240.83636, 0.69034
3241.80061, 0.68750
3242.76485, 0.68466
3243.72910, 0.68466
3244.69335, 0.68182
3245.65760, 0.67898
3246.62185, 0.67614
3247.58610, 0.67045
3248.55035, 0.66762
3249.51459, 0.66477
3250.47884, 0.66477
3251.44309, 0.66193
3252.40734, 0.65909
3253.37159, 0.65625
3254.33584, 0.65341
3255.30009, 0.65057
3256.26433, 0.64773
3257.22858, 0.64489
3258.19283, 0.64205
3259.15708, 0.63920
3260.12133, 0.63637
3261.08558, 0.63352
3262.04983, 0.62784
3263.01407, 0.62500
3263.97832, 0.62216
3264.94257, 0.61932
3265.90682, 0.61932
3266.87107, 0.61648
3267.83532, 0.61364
3268.79957, 0.61364
3269.76381, 0.61080
3270.72806, 0.60795
3271.69231, 0.60511
3272.65656, 0.60227
3273.62081, 0.59943
3274.58506, 0.59659
3275.54931, 0.59375
3276.51355, 0.59091
3277.47780, 0.58807
3278.44205, 0.58523
3279.40630, 0.58239
3280.37055, 0.57955
3281.33480, 0.57670
3282.29905, 0.57386
3283.26329, 0.57102
3284.22754, 0.56818
3285.19179, 0.56534
3286.15604, 0.56250
3287.12029, 0.55966
3288.08454, 0.55682
3289.04879, 0.55398
3290.01304, 0.55398
3290.97728, 0.55114
3291.94153, 0.54830
3292.90578, 0.54546
3293.87003, 0.54261
3294.83428, 0.53977
3295.79853, 0.53693
3296.76278, 0.53409
3297.72702, 0.52841
3298.69127, 0.52557
3299.65552, 0.52273
3300.61977, 0.51989
3301.58402, 0.51705
3302.54827, 0.51421
3303.51252, 0.51136
3304.47676, 0.50852
3305.44101, 0.50568
3306.40526, 0.50284
3307.36951, 0.50000
3308.33376, 0.49716
3309.29801, 0.49148
3310.26226, 0.48580
3311.22650, 0.48296
3312.19075, 0.47727
3313.15500, 0.47443
3314.11925, 0.46875
3315.08350, 0.46591
3316.04775, 0.46307
3317.01200, 0.45739
3317.97624, 0.45455
3318.94049, 0.45171
3319.90474, 0.44602
3320.86899, 0.44318
3321.83324, 0.43750
3322.79749, 0.43466
3323.76174, 0.43182
3324.72598, 0.42614
3325.69023, 0.42330
3326.65448, 0.41761
3327.61873, 0.41193
3328.58298, 0.40625
3329.54723, 0.40057
3330.51148, 0.39489
3331.47572, 0.39205
3332.43997, 0.38636
3333.40422, 0.38352
3334.36847, 0.38068
3335.33272, 0.37500
3336.29697, 0.37216
3337.26122, 0.36648
3338.22546, 0.36364
3339.18971, 0.35796
3340.15396, 0.35227
3341.11821, 0.34659
3342.08246, 0.34091
3343.04671, 0.33523
3344.01096, 0.33239
3344.97520, 0.32386
3345.93945, 0.31818
3346.90370, 0.31250
3347.86795, 0.30966
3348.83220, 0.30398
3349.79645, 0.30114
3350.76070, 0.29545
3351.72495, 0.28977
3352.68919, 0.28409
3353.65344, 0.27557
3354.61769, 0.26989
3355.58194, 0.26420
3356.54619, 0.25852
3357.51044, 0.25568
3358.47469, 0.25000
3359.43893, 0.24432
3360.40318, 0.23864
3361.36743, 0.23295
3362.33168, 0.22727
3363.29593, 0.22159
3364.26018, 0.21875
3365.22443, 0.21307
3366.18867, 0.21023
3367.15292, 0.20455
3368.11717, 0.19886
3369.08142, 0.19318
3370.04567, 0.18750
3371.00992, 0.17898
3371.97417, 0.17330
3372.93841, 0.16761
3373.90266, 0.16193
3374.86691, 0.15625
3375.83116, 0.15057
3376.79541, 0.14489
3377.75966, 0.14205
3378.72391, 0.13636
3379.68815, 0.13352
3380.65240, 0.12784
3381.61665, 0.12216
3382.58090, 0.11648
3383.54515, 0.11364
3384.50940, 0.10796
3385.47365, 0.10511
3386.43789, 0.09943
3387.40214, 0.09659
3388.36639, 0.09375
3389.33064, 0.09091
3390.29489, 0.08807
3391.25914, 0.08523
3392.22339, 0.08239
3393.18763, 0.07671
3394.15188, 0.07386
3395.11613, 0.06818
3396.08038, 0.06534
3397.04463, 0.06250
3398.00888, 0.05966
3398.97313, 0.05682
3399.93737, 0.05398
3400.90162, 0.04830
3401.86587, 0.04546
3402.83012, 0.04261
3403.79437, 0.03693
3404.75862, 0.03409
3405.72287, 0.02841
3406.68711, 0.02841
3407.65136, 0.02557
3408.61561, 0.02273
3409.57986, 0.02273
3410.54411, 0.01989
3411.50836, 0.01989
3412.47261, 0.01705
3413.43686, 0.01421
3414.40110, 0.01136
3415.36535, 0.00852
3416.32960, 0.00568
3417.29385, 0.00568
3418.25810, 0.00852
3419.22235, 0.00852
3420.18660, 0.00852
3421.15084, 0.00568
3422.11509, 0.00284
3423.07934, 0.00000
3424.04359, 0.00000
3425.00784, 0.00000
3425.97209, 0.00000
3426.93634, 0.00000
3427.90058, 0.00000
3428.86483, 0.00000
3429.82908, 0.00000
3430.79333, 0.00000
3431.75758, 0.00000
3432.72183, 0.00000
3433.68608, 0.00000
3434.65032, 0.00284
3435.61457, 0.00284
3436.57882, 0.00284
3437.54307, 0.00284
3438.50732, 0.00284
3439.47157, 0.00000
3440.43582, 0.00000
3441.40006, 0.00284
3442.36431, 0.00284
3443.32856, 0.00568
3444.29281, 0.00852
3445.25706, 0.01136
3446.22131, 0.01421
3447.18556, 0.01705
3448.14980, 0.01705
3449.11405, 0.01705
3450.07830, 0.01421
3451.04255, 0.01705
3452.00680, 0.01989
3452.97105, 0.02273
3453.93530, 0.02273
3454.89954, 0.02557
3455.86379, 0.02841
3456.82804, 0.03125
3457.79229, 0.03409
3458.75654, 0.03693
3459.72079, 0.04261
3460.68504, 0.04830
3461.64928, 0.04830
3462.61353, 0.05114
3463.57778, 0.05398
3464.54203, 0.05682
3465.50628, 0.05966
3466.47053, 0.06250
3467.43478, 0.06534
3468.39902, 0.06818
3469.36327, 0.07102
3470.32752, 0.07102
3471.29177, 0.07386
3472.25602, 0.07671
3473.22027, 0.07955
3474.18452, 0.08239
3475.14877, 0.08523
3476.11301, 0.08807
3477.07726, 0.09091
3478.04151, 0.09659
3479.00576, 0.10227
3479.97001, 0.10796
3480.93426, 0.11080
3481.89851, 0.11364
3482.86275, 0.11648
3483.82700, 0.11932
3484.79125, 0.12216
3485.75550, 0.12500
3486.71975, 0.13068
3487.68400, 0.13352
3488.64825, 0.13636
3489.61249, 0.13636
3490.57674, 0.13921
3491.54099, 0.14205
3492.50524, 0.14489
3493.46949, 0.15057
3494.43374, 0.15625
3495.39799, 0.16477
3496.36223, 0.16761
3497.32648, 0.17046
3498.29073, 0.17330
3499.25498, 0.17614
3500.21923, 0.18182
3501.18348, 0.19034
3502.14773, 0.19602
3503.11197, 0.20170
3504.07622, 0.20455
3505.04047, 0.20170
3506.00472, 0.20455
3506.96897, 0.20739
3507.93322, 0.21307
3508.89747, 0.21875
3509.86171, 0.22159
3510.82596, 0.22727
3511.79021, 0.23012
3512.75446, 0.23295
3513.71871, 0.23864
3514.68296, 0.24148
3515.64721, 0.24432
3516.61145, 0.24716
3517.57570, 0.25284
3518.53995, 0.25852
3519.50420, 0.26420
3520.46845, 0.26989
3521.43270, 0.28125
3522.39695, 0.28977
3523.36119, 0.29545
3524.32544, 0.29830
3525.28969, 0.30114
3526.25394, 0.30682
3527.21819, 0.30966
3528.18244, 0.31534
3529.14669, 0.31818
3530.11093, 0.31818
3531.07518, 0.32102
3532.03943, 0.32102
3533.00368, 0.32670
3533.96793, 0.33239
3534.93218, 0.34091
3535.89643, 0.34659
3536.86068, 0.35227
3537.82492, 0.35227
3538.78917, 0.35511
3539.75342, 0.35796
3540.71767, 0.36080
3541.68192, 0.36932
3542.64617, 0.37784
3543.61042, 0.38921
3544.57466, 0.39773
3545.53891, 0.40341
3546.50316, 0.40625
3547.46741, 0.40341
3548.43166, 0.40341
3549.39591, 0.40625
3550.36016, 0.41193
3551.32440, 0.41761
3552.28865, 0.42614
3553.25290, 0.42898
3554.21715, 0.42898
3555.18140, 0.42898
3556.14565, 0.43466
3557.10990, 0.44034
3558.07414, 0.44602
3559.03839, 0.45171
3560.00264, 0.46023
3560.96689, 0.46875
3561.93114, 0.47443
3562.89539, 0.48011
3563.85964, 0.49148
3564.82388, 0.50568
3565.78813, 0.51705
3566.75238, 0.52557
3567.71663, 0.52557
3568.68088, 0.51705
3569.64513, 0.51136
3570.60938, 0.50852
3571.57362, 0.51136
3572.53787, 0.51421
3573.50212, 0.51705
3574.46637, 0.52273
3575.43062, 0.53125
3576.39487, 0.53693
3577.35912, 0.54261
3578.32336, 0.54830
3579.28761, 0.55398
3580.25186, 0.55966
3581.21611, 0.56534
3582.18036, 0.57386
3583.14461, 0.58239
3584.10886, 0.59091
3585.07310, 0.60511
3586.03735, 0.61648
3587.00160, 0.62784
3587.96585, 0.63068
3588.93010, 0.62500
3589.89435, 0.62500
3590.85860, 0.63068
3591.82284, 0.63637
3592.78709, 0.64773
3593.75134, 0.65625
3594.71559, 0.66477
3595.67984, 0.67330
3596.64409, 0.67614
3597.60834, 0.68466
3598.57259, 0.69318
3599.53683, 0.70170
3600.50108, 0.70739
3601.46533, 0.71023
3602.42958, 0.71591
3603.39383, 0.71875
3604.35808, 0.72727
3605.32233, 0.73864
3606.28657, 0.75284
3607.25082, 0.76705
3608.21507, 0.77557
3609.17932, 0.78125
3610.14357, 0.78409
3611.10782, 0.79261
3612.07207, 0.80114
3613.03631, 0.81250
3614.00056, 0.82102
3614.96481, 0.82955
3615.92906, 0.83523
3616.89331, 0.84375
3617.85756, 0.85511
3618.82181, 0.86364
3619.78605, 0.86648
3620.75030, 0.86648
3621.71455, 0.86648
3622.67880, 0.86648
3623.64305, 0.87216
3624.60730, 0.88068
3625.57155, 0.89489
3626.53579, 0.91193
3627.50004, 0.92614
3628.46429, 0.93750
3629.42854, 0.93750
3630.39279, 0.93182
3631.35704, 0.92614
3632.32129, 0.92898
3633.28553, 0.92898
3634.24978, 0.93182
3635.21403, 0.93182
3636.17828, 0.93466
3637.14253, 0.93750
3638.10678, 0.94318
3639.07103, 0.94602
3640.03527, 0.94886
3640.99952, 0.95455
3641.96377, 0.96023
3642.92802, 0.96591
3643.89227, 0.97443
3644.85652, 0.98580
3645.82077, 1.00284
3646.78501, 1.02557
3647.74926, 1.04545
3648.71351, 1.05682
3649.67776, 1.05398
3650.64201, 1.04262
3651.60626, 1.02557
3652.57051, 1.01420
3653.53475, 1.01136
3654.49900, 1.01136
3655.46325, 1.01705
3656.42750, 1.01989
3657.39175, 1.01705
3658.35600, 1.01705
3659.32025, 1.01705
3660.28450, 1.01705
3661.24874, 1.01705
3662.21299, 1.01705
3663.17724, 1.01989
3664.14149, 1.02273
3665.10574, 1.02841
3666.06999, 1.03409
3667.03424, 1.04545
3667.99848, 1.05966
3668.96273, 1.07386
3669.92698, 1.07955
3670.89123, 1.07386
3671.85548, 1.07102
3672.81973, 1.07386
3673.78398, 1.08239
3674.74822, 1.09091
3675.71247, 1.09091
3676.67672, 1.08239
3677.64097, 1.07102
3678.60522, 1.06534
3679.56947, 1.05966
3680.53372, 1.05398
3681.49796, 1.05114
3682.46221, 1.04830
3683.42646, 1.05114
3684.39071, 1.05682
3685.35496, 1.06534
3686.31921, 1.07386
3687.28346, 1.08523
3688.24770, 1.09659
3689.21195, 1.10511
3690.17620, 1.10511
3691.14045, 1.09943
3692.10470, 1.08807
3693.06895, 1.07955
3694.03320, 1.07386
3694.99744, 1.07386
3695.96169, 1.07386
3696.92594, 1.07670
3697.89019, 1.07670
3698.85444, 1.07955
3699.81869, 1.08523
3700.78294, 1.09091
3701.74718, 1.09375
3702.71143, 1.09091
3703.67568, 1.08807
3704.63993, 1.08523
3705.60418, 1.08523
3706.56843, 1.09091
3707.53268, 1.09659
3708.49692, 1.10511
3709.46117, 1.11648
3710.42542, 1.12500
3711.38967, 1.12500
3712.35392, 1.11364
3713.31817, 1.09943
3714.28242, 1.09091
3715.24666, 1.08523
3716.21091, 1.08239
3717.17516, 1.08239
3718.13941, 1.08807
3719.10366, 1.09375
3720.06791, 1.09659
3721.03216, 1.10227
3721.99641, 1.10795
3722.96065, 1.11080
3723.92490, 1.11080
3724.88915, 1.11080
3725.85340, 1.10795
3726.81765, 1.10227
3727.78190, 1.09659
3728.74615, 1.09375
3729.71039, 1.09659
3730.67464, 1.10511
3731.63889, 1.11364
3732.60314, 1.11932
3733.56739, 1.12784
3734.53164, 1.13636
3735.49589, 1.13352
3736.46013, 1.11932
3737.42438, 1.10795
3738.38863, 1.09659
3739.35288, 1.09375
3740.31713, 1.09091
3741.28138, 1.09659
3742.24563, 1.10227
3743.20987, 1.10795
3744.17412, 1.11364
3745.13837, 1.11648
3746.10262, 1.11648
3747.06687, 1.11932
3748.03112, 1.12500
3748.99537, 1.13352
3749.95961, 1.14205
3750.92386, 1.14205
3751.88811, 1.13068
3752.85236, 1.11648
3753.81661, 1.10511
3754.78086, 1.09943
3755.74511, 1.09659
3756.70935, 1.09943
3757.67360, 1.10227
3758.63785, 1.10227
3759.60210, 1.09943
3760.56635, 1.09375
3761.53060, 1.08523
3762.49485, 1.08239
3763.45909, 1.08523
3764.42334, 1.08807
3765.38759, 1.09091
3766.35184, 1.09091
3767.31609, 1.09375
3768.28034, 1.09375
3769.24459, 1.09659
3770.20883, 1.09375
3771.17308, 1.08523
3772.13733, 1.07955
3773.10158, 1.07386
3774.06583, 1.07102
3775.03008, 1.07102
3775.99433, 1.07386
3776.95857, 1.07955
3777.92282, 1.08523
3778.88707, 1.08807
3779.85132, 1.08807
3780.81557, 1.08239
3781.77982, 1.07955
3782.74407, 1.07670
3783.70832, 1.07955
3784.67256, 1.07955
3785.63681, 1.07670
3786.60106, 1.07386
3787.56531, 1.07102
3788.52956, 1.06818
3789.49381, 1.06818
3790.45806, 1.06534
3791.42230, 1.06534
3792.38655, 1.06534
3793.35080, 1.06818
3794.31505, 1.07386
3795.27930, 1.08239
3796.24355, 1.08807
3797.20780, 1.09091
3798.17204, 1.09375
3799.13629, 1.09659
3800.10054, 1.10511
3801.06479, 1.11080
3802.02904, 1.10511
3802.99329, 1.09375
3803.95754, 1.08523
3804.92178, 1.08239
3805.88603, 1.08523
3806.85028, 1.08523
3807.81453, 1.07955
3808.77878, 1.07102
3809.74303, 1.06534
3810.70728, 1.05966
3811.67152, 1.05966
3812.63577, 1.06534
3813.60002, 1.07102
3814.56427, 1.07955
3815.52852, 1.08807
3816.49277, 1.09091
3817.45702, 1.09091
3818.42126, 1.09375
3819.38551, 1.10227
3820.34976, 1.10795
3821.31401, 1.10227
3822.27826, 1.08807
3823.24251, 1.07670
3824.20676, 1.07102
3825.17100, 1.07102
3826.13525, 1.07102
3827.09950, 1.06818
3828.06375, 1.06534
3829.02800, 1.06250
3829.99225, 1.06534
3830.95650, 1.06818
3831.92074, 1.07102
3832.88499, 1.07102
3833.84924, 1.07670
3834.81349, 1.08239
3835.77774, 1.08807
3836.74199, 1.09375
3837.70624, 1.09659
3838.67048, 1.09659
3839.63473, 1.09375
3840.59898, 1.08523
3841.56323, 1.07670
3842.52748, 1.06818
3843.49173, 1.06250
3844.45598, 1.05682
3845.42023, 1.05114
3846.38447, 1.04830
3847.34872, 1.04830
3848.31297, 1.05114
3849.27722, 1.06250
3850.24147, 1.07386
3851.20572, 1.08807
3852.16997, 1.10227
3853.13421, 1.10511
3854.09846, 1.08807
3855.06271, 1.07386
3856.02696, 1.06534
3856.99121, 1.05682
3857.95546, 1.05114
3858.91971, 1.04545
3859.88395, 1.04262
3860.84820, 1.04830
3861.81245, 1.05398
3862.77670, 1.05966
3863.74095, 1.06534
3864.70520, 1.06534
3865.66945, 1.05966
3866.63369, 1.05682
3867.59794, 1.05682
3868.56219, 1.06250
3869.52644, 1.06818
3870.49069, 1.06534
3871.45494, 1.05966
3872.41919, 1.05682
3873.38343, 1.05398
3874.34768, 1.04830
3875.31193, 1.03977
3876.27618, 1.03409
3877.24043, 1.03125
3878.20468, 1.03409
3879.16893, 1.04262
3880.13317, 1.04830
3881.09742, 1.05114
3882.06167, 1.04830
3883.02592, 1.04545
3883.99017, 1.04545
3884.95442, 1.04545
3885.91867, 1.03977
3886.88291, 1.03125
3887.84716, 1.02841
3888.81141, 1.02841
3889.77566, 1.03409
3890.73991, 1.03977
3891.70416, 1.04262
3892.66841, 1.03693
3893.63265, 1.02841
3894.59690, 1.02273
3895.56115, 1.02273
3896.52540, 1.02557
3897.48965, 1.03409
3898.45390, 1.03977
3899.41815, 1.04262
3900.38239, 1.04545
3901.34664, 1.04545
3902.31089, 1.04545
3903.27514, 1.04545
3904.23939, 1.04262
3905.20364, 1.03409
3906.16789, 1.02273
3907.13214, 1.01420
3908.09638, 1.00852
3909.06063, 1.00568
3910.02488, 1.00284
3910.98913, 1.00284
3911.95338, 1.00284
3912.91763, 1.00284
3913.88188, 1.00852
3914.84612, 1.01136
3915.81037, 1.01705
3916.77462, 1.01705
3917.73887, 1.01705
3918.70312, 1.01420
3919.66737, 1.01136
3920.63162, 1.00852
3921.59586, 1.00852
3922.56011, 1.00852
3923.52436, 1.01136
3924.48861, 1.01136
3925.45286, 1.00852
3926.41711, 1.00284
3927.38136, 1.00284
3928.34560, 1.00284
3929.30985, 1.00568
3930.27410, 1.00852
3931.23835, 1.01136
3932.20260, 1.00852
3933.16685, 1.00568
3934.13110, 1.00000
3935.09534, 0.99716
3936.05959, 0.99432
3937.02384, 0.99148
3937.98809, 0.99148
3938.95234, 0.99148
3939.91659, 0.99148
3940.88084, 0.99432
3941.84508, 1.00000
3942.80933, 1.00000
3943.77358, 1.00000
3944.73783, 0.99716
3945.70208, 0.99432
3946.66633, 0.99716
3947.63058, 1.00000
3948.59482, 1.00000
3949.55907, 0.99716
3950.52332, 0.99432
3951.48757, 0.99148
3952.45182, 0.98864
3953.41607, 0.98580
3954.38032, 0.98295
3955.34456, 0.98295
3956.30881, 0.98295
3957.27306, 0.98295
3958.23731, 0.98295
3959.20156, 0.98295
3960.16581, 0.98295
3961.13006, 0.98295
3962.09430, 0.98295
3963.05855, 0.98011
3964.02280, 0.97727
3964.98705, 0.97727
3965.95130, 0.97443
3966.91555, 0.97727
3967.87980, 0.97727
3968.84405, 0.97727
3969.80829, 0.97727
3970.77254, 0.97727
3971.73679, 0.97727
3972.70104, 0.97727
3973.66529, 0.97727
3974.62954, 0.97727
3975.59379, 0.97727
3976.55803, 0.97443
3977.52228, 0.97443
3978.48653, 0.97159
3979.45078, 0.97159
3980.41503, 0.97159
3981.37928, 0.97159
3982.34353, 0.96875
3983.30777, 0.96875
3984.27202, 0.96875
3985.23627, 0.96875
3986.20052, 0.96875
3987.16477, 0.96875
3988.12902, 0.96875
3989.09327, 0.96875
3990.05751, 0.96875
3991.02176, 0.96591
3991.98601, 0.96591
3992.95026, 0.96591
3993.91451, 0.96591
3994.87876, 0.96591
3995.84301, 0.96591
3996.80725, 0.96307
3997.77150, 0.96023
3998.73575, 0.96023
3999.70000, 0.96023
##END=



