##NAMES=Gaspeite
##RRUFFID=R040157
##IDEAL CHEMISTRY=Ni^2+^CO_3_
##LOCALITY=Lemieux Township, Gaspe Nord County, Gaspe Peninsula, Quebec, Canada
##OWNER=RRUFF
##SOURCE=University of Arizona Mineral Museum
##DESCRIPTION=Green massive
##STATUS=The identification of this mineral has been confirmed by X-ray diffraction and chemical analysis
##URL=rruff.info/R040157
##MEASURED CHEMISTRY=(Ni_0.54_Mg_0.31_Fe_0.15_Ca_0.01_Co_0.01_)C_1.00_O_3_; = the gray bands. Light grey bands are also gaspeite: (Ni_0.57_Mg_0.41_Fe_0.08_)C_0.97_O_3_; Dark grey bands, magnesite: (Mg_0.98_Fe_0.04_Ni_0.03_)C_0.97_O_3_
399.1926, 0.173832
401.1211, 0.155467
403.0496, 0.156214
404.9780, 0.151535
406.9065, 0.147404
408.8350, 0.142873
410.7634, 0.136245
412.6919, 0.127628
414.6204, 0.118906
416.5488, 0.112009
418.4773, 0.107294
420.4058, 0.102944
422.3342, 0.099530
424.2627, 0.094080
426.1912, 0.086998
428.1196, 0.080938
430.0481, 0.077130
431.9766, 0.073692
433.9050, 0.070502
435.8335, 0.067785
437.7620, 0.064265
439.6904, 0.060505
441.6189, 0.057807
443.5474, 0.054861
445.4758, 0.052674
447.4043, 0.051451
449.3328, 0.049831
451.2612, 0.048493
453.1897, 0.047032
455.1182, 0.045731
457.0466, 0.044203
458.9751, 0.042542
460.9036, 0.041360
462.8320, 0.040406
464.7605, 0.040454
466.6890, 0.040044
468.6174, 0.038683
470.5459, 0.037252
472.4744, 0.036589
474.4028, 0.035938
476.3313, 0.034522
478.2598, 0.033007
480.1882, 0.031756
482.1167, 0.030155
484.0452, 0.028919
485.9736, 0.028046
487.9021, 0.027078
489.8306, 0.025828
491.7590, 0.024984
493.6875, 0.024018
495.6160, 0.023166
497.5444, 0.022655
499.4729, 0.021967
501.4014, 0.020988
503.3298, 0.020337
505.2583, 0.019978
507.1868, 0.019693
509.1152, 0.019378
511.0437, 0.018780
512.9722, 0.018471
514.9006, 0.018031
516.8291, 0.017452
518.7576, 0.017201
520.6860, 0.017268
522.6145, 0.017140
524.5430, 0.016431
526.4714, 0.016046
528.3999, 0.016374
530.3284, 0.016374
532.2568, 0.015882
534.1853, 0.015368
536.1138, 0.015045
538.0422, 0.015355
539.9707, 0.015301
541.8992, 0.014938
543.8276, 0.014869
545.7561, 0.014713
547.6846, 0.014700
549.6130, 0.014949
551.5415, 0.015205
553.4700, 0.015282
555.3984, 0.015229
557.3269, 0.015046
559.2554, 0.015071
561.1838, 0.015479
563.1123, 0.015852
565.0408, 0.015660
566.9692, 0.015571
568.8977, 0.015790
570.8262, 0.015901
572.7546, 0.015921
574.6831, 0.015710
576.6116, 0.015833
578.5400, 0.016179
580.4685, 0.016421
582.3970, 0.016677
584.3254, 0.016883
586.2539, 0.016812
588.1824, 0.016526
590.1108, 0.016706
592.0393, 0.017453
593.9678, 0.017707
595.8962, 0.017810
597.8247, 0.017646
599.7532, 0.017581
601.6816, 0.018071
603.6101, 0.018392
605.5386, 0.018437
607.4670, 0.018461
609.3955, 0.018830
611.3240, 0.019171
613.2524, 0.019084
615.1809, 0.019084
617.1094, 0.019386
619.0378, 0.019612
620.9663, 0.020153
622.8948, 0.020533
624.8232, 0.020419
626.7517, 0.020500
628.6802, 0.020758
630.6086, 0.020948
632.5371, 0.021227
634.4656, 0.021562
636.3940, 0.022072
638.3225, 0.022391
640.2510, 0.022679
642.1794, 0.023167
644.1079, 0.023517
646.0364, 0.023956
647.9648, 0.024474
649.8933, 0.024801
651.8218, 0.025338
653.7502, 0.025827
655.6787, 0.026214
657.6072, 0.026884
659.5356, 0.027207
661.4641, 0.027574
663.3926, 0.028359
665.3210, 0.029201
667.2495, 0.029797
669.1780, 0.030543
671.1064, 0.030860
673.0349, 0.031063
674.9634, 0.031192
676.8918, 0.030953
678.8203, 0.030665
680.7488, 0.030687
682.6772, 0.030499
684.6057, 0.030100
686.5342, 0.029947
688.4626, 0.029568
690.3911, 0.029358
692.3196, 0.029724
694.2480, 0.030262
696.1765, 0.030668
698.1050, 0.030856
700.0334, 0.030933
701.9619, 0.031095
703.8904, 0.031732
705.8188, 0.032329
707.7473, 0.032995
709.6758, 0.033723
711.6042, 0.034297
713.5327, 0.034836
715.4612, 0.035168
717.3896, 0.035768
719.3181, 0.036747
721.2466, 0.037889
723.1750, 0.039119
725.1035, 0.040430
727.0320, 0.042076
728.9604, 0.044215
730.8889, 0.046799
732.8174, 0.050035
734.7458, 0.053847
736.6743, 0.058602
738.6028, 0.065075
740.5313, 0.073956
742.4597, 0.086229
744.3882, 0.102134
746.3167, 0.119921
748.2451, 0.133212
750.1736, 0.136420
752.1021, 0.129532
754.0305, 0.113487
755.9590, 0.090244
757.8875, 0.066354
759.8159, 0.047845
761.7444, 0.036189
763.6729, 0.029725
765.6013, 0.026143
767.5298, 0.024117
769.4583, 0.022846
771.3867, 0.022273
773.3152, 0.022148
775.2437, 0.022035
777.1721, 0.022043
779.1006, 0.022332
781.0291, 0.022972
782.9575, 0.023497
784.8860, 0.023847
786.8145, 0.024320
788.7429, 0.024947
790.6714, 0.025455
792.5999, 0.025956
794.5283, 0.026395
796.4568, 0.026898
798.3853, 0.027616
800.3137, 0.028314
802.2422, 0.029091
804.1707, 0.029784
806.0991, 0.030438
808.0276, 0.031086
809.9561, 0.031902
811.8845, 0.033034
813.8130, 0.034153
815.7415, 0.035226
817.6699, 0.036124
819.5984, 0.037317
821.5269, 0.038748
823.4553, 0.040342
825.3838, 0.042195
827.3123, 0.044180
829.2407, 0.046377
831.1692, 0.048904
833.0977, 0.051720
835.0261, 0.055184
836.9546, 0.060021
838.8831, 0.066236
840.8115, 0.071844
842.7400, 0.076495
844.6685, 0.081009
846.5969, 0.086293
848.5254, 0.093205
850.4539, 0.102297
852.3823, 0.113328
854.3108, 0.126337
856.2393, 0.141049
858.1677, 0.159266
860.0962, 0.182716
862.0247, 0.206431
863.9531, 0.224907
865.8816, 0.238040
867.8101, 0.247336
869.7385, 0.251927
871.6670, 0.251096
873.5955, 0.244431
875.5239, 0.232411
877.4524, 0.216195
879.3809, 0.197528
881.3093, 0.178164
883.2378, 0.159110
885.1663, 0.140642
887.0947, 0.122736
889.0232, 0.104945
890.9517, 0.087321
892.8801, 0.071032
894.8085, 0.057529
896.7370, 0.047502
898.6655, 0.040853
900.5939, 0.036740
902.5224, 0.034627
904.4509, 0.033587
906.3793, 0.033236
908.3078, 0.033292
910.2363, 0.033429
912.1647, 0.033910
914.0932, 0.034525
916.0217, 0.035044
917.9501, 0.035531
919.8786, 0.035975
921.8071, 0.036669
923.7355, 0.037219
925.6640, 0.037898
927.5925, 0.038929
929.5209, 0.039954
931.4494, 0.040910
933.3779, 0.042023
935.3063, 0.043407
937.2348, 0.044845
939.1633, 0.046400
941.0917, 0.048091
943.0202, 0.049684
944.9487, 0.051056
946.8771, 0.052311
948.8056, 0.053370
950.7341, 0.054130
952.6625, 0.054994
954.5910, 0.055744
956.5195, 0.056467
958.4479, 0.057160
960.3764, 0.057958
962.3049, 0.058643
964.2333, 0.059074
966.1618, 0.059585
968.0903, 0.060197
970.0187, 0.060879
971.9472, 0.061554
973.8757, 0.062251
975.8041, 0.063086
977.7326, 0.063846
979.6611, 0.064518
981.5895, 0.065282
983.5180, 0.066093
985.4465, 0.066943
987.3749, 0.067975
989.3034, 0.069159
991.2319, 0.070481
993.1603, 0.071882
995.0888, 0.073193
997.0173, 0.074507
998.9457, 0.076084
1000.8740, 0.077713
1002.8030, 0.079425
1004.7310, 0.081390
1006.6600, 0.083615
1008.5880, 0.085583
1010.5170, 0.087298
1012.4450, 0.089249
1014.3730, 0.091174
1016.3020, 0.092863
1018.2300, 0.094336
1020.1590, 0.095607
1022.0870, 0.096705
1024.0160, 0.097365
1025.9440, 0.097884
1027.8730, 0.097992
1029.8010, 0.097535
1031.7300, 0.096687
1033.6580, 0.095522
1035.5870, 0.093931
1037.5150, 0.091957
1039.4440, 0.089920
1041.3720, 0.087686
1043.3010, 0.085422
1045.2290, 0.083522
1047.1570, 0.081806
1049.0860, 0.080001
1051.0140, 0.078400
1052.9430, 0.077051
1054.8710, 0.075895
1056.8000, 0.074962
1058.7280, 0.074121
1060.6570, 0.073453
1062.5850, 0.072937
1064.5140, 0.072535
1066.4420, 0.072297
1068.3710, 0.072413
1070.2990, 0.072361
1072.2280, 0.072493
1074.1560, 0.072836
1076.0840, 0.073436
1078.0130, 0.073841
1079.9410, 0.074268
1081.8700, 0.074647
1083.7980, 0.075004
1085.7270, 0.075250
1087.6550, 0.075224
1089.5840, 0.075013
1091.5120, 0.074797
1093.4410, 0.074306
1095.3690, 0.073555
1097.2980, 0.072904
1099.2260, 0.072440
1101.1550, 0.072091
1103.0830, 0.071824
1105.0110, 0.071576
1106.9400, 0.071705
1108.8680, 0.071907
1110.7970, 0.072008
1112.7250, 0.072211
1114.6540, 0.072454
1116.5820, 0.072869
1118.5110, 0.073258
1120.4390, 0.073484
1122.3680, 0.074120
1124.2960, 0.074908
1126.2250, 0.075499
1128.1530, 0.075887
1130.0820, 0.076282
1132.0100, 0.076771
1133.9380, 0.077409
1135.8670, 0.077847
1137.7950, 0.078354
1139.7240, 0.078979
1141.6520, 0.079600
1143.5810, 0.080127
1145.5090, 0.080705
1147.4380, 0.081317
1149.3660, 0.081943
1151.2950, 0.082535
1153.2230, 0.083164
1155.1520, 0.083889
1157.0800, 0.084749
1159.0090, 0.085481
1160.9370, 0.086062
1162.8650, 0.086818
1164.7940, 0.087564
1166.7220, 0.088215
1168.6510, 0.089157
1170.5790, 0.090138
1172.5080, 0.090880
1174.4360, 0.091607
1176.3650, 0.092553
1178.2930, 0.093562
1180.2220, 0.094627
1182.1500, 0.095544
1184.0790, 0.096510
1186.0070, 0.097642
1187.9360, 0.098842
1189.8640, 0.100158
1191.7920, 0.101459
1193.7210, 0.102873
1195.6490, 0.104462
1197.5780, 0.106078
1199.5060, 0.107673
1201.4350, 0.109107
1203.3630, 0.110280
1205.2920, 0.111384
1207.2200, 0.112565
1209.1490, 0.113733
1211.0770, 0.114821
1213.0060, 0.115561
1214.9340, 0.116181
1216.8630, 0.117129
1218.7910, 0.118088
1220.7190, 0.118872
1222.6480, 0.119636
1224.5760, 0.120388
1226.5050, 0.121274
1228.4330, 0.122184
1230.3620, 0.122999
1232.2900, 0.123785
1234.2190, 0.124887
1236.1470, 0.126115
1238.0760, 0.127397
1240.0040, 0.128596
1241.9330, 0.129831
1243.8610, 0.131086
1245.7900, 0.132337
1247.7180, 0.133660
1249.6460, 0.135094
1251.5750, 0.136573
1253.5030, 0.138126
1255.4320, 0.139731
1257.3600, 0.141191
1259.2890, 0.142688
1261.2170, 0.144391
1263.1460, 0.145935
1265.0740, 0.147630
1267.0030, 0.149571
1268.9310, 0.151418
1270.8600, 0.153308
1272.7880, 0.155392
1274.7170, 0.157600
1276.6450, 0.159653
1278.5730, 0.161763
1280.5020, 0.163943
1282.4300, 0.166017
1284.3590, 0.168474
1286.2870, 0.170977
1288.2160, 0.173166
1290.1440, 0.175582
1292.0730, 0.178016
1294.0010, 0.180571
1295.9300, 0.183165
1297.8580, 0.185630
1299.7870, 0.188000
1301.7150, 0.190682
1303.6440, 0.193618
1305.5720, 0.196547
1307.5000, 0.199348
1309.4290, 0.202190
1311.3570, 0.205418
1313.2860, 0.208594
1315.2140, 0.211554
1317.1430, 0.214631
1319.0710, 0.218034
1321.0000, 0.221525
1322.9280, 0.225232
1324.8570, 0.228778
1326.7850, 0.232360
1328.7140, 0.236105
1330.6420, 0.239822
1332.5710, 0.243726
1334.4990, 0.247570
1336.4270, 0.251589
1338.3560, 0.255942
1340.2840, 0.260195
1342.2130, 0.264397
1344.1410, 0.268897
1346.0700, 0.273336
1347.9980, 0.277792
1349.9270, 0.282248
1351.8550, 0.287003
1353.7840, 0.292140
1355.7120, 0.297120
1357.6410, 0.301996
1359.5690, 0.307321
1361.4980, 0.312910
1363.4260, 0.318435
1365.3540, 0.324015
1367.2830, 0.329837
1369.2110, 0.335562
1371.1400, 0.341875
1373.0680, 0.348639
1374.9970, 0.355454
1376.9250, 0.362348
1378.8540, 0.369308
1380.7820, 0.376494
1382.7110, 0.384040
1384.6390, 0.391730
1386.5680, 0.399067
1388.4960, 0.405772
1390.4240, 0.411919
1392.3530, 0.417916
1394.2810, 0.424594
1396.2100, 0.431813
1398.1380, 0.438897
1400.0670, 0.445078
1401.9950, 0.451224
1403.9240, 0.457872
1405.8520, 0.464089
1407.7810, 0.469747
1409.7090, 0.474285
1411.6380, 0.477349
1413.5660, 0.479078
1415.4950, 0.479541
1417.4230, 0.479132
1419.3510, 0.477263
1421.2800, 0.474557
1423.2080, 0.471285
1425.1370, 0.467548
1427.0650, 0.463204
1428.9940, 0.458191
1430.9220, 0.452514
1432.8510, 0.446278
1434.7790, 0.440121
1436.7080, 0.434060
1438.6360, 0.427258
1440.5650, 0.420456
1442.4930, 0.413930
1444.4220, 0.407263
1446.3500, 0.400537
1448.2780, 0.393958
1450.2070, 0.387156
1452.1350, 0.380408
1454.0640, 0.373802
1455.9920, 0.367567
1457.9210, 0.361162
1459.8490, 0.354354
1461.7780, 0.347732
1463.7060, 0.341053
1465.6350, 0.334425
1467.5630, 0.328291
1469.4920, 0.322403
1471.4200, 0.316517
1473.3490, 0.310498
1475.2770, 0.304478
1477.2050, 0.298496
1479.1340, 0.292614
1481.0620, 0.286646
1482.9910, 0.280991
1484.9190, 0.275398
1486.8480, 0.269424
1488.7760, 0.263774
1490.7050, 0.258276
1492.6330, 0.252305
1494.5620, 0.246612
1496.4900, 0.240893
1498.4190, 0.234847
1500.3470, 0.228810
1502.2760, 0.222999
1504.2040, 0.217344
1506.1320, 0.211555
1508.0610, 0.205269
1509.9890, 0.199032
1511.9180, 0.193080
1513.8460, 0.187163
1515.7750, 0.181144
1517.7030, 0.175050
1519.6320, 0.169338
1521.5600, 0.163675
1523.4890, 0.157720
1525.4170, 0.151956
1527.3460, 0.146205
1529.2740, 0.140559
1531.2030, 0.135074
1533.1310, 0.129666
1535.0590, 0.124131
1536.9880, 0.118797
1538.9160, 0.113899
1540.8450, 0.108986
1542.7730, 0.103886
1544.7020, 0.098902
1546.6300, 0.094010
1548.5590, 0.089572
1550.4870, 0.085365
1552.4160, 0.080866
1554.3440, 0.076226
1556.2730, 0.071779
1558.2010, 0.067707
1560.1300, 0.063051
1562.0580, 0.058005
1563.9860, 0.053335
1565.9150, 0.048680
1567.8430, 0.044060
1569.7720, 0.039378
1571.7000, 0.034434
1573.6290, 0.030005
1575.5570, 0.026177
1577.4860, 0.022519
1579.4140, 0.019413
1581.3430, 0.016922
1583.2710, 0.014863
1585.2000, 0.013504
1587.1280, 0.012388
1589.0570, 0.011581
1590.9850, 0.011162
1592.9130, 0.010878
1594.8420, 0.010941
1596.7700, 0.011029
1598.6990, 0.010799
1600.6270, 0.010831
1602.5560, 0.011033
1604.4840, 0.011064
1606.4130, 0.011154
1608.3410, 0.011111
1610.2700, 0.011036
1612.1980, 0.010949
1614.1270, 0.010710
1616.0550, 0.010895
1617.9840, 0.011009
1619.9120, 0.010692
1621.8400, 0.010320
1623.7690, 0.010059
1625.6970, 0.009700
1627.6260, 0.009418
1629.5540, 0.009109
1631.4830, 0.008787
1633.4110, 0.008722
1635.3400, 0.008776
1637.2680, 0.008389
1639.1970, 0.007969
1641.1250, 0.007788
1643.0540, 0.007652
1644.9820, 0.007502
1646.9110, 0.007287
1648.8390, 0.007078
1650.7670, 0.007226
1652.6960, 0.007480
1654.6240, 0.007160
1656.5530, 0.006671
1658.4810, 0.006361
1660.4100, 0.006511
1662.3380, 0.006677
1664.2670, 0.006476
1666.1950, 0.006435
1668.1240, 0.006478
1670.0520, 0.006579
1671.9810, 0.006456
1673.9090, 0.006299
1675.8380, 0.006428
1677.7660, 0.006281
1679.6940, 0.006315
1681.6230, 0.006331
1683.5510, 0.006434
1685.4800, 0.006409
1687.4080, 0.006189
1689.3370, 0.005952
1691.2650, 0.006010
1693.1940, 0.006049
1695.1220, 0.006173
1697.0510, 0.006322
1698.9790, 0.006205
1700.9080, 0.006182
1702.8360, 0.005983
1704.7650, 0.005967
1706.6930, 0.006023
1708.6210, 0.005744
1710.5500, 0.005387
1712.4780, 0.005370
1714.4070, 0.005522
1716.3350, 0.005530
1718.2640, 0.005311
1720.1920, 0.005176
1722.1210, 0.005091
1724.0490, 0.004905
1725.9780, 0.004846
1727.9060, 0.004853
1729.8350, 0.004843
1731.7630, 0.004942
1733.6920, 0.004996
1735.6200, 0.004688
1737.5480, 0.004161
1739.4770, 0.004234
1741.4050, 0.004292
1743.3340, 0.004309
1745.2620, 0.004445
1747.1910, 0.004260
1749.1190, 0.004357
1751.0480, 0.004656
1752.9760, 0.004511
1754.9050, 0.004445
1756.8330, 0.004517
1758.7620, 0.004646
1760.6900, 0.004781
1762.6190, 0.004558
1764.5470, 0.004452
1766.4750, 0.004821
1768.4040, 0.004975
1770.3320, 0.005108
1772.2610, 0.005333
1774.1890, 0.005161
1776.1180, 0.005092
1778.0460, 0.005513
1779.9750, 0.005727
1781.9030, 0.005531
1783.8320, 0.005461
1785.7600, 0.005793
1787.6890, 0.006351
1789.6170, 0.006630
1791.5460, 0.006812
1793.4740, 0.006860
1795.4020, 0.006904
1797.3310, 0.007093
1799.2590, 0.007486
1801.1880, 0.007996
1803.1160, 0.008147
1805.0450, 0.008459
1806.9730, 0.009044
1808.9020, 0.009228
1810.8300, 0.009535
1812.7590, 0.010110
1814.6870, 0.010554
1816.6160, 0.011158
1818.5440, 0.012103
1820.4730, 0.012964
1822.4010, 0.013350
1824.3290, 0.013311
1826.2580, 0.013138
1828.1860, 0.013021
1830.1150, 0.012691
1832.0430, 0.012176
1833.9720, 0.011922
1835.9000, 0.011665
1837.8290, 0.010994
1839.7570, 0.010499
1841.6860, 0.010184
1843.6140, 0.009707
1845.5430, 0.009102
1847.4710, 0.008855
1849.4000, 0.008170
1851.3280, 0.007183
1853.2560, 0.006918
1855.1850, 0.006651
1857.1130, 0.006127
1859.0420, 0.005842
1860.9700, 0.005758
1862.8990, 0.005781
1864.8270, 0.005585
1866.7560, 0.005384
1868.6840, 0.005695
1870.6130, 0.005654
1872.5410, 0.005237
1874.4700, 0.004982
1876.3980, 0.004848
1878.3270, 0.005175
1880.2550, 0.005144
1882.1830, 0.004967
1884.1120, 0.004427
1886.0400, 0.004144
1887.9690, 0.004777
1889.8970, 0.004730
1891.8260, 0.004492
1893.7540, 0.004929
1895.6830, 0.005323
1897.6110, 0.005157
1899.5400, 0.004912
1901.4680, 0.004457
1903.3970, 0.004236
1905.3250, 0.004336
1907.2540, 0.004373
1909.1820, 0.004507
1911.1100, 0.005215
1913.0390, 0.005582
1914.9670, 0.005370
1916.8960, 0.004730
1918.8240, 0.004345
1920.7530, 0.005155
1922.6810, 0.005460
1924.6100, 0.004664
1926.5380, 0.003627
1928.4670, 0.003657
1930.3950, 0.003921
1932.3240, 0.003697
1934.2520, 0.004256
1936.1810, 0.004655
1938.1090, 0.004623
1940.0370, 0.004179
1941.9660, 0.004149
1943.8940, 0.004616
1945.8230, 0.005306
1947.7510, 0.005262
1949.6800, 0.004448
1951.6080, 0.004011
1953.5370, 0.003624
1955.4650, 0.003854
1957.3940, 0.004027
1959.3220, 0.004429
1961.2510, 0.004546
1963.1790, 0.004866
1965.1080, 0.005735
1967.0360, 0.005604
1968.9640, 0.003110
1970.8930, 0.002317
1972.8210, 0.003419
1974.7500, 0.004146
1976.6780, 0.004647
1978.6070, 0.004585
1980.5350, 0.005345
1982.4640, 0.005289
1984.3920, 0.003713
1986.3210, 0.003219
1988.2490, 0.004115
1990.1780, 0.004361
1992.1060, 0.003746
1994.0350, 0.004730
1995.9630, 0.004009
1997.8910, 0.002933
1999.8200, 0.002942
2001.7480, 0.002598
2003.6770, 0.003053
2005.6050, 0.003374
2007.5340, 0.003094
2009.4620, 0.003119
2011.3910, 0.002990
2013.3190, 0.002812
2015.2480, 0.003457
2017.1760, 0.004083
2019.1050, 0.004530
2021.0330, 0.003482
2022.9620, 0.001992
2024.8900, 0.001801
2026.8180, 0.002089
2028.7470, 0.003264
2030.6750, 0.003521
2032.6040, 0.004669
2034.5320, 0.005543
2036.4610, 0.005624
2038.3890, 0.006228
2040.3180, 0.006600
2042.2460, 0.006339
2044.1750, 0.005066
2046.1030, 0.004949
2048.0320, 0.006134
2049.9600, 0.006552
2051.8890, 0.006019
2053.8170, 0.006135
2055.7460, 0.005312
2057.6740, 0.004970
2059.6030, 0.005824
2061.5310, 0.006587
2063.4590, 0.006262
2065.3880, 0.006409
2067.3160, 0.007238
2069.2450, 0.007013
2071.1730, 0.007033
2073.1020, 0.007218
2075.0300, 0.007903
2076.9590, 0.008053
2078.8870, 0.007480
2080.8160, 0.007325
2082.7440, 0.007759
2084.6730, 0.007808
2086.6010, 0.007798
2088.5300, 0.007013
2090.4580, 0.006472
2092.3860, 0.006462
2094.3150, 0.006933
2096.2430, 0.008193
2098.1720, 0.008114
2100.1000, 0.007954
2102.0290, 0.008679
2103.9570, 0.008692
2105.8860, 0.008385
2107.8140, 0.008121
2109.7430, 0.008118
2111.6710, 0.008909
2113.6000, 0.009331
2115.5280, 0.009203
2117.4570, 0.008770
2119.3850, 0.008459
2121.3130, 0.007898
2123.2420, 0.007900
2125.1700, 0.008125
2127.0990, 0.008561
2129.0270, 0.008304
2130.9560, 0.007309
2132.8840, 0.006123
2134.8130, 0.006955
2136.7410, 0.007799
2138.6700, 0.007396
2140.5980, 0.008058
2142.5270, 0.008093
2144.4550, 0.007898
2146.3840, 0.008000
2148.3120, 0.006433
2150.2400, 0.005298
2152.1690, 0.005293
2154.0970, 0.005564
2156.0260, 0.005376
2157.9540, 0.004102
2159.8830, 0.006707
2161.8110, 0.009464
2163.7400, 0.009120
2165.6680, 0.008864
2167.5970, 0.009476
2169.5250, 0.008618
2171.4540, 0.009247
2173.3820, 0.009068
2175.3110, 0.009355
2177.2390, 0.009268
2179.1670, 0.009703
2181.0960, 0.010793
2183.0240, 0.010772
2184.9530, 0.010131
2186.8810, 0.010569
2188.8100, 0.010267
2190.7380, 0.009277
2192.6670, 0.008731
2194.5950, 0.009567
2196.5240, 0.010213
2198.4520, 0.009792
2200.3810, 0.010256
2202.3090, 0.010667
2204.2380, 0.010143
2206.1660, 0.009864
2208.0940, 0.010214
2210.0230, 0.010505
2211.9510, 0.010231
2213.8800, 0.009999
2215.8080, 0.010486
2217.7370, 0.010528
2219.6650, 0.010527
2221.5940, 0.011320
2223.5220, 0.011634
2225.4510, 0.011520
2227.3790, 0.011479
2229.3080, 0.011474
2231.2360, 0.011635
2233.1650, 0.010650
2235.0930, 0.010660
2237.0210, 0.011911
2238.9500, 0.012008
2240.8780, 0.011781
2242.8070, 0.012406
2244.7350, 0.011847
2246.6640, 0.011068
2248.5920, 0.010625
2250.5210, 0.010765
2252.4490, 0.011039
2254.3780, 0.010997
2256.3060, 0.011620
2258.2350, 0.011995
2260.1630, 0.011710
2262.0920, 0.012034
2264.0200, 0.012285
2265.9480, 0.011928
2267.8770, 0.012037
2269.8050, 0.012316
2271.7340, 0.012158
2273.6620, 0.011287
2275.5910, 0.012021
2277.5190, 0.013240
2279.4480, 0.013674
2281.3760, 0.013111
2283.3050, 0.012758
2285.2330, 0.013332
2287.1620, 0.013845
2289.0900, 0.013670
2291.0190, 0.013268
2292.9470, 0.012934
2294.8750, 0.013379
2296.8040, 0.014193
2298.7320, 0.014384
2300.6610, 0.013743
2302.5890, 0.013379
2304.5180, 0.013538
2306.4460, 0.013714
2308.3750, 0.013592
2310.3030, 0.013572
2312.2320, 0.013727
2314.1600, 0.013862
2316.0890, 0.014171
2318.0170, 0.014663
2319.9460, 0.015002
2321.8740, 0.015266
2323.8020, 0.015388
2325.7310, 0.014687
2327.6590, 0.013934
2329.5880, 0.013581
2331.5160, 0.013749
2333.4450, 0.013559
2335.3730, 0.013026
2337.3020, 0.013030
2339.2300, 0.013304
2341.1590, 0.013771
2343.0870, 0.013868
2345.0160, 0.013654
2346.9440, 0.013276
2348.8730, 0.013505
2350.8010, 0.013831
2352.7290, 0.013956
2354.6580, 0.013862
2356.5860, 0.013522
2358.5150, 0.013011
2360.4430, 0.012702
2362.3720, 0.013204
2364.3000, 0.013731
2366.2290, 0.013283
2368.1570, 0.012957
2370.0860, 0.013242
2372.0140, 0.013598
2373.9420, 0.013261
2375.8710, 0.013248
2377.7990, 0.013338
2379.7280, 0.013176
2381.6560, 0.013456
2383.5850, 0.013549
2385.5130, 0.013104
2387.4420, 0.013170
2389.3700, 0.013473
2391.2990, 0.013603
2393.2270, 0.013584
2395.1560, 0.013589
2397.0840, 0.013325
2399.0120, 0.013771
2400.9410, 0.013965
2402.8690, 0.013584
2404.7980, 0.013026
2406.7260, 0.013224
2408.6550, 0.013821
2410.5830, 0.014153
2412.5120, 0.013892
2414.4400, 0.013388
2416.3690, 0.013523
2418.2970, 0.013660
2420.2260, 0.013444
2422.1540, 0.013397
2424.0830, 0.013902
2426.0110, 0.013703
2427.9390, 0.013433
2429.8680, 0.013831
2431.7960, 0.014093
2433.7250, 0.013754
2435.6530, 0.013309
2437.5820, 0.013538
2439.5100, 0.014444
2441.4390, 0.014617
2443.3670, 0.014375
2445.2960, 0.014181
2447.2240, 0.014140
2449.1530, 0.014268
2451.0810, 0.014436
2453.0100, 0.014419
2454.9380, 0.014406
2456.8660, 0.014460
2458.7950, 0.014268
2460.7230, 0.014506
2462.6520, 0.015303
2464.5800, 0.015692
2466.5090, 0.015285
2468.4370, 0.015263
2470.3660, 0.015704
2472.2940, 0.016375
2474.2230, 0.016207
2476.1510, 0.015349
2478.0800, 0.016131
2480.0080, 0.016785
2481.9370, 0.016436
2483.8650, 0.016481
2485.7930, 0.016683
2487.7220, 0.016723
2489.6500, 0.017331
2491.5790, 0.018304
2493.5070, 0.019123
2495.4360, 0.020330
2497.3640, 0.021082
2499.2930, 0.021383
2501.2210, 0.021775
2503.1500, 0.021959
2505.0780, 0.022175
2507.0070, 0.022993
2508.9350, 0.023089
2510.8640, 0.022753
2512.7920, 0.022131
2514.7200, 0.021441
2516.6490, 0.021502
2518.5770, 0.022261
2520.5060, 0.021847
2522.4340, 0.021285
2524.3630, 0.021562
2526.2910, 0.022219
2528.2200, 0.022050
2530.1480, 0.021303
2532.0770, 0.021184
2534.0050, 0.020816
2535.9340, 0.020562
2537.8620, 0.020835
2539.7910, 0.020237
2541.7190, 0.019494
2543.6470, 0.019213
2545.5760, 0.019624
2547.5040, 0.020058
2549.4330, 0.020041
2551.3610, 0.019795
2553.2900, 0.019009
2555.2180, 0.018172
2557.1470, 0.018463
2559.0750, 0.018684
2561.0040, 0.018128
2562.9320, 0.017986
2564.8610, 0.017895
2566.7890, 0.017255
2568.7180, 0.017419
2570.6460, 0.017576
2572.5740, 0.017698
2574.5030, 0.017700
2576.4310, 0.017972
2578.3600, 0.017729
2580.2880, 0.017190
2582.2170, 0.017539
2584.1450, 0.017563
2586.0740, 0.017408
2588.0020, 0.017736
2589.9310, 0.018094
2591.8590, 0.018003
2593.7880, 0.017740
2595.7160, 0.017769
2597.6450, 0.017756
2599.5730, 0.017455
2601.5010, 0.017499
2603.4300, 0.017757
2605.3580, 0.017634
2607.2870, 0.017188
2609.2150, 0.017750
2611.1440, 0.018002
2613.0720, 0.017616
2615.0010, 0.017652
2616.9290, 0.017919
2618.8580, 0.017653
2620.7860, 0.017874
2622.7150, 0.017670
2624.6430, 0.016979
2626.5720, 0.017109
2628.5000, 0.017577
2630.4280, 0.017569
2632.3570, 0.017771
2634.2850, 0.017692
2636.2140, 0.017455
2638.1420, 0.017901
2640.0710, 0.017915
2641.9990, 0.017899
2643.9280, 0.017469
2645.8560, 0.016693
2647.7850, 0.016165
2649.7130, 0.016502
2651.6420, 0.016845
2653.5700, 0.016643
2655.4990, 0.016678
2657.4270, 0.017011
2659.3550, 0.016595
2661.2840, 0.016498
2663.2120, 0.016617
2665.1410, 0.016292
2667.0690, 0.016184
2668.9980, 0.016230
2670.9260, 0.015834
2672.8550, 0.015680
2674.7830, 0.015693
2676.7120, 0.015468
2678.6400, 0.015008
2680.5690, 0.015242
2682.4970, 0.015689
2684.4260, 0.015809
2686.3540, 0.015751
2688.2820, 0.015804
2690.2110, 0.016007
2692.1390, 0.015698
2694.0680, 0.015118
2695.9960, 0.015319
2697.9250, 0.015511
2699.8530, 0.015522
2701.7820, 0.015566
2703.7100, 0.016209
2705.6390, 0.016287
2707.5670, 0.015652
2709.4960, 0.015664
2711.4240, 0.015810
2713.3530, 0.015815
2715.2810, 0.015828
2717.2090, 0.015830
2719.1380, 0.015766
2721.0660, 0.015366
2722.9950, 0.015615
2724.9230, 0.015853
2726.8520, 0.015974
2728.7800, 0.016043
2730.7090, 0.015812
2732.6370, 0.016047
2734.5660, 0.016186
2736.4940, 0.015659
2738.4230, 0.015460
2740.3510, 0.015608
2742.2800, 0.015929
2744.2080, 0.015820
2746.1360, 0.016129
2748.0650, 0.016116
2749.9930, 0.015699
2751.9220, 0.015983
2753.8500, 0.016261
2755.7790, 0.015931
2757.7070, 0.015392
2759.6360, 0.015400
2761.5640, 0.015582
2763.4930, 0.015585
2765.4210, 0.015555
2767.3500, 0.015563
2769.2780, 0.015971
2771.2070, 0.015981
2773.1350, 0.015450
2775.0630, 0.015491
2776.9920, 0.015546
2778.9200, 0.015739
2780.8490, 0.015707
2782.7770, 0.015600
2784.7060, 0.015818
2786.6340, 0.015889
2788.5630, 0.015892
2790.4910, 0.015886
2792.4200, 0.016021
2794.3480, 0.015889
2796.2770, 0.015955
2798.2050, 0.015695
2800.1340, 0.015508
2802.0620, 0.015668
2803.9900, 0.015686
2805.9190, 0.015816
2807.8470, 0.016312
2809.7760, 0.016085
2811.7040, 0.016112
2813.6330, 0.016370
2815.5610, 0.016533
2817.4900, 0.016436
2819.4180, 0.016417
2821.3470, 0.016757
2823.2750, 0.017009
2825.2040, 0.017429
2827.1320, 0.017512
2829.0610, 0.017266
2830.9890, 0.017294
2832.9170, 0.017070
2834.8460, 0.017030
2836.7740, 0.017605
2838.7030, 0.017907
2840.6310, 0.017322
2842.5600, 0.017023
2844.4880, 0.017814
2846.4170, 0.018447
2848.3450, 0.018850
2850.2740, 0.018597
2852.2020, 0.018204
2854.1310, 0.018361
2856.0590, 0.018880
2857.9880, 0.019146
2859.9160, 0.018741
2861.8440, 0.018428
2863.7730, 0.018505
2865.7010, 0.018670
2867.6300, 0.019403
2869.5580, 0.019576
2871.4870, 0.019263
2873.4150, 0.019452
2875.3440, 0.019763
2877.2720, 0.020002
2879.2010, 0.019818
2881.1290, 0.019521
2883.0580, 0.019843
2884.9860, 0.020275
2886.9150, 0.020308
2888.8430, 0.020082
2890.7710, 0.020118
2892.7000, 0.020150
2894.6280, 0.019827
2896.5570, 0.019932
2898.4850, 0.019725
2900.4140, 0.020092
2902.3420, 0.020368
2904.2710, 0.020106
2906.1990, 0.020411
2908.1280, 0.020693
2910.0560, 0.020125
2911.9850, 0.020205
2913.9130, 0.020359
2915.8420, 0.020569
2917.7700, 0.020759
2919.6980, 0.020509
2921.6270, 0.020244
2923.5550, 0.020641
2925.4840, 0.020923
2927.4120, 0.021118
2929.3410, 0.020811
2931.2690, 0.020525
2933.1980, 0.020406
2935.1260, 0.020451
2937.0550, 0.020414
2938.9830, 0.020691
2940.9120, 0.020859
2942.8400, 0.020476
2944.7690, 0.020611
2946.6970, 0.020730
2948.6250, 0.020890
2950.5540, 0.020852
2952.4820, 0.020707
2954.4110, 0.020254
2956.3390, 0.019921
2958.2680, 0.020135
2960.1960, 0.020386
2962.1250, 0.021014
2964.0530, 0.021787
2965.9820, 0.021745
2967.9100, 0.021648
2969.8390, 0.021451
2971.7670, 0.021219
2973.6960, 0.021283
2975.6240, 0.021380
2977.5520, 0.020921
2979.4810, 0.020772
2981.4090, 0.020929
2983.3380, 0.020880
2985.2660, 0.021272
2987.1950, 0.020904
2989.1230, 0.020906
2991.0520, 0.021074
2992.9800, 0.021364
2994.9090, 0.021290
2996.8370, 0.021304
2998.7660, 0.020977
3000.6940, 0.020665
3002.6230, 0.020724
3004.5510, 0.020668
3006.4790, 0.021361
3008.4080, 0.021639
3010.3360, 0.021446
3012.2650, 0.021543
3014.1930, 0.021901
3016.1220, 0.021723
3018.0500, 0.021790
3019.9790, 0.022073
3021.9070, 0.022047
3023.8360, 0.022447
3025.7640, 0.022416
3027.6930, 0.021806
3029.6210, 0.021664
3031.5500, 0.021875
3033.4780, 0.021721
3035.4060, 0.021755
3037.3350, 0.021706
3039.2630, 0.022153
3041.1920, 0.022320
3043.1200, 0.021872
3045.0490, 0.022002
3046.9770, 0.022138
3048.9060, 0.021938
3050.8340, 0.021953
3052.7630, 0.022307
3054.6910, 0.022773
3056.6200, 0.023227
3058.5480, 0.023453
3060.4770, 0.023136
3062.4050, 0.022726
3064.3330, 0.021997
3066.2620, 0.022455
3068.1900, 0.023534
3070.1190, 0.023376
3072.0470, 0.022991
3073.9760, 0.022680
3075.9040, 0.022530
3077.8330, 0.022924
3079.7610, 0.023173
3081.6900, 0.023063
3083.6180, 0.022509
3085.5470, 0.022492
3087.4750, 0.023529
3089.4040, 0.024009
3091.3320, 0.024089
3093.2600, 0.023966
3095.1890, 0.023837
3097.1170, 0.024093
3099.0460, 0.024130
3100.9740, 0.024357
3102.9030, 0.024704
3104.8310, 0.025473
3106.7600, 0.025844
3108.6880, 0.025434
3110.6170, 0.025083
3112.5450, 0.025074
3114.4740, 0.024955
3116.4020, 0.024875
3118.3310, 0.024468
3120.2590, 0.025287
3122.1880, 0.025831
3124.1160, 0.025156
3126.0440, 0.024994
3127.9730, 0.025466
3129.9010, 0.026140
3131.8300, 0.026382
3133.7580, 0.026207
3135.6870, 0.026865
3137.6150, 0.026830
3139.5440, 0.026334
3141.4720, 0.026420
3143.4010, 0.027011
3145.3290, 0.026511
3147.2580, 0.025687
3149.1860, 0.025992
3151.1150, 0.026624
3153.0430, 0.027092
3154.9710, 0.027784
3156.9000, 0.027973
3158.8280, 0.028100
3160.7570, 0.027795
3162.6850, 0.027586
3164.6140, 0.028174
3166.5420, 0.028401
3168.4710, 0.028185
3170.3990, 0.027809
3172.3280, 0.027375
3174.2560, 0.027639
3176.1850, 0.027698
3178.1130, 0.027810
3180.0420, 0.027873
3181.9700, 0.028180
3183.8980, 0.028443
3185.8270, 0.028749
3187.7550, 0.029223
3189.6840, 0.028788
3191.6120, 0.028232
3193.5410, 0.028340
3195.4690, 0.028166
3197.3980, 0.028461
3199.3260, 0.028008
3201.2550, 0.028533
3203.1830, 0.028861
3205.1120, 0.028372
3207.0400, 0.028186
3208.9690, 0.027811
3210.8970, 0.028494
3212.8250, 0.029825
3214.7540, 0.029301
3216.6820, 0.028472
3218.6110, 0.028265
3220.5390, 0.029194
3222.4680, 0.030182
3224.3960, 0.030090
3226.3250, 0.029370
3228.2530, 0.029871
3230.1820, 0.030313
3232.1100, 0.030448
3234.0390, 0.030203
3235.9670, 0.030254
3237.8960, 0.030821
3239.8240, 0.030637
3241.7520, 0.029660
3243.6810, 0.029369
3245.6090, 0.029630
3247.5380, 0.029885
3249.4660, 0.030507
3251.3950, 0.030668
3253.3230, 0.030362
3255.2520, 0.030575
3257.1800, 0.031156
3259.1090, 0.030478
3261.0370, 0.029848
3262.9660, 0.030464
3264.8940, 0.030599
3266.8230, 0.030322
3268.7510, 0.030306
3270.6790, 0.030077
3272.6080, 0.030198
3274.5360, 0.030911
3276.4650, 0.030512
3278.3930, 0.030181
3280.3220, 0.030906
3282.2500, 0.031662
3284.1790, 0.031536
3286.1070, 0.030769
3288.0360, 0.030160
3289.9640, 0.030394
3291.8930, 0.030628
3293.8210, 0.030982
3295.7500, 0.031190
3297.6780, 0.030994
3299.6060, 0.030680
3301.5350, 0.031125
3303.4630, 0.031252
3305.3920, 0.030390
3307.3200, 0.029989
3309.2490, 0.030076
3311.1770, 0.030083
3313.1060, 0.030302
3315.0340, 0.030397
3316.9630, 0.030895
3318.8910, 0.030897
3320.8200, 0.031062
3322.7480, 0.031012
3324.6770, 0.030786
3326.6050, 0.031153
3328.5330, 0.030900
3330.4620, 0.031841
3332.3900, 0.032823
3334.3190, 0.032007
3336.2470, 0.032094
3338.1760, 0.031971
3340.1040, 0.030591
3342.0330, 0.029911
3343.9610, 0.030082
3345.8900, 0.030540
3347.8180, 0.030355
3349.7470, 0.030511
3351.6750, 0.031301
3353.6040, 0.031640
3355.5320, 0.031866
3357.4600, 0.031490
3359.3890, 0.031352
3361.3170, 0.031814
3363.2460, 0.031611
3365.1740, 0.031284
3367.1030, 0.032367
3369.0310, 0.031910
3370.9600, 0.031960
3372.8880, 0.032286
3374.8170, 0.032098
3376.7450, 0.031886
3378.6740, 0.031660
3380.6020, 0.032284
3382.5310, 0.032259
3384.4590, 0.031675
3386.3870, 0.031765
3388.3160, 0.031874
3390.2440, 0.031337
3392.1730, 0.030574
3394.1010, 0.030613
3396.0300, 0.031549
3397.9580, 0.032398
3399.8870, 0.031769
3401.8150, 0.031842
3403.7440, 0.032725
3405.6720, 0.033172
3407.6010, 0.032513
3409.5290, 0.032088
3411.4580, 0.032829
3413.3860, 0.031665
3415.3140, 0.031033
3417.2430, 0.031726
3419.1710, 0.031320
3421.1000, 0.031158
3423.0280, 0.032201
3424.9570, 0.032576
3426.8850, 0.033239
3428.8140, 0.033083
3430.7420, 0.032239
3432.6710, 0.032449
3434.5990, 0.033700
3436.5280, 0.034111
3438.4560, 0.032625
3440.3850, 0.031362
3442.3130, 0.032257
3444.2410, 0.033378
3446.1700, 0.032595
3448.0980, 0.030494
3450.0270, 0.030419
3451.9550, 0.031622
3453.8840, 0.031819
3455.8120, 0.031240
3457.7410, 0.031566
3459.6690, 0.032068
3461.5980, 0.032208
3463.5260, 0.033476
3465.4550, 0.033830
3467.3830, 0.032983
3469.3120, 0.031965
3471.2400, 0.031932
3473.1680, 0.033202
3475.0970, 0.032875
3477.0250, 0.031737
3478.9540, 0.031303
3480.8820, 0.032246
3482.8110, 0.031630
3484.7390, 0.031549
3486.6680, 0.032183
3488.5960, 0.032189
3490.5250, 0.031499
3492.4530, 0.031141
3494.3820, 0.031257
3496.3100, 0.031072
3498.2390, 0.031504
3500.1670, 0.032523
3502.0950, 0.032682
3504.0240, 0.031862
3505.9520, 0.031951
3507.8810, 0.033182
3509.8090, 0.033311
3511.7380, 0.031371
3513.6660, 0.031059
3515.5950, 0.032215
3517.5230, 0.032633
3519.4520, 0.031946
3521.3800, 0.031500
3523.3090, 0.031404
3525.2370, 0.032052
3527.1660, 0.032230
3529.0940, 0.032159
3531.0220, 0.032977
3532.9510, 0.033107
3534.8790, 0.032053
3536.8080, 0.031138
3538.7360, 0.031319
3540.6650, 0.031777
3542.5930, 0.031561
3544.5220, 0.031750
3546.4500, 0.032693
3548.3790, 0.033243
3550.3070, 0.032918
3552.2360, 0.032437
3554.1640, 0.031895
3556.0930, 0.032235
3558.0210, 0.032186
3559.9490, 0.031849
3561.8780, 0.031419
3563.8060, 0.031501
3565.7350, 0.031299
3567.6630, 0.032019
3569.5920, 0.031939
3571.5200, 0.031257
3573.4490, 0.031803
3575.3770, 0.032461
3577.3060, 0.031992
3579.2340, 0.030445
3581.1630, 0.030232
3583.0910, 0.030632
3585.0200, 0.032004
3586.9480, 0.033370
3588.8760, 0.032712
3590.8050, 0.032458
3592.7330, 0.032203
3594.6620, 0.031654
3596.5900, 0.031976
3598.5190, 0.032267
3600.4470, 0.032116
3602.3760, 0.031547
3604.3040, 0.031775
3606.2330, 0.031539
3608.1610, 0.030868
3610.0900, 0.031489
3612.0180, 0.031444
3613.9470, 0.031851
3615.8750, 0.032143
3617.8030, 0.030566
3619.7320, 0.031508
3621.6600, 0.032703
3623.5890, 0.032629
3625.5170, 0.032114
3627.4460, 0.033188
3629.3740, 0.033652
3631.3030, 0.033077
3633.2310, 0.033686
3635.1600, 0.032442
3637.0880, 0.030985
3639.0170, 0.031734
3640.9450, 0.033095
3642.8740, 0.033826
3644.8020, 0.032794
3646.7300, 0.032851
3648.6590, 0.033154
3650.5870, 0.033516
3652.5160, 0.033694
3654.4440, 0.033322
3656.3730, 0.033593
3658.3010, 0.033149
3660.2300, 0.032373
3662.1580, 0.032591
3664.0870, 0.032886
3666.0150, 0.031951
3667.9440, 0.030960
3669.8720, 0.032240
3671.8010, 0.033069
3673.7290, 0.032258
3675.6570, 0.031206
3677.5860, 0.030305
3679.5140, 0.029756
3681.4430, 0.029498
3683.3710, 0.027969
3685.3000, 0.028091
3687.2280, 0.030007
3689.1570, 0.030586
3691.0850, 0.029586
3693.0140, 0.029651
3694.9420, 0.030275
3696.8710, 0.030068
3698.7990, 0.030776
3700.7280, 0.029083
3702.6560, 0.028858
3704.5840, 0.030907
3706.5130, 0.030824
3708.4410, 0.028787
3710.3700, 0.028459
3712.2980, 0.029482
3714.2270, 0.028692
3716.1550, 0.027793
3718.0840, 0.028680
3720.0120, 0.029309
3721.9410, 0.028400
3723.8690, 0.028550
3725.7980, 0.030256
3727.7260, 0.030328
3729.6550, 0.030087
3731.5830, 0.031576
3733.5110, 0.032482
3735.4400, 0.031855
3737.3680, 0.030647
3739.2970, 0.030706
3741.2250, 0.030801
3743.1540, 0.031118
3745.0820, 0.030669
3747.0110, 0.028976
3748.9390, 0.029551
3750.8680, 0.029882
3752.7960, 0.029873
3754.7250, 0.029970
3756.6530, 0.029783
3758.5820, 0.031019
3760.5100, 0.030817
3762.4380, 0.028800
3764.3670, 0.028597
3766.2950, 0.028639
3768.2240, 0.029396
3770.1520, 0.029732
3772.0810, 0.029954
3774.0090, 0.030525
3775.9380, 0.030985
3777.8660, 0.030084
3779.7950, 0.030755
3781.7230, 0.031222
3783.6520, 0.030464
3785.5800, 0.029524
3787.5090, 0.029292
3789.4370, 0.028203
3791.3650, 0.028132
3793.2940, 0.030102
3795.2220, 0.031110
3797.1510, 0.029588
3799.0790, 0.028712
3801.0080, 0.029088
3802.9360, 0.029547
3804.8650, 0.030694
3806.7930, 0.032855
3808.7220, 0.031955
3810.6500, 0.031004
3812.5790, 0.031935
3814.5070, 0.031667
3816.4360, 0.030815
3818.3640, 0.031062
3820.2920, 0.031458
3822.2210, 0.031010
3824.1490, 0.030233
3826.0780, 0.028992
3828.0060, 0.028243
3829.9350, 0.028123
3831.8630, 0.028925
3833.7920, 0.029416
3835.7200, 0.030091
3837.6490, 0.031418
3839.5770, 0.031744
3841.5060, 0.030657
3843.4340, 0.030742
3845.3630, 0.030237
3847.2910, 0.030410
3849.2190, 0.031114
3851.1480, 0.031326
3853.0760, 0.032231
3855.0050, 0.030958
3856.9330, 0.029167
3858.8620, 0.029053
3860.7900, 0.029576
3862.7190, 0.028444
3864.6470, 0.028876
3866.5760, 0.030996
3868.5040, 0.030635
3870.4330, 0.029000
3872.3610, 0.029620
3874.2900, 0.030712
3876.2180, 0.031147
3878.1460, 0.031165
3880.0750, 0.031370
3882.0030, 0.031515
3883.9320, 0.031552
3885.8600, 0.032278
3887.7890, 0.030380
3889.7170, 0.029422
3891.6460, 0.030955
3893.5740, 0.031371
3895.5030, 0.029692
3897.4310, 0.029973
3899.3600, 0.029892
3901.2880, 0.030608
3903.2170, 0.031144
3905.1450, 0.030478
3907.0730, 0.030381
3909.0020, 0.030692
3910.9300, 0.030740
3912.8590, 0.030472
3914.7870, 0.030654
3916.7160, 0.030982
3918.6440, 0.030298
3920.5730, 0.031203
3922.5010, 0.031332
3924.4300, 0.031505
3926.3580, 0.032115
3928.2870, 0.032916
3930.2150, 0.032431
3932.1440, 0.030690
3934.0720, 0.029168
3936.0000, 0.028695
3937.9290, 0.029469
3939.8570, 0.030184
3941.7860, 0.029072
3943.7140, 0.028789
3945.6430, 0.029784
3947.5710, 0.031094
3949.5000, 0.030808
3951.4280, 0.030890
3953.3570, 0.031207
3955.2850, 0.030642
3957.2140, 0.031376
3959.1420, 0.031899
3961.0710, 0.032212
3962.9990, 0.032949
3964.9270, 0.032250
3966.8560, 0.031361
3968.7840, 0.031772
3970.7130, 0.031602
3972.6410, 0.031391
3974.5700, 0.032004
3976.4980, 0.032312
3978.4270, 0.031539
3980.3550, 0.031473
3982.2840, 0.031409
3984.2120, 0.030392
3986.1410, 0.030612
3988.0690, 0.030015
3989.9980, 0.031498
3991.9260, 0.032452
3993.8540, 0.032424
3995.7830, 0.032534
3997.7110, 0.032264
3999.6400, 0.032279
##END=



