##NAMES=Grunerite
##RRUFFID=R040150
##IDEAL CHEMISTRY=[box]Fe^2+^_2_Fe^2+^_5_Si_8_O_22_(OH)_2_
##LOCALITY=Smallwood mine, Heath Lake, Newfoundland, Canada
##OWNER=RRUFF
##SOURCE=University of Arizona Mineral Museum
##DESCRIPTION=Brown bladed crystals in parallel aggregate
##STATUS=The identification of this mineral has been confirmed by X-ray diffraction and chemical analysis
##URL=rruff.info/R040150
##MEASURED CHEMISTRY=(Fe_0.69_Mg_0.27_Ca_0.02_Mn_0.02_)_7_Si_8.02_O_22_((OH)_0.98_Cl_0.02_)_2_
399.1926, 0.186699
401.1211, 0.184388
403.0496, 0.185275
404.978, 0.184693
406.9065, 0.184392
408.835, 0.185362
410.7634, 0.187306
412.6919, 0.190444
414.6204, 0.195733
416.5488, 0.198838
418.4773, 0.204062
420.4058, 0.205989
422.3342, 0.208353
424.2627, 0.207357
426.1912, 0.202262
428.1196, 0.195353
430.0481, 0.186766
431.9766, 0.179548
433.905, 0.173762
435.8335, 0.169554
437.762, 0.16713
439.6904, 0.166164
441.6189, 0.168562
443.5474, 0.172821
445.4758, 0.175744
447.4043, 0.178153
449.3328, 0.181224
451.2612, 0.182873
453.1897, 0.184826
455.1182, 0.189325
457.0466, 0.196038
458.9751, 0.202728
460.9036, 0.208851
462.832, 0.215618
464.7605, 0.222562
466.689, 0.228033
468.6174, 0.232062
470.5459, 0.235195
472.4744, 0.237021
474.4028, 0.236862
476.3313, 0.2361
478.2598, 0.2341
480.1882, 0.229704
482.1167, 0.224028
484.0452, 0.219592
485.9736, 0.21466
487.9021, 0.210297
489.8306, 0.207047
491.759, 0.203256
493.6875, 0.199551
495.616, 0.196231
497.5444, 0.192637
499.4729, 0.190269
501.4014, 0.18837
503.3298, 0.186971
505.2583, 0.18508
507.1868, 0.182684
509.1152, 0.178801
511.0437, 0.173397
512.9722, 0.167766
514.9006, 0.161933
516.8291, 0.15594
518.7576, 0.150434
520.686, 0.145579
522.6145, 0.141939
524.543, 0.139463
526.4714, 0.138088
528.3999, 0.136093
530.3284, 0.132913
532.2568, 0.129305
534.1853, 0.125638
536.1138, 0.121133
538.0422, 0.116435
539.9707, 0.112067
541.8992, 0.107122
543.8276, 0.102438
545.7561, 0.09786
547.6846, 0.093272
549.613, 0.08917
551.5415, 0.085376
553.47, 0.081262
555.3984, 0.077333
557.3269, 0.074043
559.2554, 0.071179
561.1838, 0.068413
563.1123, 0.065382
565.0408, 0.06199
566.9692, 0.058976
568.8977, 0.056082
570.8262, 0.052909
572.7546, 0.05019
574.6831, 0.047541
576.6116, 0.044773
578.54, 0.042304
580.4685, 0.040078
582.397, 0.037964
584.3254, 0.036261
586.2539, 0.034684
588.1824, 0.033537
590.1108, 0.032736
592.0393, 0.032196
593.9678, 0.031726
595.8962, 0.031519
597.8247, 0.031885
599.7532, 0.032678
601.6816, 0.033312
603.6101, 0.03369
605.5386, 0.034894
607.467, 0.036977
609.3955, 0.039213
611.324, 0.041167
613.2524, 0.043645
615.1809, 0.047163
617.1094, 0.051259
619.0378, 0.055882
620.9663, 0.060814
622.8948, 0.066142
624.8232, 0.071779
626.7517, 0.077077
628.6802, 0.08164
630.6086, 0.085265
632.5371, 0.087126
634.4656, 0.08677
636.394, 0.083863
638.3225, 0.078513
640.251, 0.071959
642.1794, 0.065624
644.1079, 0.06046
646.0364, 0.056746
647.9648, 0.054995
649.8933, 0.054473
651.8218, 0.054377
653.7502, 0.054064
655.6787, 0.053248
657.6072, 0.05117
659.5356, 0.048138
661.4641, 0.045079
663.3926, 0.042324
665.321, 0.040309
667.2495, 0.03915
669.178, 0.038669
671.1064, 0.038469
673.0349, 0.038923
674.9634, 0.04038
676.8918, 0.04228
678.8203, 0.044789
680.7488, 0.047843
682.6772, 0.051014
684.6057, 0.054086
686.5342, 0.057587
688.4626, 0.061623
690.3911, 0.065538
692.3196, 0.069309
694.248, 0.072836
696.1765, 0.075748
698.105, 0.077895
700.0334, 0.07881
701.9619, 0.077731
703.8904, 0.074467
705.8188, 0.069671
707.7473, 0.064177
709.6758, 0.058327
711.6042, 0.052798
713.5327, 0.048271
715.4612, 0.044656
717.3896, 0.042005
719.3181, 0.040638
721.2466, 0.040087
723.175, 0.040426
725.1035, 0.04172
727.032, 0.043409
728.9604, 0.045509
730.8889, 0.046683
732.8174, 0.045768
734.7458, 0.043094
736.6743, 0.039931
738.6028, 0.037388
740.5313, 0.035983
742.4597, 0.035439
744.3882, 0.035752
746.3167, 0.036515
748.2451, 0.03784
750.1736, 0.039623
752.1021, 0.04175
754.0305, 0.044385
755.959, 0.047064
757.8875, 0.049665
759.8159, 0.052479
761.7444, 0.055521
763.6729, 0.059194
765.6013, 0.063633
767.5298, 0.06952
769.4583, 0.076666
771.3867, 0.083759
773.3152, 0.088381
775.2437, 0.088614
777.1721, 0.084263
779.1006, 0.076924
781.0291, 0.068336
782.9575, 0.060275
784.886, 0.053965
786.8145, 0.049238
788.7429, 0.045614
790.6714, 0.04319
792.5999, 0.041821
794.5283, 0.041122
796.4568, 0.040858
798.3853, 0.040992
800.3137, 0.041312
802.2422, 0.041797
804.1707, 0.042633
806.0991, 0.043583
808.0276, 0.044498
809.9561, 0.045557
811.8845, 0.0469
813.813, 0.048347
815.7415, 0.049663
817.6699, 0.051097
819.5984, 0.053023
821.5269, 0.054979
823.4553, 0.056956
825.3838, 0.059291
827.3123, 0.06174
829.2407, 0.064026
831.1692, 0.066522
833.0977, 0.069483
835.0261, 0.072424
836.9546, 0.075607
838.8831, 0.078919
840.8115, 0.082531
842.74, 0.086432
844.6685, 0.090484
846.5969, 0.094914
848.5254, 0.099628
850.4539, 0.104616
852.3823, 0.109766
854.3108, 0.115341
856.2393, 0.121501
858.1677, 0.127765
860.0962, 0.134108
862.0247, 0.140845
863.9531, 0.147924
865.8816, 0.155654
867.8101, 0.163697
869.7385, 0.171722
871.667, 0.179782
873.5955, 0.187894
875.5239, 0.195725
877.4524, 0.202689
879.3809, 0.208548
881.3093, 0.213457
883.2378, 0.216928
885.1663, 0.218778
887.0947, 0.219505
889.0232, 0.219376
890.9517, 0.218378
892.8801, 0.216765
894.8085, 0.215376
896.737, 0.214049
898.6655, 0.212726
900.5939, 0.21159
902.5224, 0.211142
904.4509, 0.211559
906.3793, 0.213169
908.3078, 0.216093
910.2363, 0.220633
912.1647, 0.226534
914.0932, 0.232996
916.0217, 0.239868
917.9501, 0.247044
919.8786, 0.254759
921.8071, 0.263009
923.7355, 0.27143
925.664, 0.280369
927.5925, 0.289899
929.5209, 0.299546
931.4494, 0.309141
933.3779, 0.317998
935.3063, 0.326422
937.2348, 0.334448
939.1633, 0.341379
941.0917, 0.346866
943.0202, 0.351659
944.9487, 0.355692
946.8771, 0.358829
948.8056, 0.361362
950.7341, 0.362721
952.6625, 0.363326
954.591, 0.363201
956.5195, 0.361933
958.4479, 0.359951
960.3764, 0.35671
962.3049, 0.352309
964.2333, 0.347003
966.1618, 0.341349
968.0903, 0.33528
970.0187, 0.328819
971.9472, 0.322352
973.8757, 0.316438
975.8041, 0.310934
977.7326, 0.306193
979.6611, 0.302345
981.5895, 0.299121
983.518, 0.296765
985.4465, 0.295143
987.3749, 0.293939
989.3034, 0.293072
991.2319, 0.292042
993.1603, 0.289937
995.0888, 0.286623
997.0173, 0.282634
998.9457, 0.277612
1000.874, 0.271302
1002.803, 0.264012
1004.731, 0.256395
1006.66, 0.248651
1008.588, 0.240882
1010.517, 0.232983
1012.445, 0.225391
1014.373, 0.21832
1016.302, 0.211672
1018.23, 0.205247
1020.159, 0.198993
1022.087, 0.193219
1024.016, 0.187752
1025.944, 0.182681
1027.873, 0.177648
1029.801, 0.172641
1031.73, 0.168113
1033.658, 0.163706
1035.587, 0.159126
1037.515, 0.154702
1039.444, 0.15034
1041.372, 0.145816
1043.301, 0.141031
1045.229, 0.136333
1047.157, 0.131731
1049.086, 0.127354
1051.014, 0.123444
1052.943, 0.120107
1054.871, 0.117533
1056.8, 0.115902
1058.728, 0.115098
1060.657, 0.11486
1062.585, 0.115426
1064.514, 0.116728
1066.442, 0.118656
1068.371, 0.12133
1070.299, 0.124324
1072.228, 0.127727
1074.156, 0.131251
1076.084, 0.13408
1078.013, 0.135222
1079.941, 0.134265
1081.87, 0.131578
1083.798, 0.127628
1085.727, 0.122967
1087.655, 0.118127
1089.584, 0.112869
1091.512, 0.106899
1093.441, 0.100918
1095.369, 0.094713
1097.298, 0.088271
1099.226, 0.081945
1101.155, 0.07579
1103.083, 0.070157
1105.011, 0.065213
1106.94, 0.06105
1108.868, 0.058108
1110.797, 0.056614
1112.725, 0.05651
1114.654, 0.058201
1116.582, 0.061617
1118.511, 0.066525
1120.439, 0.072212
1122.368, 0.078053
1124.296, 0.082977
1126.225, 0.085806
1128.153, 0.086459
1130.082, 0.08513
1132.01, 0.082082
1133.938, 0.077457
1135.867, 0.071672
1137.795, 0.065174
1139.724, 0.05843
1141.652, 0.051679
1143.581, 0.045271
1145.509, 0.039493
1147.438, 0.034382
1149.366, 0.030028
1151.295, 0.026258
1153.223, 0.023182
1155.152, 0.020372
1157.08, 0.017929
1159.009, 0.016119
1160.937, 0.014852
1162.865, 0.013788
1164.794, 0.01294
1166.722, 0.012326
1168.651, 0.011609
1170.579, 0.010843
1172.508, 0.010348
1174.436, 0.010012
1176.365, 0.009745
1178.293, 0.009425
1180.222, 0.009017
1182.15, 0.008474
1184.079, 0.008106
1186.007, 0.007874
1187.936, 0.007636
1189.864, 0.007401
1191.792, 0.007311
1193.721, 0.007086
1195.649, 0.006722
1197.578, 0.006423
1199.506, 0.00631
1201.435, 0.006238
1203.363, 0.006004
1205.292, 0.005812
1207.22, 0.005736
1209.149, 0.005808
1211.077, 0.005684
1213.006, 0.005467
1214.934, 0.005265
1216.863, 0.005096
1218.791, 0.004897
1220.719, 0.004674
1222.648, 0.004625
1224.576, 0.004638
1226.505, 0.004482
1228.433, 0.004404
1230.362, 0.004489
1232.29, 0.004306
1234.219, 0.004291
1236.147, 0.004335
1238.076, 0.004129
1240.004, 0.004075
1241.933, 0.004003
1243.861, 0.0039
1245.79, 0.00389
1247.718, 0.003956
1249.646, 0.003942
1251.575, 0.003788
1253.503, 0.003851
1255.432, 0.003918
1257.36, 0.003998
1259.289, 0.003982
1261.217, 0.003879
1263.146, 0.003816
1265.074, 0.003745
1267.003, 0.003707
1268.931, 0.003685
1270.86, 0.003643
1272.788, 0.003761
1274.717, 0.003882
1276.645, 0.003898
1278.573, 0.003971
1280.502, 0.003898
1282.43, 0.003906
1284.359, 0.004065
1286.287, 0.004106
1288.216, 0.00417
1290.144, 0.004069
1292.073, 0.004029
1294.001, 0.003873
1295.93, 0.003779
1297.858, 0.003921
1299.787, 0.004126
1301.715, 0.004008
1303.644, 0.003901
1305.572, 0.003971
1307.5, 0.004005
1309.429, 0.004034
1311.357, 0.004038
1313.286, 0.003995
1315.214, 0.00385
1317.143, 0.00393
1319.071, 0.004127
1321, 0.004065
1322.928, 0.004168
1324.857, 0.004231
1326.785, 0.004099
1328.714, 0.00406
1330.642, 0.004046
1332.571, 0.00393
1334.499, 0.003938
1336.427, 0.00405
1338.356, 0.004106
1340.284, 0.004094
1342.213, 0.004213
1344.141, 0.004298
1346.07, 0.004378
1347.998, 0.004367
1349.927, 0.004463
1351.855, 0.004466
1353.784, 0.004332
1355.712, 0.004232
1357.641, 0.004252
1359.569, 0.004428
1361.498, 0.004697
1363.426, 0.004852
1365.354, 0.004716
1367.283, 0.004582
1369.211, 0.004627
1371.14, 0.004661
1373.068, 0.004779
1374.997, 0.004984
1376.925, 0.005128
1378.854, 0.005022
1380.782, 0.00494
1382.711, 0.00494
1384.639, 0.004925
1386.568, 0.005082
1388.496, 0.005185
1390.424, 0.005095
1392.353, 0.005205
1394.281, 0.005334
1396.21, 0.005374
1398.138, 0.005301
1400.067, 0.00528
1401.995, 0.005227
1403.924, 0.005271
1405.852, 0.005431
1407.781, 0.005441
1409.709, 0.005397
1411.638, 0.005376
1413.566, 0.005397
1415.495, 0.00553
1417.423, 0.005704
1419.351, 0.005735
1421.28, 0.005465
1423.208, 0.005329
1425.137, 0.005387
1427.065, 0.005337
1428.994, 0.005357
1430.922, 0.005425
1432.851, 0.005379
1434.779, 0.005401
1436.708, 0.005622
1438.636, 0.005528
1440.565, 0.005314
1442.493, 0.005159
1444.422, 0.005142
1446.35, 0.005223
1448.278, 0.005223
1450.207, 0.00525
1452.135, 0.005233
1454.064, 0.005128
1455.992, 0.00531
1457.921, 0.005387
1459.849, 0.005252
1461.778, 0.005055
1463.706, 0.00499
1465.635, 0.005202
1467.563, 0.005109
1469.492, 0.004946
1471.42, 0.005124
1473.349, 0.005334
1475.277, 0.005167
1477.205, 0.005092
1479.134, 0.005081
1481.062, 0.005045
1482.991, 0.005067
1484.919, 0.005094
1486.848, 0.005115
1488.776, 0.00537
1490.705, 0.00553
1492.633, 0.005288
1494.562, 0.005218
1496.49, 0.005417
1498.419, 0.005567
1500.347, 0.005644
1502.276, 0.005604
1504.204, 0.005853
1506.132, 0.006356
1508.061, 0.006196
1509.989, 0.005705
1511.918, 0.005584
1513.846, 0.005459
1515.775, 0.005429
1517.703, 0.005579
1519.632, 0.006025
1521.56, 0.006123
1523.489, 0.005816
1525.417, 0.005669
1527.346, 0.005588
1529.274, 0.005466
1531.203, 0.00559
1533.131, 0.005719
1535.059, 0.005706
1536.988, 0.005767
1538.916, 0.006064
1540.845, 0.006001
1542.773, 0.005824
1544.702, 0.005937
1546.63, 0.005856
1548.559, 0.005709
1550.487, 0.005708
1552.416, 0.005713
1554.344, 0.005878
1556.273, 0.006283
1558.201, 0.00687
1560.13, 0.00672
1562.058, 0.006062
1563.986, 0.006059
1565.915, 0.006068
1567.843, 0.006108
1569.772, 0.006183
1571.7, 0.00606
1573.629, 0.006257
1575.557, 0.006746
1577.486, 0.006809
1579.414, 0.006588
1581.343, 0.006603
1583.271, 0.006564
1585.2, 0.006561
1587.128, 0.006662
1589.057, 0.006679
1590.985, 0.006607
1592.913, 0.00666
1594.842, 0.006938
1596.77, 0.007264
1598.699, 0.007257
1600.627, 0.006969
1602.556, 0.007047
1604.484, 0.007278
1606.413, 0.007274
1608.341, 0.00707
1610.27, 0.006991
1612.198, 0.007064
1614.127, 0.007197
1616.055, 0.007548
1617.984, 0.007626
1619.912, 0.007653
1621.84, 0.007711
1623.769, 0.00778
1625.697, 0.007801
1627.626, 0.00784
1629.554, 0.007915
1631.483, 0.007962
1633.411, 0.008121
1635.34, 0.00841
1637.268, 0.008087
1639.197, 0.007761
1641.125, 0.007886
1643.054, 0.007863
1644.982, 0.007953
1646.911, 0.00801
1648.839, 0.007885
1650.767, 0.008175
1652.696, 0.008758
1654.624, 0.008179
1656.553, 0.007553
1658.481, 0.007549
1660.41, 0.007428
1662.338, 0.007246
1664.267, 0.007096
1666.195, 0.006991
1668.124, 0.007077
1670.052, 0.00717
1671.981, 0.007132
1673.909, 0.007251
1675.838, 0.007005
1677.766, 0.006379
1679.694, 0.006361
1681.623, 0.006687
1683.551, 0.007053
1685.48, 0.006796
1687.408, 0.006458
1689.337, 0.006509
1691.265, 0.006311
1693.194, 0.006201
1695.122, 0.006629
1697.051, 0.006692
1698.979, 0.006687
1700.908, 0.006635
1702.836, 0.006302
1704.765, 0.006454
1706.693, 0.00638
1708.621, 0.006277
1710.55, 0.006085
1712.478, 0.005934
1714.407, 0.006262
1716.335, 0.00665
1718.264, 0.006599
1720.192, 0.006269
1722.121, 0.005785
1724.049, 0.005609
1725.978, 0.005891
1727.906, 0.006133
1729.835, 0.00605
1731.763, 0.006267
1733.692, 0.006645
1735.62, 0.006224
1737.548, 0.006037
1739.477, 0.006312
1741.405, 0.006431
1743.334, 0.006264
1745.262, 0.006126
1747.191, 0.006207
1749.119, 0.006255
1751.048, 0.006243
1752.976, 0.00595
1754.905, 0.005807
1756.833, 0.006007
1758.762, 0.006142
1760.69, 0.006096
1762.619, 0.006003
1764.547, 0.005971
1766.475, 0.006235
1768.404, 0.006217
1770.332, 0.006291
1772.261, 0.006471
1774.189, 0.006189
1776.118, 0.006171
1778.046, 0.006468
1779.975, 0.006605
1781.903, 0.006686
1783.832, 0.006573
1785.76, 0.006396
1787.689, 0.006313
1789.617, 0.006271
1791.546, 0.006329
1793.474, 0.006249
1795.402, 0.006123
1797.331, 0.006139
1799.259, 0.005912
1801.188, 0.006179
1803.116, 0.006054
1805.045, 0.005653
1806.973, 0.005759
1808.902, 0.005668
1810.83, 0.005546
1812.759, 0.005532
1814.687, 0.005451
1816.616, 0.005557
1818.544, 0.005583
1820.473, 0.005847
1822.401, 0.006192
1824.329, 0.005856
1826.258, 0.005217
1828.186, 0.0054
1830.115, 0.006079
1832.043, 0.005842
1833.972, 0.005787
1835.9, 0.005664
1837.829, 0.005337
1839.757, 0.005159
1841.686, 0.004919
1843.614, 0.004973
1845.543, 0.005099
1847.471, 0.005528
1849.4, 0.005793
1851.328, 0.005515
1853.256, 0.005173
1855.185, 0.005374
1857.113, 0.005799
1859.042, 0.005555
1860.97, 0.005541
1862.899, 0.005666
1864.827, 0.005685
1866.756, 0.005632
1868.684, 0.005327
1870.613, 0.005116
1872.541, 0.004902
1874.47, 0.004881
1876.398, 0.005438
1878.327, 0.005453
1880.255, 0.004912
1882.183, 0.004901
1884.112, 0.004993
1886.04, 0.00514
1887.969, 0.004919
1889.897, 0.004462
1891.826, 0.00478
1893.754, 0.005495
1895.683, 0.005181
1897.611, 0.004981
1899.54, 0.005112
1901.468, 0.004991
1903.397, 0.004487
1905.325, 0.004382
1907.254, 0.004352
1909.182, 0.00431
1911.11, 0.004093
1913.039, 0.003847
1914.967, 0.003667
1916.896, 0.003662
1918.824, 0.003755
1920.753, 0.003577
1922.681, 0.003227
1924.61, 0.002678
1926.538, 0.00276
1928.467, 0.002966
1930.395, 0.003448
1932.324, 0.003633
1934.252, 0.00357
1936.181, 0.002387
1938.109, 0.001577
1940.037, 0.001474
1941.966, 0.000992
1943.894, 0.001501
1945.823, 0.002897
1947.751, 0.002689
1949.68, 0.002536
1951.608, 0.001771
1953.537, 0.001092
1955.465, 0.001153
1957.394, -0.000295
1959.322, -0.000368
1961.251, 0.000769
1963.179, 0.000933
1965.108, 0.001112
1967.036, 0.000014
1968.964, -0.001698
1970.893, -0.001107
1972.821, 0.000514
1974.75, -0.000106
1976.678, -0.001312
1978.607, 0.000184
1980.535, 0.00176
1982.464, 0.00146
1984.392, 0.001592
1986.321, 0.001622
1988.249, 0.001649
1990.178, 0.00229
1992.106, 0.002258
1994.035, 0.000609
1995.963, -0.000447
1997.891, 0.000253
1999.82, 0.000388
2001.748, -0.000708
2003.677, -0.001907
2005.605, -0.000843
2007.534, 0.000357
2009.462, 0.000051
2011.391, 0.000017
2013.319, -0.000946
2015.248, -0.001413
2017.176, -0.001415
2019.105, -0.000241
2021.033, -0.000593
2022.962, -0.001597
2024.89, -0.00118
2026.818, -0.000675
2028.747, -0.001539
2030.675, -0.000898
2032.604, 0.001911
2034.532, 0.003025
2036.461, 0.002592
2038.389, 0.001604
2040.318, 0.001087
2042.246, 0.00118
2044.175, 0.00248
2046.103, 0.003611
2048.032, 0.00352
2049.96, 0.00398
2051.889, 0.002602
2053.817, 0.001793
2055.746, 0.002961
2057.674, 0.004514
2059.603, 0.005449
2061.531, 0.004797
2063.459, 0.00444
2065.388, 0.004421
2067.316, 0.004293
2069.245, 0.004501
2071.173, 0.004598
2073.102, 0.004213
2075.03, 0.00452
2076.959, 0.005261
2078.887, 0.006441
2080.816, 0.005982
2082.744, 0.005095
2084.673, 0.00523
2086.601, 0.005645
2088.53, 0.006282
2090.458, 0.006726
2092.386, 0.005131
2094.315, 0.004354
2096.243, 0.004777
2098.172, 0.005502
2100.1, 0.006756
2102.029, 0.006694
2103.957, 0.005572
2105.886, 0.0059
2107.814, 0.006624
2109.743, 0.006045
2111.671, 0.005624
2113.6, 0.006064
2115.528, 0.006551
2117.457, 0.006589
2119.385, 0.005905
2121.313, 0.006227
2123.242, 0.006573
2125.17, 0.005505
2127.099, 0.004461
2129.027, 0.004917
2130.956, 0.0044
2132.884, 0.003054
2134.813, 0.002728
2136.741, 0.003675
2138.67, 0.003843
2140.598, 0.003337
2142.527, 0.002133
2144.455, 0.001679
2146.384, 0.001621
2148.312, 0.001346
2150.24, 0.002366
2152.169, 0.001594
2154.097, -0.001179
2156.026, -0.00208
2157.954, -0.000022
2159.883, 0.003559
2161.811, 0.004542
2163.74, 0.006318
2165.668, 0.007165
2167.597, 0.005925
2169.525, 0.004905
2171.454, 0.005208
2173.382, 0.003584
2175.311, 0.003447
2177.239, 0.004132
2179.167, 0.004238
2181.096, 0.003044
2183.024, 0.003984
2184.953, 0.006113
2186.881, 0.00634
2188.81, 0.00503
2190.738, 0.005939
2192.667, 0.006582
2194.595, 0.007184
2196.524, 0.00727
2198.452, 0.007828
2200.381, 0.008423
2202.309, 0.009115
2204.238, 0.009401
2206.166, 0.00846
2208.094, 0.007682
2210.023, 0.007783
2211.951, 0.007646
2213.88, 0.007257
2215.808, 0.007986
2217.737, 0.009132
2219.665, 0.008835
2221.594, 0.008813
2223.522, 0.008841
2225.451, 0.009562
2227.379, 0.010263
2229.308, 0.010786
2231.236, 0.010329
2233.165, 0.009672
2235.093, 0.009762
2237.021, 0.009285
2238.95, 0.007842
2240.878, 0.008032
2242.807, 0.008289
2244.735, 0.007626
2246.664, 0.007766
2248.592, 0.0076
2250.521, 0.00653
2252.449, 0.006692
2254.378, 0.007385
2256.306, 0.008578
2258.235, 0.008701
2260.163, 0.007769
2262.092, 0.007539
2264.02, 0.007986
2265.948, 0.008527
2267.877, 0.009357
2269.805, 0.010112
2271.734, 0.009777
2273.662, 0.008993
2275.591, 0.009791
2277.519, 0.010399
2279.448, 0.010409
2281.376, 0.011124
2283.305, 0.011945
2285.233, 0.0113
2287.162, 0.010641
2289.09, 0.010602
2291.019, 0.011295
2292.947, 0.011843
2294.875, 0.011847
2296.804, 0.012067
2298.732, 0.011595
2300.661, 0.011176
2302.589, 0.011296
2304.518, 0.011409
2306.446, 0.011668
2308.375, 0.012469
2310.303, 0.012509
2312.232, 0.011877
2314.16, 0.011845
2316.089, 0.012364
2318.017, 0.012734
2319.946, 0.013233
2321.874, 0.014299
2323.802, 0.01474
2325.731, 0.013784
2327.659, 0.013264
2329.588, 0.013703
2331.516, 0.013524
2333.445, 0.012954
2335.373, 0.012738
2337.302, 0.013019
2339.23, 0.013159
2341.159, 0.013166
2343.087, 0.012672
2345.016, 0.012317
2346.944, 0.012204
2348.873, 0.012335
2350.801, 0.012643
2352.729, 0.012956
2354.658, 0.013085
2356.586, 0.01341
2358.515, 0.013713
2360.443, 0.01397
2362.372, 0.013754
2364.3, 0.013319
2366.229, 0.013229
2368.157, 0.012994
2370.086, 0.012524
2372.014, 0.012203
2373.942, 0.011948
2375.871, 0.011539
2377.799, 0.01124
2379.728, 0.010935
2381.656, 0.010857
2383.585, 0.011254
2385.513, 0.011803
2387.442, 0.011605
2389.37, 0.010669
2391.299, 0.010855
2393.227, 0.011489
2395.156, 0.011029
2397.084, 0.010576
2399.012, 0.010715
2400.941, 0.011121
2402.869, 0.011072
2404.798, 0.010993
2406.726, 0.011758
2408.655, 0.011664
2410.583, 0.011387
2412.512, 0.011549
2414.44, 0.011809
2416.369, 0.011892
2418.297, 0.012079
2420.226, 0.01227
2422.154, 0.012217
2424.083, 0.012269
2426.011, 0.01168
2427.939, 0.011239
2429.868, 0.011431
2431.796, 0.011495
2433.725, 0.011345
2435.653, 0.011464
2437.582, 0.011685
2439.51, 0.011778
2441.439, 0.011965
2443.367, 0.012022
2445.296, 0.012146
2447.224, 0.012803
2449.153, 0.012998
2451.081, 0.012786
2453.01, 0.012464
2454.938, 0.01237
2456.866, 0.012285
2458.795, 0.011981
2460.723, 0.011746
2462.652, 0.01167
2464.58, 0.012174
2466.509, 0.012012
2468.437, 0.011965
2470.366, 0.012521
2472.294, 0.012998
2474.223, 0.012759
2476.151, 0.012482
2478.08, 0.012678
2480.008, 0.012715
2481.937, 0.012983
2483.865, 0.013159
2485.793, 0.012708
2487.722, 0.012519
2489.65, 0.012911
2491.579, 0.012453
2493.507, 0.012289
2495.436, 0.012889
2497.364, 0.012855
2499.293, 0.012621
2501.221, 0.013031
2503.15, 0.013189
2505.078, 0.013552
2507.007, 0.013295
2508.935, 0.013105
2510.864, 0.013321
2512.792, 0.013193
2514.72, 0.013143
2516.649, 0.013106
2518.577, 0.012691
2520.506, 0.012794
2522.434, 0.012654
2524.363, 0.012253
2526.291, 0.012931
2528.22, 0.013057
2530.148, 0.012633
2532.077, 0.012772
2534.005, 0.01274
2535.934, 0.012536
2537.862, 0.013228
2539.791, 0.013249
2541.719, 0.013106
2543.647, 0.013304
2545.576, 0.013094
2547.504, 0.013126
2549.433, 0.013283
2551.361, 0.013089
2553.29, 0.013249
2555.218, 0.013258
2557.147, 0.013078
2559.075, 0.013154
2561.004, 0.013071
2562.932, 0.013182
2564.861, 0.013569
2566.789, 0.014244
2568.718, 0.014354
2570.646, 0.014152
2572.574, 0.013896
2574.503, 0.013844
2576.431, 0.013914
2578.36, 0.013811
2580.288, 0.013982
2582.217, 0.014561
2584.145, 0.014194
2586.074, 0.013821
2588.002, 0.013981
2589.931, 0.014264
2591.859, 0.014717
2593.788, 0.014609
2595.716, 0.013927
2597.645, 0.013482
2599.573, 0.013424
2601.501, 0.013448
2603.43, 0.0137
2605.358, 0.014284
2607.287, 0.014423
2609.215, 0.01412
2611.144, 0.01405
2613.072, 0.013613
2615.001, 0.014066
2616.929, 0.014447
2618.858, 0.014409
2620.786, 0.014543
2622.715, 0.014672
2624.643, 0.014496
2626.572, 0.014948
2628.5, 0.01532
2630.428, 0.015359
2632.357, 0.015401
2634.285, 0.015365
2636.214, 0.015477
2638.142, 0.015489
2640.071, 0.015345
2641.999, 0.015242
2643.928, 0.015389
2645.856, 0.015282
2647.785, 0.015434
2649.713, 0.015643
2651.642, 0.014909
2653.57, 0.014801
2655.499, 0.015567
2657.427, 0.015872
2659.355, 0.015665
2661.284, 0.015131
2663.212, 0.014886
2665.141, 0.014601
2667.069, 0.01435
2668.998, 0.014528
2670.926, 0.014551
2672.855, 0.014446
2674.783, 0.014522
2676.712, 0.015023
2678.64, 0.015411
2680.569, 0.015091
2682.497, 0.014457
2684.426, 0.014729
2686.354, 0.014965
2688.282, 0.014726
2690.211, 0.014539
2692.139, 0.014423
2694.068, 0.014582
2695.996, 0.014464
2697.925, 0.014308
2699.853, 0.01445
2701.782, 0.015048
2703.71, 0.015378
2705.639, 0.015376
2707.567, 0.015234
2709.496, 0.015255
2711.424, 0.015607
2713.353, 0.015629
2715.281, 0.015588
2717.209, 0.015613
2719.138, 0.015588
2721.066, 0.015368
2722.995, 0.015377
2724.923, 0.01561
2726.852, 0.015716
2728.78, 0.015786
2730.709, 0.01568
2732.637, 0.01577
2734.566, 0.015549
2736.494, 0.015025
2738.423, 0.014993
2740.351, 0.015624
2742.28, 0.016604
2744.208, 0.016741
2746.136, 0.016401
2748.065, 0.01604
2749.993, 0.015731
2751.922, 0.01611
2753.85, 0.016685
2755.779, 0.016417
2757.707, 0.016165
2759.636, 0.016262
2761.564, 0.016401
2763.493, 0.016379
2765.421, 0.016422
2767.35, 0.01675
2769.278, 0.017198
2771.207, 0.017264
2773.135, 0.016952
2775.063, 0.016738
2776.992, 0.016718
2778.92, 0.016238
2780.849, 0.016586
2782.777, 0.017083
2784.706, 0.016741
2786.634, 0.016234
2788.563, 0.016649
2790.491, 0.01683
2792.42, 0.016688
2794.348, 0.017025
2796.277, 0.017358
2798.205, 0.017252
2800.134, 0.01675
2802.062, 0.016539
2803.99, 0.016897
2805.919, 0.016922
2807.847, 0.016373
2809.776, 0.016676
2811.704, 0.01715
2813.633, 0.016999
2815.561, 0.017133
2817.49, 0.017662
2819.418, 0.017402
2821.347, 0.017151
2823.275, 0.016962
2825.204, 0.017088
2827.132, 0.017262
2829.061, 0.017366
2830.989, 0.017911
2832.917, 0.018416
2834.846, 0.01799
2836.774, 0.017069
2838.703, 0.017063
2840.631, 0.016962
2842.56, 0.016881
2844.488, 0.017211
2846.417, 0.017447
2848.345, 0.017574
2850.274, 0.017957
2852.202, 0.018447
2854.131, 0.018761
2856.059, 0.018796
2857.988, 0.018903
2859.916, 0.018311
2861.844, 0.017728
2863.773, 0.017933
2865.701, 0.018448
2867.63, 0.018346
2869.558, 0.018377
2871.487, 0.01796
2873.415, 0.017623
2875.344, 0.017869
2877.272, 0.01809
2879.201, 0.018342
2881.129, 0.019122
2883.058, 0.019229
2884.986, 0.018539
2886.915, 0.018628
2888.843, 0.018778
2890.771, 0.01871
2892.7, 0.018625
2894.628, 0.019005
2896.557, 0.019026
2898.485, 0.018998
2900.414, 0.019706
2902.342, 0.019414
2904.271, 0.01813
2906.199, 0.018612
2908.128, 0.019246
2910.056, 0.019285
2911.985, 0.01941
2913.913, 0.019862
2915.842, 0.019355
2917.77, 0.019272
2919.698, 0.019796
2921.627, 0.019783
2923.555, 0.01917
2925.484, 0.01928
2927.412, 0.01973
2929.341, 0.020385
2931.269, 0.020992
2933.198, 0.021098
2935.126, 0.020909
2937.055, 0.020293
2938.983, 0.02036
2940.912, 0.02024
2942.84, 0.019955
2944.769, 0.019748
2946.697, 0.01961
2948.625, 0.019966
2950.554, 0.020308
2952.482, 0.020343
2954.411, 0.020278
2956.339, 0.019935
2958.268, 0.019769
2960.196, 0.019626
2962.125, 0.019895
2964.053, 0.020036
2965.982, 0.020195
2967.91, 0.020124
2969.839, 0.020067
2971.767, 0.020636
2973.696, 0.020761
2975.624, 0.020419
2977.552, 0.020664
2979.481, 0.020914
2981.409, 0.020877
2983.338, 0.020928
2985.266, 0.021255
2987.195, 0.021014
2989.123, 0.021304
2991.052, 0.021668
2992.98, 0.021151
2994.909, 0.02051
2996.837, 0.020556
2998.766, 0.020296
3000.694, 0.019764
3002.623, 0.020471
3004.551, 0.020664
3006.479, 0.021056
3008.408, 0.021565
3010.336, 0.021678
3012.265, 0.021185
3014.193, 0.021085
3016.122, 0.021201
3018.05, 0.020631
3019.979, 0.02038
3021.907, 0.020739
3023.836, 0.02139
3025.764, 0.021686
3027.693, 0.02169
3029.621, 0.021717
3031.55, 0.021349
3033.478, 0.021356
3035.406, 0.021245
3037.335, 0.021134
3039.263, 0.021462
3041.192, 0.021419
3043.12, 0.021367
3045.049, 0.021336
3046.977, 0.020899
3048.906, 0.02125
3050.834, 0.021782
3052.763, 0.021777
3054.691, 0.022281
3056.62, 0.022124
3058.548, 0.021972
3060.477, 0.022199
3062.405, 0.022301
3064.333, 0.022597
3066.262, 0.022176
3068.19, 0.021927
3070.119, 0.022033
3072.047, 0.021674
3073.976, 0.021784
3075.904, 0.022078
3077.833, 0.022594
3079.761, 0.02276
3081.69, 0.02284
3083.618, 0.022925
3085.547, 0.022801
3087.475, 0.022716
3089.404, 0.023034
3091.332, 0.023349
3093.26, 0.022811
3095.189, 0.022024
3097.117, 0.022296
3099.046, 0.022411
3100.974, 0.022606
3102.903, 0.023015
3104.831, 0.023372
3106.76, 0.023398
3108.688, 0.023571
3110.617, 0.023341
3112.545, 0.022746
3114.474, 0.023252
3116.402, 0.023335
3118.331, 0.023161
3120.259, 0.023835
3122.188, 0.024293
3124.116, 0.024354
3126.044, 0.02406
3127.973, 0.023382
3129.901, 0.02266
3131.83, 0.023146
3133.758, 0.024628
3135.687, 0.025202
3137.615, 0.024787
3139.544, 0.023894
3141.472, 0.023614
3143.401, 0.024719
3145.329, 0.025206
3147.258, 0.024544
3149.186, 0.024444
3151.115, 0.024535
3153.043, 0.024727
3154.971, 0.024735
3156.9, 0.024052
3158.828, 0.023373
3160.757, 0.023905
3162.685, 0.025288
3164.614, 0.025755
3166.542, 0.025419
3168.471, 0.02531
3170.399, 0.025473
3172.328, 0.025456
3174.256, 0.025414
3176.185, 0.025176
3178.113, 0.025138
3180.042, 0.025235
3181.97, 0.025671
3183.898, 0.025961
3185.827, 0.024802
3187.755, 0.024465
3189.684, 0.025522
3191.612, 0.026405
3193.541, 0.026598
3195.469, 0.026204
3197.398, 0.02641
3199.326, 0.026342
3201.255, 0.025731
3203.183, 0.025332
3205.112, 0.025665
3207.04, 0.02556
3208.969, 0.025159
3210.897, 0.025363
3212.825, 0.024941
3214.754, 0.024819
3216.682, 0.025854
3218.611, 0.026326
3220.539, 0.02615
3222.468, 0.025607
3224.396, 0.024741
3226.325, 0.02421
3228.253, 0.025154
3230.182, 0.026006
3232.11, 0.026155
3234.039, 0.025607
3235.967, 0.02506
3237.896, 0.025631
3239.824, 0.026308
3241.752, 0.026857
3243.681, 0.02636
3245.609, 0.025659
3247.538, 0.026112
3249.466, 0.026401
3251.395, 0.025902
3253.323, 0.026399
3255.252, 0.027013
3257.18, 0.026776
3259.109, 0.026663
3261.037, 0.026308
3262.966, 0.026482
3264.894, 0.026477
3266.823, 0.026703
3268.751, 0.027148
3270.679, 0.026715
3272.608, 0.026687
3274.536, 0.026784
3276.465, 0.027193
3278.393, 0.027516
3280.322, 0.027093
3282.25, 0.026858
3284.179, 0.026088
3286.107, 0.025425
3288.036, 0.025765
3289.964, 0.026863
3291.893, 0.027216
3293.821, 0.027746
3295.75, 0.027427
3297.678, 0.026092
3299.606, 0.026148
3301.535, 0.027092
3303.463, 0.027251
3305.392, 0.027606
3307.32, 0.026809
3309.249, 0.026044
3311.177, 0.026847
3313.106, 0.026966
3315.034, 0.026615
3316.963, 0.027604
3318.891, 0.027566
3320.82, 0.026983
3322.748, 0.027028
3324.677, 0.027174
3326.605, 0.027297
3328.533, 0.02741
3330.462, 0.027279
3332.39, 0.027049
3334.319, 0.02681
3336.247, 0.027266
3338.176, 0.028388
3340.104, 0.028551
3342.033, 0.027686
3343.961, 0.027488
3345.89, 0.027421
3347.818, 0.027587
3349.747, 0.02788
3351.675, 0.028382
3353.604, 0.028393
3355.532, 0.02761
3357.46, 0.027278
3359.389, 0.027641
3361.317, 0.028011
3363.246, 0.02779
3365.174, 0.027814
3367.103, 0.027745
3369.031, 0.027259
3370.96, 0.027648
3372.888, 0.028294
3374.817, 0.028565
3376.745, 0.028624
3378.674, 0.028958
3380.602, 0.029244
3382.531, 0.029083
3384.459, 0.028898
3386.387, 0.028754
3388.316, 0.028135
3390.244, 0.028543
3392.173, 0.028217
3394.101, 0.029024
3396.03, 0.029896
3397.958, 0.02872
3399.887, 0.027719
3401.815, 0.028332
3403.744, 0.028918
3405.672, 0.028542
3407.601, 0.028722
3409.529, 0.028836
3411.458, 0.028151
3413.386, 0.028823
3415.314, 0.030154
3417.243, 0.029802
3419.171, 0.028361
3421.1, 0.028137
3423.028, 0.028056
3424.957, 0.027958
3426.885, 0.029235
3428.814, 0.030385
3430.742, 0.030327
3432.671, 0.029136
3434.599, 0.028133
3436.528, 0.028146
3438.456, 0.029428
3440.385, 0.02986
3442.313, 0.029759
3444.241, 0.029738
3446.17, 0.02934
3448.098, 0.02875
3450.027, 0.028642
3451.955, 0.029382
3453.884, 0.029305
3455.812, 0.028666
3457.741, 0.028975
3459.669, 0.029379
3461.598, 0.029022
3463.526, 0.028311
3465.455, 0.028511
3467.383, 0.028229
3469.312, 0.028209
3471.24, 0.028155
3473.168, 0.028177
3475.097, 0.028229
3477.025, 0.028019
3478.954, 0.028685
3480.882, 0.029128
3482.811, 0.028287
3484.739, 0.029764
3486.668, 0.03063
3488.596, 0.029124
3490.525, 0.028801
3492.453, 0.029239
3494.382, 0.030139
3496.31, 0.030844
3498.239, 0.030058
3500.167, 0.029359
3502.095, 0.029893
3504.024, 0.030965
3505.952, 0.030824
3507.881, 0.030205
3509.809, 0.030211
3511.738, 0.030186
3513.666, 0.030111
3515.595, 0.030926
3517.523, 0.0317
3519.452, 0.031147
3521.38, 0.030057
3523.309, 0.030142
3525.237, 0.030245
3527.166, 0.029441
3529.094, 0.030246
3531.022, 0.031191
3532.951, 0.030523
3534.879, 0.029739
3536.808, 0.030124
3538.736, 0.030162
3540.665, 0.029667
3542.593, 0.030502
3544.522, 0.03108
3546.45, 0.030519
3548.379, 0.030237
3550.307, 0.029833
3552.236, 0.029188
3554.164, 0.029148
3556.093, 0.029562
3558.021, 0.02983
3559.949, 0.030021
3561.878, 0.02939
3563.806, 0.029293
3565.735, 0.029703
3567.663, 0.03049
3569.592, 0.031746
3571.52, 0.031841
3573.449, 0.03043
3575.377, 0.029844
3577.306, 0.029834
3579.234, 0.029196
3581.163, 0.028941
3583.091, 0.028868
3585.02, 0.028893
3586.948, 0.030076
3588.876, 0.029987
3590.805, 0.029903
3592.733, 0.031061
3594.662, 0.031567
3596.59, 0.030447
3598.519, 0.031356
3600.447, 0.03098
3602.376, 0.029844
3604.304, 0.029295
3606.233, 0.029447
3608.161, 0.031846
3610.09, 0.032331
3612.018, 0.031947
3613.947, 0.035111
3615.875, 0.043491
3617.803, 0.048409
3619.732, 0.041594
3621.66, 0.033703
3623.589, 0.031901
3625.517, 0.032138
3627.446, 0.031872
3629.374, 0.031093
3631.303, 0.032288
3633.231, 0.036717
3635.16, 0.0456
3637.088, 0.050142
3639.017, 0.043915
3640.945, 0.034886
3642.874, 0.029322
3644.802, 0.02734
3646.73, 0.027963
3648.659, 0.029439
3650.587, 0.031069
3652.516, 0.03217
3654.444, 0.032377
3656.373, 0.03092
3658.301, 0.029392
3660.23, 0.028549
3662.158, 0.028051
3664.087, 0.026983
3666.015, 0.027065
3667.944, 0.026455
3669.872, 0.026911
3671.801, 0.028062
3673.729, 0.028102
3675.657, 0.028502
3677.586, 0.027509
3679.514, 0.0261
3681.443, 0.026253
3683.371, 0.026337
3685.3, 0.026048
3687.228, 0.026112
3689.157, 0.026679
3691.085, 0.027667
3693.014, 0.027948
3694.942, 0.026711
3696.871, 0.026283
3698.799, 0.026399
3700.728, 0.02639
3702.656, 0.027165
3704.584, 0.02739
3706.513, 0.026921
3708.441, 0.026524
3710.37, 0.027356
3712.298, 0.028071
3714.227, 0.026733
3716.155, 0.02636
3718.084, 0.026774
3720.012, 0.026117
3721.941, 0.026677
3723.869, 0.028078
3725.798, 0.028391
3727.726, 0.027015
3729.655, 0.026223
3731.583, 0.02715
3733.511, 0.027961
3735.44, 0.028469
3737.368, 0.028388
3739.297, 0.027285
3741.225, 0.027354
3743.154, 0.028033
3745.082, 0.027324
3747.011, 0.028079
3748.939, 0.030421
3750.868, 0.030018
3752.796, 0.028961
3754.725, 0.028789
3756.653, 0.029203
3758.582, 0.029124
3760.51, 0.028742
3762.438, 0.028546
3764.367, 0.028255
3766.295, 0.028468
3768.224, 0.030129
3770.152, 0.030807
3772.081, 0.030097
3774.009, 0.029758
3775.938, 0.028997
3777.866, 0.028318
3779.795, 0.028376
3781.723, 0.02895
3783.652, 0.029169
3785.58, 0.029062
3787.509, 0.029114
3789.437, 0.028934
3791.365, 0.02797
3793.294, 0.028133
3795.222, 0.028951
3797.151, 0.028256
3799.079, 0.028466
3801.008, 0.029195
3802.936, 0.029445
3804.865, 0.030209
3806.793, 0.029028
3808.722, 0.027858
3810.65, 0.028828
3812.579, 0.029208
3814.507, 0.029271
3816.436, 0.029276
3818.364, 0.028735
3820.292, 0.030071
3822.221, 0.031083
3824.149, 0.030504
3826.078, 0.029804
3828.006, 0.028534
3829.935, 0.028161
3831.863, 0.028309
3833.792, 0.028219
3835.72, 0.029083
3837.649, 0.029994
3839.577, 0.030533
3841.506, 0.030251
3843.434, 0.029358
3845.363, 0.02922
3847.291, 0.030223
3849.219, 0.032127
3851.148, 0.032379
3853.076, 0.032665
3855.005, 0.032155
3856.933, 0.029713
3858.862, 0.028977
3860.79, 0.030016
3862.719, 0.030056
3864.647, 0.028516
3866.576, 0.028794
3868.504, 0.030001
3870.433, 0.030111
3872.361, 0.030137
3874.29, 0.030294
3876.218, 0.030661
3878.146, 0.03141
3880.075, 0.031925
3882.003, 0.031664
3883.932, 0.030996
3885.86, 0.030521
3887.789, 0.029483
3889.717, 0.030098
3891.646, 0.029836
3893.574, 0.028715
3895.503, 0.028258
3897.431, 0.029381
3899.36, 0.030595
3901.288, 0.030558
3903.217, 0.030352
3905.145, 0.030823
3907.073, 0.031547
3909.002, 0.031282
3910.93, 0.03017
3912.859, 0.029975
3914.787, 0.032081
3916.716, 0.031726
3918.644, 0.031051
3920.573, 0.031019
3922.501, 0.030569
3924.43, 0.030636
3926.358, 0.029921
3928.287, 0.029656
3930.215, 0.030983
3932.144, 0.031827
3934.072, 0.031159
3936, 0.030441
3937.929, 0.031453
3939.857, 0.032555
3941.786, 0.031862
3943.714, 0.030843
3945.643, 0.030331
3947.571, 0.031393
3949.5, 0.031418
3951.428, 0.030447
3953.357, 0.030676
3955.285, 0.030931
3957.214, 0.031147
3959.142, 0.030656
3961.071, 0.0293
3962.999, 0.030357
3964.927, 0.032781
3966.856, 0.033525
3968.784, 0.031944
3970.713, 0.031626
3972.641, 0.03107
3974.57, 0.030877
3976.498, 0.03155
3978.427, 0.030962
3980.355, 0.030891
3982.284, 0.032163
3984.212, 0.032289
3986.141, 0.031399
3988.069, 0.031921
3989.998, 0.033024
3991.926, 0.032563
3993.854, 0.031471
3995.783, 0.031159
3997.711, 0.031292
3999.64, 0.031307
##END=



