##NAMES=Hemimorphite
##RRUFFID=R040117
##IDEAL CHEMISTRY=Zn^2+^_4_Si_2_O_7_(OH)_2_&#183;H_2_O
##LOCALITY=Durango, Mexico
##OWNER=RRUFF
##SOURCE=University of Arizona Mineral Museum
##DESCRIPTION=Colorless thin tabular crystals in a sheaflike aggregate
##STATUS=The identification of this mineral has been confirmed by X-ray diffraction and chemical analysis
##URL=rruff.info/R040117
##MEASURED CHEMISTRY=Zn_4.05_Si_1.97_O_7_((OH)_0.99_F_0.01_)_2_Â·H_2_O
399.1926, 0.102086
401.1211, 0.095299
403.0496, 0.095757
404.9780, 0.096066
406.9065, 0.097305
408.8350, 0.098129
410.7634, 0.101287
412.6919, 0.105442
414.6204, 0.110564
416.5488, 0.115214
418.4773, 0.121022
420.4058, 0.131608
422.3342, 0.141587
424.2627, 0.150200
426.1912, 0.160571
428.1196, 0.167739
430.0481, 0.173589
431.9766, 0.179153
433.9050, 0.188907
435.8335, 0.197928
437.7620, 0.206915
439.6904, 0.218814
441.6189, 0.232578
443.5474, 0.246609
445.4758, 0.246809
447.4043, 0.235105
449.3328, 0.212707
451.2612, 0.183190
453.1897, 0.152184
455.1182, 0.121574
457.0466, 0.096128
458.9751, 0.078458
460.9036, 0.066600
462.8320, 0.060670
464.7605, 0.057890
466.6890, 0.055983
468.6174, 0.055421
470.5459, 0.056702
472.4744, 0.057961
474.4028, 0.058709
476.3313, 0.060569
478.2598, 0.062745
480.1882, 0.066480
482.1167, 0.070956
484.0452, 0.074495
485.9736, 0.077491
487.9021, 0.081186
489.8306, 0.085352
491.7590, 0.090637
493.6875, 0.096598
495.6160, 0.103000
497.5444, 0.109630
499.4729, 0.116399
501.4014, 0.123714
503.3298, 0.131583
505.2583, 0.139200
507.1868, 0.148237
509.1152, 0.158345
511.0437, 0.170212
512.9722, 0.182053
514.9006, 0.194640
516.8291, 0.207551
518.7576, 0.219781
520.6860, 0.232476
522.6145, 0.245246
524.5430, 0.257707
526.4714, 0.268367
528.3999, 0.277543
530.3284, 0.284278
532.2568, 0.285537
534.1853, 0.285577
536.1138, 0.284307
538.0422, 0.280126
539.9707, 0.274540
541.8992, 0.268544
543.8276, 0.264993
545.7561, 0.262675
547.6846, 0.261141
549.6130, 0.262356
551.5415, 0.265024
553.4700, 0.266912
555.3984, 0.266822
557.3269, 0.264306
559.2554, 0.257937
561.1838, 0.248623
563.1123, 0.235184
565.0408, 0.220042
566.9692, 0.205423
568.8977, 0.191543
570.8262, 0.178344
572.7546, 0.167499
574.6831, 0.159746
576.6116, 0.154123
578.5400, 0.151087
580.4685, 0.149942
582.3970, 0.151689
584.3254, 0.155788
586.2539, 0.160874
588.1824, 0.167986
590.1108, 0.176067
592.0393, 0.183029
593.9678, 0.189314
595.8962, 0.193937
597.8247, 0.195215
599.7532, 0.193512
601.6816, 0.188636
603.6101, 0.180975
605.5386, 0.170752
607.4670, 0.158082
609.3955, 0.143952
611.3240, 0.128655
613.2524, 0.113006
615.1809, 0.098111
617.1094, 0.083973
619.0378, 0.071660
620.9663, 0.061697
622.8948, 0.053707
624.8232, 0.047863
626.7517, 0.044284
628.6802, 0.041476
630.6086, 0.039305
632.5371, 0.038009
634.4656, 0.036910
636.3940, 0.036597
638.3225, 0.036626
640.2510, 0.036532
642.1794, 0.036693
644.1079, 0.037072
646.0364, 0.037232
647.9648, 0.037437
649.8933, 0.038027
651.8218, 0.038980
653.7502, 0.039866
655.6787, 0.041118
657.6072, 0.042791
659.5356, 0.045255
661.4641, 0.048696
663.3926, 0.053267
665.3210, 0.059247
667.2495, 0.067001
669.1780, 0.077025
671.1064, 0.088327
673.0349, 0.099165
674.9634, 0.107495
676.8918, 0.110271
678.8203, 0.106677
680.7488, 0.098475
682.6772, 0.087355
684.6057, 0.075905
686.5342, 0.066357
688.4626, 0.058331
690.3911, 0.052126
692.3196, 0.048026
694.2480, 0.045128
696.1765, 0.042488
698.1050, 0.040501
700.0334, 0.038914
701.9619, 0.037296
703.8904, 0.036655
705.8188, 0.036301
707.7473, 0.035632
709.6758, 0.035239
711.6042, 0.035111
713.5327, 0.034935
715.4612, 0.033880
717.3896, 0.032992
719.3181, 0.032966
721.2466, 0.032957
723.1750, 0.032585
725.1035, 0.032270
727.0320, 0.032204
728.9604, 0.032175
730.8889, 0.031773
732.8174, 0.031660
734.7458, 0.031928
736.6743, 0.032086
738.6028, 0.032150
740.5313, 0.032450
742.4597, 0.032709
744.3882, 0.032799
746.3167, 0.032688
748.2451, 0.032832
750.1736, 0.033024
752.1021, 0.033053
754.0305, 0.033300
755.9590, 0.033514
757.8875, 0.033507
759.8159, 0.033693
761.7444, 0.033930
763.6729, 0.033995
765.6013, 0.034104
767.5298, 0.034394
769.4583, 0.034637
771.3867, 0.034912
773.3152, 0.035446
775.2437, 0.035990
777.1721, 0.036272
779.1006, 0.036529
781.0291, 0.037007
782.9575, 0.037505
784.8860, 0.037948
786.8145, 0.038702
788.7429, 0.039558
790.6714, 0.040295
792.5999, 0.041322
794.5283, 0.042499
796.4568, 0.043985
798.3853, 0.045430
800.3137, 0.046684
802.2422, 0.048097
804.1707, 0.049786
806.0991, 0.051646
808.0276, 0.053485
809.9561, 0.055773
811.8845, 0.058085
813.8130, 0.060729
815.7415, 0.063323
817.6699, 0.065897
819.5984, 0.068543
821.5269, 0.071612
823.4553, 0.075207
825.3838, 0.078956
827.3123, 0.083224
829.2407, 0.088270
831.1692, 0.094300
833.0977, 0.101314
835.0261, 0.109466
836.9546, 0.118619
838.8831, 0.129088
840.8115, 0.141862
842.7400, 0.157224
844.6685, 0.175113
846.5969, 0.195647
848.5254, 0.219532
850.4539, 0.246594
852.3823, 0.275883
854.3108, 0.305952
856.2393, 0.335337
858.1677, 0.360490
860.0962, 0.374879
862.0247, 0.374397
863.9531, 0.359010
865.8816, 0.332036
867.8101, 0.298490
869.7385, 0.263024
871.6670, 0.229970
873.5955, 0.201778
875.5239, 0.179942
877.4524, 0.164476
879.3809, 0.155184
881.3093, 0.151248
883.2378, 0.151986
885.1663, 0.156543
887.0947, 0.164022
889.0232, 0.173965
890.9517, 0.186271
892.8801, 0.200291
894.8085, 0.215886
896.7370, 0.233438
898.6655, 0.253289
900.5939, 0.275290
902.5224, 0.299175
904.4509, 0.325001
906.3793, 0.352962
908.3078, 0.382352
910.2363, 0.412231
912.1647, 0.441418
914.0932, 0.469722
916.0217, 0.495492
917.9501, 0.516787
919.8786, 0.532871
921.8071, 0.542749
923.7355, 0.545396
925.6640, 0.540555
927.5925, 0.527691
929.5209, 0.506048
931.4494, 0.475514
933.3779, 0.439331
935.3063, 0.403129
937.2348, 0.370357
939.1633, 0.342293
941.0917, 0.319099
943.0202, 0.299569
944.9487, 0.282788
946.8771, 0.267216
948.8056, 0.252932
950.7341, 0.240375
952.6625, 0.228690
954.5910, 0.217693
956.5195, 0.207403
958.4479, 0.197533
960.3764, 0.188623
962.3049, 0.180021
964.2333, 0.171442
966.1618, 0.163188
968.0903, 0.154908
970.0187, 0.146837
971.9472, 0.139343
973.8757, 0.132554
975.8041, 0.125806
977.7326, 0.119302
979.6611, 0.113507
981.5895, 0.107950
983.5180, 0.102860
985.4465, 0.098163
987.3749, 0.093587
989.3034, 0.089116
991.2319, 0.085062
993.1603, 0.081111
995.0888, 0.077287
997.0173, 0.073620
998.9457, 0.070529
1000.8740, 0.068262
1002.8030, 0.066294
1004.7310, 0.064878
1006.6600, 0.064226
1008.5880, 0.063908
1010.5170, 0.064369
1012.4450, 0.065254
1014.3730, 0.066035
1016.3020, 0.066421
1018.2300, 0.066490
1020.1590, 0.066001
1022.0870, 0.065651
1024.0160, 0.065281
1025.9440, 0.064658
1027.8730, 0.063961
1029.8010, 0.063411
1031.7300, 0.062658
1033.6580, 0.061915
1035.5870, 0.060882
1037.5150, 0.059827
1039.4440, 0.058734
1041.3720, 0.057760
1043.3010, 0.057125
1045.2290, 0.056320
1047.1570, 0.055449
1049.0860, 0.054748
1051.0140, 0.054108
1052.9430, 0.053676
1054.8710, 0.053463
1056.8000, 0.053478
1058.7280, 0.054293
1060.6570, 0.055835
1062.5850, 0.058154
1064.5140, 0.061384
1066.4420, 0.065927
1068.3710, 0.072226
1070.2990, 0.080707
1072.2280, 0.091789
1074.1560, 0.105794
1076.0840, 0.123156
1078.0130, 0.142785
1079.9410, 0.162101
1081.8700, 0.177413
1083.7980, 0.185399
1085.7270, 0.185277
1087.6550, 0.178642
1089.5840, 0.166779
1091.5120, 0.151902
1093.4410, 0.136012
1095.3690, 0.120327
1097.2980, 0.105042
1099.2260, 0.091071
1101.1550, 0.078677
1103.0830, 0.067897
1105.0110, 0.058621
1106.9400, 0.050485
1108.8680, 0.043636
1110.7970, 0.038131
1112.7250, 0.033446
1114.6540, 0.029638
1116.5820, 0.026778
1118.5110, 0.024589
1120.4390, 0.022868
1122.3680, 0.021450
1124.2960, 0.020049
1126.2250, 0.018995
1128.1530, 0.018224
1130.0820, 0.017364
1132.0100, 0.016618
1133.9380, 0.016197
1135.8670, 0.015455
1137.7950, 0.014762
1139.7240, 0.014445
1141.6520, 0.014249
1143.5810, 0.014060
1145.5090, 0.013636
1147.4380, 0.013254
1149.3660, 0.012957
1151.2950, 0.012656
1153.2230, 0.012343
1155.1520, 0.012056
1157.0800, 0.011857
1159.0090, 0.011948
1160.9370, 0.011794
1162.8650, 0.011386
1164.7940, 0.011127
1166.7220, 0.010746
1168.6510, 0.010297
1170.5790, 0.009978
1172.5080, 0.009660
1174.4360, 0.009394
1176.3650, 0.009191
1178.2930, 0.009210
1180.2220, 0.008963
1182.1500, 0.008530
1184.0790, 0.008535
1186.0070, 0.008593
1187.9360, 0.008528
1189.8640, 0.008397
1191.7920, 0.008183
1193.7210, 0.008020
1195.6490, 0.007859
1197.5780, 0.007593
1199.5060, 0.007435
1201.4350, 0.007246
1203.3630, 0.007182
1205.2920, 0.007365
1207.2200, 0.007504
1209.1490, 0.007422
1211.0770, 0.007265
1213.0060, 0.007019
1214.9340, 0.006798
1216.8630, 0.006755
1218.7910, 0.006621
1220.7190, 0.006636
1222.6480, 0.006845
1224.5760, 0.006935
1226.5050, 0.007022
1228.4330, 0.006935
1230.3620, 0.006696
1232.2900, 0.006478
1234.2190, 0.006302
1236.1470, 0.006268
1238.0760, 0.006388
1240.0040, 0.006324
1241.9330, 0.006190
1243.8610, 0.006168
1245.7900, 0.006204
1247.7180, 0.006262
1249.6460, 0.005999
1251.5750, 0.005685
1253.5030, 0.005893
1255.4320, 0.006184
1257.3600, 0.006311
1259.2890, 0.006296
1261.2170, 0.006064
1263.1460, 0.005823
1265.0740, 0.005882
1267.0030, 0.005893
1268.9310, 0.005889
1270.8600, 0.005894
1272.7880, 0.005848
1274.7170, 0.005809
1276.6450, 0.005774
1278.5730, 0.005884
1280.5020, 0.005784
1282.4300, 0.005407
1284.3590, 0.005365
1286.2870, 0.005359
1288.2160, 0.005457
1290.1440, 0.005674
1292.0730, 0.005922
1294.0010, 0.005982
1295.9300, 0.005840
1297.8580, 0.005619
1299.7870, 0.005661
1301.7150, 0.005725
1303.6440, 0.005468
1305.5720, 0.005426
1307.5000, 0.005572
1309.4290, 0.005585
1311.3570, 0.005606
1313.2860, 0.005695
1315.2140, 0.005492
1317.1430, 0.005346
1319.0710, 0.005504
1321.0000, 0.005723
1322.9280, 0.005640
1324.8570, 0.005472
1326.7850, 0.005447
1328.7140, 0.005606
1330.6420, 0.005800
1332.5710, 0.005833
1334.4990, 0.005815
1336.4270, 0.005844
1338.3560, 0.005697
1340.2840, 0.005667
1342.2130, 0.005848
1344.1410, 0.005973
1346.0700, 0.005872
1347.9980, 0.005851
1349.9270, 0.006116
1351.8550, 0.006165
1353.7840, 0.006213
1355.7120, 0.006421
1357.6410, 0.006558
1359.5690, 0.006496
1361.4980, 0.006711
1363.4260, 0.006965
1365.3540, 0.007178
1367.2830, 0.006924
1369.2110, 0.006943
1371.1400, 0.007367
1373.0680, 0.007576
1374.9970, 0.007705
1376.9250, 0.007929
1378.8540, 0.007969
1380.7820, 0.008240
1382.7110, 0.008355
1384.6390, 0.008357
1386.5680, 0.008576
1388.4960, 0.008927
1390.4240, 0.009136
1392.3530, 0.009279
1394.2810, 0.009592
1396.2100, 0.009872
1398.1380, 0.010013
1400.0670, 0.010275
1401.9950, 0.010552
1403.9240, 0.010810
1405.8520, 0.011263
1407.7810, 0.011603
1409.7090, 0.011836
1411.6380, 0.012461
1413.5660, 0.013021
1415.4950, 0.013254
1417.4230, 0.013333
1419.3510, 0.013543
1421.2800, 0.013841
1423.2080, 0.014282
1425.1370, 0.014651
1427.0650, 0.014968
1428.9940, 0.015105
1430.9220, 0.015267
1432.8510, 0.015307
1434.7790, 0.015191
1436.7080, 0.015195
1438.6360, 0.015642
1440.5650, 0.015941
1442.4930, 0.016156
1444.4220, 0.016309
1446.3500, 0.016310
1448.2780, 0.016202
1450.2070, 0.016265
1452.1350, 0.016490
1454.0640, 0.016576
1455.9920, 0.016065
1457.9210, 0.016021
1459.8490, 0.016245
1461.7780, 0.016392
1463.7060, 0.016079
1465.6350, 0.015556
1467.5630, 0.015514
1469.4920, 0.015402
1471.4200, 0.015171
1473.3490, 0.015093
1475.2770, 0.015005
1477.2050, 0.014842
1479.1340, 0.014595
1481.0620, 0.014072
1482.9910, 0.013873
1484.9190, 0.013699
1486.8480, 0.013429
1488.7760, 0.013099
1490.7050, 0.012950
1492.6330, 0.012993
1494.5620, 0.012545
1496.4900, 0.012170
1498.4190, 0.011994
1500.3470, 0.011816
1502.2760, 0.011437
1504.2040, 0.010775
1506.1320, 0.010446
1508.0610, 0.010575
1509.9890, 0.010704
1511.9180, 0.010513
1513.8460, 0.010295
1515.7750, 0.010060
1517.7030, 0.009819
1519.6320, 0.009235
1521.5600, 0.008873
1523.4890, 0.009385
1525.4170, 0.009466
1527.3460, 0.009371
1529.2740, 0.009697
1531.2030, 0.009959
1533.1310, 0.009759
1535.0590, 0.009856
1536.9880, 0.009921
1538.9160, 0.009408
1540.8450, 0.009254
1542.7730, 0.009696
1544.7020, 0.009970
1546.6300, 0.010358
1548.5590, 0.010360
1550.4870, 0.010464
1552.4160, 0.010436
1554.3440, 0.010246
1556.2730, 0.009966
1558.2010, 0.009400
1560.1300, 0.009546
1562.0580, 0.010213
1563.9860, 0.010294
1565.9150, 0.010256
1567.8430, 0.010288
1569.7720, 0.010209
1571.7000, 0.010312
1573.6290, 0.010435
1575.5570, 0.010434
1577.4860, 0.010831
1579.4140, 0.011197
1581.3430, 0.011264
1583.2710, 0.011423
1585.2000, 0.011531
1587.1280, 0.011530
1589.0570, 0.011662
1590.9850, 0.011903
1592.9130, 0.011874
1594.8420, 0.011949
1596.7700, 0.012413
1598.6990, 0.012790
1600.6270, 0.012724
1602.5560, 0.012653
1604.4840, 0.013019
1606.4130, 0.013194
1608.3410, 0.013095
1610.2700, 0.013236
1612.1980, 0.013879
1614.1270, 0.014636
1616.0550, 0.015186
1617.9840, 0.016375
1619.9120, 0.017835
1621.8400, 0.019386
1623.7690, 0.021874
1625.6970, 0.025262
1627.6260, 0.030116
1629.5540, 0.036738
1631.4830, 0.043366
1633.4110, 0.047108
1635.3400, 0.046032
1637.2680, 0.040527
1639.1970, 0.033076
1641.1250, 0.026526
1643.0540, 0.021537
1644.9820, 0.017646
1646.9110, 0.015270
1648.8390, 0.013815
1650.7670, 0.012467
1652.6960, 0.010985
1654.6240, 0.010465
1656.5530, 0.010579
1658.4810, 0.010375
1660.4100, 0.009796
1662.3380, 0.009306
1664.2670, 0.009416
1666.1950, 0.009238
1668.1240, 0.008325
1670.0520, 0.007804
1671.9810, 0.007918
1673.9090, 0.007644
1675.8380, 0.007240
1677.7660, 0.007558
1679.6940, 0.007832
1681.6230, 0.007531
1683.5510, 0.006597
1685.4800, 0.006469
1687.4080, 0.007043
1689.3370, 0.006865
1691.2650, 0.006431
1693.1940, 0.006320
1695.1220, 0.005882
1697.0510, 0.005904
1698.9790, 0.005806
1700.9080, 0.005709
1702.8360, 0.006428
1704.7650, 0.006478
1706.6930, 0.006350
1708.6210, 0.006193
1710.5500, 0.006026
1712.4780, 0.006340
1714.4070, 0.006468
1716.3350, 0.005696
1718.2640, 0.005353
1720.1920, 0.005954
1722.1210, 0.006116
1724.0490, 0.005815
1725.9780, 0.005776
1727.9060, 0.005849
1729.8350, 0.005781
1731.7630, 0.005597
1733.6920, 0.005457
1735.6200, 0.006070
1737.5480, 0.006177
1739.4770, 0.006025
1741.4050, 0.006222
1743.3340, 0.006465
1745.2620, 0.006845
1747.1910, 0.006676
1749.1190, 0.006127
1751.0480, 0.006034
1752.9760, 0.006358
1754.9050, 0.006458
1756.8330, 0.006729
1758.7620, 0.006881
1760.6900, 0.006683
1762.6190, 0.006428
1764.5470, 0.006699
1766.4750, 0.007015
1768.4040, 0.007423
1770.3320, 0.007301
1772.2610, 0.006595
1774.1890, 0.006523
1776.1180, 0.006920
1778.0460, 0.006986
1779.9750, 0.006988
1781.9030, 0.007006
1783.8320, 0.007097
1785.7600, 0.007313
1787.6890, 0.007185
1789.6170, 0.007121
1791.5460, 0.006884
1793.4740, 0.006491
1795.4020, 0.006641
1797.3310, 0.006953
1799.2590, 0.006897
1801.1880, 0.006771
1803.1160, 0.006707
1805.0450, 0.006645
1806.9730, 0.006482
1808.9020, 0.006327
1810.8300, 0.006361
1812.7590, 0.006322
1814.6870, 0.006283
1816.6160, 0.006174
1818.5440, 0.006013
1820.4730, 0.006062
1822.4010, 0.006296
1824.3290, 0.006144
1826.2580, 0.006037
1828.1860, 0.005941
1830.1150, 0.005688
1832.0430, 0.005730
1833.9720, 0.005689
1835.9000, 0.005811
1837.8290, 0.005719
1839.7570, 0.005421
1841.6860, 0.005397
1843.6140, 0.005362
1845.5430, 0.005461
1847.4710, 0.006291
1849.4000, 0.006406
1851.3280, 0.005506
1853.2560, 0.005355
1855.1850, 0.005542
1857.1130, 0.005857
1859.0420, 0.006223
1860.9700, 0.005942
1862.8990, 0.005495
1864.8270, 0.005218
1866.7560, 0.005989
1868.6840, 0.006322
1870.6130, 0.006242
1872.5410, 0.006319
1874.4700, 0.006795
1876.3980, 0.006579
1878.3270, 0.006535
1880.2550, 0.006676
1882.1830, 0.006610
1884.1120, 0.006058
1886.0400, 0.005742
1887.9690, 0.006426
1889.8970, 0.006779
1891.8260, 0.006433
1893.7540, 0.006133
1895.6830, 0.006236
1897.6110, 0.006363
1899.5400, 0.006665
1901.4680, 0.006555
1903.3970, 0.006324
1905.3250, 0.006532
1907.2540, 0.006570
1909.1820, 0.006560
1911.1100, 0.006672
1913.0390, 0.006906
1914.9670, 0.006586
1916.8960, 0.005938
1918.8240, 0.005420
1920.7530, 0.006010
1922.6810, 0.006459
1924.6100, 0.006789
1926.5380, 0.006822
1928.4670, 0.006551
1930.3950, 0.005975
1932.3240, 0.005891
1934.2520, 0.005844
1936.1810, 0.005210
1938.1090, 0.005096
1940.0370, 0.005244
1941.9660, 0.005842
1943.8940, 0.007417
1945.8230, 0.007037
1947.7510, 0.005105
1949.6800, 0.004895
1951.6080, 0.004795
1953.5370, 0.005292
1955.4650, 0.006219
1957.3940, 0.006753
1959.3220, 0.006285
1961.2510, 0.006011
1963.1790, 0.007238
1965.1080, 0.005950
1967.0360, 0.004957
1968.9640, 0.005780
1970.8930, 0.006556
1972.8210, 0.005862
1974.7500, 0.005398
1976.6780, 0.007309
1978.6070, 0.008323
1980.5350, 0.008557
1982.4640, 0.008192
1984.3920, 0.008350
1986.3210, 0.007886
1988.2490, 0.007704
1990.1780, 0.007554
1992.1060, 0.007395
1994.0350, 0.007442
1995.9630, 0.007189
1997.8910, 0.007015
1999.8200, 0.006253
2001.7480, 0.006112
2003.6770, 0.007772
2005.6050, 0.007528
2007.5340, 0.005850
2009.4620, 0.004826
2011.3910, 0.005230
2013.3190, 0.006269
2015.2480, 0.005327
2017.1760, 0.006146
2019.1050, 0.008725
2021.0330, 0.007230
2022.9620, 0.005467
2024.8900, 0.005546
2026.8180, 0.005034
2028.7470, 0.005481
2030.6750, 0.006951
2032.6040, 0.005438
2034.5320, 0.004980
2036.4610, 0.007474
2038.3890, 0.008235
2040.3180, 0.008497
2042.2460, 0.007265
2044.1750, 0.007380
2046.1030, 0.008801
2048.0320, 0.010274
2049.9600, 0.011553
2051.8890, 0.009954
2053.8170, 0.008317
2055.7460, 0.008269
2057.6740, 0.009233
2059.6030, 0.010604
2061.5310, 0.009520
2063.4590, 0.007739
2065.3880, 0.007591
2067.3160, 0.008347
2069.2450, 0.008619
2071.1730, 0.007921
2073.1020, 0.007082
2075.0300, 0.008683
2076.9590, 0.009834
2078.8870, 0.009423
2080.8160, 0.008861
2082.7440, 0.009457
2084.6730, 0.009512
2086.6010, 0.009270
2088.5300, 0.008367
2090.4580, 0.006605
2092.3860, 0.006288
2094.3150, 0.006926
2096.2430, 0.008095
2098.1720, 0.008212
2100.1000, 0.008842
2102.0290, 0.008467
2103.9570, 0.007030
2105.8860, 0.006989
2107.8140, 0.007088
2109.7430, 0.007605
2111.6710, 0.008772
2113.6000, 0.009544
2115.5280, 0.009349
2117.4570, 0.007998
2119.3850, 0.006081
2121.3130, 0.005258
2123.2420, 0.005330
2125.1700, 0.005735
2127.0990, 0.005602
2129.0270, 0.006296
2130.9560, 0.005662
2132.8840, 0.005224
2134.8130, 0.005878
2136.7410, 0.007201
2138.6700, 0.008105
2140.5980, 0.006497
2142.5270, 0.005650
2144.4550, 0.006012
2146.3840, 0.005218
2148.3120, 0.002669
2150.2400, 0.001749
2152.1690, -0.000074
2154.0970, -0.001395
2156.0260, -0.001207
2157.9540, 0.001604
2159.8830, 0.006664
2161.8110, 0.005534
2163.7400, 0.002047
2165.6680, 0.003328
2167.5970, 0.004914
2169.5250, 0.004752
2171.4540, 0.004474
2173.3820, 0.003496
2175.3110, 0.001870
2177.2390, 0.002561
2179.1670, 0.002901
2181.0960, 0.002257
2183.0240, 0.003048
2184.9530, 0.003285
2186.8810, 0.003101
2188.8100, 0.005518
2190.7380, 0.008228
2192.6670, 0.006806
2194.5950, 0.005612
2196.5240, 0.006016
2198.4520, 0.007307
2200.3810, 0.007019
2202.3090, 0.005822
2204.2380, 0.005532
2206.1660, 0.006968
2208.0940, 0.009477
2210.0230, 0.008359
2211.9510, 0.006009
2213.8800, 0.006371
2215.8080, 0.007879
2217.7370, 0.009649
2219.6650, 0.009543
2221.5940, 0.007451
2223.5220, 0.007499
2225.4510, 0.008725
2227.3790, 0.009340
2229.3080, 0.009318
2231.2360, 0.009179
2233.1650, 0.008418
2235.0930, 0.008370
2237.0210, 0.009562
2238.9500, 0.009456
2240.8780, 0.008232
2242.8070, 0.008415
2244.7350, 0.008336
2246.6640, 0.007577
2248.5920, 0.008543
2250.5210, 0.008595
2252.4490, 0.008034
2254.3780, 0.009545
2256.3060, 0.010307
2258.2350, 0.009477
2260.1630, 0.009545
2262.0920, 0.010326
2264.0200, 0.010481
2265.9480, 0.009523
2267.8770, 0.009371
2269.8050, 0.009765
2271.7340, 0.009323
2273.6620, 0.009808
2275.5910, 0.011110
2277.5190, 0.011269
2279.4480, 0.011026
2281.3760, 0.010832
2283.3050, 0.011276
2285.2330, 0.011358
2287.1620, 0.011120
2289.0900, 0.011370
2291.0190, 0.011257
2292.9470, 0.010429
2294.8750, 0.010472
2296.8040, 0.010669
2298.7320, 0.010308
2300.6610, 0.010555
2302.5890, 0.011204
2304.5180, 0.010742
2306.4460, 0.010168
2308.3750, 0.010246
2310.3030, 0.010310
2312.2320, 0.010110
2314.1600, 0.009571
2316.0890, 0.009169
2318.0170, 0.009752
2319.9460, 0.010730
2321.8740, 0.011392
2323.8020, 0.010986
2325.7310, 0.009807
2327.6590, 0.009164
2329.5880, 0.008685
2331.5160, 0.007824
2333.4450, 0.007865
2335.3730, 0.008701
2337.3020, 0.008665
2339.2300, 0.008059
2341.1590, 0.007833
2343.0870, 0.008195
2345.0160, 0.008371
2346.9440, 0.008570
2348.8730, 0.008607
2350.8010, 0.008355
2352.7290, 0.008323
2354.6580, 0.007940
2356.5860, 0.007882
2358.5150, 0.007655
2360.4430, 0.007270
2362.3720, 0.007175
2364.3000, 0.007275
2366.2290, 0.007427
2368.1570, 0.007436
2370.0860, 0.007521
2372.0140, 0.008294
2373.9420, 0.009146
2375.8710, 0.009296
2377.7990, 0.009756
2379.7280, 0.009869
2381.6560, 0.009802
2383.5850, 0.009990
2385.5130, 0.009692
2387.4420, 0.009330
2389.3700, 0.008919
2391.2990, 0.009233
2393.2270, 0.009993
2395.1560, 0.010204
2397.0840, 0.010236
2399.0120, 0.010732
2400.9410, 0.010660
2402.8690, 0.009449
2404.7980, 0.009434
2406.7260, 0.009937
2408.6550, 0.009700
2410.5830, 0.009604
2412.5120, 0.008927
2414.4400, 0.009197
2416.3690, 0.010332
2418.2970, 0.010263
2420.2260, 0.010128
2422.1540, 0.010161
2424.0830, 0.009903
2426.0110, 0.010798
2427.9390, 0.011005
2429.8680, 0.011039
2431.7960, 0.010686
2433.7250, 0.009712
2435.6530, 0.009611
2437.5820, 0.010490
2439.5100, 0.010956
2441.4390, 0.010215
2443.3670, 0.010007
2445.2960, 0.009840
2447.2240, 0.009554
2449.1530, 0.010278
2451.0810, 0.011354
2453.0100, 0.012114
2454.9380, 0.011420
2456.8660, 0.010089
2458.7950, 0.010106
2460.7230, 0.010550
2462.6520, 0.010595
2464.5800, 0.010723
2466.5090, 0.010550
2468.4370, 0.010042
2470.3660, 0.010478
2472.2940, 0.010335
2474.2230, 0.009713
2476.1510, 0.009115
2478.0800, 0.009374
2480.0080, 0.010089
2481.9370, 0.010065
2483.8650, 0.010649
2485.7930, 0.010540
2487.7220, 0.009904
2489.6500, 0.010961
2491.5790, 0.011484
2493.5070, 0.011076
2495.4360, 0.010277
2497.3640, 0.009563
2499.2930, 0.010771
2501.2210, 0.012324
2503.1500, 0.011914
2505.0780, 0.011122
2507.0070, 0.010296
2508.9350, 0.009705
2510.8640, 0.010452
2512.7920, 0.011152
2514.7200, 0.011252
2516.6490, 0.010509
2518.5770, 0.010351
2520.5060, 0.011153
2522.4340, 0.011415
2524.3630, 0.010710
2526.2910, 0.009980
2528.2200, 0.010356
2530.1480, 0.010958
2532.0770, 0.011496
2534.0050, 0.011652
2535.9340, 0.010334
2537.8620, 0.009834
2539.7910, 0.011429
2541.7190, 0.011287
2543.6470, 0.010532
2545.5760, 0.011333
2547.5040, 0.011508
2549.4330, 0.011458
2551.3610, 0.010020
2553.2900, 0.009835
2555.2180, 0.010924
2557.1470, 0.011572
2559.0750, 0.012254
2561.0040, 0.012274
2562.9320, 0.011083
2564.8610, 0.010821
2566.7890, 0.011492
2568.7180, 0.011655
2570.6460, 0.011233
2572.5740, 0.011424
2574.5030, 0.011638
2576.4310, 0.010817
2578.3600, 0.010401
2580.2880, 0.010998
2582.2170, 0.011180
2584.1450, 0.011210
2586.0740, 0.011705
2588.0020, 0.012082
2589.9310, 0.012305
2591.8590, 0.012463
2593.7880, 0.012874
2595.7160, 0.012441
2597.6450, 0.012275
2599.5730, 0.012320
2601.5010, 0.011830
2603.4300, 0.011409
2605.3580, 0.011678
2607.2870, 0.012649
2609.2150, 0.013012
2611.1440, 0.012505
2613.0720, 0.011814
2615.0010, 0.012170
2616.9290, 0.012665
2618.8580, 0.012572
2620.7860, 0.012173
2622.7150, 0.012487
2624.6430, 0.012132
2626.5720, 0.011846
2628.5000, 0.012039
2630.4280, 0.012084
2632.3570, 0.012268
2634.2850, 0.012456
2636.2140, 0.012767
2638.1420, 0.013068
2640.0710, 0.012694
2641.9990, 0.012268
2643.9280, 0.012905
2645.8560, 0.013101
2647.7850, 0.012844
2649.7130, 0.013223
2651.6420, 0.012988
2653.5700, 0.012550
2655.4990, 0.013099
2657.4270, 0.013357
2659.3550, 0.013094
2661.2840, 0.013048
2663.2120, 0.012830
2665.1410, 0.012552
2667.0690, 0.012597
2668.9980, 0.012655
2670.9260, 0.012353
2672.8550, 0.011968
2674.7830, 0.012161
2676.7120, 0.012536
2678.6400, 0.012467
2680.5690, 0.012694
2682.4970, 0.012707
2684.4260, 0.012480
2686.3540, 0.012106
2688.2820, 0.012137
2690.2110, 0.012537
2692.1390, 0.012727
2694.0680, 0.012753
2695.9960, 0.013115
2697.9250, 0.013436
2699.8530, 0.013089
2701.7820, 0.012285
2703.7100, 0.012026
2705.6390, 0.012655
2707.5670, 0.012711
2709.4960, 0.012548
2711.4240, 0.013059
2713.3530, 0.013109
2715.2810, 0.013030
2717.2090, 0.013027
2719.1380, 0.013349
2721.0660, 0.013469
2722.9950, 0.013577
2724.9230, 0.013819
2726.8520, 0.013749
2728.7800, 0.013579
2730.7090, 0.013842
2732.6370, 0.014197
2734.5660, 0.014023
2736.4940, 0.013658
2738.4230, 0.013975
2740.3510, 0.013992
2742.2800, 0.013768
2744.2080, 0.013718
2746.1360, 0.013235
2748.0650, 0.013017
2749.9930, 0.013681
2751.9220, 0.014338
2753.8500, 0.014360
2755.7790, 0.013875
2757.7070, 0.013895
2759.6360, 0.013859
2761.5640, 0.013606
2763.4930, 0.013253
2765.4210, 0.013509
2767.3500, 0.013927
2769.2780, 0.013654
2771.2070, 0.013664
2773.1350, 0.014244
2775.0630, 0.014631
2776.9920, 0.014375
2778.9200, 0.014347
2780.8490, 0.014496
2782.7770, 0.014347
2784.7060, 0.014118
2786.6340, 0.014157
2788.5630, 0.014249
2790.4910, 0.013927
2792.4200, 0.014113
2794.3480, 0.014393
2796.2770, 0.014253
2798.2050, 0.014375
2800.1340, 0.014550
2802.0620, 0.014465
2803.9900, 0.014303
2805.9190, 0.013909
2807.8470, 0.013943
2809.7760, 0.014181
2811.7040, 0.014817
2813.6330, 0.015065
2815.5610, 0.014949
2817.4900, 0.014694
2819.4180, 0.015125
2821.3470, 0.015266
2823.2750, 0.015076
2825.2040, 0.014622
2827.1320, 0.014681
2829.0610, 0.014447
2830.9890, 0.014207
2832.9170, 0.014714
2834.8460, 0.015673
2836.7740, 0.015790
2838.7030, 0.015676
2840.6310, 0.016377
2842.5600, 0.016355
2844.4880, 0.015656
2846.4170, 0.014845
2848.3450, 0.015261
2850.2740, 0.015921
2852.2020, 0.015643
2854.1310, 0.015899
2856.0590, 0.016691
2857.9880, 0.016326
2859.9160, 0.015536
2861.8440, 0.016014
2863.7730, 0.016703
2865.7010, 0.017035
2867.6300, 0.017408
2869.5580, 0.017064
2871.4870, 0.016010
2873.4150, 0.015907
2875.3440, 0.016404
2877.2720, 0.016394
2879.2010, 0.016592
2881.1290, 0.016250
2883.0580, 0.015732
2884.9860, 0.016363
2886.9150, 0.016541
2888.8430, 0.016003
2890.7710, 0.016094
2892.7000, 0.016536
2894.6280, 0.016516
2896.5570, 0.016863
2898.4850, 0.017787
2900.4140, 0.017798
2902.3420, 0.016816
2904.2710, 0.016593
2906.1990, 0.017569
2908.1280, 0.017975
2910.0560, 0.017739
2911.9850, 0.017535
2913.9130, 0.017553
2915.8420, 0.018199
2917.7700, 0.018309
2919.6980, 0.017593
2921.6270, 0.017243
2923.5550, 0.017595
2925.4840, 0.017006
2927.4120, 0.016490
2929.3410, 0.017060
2931.2690, 0.018259
2933.1980, 0.018344
2935.1260, 0.017213
2937.0550, 0.017172
2938.9830, 0.017641
2940.9120, 0.017505
2942.8400, 0.017142
2944.7690, 0.017074
2946.6970, 0.016976
2948.6250, 0.017244
2950.5540, 0.017456
2952.4820, 0.017540
2954.4110, 0.017904
2956.3390, 0.019423
2958.2680, 0.020280
2960.1960, 0.019412
2962.1250, 0.018510
2964.0530, 0.017919
2965.9820, 0.017830
2967.9100, 0.018081
2969.8390, 0.017998
2971.7670, 0.018145
2973.6960, 0.018687
2975.6240, 0.019054
2977.5520, 0.018936
2979.4810, 0.018680
2981.4090, 0.018656
2983.3380, 0.018313
2985.2660, 0.018623
2987.1950, 0.018867
2989.1230, 0.018878
2991.0520, 0.019170
2992.9800, 0.019076
2994.9090, 0.018969
2996.8370, 0.019203
2998.7660, 0.019642
3000.6940, 0.020033
3002.6230, 0.020080
3004.5510, 0.019851
3006.4790, 0.019122
3008.4080, 0.018984
3010.3360, 0.019281
3012.2650, 0.019448
3014.1930, 0.018884
3016.1220, 0.018644
3018.0500, 0.019056
3019.9790, 0.019358
3021.9070, 0.018795
3023.8360, 0.019607
3025.7640, 0.020222
3027.6930, 0.019707
3029.6210, 0.019832
3031.5500, 0.020789
3033.4780, 0.020215
3035.4060, 0.019190
3037.3350, 0.019010
3039.2630, 0.019392
3041.1920, 0.019355
3043.1200, 0.020133
3045.0490, 0.019268
3046.9770, 0.018815
3048.9060, 0.020625
3050.8340, 0.021634
3052.7630, 0.021507
3054.6910, 0.021425
3056.6200, 0.020868
3058.5480, 0.020898
3060.4770, 0.021284
3062.4050, 0.021467
3064.3330, 0.022299
3066.2620, 0.022276
3068.1900, 0.021054
3070.1190, 0.020277
3072.0470, 0.020193
3073.9760, 0.020988
3075.9040, 0.021175
3077.8330, 0.021454
3079.7610, 0.021357
3081.6900, 0.020866
3083.6180, 0.021225
3085.5470, 0.021572
3087.4750, 0.021077
3089.4040, 0.021586
3091.3320, 0.021566
3093.2600, 0.021663
3095.1890, 0.021984
3097.1170, 0.022410
3099.0460, 0.023167
3100.9740, 0.023822
3102.9030, 0.023359
3104.8310, 0.023146
3106.7600, 0.023059
3108.6880, 0.023520
3110.6170, 0.023601
3112.5450, 0.023820
3114.4740, 0.023937
3116.4020, 0.023880
3118.3310, 0.023661
3120.2590, 0.022625
3122.1880, 0.022228
3124.1160, 0.023070
3126.0440, 0.023397
3127.9730, 0.024142
3129.9010, 0.023949
3131.8300, 0.023244
3133.7580, 0.023414
3135.6870, 0.023697
3137.6150, 0.023817
3139.5440, 0.024999
3141.4720, 0.025490
3143.4010, 0.025175
3145.3290, 0.024842
3147.2580, 0.024477
3149.1860, 0.024319
3151.1150, 0.024596
3153.0430, 0.025059
3154.9710, 0.025427
3156.9000, 0.025289
3158.8280, 0.025258
3160.7570, 0.026599
3162.6850, 0.027287
3164.6140, 0.026837
3166.5420, 0.026532
3168.4710, 0.027067
3170.3990, 0.027585
3172.3280, 0.027333
3174.2560, 0.027044
3176.1850, 0.026749
3178.1130, 0.026638
3180.0420, 0.026936
3181.9700, 0.027622
3183.8980, 0.027710
3185.8270, 0.027309
3187.7550, 0.027699
3189.6840, 0.027938
3191.6120, 0.028880
3193.5410, 0.029571
3195.4690, 0.028871
3197.3980, 0.027950
3199.3260, 0.027231
3201.2550, 0.028075
3203.1830, 0.029382
3205.1120, 0.030135
3207.0400, 0.030094
3208.9690, 0.029673
3210.8970, 0.029849
3212.8250, 0.031827
3214.7540, 0.033174
3216.6820, 0.032788
3218.6110, 0.032890
3220.5390, 0.033235
3222.4680, 0.032562
3224.3960, 0.031695
3226.3250, 0.031869
3228.2530, 0.033624
3230.1820, 0.034924
3232.1100, 0.034502
3234.0390, 0.034605
3235.9670, 0.034793
3237.8960, 0.033561
3239.8240, 0.033426
3241.7520, 0.034240
3243.6810, 0.034775
3245.6090, 0.035082
3247.5380, 0.033273
3249.4660, 0.031884
3251.3950, 0.031917
3253.3230, 0.032310
3255.2520, 0.031898
3257.1800, 0.032282
3259.1090, 0.034292
3261.0370, 0.034478
3262.9660, 0.033537
3264.8940, 0.033246
3266.8230, 0.034111
3268.7510, 0.033974
3270.6790, 0.032787
3272.6080, 0.033102
3274.5360, 0.033322
3276.4650, 0.033659
3278.3930, 0.034313
3280.3220, 0.034653
3282.2500, 0.036380
3284.1790, 0.036460
3286.1070, 0.036327
3288.0360, 0.037118
3289.9640, 0.037090
3291.8930, 0.036621
3293.8210, 0.038205
3295.7500, 0.039310
3297.6780, 0.038413
3299.6060, 0.038060
3301.5350, 0.038432
3303.4630, 0.038487
3305.3920, 0.038234
3307.3200, 0.039003
3309.2490, 0.039875
3311.1770, 0.039045
3313.1060, 0.039162
3315.0340, 0.040061
3316.9630, 0.040609
3318.8910, 0.040931
3320.8200, 0.040614
3322.7480, 0.041680
3324.6770, 0.042247
3326.6050, 0.041066
3328.5330, 0.041318
3330.4620, 0.042239
3332.3900, 0.042846
3334.3190, 0.043734
3336.2470, 0.043358
3338.1760, 0.042892
3340.1040, 0.043554
3342.0330, 0.044214
3343.9610, 0.044922
3345.8900, 0.044337
3347.8180, 0.044270
3349.7470, 0.045400
3351.6750, 0.044977
3353.6040, 0.044533
3355.5320, 0.045007
3357.4600, 0.045153
3359.3890, 0.045344
3361.3170, 0.047044
3363.2460, 0.047302
3365.1740, 0.047058
3367.1030, 0.047217
3369.0310, 0.046886
3370.9600, 0.047110
3372.8880, 0.047564
3374.8170, 0.046557
3376.7450, 0.046989
3378.6740, 0.048744
3380.6020, 0.049470
3382.5310, 0.048783
3384.4590, 0.048941
3386.3870, 0.049829
3388.3160, 0.051464
3390.2440, 0.052081
3392.1730, 0.051359
3394.1010, 0.052045
3396.0300, 0.052889
3397.9580, 0.052330
3399.8870, 0.052839
3401.8150, 0.052894
3403.7440, 0.052069
3405.6720, 0.053851
3407.6010, 0.055120
3409.5290, 0.054057
3411.4580, 0.054763
3413.3860, 0.056496
3415.3140, 0.057222
3417.2430, 0.057320
3419.1710, 0.057248
3421.1000, 0.055673
3423.0280, 0.055481
3424.9570, 0.056056
3426.8850, 0.055319
3428.8140, 0.056444
3430.7420, 0.058774
3432.6710, 0.058577
3434.5990, 0.058515
3436.5280, 0.058154
3438.4560, 0.057926
3440.3850, 0.058072
3442.3130, 0.059136
3444.2410, 0.060256
3446.1700, 0.059938
3448.0980, 0.058222
3450.0270, 0.057635
3451.9550, 0.058108
3453.8840, 0.058226
3455.8120, 0.058195
3457.7410, 0.057808
3459.6690, 0.058486
3461.5980, 0.057576
3463.5260, 0.055352
3465.4550, 0.056985
3467.3830, 0.058715
3469.3120, 0.058487
3471.2400, 0.058098
3473.1680, 0.058341
3475.0970, 0.058202
3477.0250, 0.056983
3478.9540, 0.057653
3480.8820, 0.057548
3482.8110, 0.056943
3484.7390, 0.057147
3486.6680, 0.056869
3488.5960, 0.056621
3490.5250, 0.056588
3492.4530, 0.054085
3494.3820, 0.052453
3496.3100, 0.052803
3498.2390, 0.052326
3500.1670, 0.052549
3502.0950, 0.053383
3504.0240, 0.053483
3505.9520, 0.052803
3507.8810, 0.052995
3509.8090, 0.052909
3511.7380, 0.052052
3513.6660, 0.051499
3515.5950, 0.050095
3517.5230, 0.049969
3519.4520, 0.051330
3521.3800, 0.050949
3523.3090, 0.048998
3525.2370, 0.049902
3527.1660, 0.050986
3529.0940, 0.050723
3531.0220, 0.049685
3532.9510, 0.048519
3534.8790, 0.048340
3536.8080, 0.048185
3538.7360, 0.047968
3540.6650, 0.047531
3542.5930, 0.045804
3544.5220, 0.045521
3546.4500, 0.045173
3548.3790, 0.044613
3550.3070, 0.044776
3552.2360, 0.044686
3554.1640, 0.044207
3556.0930, 0.044240
3558.0210, 0.044137
3559.9490, 0.044015
3561.8780, 0.043679
3563.8060, 0.042026
3565.7350, 0.042069
3567.6630, 0.042017
3569.5920, 0.041525
3571.5200, 0.042451
3573.4490, 0.042981
3575.3770, 0.042131
3577.3060, 0.041266
3579.2340, 0.040541
3581.1630, 0.041014
3583.0910, 0.040014
3585.0200, 0.039447
3586.9480, 0.039230
3588.8760, 0.039653
3590.8050, 0.039410
3592.7330, 0.038553
3594.6620, 0.038535
3596.5900, 0.037665
3598.5190, 0.036416
3600.4470, 0.037628
3602.3760, 0.038435
3604.3040, 0.037719
3606.2330, 0.036490
3608.1610, 0.034312
3610.0900, 0.034875
3612.0180, 0.035200
3613.9470, 0.033407
3615.8750, 0.032995
3617.8030, 0.031950
3619.7320, 0.031905
3621.6600, 0.031206
3623.5890, 0.029639
3625.5170, 0.028553
3627.4460, 0.028341
3629.3740, 0.029147
3631.3030, 0.029367
3633.2310, 0.027265
3635.1600, 0.025828
3637.0880, 0.026191
3639.0170, 0.025007
3640.9450, 0.023789
3642.8740, 0.023577
3644.8020, 0.023120
3646.7300, 0.021478
3648.6590, 0.020501
3650.5870, 0.020417
3652.5160, 0.020954
3654.4440, 0.020596
3656.3730, 0.020807
3658.3010, 0.020919
3660.2300, 0.019662
3662.1580, 0.018447
3664.0870, 0.017879
3666.0150, 0.018218
3667.9440, 0.019013
3669.8720, 0.017418
3671.8010, 0.017321
3673.7290, 0.018693
3675.6570, 0.018048
3677.5860, 0.017835
3679.5140, 0.018430
3681.4430, 0.019688
3683.3710, 0.020484
3685.3000, 0.019214
3687.2280, 0.017831
3689.1570, 0.017580
3691.0850, 0.017111
3693.0140, 0.017890
3694.9420, 0.018322
3696.8710, 0.016142
3698.7990, 0.015525
3700.7280, 0.015422
3702.6560, 0.014589
3704.5840, 0.015416
3706.5130, 0.017554
3708.4410, 0.016302
3710.3700, 0.015639
3712.2980, 0.014450
3714.2270, 0.014375
3716.1550, 0.015994
3718.0840, 0.015972
3720.0120, 0.016504
3721.9410, 0.015956
3723.8690, 0.016206
3725.7980, 0.016259
3727.7260, 0.015647
3729.6550, 0.015782
3731.5830, 0.016293
3733.5110, 0.016797
3735.4400, 0.016926
3737.3680, 0.017887
3739.2970, 0.018782
3741.2250, 0.018292
3743.1540, 0.017663
3745.0820, 0.016396
3747.0110, 0.016976
3748.9390, 0.016628
3750.8680, 0.015079
3752.7960, 0.014605
3754.7250, 0.015190
3756.6530, 0.016813
3758.5820, 0.018302
3760.5100, 0.018188
3762.4380, 0.016931
3764.3670, 0.016516
3766.2950, 0.015479
3768.2240, 0.015176
3770.1520, 0.015510
3772.0810, 0.015809
3774.0090, 0.015957
3775.9380, 0.015929
3777.8660, 0.015353
3779.7950, 0.015264
3781.7230, 0.015996
3783.6520, 0.015193
3785.5800, 0.015247
3787.5090, 0.016651
3789.4370, 0.016639
3791.3650, 0.015769
3793.2940, 0.014656
3795.2220, 0.016319
3797.1510, 0.017868
3799.0790, 0.016858
3801.0080, 0.015682
3802.9360, 0.017601
3804.8650, 0.018697
3806.7930, 0.017434
3808.7220, 0.016838
3810.6500, 0.015451
3812.5790, 0.015434
3814.5070, 0.016722
3816.4360, 0.017915
3818.3640, 0.017972
3820.2920, 0.017392
3822.2210, 0.015707
3824.1490, 0.015000
3826.0780, 0.016888
3828.0060, 0.017914
3829.9350, 0.015849
3831.8630, 0.015155
3833.7920, 0.016029
3835.7200, 0.014726
3837.6490, 0.015043
3839.5770, 0.015547
3841.5060, 0.016429
3843.4340, 0.017794
3845.3630, 0.018122
3847.2910, 0.017465
3849.2190, 0.017238
3851.1480, 0.016213
3853.0760, 0.014776
3855.0050, 0.015122
3856.9330, 0.014791
3858.8620, 0.014563
3860.7900, 0.016071
3862.7190, 0.017785
3864.6470, 0.019640
3866.5760, 0.018607
3868.5040, 0.015467
3870.4330, 0.016964
3872.3610, 0.016646
3874.2900, 0.015067
3876.2180, 0.017547
3878.1460, 0.016544
3880.0750, 0.014887
3882.0030, 0.016206
3883.9320, 0.018700
3885.8600, 0.018901
3887.7890, 0.017981
3889.7170, 0.016868
3891.6460, 0.018032
3893.5740, 0.019909
3895.5030, 0.018496
3897.4310, 0.016727
3899.3600, 0.016480
3901.2880, 0.015551
3903.2170, 0.015910
3905.1450, 0.018512
3907.0730, 0.018591
3909.0020, 0.017591
3910.9300, 0.017480
3912.8590, 0.018445
3914.7870, 0.017709
3916.7160, 0.015356
3918.6440, 0.016237
3920.5730, 0.017089
3922.5010, 0.015795
3924.4300, 0.015955
3926.3580, 0.016466
3928.2870, 0.017428
3930.2150, 0.016586
3932.1440, 0.015190
3934.0720, 0.016962
3936.0000, 0.018982
3937.9290, 0.018980
3939.8570, 0.019050
3941.7860, 0.016779
3943.7140, 0.015191
3945.6430, 0.015640
3947.5710, 0.014820
3949.5000, 0.014378
3951.4280, 0.016162
3953.3570, 0.017170
3955.2850, 0.015965
3957.2140, 0.016340
3959.1420, 0.017153
3961.0710, 0.017689
3962.9990, 0.016666
3964.9270, 0.016901
3966.8560, 0.017479
3968.7840, 0.016650
3970.7130, 0.016164
3972.6410, 0.016504
3974.5700, 0.018147
3976.4980, 0.018731
3978.4270, 0.019040
3980.3550, 0.018797
3982.2840, 0.016375
3984.2120, 0.015999
3986.1410, 0.016495
3988.0690, 0.018052
3989.9980, 0.017712
3991.9260, 0.017583
3993.8540, 0.016849
3995.7830, 0.018399
3997.7110, 0.019692
3999.6400, 0.019701
##END=



