##NAMES=Meionite
##RRUFFID=R040169
##IDEAL CHEMISTRY=Ca_4_Al_6_Si_6_O_24_(CO_3_)
##LOCALITY=Black Hills, South Dakota, USA
##OWNER=RRUFF
##SOURCE=University of Arizona Mineral Museum
##DESCRIPTION=White massive
##STATUS=The identification of this mineral has been confirmed by X-ray diffraction and chemical analysis
##URL=rruff.info/R040169
##MEASURED CHEMISTRY=(Ca_0.73_Na_0.24_K_0.03_)_4_(Si_0.58_Al_0.41_)_12_O_24_((CO_3_)_0.90_Cl_0.10_)
399.1926, 0.153372
401.1211, 0.146929
403.0496, 0.147636
404.978, 0.152388
406.9065, 0.153633
408.835, 0.152371
410.7634, 0.154438
412.6919, 0.154324
414.6204, 0.15436
416.5488, 0.151304
418.4773, 0.145999
420.4058, 0.142868
422.3342, 0.141384
424.2627, 0.140747
426.1912, 0.141068
428.1196, 0.13985
430.0481, 0.139241
431.9766, 0.137847
433.905, 0.137031
435.8335, 0.138258
437.762, 0.138728
439.6904, 0.138743
441.6189, 0.143352
443.5474, 0.149894
445.4758, 0.156328
447.4043, 0.162805
449.3328, 0.168761
451.2612, 0.172952
453.1897, 0.175035
455.1182, 0.174301
457.0466, 0.171047
458.9751, 0.166262
460.9036, 0.160469
462.832, 0.153584
464.7605, 0.144604
466.689, 0.134767
468.6174, 0.125064
470.5459, 0.115425
472.4744, 0.106816
474.4028, 0.097995
476.3313, 0.088503
478.2598, 0.079893
480.1882, 0.072442
482.1167, 0.066414
484.0452, 0.061917
485.9736, 0.059293
487.9021, 0.056631
489.8306, 0.054832
491.759, 0.054733
493.6875, 0.053856
495.616, 0.05339
497.5444, 0.053603
499.4729, 0.053302
501.4014, 0.052486
503.3298, 0.052096
505.2583, 0.052491
507.1868, 0.053533
509.1152, 0.05557
511.0437, 0.058495
512.9722, 0.061949
514.9006, 0.06705
516.8291, 0.072826
518.7576, 0.078364
520.686, 0.085126
522.6145, 0.092924
524.543, 0.101313
526.4714, 0.109808
528.3999, 0.117817
530.3284, 0.125666
532.2568, 0.133005
534.1853, 0.140062
536.1138, 0.146019
538.0422, 0.150392
539.9707, 0.151174
541.8992, 0.148719
543.8276, 0.14488
545.7561, 0.139838
547.6846, 0.132141
549.613, 0.122938
551.5415, 0.11258
553.47, 0.102725
555.3984, 0.093668
557.3269, 0.084809
559.2554, 0.076569
561.1838, 0.070143
563.1123, 0.065993
565.0408, 0.063211
566.9692, 0.061193
568.8977, 0.059926
570.8262, 0.059193
572.7546, 0.059069
574.6831, 0.058579
576.6116, 0.057376
578.54, 0.056048
580.4685, 0.055301
582.397, 0.055184
584.3254, 0.055474
586.2539, 0.056514
588.1824, 0.058549
590.1108, 0.062216
592.0393, 0.067667
593.9678, 0.074525
595.8962, 0.082296
597.8247, 0.091025
599.7532, 0.100308
601.6816, 0.108384
603.6101, 0.115158
605.5386, 0.119393
607.467, 0.120033
609.3955, 0.117284
611.324, 0.110868
613.2524, 0.10196
615.1809, 0.091789
617.1094, 0.081723
619.0378, 0.07225
620.9663, 0.06318
622.8948, 0.05548
624.8232, 0.049851
626.7517, 0.045602
628.6802, 0.04243
630.6086, 0.040108
632.5371, 0.038347
634.4656, 0.036786
636.394, 0.035557
638.3225, 0.034875
640.251, 0.033948
642.1794, 0.032725
644.1079, 0.032201
646.0364, 0.031544
647.9648, 0.030805
649.8933, 0.030346
651.8218, 0.030117
653.7502, 0.030146
655.6787, 0.030417
657.6072, 0.030963
659.5356, 0.03172
661.4641, 0.032738
663.3926, 0.033854
665.321, 0.035002
667.2495, 0.036681
669.178, 0.03856
671.1064, 0.040498
673.0349, 0.042726
674.9634, 0.045325
676.8918, 0.047532
678.8203, 0.04938
680.7488, 0.051143
682.6772, 0.052938
684.6057, 0.054786
686.5342, 0.056341
688.4626, 0.057775
690.3911, 0.059351
692.3196, 0.060337
694.248, 0.060591
696.1765, 0.060469
698.105, 0.059553
700.0334, 0.057435
701.9619, 0.05537
703.8904, 0.053525
705.8188, 0.051595
707.7473, 0.049837
709.6758, 0.048481
711.6042, 0.047529
713.5327, 0.046514
715.4612, 0.045313
717.3896, 0.044168
719.3181, 0.043798
721.2466, 0.04395
723.175, 0.044071
725.1035, 0.044035
727.032, 0.044294
728.9604, 0.044679
730.8889, 0.045032
732.8174, 0.045555
734.7458, 0.045959
736.6743, 0.045809
738.6028, 0.045254
740.5313, 0.044335
742.4597, 0.043118
744.3882, 0.041634
746.3167, 0.039765
748.2451, 0.037665
750.1736, 0.035539
752.1021, 0.033813
754.0305, 0.032255
755.959, 0.030641
757.8875, 0.029196
759.8159, 0.028333
761.7444, 0.027972
763.6729, 0.027557
765.6013, 0.027469
767.5298, 0.027515
769.4583, 0.027293
771.3867, 0.026819
773.3152, 0.026014
775.2437, 0.025221
777.1721, 0.024489
779.1006, 0.023761
781.0291, 0.023322
782.9575, 0.023127
784.886, 0.022915
786.8145, 0.022768
788.7429, 0.022864
790.6714, 0.022968
792.5999, 0.023183
794.5283, 0.023508
796.4568, 0.023767
798.3853, 0.024368
800.3137, 0.02508
802.2422, 0.025587
804.1707, 0.026033
806.0991, 0.026494
808.0276, 0.02705
809.9561, 0.027695
811.8845, 0.028445
813.813, 0.029353
815.7415, 0.030179
817.6699, 0.03109
819.5984, 0.032057
821.5269, 0.033197
823.4553, 0.034403
825.3838, 0.035451
827.3123, 0.036834
829.2407, 0.038568
831.1692, 0.040377
833.0977, 0.042572
835.0261, 0.044885
836.9546, 0.047332
838.8831, 0.050378
840.8115, 0.053747
842.74, 0.05731
844.6685, 0.061555
846.5969, 0.066815
848.5254, 0.073011
850.4539, 0.077675
852.3823, 0.077919
854.3108, 0.076182
856.2393, 0.077377
858.1677, 0.080323
860.0962, 0.083251
862.0247, 0.085836
863.9531, 0.08769
865.8816, 0.089416
867.8101, 0.091486
869.7385, 0.093745
871.667, 0.095972
873.5955, 0.097407
875.5239, 0.097731
877.4524, 0.096991
879.3809, 0.095348
881.3093, 0.093519
883.2378, 0.09252
885.1663, 0.092176
887.0947, 0.092817
889.0232, 0.095156
890.9517, 0.098715
892.8801, 0.102781
894.8085, 0.10663
896.737, 0.110664
898.6655, 0.114683
900.5939, 0.118081
902.5224, 0.12169
904.4509, 0.125335
906.3793, 0.128421
908.3078, 0.130978
910.2363, 0.133647
912.1647, 0.136333
914.0932, 0.138801
916.0217, 0.141204
917.9501, 0.143763
919.8786, 0.146787
921.8071, 0.149839
923.7355, 0.152656
925.664, 0.155774
927.5925, 0.158974
929.5209, 0.162007
931.4494, 0.164883
933.3779, 0.167609
935.3063, 0.170623
937.2348, 0.173536
939.1633, 0.176076
941.0917, 0.178326
943.0202, 0.180802
944.9487, 0.183398
946.8771, 0.185807
948.8056, 0.188056
950.7341, 0.190453
952.6625, 0.192361
954.591, 0.19388
956.5195, 0.194957
958.4479, 0.195922
960.3764, 0.197098
962.3049, 0.198019
964.2333, 0.198779
966.1618, 0.199773
968.0903, 0.201028
970.0187, 0.202126
971.9472, 0.20344
973.8757, 0.20487
975.8041, 0.206425
977.7326, 0.208146
979.6611, 0.209644
981.5895, 0.211144
983.518, 0.212435
985.4465, 0.213353
987.3749, 0.213921
989.3034, 0.213884
991.2319, 0.213145
993.1603, 0.212062
995.0888, 0.210346
997.0173, 0.207811
998.9457, 0.204695
1000.874, 0.201052
1002.803, 0.197119
1004.731, 0.192939
1006.66, 0.188589
1008.588, 0.184088
1010.517, 0.179495
1012.445, 0.175225
1014.373, 0.171384
1016.302, 0.167564
1018.23, 0.164114
1020.159, 0.161108
1022.087, 0.158336
1024.016, 0.155376
1025.944, 0.152385
1027.873, 0.149463
1029.801, 0.146219
1031.73, 0.142723
1033.658, 0.13901
1035.587, 0.135353
1037.515, 0.132033
1039.444, 0.128793
1041.372, 0.12567
1043.301, 0.12291
1045.229, 0.120527
1047.157, 0.117907
1049.086, 0.115741
1051.014, 0.113887
1052.943, 0.112153
1054.871, 0.110806
1056.8, 0.109616
1058.728, 0.108315
1060.657, 0.10709
1062.585, 0.106023
1064.514, 0.105166
1066.442, 0.104076
1068.371, 0.102773
1070.299, 0.101502
1072.228, 0.10012
1074.156, 0.098567
1076.084, 0.097109
1078.013, 0.095643
1079.941, 0.094061
1081.87, 0.092613
1083.798, 0.091518
1085.727, 0.090554
1087.655, 0.089574
1089.584, 0.088763
1091.512, 0.088048
1093.441, 0.087308
1095.369, 0.086641
1097.298, 0.085709
1099.226, 0.084761
1101.155, 0.083568
1103.083, 0.081879
1105.011, 0.080217
1106.94, 0.07855
1108.868, 0.076683
1110.797, 0.074423
1112.725, 0.072007
1114.654, 0.069682
1116.582, 0.067425
1118.511, 0.065188
1120.439, 0.062842
1122.368, 0.060336
1124.296, 0.057835
1126.225, 0.055249
1128.153, 0.052864
1130.082, 0.051191
1132.01, 0.049835
1133.938, 0.048835
1135.867, 0.04845
1137.795, 0.048412
1139.724, 0.04885
1141.652, 0.049819
1143.581, 0.050765
1145.509, 0.052083
1147.438, 0.053811
1149.366, 0.056225
1151.295, 0.059487
1153.223, 0.062912
1155.152, 0.065892
1157.08, 0.068581
1159.009, 0.070752
1160.937, 0.072249
1162.865, 0.072872
1164.794, 0.072529
1166.722, 0.071227
1168.651, 0.069307
1170.579, 0.067055
1172.508, 0.064564
1174.436, 0.06192
1176.365, 0.059719
1178.293, 0.057923
1180.222, 0.056243
1182.15, 0.054803
1184.079, 0.053432
1186.007, 0.051904
1187.936, 0.049972
1189.864, 0.04766
1191.792, 0.045199
1193.721, 0.042301
1195.649, 0.039181
1197.578, 0.036207
1199.506, 0.033401
1201.435, 0.030616
1203.363, 0.027766
1205.292, 0.025098
1207.22, 0.022634
1209.149, 0.020326
1211.077, 0.018286
1213.006, 0.01654
1214.934, 0.014861
1216.863, 0.013221
1218.791, 0.012104
1220.719, 0.011115
1222.648, 0.010199
1224.576, 0.009397
1226.505, 0.008879
1228.433, 0.008512
1230.362, 0.008073
1232.29, 0.007772
1234.219, 0.007526
1236.147, 0.007155
1238.076, 0.006915
1240.004, 0.006766
1241.933, 0.006637
1243.861, 0.006584
1245.79, 0.006635
1247.718, 0.006217
1249.646, 0.005918
1251.575, 0.005931
1253.503, 0.00584
1255.432, 0.005874
1257.36, 0.005989
1259.289, 0.005779
1261.217, 0.005625
1263.146, 0.005803
1265.074, 0.005989
1267.003, 0.005837
1268.931, 0.00572
1270.86, 0.005692
1272.788, 0.005716
1274.717, 0.005754
1276.645, 0.005763
1278.573, 0.005846
1280.502, 0.005891
1282.43, 0.00589
1284.359, 0.005914
1286.287, 0.005896
1288.216, 0.005902
1290.144, 0.005825
1292.073, 0.00579
1294.001, 0.005942
1295.93, 0.006199
1297.858, 0.006208
1299.787, 0.006116
1301.715, 0.006339
1303.644, 0.006508
1305.572, 0.006526
1307.5, 0.006538
1309.429, 0.006722
1311.357, 0.006902
1313.286, 0.006893
1315.214, 0.006917
1317.143, 0.006994
1319.071, 0.007186
1321, 0.007389
1322.928, 0.007628
1324.857, 0.007657
1326.785, 0.007652
1328.714, 0.007678
1330.642, 0.007758
1332.571, 0.008173
1334.499, 0.00857
1336.427, 0.008742
1338.356, 0.008748
1340.284, 0.008848
1342.213, 0.009209
1344.141, 0.00962
1346.07, 0.009862
1347.998, 0.009986
1349.927, 0.010408
1351.855, 0.010841
1353.784, 0.011178
1355.712, 0.01158
1357.641, 0.011878
1359.569, 0.012088
1361.498, 0.01265
1363.426, 0.013356
1365.354, 0.014074
1367.283, 0.015005
1369.211, 0.015948
1371.14, 0.016851
1373.068, 0.018004
1374.997, 0.019168
1376.925, 0.020468
1378.854, 0.021965
1380.782, 0.023471
1382.711, 0.02494
1384.639, 0.026369
1386.568, 0.027801
1388.496, 0.029368
1390.424, 0.031202
1392.353, 0.033142
1394.281, 0.035326
1396.21, 0.038208
1398.138, 0.040942
1400.067, 0.043757
1401.995, 0.046687
1403.924, 0.049376
1405.852, 0.051773
1407.781, 0.0538
1409.709, 0.055325
1411.638, 0.056153
1413.566, 0.056511
1415.495, 0.056207
1417.423, 0.055282
1419.351, 0.054013
1421.28, 0.052449
1423.208, 0.050676
1425.137, 0.048656
1427.065, 0.046573
1428.994, 0.044434
1430.922, 0.0423
1432.851, 0.040543
1434.779, 0.03908
1436.708, 0.037684
1438.636, 0.036735
1440.565, 0.03591
1442.493, 0.0351
1444.422, 0.034612
1446.35, 0.034612
1448.278, 0.034404
1450.207, 0.034169
1452.135, 0.034033
1454.064, 0.033768
1455.992, 0.03321
1457.921, 0.033089
1459.849, 0.032993
1461.778, 0.03277
1463.706, 0.032688
1465.635, 0.032477
1467.563, 0.032231
1469.492, 0.032019
1471.42, 0.031615
1473.349, 0.031284
1475.277, 0.031194
1477.205, 0.031322
1479.134, 0.031417
1481.062, 0.031281
1482.991, 0.031051
1484.919, 0.030901
1486.848, 0.03085
1488.776, 0.030589
1490.705, 0.03035
1492.633, 0.030346
1494.562, 0.030103
1496.49, 0.029862
1498.419, 0.029895
1500.347, 0.030424
1502.276, 0.031325
1504.204, 0.032425
1506.132, 0.033788
1508.061, 0.035545
1509.989, 0.03788
1511.918, 0.040599
1513.846, 0.043268
1515.775, 0.046019
1517.703, 0.04837
1519.632, 0.04954
1521.56, 0.049703
1523.489, 0.049608
1525.417, 0.048608
1527.346, 0.046767
1529.274, 0.04431
1531.203, 0.041538
1533.131, 0.038498
1535.059, 0.035561
1536.988, 0.032703
1538.916, 0.029915
1540.845, 0.027492
1542.773, 0.02535
1544.702, 0.023469
1546.63, 0.021942
1548.559, 0.020536
1550.487, 0.019412
1552.416, 0.018416
1554.344, 0.01725
1556.273, 0.015893
1558.201, 0.014402
1560.13, 0.013391
1562.058, 0.013
1563.986, 0.012421
1565.915, 0.011734
1567.843, 0.01117
1569.772, 0.010566
1571.7, 0.010221
1573.629, 0.009919
1575.557, 0.009332
1577.486, 0.009165
1579.414, 0.009211
1581.343, 0.008945
1583.271, 0.008708
1585.2, 0.008821
1587.128, 0.008879
1589.057, 0.008697
1590.985, 0.008433
1592.913, 0.008405
1594.842, 0.008355
1596.77, 0.008323
1598.699, 0.008271
1600.627, 0.007961
1602.556, 0.007744
1604.484, 0.007742
1606.413, 0.007701
1608.341, 0.007649
1610.27, 0.007664
1612.198, 0.007618
1614.127, 0.007395
1616.055, 0.007074
1617.984, 0.00708
1619.912, 0.007255
1621.84, 0.007395
1623.769, 0.007487
1625.697, 0.007548
1627.626, 0.007322
1629.554, 0.007022
1631.483, 0.007083
1633.411, 0.007093
1635.34, 0.006806
1637.268, 0.006728
1639.197, 0.006837
1641.125, 0.006967
1643.054, 0.006957
1644.982, 0.006755
1646.911, 0.006866
1648.839, 0.006857
1650.767, 0.006566
1652.696, 0.006256
1654.624, 0.006437
1656.553, 0.006771
1658.481, 0.006753
1660.41, 0.006564
1662.338, 0.006495
1664.267, 0.006427
1666.195, 0.00632
1668.124, 0.006209
1670.052, 0.00652
1671.981, 0.006573
1673.909, 0.00645
1675.838, 0.006174
1677.766, 0.006263
1679.694, 0.006246
1681.623, 0.006098
1683.551, 0.005588
1685.48, 0.005521
1687.408, 0.005661
1689.337, 0.005716
1691.265, 0.005778
1693.194, 0.005686
1695.122, 0.00548
1697.051, 0.005432
1698.979, 0.005312
1700.908, 0.005326
1702.836, 0.005381
1704.765, 0.005276
1706.693, 0.005459
1708.621, 0.005342
1710.55, 0.005457
1712.478, 0.005653
1714.407, 0.005452
1716.335, 0.005117
1718.264, 0.004854
1720.192, 0.00503
1722.121, 0.005107
1724.049, 0.005455
1725.978, 0.005457
1727.906, 0.005207
1729.835, 0.005249
1731.763, 0.005246
1733.692, 0.005019
1735.62, 0.005031
1737.548, 0.005081
1739.477, 0.005161
1741.405, 0.005158
1743.334, 0.005043
1745.262, 0.005037
1747.191, 0.005046
1749.119, 0.005048
1751.048, 0.005031
1752.976, 0.005089
1754.905, 0.005256
1756.833, 0.00509
1758.762, 0.005233
1760.69, 0.005467
1762.619, 0.005276
1764.547, 0.005212
1766.475, 0.005346
1768.404, 0.005399
1770.332, 0.005342
1772.261, 0.004885
1774.189, 0.004612
1776.118, 0.004709
1778.046, 0.005101
1779.975, 0.0053
1781.903, 0.005365
1783.832, 0.005398
1785.76, 0.005003
1787.689, 0.004959
1789.617, 0.004978
1791.546, 0.00466
1793.474, 0.004936
1795.402, 0.00544
1797.331, 0.005845
1799.259, 0.005964
1801.188, 0.005695
1803.116, 0.005162
1805.045, 0.004778
1806.973, 0.004532
1808.902, 0.004279
1810.83, 0.004488
1812.759, 0.004664
1814.687, 0.004382
1816.616, 0.004164
1818.544, 0.00434
1820.473, 0.004635
1822.401, 0.004938
1824.329, 0.004701
1826.258, 0.004262
1828.186, 0.004145
1830.115, 0.004379
1832.043, 0.00472
1833.972, 0.00454
1835.9, 0.00434
1837.829, 0.004295
1839.757, 0.004235
1841.686, 0.00463
1843.614, 0.004733
1845.543, 0.004485
1847.471, 0.004629
1849.4, 0.004244
1851.328, 0.004164
1853.256, 0.004765
1855.185, 0.005056
1857.113, 0.004706
1859.042, 0.004483
1860.97, 0.004446
1862.899, 0.004515
1864.827, 0.004448
1866.756, 0.004447
1868.684, 0.00411
1870.613, 0.003696
1872.541, 0.003884
1874.47, 0.00472
1876.398, 0.004935
1878.327, 0.004632
1880.255, 0.004089
1882.183, 0.004002
1884.112, 0.003814
1886.04, 0.0031
1887.969, 0.003002
1889.897, 0.003316
1891.826, 0.003776
1893.754, 0.004543
1895.683, 0.004653
1897.611, 0.004666
1899.54, 0.004382
1901.468, 0.003903
1903.397, 0.00388
1905.325, 0.003732
1907.254, 0.003427
1909.182, 0.00264
1911.11, 0.002349
1913.039, 0.003038
1914.967, 0.002855
1916.896, 0.00311
1918.824, 0.003616
1920.753, 0.003017
1922.681, 0.002928
1924.61, 0.003328
1926.538, 0.003028
1928.467, 0.00319
1930.395, 0.002755
1932.324, 0.002854
1934.252, 0.003347
1936.181, 0.003967
1938.109, 0.003782
1940.037, 0.00282
1941.966, 0.003232
1943.894, 0.003458
1945.823, 0.001521
1947.751, 0.000577
1949.68, 0.002147
1951.608, 0.001783
1953.537, 0.000842
1955.465, 0.00094
1957.394, 0.001188
1959.322, 0.00068
1961.251, -0.000477
1963.179, -0.000784
1965.108, -0.00087
1967.036, -0.001418
1968.964, -0.000703
1970.893, 0.000998
1972.821, 0.000533
1974.75, -0.000471
1976.678, -0.000871
1978.607, 0.000067
1980.535, 0.002061
1982.464, 0.002195
1984.392, 0.001529
1986.321, 0.002596
1988.249, 0.002621
1990.178, 0.001927
1992.106, 0.001193
1994.035, 0.000344
1995.963, -0.001207
1997.891, -0.001745
1999.82, -0.000544
2001.748, -0.000216
2003.677, -0.000893
2005.605, -0.000977
2007.534, 0.000575
2009.462, 0.001391
2011.391, 0.000915
2013.319, 0.001003
2015.248, 0.000031
2017.176, -0.001014
2019.105, -0.001912
2021.033, -0.002289
2022.962, -0.000749
2024.89, -0.00014
2026.818, -0.000234
2028.747, 0.00014
2030.675, 0.001801
2032.604, 0.002238
2034.532, 0.001649
2036.461, 0.002731
2038.389, 0.002439
2040.318, 0.001513
2042.246, 0.002138
2044.175, 0.003457
2046.103, 0.002286
2048.032, 0.00232
2049.96, 0.003701
2051.889, 0.003471
2053.817, 0.003372
2055.746, 0.003454
2057.674, 0.003339
2059.603, 0.00406
2061.531, 0.00425
2063.459, 0.003166
2065.388, 0.002763
2067.316, 0.004091
2069.245, 0.004824
2071.173, 0.004507
2073.102, 0.003952
2075.03, 0.004422
2076.959, 0.005496
2078.887, 0.005844
2080.816, 0.006465
2082.744, 0.005781
2084.673, 0.004985
2086.601, 0.004947
2088.53, 0.004842
2090.458, 0.005484
2092.386, 0.005783
2094.315, 0.005972
2096.243, 0.005546
2098.172, 0.004509
2100.1, 0.003734
2102.029, 0.003503
2103.957, 0.004457
2105.886, 0.005309
2107.814, 0.005088
2109.743, 0.005713
2111.671, 0.005704
2113.6, 0.005644
2115.528, 0.005962
2117.457, 0.005013
2119.385, 0.003804
2121.313, 0.004128
2123.242, 0.00408
2125.17, 0.003332
2127.099, 0.002928
2129.027, 0.00284
2130.956, 0.002319
2132.884, 0.002984
2134.813, 0.004272
2136.741, 0.003387
2138.67, 0.002861
2140.598, 0.00224
2142.527, 0.001727
2144.455, 0.002071
2146.384, 0.001331
2148.312, 0.002001
2150.24, 0.002553
2152.169, 0.00157
2154.097, 0.000172
2156.026, 0.000315
2157.954, 0.002366
2159.883, 0.005041
2161.811, 0.00632
2163.74, 0.005861
2165.668, 0.006384
2167.597, 0.006184
2169.525, 0.005083
2171.454, 0.004728
2173.382, 0.003281
2175.311, 0.004006
2177.239, 0.005598
2179.167, 0.004469
2181.096, 0.005103
2183.024, 0.005525
2184.953, 0.00498
2186.881, 0.005543
2188.81, 0.005476
2190.738, 0.004098
2192.667, 0.003655
2194.595, 0.004479
2196.524, 0.00568
2198.452, 0.005791
2200.381, 0.005867
2202.309, 0.005953
2204.238, 0.005252
2206.166, 0.00517
2208.094, 0.005245
2210.023, 0.005888
2211.951, 0.006205
2213.88, 0.005796
2215.808, 0.005448
2217.737, 0.005171
2219.665, 0.004635
2221.594, 0.005156
2223.522, 0.005954
2225.451, 0.006015
2227.379, 0.005519
2229.308, 0.005399
2231.236, 0.005876
2233.165, 0.00642
2235.093, 0.007071
2237.021, 0.0063
2238.95, 0.004819
2240.878, 0.004929
2242.807, 0.005408
2244.735, 0.005594
2246.664, 0.006145
2248.592, 0.007102
2250.521, 0.007409
2252.449, 0.006513
2254.378, 0.007495
2256.306, 0.008069
2258.235, 0.007404
2260.163, 0.006914
2262.092, 0.007459
2264.02, 0.007454
2265.948, 0.00667
2267.877, 0.006814
2269.805, 0.006771
2271.734, 0.005896
2273.662, 0.005676
2275.591, 0.006487
2277.519, 0.006456
2279.448, 0.00661
2281.376, 0.007735
2283.305, 0.008563
2285.233, 0.008961
2287.162, 0.008935
2289.09, 0.0089
2291.019, 0.008389
2292.947, 0.007968
2294.875, 0.008005
2296.804, 0.007538
2298.732, 0.007649
2300.661, 0.008123
2302.589, 0.007723
2304.518, 0.007511
2306.446, 0.008204
2308.375, 0.008737
2310.303, 0.008774
2312.232, 0.008248
2314.16, 0.007699
2316.089, 0.007711
2318.017, 0.008272
2319.946, 0.008724
2321.874, 0.009212
2323.802, 0.00967
2325.731, 0.008859
2327.659, 0.007725
2329.588, 0.007405
2331.516, 0.00704
2333.445, 0.006968
2335.373, 0.007644
2337.302, 0.007909
2339.23, 0.007953
2341.159, 0.008218
2343.087, 0.007828
2345.016, 0.007729
2346.944, 0.008276
2348.873, 0.008464
2350.801, 0.007968
2352.729, 0.00781
2354.658, 0.008132
2356.586, 0.008144
2358.515, 0.007873
2360.443, 0.007581
2362.372, 0.007439
2364.3, 0.007519
2366.229, 0.007683
2368.157, 0.007527
2370.086, 0.00747
2372.014, 0.007585
2373.942, 0.007387
2375.871, 0.006805
2377.799, 0.006903
2379.728, 0.007518
2381.656, 0.007909
2383.585, 0.007304
2385.513, 0.007069
2387.442, 0.007444
2389.37, 0.007504
2391.299, 0.007365
2393.227, 0.007039
2395.156, 0.007463
2397.084, 0.008574
2399.012, 0.008623
2400.941, 0.008016
2402.869, 0.008172
2404.798, 0.008268
2406.726, 0.00806
2408.655, 0.007682
2410.583, 0.008422
2412.512, 0.008889
2414.44, 0.008412
2416.369, 0.008036
2418.297, 0.008455
2420.226, 0.008725
2422.154, 0.008374
2424.083, 0.008236
2426.011, 0.008192
2427.939, 0.008551
2429.868, 0.009151
2431.796, 0.009197
2433.725, 0.00826
2435.653, 0.007803
2437.582, 0.008348
2439.51, 0.009371
2441.439, 0.010354
2443.367, 0.009767
2445.296, 0.009327
2447.224, 0.009403
2449.153, 0.009678
2451.081, 0.009597
2453.01, 0.009185
2454.938, 0.009795
2456.866, 0.00974
2458.795, 0.00891
2460.723, 0.008948
2462.652, 0.009018
2464.58, 0.009118
2466.509, 0.008751
2468.437, 0.008796
2470.366, 0.009021
2472.294, 0.009017
2474.223, 0.00938
2476.151, 0.009806
2478.08, 0.009563
2480.008, 0.009268
2481.937, 0.008615
2483.865, 0.008293
2485.793, 0.009181
2487.722, 0.009417
2489.65, 0.008842
2491.579, 0.008531
2493.507, 0.009063
2495.436, 0.009158
2497.364, 0.009109
2499.293, 0.00943
2501.221, 0.009327
2503.15, 0.009643
2505.078, 0.010178
2507.007, 0.009786
2508.935, 0.009617
2510.864, 0.00919
2512.792, 0.009248
2514.72, 0.009939
2516.649, 0.0098
2518.577, 0.009187
2520.506, 0.009263
2522.434, 0.0094
2524.363, 0.010285
2526.291, 0.010252
2528.22, 0.008933
2530.148, 0.009116
2532.077, 0.009895
2534.005, 0.009815
2535.934, 0.009545
2537.862, 0.009868
2539.791, 0.009323
2541.719, 0.009253
2543.647, 0.009303
2545.576, 0.009208
2547.504, 0.008939
2549.433, 0.008707
2551.361, 0.00865
2553.29, 0.008849
2555.218, 0.00945
2557.147, 0.010065
2559.075, 0.010373
2561.004, 0.01065
2562.932, 0.010712
2564.861, 0.010556
2566.789, 0.010815
2568.718, 0.010326
2570.646, 0.009717
2572.574, 0.010009
2574.503, 0.009694
2576.431, 0.00945
2578.36, 0.009211
2580.288, 0.00965
2582.217, 0.010734
2584.145, 0.010992
2586.074, 0.009986
2588.002, 0.009712
2589.931, 0.010107
2591.859, 0.010196
2593.788, 0.010371
2595.716, 0.010713
2597.645, 0.011212
2599.573, 0.010824
2601.501, 0.010593
2603.43, 0.010292
2605.358, 0.010124
2607.287, 0.010955
2609.215, 0.010869
2611.144, 0.010655
2613.072, 0.010854
2615.001, 0.010867
2616.929, 0.010696
2618.858, 0.010204
2620.786, 0.010232
2622.715, 0.010273
2624.643, 0.010368
2626.572, 0.010386
2628.5, 0.010243
2630.428, 0.010857
2632.357, 0.010798
2634.285, 0.010392
2636.214, 0.010335
2638.142, 0.010296
2640.071, 0.009705
2641.999, 0.010148
2643.928, 0.010965
2645.856, 0.010753
2647.785, 0.010494
2649.713, 0.010534
2651.642, 0.010745
2653.57, 0.010977
2655.499, 0.01104
2657.427, 0.011222
2659.355, 0.010908
2661.284, 0.010403
2663.212, 0.010469
2665.141, 0.010691
2667.069, 0.010342
2668.998, 0.009924
2670.926, 0.009833
2672.855, 0.010152
2674.783, 0.010305
2676.712, 0.010347
2678.64, 0.010245
2680.569, 0.010214
2682.497, 0.010087
2684.426, 0.009937
2686.354, 0.010022
2688.282, 0.009911
2690.211, 0.009659
2692.139, 0.009601
2694.068, 0.009944
2695.996, 0.00979
2697.925, 0.009777
2699.853, 0.010104
2701.782, 0.010423
2703.71, 0.010577
2705.639, 0.010598
2707.567, 0.010513
2709.496, 0.010098
2711.424, 0.009455
2713.353, 0.009643
2715.281, 0.010358
2717.209, 0.01064
2719.138, 0.010635
2721.066, 0.010517
2722.995, 0.010471
2724.923, 0.010752
2726.852, 0.010973
2728.78, 0.010497
2730.709, 0.01024
2732.637, 0.010488
2734.566, 0.010792
2736.494, 0.010453
2738.423, 0.010269
2740.351, 0.010423
2742.28, 0.010356
2744.208, 0.009833
2746.136, 0.009931
2748.065, 0.010317
2749.993, 0.010666
2751.922, 0.010459
2753.85, 0.009638
2755.779, 0.00946
2757.707, 0.010147
2759.636, 0.010421
2761.564, 0.009894
2763.493, 0.010005
2765.421, 0.010458
2767.35, 0.010374
2769.278, 0.01045
2771.207, 0.010601
2773.135, 0.010638
2775.063, 0.010522
2776.992, 0.010348
2778.92, 0.010136
2780.849, 0.010074
2782.777, 0.009955
2784.706, 0.010162
2786.634, 0.010996
2788.563, 0.011107
2790.491, 0.010755
2792.42, 0.010576
2794.348, 0.010542
2796.277, 0.010213
2798.205, 0.009732
2800.134, 0.009436
2802.062, 0.009492
2803.99, 0.010057
2805.919, 0.00997
2807.847, 0.009894
2809.776, 0.010855
2811.704, 0.010841
2813.633, 0.010088
2815.561, 0.009829
2817.49, 0.010003
2819.418, 0.010189
2821.347, 0.010169
2823.275, 0.010446
2825.204, 0.010323
2827.132, 0.010165
2829.061, 0.010372
2830.989, 0.010104
2832.917, 0.009628
2834.846, 0.010175
2836.774, 0.010697
2838.703, 0.01075
2840.631, 0.00995
2842.56, 0.010044
2844.488, 0.010276
2846.417, 0.010139
2848.345, 0.009814
2850.274, 0.009677
2852.202, 0.010458
2854.131, 0.010911
2856.059, 0.010669
2857.988, 0.010972
2859.916, 0.011309
2861.844, 0.011488
2863.773, 0.011462
2865.701, 0.011235
2867.63, 0.011064
2869.558, 0.010719
2871.487, 0.010872
2873.415, 0.010701
2875.344, 0.010831
2877.272, 0.010629
2879.201, 0.010377
2881.129, 0.01072
2883.058, 0.011288
2884.986, 0.011934
2886.915, 0.011511
2888.843, 0.010762
2890.771, 0.010492
2892.7, 0.010654
2894.628, 0.011212
2896.557, 0.011539
2898.485, 0.011669
2900.414, 0.011935
2902.342, 0.012001
2904.271, 0.011864
2906.199, 0.011565
2908.128, 0.011063
2910.056, 0.011399
2911.985, 0.011295
2913.913, 0.011368
2915.842, 0.011808
2917.77, 0.011137
2919.698, 0.011254
2921.627, 0.011778
2923.555, 0.011324
2925.484, 0.01085
2927.412, 0.011189
2929.341, 0.0111
2931.269, 0.010917
2933.198, 0.010834
2935.126, 0.011239
2937.055, 0.011778
2938.983, 0.012177
2940.912, 0.011963
2942.84, 0.012041
2944.769, 0.012129
2946.697, 0.011851
2948.625, 0.011831
2950.554, 0.012195
2952.482, 0.012076
2954.411, 0.011266
2956.339, 0.012011
2958.268, 0.012491
2960.196, 0.011907
2962.125, 0.010963
2964.053, 0.010739
2965.982, 0.011693
2967.91, 0.012261
2969.839, 0.012066
2971.767, 0.011732
2973.696, 0.011428
2975.624, 0.011297
2977.552, 0.011911
2979.481, 0.011885
2981.409, 0.0115
2983.338, 0.011139
2985.266, 0.011005
2987.195, 0.011199
2989.123, 0.011986
2991.052, 0.011426
2992.98, 0.010997
2994.909, 0.011454
2996.837, 0.0116
2998.766, 0.011115
3000.694, 0.011707
3002.623, 0.011767
3004.551, 0.011533
3006.479, 0.012394
3008.408, 0.012375
3010.336, 0.011401
3012.265, 0.011327
3014.193, 0.012396
3016.122, 0.012587
3018.05, 0.011638
3019.979, 0.011453
3021.907, 0.011762
3023.836, 0.01196
3025.764, 0.011448
3027.693, 0.011509
3029.621, 0.011465
3031.55, 0.010353
3033.478, 0.010161
3035.406, 0.011506
3037.335, 0.011556
3039.263, 0.010966
3041.192, 0.010851
3043.12, 0.010591
3045.049, 0.010189
3046.977, 0.01051
3048.906, 0.010858
3050.834, 0.011463
3052.763, 0.011873
3054.691, 0.011582
3056.62, 0.011885
3058.548, 0.011966
3060.477, 0.01165
3062.405, 0.011588
3064.333, 0.011121
3066.262, 0.011302
3068.19, 0.010948
3070.119, 0.011006
3072.047, 0.011294
3073.976, 0.011601
3075.904, 0.0127
3077.833, 0.013032
3079.761, 0.012353
3081.69, 0.012092
3083.618, 0.011601
3085.547, 0.011855
3087.475, 0.012226
3089.404, 0.012646
3091.332, 0.013184
3093.26, 0.013246
3095.189, 0.013197
3097.117, 0.012956
3099.046, 0.01293
3100.974, 0.013016
3102.903, 0.012603
3104.831, 0.011934
3106.76, 0.012417
3108.688, 0.013143
3110.617, 0.013713
3112.545, 0.014478
3114.474, 0.013636
3116.402, 0.012887
3118.331, 0.012874
3120.259, 0.013045
3122.188, 0.013154
3124.116, 0.013529
3126.044, 0.014245
3127.973, 0.014806
3129.901, 0.013875
3131.83, 0.013231
3133.758, 0.012861
3135.687, 0.012563
3137.615, 0.012954
3139.544, 0.013315
3141.472, 0.013113
3143.401, 0.012797
3145.329, 0.012961
3147.258, 0.013808
3149.186, 0.014432
3151.115, 0.014305
3153.043, 0.014206
3154.971, 0.013543
3156.9, 0.013271
3158.828, 0.01382
3160.757, 0.013727
3162.685, 0.012653
3164.614, 0.01246
3166.542, 0.013279
3168.471, 0.013724
3170.399, 0.013238
3172.328, 0.013603
3174.256, 0.014538
3176.185, 0.014621
3178.113, 0.015278
3180.042, 0.015273
3181.97, 0.014486
3183.898, 0.01365
3185.827, 0.013225
3187.755, 0.012967
3189.684, 0.01265
3191.612, 0.01335
3193.541, 0.014301
3195.469, 0.013887
3197.398, 0.013805
3199.326, 0.014176
3201.255, 0.014368
3203.183, 0.014309
3205.112, 0.014498
3207.04, 0.015027
3208.969, 0.0143
3210.897, 0.01388
3212.825, 0.014121
3214.754, 0.014999
3216.682, 0.015185
3218.611, 0.01491
3220.539, 0.014643
3222.468, 0.014869
3224.396, 0.014438
3226.325, 0.014095
3228.253, 0.014357
3230.182, 0.014538
3232.11, 0.014593
3234.039, 0.014342
3235.967, 0.014684
3237.896, 0.014215
3239.824, 0.013527
3241.752, 0.014622
3243.681, 0.015114
3245.609, 0.015083
3247.538, 0.015244
3249.466, 0.01437
3251.395, 0.01402
3253.323, 0.014249
3255.252, 0.013498
3257.18, 0.013418
3259.109, 0.015118
3261.037, 0.01536
3262.966, 0.01418
3264.894, 0.01417
3266.823, 0.014702
3268.751, 0.014726
3270.679, 0.014893
3272.608, 0.014322
3274.536, 0.01466
3276.465, 0.015233
3278.393, 0.01481
3280.322, 0.014011
3282.25, 0.013613
3284.179, 0.01327
3286.107, 0.013631
3288.036, 0.014077
3289.964, 0.014725
3291.893, 0.015132
3293.821, 0.015297
3295.75, 0.015177
3297.678, 0.015155
3299.606, 0.014607
3301.535, 0.014728
3303.463, 0.015124
3305.392, 0.015081
3307.32, 0.014459
3309.249, 0.013852
3311.177, 0.014441
3313.106, 0.014694
3315.034, 0.014538
3316.963, 0.014729
3318.891, 0.01435
3320.82, 0.014813
3322.748, 0.015189
3324.677, 0.015054
3326.605, 0.014757
3328.533, 0.014992
3330.462, 0.015041
3332.39, 0.014898
3334.319, 0.015236
3336.247, 0.015552
3338.176, 0.015054
3340.104, 0.015493
3342.033, 0.015558
3343.961, 0.014629
3345.89, 0.014165
3347.818, 0.014134
3349.747, 0.014134
3351.675, 0.014803
3353.604, 0.014367
3355.532, 0.01453
3357.46, 0.015353
3359.389, 0.01604
3361.317, 0.015607
3363.246, 0.015224
3365.174, 0.014722
3367.103, 0.014695
3369.031, 0.015559
3370.96, 0.015606
3372.888, 0.014875
3374.817, 0.014467
3376.745, 0.014228
3378.674, 0.01382
3380.602, 0.014108
3382.531, 0.014686
3384.459, 0.014953
3386.387, 0.015611
3388.316, 0.015324
3390.244, 0.014217
3392.173, 0.014213
3394.101, 0.014986
3396.03, 0.014635
3397.958, 0.015006
3399.887, 0.016246
3401.815, 0.015109
3403.744, 0.014498
3405.672, 0.015112
3407.601, 0.015192
3409.529, 0.014504
3411.458, 0.014398
3413.386, 0.015129
3415.314, 0.01539
3417.243, 0.015732
3419.171, 0.015307
3421.1, 0.014355
3423.028, 0.014388
3424.957, 0.014924
3426.885, 0.015105
3428.814, 0.015237
3430.742, 0.014608
3432.671, 0.014827
3434.599, 0.015237
3436.528, 0.015608
3438.456, 0.015757
3440.385, 0.016108
3442.313, 0.015747
3444.241, 0.014616
3446.17, 0.013878
3448.098, 0.01476
3450.027, 0.014995
3451.955, 0.015281
3453.884, 0.015415
3455.812, 0.013861
3457.741, 0.013252
3459.669, 0.014232
3461.598, 0.015322
3463.526, 0.015587
3465.455, 0.014833
3467.383, 0.013399
3469.312, 0.013702
3471.24, 0.014911
3473.168, 0.015357
3475.097, 0.01427
3477.025, 0.013754
3478.954, 0.013936
3480.882, 0.01454
3482.811, 0.014577
3484.739, 0.013918
3486.668, 0.013213
3488.596, 0.013109
3490.525, 0.014346
3492.453, 0.014726
3494.382, 0.014864
3496.31, 0.015119
3498.239, 0.01406
3500.167, 0.013799
3502.095, 0.014994
3504.024, 0.016032
3505.952, 0.01618
3507.881, 0.015102
3509.809, 0.014168
3511.738, 0.014662
3513.666, 0.014891
3515.595, 0.014155
3517.523, 0.013081
3519.452, 0.013039
3521.38, 0.015319
3523.309, 0.016152
3525.237, 0.013591
3527.166, 0.012016
3529.094, 0.013695
3531.022, 0.014607
3532.951, 0.014587
3534.879, 0.014727
3536.808, 0.016021
3538.736, 0.016255
3540.665, 0.015287
3542.593, 0.013677
3544.522, 0.013783
3546.45, 0.015313
3548.379, 0.016178
3550.307, 0.015501
3552.236, 0.013753
3554.164, 0.013201
3556.093, 0.013195
3558.021, 0.013317
3559.949, 0.015505
3561.878, 0.016222
3563.806, 0.015492
3565.735, 0.013901
3567.663, 0.012929
3569.592, 0.012281
3571.52, 0.013149
3573.449, 0.014274
3575.377, 0.015119
3577.306, 0.015667
3579.234, 0.015209
3581.163, 0.015772
3583.091, 0.014579
3585.02, 0.012866
3586.948, 0.013246
3588.876, 0.014373
3590.805, 0.015311
3592.733, 0.014752
3594.662, 0.013916
3596.59, 0.014462
3598.519, 0.014991
3600.447, 0.015146
3602.376, 0.015667
3604.304, 0.015075
3606.233, 0.015034
3608.161, 0.01522
3610.09, 0.014511
3612.018, 0.013267
3613.947, 0.014903
3615.875, 0.015785
3617.803, 0.014816
3619.732, 0.014565
3621.66, 0.014655
3623.589, 0.014254
3625.517, 0.012742
3627.446, 0.013192
3629.374, 0.014517
3631.303, 0.015482
3633.231, 0.015968
3635.16, 0.015646
3637.088, 0.013615
3639.017, 0.01244
3640.945, 0.013295
3642.874, 0.013263
3644.802, 0.012639
3646.73, 0.012557
3648.659, 0.013516
3650.587, 0.013753
3652.516, 0.013814
3654.444, 0.013686
3656.373, 0.012727
3658.301, 0.012815
3660.23, 0.013577
3662.158, 0.015449
3664.087, 0.016357
3666.015, 0.015342
3667.944, 0.012799
3669.872, 0.012439
3671.801, 0.013373
3673.729, 0.013607
3675.657, 0.014621
3677.586, 0.015517
3679.514, 0.015131
3681.443, 0.013985
3683.371, 0.012399
3685.3, 0.011642
3687.228, 0.011551
3689.157, 0.013023
3691.085, 0.013715
3693.014, 0.014141
3694.942, 0.014304
3696.871, 0.012801
3698.799, 0.012054
3700.728, 0.012419
3702.656, 0.013953
3704.584, 0.01373
3706.513, 0.013152
3708.441, 0.012313
3710.37, 0.012668
3712.298, 0.013624
3714.227, 0.013255
3716.155, 0.012736
3718.084, 0.013625
3720.012, 0.013141
3721.941, 0.012821
3723.869, 0.012849
3725.798, 0.013387
3727.726, 0.014267
3729.655, 0.012929
3731.583, 0.011121
3733.511, 0.012196
3735.44, 0.012705
3737.368, 0.013706
3739.297, 0.014486
3741.225, 0.012754
3743.154, 0.011578
3745.082, 0.012407
3747.011, 0.01549
3748.939, 0.015836
3750.868, 0.013693
3752.796, 0.013468
3754.725, 0.015681
3756.653, 0.015028
3758.582, 0.013399
3760.51, 0.012935
3762.438, 0.013628
3764.367, 0.013162
3766.295, 0.012455
3768.224, 0.013234
3770.152, 0.014241
3772.081, 0.013549
3774.009, 0.013927
3775.938, 0.014053
3777.866, 0.014711
3779.795, 0.014081
3781.723, 0.012818
3783.652, 0.013389
3785.58, 0.013755
3787.509, 0.01481
3789.437, 0.015363
3791.365, 0.01534
3793.294, 0.014246
3795.222, 0.014063
3797.151, 0.015228
3799.079, 0.015613
3801.008, 0.013931
3802.936, 0.013904
3804.865, 0.01399
3806.793, 0.013241
3808.722, 0.014079
3810.65, 0.014191
3812.579, 0.01449
3814.507, 0.014413
3816.436, 0.014881
3818.364, 0.014896
3820.292, 0.015301
3822.221, 0.015581
3824.149, 0.01408
3826.078, 0.013801
3828.006, 0.01393
3829.935, 0.013332
3831.863, 0.01422
3833.792, 0.014434
3835.72, 0.013096
3837.649, 0.013564
3839.577, 0.01498
3841.506, 0.01356
3843.434, 0.013117
3845.363, 0.01449
3847.291, 0.015043
3849.219, 0.014429
3851.148, 0.013494
3853.076, 0.013566
3855.005, 0.013522
3856.933, 0.013383
3858.862, 0.015462
3860.79, 0.015226
3862.719, 0.013715
3864.647, 0.013064
3866.576, 0.014573
3868.504, 0.013744
3870.433, 0.013923
3872.361, 0.013965
3874.29, 0.012743
3876.218, 0.012987
3878.146, 0.013801
3880.075, 0.014318
3882.003, 0.013697
3883.932, 0.012612
3885.86, 0.012879
3887.789, 0.014421
3889.717, 0.014281
3891.646, 0.014224
3893.574, 0.014903
3895.503, 0.014324
3897.431, 0.013054
3899.36, 0.013714
3901.288, 0.0137
3903.217, 0.013825
3905.145, 0.014056
3907.073, 0.013001
3909.002, 0.013336
3910.93, 0.013755
3912.859, 0.01373
3914.787, 0.013239
3916.716, 0.013576
3918.644, 0.014
3920.573, 0.014141
3922.501, 0.014433
3924.43, 0.013344
3926.358, 0.013183
3928.287, 0.014093
3930.215, 0.01573
3932.144, 0.015434
3934.072, 0.013845
3936, 0.014497
3937.929, 0.014441
3939.857, 0.012188
3941.786, 0.013446
3943.714, 0.015895
3945.643, 0.015183
3947.571, 0.01371
3949.5, 0.012178
3951.428, 0.011803
3953.357, 0.013432
3955.285, 0.016125
3957.214, 0.016547
3959.142, 0.015135
3961.071, 0.014202
3962.999, 0.013728
3964.927, 0.013571
3966.856, 0.012611
3968.784, 0.013804
3970.713, 0.01458
3972.641, 0.014939
3974.57, 0.015484
3976.498, 0.014345
3978.427, 0.013851
3980.355, 0.014221
3982.284, 0.015478
3984.212, 0.015952
3986.141, 0.015351
3988.069, 0.015099
3989.998, 0.013965
3991.926, 0.013522
3993.854, 0.013953
3995.783, 0.014492
3997.711, 0.014622
3999.64, 0.014629
##END=



