##NAMES=Mesolite
##RRUFFID=R040139
##IDEAL CHEMISTRY=Na_2_Ca_2_(Si_9_Al_6_)O_30_&#183;8H_2_O
##LOCALITY=Lake Superior beach,  41 miles north of Tofte, Minnesota, USA
##OWNER=RRUFF
##SOURCE=University of Arizona Mineral Museum
##DESCRIPTION=Aggregate of white radiating thin acicular crystals.
##STATUS=The identification of this mineral has been confirmed by X-ray diffraction and chemical analysis
##URL=rruff.info/R040139
##MEASURED CHEMISTRY=Na_1.95_Ca_1.89_(Si_9.21_Al_5.82_)O_30_Â·8H_2_O
399.1926, 0.195549
401.1211, 0.186264
403.0496, 0.187159
404.9780, 0.187728
406.9065, 0.196680
408.8350, 0.206040
410.7634, 0.217899
412.6919, 0.232540
414.6204, 0.244737
416.5488, 0.256417
418.4773, 0.264021
420.4058, 0.265229
422.3342, 0.260310
424.2627, 0.248084
426.1912, 0.232904
428.1196, 0.218136
430.0481, 0.205441
431.9766, 0.194559
433.9050, 0.183562
435.8335, 0.174409
437.7620, 0.165658
439.6904, 0.157694
441.6189, 0.150398
443.5474, 0.140861
445.4758, 0.130596
447.4043, 0.121833
449.3328, 0.115950
451.2612, 0.112616
453.1897, 0.110578
455.1182, 0.110544
457.0466, 0.111478
458.9751, 0.113458
460.9036, 0.115707
462.8320, 0.119799
464.7605, 0.124798
466.6890, 0.128507
468.6174, 0.130543
470.5459, 0.131746
472.4744, 0.132834
474.4028, 0.133977
476.3313, 0.134683
478.2598, 0.135813
480.1882, 0.136519
482.1167, 0.136424
484.0452, 0.137023
485.9736, 0.138265
487.9021, 0.140190
489.8306, 0.142084
491.7590, 0.144233
493.6875, 0.145791
495.6160, 0.146877
497.5444, 0.146880
499.4729, 0.145983
501.4014, 0.144797
503.3298, 0.143350
505.2583, 0.141062
507.1868, 0.138332
509.1152, 0.135475
511.0437, 0.132850
512.9722, 0.130277
514.9006, 0.127722
516.8291, 0.125012
518.7576, 0.122377
520.6860, 0.119974
522.6145, 0.117752
524.5430, 0.115955
526.4714, 0.115476
528.3999, 0.115831
530.3284, 0.116772
532.2568, 0.118388
534.1853, 0.120551
536.1138, 0.122136
538.0422, 0.123228
539.9707, 0.124168
541.8992, 0.123896
543.8276, 0.122924
545.7561, 0.120882
547.6846, 0.117703
549.6130, 0.114952
551.5415, 0.112902
553.4700, 0.110733
555.3984, 0.109335
557.3269, 0.109074
559.2554, 0.108822
561.1838, 0.108486
563.1123, 0.108243
565.0408, 0.107788
566.9692, 0.107490
568.8977, 0.107401
570.8262, 0.107512
572.7546, 0.108343
574.6831, 0.109823
576.6116, 0.112182
578.5400, 0.114936
580.4685, 0.117541
582.3970, 0.120291
584.3254, 0.122769
586.2539, 0.123969
588.1824, 0.124388
590.1108, 0.124092
592.0393, 0.123247
593.9678, 0.122525
595.8962, 0.123177
597.8247, 0.125656
599.7532, 0.129784
601.6816, 0.134627
603.6101, 0.140076
605.5386, 0.146165
607.4670, 0.152236
609.3955, 0.156728
611.3240, 0.158682
613.2524, 0.159598
615.1809, 0.160078
617.1094, 0.160375
619.0378, 0.160706
620.9663, 0.160545
622.8948, 0.159972
624.8232, 0.158784
626.7517, 0.156234
628.6802, 0.152898
630.6086, 0.148986
632.5371, 0.144369
634.4656, 0.139151
636.3940, 0.133345
638.3225, 0.127042
640.2510, 0.120763
642.1794, 0.114947
644.1079, 0.109473
646.0364, 0.104343
647.9648, 0.100293
649.8933, 0.097445
651.8218, 0.095475
653.7502, 0.094509
655.6787, 0.094248
657.6072, 0.094577
659.5356, 0.095572
661.4641, 0.097726
663.3926, 0.100701
665.3210, 0.104193
667.2495, 0.107341
669.1780, 0.108089
671.1064, 0.105488
673.0349, 0.101707
674.9634, 0.099141
676.8918, 0.098413
678.8203, 0.099533
680.7488, 0.102638
682.6772, 0.107122
684.6057, 0.111861
686.5342, 0.115697
688.4626, 0.117232
690.3911, 0.115729
692.3196, 0.111839
694.2480, 0.106441
696.1765, 0.100291
698.1050, 0.094216
700.0334, 0.088820
701.9619, 0.084428
703.8904, 0.081365
705.8188, 0.079607
707.7473, 0.079177
709.6758, 0.080096
711.6042, 0.082107
713.5327, 0.084516
715.4612, 0.086066
717.3896, 0.086413
719.3181, 0.085933
721.2466, 0.084249
723.1750, 0.081992
725.1035, 0.079770
727.0320, 0.077143
728.9604, 0.073658
730.8889, 0.068622
732.8174, 0.062213
734.7458, 0.055597
736.6743, 0.049808
738.6028, 0.045301
740.5313, 0.041951
742.4597, 0.039390
744.3882, 0.037553
746.3167, 0.036060
748.2451, 0.034559
750.1736, 0.033198
752.1021, 0.032328
754.0305, 0.032093
755.9590, 0.031758
757.8875, 0.031360
759.8159, 0.031074
761.7444, 0.030875
763.6729, 0.031042
765.6013, 0.030937
767.5298, 0.030815
769.4583, 0.030829
771.3867, 0.030980
773.3152, 0.031195
775.2437, 0.031311
777.1721, 0.031273
779.1006, 0.031286
781.0291, 0.031224
782.9575, 0.030743
784.8860, 0.029968
786.8145, 0.029262
788.7429, 0.028489
790.6714, 0.027695
792.5999, 0.027021
794.5283, 0.026450
796.4568, 0.025954
798.3853, 0.025594
800.3137, 0.025066
802.2422, 0.024487
804.1707, 0.024337
806.0991, 0.024339
808.0276, 0.024298
809.9561, 0.024259
811.8845, 0.024281
813.8130, 0.024217
815.7415, 0.024107
817.6699, 0.024111
819.5984, 0.024523
821.5269, 0.025106
823.4553, 0.025444
825.3838, 0.025868
827.3123, 0.026291
829.2407, 0.026663
831.1692, 0.027176
833.0977, 0.027889
835.0261, 0.028562
836.9546, 0.029278
838.8831, 0.029952
840.8115, 0.030797
842.7400, 0.031805
844.6685, 0.032604
846.5969, 0.033408
848.5254, 0.034442
850.4539, 0.035668
852.3823, 0.036770
854.3108, 0.037995
856.2393, 0.039337
858.1677, 0.040472
860.0962, 0.041636
862.0247, 0.043019
863.9531, 0.044305
865.8816, 0.045868
867.8101, 0.047647
869.7385, 0.049421
871.6670, 0.051168
873.5955, 0.052959
875.5239, 0.054915
877.4524, 0.056889
879.3809, 0.059021
881.3093, 0.061359
883.2378, 0.063973
885.1663, 0.066881
887.0947, 0.069960
889.0232, 0.073357
890.9517, 0.077044
892.8801, 0.081102
894.8085, 0.085767
896.7370, 0.090813
898.6655, 0.096331
900.5939, 0.102408
902.5224, 0.109536
904.4509, 0.117510
906.3793, 0.126184
908.3078, 0.135899
910.2363, 0.146963
912.1647, 0.159489
914.0932, 0.173006
916.0217, 0.187878
917.9501, 0.204354
919.8786, 0.222501
921.8071, 0.242362
923.7355, 0.263584
925.6640, 0.286077
927.5925, 0.310434
929.5209, 0.336240
931.4494, 0.362896
933.3779, 0.389214
935.3063, 0.412169
937.2348, 0.427672
939.1633, 0.432281
941.0917, 0.423639
943.0202, 0.400879
944.9487, 0.366749
946.8771, 0.329060
948.8056, 0.294173
950.7341, 0.267121
952.6625, 0.253113
954.5910, 0.254388
956.5195, 0.269876
958.4479, 0.296711
960.3764, 0.330391
962.3049, 0.364725
964.2333, 0.393706
966.1618, 0.412600
968.0903, 0.419972
970.0187, 0.421561
971.9472, 0.425831
973.8757, 0.435973
975.8041, 0.446076
977.7326, 0.448086
979.6611, 0.439523
981.5895, 0.422189
983.5180, 0.400804
985.4465, 0.380170
987.3749, 0.362351
989.3034, 0.347588
991.2319, 0.336578
993.1603, 0.329068
995.0888, 0.322515
997.0173, 0.314744
998.9457, 0.305071
1000.8740, 0.296639
1002.8030, 0.293687
1004.7310, 0.296370
1006.6600, 0.299981
1008.5880, 0.299164
1010.5170, 0.293428
1012.4450, 0.286531
1014.3730, 0.280909
1016.3020, 0.276660
1018.2300, 0.272478
1020.1590, 0.265297
1022.0870, 0.253085
1024.0160, 0.238260
1025.9440, 0.224970
1027.8730, 0.214353
1029.8010, 0.205152
1031.7300, 0.196293
1033.6580, 0.187323
1035.5870, 0.178703
1037.5150, 0.170949
1039.4440, 0.164951
1041.3720, 0.161491
1043.3010, 0.160699
1045.2290, 0.161589
1047.1570, 0.162486
1049.0860, 0.162621
1051.0140, 0.161101
1052.9430, 0.156968
1054.8710, 0.151189
1056.8000, 0.145634
1058.7280, 0.141618
1060.6570, 0.138977
1062.5850, 0.136305
1064.5140, 0.131756
1066.4420, 0.125369
1068.3710, 0.118373
1070.2990, 0.111756
1072.2280, 0.106395
1074.1560, 0.102608
1076.0840, 0.100755
1078.0130, 0.101062
1079.9410, 0.103405
1081.8700, 0.107834
1083.7980, 0.114052
1085.7270, 0.122654
1087.6550, 0.133956
1089.5840, 0.146766
1091.5120, 0.158872
1093.4410, 0.167589
1095.3690, 0.169831
1097.2980, 0.165457
1099.2260, 0.156980
1101.1550, 0.147459
1103.0830, 0.139113
1105.0110, 0.132635
1106.9400, 0.127646
1108.8680, 0.123331
1110.7970, 0.118926
1112.7250, 0.113950
1114.6540, 0.108599
1116.5820, 0.103073
1118.5110, 0.097436
1120.4390, 0.091853
1122.3680, 0.086822
1124.2960, 0.082358
1126.2250, 0.078348
1128.1530, 0.074883
1130.0820, 0.071825
1132.0100, 0.068539
1133.9380, 0.064559
1135.8670, 0.060161
1137.7950, 0.055507
1139.7240, 0.050894
1141.6520, 0.046646
1143.5810, 0.042861
1145.5090, 0.039577
1147.4380, 0.036857
1149.3660, 0.034709
1151.2950, 0.032859
1153.2230, 0.031233
1155.1520, 0.029570
1157.0800, 0.028046
1159.0090, 0.026923
1160.9370, 0.025922
1162.8650, 0.024946
1164.7940, 0.024022
1166.7220, 0.023199
1168.6510, 0.022349
1170.5790, 0.021349
1172.5080, 0.020560
1174.4360, 0.019932
1176.3650, 0.019357
1178.2930, 0.018712
1180.2220, 0.017968
1182.1500, 0.017192
1184.0790, 0.016598
1186.0070, 0.016022
1187.9360, 0.015490
1189.8640, 0.014923
1191.7920, 0.014577
1193.7210, 0.014217
1195.6490, 0.013562
1197.5780, 0.012902
1199.5060, 0.012463
1201.4350, 0.012135
1203.3630, 0.011769
1205.2920, 0.011368
1207.2200, 0.011072
1209.1490, 0.010853
1211.0770, 0.010552
1213.0060, 0.010270
1214.9340, 0.009938
1216.8630, 0.009671
1218.7910, 0.009340
1220.7190, 0.008965
1222.6480, 0.008649
1224.5760, 0.008524
1226.5050, 0.008277
1228.4330, 0.008062
1230.3620, 0.007968
1232.2900, 0.007828
1234.2190, 0.007789
1236.1470, 0.007614
1238.0760, 0.007300
1240.0040, 0.007269
1241.9330, 0.007257
1243.8610, 0.007086
1245.7900, 0.006987
1247.7180, 0.006991
1249.6460, 0.006891
1251.5750, 0.006657
1253.5030, 0.006630
1255.4320, 0.006616
1257.3600, 0.006522
1259.2890, 0.006468
1261.2170, 0.006405
1263.1460, 0.006289
1265.0740, 0.006155
1267.0030, 0.006138
1268.9310, 0.006069
1270.8600, 0.005921
1272.7880, 0.005938
1274.7170, 0.005962
1276.6450, 0.005890
1278.5730, 0.005891
1280.5020, 0.005858
1282.4300, 0.005862
1284.3590, 0.005922
1286.2870, 0.005964
1288.2160, 0.005989
1290.1440, 0.005854
1292.0730, 0.005739
1294.0010, 0.005604
1295.9300, 0.005522
1297.8580, 0.005566
1299.7870, 0.005622
1301.7150, 0.005501
1303.6440, 0.005435
1305.5720, 0.005466
1307.5000, 0.005474
1309.4290, 0.005415
1311.3570, 0.005338
1313.2860, 0.005314
1315.2140, 0.005157
1317.1430, 0.005196
1319.0710, 0.005466
1321.0000, 0.005457
1322.9280, 0.005329
1324.8570, 0.005223
1326.7850, 0.005095
1328.7140, 0.005096
1330.6420, 0.005115
1332.5710, 0.004967
1334.4990, 0.004859
1336.4270, 0.004911
1338.3560, 0.004968
1340.2840, 0.005036
1342.2130, 0.005097
1344.1410, 0.005158
1346.0700, 0.005182
1347.9980, 0.005210
1349.9270, 0.005337
1351.8550, 0.005284
1353.7840, 0.005101
1355.7120, 0.004961
1357.6410, 0.004910
1359.5690, 0.004995
1361.4980, 0.005136
1363.4260, 0.005309
1365.3540, 0.005249
1367.2830, 0.005098
1369.2110, 0.005105
1371.1400, 0.005054
1373.0680, 0.004996
1374.9970, 0.005155
1376.9250, 0.005297
1378.8540, 0.005192
1380.7820, 0.005143
1382.7110, 0.005256
1384.6390, 0.005187
1386.5680, 0.005195
1388.4960, 0.005222
1390.4240, 0.005183
1392.3530, 0.005205
1394.2810, 0.005247
1396.2100, 0.005323
1398.1380, 0.005306
1400.0670, 0.005322
1401.9950, 0.005312
1403.9240, 0.005446
1405.8520, 0.005735
1407.7810, 0.005834
1409.7090, 0.005821
1411.6380, 0.005815
1413.5660, 0.005870
1415.4950, 0.005920
1417.4230, 0.006027
1419.3510, 0.006179
1421.2800, 0.005997
1423.2080, 0.005846
1425.1370, 0.005906
1427.0650, 0.005998
1428.9940, 0.006028
1430.9220, 0.005977
1432.8510, 0.005955
1434.7790, 0.006013
1436.7080, 0.006211
1438.6360, 0.006214
1440.5650, 0.006192
1442.4930, 0.006046
1444.4220, 0.006056
1446.3500, 0.006152
1448.2780, 0.006149
1450.2070, 0.006228
1452.1350, 0.006188
1454.0640, 0.006084
1455.9920, 0.006236
1457.9210, 0.006294
1459.8490, 0.006151
1461.7780, 0.005987
1463.7060, 0.006010
1465.6350, 0.006123
1467.5630, 0.005994
1469.4920, 0.005878
1471.4200, 0.005946
1473.3490, 0.006008
1475.2770, 0.005800
1477.2050, 0.005553
1479.1340, 0.005513
1481.0620, 0.005493
1482.9910, 0.005466
1484.9190, 0.005371
1486.8480, 0.005362
1488.7760, 0.005430
1490.7050, 0.005431
1492.6330, 0.005318
1494.5620, 0.005330
1496.4900, 0.005473
1498.4190, 0.005619
1500.3470, 0.005671
1502.2760, 0.005719
1504.2040, 0.005878
1506.1320, 0.006212
1508.0610, 0.006036
1509.9890, 0.005674
1511.9180, 0.005748
1513.8460, 0.005709
1515.7750, 0.005677
1517.7030, 0.005839
1519.6320, 0.006257
1521.5600, 0.006450
1523.4890, 0.006295
1525.4170, 0.006148
1527.3460, 0.006129
1529.2740, 0.006222
1531.2030, 0.006473
1533.1310, 0.006687
1535.0590, 0.006878
1536.9880, 0.007080
1538.9160, 0.007468
1540.8450, 0.007597
1542.7730, 0.007670
1544.7020, 0.007920
1546.6300, 0.007991
1548.5590, 0.008195
1550.4870, 0.008468
1552.4160, 0.008547
1554.3440, 0.008734
1556.2730, 0.009266
1558.2010, 0.010003
1560.1300, 0.010100
1562.0580, 0.009782
1563.9860, 0.009925
1565.9150, 0.010057
1567.8430, 0.010340
1569.7720, 0.010686
1571.7000, 0.010909
1573.6290, 0.011420
1575.5570, 0.012295
1577.4860, 0.012882
1579.4140, 0.013214
1581.3430, 0.013712
1583.2710, 0.014277
1585.2000, 0.014924
1587.1280, 0.015581
1589.0570, 0.016122
1590.9850, 0.016182
1592.9130, 0.015968
1594.8420, 0.015873
1596.7700, 0.015678
1598.6990, 0.015091
1600.6270, 0.014408
1602.5560, 0.013991
1604.4840, 0.013693
1606.4130, 0.013425
1608.3410, 0.013118
1610.2700, 0.012887
1612.1980, 0.012756
1614.1270, 0.012874
1616.0550, 0.013365
1617.9840, 0.013549
1619.9120, 0.013792
1621.8400, 0.014231
1623.7690, 0.014731
1625.6970, 0.015412
1627.6260, 0.016103
1629.5540, 0.016934
1631.4830, 0.018034
1633.4110, 0.019537
1635.3400, 0.021497
1637.2680, 0.023520
1639.1970, 0.026254
1641.1250, 0.030182
1643.0540, 0.034150
1644.9820, 0.036934
1646.9110, 0.037029
1648.8390, 0.034821
1650.7670, 0.032686
1652.6960, 0.032349
1654.6240, 0.033206
1656.5530, 0.036014
1658.4810, 0.040888
1660.4100, 0.044984
1662.3380, 0.044911
1664.2670, 0.039789
1666.1950, 0.032284
1668.1240, 0.025630
1670.0520, 0.020756
1671.9810, 0.017309
1673.9090, 0.014874
1675.8380, 0.012948
1677.7660, 0.011287
1679.6940, 0.010193
1681.6230, 0.009551
1683.5510, 0.009258
1685.4800, 0.008519
1687.4080, 0.007749
1689.3370, 0.007322
1691.2650, 0.006853
1693.1940, 0.006549
1695.1220, 0.006706
1697.0510, 0.006506
1698.9790, 0.006380
1700.9080, 0.006336
1702.8360, 0.005962
1704.7650, 0.005694
1706.6930, 0.005406
1708.6210, 0.005304
1710.5500, 0.005269
1712.4780, 0.005029
1714.4070, 0.005094
1716.3350, 0.005291
1718.2640, 0.005210
1720.1920, 0.004829
1722.1210, 0.004524
1724.0490, 0.004535
1725.9780, 0.004678
1727.9060, 0.004584
1729.8350, 0.004449
1731.7630, 0.004657
1733.6920, 0.004882
1735.6200, 0.004416
1737.5480, 0.004222
1739.4770, 0.004363
1741.4050, 0.004492
1743.3340, 0.004241
1745.2620, 0.004040
1747.1910, 0.004018
1749.1190, 0.003961
1751.0480, 0.003988
1752.9760, 0.003615
1754.9050, 0.003314
1756.8330, 0.003589
1758.7620, 0.003675
1760.6900, 0.003553
1762.6190, 0.003426
1764.5470, 0.003270
1766.4750, 0.003340
1768.4040, 0.003436
1770.3320, 0.003552
1772.2610, 0.003735
1774.1890, 0.003401
1776.1180, 0.003124
1778.0460, 0.003314
1779.9750, 0.003397
1781.9030, 0.003485
1783.8320, 0.003513
1785.7600, 0.003361
1787.6890, 0.003034
1789.6170, 0.002934
1791.5460, 0.003132
1793.4740, 0.002876
1795.4020, 0.002577
1797.3310, 0.002703
1799.2590, 0.002520
1801.1880, 0.002597
1803.1160, 0.002693
1805.0450, 0.002454
1806.9730, 0.002480
1808.9020, 0.002540
1810.8300, 0.002436
1812.7590, 0.002230
1814.6870, 0.001931
1816.6160, 0.001982
1818.5440, 0.002084
1820.4730, 0.002331
1822.4010, 0.002561
1824.3290, 0.002100
1826.2580, 0.001594
1828.1860, 0.001635
1830.1150, 0.002130
1832.0430, 0.001809
1833.9720, 0.001463
1835.9000, 0.001325
1837.8290, 0.001172
1839.7570, 0.001171
1841.6860, 0.000985
1843.6140, 0.000736
1845.5430, 0.000737
1847.4710, 0.001037
1849.4000, 0.001447
1851.3280, 0.001113
1853.2560, 0.000551
1855.1850, 0.000470
1857.1130, 0.000785
1859.0420, 0.000529
1860.9700, 0.000406
1862.8990, 0.000395
1864.8270, 0.000277
1866.7560, 0.000302
1868.6840, -0.000233
1870.6130, -0.000558
1872.5410, -0.000520
1874.4700, -0.000305
1876.3980, -0.000241
1878.3270, -0.000608
1880.2550, -0.001040
1882.1830, -0.000909
1884.1120, -0.000915
1886.0400, -0.000887
1887.9690, -0.000813
1889.8970, -0.000964
1891.8260, -0.000831
1893.7540, -0.000389
1895.6830, -0.000534
1897.6110, -0.000515
1899.5400, -0.000334
1901.4680, -0.000325
1903.3970, -0.000510
1905.3250, -0.000964
1907.2540, -0.000953
1909.1820, -0.000689
1911.1100, -0.000999
1913.0390, -0.001287
1914.9670, -0.001415
1916.8960, -0.001829
1918.8240, -0.001920
1920.7530, -0.001601
1922.6810, -0.002055
1924.6100, -0.003052
1926.5380, -0.003616
1928.4670, -0.003596
1930.3950, -0.003035
1932.3240, -0.002743
1934.2520, -0.002356
1936.1810, -0.003699
1938.1090, -0.004750
1940.0370, -0.004902
1941.9660, -0.005513
1943.8940, -0.005251
1945.8230, -0.004147
1947.7510, -0.004311
1949.6800, -0.004453
1951.6080, -0.004851
1953.5370, -0.005709
1955.4650, -0.006209
1957.3940, -0.007699
1959.3220, -0.007912
1961.2510, -0.006611
1963.1790, -0.006191
1965.1080, -0.006201
1967.0360, -0.007138
1968.9640, -0.008713
1970.8930, -0.008165
1972.8210, -0.006655
1974.7500, -0.007635
1976.6780, -0.008040
1978.6070, -0.007026
1980.5350, -0.006649
1982.4640, -0.006501
1984.3920, -0.005410
1986.3210, -0.005037
1988.2490, -0.004954
1990.1780, -0.003225
1992.1060, -0.002461
1994.0350, -0.004566
1995.9630, -0.006486
1997.8910, -0.006118
1999.8200, -0.005294
2001.7480, -0.006110
2003.6770, -0.007313
2005.6050, -0.006238
2007.5340, -0.005745
2009.4620, -0.006575
2011.3910, -0.006639
2013.3190, -0.007509
2015.2480, -0.007999
2017.1760, -0.007639
2019.1050, -0.006224
2021.0330, -0.006740
2022.9620, -0.006815
2024.8900, -0.006145
2026.8180, -0.006444
2028.7470, -0.007737
2030.6750, -0.007315
2032.6040, -0.005190
2034.5320, -0.004006
2036.4610, -0.004309
2038.3890, -0.005215
2040.3180, -0.005300
2042.2460, -0.004586
2044.1750, -0.003314
2046.1030, -0.003227
2048.0320, -0.003358
2049.9600, -0.001447
2051.8890, -0.001613
2053.8170, -0.002332
2055.7460, -0.002057
2057.6740, -0.000528
2059.6030, 0.000170
2061.5310, -0.000631
2063.4590, -0.001100
2065.3880, -0.001017
2067.3160, -0.000499
2069.2450, 0.000109
2071.1730, -0.000091
2073.1020, -0.000134
2075.0300, -0.000048
2076.9590, 0.000027
2078.8870, 0.000091
2080.8160, 0.000389
2082.7440, 0.000780
2084.6730, 0.001128
2086.6010, 0.001196
2088.5300, 0.000857
2090.4580, 0.000782
2092.3860, -0.000311
2094.3150, -0.000934
2096.2430, -0.000800
2098.1720, -0.000680
2100.1000, 0.000375
2102.0290, 0.000711
2103.9570, -0.000375
2105.8860, -0.000152
2107.8140, 0.000777
2109.7430, 0.000653
2111.6710, 0.000514
2113.6000, 0.000888
2115.5280, 0.000876
2117.4570, 0.000299
2119.3850, -0.000287
2121.3130, 0.000240
2123.2420, 0.000662
2125.1700, 0.000049
2127.0990, -0.000492
2129.0270, -0.000503
2130.9560, -0.001134
2132.8840, -0.002160
2134.8130, -0.001962
2136.7410, -0.001180
2138.6700, -0.001121
2140.5980, -0.000813
2142.5270, -0.001126
2144.4550, -0.002066
2146.3840, -0.002265
2148.3120, -0.001664
2150.2400, -0.000563
2152.1690, -0.001931
2154.0970, -0.004642
2156.0260, -0.005870
2157.9540, -0.003636
2159.8830, -0.000731
2161.8110, -0.000287
2163.7400, 0.000874
2165.6680, 0.001809
2167.5970, 0.000794
2169.5250, 0.000084
2171.4540, 0.000352
2173.3820, -0.001384
2175.3110, -0.001370
2177.2390, -0.000517
2179.1670, -0.000795
2181.0960, -0.001657
2183.0240, -0.000970
2184.9530, -0.000150
2186.8810, -0.000960
2188.8100, -0.001700
2190.7380, 0.000287
2192.6670, 0.000368
2194.5950, -0.000298
2196.5240, -0.000793
2198.4520, -0.000255
2200.3810, -0.000287
2202.3090, 0.000178
2204.2380, 0.001014
2206.1660, 0.001384
2208.0940, 0.001455
2210.0230, 0.001142
2211.9510, 0.000886
2213.8800, 0.000888
2215.8080, 0.001014
2217.7370, 0.001320
2219.6650, 0.001450
2221.5940, 0.001461
2223.5220, 0.001612
2225.4510, 0.002295
2227.3790, 0.002905
2229.3080, 0.003315
2231.2360, 0.003474
2233.1650, 0.003483
2235.0930, 0.003241
2237.0210, 0.002756
2238.9500, 0.001857
2240.8780, 0.002836
2242.8070, 0.003458
2244.7350, 0.002291
2246.6640, 0.002199
2248.5920, 0.002256
2250.5210, 0.001872
2252.4490, 0.002341
2254.3780, 0.003153
2256.3060, 0.004366
2258.2350, 0.004496
2260.1630, 0.003582
2262.0920, 0.003712
2264.0200, 0.003941
2265.9480, 0.004063
2267.8770, 0.004335
2269.8050, 0.005013
2271.7340, 0.005311
2273.6620, 0.004983
2275.5910, 0.005207
2277.5190, 0.005174
2279.4480, 0.005019
2281.3760, 0.006221
2283.3050, 0.006765
2285.2330, 0.005793
2287.1620, 0.005105
2289.0900, 0.005111
2291.0190, 0.005630
2292.9470, 0.005941
2294.8750, 0.005864
2296.8040, 0.006065
2298.7320, 0.005919
2300.6610, 0.005584
2302.5890, 0.005470
2304.5180, 0.005592
2306.4460, 0.005502
2308.3750, 0.006039
2310.3030, 0.006153
2312.2320, 0.005625
2314.1600, 0.005545
2316.0890, 0.006080
2318.0170, 0.005947
2319.9460, 0.006038
2321.8740, 0.006909
2323.8020, 0.007342
2325.7310, 0.006492
2327.6590, 0.006089
2329.5880, 0.006260
2331.5160, 0.005814
2333.4450, 0.005302
2335.3730, 0.005199
2337.3020, 0.005542
2339.2300, 0.005736
2341.1590, 0.005493
2343.0870, 0.004980
2345.0160, 0.005015
2346.9440, 0.005261
2348.8730, 0.005183
2350.8010, 0.005206
2352.7290, 0.005298
2354.6580, 0.005364
2356.5860, 0.005486
2358.5150, 0.005583
2360.4430, 0.005698
2362.3720, 0.005412
2364.3000, 0.004817
2366.2290, 0.004900
2368.1570, 0.005002
2370.0860, 0.004820
2372.0140, 0.004676
2373.9420, 0.004625
2375.8710, 0.004446
2377.7990, 0.004224
2379.7280, 0.004053
2381.6560, 0.003806
2383.5850, 0.003919
2385.5130, 0.004599
2387.4420, 0.004464
2389.3700, 0.003424
2391.2990, 0.003493
2393.2270, 0.004058
2395.1560, 0.003923
2397.0840, 0.004057
2399.0120, 0.004371
2400.9410, 0.004417
2402.8690, 0.003993
2404.7980, 0.003646
2406.7260, 0.003826
2408.6550, 0.003919
2410.5830, 0.003807
2412.5120, 0.003732
2414.4400, 0.003818
2416.3690, 0.003960
2418.2970, 0.004442
2420.2260, 0.004785
2422.1540, 0.004852
2424.0830, 0.004837
2426.0110, 0.004260
2427.9390, 0.003969
2429.8680, 0.004013
2431.7960, 0.003997
2433.7250, 0.003881
2435.6530, 0.004159
2437.5820, 0.004034
2439.5100, 0.003886
2441.4390, 0.004383
2443.3670, 0.004567
2445.2960, 0.004234
2447.2240, 0.004364
2449.1530, 0.005116
2451.0810, 0.005029
2453.0100, 0.004118
2454.9380, 0.003913
2456.8660, 0.004005
2458.7950, 0.003827
2460.7230, 0.003581
2462.6520, 0.003582
2464.5800, 0.003703
2466.5090, 0.003631
2468.4370, 0.003506
2470.3660, 0.003553
2472.2940, 0.003931
2474.2230, 0.003982
2476.1510, 0.003566
2478.0800, 0.004126
2480.0080, 0.004463
2481.9370, 0.004209
2483.8650, 0.003999
2485.7930, 0.003491
2487.7220, 0.003296
2489.6500, 0.003836
2491.5790, 0.003997
2493.5070, 0.004139
2495.4360, 0.004215
2497.3640, 0.003609
2499.2930, 0.003556
2501.2210, 0.003919
2503.1500, 0.003885
2505.0780, 0.004221
2507.0070, 0.004450
2508.9350, 0.004226
2510.8640, 0.004275
2512.7920, 0.004139
2514.7200, 0.004049
2516.6490, 0.003970
2518.5770, 0.003875
2520.5060, 0.004019
2522.4340, 0.004025
2524.3630, 0.003831
2526.2910, 0.003791
2528.2200, 0.003900
2530.1480, 0.003822
2532.0770, 0.004141
2534.0050, 0.003726
2535.9340, 0.003571
2537.8620, 0.004501
2539.7910, 0.004536
2541.7190, 0.004138
2543.6470, 0.004342
2545.5760, 0.004094
2547.5040, 0.004202
2549.4330, 0.004522
2551.3610, 0.004301
2553.2900, 0.004327
2555.2180, 0.004369
2557.1470, 0.004022
2559.0750, 0.003931
2561.0040, 0.003734
2562.9320, 0.003832
2564.8610, 0.004026
2566.7890, 0.004193
2568.7180, 0.004432
2570.6460, 0.004919
2572.5740, 0.004971
2574.5030, 0.004657
2576.4310, 0.004536
2578.3600, 0.004691
2580.2880, 0.004995
2582.2170, 0.005429
2584.1450, 0.005108
2586.0740, 0.004740
2588.0020, 0.004827
2589.9310, 0.005083
2591.8590, 0.005443
2593.7880, 0.005355
2595.7160, 0.005138
2597.6450, 0.004980
2599.5730, 0.004886
2601.5010, 0.004462
2603.4300, 0.004634
2605.3580, 0.005451
2607.2870, 0.005730
2609.2150, 0.005747
2611.1440, 0.005681
2613.0720, 0.005193
2615.0010, 0.005422
2616.9290, 0.005420
2618.8580, 0.005511
2620.7860, 0.005661
2622.7150, 0.005576
2624.6430, 0.005468
2626.5720, 0.005763
2628.5000, 0.005781
2630.4280, 0.006022
2632.3570, 0.006256
2634.2850, 0.006052
2636.2140, 0.006181
2638.1420, 0.006242
2640.0710, 0.006133
2641.9990, 0.006151
2643.9280, 0.006134
2645.8560, 0.006047
2647.7850, 0.006240
2649.7130, 0.006349
2651.6420, 0.005713
2653.5700, 0.005672
2655.4990, 0.006122
2657.4270, 0.006297
2659.3550, 0.006146
2661.2840, 0.005679
2663.2120, 0.005641
2665.1410, 0.005841
2667.0690, 0.005683
2668.9980, 0.005640
2670.9260, 0.005481
2672.8550, 0.005544
2674.7830, 0.005703
2676.7120, 0.006080
2678.6400, 0.006365
2680.5690, 0.005857
2682.4970, 0.005354
2684.4260, 0.005604
2686.3540, 0.005746
2688.2820, 0.005615
2690.2110, 0.005601
2692.1390, 0.005366
2694.0680, 0.005393
2695.9960, 0.005875
2697.9250, 0.005893
2699.8530, 0.005273
2701.7820, 0.005468
2703.7100, 0.005921
2705.6390, 0.006249
2707.5670, 0.006374
2709.4960, 0.006302
2711.4240, 0.006269
2713.3530, 0.006330
2715.2810, 0.006477
2717.2090, 0.006507
2719.1380, 0.006477
2721.0660, 0.006186
2722.9950, 0.006077
2724.9230, 0.006598
2726.8520, 0.007004
2728.7800, 0.006799
2730.7090, 0.006656
2732.6370, 0.006607
2734.5660, 0.006383
2736.4940, 0.005950
2738.4230, 0.006076
2740.3510, 0.006314
2742.2800, 0.006727
2744.2080, 0.007005
2746.1360, 0.006977
2748.0650, 0.006944
2749.9930, 0.006895
2751.9220, 0.007270
2753.8500, 0.007278
2755.7790, 0.006774
2757.7070, 0.006885
2759.6360, 0.007153
2761.5640, 0.007007
2763.4930, 0.007014
2765.4210, 0.007200
2767.3500, 0.007589
2769.2780, 0.008087
2771.2070, 0.008210
2773.1350, 0.007608
2775.0630, 0.007293
2776.9920, 0.007355
2778.9200, 0.007103
2780.8490, 0.007226
2782.7770, 0.007657
2784.7060, 0.007753
2786.6340, 0.007300
2788.5630, 0.007532
2790.4910, 0.007490
2792.4200, 0.007345
2794.3480, 0.007996
2796.2770, 0.008114
2798.2050, 0.007802
2800.1340, 0.007391
2802.0620, 0.007355
2803.9900, 0.007791
2805.9190, 0.007953
2807.8470, 0.007249
2809.7760, 0.006972
2811.7040, 0.007186
2813.6330, 0.007273
2815.5610, 0.007618
2817.4900, 0.008200
2819.4180, 0.007903
2821.3470, 0.007624
2823.2750, 0.007602
2825.2040, 0.007575
2827.1320, 0.007587
2829.0610, 0.007971
2830.9890, 0.008333
2832.9170, 0.008577
2834.8460, 0.008386
2836.7740, 0.007769
2838.7030, 0.007583
2840.6310, 0.007795
2842.5600, 0.008265
2844.4880, 0.008423
2846.4170, 0.008283
2848.3450, 0.008169
2850.2740, 0.008522
2852.2020, 0.008938
2854.1310, 0.009134
2856.0590, 0.009270
2857.9880, 0.009504
2859.9160, 0.009205
2861.8440, 0.008922
2863.7730, 0.009063
2865.7010, 0.009174
2867.6300, 0.009279
2869.5580, 0.009213
2871.4870, 0.008767
2873.4150, 0.008804
2875.3440, 0.009318
2877.2720, 0.009223
2879.2010, 0.009508
2881.1290, 0.010143
2883.0580, 0.010195
2884.9860, 0.009823
2886.9150, 0.009925
2888.8430, 0.009730
2890.7710, 0.009265
2892.7000, 0.009555
2894.6280, 0.009978
2896.5570, 0.009798
2898.4850, 0.010059
2900.4140, 0.010709
2902.3420, 0.010437
2904.2710, 0.009552
2906.1990, 0.010239
2908.1280, 0.011010
2910.0560, 0.010920
2911.9850, 0.010735
2913.9130, 0.011200
2915.8420, 0.011030
2917.7700, 0.011295
2919.6980, 0.011253
2921.6270, 0.010995
2923.5550, 0.010650
2925.4840, 0.010833
2927.4120, 0.011059
2929.3410, 0.011171
2931.2690, 0.011944
2933.1980, 0.012725
2935.1260, 0.012760
2937.0550, 0.012160
2938.9830, 0.012221
2940.9120, 0.012221
2942.8400, 0.012001
2944.7690, 0.011878
2946.6970, 0.011845
2948.6250, 0.012451
2950.5540, 0.013010
2952.4820, 0.013179
2954.4110, 0.013214
2956.3390, 0.013035
2958.2680, 0.013133
2960.1960, 0.013169
2962.1250, 0.013120
2964.0530, 0.012757
2965.9820, 0.013121
2967.9100, 0.013516
2969.8390, 0.013674
2971.7670, 0.013986
2973.6960, 0.013799
2975.6240, 0.013603
2977.5520, 0.014165
2979.4810, 0.014502
2981.4090, 0.014343
2983.3380, 0.014525
2985.2660, 0.015074
2987.1950, 0.015101
2989.1230, 0.015516
2991.0520, 0.015698
2992.9800, 0.015389
2994.9090, 0.014864
2996.8370, 0.014771
2998.7660, 0.014530
3000.6940, 0.014264
3002.6230, 0.015070
3004.5510, 0.015464
3006.4790, 0.015823
3008.4080, 0.016365
3010.3360, 0.016508
3012.2650, 0.016248
3014.1930, 0.016924
3016.1220, 0.017337
3018.0500, 0.016620
3019.9790, 0.016314
3021.9070, 0.016752
3023.8360, 0.017394
3025.7640, 0.017630
3027.6930, 0.017739
3029.6210, 0.017835
3031.5500, 0.018032
3033.4780, 0.018508
3035.4060, 0.018288
3037.3350, 0.018219
3039.2630, 0.018605
3041.1920, 0.018414
3043.1200, 0.018299
3045.0490, 0.018640
3046.9770, 0.018428
3048.9060, 0.018481
3050.8340, 0.019014
3052.7630, 0.019279
3054.6910, 0.019646
3056.6200, 0.019605
3058.5480, 0.019375
3060.4770, 0.019191
3062.4050, 0.019513
3064.3330, 0.019986
3066.2620, 0.019741
3068.1900, 0.019611
3070.1190, 0.019779
3072.0470, 0.019547
3073.9760, 0.019771
3075.9040, 0.019861
3077.8330, 0.019920
3079.7610, 0.020421
3081.6900, 0.020881
3083.6180, 0.020859
3085.5470, 0.021168
3087.4750, 0.021269
3089.4040, 0.021555
3091.3320, 0.021959
3093.2600, 0.021736
3095.1890, 0.021596
3097.1170, 0.021837
3099.0460, 0.022271
3100.9740, 0.022742
3102.9030, 0.022848
3104.8310, 0.022674
3106.7600, 0.022866
3108.6880, 0.023728
3110.6170, 0.024383
3112.5450, 0.024587
3114.4740, 0.025308
3116.4020, 0.025123
3118.3310, 0.024777
3120.2590, 0.025480
3122.1880, 0.025973
3124.1160, 0.026061
3126.0440, 0.025806
3127.9730, 0.025307
3129.9010, 0.025043
3131.8300, 0.025986
3133.7580, 0.027514
3135.6870, 0.028193
3137.6150, 0.028013
3139.5440, 0.027386
3141.4720, 0.027644
3143.4010, 0.028645
3145.3290, 0.029768
3147.2580, 0.030161
3149.1860, 0.030860
3151.1150, 0.031424
3153.0430, 0.031607
3154.9710, 0.031765
3156.9000, 0.031887
3158.8280, 0.031968
3160.7570, 0.032934
3162.6850, 0.034662
3164.6140, 0.035914
3166.5420, 0.036228
3168.4710, 0.036623
3170.3990, 0.037958
3172.3280, 0.039200
3174.2560, 0.040359
3176.1850, 0.041224
3178.1130, 0.042302
3180.0420, 0.043580
3181.9700, 0.045111
3183.8980, 0.046649
3185.8270, 0.047031
3187.7550, 0.047800
3189.6840, 0.049680
3191.6120, 0.051391
3193.5410, 0.051879
3195.4690, 0.052092
3197.3980, 0.052838
3199.3260, 0.052787
3201.2550, 0.052809
3203.1830, 0.052926
3205.1120, 0.052652
3207.0400, 0.051533
3208.9690, 0.050105
3210.8970, 0.049445
3212.8250, 0.048662
3214.7540, 0.048526
3216.6820, 0.049020
3218.6110, 0.048486
3220.5390, 0.046995
3222.4680, 0.045540
3224.3960, 0.044391
3226.3250, 0.043869
3228.2530, 0.045287
3230.1820, 0.045941
3232.1100, 0.045633
3234.0390, 0.044935
3235.9670, 0.044553
3237.8960, 0.045246
3239.8240, 0.045535
3241.7520, 0.045616
3243.6810, 0.045463
3245.6090, 0.045609
3247.5380, 0.045964
3249.4660, 0.046019
3251.3950, 0.046123
3253.3230, 0.047148
3255.2520, 0.047634
3257.1800, 0.047989
3259.1090, 0.048170
3261.0370, 0.047391
3262.9660, 0.047875
3264.8940, 0.048558
3266.8230, 0.048302
3268.7510, 0.049062
3270.6790, 0.049096
3272.6080, 0.048820
3274.5360, 0.048837
3276.4650, 0.048668
3278.3930, 0.048143
3280.3220, 0.046705
3282.2500, 0.045636
3284.1790, 0.044372
3286.1070, 0.043055
3288.0360, 0.042601
3289.9640, 0.042981
3291.8930, 0.042071
3293.8210, 0.041899
3295.7500, 0.042087
3297.6780, 0.041105
3299.6060, 0.040936
3301.5350, 0.041910
3303.4630, 0.042397
3305.3920, 0.042786
3307.3200, 0.042225
3309.2490, 0.041447
3311.1770, 0.042159
3313.1060, 0.042230
3315.0340, 0.041816
3316.9630, 0.043394
3318.8910, 0.044667
3320.8200, 0.044147
3322.7480, 0.043872
3324.6770, 0.044600
3326.6050, 0.045583
3328.5330, 0.046649
3330.4620, 0.047462
3332.3900, 0.049031
3334.3190, 0.050418
3336.2470, 0.051458
3338.1760, 0.053423
3340.1040, 0.054947
3342.0330, 0.056271
3343.9610, 0.058300
3345.8900, 0.059647
3347.8180, 0.060992
3349.7470, 0.062208
3351.6750, 0.064089
3353.6040, 0.065582
3355.5320, 0.065785
3357.4600, 0.066701
3359.3890, 0.068451
3361.3170, 0.069456
3363.2460, 0.069297
3365.1740, 0.069277
3367.1030, 0.069285
3369.0310, 0.068960
3370.9600, 0.069426
3372.8880, 0.070429
3374.8170, 0.070536
3376.7450, 0.070964
3378.6740, 0.072092
3380.6020, 0.073352
3382.5310, 0.074023
3384.4590, 0.074630
3386.3870, 0.074858
3388.3160, 0.074199
3390.2440, 0.074485
3392.1730, 0.074492
3394.1010, 0.075180
3396.0300, 0.075149
3397.9580, 0.073270
3399.8870, 0.071171
3401.8150, 0.070042
3403.7440, 0.068778
3405.6720, 0.066535
3407.6010, 0.064972
3409.5290, 0.063200
3411.4580, 0.060693
3413.3860, 0.059387
3415.3140, 0.059014
3417.2430, 0.057474
3419.1710, 0.055326
3421.1000, 0.054761
3423.0280, 0.053915
3424.9570, 0.052606
3426.8850, 0.052758
3428.8140, 0.053364
3430.7420, 0.052407
3432.6710, 0.050995
3434.5990, 0.050058
3436.5280, 0.050372
3438.4560, 0.051807
3440.3850, 0.051782
3442.3130, 0.051303
3444.2410, 0.051243
3446.1700, 0.050730
3448.0980, 0.050026
3450.0270, 0.049930
3451.9550, 0.051003
3453.8840, 0.051617
3455.8120, 0.051429
3457.7410, 0.051438
3459.6690, 0.052069
3461.5980, 0.052731
3463.5260, 0.052783
3465.4550, 0.052946
3467.3830, 0.052927
3469.3120, 0.052323
3471.2400, 0.051647
3473.1680, 0.051848
3475.0970, 0.051732
3477.0250, 0.050783
3478.9540, 0.050112
3480.8820, 0.050001
3482.8110, 0.049349
3484.7390, 0.049318
3486.6680, 0.048965
3488.5960, 0.047553
3490.5250, 0.047069
3492.4530, 0.047132
3494.3820, 0.048440
3496.3100, 0.049208
3498.2390, 0.048485
3500.1670, 0.048675
3502.0950, 0.050181
3504.0240, 0.051987
3505.9520, 0.053069
3507.8810, 0.054230
3509.8090, 0.055824
3511.7380, 0.057589
3513.6660, 0.059835
3515.5950, 0.062987
3517.5230, 0.065813
3519.4520, 0.067909
3521.3800, 0.069832
3523.3090, 0.072411
3525.2370, 0.075225
3527.1660, 0.077100
3529.0940, 0.080372
3531.0220, 0.082705
3532.9510, 0.082335
3534.8790, 0.080859
3536.8080, 0.078879
3538.7360, 0.075642
3540.6650, 0.072113
3542.5930, 0.068889
3544.5220, 0.066462
3546.4500, 0.063746
3548.3790, 0.062143
3550.3070, 0.060861
3552.2360, 0.058950
3554.1640, 0.057195
3556.0930, 0.056962
3558.0210, 0.056029
3559.9490, 0.055160
3561.8780, 0.054601
3563.8060, 0.053672
3565.7350, 0.052791
3567.6630, 0.052541
3569.5920, 0.051672
3571.5200, 0.049334
3573.4490, 0.046512
3575.3770, 0.044892
3577.3060, 0.042833
3579.2340, 0.040920
3581.1630, 0.040272
3583.0910, 0.038914
3585.0200, 0.036263
3586.9480, 0.035231
3588.8760, 0.033949
3590.8050, 0.032467
3592.7330, 0.032675
3594.6620, 0.032530
3596.5900, 0.031150
3598.5190, 0.030895
3600.4470, 0.030134
3602.3760, 0.028415
3604.3040, 0.026507
3606.2330, 0.025278
3608.1610, 0.025585
3610.0900, 0.024807
3612.0180, 0.023539
3613.9470, 0.022845
3615.8750, 0.022620
3617.8030, 0.021857
3619.7320, 0.020819
3621.6600, 0.020463
3623.5890, 0.020613
3625.5170, 0.020842
3627.4460, 0.019888
3629.3740, 0.017879
3631.3030, 0.017001
3633.2310, 0.015678
3635.1600, 0.016355
3637.0880, 0.017148
3639.0170, 0.017114
3640.9450, 0.015225
3642.8740, 0.012968
3644.8020, 0.012698
3646.7300, 0.012927
3648.6590, 0.012344
3650.5870, 0.011272
3652.5160, 0.010271
3654.4440, 0.010426
3656.3730, 0.010911
3658.3010, 0.011829
3660.2300, 0.012025
3662.1580, 0.011295
3664.0870, 0.010356
3666.0150, 0.009845
3667.9440, 0.008907
3669.8720, 0.009419
3671.8010, 0.011913
3673.7290, 0.012899
3675.6570, 0.014283
3677.5860, 0.013558
3679.5140, 0.010464
3681.4430, 0.009503
3683.3710, 0.008842
3685.3000, 0.008584
3687.2280, 0.008193
3689.1570, 0.008035
3691.0850, 0.009111
3693.0140, 0.009856
3694.9420, 0.009426
3696.8710, 0.008378
3698.7990, 0.007471
3700.7280, 0.008043
3702.6560, 0.009624
3704.5840, 0.009312
3706.5130, 0.008019
3708.4410, 0.006934
3710.3700, 0.006774
3712.2980, 0.008101
3714.2270, 0.007467
3716.1550, 0.006321
3718.0840, 0.006629
3720.0120, 0.007031
3721.9410, 0.007263
3723.8690, 0.008047
3725.7980, 0.008317
3727.7260, 0.007495
3729.6550, 0.006997
3731.5830, 0.007946
3733.5110, 0.008395
3735.4400, 0.008539
3737.3680, 0.008116
3739.2970, 0.007284
3741.2250, 0.007085
3743.1540, 0.007461
3745.0820, 0.006803
3747.0110, 0.007507
3748.9390, 0.008897
3750.8680, 0.007991
3752.7960, 0.008298
3754.7250, 0.009469
3756.6530, 0.009347
3758.5820, 0.008831
3760.5100, 0.008930
3762.4380, 0.009213
3764.3670, 0.008757
3766.2950, 0.007621
3768.2240, 0.009066
3770.1520, 0.009780
3772.0810, 0.009508
3774.0090, 0.008958
3775.9380, 0.007377
3777.8660, 0.007398
3779.7950, 0.007775
3781.7230, 0.008140
3783.6520, 0.008201
3785.5800, 0.007974
3787.5090, 0.008143
3789.4370, 0.008624
3791.3650, 0.007989
3793.2940, 0.006581
3795.2220, 0.006720
3797.1510, 0.006946
3799.0790, 0.007941
3801.0080, 0.008571
3802.9360, 0.008335
3804.8650, 0.008897
3806.7930, 0.008641
3808.7220, 0.008458
3810.6500, 0.008189
3812.5790, 0.008125
3814.5070, 0.008411
3816.4360, 0.008745
3818.3640, 0.008716
3820.2920, 0.009905
3822.2210, 0.009899
3824.1490, 0.009478
3826.0780, 0.010431
3828.0060, 0.009483
3829.9350, 0.008180
3831.8630, 0.007568
3833.7920, 0.007834
3835.7200, 0.008396
3837.6490, 0.008568
3839.5770, 0.009560
3841.5060, 0.010178
3843.4340, 0.009000
3845.3630, 0.007944
3847.2910, 0.008688
3849.2190, 0.010772
3851.1480, 0.011487
3853.0760, 0.012205
3855.0050, 0.011274
3856.9330, 0.009309
3858.8620, 0.008404
3860.7900, 0.008806
3862.7190, 0.008436
3864.6470, 0.007536
3866.5760, 0.008617
3868.5040, 0.008996
3870.4330, 0.007958
3872.3610, 0.008699
3874.2900, 0.009683
3876.2180, 0.009495
3878.1460, 0.010208
3880.0750, 0.010573
3882.0030, 0.010410
3883.9320, 0.010450
3885.8600, 0.009590
3887.7890, 0.008001
3889.7170, 0.007919
3891.6460, 0.008031
3893.5740, 0.008188
3895.5030, 0.007594
3897.4310, 0.008563
3899.3600, 0.010101
3901.2880, 0.009473
3903.2170, 0.008781
3905.1450, 0.009973
3907.0730, 0.011044
3909.0020, 0.010254
3910.9300, 0.008534
3912.8590, 0.007646
3914.7870, 0.009422
3916.7160, 0.009543
3918.6440, 0.008991
3920.5730, 0.009206
3922.5010, 0.009271
3924.4300, 0.009404
3926.3580, 0.009187
3928.2870, 0.009131
3930.2150, 0.009754
3932.1440, 0.008786
3934.0720, 0.007630
3936.0000, 0.008027
3937.9290, 0.009452
3939.8570, 0.010333
3941.7860, 0.009908
3943.7140, 0.008955
3945.6430, 0.008984
3947.5710, 0.010160
3949.5000, 0.009439
3951.4280, 0.008454
3953.3570, 0.008269
3955.2850, 0.008284
3957.2140, 0.008991
3959.1420, 0.008790
3961.0710, 0.007948
3962.9990, 0.008052
3964.9270, 0.009808
3966.8560, 0.010413
3968.7840, 0.009398
3970.7130, 0.009385
3972.6410, 0.008633
3974.5700, 0.008149
3976.4980, 0.009000
3978.4270, 0.009269
3980.3550, 0.008930
3982.2840, 0.010070
3984.2120, 0.010125
3986.1410, 0.008927
3988.0690, 0.009042
3989.9980, 0.009443
3991.9260, 0.009866
3993.8540, 0.009433
3995.7830, 0.008480
3997.7110, 0.008645
3999.6400, 0.008649
##END=



