##NAMES=Phlogopite
##RRUFFID=R040144
##IDEAL CHEMISTRY=KMg_3_(Si_3_Al)O_10_(OH)_2_
##LOCALITY=Brinton's Quarry, Chester County, Pennsylvania, USA
##OWNER=RRUFF
##SOURCE=University of Arizona Mineral Museum
##DESCRIPTION=Dark green mica book
##STATUS=The identification of this mineral has been confirmed by X-ray diffraction and chemical analysis
##URL=rruff.info/R040144
##MEASURED CHEMISTRY=(K_0.94_Na_0.04_)(Mg_0.82_Al_0.13_Fe_0.08_)_3_(Si_0.67_Al_0.33_)_4_O_10_((OH)_0.90_F_0.10_)_2_
399.1926, 0.340580
401.1211, 0.343903
403.0496, 0.345556
404.9780, 0.346676
406.9065, 0.355964
408.8350, 0.358843
410.7634, 0.365150
412.6919, 0.369632
414.6204, 0.366394
416.5488, 0.367182
418.4773, 0.375878
420.4058, 0.375687
422.3342, 0.377184
424.2627, 0.378069
426.1912, 0.383351
428.1196, 0.384726
430.0481, 0.384657
431.9766, 0.383158
433.9050, 0.383187
435.8335, 0.382811
437.7620, 0.381200
439.6904, 0.377397
441.6189, 0.375793
443.5474, 0.373477
445.4758, 0.367716
447.4043, 0.362987
449.3328, 0.359472
451.2612, 0.354043
453.1897, 0.348281
455.1182, 0.341722
457.0466, 0.334096
458.9751, 0.324704
460.9036, 0.312767
462.8320, 0.299916
464.7605, 0.287432
466.6890, 0.275936
468.6174, 0.264955
470.5459, 0.253025
472.4744, 0.241351
474.4028, 0.231085
476.3313, 0.223245
478.2598, 0.217904
480.1882, 0.214445
482.1167, 0.211845
484.0452, 0.209954
485.9736, 0.208905
487.9021, 0.206927
489.8306, 0.203907
491.7590, 0.201118
493.6875, 0.197619
495.6160, 0.194234
497.5444, 0.190591
499.4729, 0.187143
501.4014, 0.183652
503.3298, 0.181107
505.2583, 0.178514
507.1868, 0.176072
509.1152, 0.174271
511.0437, 0.172470
512.9722, 0.169662
514.9006, 0.166839
516.8291, 0.163986
518.7576, 0.161599
520.6860, 0.159091
522.6145, 0.156068
524.5430, 0.153627
526.4714, 0.152073
528.3999, 0.150671
530.3284, 0.148847
532.2568, 0.147252
534.1853, 0.146917
536.1138, 0.146897
538.0422, 0.146851
539.9707, 0.146989
541.8992, 0.147510
543.8276, 0.148887
545.7561, 0.150806
547.6846, 0.152439
549.6130, 0.154656
551.5415, 0.157825
553.4700, 0.161292
555.3984, 0.165138
557.3269, 0.169608
559.2554, 0.174382
561.1838, 0.178473
563.1123, 0.182742
565.0408, 0.187687
566.9692, 0.192663
568.8977, 0.197406
570.8262, 0.201461
572.7546, 0.206804
574.6831, 0.212401
576.6116, 0.217313
578.5400, 0.222358
580.4685, 0.227238
582.3970, 0.232101
584.3254, 0.237525
586.2539, 0.242739
588.1824, 0.247199
590.1108, 0.251581
592.0393, 0.255651
593.9678, 0.259427
595.8962, 0.262736
597.8247, 0.264924
599.7532, 0.267106
601.6816, 0.269677
603.6101, 0.271897
605.5386, 0.273954
607.4670, 0.274890
609.3955, 0.275299
611.3240, 0.274649
613.2524, 0.272884
615.1809, 0.270455
617.1094, 0.267579
619.0378, 0.264345
620.9663, 0.259778
622.8948, 0.254651
624.8232, 0.250273
626.7517, 0.247533
628.6802, 0.247138
630.6086, 0.249742
632.5371, 0.254484
634.4656, 0.259689
636.3940, 0.263963
638.3225, 0.267482
640.2510, 0.269196
642.1794, 0.269247
644.1079, 0.268212
646.0364, 0.266440
647.9648, 0.264838
649.8933, 0.263079
651.8218, 0.260315
653.7502, 0.257253
655.6787, 0.254449
657.6072, 0.251011
659.5356, 0.247418
661.4641, 0.244424
663.3926, 0.241666
665.3210, 0.238968
667.2495, 0.236056
669.1780, 0.233018
671.1064, 0.229718
673.0349, 0.226512
674.9634, 0.224009
676.8918, 0.221757
678.8203, 0.219517
680.7488, 0.217185
682.6772, 0.214727
684.6057, 0.212340
686.5342, 0.210193
688.4626, 0.208018
690.3911, 0.205656
692.3196, 0.203970
694.2480, 0.202499
696.1765, 0.200568
698.1050, 0.198680
700.0334, 0.196723
701.9619, 0.194376
703.8904, 0.192131
705.8188, 0.189843
707.7473, 0.187033
709.6758, 0.183764
711.6042, 0.180793
713.5327, 0.178290
715.4612, 0.175464
717.3896, 0.172856
719.3181, 0.170749
721.2466, 0.168791
723.1750, 0.167073
725.1035, 0.165298
727.0320, 0.162854
728.9604, 0.160620
730.8889, 0.158680
732.8174, 0.156707
734.7458, 0.154676
736.6743, 0.152546
738.6028, 0.150371
740.5313, 0.148385
742.4597, 0.146501
744.3882, 0.144798
746.3167, 0.143163
748.2451, 0.141428
750.1736, 0.139601
752.1021, 0.137929
754.0305, 0.136719
755.9590, 0.135542
757.8875, 0.134197
759.8159, 0.132892
761.7444, 0.131559
763.6729, 0.130360
765.6013, 0.128933
767.5298, 0.127575
769.4583, 0.126441
771.3867, 0.125516
773.3152, 0.124619
775.2437, 0.123856
777.1721, 0.122837
779.1006, 0.121945
781.0291, 0.121109
782.9575, 0.120207
784.8860, 0.119575
786.8145, 0.119235
788.7429, 0.118787
790.6714, 0.118371
792.5999, 0.118199
794.5283, 0.118077
796.4568, 0.117982
798.3853, 0.117883
800.3137, 0.117424
802.2422, 0.116749
804.1707, 0.115919
806.0991, 0.114886
808.0276, 0.113929
809.9561, 0.112851
811.8845, 0.111304
813.8130, 0.109513
815.7415, 0.107574
817.6699, 0.105255
819.5984, 0.103164
821.5269, 0.101046
823.4553, 0.098939
825.3838, 0.097335
827.3123, 0.095850
829.2407, 0.094445
831.1692, 0.093266
833.0977, 0.092596
835.0261, 0.091924
836.9546, 0.091432
838.8831, 0.090883
840.8115, 0.090599
842.7400, 0.090281
844.6685, 0.089646
846.5969, 0.089122
848.5254, 0.088740
850.4539, 0.088324
852.3823, 0.087753
854.3108, 0.087128
856.2393, 0.086539
858.1677, 0.085737
860.0962, 0.084757
862.0247, 0.083696
863.9531, 0.082520
865.8816, 0.081670
867.8101, 0.080936
869.7385, 0.080240
871.6670, 0.079796
873.5955, 0.079389
875.5239, 0.079318
877.4524, 0.079549
879.3809, 0.080017
881.3093, 0.080817
883.2378, 0.082089
885.1663, 0.083955
887.0947, 0.086154
889.0232, 0.088793
890.9517, 0.091862
892.8801, 0.095373
894.8085, 0.099233
896.7370, 0.103101
898.6655, 0.106884
900.5939, 0.110284
902.5224, 0.113668
904.4509, 0.116529
906.3793, 0.118685
908.3078, 0.120567
910.2363, 0.122496
912.1647, 0.124444
914.0932, 0.126240
916.0217, 0.128340
917.9501, 0.130872
919.8786, 0.133580
921.8071, 0.136783
923.7355, 0.140657
925.6640, 0.145041
927.5925, 0.149783
929.5209, 0.154840
931.4494, 0.160463
933.3779, 0.166451
935.3063, 0.172905
937.2348, 0.180058
939.1633, 0.187421
941.0917, 0.194672
943.0202, 0.201921
944.9487, 0.209308
946.8771, 0.216556
948.8056, 0.223281
950.7341, 0.228933
952.6625, 0.233590
954.5910, 0.237464
956.5195, 0.240545
958.4479, 0.242658
960.3764, 0.243877
962.3049, 0.244324
964.2333, 0.243813
966.1618, 0.242686
968.0903, 0.241305
970.0187, 0.239838
971.9472, 0.238196
973.8757, 0.236727
975.8041, 0.235564
977.7326, 0.234947
979.6611, 0.235120
981.5895, 0.235536
983.5180, 0.236044
985.4465, 0.236231
987.3749, 0.235761
989.3034, 0.234362
991.2319, 0.231780
993.1603, 0.227563
995.0888, 0.221672
997.0173, 0.214357
998.9457, 0.205812
1000.8740, 0.196198
1002.8030, 0.185808
1004.7310, 0.175252
1006.6600, 0.165080
1008.5880, 0.155513
1010.5170, 0.146642
1012.4450, 0.139056
1014.3730, 0.132860
1016.3020, 0.127509
1018.2300, 0.122776
1020.1590, 0.118636
1022.0870, 0.114908
1024.0160, 0.111384
1025.9440, 0.107996
1027.8730, 0.104590
1029.8010, 0.101141
1031.7300, 0.097907
1033.6580, 0.094748
1035.5870, 0.091757
1037.5150, 0.089073
1039.4440, 0.086581
1041.3720, 0.083988
1043.3010, 0.081304
1045.2290, 0.078946
1047.1570, 0.076956
1049.0860, 0.075110
1051.0140, 0.073195
1052.9430, 0.070971
1054.8710, 0.068753
1056.8000, 0.066678
1058.7280, 0.064444
1060.6570, 0.062052
1062.5850, 0.059518
1064.5140, 0.056980
1066.4420, 0.054349
1068.3710, 0.051854
1070.2990, 0.049481
1072.2280, 0.047127
1074.1560, 0.044955
1076.0840, 0.043043
1078.0130, 0.041216
1079.9410, 0.039713
1081.8700, 0.038409
1083.7980, 0.036757
1085.7270, 0.035214
1087.6550, 0.033937
1089.5840, 0.032622
1091.5120, 0.031224
1093.4410, 0.029949
1095.3690, 0.028676
1097.2980, 0.027701
1099.2260, 0.027036
1101.1550, 0.026229
1103.0830, 0.025410
1105.0110, 0.024717
1106.9400, 0.024088
1108.8680, 0.023431
1110.7970, 0.022861
1112.7250, 0.022299
1114.6540, 0.021838
1116.5820, 0.021409
1118.5110, 0.020993
1120.4390, 0.020490
1122.3680, 0.020044
1124.2960, 0.019673
1126.2250, 0.019270
1128.1530, 0.018778
1130.0820, 0.018526
1132.0100, 0.018299
1133.9380, 0.017828
1135.8670, 0.017453
1137.7950, 0.017282
1139.7240, 0.017045
1141.6520, 0.016684
1143.5810, 0.016268
1145.5090, 0.015923
1147.4380, 0.015734
1149.3660, 0.015665
1151.2950, 0.015577
1153.2230, 0.015371
1155.1520, 0.014825
1157.0800, 0.014406
1159.0090, 0.014460
1160.9370, 0.014507
1162.8650, 0.014268
1164.7940, 0.014015
1166.7220, 0.013865
1168.6510, 0.013583
1170.5790, 0.013167
1172.5080, 0.012927
1174.4360, 0.012714
1176.3650, 0.012528
1178.2930, 0.012362
1180.2220, 0.012083
1182.1500, 0.011788
1184.0790, 0.011534
1186.0070, 0.011372
1187.9360, 0.011324
1189.8640, 0.011188
1191.7920, 0.011103
1193.7210, 0.010976
1195.6490, 0.010587
1197.5780, 0.010157
1199.5060, 0.009947
1201.4350, 0.009793
1203.3630, 0.009683
1205.2920, 0.009469
1207.2200, 0.009336
1209.1490, 0.009238
1211.0770, 0.008937
1213.0060, 0.008716
1214.9340, 0.008420
1216.8630, 0.008042
1218.7910, 0.007805
1220.7190, 0.007482
1222.6480, 0.007246
1224.5760, 0.007154
1226.5050, 0.006913
1228.4330, 0.006723
1230.3620, 0.006708
1232.2900, 0.006532
1234.2190, 0.006462
1236.1470, 0.006329
1238.0760, 0.006120
1240.0040, 0.005947
1241.9330, 0.005697
1243.8610, 0.005516
1245.7900, 0.005495
1247.7180, 0.005473
1249.6460, 0.005417
1251.5750, 0.005272
1253.5030, 0.005286
1255.4320, 0.005282
1257.3600, 0.005180
1259.2890, 0.005081
1261.2170, 0.004932
1263.1460, 0.004798
1265.0740, 0.004771
1267.0030, 0.004749
1268.9310, 0.004649
1270.8600, 0.004562
1272.7880, 0.004650
1274.7170, 0.004718
1276.6450, 0.004744
1278.5730, 0.004730
1280.5020, 0.004631
1282.4300, 0.004616
1284.3590, 0.004672
1286.2870, 0.004685
1288.2160, 0.004701
1290.1440, 0.004612
1292.0730, 0.004608
1294.0010, 0.004519
1295.9300, 0.004416
1297.8580, 0.004420
1299.7870, 0.004525
1301.7150, 0.004370
1303.6440, 0.004263
1305.5720, 0.004280
1307.5000, 0.004320
1309.4290, 0.004335
1311.3570, 0.004340
1313.2860, 0.004381
1315.2140, 0.004331
1317.1430, 0.004369
1319.0710, 0.004474
1321.0000, 0.004431
1322.9280, 0.004420
1324.8570, 0.004318
1326.7850, 0.004098
1328.7140, 0.004194
1330.6420, 0.004263
1332.5710, 0.004145
1334.4990, 0.004119
1336.4270, 0.004150
1338.3560, 0.004163
1340.2840, 0.004159
1342.2130, 0.004300
1344.1410, 0.004443
1346.0700, 0.004498
1347.9980, 0.004467
1349.9270, 0.004538
1351.8550, 0.004561
1353.7840, 0.004494
1355.7120, 0.004417
1357.6410, 0.004359
1359.5690, 0.004447
1361.4980, 0.004722
1363.4260, 0.004848
1365.3540, 0.004703
1367.2830, 0.004672
1369.2110, 0.004887
1371.1400, 0.005087
1373.0680, 0.005461
1374.9970, 0.006121
1376.9250, 0.006419
1378.8540, 0.005980
1380.7820, 0.005469
1382.7110, 0.005226
1384.6390, 0.005052
1386.5680, 0.005058
1388.4960, 0.005029
1390.4240, 0.005001
1392.3530, 0.005169
1394.2810, 0.005255
1396.2100, 0.005312
1398.1380, 0.005287
1400.0670, 0.005290
1401.9950, 0.005372
1403.9240, 0.005470
1405.8520, 0.005546
1407.7810, 0.005693
1409.7090, 0.005812
1411.6380, 0.005703
1413.5660, 0.005656
1415.4950, 0.005718
1417.4230, 0.005820
1419.3510, 0.005871
1421.2800, 0.005592
1423.2080, 0.005473
1425.1370, 0.005485
1427.0650, 0.005389
1428.9940, 0.005268
1430.9220, 0.005231
1432.8510, 0.005271
1434.7790, 0.005415
1436.7080, 0.005649
1438.6360, 0.005522
1440.5650, 0.005358
1442.4930, 0.005294
1444.4220, 0.005371
1446.3500, 0.005432
1448.2780, 0.005549
1450.2070, 0.005803
1452.1350, 0.005872
1454.0640, 0.005873
1455.9920, 0.006124
1457.9210, 0.006125
1459.8490, 0.005852
1461.7780, 0.005681
1463.7060, 0.005670
1465.6350, 0.005607
1467.5630, 0.005107
1469.4920, 0.004793
1471.4200, 0.004709
1473.3490, 0.004726
1475.2770, 0.004659
1477.2050, 0.004446
1479.1340, 0.004282
1481.0620, 0.004316
1482.9910, 0.004333
1484.9190, 0.004259
1486.8480, 0.004261
1488.7760, 0.004466
1490.7050, 0.004644
1492.6330, 0.004487
1494.5620, 0.004506
1496.4900, 0.004842
1498.4190, 0.004950
1500.3470, 0.004866
1502.2760, 0.004904
1504.2040, 0.005259
1506.1320, 0.005760
1508.0610, 0.005582
1509.9890, 0.005137
1511.9180, 0.005155
1513.8460, 0.005176
1515.7750, 0.005132
1517.7030, 0.005244
1519.6320, 0.005771
1521.5600, 0.006068
1523.4890, 0.005901
1525.4170, 0.005789
1527.3460, 0.005672
1529.2740, 0.005724
1531.2030, 0.005932
1533.1310, 0.006073
1535.0590, 0.006151
1536.9880, 0.006290
1538.9160, 0.006785
1540.8450, 0.006811
1542.7730, 0.006628
1544.7020, 0.006651
1546.6300, 0.006478
1548.5590, 0.006357
1550.4870, 0.006475
1552.4160, 0.006401
1554.3440, 0.006389
1556.2730, 0.006665
1558.2010, 0.007430
1560.1300, 0.007403
1562.0580, 0.006668
1563.9860, 0.006519
1565.9150, 0.006416
1567.8430, 0.006423
1569.7720, 0.006493
1571.7000, 0.006244
1573.6290, 0.006328
1575.5570, 0.006770
1577.4860, 0.006615
1579.4140, 0.006245
1581.3430, 0.006243
1583.2710, 0.006145
1585.2000, 0.005992
1587.1280, 0.005987
1589.0570, 0.006085
1590.9850, 0.005970
1592.9130, 0.005964
1594.8420, 0.006155
1596.7700, 0.006398
1598.6990, 0.006330
1600.6270, 0.006006
1602.5560, 0.005910
1604.4840, 0.006143
1606.4130, 0.006232
1608.3410, 0.005975
1610.2700, 0.005819
1612.1980, 0.005961
1614.1270, 0.006336
1616.0550, 0.006773
1617.9840, 0.006577
1619.9120, 0.006506
1621.8400, 0.006566
1623.7690, 0.006575
1625.6970, 0.006703
1627.6260, 0.006881
1629.5540, 0.006874
1631.4830, 0.006767
1633.4110, 0.006932
1635.3400, 0.007352
1637.2680, 0.007064
1639.1970, 0.006706
1641.1250, 0.006851
1643.0540, 0.006808
1644.9820, 0.007047
1646.9110, 0.007286
1648.8390, 0.007109
1650.7670, 0.007314
1652.6960, 0.007995
1654.6240, 0.007462
1656.5530, 0.006832
1658.4810, 0.006669
1660.4100, 0.006507
1662.3380, 0.006445
1664.2670, 0.006456
1666.1950, 0.006394
1668.1240, 0.006400
1670.0520, 0.006340
1671.9810, 0.006232
1673.9090, 0.006388
1675.8380, 0.006177
1677.7660, 0.005835
1679.6940, 0.005779
1681.6230, 0.005974
1683.5510, 0.006574
1685.4800, 0.006368
1687.4080, 0.005704
1689.3370, 0.005524
1691.2650, 0.005353
1693.1940, 0.005427
1695.1220, 0.005999
1697.0510, 0.005984
1698.9790, 0.005976
1700.9080, 0.005895
1702.8360, 0.005288
1704.7650, 0.005193
1706.6930, 0.005187
1708.6210, 0.005131
1710.5500, 0.005077
1712.4780, 0.004856
1714.4070, 0.005076
1716.3350, 0.005612
1718.2640, 0.005688
1720.1920, 0.005076
1722.1210, 0.004606
1724.0490, 0.004705
1725.9780, 0.004790
1727.9060, 0.004750
1729.8350, 0.004714
1731.7630, 0.005127
1733.6920, 0.005419
1735.6200, 0.004806
1737.5480, 0.004640
1739.4770, 0.005080
1741.4050, 0.005149
1743.3340, 0.004799
1745.2620, 0.004476
1747.1910, 0.004590
1749.1190, 0.004767
1751.0480, 0.004901
1752.9760, 0.004732
1754.9050, 0.004570
1756.8330, 0.004653
1758.7620, 0.004560
1760.6900, 0.004526
1762.6190, 0.004515
1764.5470, 0.004284
1766.4750, 0.004479
1768.4040, 0.004543
1770.3320, 0.004517
1772.2610, 0.004823
1774.1890, 0.004653
1776.1180, 0.004521
1778.0460, 0.004733
1779.9750, 0.004860
1781.9030, 0.004929
1783.8320, 0.004849
1785.7600, 0.004772
1787.6890, 0.004513
1789.6170, 0.004609
1791.5460, 0.004778
1793.4740, 0.004456
1795.4020, 0.004062
1797.3310, 0.004241
1799.2590, 0.004099
1801.1880, 0.004201
1803.1160, 0.004247
1805.0450, 0.004004
1806.9730, 0.004154
1808.9020, 0.004324
1810.8300, 0.004360
1812.7590, 0.004073
1814.6870, 0.003721
1816.6160, 0.004041
1818.5440, 0.004110
1820.4730, 0.004145
1822.4010, 0.004393
1824.3290, 0.004133
1826.2580, 0.003724
1828.1860, 0.003865
1830.1150, 0.004547
1832.0430, 0.004215
1833.9720, 0.003957
1835.9000, 0.003961
1837.8290, 0.003925
1839.7570, 0.003865
1841.6860, 0.003640
1843.6140, 0.003688
1845.5430, 0.003814
1847.4710, 0.004127
1849.4000, 0.004283
1851.3280, 0.003890
1853.2560, 0.003618
1855.1850, 0.003932
1857.1130, 0.004279
1859.0420, 0.004213
1860.9700, 0.004113
1862.8990, 0.004070
1864.8270, 0.003958
1866.7560, 0.003872
1868.6840, 0.003649
1870.6130, 0.003797
1872.5410, 0.003782
1874.4700, 0.003474
1876.3980, 0.003445
1878.3270, 0.003354
1880.2550, 0.003128
1882.1830, 0.003390
1884.1120, 0.003661
1886.0400, 0.003853
1887.9690, 0.003963
1889.8970, 0.003248
1891.8260, 0.003167
1893.7540, 0.003602
1895.6830, 0.003478
1897.6110, 0.003640
1899.5400, 0.003739
1901.4680, 0.003521
1903.3970, 0.003225
1905.3250, 0.002913
1907.2540, 0.002788
1909.1820, 0.003009
1911.1100, 0.002955
1913.0390, 0.003095
1914.9670, 0.003315
1916.8960, 0.002761
1918.8240, 0.002418
1920.7530, 0.002534
1922.6810, 0.002620
1924.6100, 0.002220
1926.5380, 0.001838
1928.4670, 0.002279
1930.3950, 0.003102
1932.3240, 0.003197
1934.2520, 0.003177
1936.1810, 0.001535
1938.1090, 0.000836
1940.0370, 0.000767
1941.9660, 0.000500
1943.8940, 0.001178
1945.8230, 0.002353
1947.7510, 0.001837
1949.6800, 0.001098
1951.6080, 0.001214
1953.5370, 0.001418
1955.4650, 0.001506
1957.3940, -0.000173
1959.3220, -0.000219
1961.2510, 0.000846
1963.1790, 0.000903
1965.1080, 0.000418
1967.0360, -0.000449
1968.9640, -0.002039
1970.8930, -0.001833
1972.8210, -0.000606
1974.7500, -0.001226
1976.6780, -0.001022
1978.6070, 0.000517
1980.5350, 0.000841
1982.4640, 0.000289
1984.3920, 0.000339
1986.3210, 0.000678
1988.2490, 0.001275
1990.1780, 0.002992
1992.1060, 0.003231
1994.0350, 0.001369
1995.9630, -0.000769
1997.8910, -0.000263
1999.8200, 0.001528
2001.7480, 0.001215
2003.6770, -0.000061
2005.6050, 0.000949
2007.5340, 0.001978
2009.4620, 0.001538
2011.3910, 0.001338
2013.3190, 0.000403
2015.2480, -0.000531
2017.1760, -0.000456
2019.1050, 0.001963
2021.0330, 0.002555
2022.9620, 0.002181
2024.8900, 0.002847
2026.8180, 0.001962
2028.7470, -0.000286
2030.6750, -0.000180
2032.6040, 0.002085
2034.5320, 0.003895
2036.4610, 0.003708
2038.3890, 0.002811
2040.3180, 0.003260
2042.2460, 0.003968
2044.1750, 0.005002
2046.1030, 0.004568
2048.0320, 0.003716
2049.9600, 0.003768
2051.8890, 0.003085
2053.8170, 0.003349
2055.7460, 0.004702
2057.6740, 0.006050
2059.6030, 0.007013
2061.5310, 0.006383
2063.4590, 0.005227
2065.3880, 0.004436
2067.3160, 0.004624
2069.2450, 0.005499
2071.1730, 0.006076
2073.1020, 0.005589
2075.0300, 0.005419
2076.9590, 0.005974
2078.8870, 0.006583
2080.8160, 0.006246
2082.7440, 0.005888
2084.6730, 0.006055
2086.6010, 0.006591
2088.5300, 0.006260
2090.4580, 0.006122
2092.3860, 0.005592
2094.3150, 0.005388
2096.2430, 0.005264
2098.1720, 0.005094
2100.1000, 0.006026
2102.0290, 0.006474
2103.9570, 0.005352
2105.8860, 0.005669
2107.8140, 0.006557
2109.7430, 0.006075
2111.6710, 0.006463
2113.6000, 0.007304
2115.5280, 0.007030
2117.4570, 0.006497
2119.3850, 0.006362
2121.3130, 0.006909
2123.2420, 0.007501
2125.1700, 0.007060
2127.0990, 0.005853
2129.0270, 0.005725
2130.9560, 0.005937
2132.8840, 0.005576
2134.8130, 0.005534
2136.7410, 0.006508
2138.6700, 0.006952
2140.5980, 0.006441
2142.5270, 0.005371
2144.4550, 0.004695
2146.3840, 0.005380
2148.3120, 0.006113
2150.2400, 0.006286
2152.1690, 0.006266
2154.0970, 0.005182
2156.0260, 0.004617
2157.9540, 0.005055
2159.8830, 0.007358
2161.8110, 0.007928
2163.7400, 0.008491
2165.6680, 0.009254
2167.5970, 0.009353
2169.5250, 0.008431
2171.4540, 0.007618
2173.3820, 0.005962
2175.3110, 0.006266
2177.2390, 0.006754
2179.1670, 0.006777
2181.0960, 0.006805
2183.0240, 0.007376
2184.9530, 0.007863
2186.8810, 0.007057
2188.8100, 0.006631
2190.7380, 0.008821
2192.6670, 0.009274
2194.5950, 0.008851
2196.5240, 0.008448
2198.4520, 0.009150
2200.3810, 0.008970
2202.3090, 0.009486
2204.2380, 0.010118
2206.1660, 0.009839
2208.0940, 0.009672
2210.0230, 0.009467
2211.9510, 0.009074
2213.8800, 0.008999
2215.8080, 0.008765
2217.7370, 0.009218
2219.6650, 0.009692
2221.5940, 0.009457
2223.5220, 0.009007
2225.4510, 0.009650
2227.3790, 0.010144
2229.3080, 0.010826
2231.2360, 0.010663
2233.1650, 0.010306
2235.0930, 0.010429
2237.0210, 0.009669
2238.9500, 0.008595
2240.8780, 0.009320
2242.8070, 0.010262
2244.7350, 0.009379
2246.6640, 0.008946
2248.5920, 0.009063
2250.5210, 0.008750
2252.4490, 0.008570
2254.3780, 0.009001
2256.3060, 0.010351
2258.2350, 0.010632
2260.1630, 0.009321
2262.0920, 0.009162
2264.0200, 0.009706
2265.9480, 0.009400
2267.8770, 0.009291
2269.8050, 0.009249
2271.7340, 0.009292
2273.6620, 0.009469
2275.5910, 0.009760
2277.5190, 0.009978
2279.4480, 0.009768
2281.3760, 0.010486
2283.3050, 0.011104
2285.2330, 0.010089
2287.1620, 0.009299
2289.0900, 0.009048
2291.0190, 0.009613
2292.9470, 0.009983
2294.8750, 0.010059
2296.8040, 0.010496
2298.7320, 0.010345
2300.6610, 0.009850
2302.5890, 0.009553
2304.5180, 0.009790
2306.4460, 0.010245
2308.3750, 0.010783
2310.3030, 0.010743
2312.2320, 0.010479
2314.1600, 0.010478
2316.0890, 0.011143
2318.0170, 0.011670
2319.9460, 0.011761
2321.8740, 0.012246
2323.8020, 0.012342
2325.7310, 0.011947
2327.6590, 0.012029
2329.5880, 0.012513
2331.5160, 0.012422
2333.4450, 0.012000
2335.3730, 0.011887
2337.3020, 0.012260
2339.2300, 0.012047
2341.1590, 0.011732
2343.0870, 0.011318
2345.0160, 0.011034
2346.9440, 0.010773
2348.8730, 0.010702
2350.8010, 0.010703
2352.7290, 0.011173
2354.6580, 0.011875
2356.5860, 0.012326
2358.5150, 0.012659
2360.4430, 0.012887
2362.3720, 0.012707
2364.3000, 0.012275
2366.2290, 0.012230
2368.1570, 0.012253
2370.0860, 0.011904
2372.0140, 0.011325
2373.9420, 0.010722
2375.8710, 0.010342
2377.7990, 0.009719
2379.7280, 0.009648
2381.6560, 0.009681
2383.5850, 0.009613
2385.5130, 0.009872
2387.4420, 0.010027
2389.3700, 0.009447
2391.2990, 0.009582
2393.2270, 0.009753
2395.1560, 0.009236
2397.0840, 0.009667
2399.0120, 0.010098
2400.9410, 0.009917
2402.8690, 0.009580
2404.7980, 0.009101
2406.7260, 0.009300
2408.6550, 0.009512
2410.5830, 0.009508
2412.5120, 0.009283
2414.4400, 0.009484
2416.3690, 0.009764
2418.2970, 0.010150
2420.2260, 0.010625
2422.1540, 0.010555
2424.0830, 0.010003
2426.0110, 0.009501
2427.9390, 0.009760
2429.8680, 0.010161
2431.7960, 0.010290
2433.7250, 0.010052
2435.6530, 0.010145
2437.5820, 0.010286
2439.5100, 0.010141
2441.4390, 0.010098
2443.3670, 0.010480
2445.2960, 0.010612
2447.2240, 0.010767
2449.1530, 0.011341
2451.0810, 0.011319
2453.0100, 0.010828
2454.9380, 0.010488
2456.8660, 0.010643
2458.7950, 0.010371
2460.7230, 0.009833
2462.6520, 0.009973
2464.5800, 0.010336
2466.5090, 0.010024
2468.4370, 0.010133
2470.3660, 0.010319
2472.2940, 0.010550
2474.2230, 0.010632
2476.1510, 0.010792
2478.0800, 0.010784
2480.0080, 0.010582
2481.9370, 0.010866
2483.8650, 0.010875
2485.7930, 0.010549
2487.7220, 0.010446
2489.6500, 0.010810
2491.5790, 0.010931
2493.5070, 0.011206
2495.4360, 0.011454
2497.3640, 0.011004
2499.2930, 0.010510
2501.2210, 0.010413
2503.1500, 0.010474
2505.0780, 0.011016
2507.0070, 0.011302
2508.9350, 0.011720
2510.8640, 0.011833
2512.7920, 0.011497
2514.7200, 0.011499
2516.6490, 0.011607
2518.5770, 0.011446
2520.5060, 0.011375
2522.4340, 0.011483
2524.3630, 0.011342
2526.2910, 0.011319
2528.2200, 0.011097
2530.1480, 0.010865
2532.0770, 0.010981
2534.0050, 0.010878
2535.9340, 0.011197
2537.8620, 0.012008
2539.7910, 0.011671
2541.7190, 0.011100
2543.6470, 0.011603
2545.5760, 0.011537
2547.5040, 0.011792
2549.4330, 0.011972
2551.3610, 0.011470
2553.2900, 0.011633
2555.2180, 0.011754
2557.1470, 0.011486
2559.0750, 0.011192
2561.0040, 0.011630
2562.9320, 0.011897
2564.8610, 0.011962
2566.7890, 0.012119
2568.7180, 0.012318
2570.6460, 0.012562
2572.5740, 0.012254
2574.5030, 0.011860
2576.4310, 0.012224
2578.3600, 0.012242
2580.2880, 0.012319
2582.2170, 0.012907
2584.1450, 0.012482
2586.0740, 0.011912
2588.0020, 0.011690
2589.9310, 0.011889
2591.8590, 0.012733
2593.7880, 0.012544
2595.7160, 0.011996
2597.6450, 0.011790
2599.5730, 0.011996
2601.5010, 0.012025
2603.4300, 0.012198
2605.3580, 0.012639
2607.2870, 0.012596
2609.2150, 0.012495
2611.1440, 0.012707
2613.0720, 0.012178
2615.0010, 0.012369
2616.9290, 0.012541
2618.8580, 0.012649
2620.7860, 0.012859
2622.7150, 0.012905
2624.6430, 0.012567
2626.5720, 0.013147
2628.5000, 0.013242
2630.4280, 0.013006
2632.3570, 0.013189
2634.2850, 0.013184
2636.2140, 0.013368
2638.1420, 0.013523
2640.0710, 0.013397
2641.9990, 0.013243
2643.9280, 0.013162
2645.8560, 0.013150
2647.7850, 0.013558
2649.7130, 0.013558
2651.6420, 0.012855
2653.5700, 0.012824
2655.4990, 0.013386
2657.4270, 0.013554
2659.3550, 0.013396
2661.2840, 0.013244
2663.2120, 0.013211
2665.1410, 0.012989
2667.0690, 0.012817
2668.9980, 0.012971
2670.9260, 0.012849
2672.8550, 0.012850
2674.7830, 0.013015
2676.7120, 0.013710
2678.6400, 0.013943
2680.5690, 0.013327
2682.4970, 0.012533
2684.4260, 0.012973
2686.3540, 0.013374
2688.2820, 0.013097
2690.2110, 0.012797
2692.1390, 0.012641
2694.0680, 0.012913
2695.9960, 0.013225
2697.9250, 0.013103
2699.8530, 0.012894
2701.7820, 0.013459
2703.7100, 0.013751
2705.6390, 0.013712
2707.5670, 0.013750
2709.4960, 0.013988
2711.4240, 0.014279
2713.3530, 0.014380
2715.2810, 0.014567
2717.2090, 0.014338
2719.1380, 0.013788
2721.0660, 0.013263
2722.9950, 0.013251
2724.9230, 0.013868
2726.8520, 0.014534
2728.7800, 0.014423
2730.7090, 0.014120
2732.6370, 0.014209
2734.5660, 0.013997
2736.4940, 0.013444
2738.4230, 0.013307
2740.3510, 0.013999
2742.2800, 0.014470
2744.2080, 0.014733
2746.1360, 0.014962
2748.0650, 0.015098
2749.9930, 0.014927
2751.9220, 0.015109
2753.8500, 0.015131
2755.7790, 0.014674
2757.7070, 0.014738
2759.6360, 0.014833
2761.5640, 0.014751
2763.4930, 0.014795
2765.4210, 0.015159
2767.3500, 0.015742
2769.2780, 0.016154
2771.2070, 0.016008
2773.1350, 0.015684
2775.0630, 0.015199
2776.9920, 0.015141
2778.9200, 0.014901
2780.8490, 0.015252
2782.7770, 0.015855
2784.7060, 0.015809
2786.6340, 0.015351
2788.5630, 0.015534
2790.4910, 0.015356
2792.4200, 0.015346
2794.3480, 0.015890
2796.2770, 0.016173
2798.2050, 0.016080
2800.1340, 0.015703
2802.0620, 0.015448
2803.9900, 0.016052
2805.9190, 0.016081
2807.8470, 0.015183
2809.7760, 0.014997
2811.7040, 0.015680
2813.6330, 0.015924
2815.5610, 0.016277
2817.4900, 0.016567
2819.4180, 0.016159
2821.3470, 0.015745
2823.2750, 0.015879
2825.2040, 0.016562
2827.1320, 0.016954
2829.0610, 0.017369
2830.9890, 0.017729
2832.9170, 0.017882
2834.8460, 0.018047
2836.7740, 0.017760
2838.7030, 0.017841
2840.6310, 0.017922
2842.5600, 0.017950
2844.4880, 0.017885
2846.4170, 0.017995
2848.3450, 0.018239
2850.2740, 0.018626
2852.2020, 0.018953
2854.1310, 0.019626
2856.0590, 0.019988
2857.9880, 0.019701
2859.9160, 0.019177
2861.8440, 0.019010
2863.7730, 0.019485
2865.7010, 0.019638
2867.6300, 0.019382
2869.5580, 0.019333
2871.4870, 0.019197
2873.4150, 0.019215
2875.3440, 0.019474
2877.2720, 0.019442
2879.2010, 0.019675
2881.1290, 0.020142
2883.0580, 0.020108
2884.9860, 0.019847
2886.9150, 0.020028
2888.8430, 0.019606
2890.7710, 0.019081
2892.7000, 0.019406
2894.6280, 0.020051
2896.5570, 0.020120
2898.4850, 0.020597
2900.4140, 0.021396
2902.3420, 0.021228
2904.2710, 0.020269
2906.1990, 0.020879
2908.1280, 0.021792
2910.0560, 0.022524
2911.9850, 0.023271
2913.9130, 0.023771
2915.8420, 0.023605
2917.7700, 0.023926
2919.6980, 0.024406
2921.6270, 0.024150
2923.5550, 0.023816
2925.4840, 0.023957
2927.4120, 0.023883
2929.3410, 0.023877
2931.2690, 0.023723
2933.1980, 0.023568
2935.1260, 0.023333
2937.0550, 0.022345
2938.9830, 0.022207
2940.9120, 0.022206
2942.8400, 0.021902
2944.7690, 0.021658
2946.6970, 0.021719
2948.6250, 0.022382
2950.5540, 0.023000
2952.4820, 0.023080
2954.4110, 0.023210
2956.3390, 0.023055
2958.2680, 0.022895
2960.1960, 0.022334
2962.1250, 0.021762
2964.0530, 0.021308
2965.9820, 0.021369
2967.9100, 0.021198
2969.8390, 0.020625
2971.7670, 0.020668
2973.6960, 0.020672
2975.6240, 0.020468
2977.5520, 0.020373
2979.4810, 0.020313
2981.4090, 0.020060
2983.3380, 0.019719
2985.2660, 0.020241
2987.1950, 0.020213
2989.1230, 0.020297
2991.0520, 0.020787
2992.9800, 0.020863
2994.9090, 0.020334
2996.8370, 0.020170
2998.7660, 0.019822
3000.6940, 0.019421
3002.6230, 0.020002
3004.5510, 0.020268
3006.4790, 0.020765
3008.4080, 0.021338
3010.3360, 0.021461
3012.2650, 0.020706
3014.1930, 0.020365
3016.1220, 0.020391
3018.0500, 0.020100
3019.9790, 0.020219
3021.9070, 0.020802
3023.8360, 0.021370
3025.7640, 0.021394
3027.6930, 0.021496
3029.6210, 0.021523
3031.5500, 0.021485
3033.4780, 0.021712
3035.4060, 0.021603
3037.3350, 0.021411
3039.2630, 0.021923
3041.1920, 0.022114
3043.1200, 0.021568
3045.0490, 0.021460
3046.9770, 0.021695
3048.9060, 0.021755
3050.8340, 0.022103
3052.7630, 0.022436
3054.6910, 0.022943
3056.6200, 0.022800
3058.5480, 0.022472
3060.4770, 0.022122
3062.4050, 0.022545
3064.3330, 0.023002
3066.2620, 0.022624
3068.1900, 0.022580
3070.1190, 0.023263
3072.0470, 0.023027
3073.9760, 0.022682
3075.9040, 0.022731
3077.8330, 0.022888
3079.7610, 0.023229
3081.6900, 0.023461
3083.6180, 0.023665
3085.5470, 0.023785
3087.4750, 0.024153
3089.4040, 0.024643
3091.3320, 0.024579
3093.2600, 0.023942
3095.1890, 0.023185
3097.1170, 0.023071
3099.0460, 0.023502
3100.9740, 0.024487
3102.9030, 0.024482
3104.8310, 0.024226
3106.7600, 0.024146
3108.6880, 0.024701
3110.6170, 0.025120
3112.5450, 0.025033
3114.4740, 0.025420
3116.4020, 0.025001
3118.3310, 0.024771
3120.2590, 0.025459
3122.1880, 0.025929
3124.1160, 0.026233
3126.0440, 0.025899
3127.9730, 0.025293
3129.9010, 0.024574
3131.8300, 0.025239
3133.7580, 0.026442
3135.6870, 0.026639
3137.6150, 0.026323
3139.5440, 0.025580
3141.4720, 0.025438
3143.4010, 0.026074
3145.3290, 0.026690
3147.2580, 0.026784
3149.1860, 0.027133
3151.1150, 0.027367
3153.0430, 0.027545
3154.9710, 0.027432
3156.9000, 0.026574
3158.8280, 0.025668
3160.7570, 0.026075
3162.6850, 0.027067
3164.6140, 0.027363
3166.5420, 0.027472
3168.4710, 0.027967
3170.3990, 0.027892
3172.3280, 0.027374
3174.2560, 0.027730
3176.1850, 0.027793
3178.1130, 0.027705
3180.0420, 0.027613
3181.9700, 0.027972
3183.8980, 0.028692
3185.8270, 0.028126
3187.7550, 0.027729
3189.6840, 0.028370
3191.6120, 0.029039
3193.5410, 0.028897
3195.4690, 0.028153
3197.3980, 0.028711
3199.3260, 0.028544
3201.2550, 0.028216
3203.1830, 0.028448
3205.1120, 0.029180
3207.0400, 0.028973
3208.9690, 0.028537
3210.8970, 0.029380
3212.8250, 0.029966
3214.7540, 0.029684
3216.6820, 0.030209
3218.6110, 0.030213
3220.5390, 0.029391
3222.4680, 0.028645
3224.3960, 0.028279
3226.3250, 0.028020
3228.2530, 0.029427
3230.1820, 0.030937
3232.1100, 0.031064
3234.0390, 0.030228
3235.9670, 0.029438
3237.8960, 0.029689
3239.8240, 0.030325
3241.7520, 0.031013
3243.6810, 0.030523
3245.6090, 0.029972
3247.5380, 0.030333
3249.4660, 0.030892
3251.3950, 0.030474
3253.3230, 0.030415
3255.2520, 0.030957
3257.1800, 0.031322
3259.1090, 0.031716
3261.0370, 0.031352
3262.9660, 0.031902
3264.8940, 0.032059
3266.8230, 0.031561
3268.7510, 0.031419
3270.6790, 0.031351
3272.6080, 0.031381
3274.5360, 0.031413
3276.4650, 0.031905
3278.3930, 0.032462
3280.3220, 0.032245
3282.2500, 0.031967
3284.1790, 0.031277
3286.1070, 0.030839
3288.0360, 0.031189
3289.9640, 0.032422
3291.8930, 0.032384
3293.8210, 0.032614
3295.7500, 0.032698
3297.6780, 0.031996
3299.6060, 0.032284
3301.5350, 0.032741
3303.4630, 0.032854
3305.3920, 0.033264
3307.3200, 0.032821
3309.2490, 0.032388
3311.1770, 0.032641
3313.1060, 0.032600
3315.0340, 0.032337
3316.9630, 0.033641
3318.8910, 0.034126
3320.8200, 0.033026
3322.7480, 0.032202
3324.6770, 0.032580
3326.6050, 0.033415
3328.5330, 0.034187
3330.4620, 0.033832
3332.3900, 0.033584
3334.3190, 0.033291
3336.2470, 0.033552
3338.1760, 0.034330
3340.1040, 0.034597
3342.0330, 0.034368
3343.9610, 0.034807
3345.8900, 0.034531
3347.8180, 0.033967
3349.7470, 0.034026
3351.6750, 0.035190
3353.6040, 0.035286
3355.5320, 0.033995
3357.4600, 0.033414
3359.3890, 0.034463
3361.3170, 0.035232
3363.2460, 0.034896
3365.1740, 0.035034
3367.1030, 0.034625
3369.0310, 0.033371
3370.9600, 0.033827
3372.8880, 0.035129
3374.8170, 0.035644
3376.7450, 0.035962
3378.6740, 0.035988
3380.6020, 0.036101
3382.5310, 0.036265
3384.4590, 0.036153
3386.3870, 0.036256
3388.3160, 0.035821
3390.2440, 0.036334
3392.1730, 0.036296
3394.1010, 0.036766
3396.0300, 0.037259
3397.9580, 0.036492
3399.8870, 0.035126
3401.8150, 0.035639
3403.7440, 0.036337
3405.6720, 0.036016
3407.6010, 0.036434
3409.5290, 0.036854
3411.4580, 0.035864
3413.3860, 0.035713
3415.3140, 0.036686
3417.2430, 0.036991
3419.1710, 0.036376
3421.1000, 0.036497
3423.0280, 0.036824
3424.9570, 0.036360
3426.8850, 0.036522
3428.8140, 0.037130
3430.7420, 0.036893
3432.6710, 0.036387
3434.5990, 0.035901
3436.5280, 0.036560
3438.4560, 0.037891
3440.3850, 0.038017
3442.3130, 0.038115
3444.2410, 0.038208
3446.1700, 0.037680
3448.0980, 0.036640
3450.0270, 0.036107
3451.9550, 0.036752
3453.8840, 0.036765
3455.8120, 0.036428
3457.7410, 0.036292
3459.6690, 0.036306
3461.5980, 0.036033
3463.5260, 0.035823
3465.4550, 0.036088
3467.3830, 0.035482
3469.3120, 0.035428
3471.2400, 0.035229
3473.1680, 0.035638
3475.0970, 0.036432
3477.0250, 0.035226
3478.9540, 0.034529
3480.8820, 0.036126
3482.8110, 0.036089
3484.7390, 0.036135
3486.6680, 0.036469
3488.5960, 0.035947
3490.5250, 0.036247
3492.4530, 0.036403
3494.3820, 0.037113
3496.3100, 0.036975
3498.2390, 0.035636
3500.1670, 0.035465
3502.0950, 0.035819
3504.0240, 0.036179
3505.9520, 0.036519
3507.8810, 0.036807
3509.8090, 0.036515
3511.7380, 0.035875
3513.6660, 0.034696
3515.5950, 0.035359
3517.5230, 0.036423
3519.4520, 0.035611
3521.3800, 0.034680
3523.3090, 0.035841
3525.2370, 0.036247
3527.1660, 0.034538
3529.0940, 0.034288
3531.0220, 0.035115
3532.9510, 0.035259
3534.8790, 0.035100
3536.8080, 0.035395
3538.7360, 0.035101
3540.6650, 0.034569
3542.5930, 0.034664
3544.5220, 0.034919
3546.4500, 0.034667
3548.3790, 0.035076
3550.3070, 0.035535
3552.2360, 0.034869
3554.1640, 0.034279
3556.0930, 0.034667
3558.0210, 0.034801
3559.9490, 0.034451
3561.8780, 0.034036
3563.8060, 0.034599
3565.7350, 0.034591
3567.6630, 0.035336
3569.5920, 0.036312
3571.5200, 0.035606
3573.4490, 0.034179
3575.3770, 0.033618
3577.3060, 0.033400
3579.2340, 0.033557
3581.1630, 0.033873
3583.0910, 0.033078
3585.0200, 0.031834
3586.9480, 0.032221
3588.8760, 0.032168
3590.8050, 0.032071
3592.7330, 0.033010
3594.6620, 0.033040
3596.5900, 0.032085
3598.5190, 0.033454
3600.4470, 0.033409
3602.3760, 0.031596
3604.3040, 0.030347
3606.2330, 0.030758
3608.1610, 0.032723
3610.0900, 0.031946
3612.0180, 0.030655
3613.9470, 0.031151
3615.8750, 0.032175
3617.8030, 0.032142
3619.7320, 0.030645
3621.6600, 0.030901
3623.5890, 0.032537
3625.5170, 0.033535
3627.4460, 0.033546
3629.3740, 0.031794
3631.3030, 0.030737
3633.2310, 0.029901
3635.1600, 0.031155
3637.0880, 0.032642
3639.0170, 0.032535
3640.9450, 0.031305
3642.8740, 0.030772
3644.8020, 0.031438
3646.7300, 0.031934
3648.6590, 0.031823
3650.5870, 0.031400
3652.5160, 0.030623
3654.4440, 0.030700
3656.3730, 0.031722
3658.3010, 0.032409
3660.2300, 0.033119
3662.1580, 0.033223
3664.0870, 0.031794
3666.0150, 0.030628
3667.9440, 0.030284
3669.8720, 0.031347
3671.8010, 0.032642
3673.7290, 0.032311
3675.6570, 0.032406
3677.5860, 0.030898
3679.5140, 0.028787
3681.4430, 0.028377
3683.3710, 0.027988
3685.3000, 0.028713
3687.2280, 0.029140
3689.1570, 0.028274
3691.0850, 0.029479
3693.0140, 0.031556
3694.9420, 0.031470
3696.8710, 0.030347
3698.7990, 0.030148
3700.7280, 0.031251
3702.6560, 0.032438
3704.5840, 0.032063
3706.5130, 0.030931
3708.4410, 0.029835
3710.3700, 0.030246
3712.2980, 0.029934
3714.2270, 0.027534
3716.1550, 0.026612
3718.0840, 0.026840
3720.0120, 0.025634
3721.9410, 0.025473
3723.8690, 0.025529
3725.7980, 0.025148
3727.7260, 0.024520
3729.6550, 0.023801
3731.5830, 0.024735
3733.5110, 0.025286
3735.4400, 0.025893
3737.3680, 0.025099
3739.2970, 0.023585
3741.2250, 0.024429
3743.1540, 0.024712
3745.0820, 0.023317
3747.0110, 0.024296
3748.9390, 0.026563
3750.8680, 0.025974
3752.7960, 0.025255
3754.7250, 0.024988
3756.6530, 0.025666
3758.5820, 0.025831
3760.5100, 0.025605
3762.4380, 0.026245
3764.3670, 0.025725
3766.2950, 0.023842
3768.2240, 0.025222
3770.1520, 0.027173
3772.0810, 0.027598
3774.0090, 0.026588
3775.9380, 0.024495
3777.8660, 0.023589
3779.7950, 0.024389
3781.7230, 0.025272
3783.6520, 0.025786
3785.5800, 0.025617
3787.5090, 0.025056
3789.4370, 0.025184
3791.3650, 0.024671
3793.2940, 0.023573
3795.2220, 0.024090
3797.1510, 0.024670
3799.0790, 0.025453
3801.0080, 0.026222
3802.9360, 0.025921
3804.8650, 0.026382
3806.7930, 0.026177
3808.7220, 0.025309
3810.6500, 0.024515
3812.5790, 0.025214
3814.5070, 0.025704
3816.4360, 0.024809
3818.3640, 0.024511
3820.2920, 0.026577
3822.2210, 0.027887
3824.1490, 0.027389
3826.0780, 0.026405
3828.0060, 0.024820
3829.9350, 0.024666
3831.8630, 0.025265
3833.7920, 0.025314
3835.7200, 0.025346
3837.6490, 0.026013
3839.5770, 0.027123
3841.5060, 0.026900
3843.4340, 0.026142
3845.3630, 0.026013
3847.2910, 0.026596
3849.2190, 0.028134
3851.1480, 0.028698
3853.0760, 0.029609
3855.0050, 0.028649
3856.9330, 0.026869
3858.8620, 0.026190
3860.7900, 0.026020
3862.7190, 0.026280
3864.6470, 0.026094
3866.5760, 0.026729
3868.5040, 0.027075
3870.4330, 0.026687
3872.3610, 0.026408
3874.2900, 0.026616
3876.2180, 0.027037
3878.1460, 0.027276
3880.0750, 0.028408
3882.0030, 0.028986
3883.9320, 0.028276
3885.8600, 0.027170
3887.7890, 0.025515
3889.7170, 0.026015
3891.6460, 0.026382
3893.5740, 0.026925
3895.5030, 0.026448
3897.4310, 0.026690
3899.3600, 0.027425
3901.2880, 0.026738
3903.2170, 0.026324
3905.1450, 0.026532
3907.0730, 0.027421
3909.0020, 0.027130
3910.9300, 0.025519
3912.8590, 0.024876
3914.7870, 0.027200
3916.7160, 0.027438
3918.6440, 0.027063
3920.5730, 0.027175
3922.5010, 0.026851
3924.4300, 0.027219
3926.3580, 0.026551
3928.2870, 0.025475
3930.2150, 0.027150
3932.1440, 0.028031
3934.0720, 0.026527
3936.0000, 0.026874
3937.9290, 0.028281
3939.8570, 0.029060
3941.7860, 0.028708
3943.7140, 0.027457
3945.6430, 0.027278
3947.5710, 0.028171
3949.5000, 0.026440
3951.4280, 0.025688
3953.3570, 0.026743
3955.2850, 0.027013
3957.2140, 0.027259
3959.1420, 0.026747
3961.0710, 0.025439
3962.9990, 0.025392
3964.9270, 0.027537
3966.8560, 0.028368
3968.7840, 0.027104
3970.7130, 0.027291
3972.6410, 0.026801
3974.5700, 0.026566
3976.4980, 0.027876
3978.4270, 0.028193
3980.3550, 0.027508
3982.2840, 0.028639
3984.2120, 0.028678
3986.1410, 0.028871
3988.0690, 0.029363
3989.9980, 0.029306
3991.9260, 0.028646
3993.8540, 0.027586
3995.7830, 0.028153
3997.7110, 0.028887
3999.6400, 0.028901
##END=



