##NAMES=Scheelite
##RRUFFID=R040173
##IDEAL CHEMISTRY=CaW^6+^O_4_
##LOCALITY=Santa Cruz, Sonora, Mexico
##OWNER=RRUFF
##SOURCE=University of Arizona Mineral Museum
##DESCRIPTION=Yellow crystal fragments
##STATUS=The identification of this mineral has been confirmed by X-ray diffraction and chemical analysis
##URL=rruff.info/R040173
##MEASURED CHEMISTRY=Ca_1.00_W_1.00_O_4_
399.1926, 0.014551
401.1211, 0.020073
403.0496, 0.020170
404.9780, 0.021089
406.9065, 0.023258
408.8350, 0.024674
410.7634, 0.027296
412.6919, 0.028593
414.6204, 0.030862
416.5488, 0.035226
418.4773, 0.039295
420.4058, 0.044969
422.3342, 0.050282
424.2627, 0.058904
426.1912, 0.070839
428.1196, 0.082738
430.0481, 0.097225
431.9766, 0.113342
433.9050, 0.128531
435.8335, 0.139241
437.7620, 0.143764
439.6904, 0.139287
441.6189, 0.126243
443.5474, 0.110605
445.4758, 0.094220
447.4043, 0.077385
449.3328, 0.064319
451.2612, 0.054051
453.1897, 0.046195
455.1182, 0.041519
457.0466, 0.037764
458.9751, 0.034657
460.9036, 0.032783
462.8320, 0.031469
464.7605, 0.031095
466.6890, 0.029970
468.6174, 0.028623
470.5459, 0.027996
472.4744, 0.027615
474.4028, 0.027501
476.3313, 0.027560
478.2598, 0.027355
480.1882, 0.026837
482.1167, 0.027012
484.0452, 0.027303
485.9736, 0.027950
487.9021, 0.028354
489.8306, 0.028208
491.7590, 0.028580
493.6875, 0.028935
495.6160, 0.029262
497.5444, 0.030317
499.4729, 0.030920
501.4014, 0.031296
503.3298, 0.032307
505.2583, 0.033495
507.1868, 0.034628
509.1152, 0.035532
511.0437, 0.036491
512.9722, 0.037097
514.9006, 0.038288
516.8291, 0.040311
518.7576, 0.041526
520.6860, 0.042301
522.6145, 0.043894
524.5430, 0.045505
526.4714, 0.046725
528.3999, 0.048669
530.3284, 0.050696
532.2568, 0.052123
534.1853, 0.053659
536.1138, 0.055711
538.0422, 0.057511
539.9707, 0.059020
541.8992, 0.060648
543.8276, 0.062737
545.7561, 0.065101
547.6846, 0.066996
549.6130, 0.068907
551.5415, 0.071059
553.4700, 0.073488
555.3984, 0.075810
557.3269, 0.077895
559.2554, 0.079967
561.1838, 0.082048
563.1123, 0.084565
565.0408, 0.087092
566.9692, 0.089314
568.8977, 0.091556
570.8262, 0.093991
572.7546, 0.096751
574.6831, 0.099473
576.6116, 0.101903
578.5400, 0.104424
580.4685, 0.106717
582.3970, 0.109155
584.3254, 0.112151
586.2539, 0.114569
588.1824, 0.116653
590.1108, 0.118822
592.0393, 0.121727
593.9678, 0.124726
595.8962, 0.127461
597.8247, 0.130450
599.7532, 0.133794
601.6816, 0.136955
603.6101, 0.139785
605.5386, 0.141938
607.4670, 0.145243
609.3955, 0.149008
611.3240, 0.152307
613.2524, 0.155393
615.1809, 0.158925
617.1094, 0.162330
619.0378, 0.165356
620.9663, 0.168954
622.8948, 0.172711
624.8232, 0.176920
626.7517, 0.181014
628.6802, 0.184275
630.6086, 0.188043
632.5371, 0.192191
634.4656, 0.195734
636.3940, 0.199853
638.3225, 0.204509
640.2510, 0.208992
642.1794, 0.212970
644.1079, 0.217613
646.0364, 0.222252
647.9648, 0.226468
649.8933, 0.230520
651.8218, 0.234764
653.7502, 0.239150
655.6787, 0.243867
657.6072, 0.248625
659.5356, 0.253604
661.4641, 0.258876
663.3926, 0.263555
665.3210, 0.267850
667.2495, 0.272561
669.1780, 0.277625
671.1064, 0.282924
673.0349, 0.287966
674.9634, 0.293107
676.8918, 0.298616
678.8203, 0.303939
680.7488, 0.309393
682.6772, 0.315057
684.6057, 0.320937
686.5342, 0.327099
688.4626, 0.333177
690.3911, 0.338995
692.3196, 0.345266
694.2480, 0.351593
696.1765, 0.358118
698.1050, 0.364589
700.0334, 0.371053
701.9619, 0.377853
703.8904, 0.384008
705.8188, 0.390075
707.7473, 0.396487
709.6758, 0.403245
711.6042, 0.408926
713.5327, 0.414543
715.4612, 0.420863
717.3896, 0.427095
719.3181, 0.433043
721.2466, 0.439455
723.1750, 0.445711
725.1035, 0.451207
727.0320, 0.457398
728.9604, 0.464094
730.8889, 0.470933
732.8174, 0.477590
734.7458, 0.483901
736.6743, 0.490445
738.6028, 0.497075
740.5313, 0.503779
742.4597, 0.509955
744.3882, 0.516678
746.3167, 0.522893
748.2451, 0.528903
750.1736, 0.535753
752.1021, 0.541816
754.0305, 0.547038
755.9590, 0.552592
757.8875, 0.558516
759.8159, 0.563713
761.7444, 0.568329
763.6729, 0.572511
765.6013, 0.576635
767.5298, 0.580242
769.4583, 0.583727
771.3867, 0.586984
773.3152, 0.587430
775.2437, 0.585985
777.1721, 0.584013
779.1006, 0.579737
781.0291, 0.571778
782.9575, 0.561382
784.8860, 0.548336
786.8145, 0.533293
788.7429, 0.517357
790.6714, 0.500659
792.5999, 0.483821
794.5283, 0.466911
796.4568, 0.450795
798.3853, 0.434951
800.3137, 0.419661
802.2422, 0.404585
804.1707, 0.389807
806.0991, 0.375737
808.0276, 0.361273
809.9561, 0.346573
811.8845, 0.332294
813.8130, 0.318448
815.7415, 0.305398
817.6699, 0.292936
819.5984, 0.281184
821.5269, 0.270770
823.4553, 0.260901
825.3838, 0.251148
827.3123, 0.242389
829.2407, 0.234344
831.1692, 0.226464
833.0977, 0.219066
835.0261, 0.211811
836.9546, 0.204425
838.8831, 0.197173
840.8115, 0.189747
842.7400, 0.182633
844.6685, 0.175898
846.5969, 0.169038
848.5254, 0.162095
850.4539, 0.154824
852.3823, 0.147963
854.3108, 0.141406
856.2393, 0.134899
858.1677, 0.128335
860.0962, 0.122167
862.0247, 0.116271
863.9531, 0.109979
865.8816, 0.103725
867.8101, 0.098018
869.7385, 0.092260
871.6670, 0.086554
873.5955, 0.080827
875.5239, 0.074956
877.4524, 0.069291
879.3809, 0.063677
881.3093, 0.057663
883.2378, 0.051252
885.1663, 0.044863
887.0947, 0.038508
889.0232, 0.032475
890.9517, 0.026941
892.8801, 0.021945
894.8085, 0.018020
896.7370, 0.015448
898.6655, 0.013521
900.5939, 0.011544
902.5224, 0.010166
904.4509, 0.009326
906.3793, 0.008729
908.3078, 0.008184
910.2363, 0.007763
912.1647, 0.007493
914.0932, 0.007297
916.0217, 0.007327
917.9501, 0.007518
919.8786, 0.007356
921.8071, 0.006800
923.7355, 0.006169
925.6640, 0.005821
927.5925, 0.005805
929.5209, 0.005714
931.4494, 0.005342
933.3779, 0.005055
935.3063, 0.005072
937.2348, 0.005070
939.1633, 0.004870
941.0917, 0.004696
943.0202, 0.004589
944.9487, 0.004568
946.8771, 0.004440
948.8056, 0.004286
950.7341, 0.004546
952.6625, 0.004620
954.5910, 0.004512
956.5195, 0.004545
958.4479, 0.004600
960.3764, 0.004698
962.3049, 0.004664
964.2333, 0.004758
966.1618, 0.004950
968.0903, 0.005124
970.0187, 0.005311
971.9472, 0.005443
973.8757, 0.005439
975.8041, 0.005481
977.7326, 0.005507
979.6611, 0.005631
981.5895, 0.005576
983.5180, 0.005497
985.4465, 0.005608
987.3749, 0.005586
989.3034, 0.005501
991.2319, 0.005529
993.1603, 0.005674
995.0888, 0.005756
997.0173, 0.005831
998.9457, 0.005970
1000.8740, 0.005974
1002.8030, 0.006077
1004.7310, 0.006144
1006.6600, 0.006293
1008.5880, 0.006539
1010.5170, 0.006561
1012.4450, 0.006602
1014.3730, 0.006749
1016.3020, 0.006765
1018.2300, 0.006909
1020.1590, 0.007086
1022.0870, 0.007084
1024.0160, 0.007194
1025.9440, 0.007278
1027.8730, 0.007369
1029.8010, 0.007445
1031.7300, 0.007443
1033.6580, 0.007435
1035.5870, 0.007545
1037.5150, 0.007693
1039.4440, 0.007528
1041.3720, 0.007542
1043.3010, 0.007769
1045.2290, 0.007912
1047.1570, 0.007770
1049.0860, 0.007730
1051.0140, 0.007623
1052.9430, 0.007419
1054.8710, 0.007348
1056.8000, 0.007519
1058.7280, 0.007514
1060.6570, 0.007453
1062.5850, 0.007397
1064.5140, 0.007602
1066.4420, 0.008047
1068.3710, 0.008232
1070.2990, 0.008183
1072.2280, 0.008213
1074.1560, 0.008289
1076.0840, 0.008262
1078.0130, 0.008158
1079.9410, 0.008141
1081.8700, 0.008246
1083.7980, 0.008456
1085.7270, 0.008580
1087.6550, 0.008538
1089.5840, 0.008665
1091.5120, 0.008975
1093.4410, 0.009089
1095.3690, 0.009200
1097.2980, 0.009376
1099.2260, 0.009338
1101.1550, 0.009426
1103.0830, 0.009554
1105.0110, 0.009595
1106.9400, 0.009724
1108.8680, 0.009881
1110.7970, 0.009885
1112.7250, 0.009882
1114.6540, 0.009891
1116.5820, 0.009909
1118.5110, 0.009955
1120.4390, 0.009849
1122.3680, 0.009859
1124.2960, 0.009912
1126.2250, 0.009612
1128.1530, 0.009542
1130.0820, 0.009875
1132.0100, 0.009952
1133.9380, 0.009852
1135.8670, 0.009662
1137.7950, 0.009626
1139.7240, 0.009685
1141.6520, 0.010035
1143.5810, 0.010150
1145.5090, 0.010034
1147.4380, 0.009912
1149.3660, 0.010065
1151.2950, 0.010356
1153.2230, 0.010388
1155.1520, 0.010245
1157.0800, 0.010309
1159.0090, 0.010402
1160.9370, 0.010568
1162.8650, 0.010708
1164.7940, 0.010575
1166.7220, 0.010464
1168.6510, 0.010672
1170.5790, 0.010769
1172.5080, 0.010711
1174.4360, 0.010701
1176.3650, 0.010808
1178.2930, 0.011025
1180.2220, 0.011062
1182.1500, 0.011083
1184.0790, 0.011280
1186.0070, 0.011486
1187.9360, 0.011489
1189.8640, 0.011444
1191.7920, 0.011641
1193.7210, 0.011671
1195.6490, 0.011612
1197.5780, 0.011770
1199.5060, 0.011968
1201.4350, 0.012100
1203.3630, 0.012103
1205.2920, 0.012099
1207.2200, 0.012188
1209.1490, 0.012283
1211.0770, 0.012256
1213.0060, 0.012266
1214.9340, 0.012523
1216.8630, 0.012701
1218.7910, 0.012846
1220.7190, 0.012750
1222.6480, 0.012777
1224.5760, 0.012856
1226.5050, 0.012844
1228.4330, 0.012893
1230.3620, 0.013059
1232.2900, 0.013191
1234.2190, 0.013351
1236.1470, 0.013473
1238.0760, 0.013482
1240.0040, 0.013544
1241.9330, 0.013621
1243.8610, 0.013683
1245.7900, 0.013784
1247.7180, 0.013718
1249.6460, 0.013850
1251.5750, 0.013963
1253.5030, 0.013973
1255.4320, 0.014075
1257.3600, 0.014243
1259.2890, 0.014125
1261.2170, 0.014081
1263.1460, 0.014388
1265.0740, 0.014614
1267.0030, 0.014595
1268.9310, 0.014606
1270.8600, 0.014633
1272.7880, 0.014882
1274.7170, 0.015050
1276.6450, 0.015074
1278.5730, 0.015079
1280.5020, 0.015140
1282.4300, 0.015118
1284.3590, 0.015226
1286.2870, 0.015476
1288.2160, 0.015609
1290.1440, 0.015573
1292.0730, 0.015491
1294.0010, 0.015678
1295.9300, 0.016128
1297.8580, 0.016207
1299.7870, 0.016030
1301.7150, 0.016053
1303.6440, 0.016126
1305.5720, 0.016275
1307.5000, 0.016351
1309.4290, 0.016454
1311.3570, 0.016607
1313.2860, 0.016702
1315.2140, 0.016581
1317.1430, 0.016556
1319.0710, 0.016840
1321.0000, 0.017049
1322.9280, 0.017075
1324.8570, 0.017110
1326.7850, 0.017085
1328.7140, 0.016966
1330.6420, 0.016952
1332.5710, 0.017223
1334.4990, 0.017588
1336.4270, 0.017853
1338.3560, 0.017864
1340.2840, 0.017882
1342.2130, 0.018207
1344.1410, 0.018367
1346.0700, 0.018402
1347.9980, 0.018457
1349.9270, 0.018702
1351.8550, 0.019031
1353.7840, 0.019158
1355.7120, 0.018962
1357.6410, 0.018888
1359.5690, 0.018908
1361.4980, 0.019102
1363.4260, 0.019144
1365.3540, 0.019277
1367.2830, 0.019699
1369.2110, 0.019944
1371.1400, 0.019981
1373.0680, 0.020183
1374.9970, 0.020388
1376.9250, 0.020505
1378.8540, 0.020577
1380.7820, 0.020458
1382.7110, 0.020651
1384.6390, 0.020957
1386.5680, 0.020922
1388.4960, 0.020892
1390.4240, 0.021037
1392.3530, 0.020970
1394.2810, 0.021090
1396.2100, 0.021586
1398.1380, 0.021745
1400.0670, 0.021818
1401.9950, 0.021948
1403.9240, 0.022110
1405.8520, 0.022309
1407.7810, 0.022568
1409.7090, 0.022682
1411.6380, 0.022792
1413.5660, 0.023136
1415.4950, 0.023427
1417.4230, 0.023712
1419.3510, 0.024022
1421.2800, 0.024257
1423.2080, 0.024572
1425.1370, 0.024701
1427.0650, 0.024873
1428.9940, 0.025007
1430.9220, 0.025210
1432.8510, 0.025596
1434.7790, 0.025773
1436.7080, 0.025869
1438.6360, 0.026105
1440.5650, 0.026316
1442.4930, 0.026512
1444.4220, 0.026794
1446.3500, 0.027079
1448.2780, 0.027317
1450.2070, 0.027728
1452.1350, 0.027913
1454.0640, 0.027839
1455.9920, 0.027817
1457.9210, 0.028044
1459.8490, 0.028012
1461.7780, 0.027828
1463.7060, 0.027872
1465.6350, 0.027833
1467.5630, 0.027725
1469.4920, 0.027698
1471.4200, 0.027413
1473.3490, 0.027175
1475.2770, 0.026972
1477.2050, 0.026872
1479.1340, 0.026800
1481.0620, 0.026559
1482.9910, 0.026298
1484.9190, 0.026264
1486.8480, 0.026309
1488.7760, 0.026197
1490.7050, 0.026111
1492.6330, 0.026183
1494.5620, 0.026233
1496.4900, 0.025949
1498.4190, 0.025942
1500.3470, 0.026180
1502.2760, 0.026411
1504.2040, 0.026530
1506.1320, 0.026604
1508.0610, 0.026598
1509.9890, 0.026541
1511.9180, 0.026797
1513.8460, 0.026847
1515.7750, 0.026815
1517.7030, 0.026829
1519.6320, 0.026636
1521.5600, 0.026521
1523.4890, 0.026917
1525.4170, 0.027115
1527.3460, 0.027257
1529.2740, 0.027560
1531.2030, 0.027874
1533.1310, 0.028098
1535.0590, 0.028452
1536.9880, 0.028730
1538.9160, 0.028858
1540.8450, 0.029063
1542.7730, 0.029357
1544.7020, 0.029621
1546.6300, 0.029831
1548.5590, 0.029996
1550.4870, 0.030350
1552.4160, 0.030669
1554.3440, 0.030774
1556.2730, 0.030843
1558.2010, 0.030639
1560.1300, 0.030601
1562.0580, 0.030932
1563.9860, 0.031064
1565.9150, 0.031285
1567.8430, 0.031614
1569.7720, 0.031636
1571.7000, 0.031943
1573.6290, 0.032189
1575.5570, 0.032017
1577.4860, 0.032271
1579.4140, 0.032764
1581.3430, 0.033018
1583.2710, 0.032935
1585.2000, 0.033051
1587.1280, 0.033252
1589.0570, 0.033380
1590.9850, 0.033157
1592.9130, 0.033155
1594.8420, 0.033395
1596.7700, 0.033481
1598.6990, 0.033453
1600.6270, 0.033262
1602.5560, 0.033151
1604.4840, 0.033405
1606.4130, 0.033484
1608.3410, 0.033400
1610.2700, 0.033221
1612.1980, 0.033046
1614.1270, 0.033140
1616.0550, 0.033272
1617.9840, 0.033334
1619.9120, 0.033489
1621.8400, 0.033647
1623.7690, 0.033749
1625.6970, 0.034053
1627.6260, 0.034048
1629.5540, 0.033766
1631.4830, 0.033855
1633.4110, 0.034048
1635.3400, 0.033928
1637.2680, 0.033708
1639.1970, 0.033799
1641.1250, 0.033857
1643.0540, 0.033749
1644.9820, 0.033941
1646.9110, 0.034275
1648.8390, 0.034348
1650.7670, 0.034429
1652.6960, 0.034367
1654.6240, 0.034641
1656.5530, 0.034877
1658.4810, 0.034881
1660.4100, 0.035006
1662.3380, 0.034949
1664.2670, 0.035041
1666.1950, 0.035189
1668.1240, 0.035073
1670.0520, 0.035069
1671.9810, 0.035368
1673.9090, 0.035382
1675.8380, 0.035214
1677.7660, 0.035412
1679.6940, 0.035474
1681.6230, 0.035477
1683.5510, 0.035322
1685.4800, 0.035413
1687.4080, 0.035419
1689.3370, 0.035589
1691.2650, 0.036029
1693.1940, 0.036309
1695.1220, 0.036462
1697.0510, 0.036870
1698.9790, 0.036890
1700.9080, 0.036649
1702.8360, 0.036407
1704.7650, 0.036269
1706.6930, 0.036619
1708.6210, 0.036643
1710.5500, 0.036716
1712.4780, 0.036779
1714.4070, 0.036491
1716.3350, 0.036201
1718.2640, 0.035957
1720.1920, 0.035934
1722.1210, 0.035890
1724.0490, 0.035844
1725.9780, 0.035508
1727.9060, 0.035277
1729.8350, 0.035121
1731.7630, 0.035063
1733.6920, 0.034767
1735.6200, 0.034703
1737.5480, 0.034748
1739.4770, 0.034474
1741.4050, 0.034525
1743.3340, 0.034881
1745.2620, 0.035014
1747.1910, 0.034829
1749.1190, 0.034764
1751.0480, 0.035000
1752.9760, 0.035337
1754.9050, 0.035444
1756.8330, 0.035154
1758.7620, 0.035036
1760.6900, 0.035104
1762.6190, 0.034905
1764.5470, 0.035031
1766.4750, 0.035282
1768.4040, 0.035223
1770.3320, 0.035166
1772.2610, 0.035082
1774.1890, 0.035177
1776.1180, 0.035273
1778.0460, 0.035591
1779.9750, 0.035919
1781.9030, 0.036080
1783.8320, 0.036114
1785.7600, 0.035944
1787.6890, 0.036105
1789.6170, 0.036214
1791.5460, 0.036391
1793.4740, 0.037024
1795.4020, 0.037416
1797.3310, 0.037453
1799.2590, 0.037403
1801.1880, 0.037347
1803.1160, 0.037050
1805.0450, 0.036882
1806.9730, 0.036776
1808.9020, 0.036714
1810.8300, 0.036481
1812.7590, 0.036051
1814.6870, 0.035581
1816.6160, 0.035572
1818.5440, 0.035902
1820.4730, 0.036170
1822.4010, 0.036209
1824.3290, 0.036160
1826.2580, 0.036189
1828.1860, 0.036424
1830.1150, 0.036794
1832.0430, 0.036775
1833.9720, 0.036380
1835.9000, 0.036636
1837.8290, 0.036743
1839.7570, 0.036902
1841.6860, 0.037629
1843.6140, 0.037639
1845.5430, 0.037413
1847.4710, 0.037680
1849.4000, 0.037645
1851.3280, 0.037424
1853.2560, 0.037321
1855.1850, 0.037713
1857.1130, 0.037887
1859.0420, 0.037664
1860.9700, 0.038082
1862.8990, 0.038209
1864.8270, 0.037885
1866.7560, 0.038180
1868.6840, 0.037885
1870.6130, 0.037458
1872.5410, 0.037915
1874.4700, 0.038233
1876.3980, 0.038191
1878.3270, 0.038354
1880.2550, 0.038457
1882.1830, 0.038730
1884.1120, 0.038540
1886.0400, 0.037976
1887.9690, 0.038167
1889.8970, 0.038406
1891.8260, 0.038476
1893.7540, 0.039012
1895.6830, 0.039528
1897.6110, 0.039248
1899.5400, 0.038784
1901.4680, 0.039181
1903.3970, 0.039686
1905.3250, 0.039692
1907.2540, 0.039729
1909.1820, 0.039699
1911.1100, 0.039261
1913.0390, 0.038914
1914.9670, 0.038557
1916.8960, 0.039470
1918.8240, 0.039933
1920.7530, 0.038882
1922.6810, 0.039336
1924.6100, 0.039850
1926.5380, 0.039947
1928.4670, 0.040302
1930.3950, 0.039864
1932.3240, 0.039639
1934.2520, 0.039719
1936.1810, 0.040832
1938.1090, 0.041447
1940.0370, 0.040840
1941.9660, 0.040219
1943.8940, 0.039503
1945.8230, 0.039119
1947.7510, 0.039087
1949.6800, 0.039493
1951.6080, 0.040203
1953.5370, 0.040911
1955.4650, 0.040751
1957.3940, 0.039484
1959.3220, 0.038810
1961.2510, 0.038925
1963.1790, 0.039607
1965.1080, 0.040098
1967.0360, 0.040021
1968.9640, 0.039664
1970.8930, 0.040197
1972.8210, 0.038969
1974.7500, 0.037288
1976.6780, 0.038685
1978.6070, 0.041080
1980.5350, 0.042734
1982.4640, 0.042407
1984.3920, 0.041478
1986.3210, 0.042126
1988.2490, 0.042326
1990.1780, 0.041530
1992.1060, 0.041669
1994.0350, 0.042272
1995.9630, 0.041752
1997.8910, 0.041542
1999.8200, 0.042035
2001.7480, 0.041878
2003.6770, 0.042532
2005.6050, 0.042796
2007.5340, 0.042319
2009.4620, 0.041449
2011.3910, 0.039660
2013.3190, 0.039700
2015.2480, 0.040543
2017.1760, 0.040830
2019.1050, 0.040368
2021.0330, 0.040059
2022.9620, 0.042549
2024.8900, 0.041115
2026.8180, 0.040600
2028.7470, 0.041349
2030.6750, 0.042184
2032.6040, 0.042477
2034.5320, 0.042584
2036.4610, 0.044054
2038.3890, 0.044051
2040.3180, 0.043498
2042.2460, 0.044031
2044.1750, 0.044891
2046.1030, 0.044297
2048.0320, 0.045289
2049.9600, 0.046006
2051.8890, 0.045724
2053.8170, 0.045499
2055.7460, 0.044527
2057.6740, 0.044923
2059.6030, 0.045779
2061.5310, 0.046587
2063.4590, 0.046420
2065.3880, 0.045975
2067.3160, 0.046254
2069.2450, 0.045862
2071.1730, 0.045837
2073.1020, 0.045954
2075.0300, 0.046270
2076.9590, 0.047175
2078.8870, 0.047723
2080.8160, 0.047616
2082.7440, 0.047023
2084.6730, 0.046528
2086.6010, 0.046890
2088.5300, 0.046866
2090.4580, 0.047040
2092.3860, 0.047013
2094.3150, 0.046508
2096.2430, 0.046650
2098.1720, 0.047281
2100.1000, 0.046920
2102.0290, 0.045906
2103.9570, 0.046040
2105.8860, 0.047183
2107.8140, 0.047521
2109.7430, 0.048467
2111.6710, 0.048462
2113.6000, 0.048151
2115.5280, 0.048494
2117.4570, 0.047628
2119.3850, 0.046016
2121.3130, 0.046334
2123.2420, 0.047180
2125.1700, 0.046889
2127.0990, 0.046490
2129.0270, 0.045840
2130.9560, 0.046113
2132.8840, 0.046357
2134.8130, 0.046886
2136.7410, 0.047270
2138.6700, 0.047548
2140.5980, 0.046822
2142.5270, 0.047255
2144.4550, 0.047241
2146.3840, 0.045966
2148.3120, 0.045957
2150.2400, 0.045561
2152.1690, 0.045228
2154.0970, 0.045858
2156.0260, 0.044810
2157.9540, 0.045956
2159.8830, 0.050141
2161.8110, 0.050933
2163.7400, 0.050710
2165.6680, 0.051492
2167.5970, 0.051064
2169.5250, 0.050400
2171.4540, 0.050496
2173.3820, 0.050303
2175.3110, 0.050934
2177.2390, 0.051901
2179.1670, 0.050739
2181.0960, 0.050109
2183.0240, 0.051185
2184.9530, 0.051485
2186.8810, 0.050605
2188.8100, 0.049991
2190.7380, 0.049432
2192.6670, 0.049099
2194.5950, 0.050140
2196.5240, 0.052084
2198.4520, 0.052025
2200.3810, 0.050154
2202.3090, 0.049603
2204.2380, 0.050749
2206.1660, 0.050962
2208.0940, 0.050347
2210.0230, 0.051228
2211.9510, 0.051858
2213.8800, 0.051640
2215.8080, 0.051512
2217.7370, 0.050975
2219.6650, 0.050614
2221.5940, 0.051605
2223.5220, 0.052606
2225.4510, 0.052633
2227.3790, 0.051965
2229.3080, 0.051132
2231.2360, 0.051178
2233.1650, 0.051650
2235.0930, 0.052835
2237.0210, 0.052826
2238.9500, 0.052314
2240.8780, 0.052339
2242.8070, 0.052048
2244.7350, 0.051846
2246.6640, 0.052341
2248.5920, 0.053387
2250.5210, 0.053735
2252.4490, 0.053579
2254.3780, 0.053936
2256.3060, 0.054009
2258.2350, 0.053794
2260.1630, 0.054606
2262.0920, 0.054830
2264.0200, 0.054405
2265.9480, 0.053696
2267.8770, 0.053308
2269.8050, 0.053876
2271.7340, 0.053642
2273.6620, 0.054136
2275.5910, 0.054296
2277.5190, 0.053967
2279.4480, 0.054063
2281.3760, 0.054701
2283.3050, 0.055414
2285.2330, 0.055686
2287.1620, 0.055606
2289.0900, 0.055951
2291.0190, 0.055910
2292.9470, 0.055606
2294.8750, 0.055009
2296.8040, 0.054504
2298.7320, 0.054864
2300.6610, 0.055545
2302.5890, 0.055651
2304.5180, 0.055832
2306.4460, 0.056474
2308.3750, 0.056071
2310.3030, 0.055625
2312.2320, 0.056079
2314.1600, 0.056380
2316.0890, 0.056226
2318.0170, 0.056686
2319.9460, 0.057087
2321.8740, 0.057656
2323.8020, 0.057850
2325.7310, 0.056975
2327.6590, 0.056267
2329.5880, 0.056093
2331.5160, 0.055519
2333.4450, 0.055368
2335.3730, 0.055645
2337.3020, 0.055663
2339.2300, 0.055930
2341.1590, 0.056209
2343.0870, 0.056282
2345.0160, 0.056442
2346.9440, 0.056708
2348.8730, 0.056950
2350.8010, 0.056598
2352.7290, 0.056371
2354.6580, 0.056729
2356.5860, 0.057149
2358.5150, 0.057569
2360.4430, 0.057380
2362.3720, 0.056776
2364.3000, 0.056634
2366.2290, 0.056977
2368.1570, 0.056780
2370.0860, 0.056743
2372.0140, 0.056567
2373.9420, 0.056140
2375.8710, 0.056126
2377.7990, 0.056620
2379.7280, 0.056383
2381.6560, 0.056539
2383.5850, 0.056806
2385.5130, 0.057151
2387.4420, 0.057043
2389.3700, 0.056905
2391.2990, 0.056860
2393.2270, 0.057042
2395.1560, 0.057127
2397.0840, 0.057519
2399.0120, 0.057769
2400.9410, 0.057156
2402.8690, 0.056889
2404.7980, 0.057571
2406.7260, 0.058033
2408.6550, 0.057312
2410.5830, 0.057789
2412.5120, 0.058363
2414.4400, 0.058204
2416.3690, 0.058397
2418.2970, 0.058938
2420.2260, 0.059087
2422.1540, 0.058827
2424.0830, 0.058364
2426.0110, 0.058292
2427.9390, 0.058846
2429.8680, 0.059069
2431.7960, 0.058384
2433.7250, 0.058176
2435.6530, 0.058723
2437.5820, 0.059250
2439.5100, 0.059692
2441.4390, 0.060210
2443.3670, 0.059899
2445.2960, 0.059568
2447.2240, 0.059657
2449.1530, 0.060544
2451.0810, 0.059935
2453.0100, 0.058995
2454.9380, 0.059718
2456.8660, 0.060506
2458.7950, 0.060236
2460.7230, 0.059813
2462.6520, 0.059460
2464.5800, 0.059438
2466.5090, 0.059134
2468.4370, 0.059472
2470.3660, 0.060060
2472.2940, 0.059696
2474.2230, 0.059933
2476.1510, 0.060450
2478.0800, 0.060175
2480.0080, 0.060123
2481.9370, 0.060369
2483.8650, 0.060547
2485.7930, 0.060659
2487.7220, 0.060325
2489.6500, 0.060489
2491.5790, 0.060761
2493.5070, 0.061152
2495.4360, 0.060912
2497.3640, 0.060175
2499.2930, 0.060448
2501.2210, 0.060758
2503.1500, 0.060993
2505.0780, 0.061265
2507.0070, 0.060948
2508.9350, 0.061020
2510.8640, 0.061208
2512.7920, 0.061400
2514.7200, 0.061658
2516.6490, 0.061659
2518.5770, 0.062066
2520.5060, 0.062712
2522.4340, 0.062262
2524.3630, 0.062135
2526.2910, 0.062592
2528.2200, 0.062078
2530.1480, 0.062154
2532.0770, 0.062355
2534.0050, 0.062322
2535.9340, 0.062556
2537.8620, 0.062850
2539.7910, 0.062161
2541.7190, 0.061920
2543.6470, 0.062081
2545.5760, 0.061914
2547.5040, 0.061711
2549.4330, 0.061590
2551.3610, 0.062231
2553.2900, 0.062610
2555.2180, 0.062231
2557.1470, 0.062931
2559.0750, 0.063611
2561.0040, 0.063510
2562.9320, 0.063633
2564.8610, 0.063707
2566.7890, 0.064254
2568.7180, 0.063939
2570.6460, 0.063271
2572.5740, 0.063581
2574.5030, 0.063459
2576.4310, 0.063003
2578.3600, 0.062994
2580.2880, 0.063699
2582.2170, 0.064546
2584.1450, 0.064569
2586.0740, 0.064024
2588.0020, 0.063306
2589.9310, 0.063599
2591.8590, 0.064175
2593.7880, 0.064920
2595.7160, 0.064823
2597.6450, 0.064798
2599.5730, 0.064757
2601.5010, 0.065097
2603.4300, 0.065209
2605.3580, 0.064916
2607.2870, 0.065434
2609.2150, 0.065099
2611.1440, 0.064721
2613.0720, 0.065036
2615.0010, 0.065581
2616.9290, 0.065446
2618.8580, 0.064843
2620.7860, 0.065006
2622.7150, 0.065360
2624.6430, 0.066044
2626.5720, 0.066584
2628.5000, 0.066017
2630.4280, 0.065908
2632.3570, 0.066836
2634.2850, 0.067033
2636.2140, 0.066340
2638.1420, 0.066049
2640.0710, 0.066117
2641.9990, 0.066662
2643.9280, 0.066939
2645.8560, 0.066505
2647.7850, 0.066440
2649.7130, 0.067004
2651.6420, 0.067757
2653.5700, 0.067518
2655.4990, 0.067264
2657.4270, 0.067300
2659.3550, 0.067052
2661.2840, 0.067029
2663.2120, 0.067011
2665.1410, 0.066644
2667.0690, 0.066372
2668.9980, 0.066726
2670.9260, 0.067119
2672.8550, 0.067015
2674.7830, 0.066671
2676.7120, 0.066613
2678.6400, 0.066785
2680.5690, 0.067440
2682.4970, 0.067753
2684.4260, 0.066642
2686.3540, 0.066078
2688.2820, 0.066466
2690.2110, 0.066912
2692.1390, 0.066946
2694.0680, 0.067155
2695.9960, 0.067284
2697.9250, 0.067197
2699.8530, 0.067447
2701.7820, 0.067567
2703.7100, 0.067924
2705.6390, 0.068320
2707.5670, 0.068170
2709.4960, 0.068150
2711.4240, 0.068096
2713.3530, 0.068027
2715.2810, 0.068531
2717.2090, 0.068637
2719.1380, 0.068445
2721.0660, 0.068070
2722.9950, 0.068116
2724.9230, 0.068514
2726.8520, 0.068926
2728.7800, 0.068877
2730.7090, 0.068787
2732.6370, 0.068504
2734.5660, 0.068381
2736.4940, 0.068487
2738.4230, 0.068640
2740.3510, 0.068659
2742.2800, 0.068838
2744.2080, 0.068825
2746.1360, 0.069165
2748.0650, 0.069265
2749.9930, 0.068818
2751.9220, 0.069108
2753.8500, 0.069560
2755.7790, 0.069899
2757.7070, 0.069769
2759.6360, 0.069299
2761.5640, 0.068995
2763.4930, 0.069221
2765.4210, 0.069737
2767.3500, 0.069611
2769.2780, 0.069841
2771.2070, 0.070270
2773.1350, 0.070526
2775.0630, 0.070654
2776.9920, 0.070566
2778.9200, 0.069779
2780.8490, 0.069469
2782.7770, 0.069766
2784.7060, 0.070152
2786.6340, 0.070914
2788.5630, 0.071300
2790.4910, 0.071291
2792.4200, 0.071269
2794.3480, 0.071213
2796.2770, 0.071011
2798.2050, 0.070727
2800.1340, 0.070758
2802.0620, 0.071084
2803.9900, 0.071262
2805.9190, 0.071408
2807.8470, 0.071743
2809.7760, 0.072202
2811.7040, 0.072063
2813.6330, 0.072109
2815.5610, 0.072401
2817.4900, 0.071955
2819.4180, 0.071519
2821.3470, 0.071713
2823.2750, 0.072137
2825.2040, 0.071971
2827.1320, 0.071972
2829.0610, 0.072385
2830.9890, 0.072286
2832.9170, 0.072019
2834.8460, 0.072720
2836.7740, 0.073415
2838.7030, 0.073162
2840.6310, 0.072232
2842.5600, 0.073039
2844.4880, 0.073948
2846.4170, 0.073791
2848.3450, 0.073879
2850.2740, 0.073772
2852.2020, 0.073749
2854.1310, 0.075050
2856.0590, 0.075257
2857.9880, 0.075133
2859.9160, 0.075506
2861.8440, 0.075293
2863.7730, 0.074378
2865.7010, 0.074419
2867.6300, 0.074930
2869.5580, 0.075087
2871.4870, 0.075047
2873.4150, 0.074411
2875.3440, 0.073890
2877.2720, 0.073968
2879.2010, 0.074239
2881.1290, 0.075178
2883.0580, 0.075533
2884.9860, 0.075512
2886.9150, 0.075342
2888.8430, 0.075035
2890.7710, 0.074533
2892.7000, 0.074778
2894.6280, 0.075761
2896.5570, 0.076397
2898.4850, 0.076218
2900.4140, 0.076173
2902.3420, 0.076607
2904.2710, 0.076869
2906.1990, 0.076647
2908.1280, 0.076127
2910.0560, 0.076374
2911.9850, 0.076290
2913.9130, 0.076660
2915.8420, 0.077977
2917.7700, 0.078098
2919.6980, 0.078464
2921.6270, 0.078964
2923.5550, 0.079370
2925.4840, 0.079385
2927.4120, 0.079198
2929.3410, 0.079065
2931.2690, 0.078744
2933.1980, 0.078090
2935.1260, 0.078428
2937.0550, 0.078743
2938.9830, 0.078439
2940.9120, 0.078493
2942.8400, 0.078420
2944.7690, 0.077923
2946.6970, 0.077465
2948.6250, 0.077594
2950.5540, 0.078145
2952.4820, 0.078221
2954.4110, 0.078167
2956.3390, 0.078614
2958.2680, 0.079080
2960.1960, 0.078614
2962.1250, 0.078559
2964.0530, 0.078771
2965.9820, 0.078895
2967.9100, 0.078258
2969.8390, 0.077854
2971.7670, 0.077688
2973.6960, 0.076733
2975.6240, 0.076984
2977.5520, 0.077987
2979.4810, 0.077036
2981.4090, 0.076815
2983.3380, 0.077100
2985.2660, 0.076789
2987.1950, 0.076734
2989.1230, 0.077592
2991.0520, 0.077545
2992.9800, 0.076571
2994.9090, 0.076788
2996.8370, 0.077251
2998.7660, 0.077020
3000.6940, 0.078299
3002.6230, 0.078557
3004.5510, 0.077428
3006.4790, 0.077997
3008.4080, 0.078706
3010.3360, 0.077768
3012.2650, 0.077684
3014.1930, 0.078442
3016.1220, 0.078310
3018.0500, 0.078518
3019.9790, 0.078730
3021.9070, 0.078750
3023.8360, 0.079337
3025.7640, 0.079001
3027.6930, 0.078203
3029.6210, 0.077694
3031.5500, 0.077897
3033.4780, 0.077979
3035.4060, 0.078921
3037.3350, 0.079378
3039.2630, 0.079360
3041.1920, 0.078458
3043.1200, 0.077367
3045.0490, 0.077314
3046.9770, 0.078075
3048.9060, 0.079051
3050.8340, 0.079515
3052.7630, 0.079252
3054.6910, 0.079818
3056.6200, 0.080303
3058.5480, 0.079967
3060.4770, 0.079655
3062.4050, 0.079826
3064.3330, 0.079454
3066.2620, 0.079301
3068.1900, 0.079520
3070.1190, 0.079977
3072.0470, 0.079589
3073.9760, 0.079804
3075.9040, 0.080978
3077.8330, 0.081385
3079.7610, 0.081495
3081.6900, 0.080904
3083.6180, 0.080283
3085.5470, 0.080249
3087.4750, 0.080789
3089.4040, 0.081088
3091.3320, 0.081603
3093.2600, 0.080949
3095.1890, 0.080915
3097.1170, 0.081763
3099.0460, 0.082175
3100.9740, 0.082373
3102.9030, 0.081982
3104.8310, 0.081291
3106.7600, 0.081153
3108.6880, 0.081313
3110.6170, 0.082233
3112.5450, 0.083149
3114.4740, 0.083015
3116.4020, 0.082645
3118.3310, 0.082478
3120.2590, 0.082976
3122.1880, 0.083009
3124.1160, 0.083254
3126.0440, 0.083793
3127.9730, 0.084033
3129.9010, 0.083471
3131.8300, 0.082611
3133.7580, 0.082402
3135.6870, 0.082422
3137.6150, 0.082802
3139.5440, 0.083294
3141.4720, 0.083414
3143.4010, 0.082719
3145.3290, 0.082780
3147.2580, 0.084097
3149.1860, 0.084203
3151.1150, 0.083230
3153.0430, 0.083120
3154.9710, 0.083788
3156.9000, 0.084324
3158.8280, 0.084632
3160.7570, 0.084007
3162.6850, 0.083244
3164.6140, 0.082529
3166.5420, 0.083057
3168.4710, 0.084167
3170.3990, 0.084444
3172.3280, 0.084478
3174.2560, 0.084892
3176.1850, 0.085364
3178.1130, 0.086286
3180.0420, 0.086776
3181.9700, 0.085928
3183.8980, 0.085065
3185.8270, 0.084999
3187.7550, 0.084822
3189.6840, 0.084844
3191.6120, 0.085455
3193.5410, 0.086247
3195.4690, 0.086387
3197.3980, 0.086170
3199.3260, 0.086003
3201.2550, 0.086254
3203.1830, 0.086895
3205.1120, 0.087472
3207.0400, 0.087902
3208.9690, 0.086581
3210.8970, 0.085672
3212.8250, 0.086445
3214.7540, 0.087573
3216.6820, 0.087126
3218.6110, 0.086654
3220.5390, 0.085936
3222.4680, 0.086102
3224.3960, 0.086219
3226.3250, 0.085825
3228.2530, 0.086578
3230.1820, 0.087019
3232.1100, 0.087503
3234.0390, 0.087996
3235.9670, 0.087591
3237.8960, 0.087436
3239.8240, 0.087804
3241.7520, 0.088608
3243.6810, 0.089068
3245.6090, 0.088944
3247.5380, 0.088805
3249.4660, 0.088317
3251.3950, 0.087470
3253.3230, 0.087042
3255.2520, 0.087130
3257.1800, 0.086926
3259.1090, 0.087807
3261.0370, 0.088512
3262.9660, 0.087835
3264.8940, 0.087730
3266.8230, 0.088235
3268.7510, 0.088589
3270.6790, 0.088827
3272.6080, 0.089875
3274.5360, 0.089618
3276.4650, 0.089055
3278.3930, 0.088071
3280.3220, 0.088512
3282.2500, 0.089181
3284.1790, 0.088477
3286.1070, 0.088209
3288.0360, 0.089050
3289.9640, 0.090074
3291.8930, 0.089477
3293.8210, 0.089300
3295.7500, 0.089286
3297.6780, 0.088995
3299.6060, 0.089303
3301.5350, 0.089892
3303.4630, 0.089229
3305.3920, 0.089492
3307.3200, 0.089306
3309.2490, 0.088088
3311.1770, 0.088937
3313.1060, 0.090182
3315.0340, 0.090474
3316.9630, 0.090890
3318.8910, 0.090603
3320.8200, 0.090471
3322.7480, 0.090067
3324.6770, 0.090122
3326.6050, 0.090454
3328.5330, 0.090666
3330.4620, 0.090175
3332.3900, 0.089904
3334.3190, 0.089996
3336.2470, 0.090423
3338.1760, 0.090226
3340.1040, 0.090691
3342.0330, 0.091331
3343.9610, 0.091012
3345.8900, 0.090157
3347.8180, 0.089972
3349.7470, 0.090220
3351.6750, 0.090763
3353.6040, 0.091324
3355.5320, 0.091995
3357.4600, 0.092795
3359.3890, 0.093322
3361.3170, 0.092803
3363.2460, 0.091893
3365.1740, 0.091138
3367.1030, 0.090948
3369.0310, 0.091139
3370.9600, 0.090599
3372.8880, 0.090508
3374.8170, 0.091070
3376.7450, 0.091814
3378.6740, 0.091690
3380.6020, 0.091140
3382.5310, 0.090978
3384.4590, 0.090662
3386.3870, 0.091472
3388.3160, 0.091963
3390.2440, 0.091342
3392.1730, 0.091650
3394.1010, 0.092635
3396.0300, 0.092000
3397.9580, 0.092677
3399.8870, 0.093015
3401.8150, 0.091130
3403.7440, 0.092055
3405.6720, 0.093845
3407.6010, 0.092940
3409.5290, 0.091841
3411.4580, 0.091640
3413.3860, 0.092237
3415.3140, 0.092733
3417.2430, 0.092848
3419.1710, 0.092716
3421.1000, 0.092783
3423.0280, 0.092791
3424.9570, 0.092443
3426.8850, 0.092530
3428.8140, 0.093159
3430.7420, 0.092604
3432.6710, 0.092281
3434.5990, 0.092304
3436.5280, 0.091835
3438.4560, 0.091060
3440.3850, 0.092711
3442.3130, 0.092748
3444.2410, 0.091751
3446.1700, 0.091662
3448.0980, 0.092886
3450.0270, 0.093096
3451.9550, 0.094138
3453.8840, 0.093968
3455.8120, 0.091709
3457.7410, 0.091535
3459.6690, 0.092385
3461.5980, 0.092807
3463.5260, 0.093418
3465.4550, 0.092274
3467.3830, 0.091043
3469.3120, 0.091360
3471.2400, 0.092477
3473.1680, 0.093213
3475.0970, 0.092316
3477.0250, 0.092806
3478.9540, 0.093115
3480.8820, 0.092930
3482.8110, 0.093279
3484.7390, 0.092368
3486.6680, 0.091366
3488.5960, 0.091970
3490.5250, 0.093036
3492.4530, 0.092879
3494.3820, 0.092277
3496.3100, 0.092836
3498.2390, 0.093435
3500.1670, 0.093719
3502.0950, 0.094704
3504.0240, 0.094863
3505.9520, 0.093968
3507.8810, 0.092699
3509.8090, 0.092578
3511.7380, 0.093887
3513.6660, 0.093380
3515.5950, 0.092251
3517.5230, 0.092722
3519.4520, 0.093307
3521.3800, 0.094431
3523.3090, 0.093627
3525.2370, 0.091035
3527.1660, 0.091282
3529.0940, 0.092597
3531.0220, 0.092419
3532.9510, 0.093092
3534.8790, 0.093749
3536.8080, 0.094217
3538.7360, 0.094655
3540.6650, 0.094460
3542.5930, 0.092574
3544.5220, 0.091800
3546.4500, 0.093081
3548.3790, 0.094135
3550.3070, 0.093171
3552.2360, 0.091724
3554.1640, 0.090929
3556.0930, 0.091524
3558.0210, 0.092004
3559.9490, 0.093491
3561.8780, 0.094175
3563.8060, 0.094745
3565.7350, 0.094564
3567.6630, 0.092462
3569.5920, 0.091038
3571.5200, 0.092863
3573.4490, 0.094515
3575.3770, 0.095002
3577.3060, 0.094774
3579.2340, 0.093962
3581.1630, 0.093280
3583.0910, 0.092409
3585.0200, 0.091693
3586.9480, 0.091328
3588.8760, 0.090742
3590.8050, 0.091065
3592.7330, 0.092168
3594.6620, 0.091912
3596.5900, 0.092114
3598.5190, 0.094116
3600.4470, 0.093884
3602.3760, 0.093637
3604.3040, 0.092625
3606.2330, 0.091935
3608.1610, 0.091297
3610.0900, 0.091494
3612.0180, 0.092048
3613.9470, 0.093936
3615.8750, 0.094616
3617.8030, 0.093242
3619.7320, 0.093408
3621.6600, 0.093253
3623.5890, 0.092316
3625.5170, 0.091584
3627.4460, 0.092821
3629.3740, 0.094694
3631.3030, 0.095303
3633.2310, 0.094140
3635.1600, 0.092706
3637.0880, 0.091371
3639.0170, 0.091586
3640.9450, 0.093208
3642.8740, 0.093034
3644.8020, 0.091026
3646.7300, 0.090710
3648.6590, 0.092599
3650.5870, 0.093397
3652.5160, 0.093307
3654.4440, 0.093750
3656.3730, 0.092866
3658.3010, 0.092751
3660.2300, 0.091909
3662.1580, 0.092158
3664.0870, 0.093704
3666.0150, 0.093408
3667.9440, 0.092174
3669.8720, 0.093419
3671.8010, 0.094936
3673.7290, 0.094853
3675.6570, 0.094999
3677.5860, 0.096355
3679.5140, 0.096251
3681.4430, 0.095259
3683.3710, 0.093543
3685.3000, 0.093060
3687.2280, 0.093781
3689.1570, 0.095080
3691.0850, 0.095155
3693.0140, 0.093982
3694.9420, 0.093656
3696.8710, 0.093191
3698.7990, 0.092922
3700.7280, 0.094760
3702.6560, 0.095382
3704.5840, 0.095425
3706.5130, 0.095852
3708.4410, 0.095036
3710.3700, 0.095389
3712.2980, 0.094476
3714.2270, 0.092778
3716.1550, 0.092421
3718.0840, 0.093080
3720.0120, 0.094530
3721.9410, 0.095883
3723.8690, 0.096060
3725.7980, 0.096216
3727.7260, 0.095556
3729.6550, 0.093895
3731.5830, 0.093279
3733.5110, 0.094352
3735.4400, 0.094734
3737.3680, 0.095823
3739.2970, 0.095741
3741.2250, 0.094450
3743.1540, 0.094571
3745.0820, 0.094720
3747.0110, 0.096001
3748.9390, 0.096065
3750.8680, 0.094438
3752.7960, 0.094132
3754.7250, 0.096732
3756.6530, 0.097595
3758.5820, 0.096020
3760.5100, 0.095172
3762.4380, 0.095751
3764.3670, 0.095939
3766.2950, 0.095684
3768.2240, 0.095825
3770.1520, 0.096893
3772.0810, 0.096928
3774.0090, 0.096832
3775.9380, 0.097356
3777.8660, 0.098019
3779.7950, 0.096812
3781.7230, 0.096391
3783.6520, 0.096317
3785.5800, 0.096816
3787.5090, 0.097693
3789.4370, 0.096422
3791.3650, 0.096682
3793.2940, 0.098227
3795.2220, 0.097666
3797.1510, 0.096865
3799.0790, 0.097575
3801.0080, 0.097948
3802.9360, 0.096739
3804.8650, 0.095958
3806.7930, 0.097008
3808.7220, 0.098256
3810.6500, 0.098384
3812.5790, 0.099252
3814.5070, 0.098272
3816.4360, 0.096768
3818.3640, 0.097876
3820.2920, 0.097940
3822.2210, 0.098916
3824.1490, 0.098599
3826.0780, 0.097822
3828.0060, 0.097968
3829.9350, 0.098502
3831.8630, 0.098201
3833.7920, 0.098314
3835.7200, 0.097092
3837.6490, 0.097231
3839.5770, 0.098302
3841.5060, 0.097476
3843.4340, 0.098054
3845.3630, 0.098889
3847.2910, 0.098971
3849.2190, 0.099090
3851.1480, 0.099064
3853.0760, 0.098994
3855.0050, 0.098563
3856.9330, 0.098698
3858.8620, 0.101071
3860.7900, 0.100835
3862.7190, 0.099533
3864.6470, 0.099196
3866.5760, 0.098988
3868.5040, 0.097769
3870.4330, 0.097836
3872.3610, 0.098650
3874.2900, 0.098277
3876.2180, 0.098715
3878.1460, 0.100224
3880.0750, 0.100029
3882.0030, 0.099680
3883.9320, 0.098857
3885.8600, 0.098675
3887.7890, 0.099148
3889.7170, 0.098834
3891.6460, 0.099008
3893.5740, 0.099997
3895.5030, 0.101003
3897.4310, 0.100167
3899.3600, 0.100060
3901.2880, 0.100193
3903.2170, 0.100866
3905.1450, 0.101676
3907.0730, 0.101398
3909.0020, 0.100799
3910.9300, 0.099581
3912.8590, 0.098460
3914.7870, 0.098169
3916.7160, 0.098592
3918.6440, 0.097973
3920.5730, 0.099056
3922.5010, 0.100595
3924.4300, 0.100620
3926.3580, 0.101067
3928.2870, 0.100817
3930.2150, 0.100313
3932.1440, 0.099747
3934.0720, 0.100230
3936.0000, 0.099689
3937.9290, 0.099958
3939.8570, 0.100448
3941.7860, 0.100888
3943.7140, 0.100762
3945.6430, 0.100104
3947.5710, 0.100364
3949.5000, 0.099731
3951.4280, 0.100150
3953.3570, 0.101184
3955.2850, 0.101493
3957.2140, 0.102757
3959.1420, 0.103086
3961.0710, 0.102238
3962.9990, 0.101243
3964.9270, 0.100957
3966.8560, 0.100861
3968.7840, 0.101350
3970.7130, 0.100037
3972.6410, 0.100296
3974.5700, 0.101516
3976.4980, 0.101074
3978.4270, 0.102268
3980.3550, 0.102283
3982.2840, 0.101683
3984.2120, 0.101843
3986.1410, 0.102113
3988.0690, 0.101964
3989.9980, 0.101914
3991.9260, 0.101807
3993.8540, 0.103699
3995.7830, 0.102980
3997.7110, 0.101528
3999.6400, 0.101577
##END=



