##NAMES=Shortite
##RRUFFID=R040184
##IDEAL CHEMISTRY=Na_2_Ca_2_(CO_3_)_3_
##LOCALITY=Green River, Wyoming, USA
##OWNER=RRUFF
##SOURCE=University of Arizona Mineral Museum
##DESCRIPTION=Colorless single crystal fragments
##STATUS=The identification of this mineral has been confirmed by X-ray diffraction and chemical analysis
##URL=rruff.info/R040184
##MEASURED CHEMISTRY=(Na_1.47_Ca_0.27_[box]_0.26_)_Î£=2_Ca_2.00_(CO_3_)_3_
399.1926, 0.012021
401.1211, 0.010180
403.0496, 0.010229
404.9780, 0.011468
406.9065, 0.014797
408.8350, 0.016785
410.7634, 0.015084
412.6919, 0.012266
414.6204, 0.010205
416.5488, 0.009367
418.4773, 0.009426
420.4058, 0.010107
422.3342, 0.010997
424.2627, 0.010710
426.1912, 0.008871
428.1196, 0.008158
430.0481, 0.008164
431.9766, 0.009121
433.9050, 0.010327
435.8335, 0.010690
437.7620, 0.009505
439.6904, 0.008546
441.6189, 0.008020
443.5474, 0.007710
445.4758, 0.007521
447.4043, 0.007442
449.3328, 0.007682
451.2612, 0.007871
453.1897, 0.008002
455.1182, 0.008260
457.0466, 0.008038
458.9751, 0.007875
460.9036, 0.007557
462.8320, 0.007015
464.7605, 0.007507
466.6890, 0.007825
468.6174, 0.007079
470.5459, 0.006599
472.4744, 0.006863
474.4028, 0.007489
476.3313, 0.007455
478.2598, 0.007000
480.1882, 0.006701
482.1167, 0.006795
484.0452, 0.006610
485.9736, 0.006640
487.9021, 0.006975
489.8306, 0.006789
491.7590, 0.006760
493.6875, 0.006968
495.6160, 0.006875
497.5444, 0.006701
499.4729, 0.006505
501.4014, 0.006292
503.3298, 0.005954
505.2583, 0.006023
507.1868, 0.006244
509.1152, 0.006135
511.0437, 0.005976
512.9722, 0.006247
514.9006, 0.006458
516.8291, 0.006580
518.7576, 0.006251
520.6860, 0.006190
522.6145, 0.006288
524.5430, 0.006370
526.4714, 0.006473
528.3999, 0.006655
530.3284, 0.006669
532.2568, 0.006568
534.1853, 0.006228
536.1138, 0.006129
538.0422, 0.006230
539.9707, 0.006294
541.8992, 0.006510
543.8276, 0.006760
545.7561, 0.006571
547.6846, 0.006345
549.6130, 0.006531
551.5415, 0.007021
553.4700, 0.007224
555.3984, 0.006912
557.3269, 0.006453
559.2554, 0.006721
561.1838, 0.007031
563.1123, 0.006983
565.0408, 0.006876
566.9692, 0.007029
568.8977, 0.006953
570.8262, 0.006704
572.7546, 0.006636
574.6831, 0.006454
576.6116, 0.006283
578.5400, 0.006396
580.4685, 0.006472
582.3970, 0.006835
584.3254, 0.006915
586.2539, 0.006711
588.1824, 0.006621
590.1108, 0.006968
592.0393, 0.007182
593.9678, 0.007169
595.8962, 0.007195
597.8247, 0.007101
599.7532, 0.006927
601.6816, 0.006881
603.6101, 0.007056
605.5386, 0.007092
607.4670, 0.006702
609.3955, 0.006463
611.3240, 0.006480
613.2524, 0.006773
615.1809, 0.006904
617.1094, 0.007017
619.0378, 0.006912
620.9663, 0.007262
622.8948, 0.007480
624.8232, 0.007428
626.7517, 0.007235
628.6802, 0.007223
630.6086, 0.007111
632.5371, 0.007097
634.4656, 0.007204
636.3940, 0.007476
638.3225, 0.007458
640.2510, 0.007141
642.1794, 0.007046
644.1079, 0.007335
646.0364, 0.007534
647.9648, 0.007692
649.8933, 0.007399
651.8218, 0.007568
653.7502, 0.007876
655.6787, 0.008102
657.6072, 0.008287
659.5356, 0.008209
661.4641, 0.007803
663.3926, 0.007726
665.3210, 0.007930
667.2495, 0.008128
669.1780, 0.008238
671.1064, 0.008252
673.0349, 0.008177
674.9634, 0.008282
676.8918, 0.008338
678.8203, 0.008659
680.7488, 0.009134
682.6772, 0.009631
684.6057, 0.010012
686.5342, 0.010956
688.4626, 0.012457
690.3911, 0.017693
692.3196, 0.030885
694.2480, 0.038865
696.1765, 0.026451
698.1050, 0.014866
700.0334, 0.011126
701.9619, 0.010559
703.8904, 0.011150
705.8188, 0.014014
707.7473, 0.024540
709.6758, 0.038002
711.6042, 0.030666
713.5327, 0.019636
715.4612, 0.023663
717.3896, 0.043699
719.3181, 0.049778
721.2466, 0.028034
723.1750, 0.014918
725.1035, 0.013350
727.0320, 0.018873
728.9604, 0.037132
730.8889, 0.047941
732.8174, 0.029353
734.7458, 0.013780
736.6743, 0.009194
738.6028, 0.007719
740.5313, 0.007010
742.4597, 0.007066
744.3882, 0.006795
746.3167, 0.006992
748.2451, 0.007075
750.1736, 0.007133
752.1021, 0.007178
754.0305, 0.007295
755.9590, 0.007194
757.8875, 0.007149
759.8159, 0.007110
761.7444, 0.007306
763.6729, 0.007687
765.6013, 0.007851
767.5298, 0.007908
769.4583, 0.008086
771.3867, 0.008221
773.3152, 0.008337
775.2437, 0.008250
777.1721, 0.008175
779.1006, 0.008355
781.0291, 0.008900
782.9575, 0.008993
784.8860, 0.008953
786.8145, 0.009070
788.7429, 0.009176
790.6714, 0.009200
792.5999, 0.009291
794.5283, 0.009381
796.4568, 0.009407
798.3853, 0.009550
800.3137, 0.009815
802.2422, 0.010054
804.1707, 0.010202
806.0991, 0.010252
808.0276, 0.010421
809.9561, 0.010788
811.8845, 0.010962
813.8130, 0.011119
815.7415, 0.011316
817.6699, 0.011441
819.5984, 0.011496
821.5269, 0.011883
823.4553, 0.012985
825.3838, 0.014734
827.3123, 0.014611
829.2407, 0.014034
831.1692, 0.014630
833.0977, 0.015881
835.0261, 0.017237
836.9546, 0.018813
838.8831, 0.022032
840.8115, 0.027854
842.7400, 0.030058
844.6685, 0.034574
846.5969, 0.055064
848.5254, 0.092875
850.4539, 0.107478
852.3823, 0.073379
854.3108, 0.046478
856.2393, 0.044839
858.1677, 0.057456
860.0962, 0.082922
862.0247, 0.123949
863.9531, 0.165973
865.8816, 0.167909
867.8101, 0.129507
869.7385, 0.104410
871.6670, 0.095798
873.5955, 0.059093
875.5239, 0.022677
877.4524, 0.011064
879.3809, 0.008718
881.3093, 0.008025
883.2378, 0.007515
885.1663, 0.007351
887.0947, 0.007138
889.0232, 0.007361
890.9517, 0.007504
892.8801, 0.007495
894.8085, 0.007364
896.7370, 0.007543
898.6655, 0.007598
900.5939, 0.007670
902.5224, 0.007792
904.4509, 0.007957
906.3793, 0.007988
908.3078, 0.008079
910.2363, 0.008013
912.1647, 0.008146
914.0932, 0.008302
916.0217, 0.008493
917.9501, 0.008480
919.8786, 0.008603
921.8071, 0.008764
923.7355, 0.008793
925.6640, 0.008794
927.5925, 0.009169
929.5209, 0.009227
931.4494, 0.009298
933.3779, 0.009236
935.3063, 0.009368
937.2348, 0.009598
939.1633, 0.009915
941.0917, 0.010211
943.0202, 0.010461
944.9487, 0.010450
946.8771, 0.010565
948.8056, 0.010657
950.7341, 0.010783
952.6625, 0.010957
954.5910, 0.011147
956.5195, 0.011302
958.4479, 0.011604
960.3764, 0.011762
962.3049, 0.011946
964.2333, 0.011853
966.1618, 0.011922
968.0903, 0.012052
970.0187, 0.012215
971.9472, 0.012207
973.8757, 0.012500
975.8041, 0.012873
977.7326, 0.013111
979.6611, 0.013147
981.5895, 0.013233
983.5180, 0.013441
985.4465, 0.013827
987.3749, 0.014056
989.3034, 0.014165
991.2319, 0.014279
993.1603, 0.014528
995.0888, 0.014641
997.0173, 0.014660
998.9457, 0.014845
1000.8740, 0.015166
1002.8030, 0.015326
1004.7310, 0.015576
1006.6600, 0.015930
1008.5880, 0.016159
1010.5170, 0.016158
1012.4450, 0.016403
1014.3730, 0.016529
1016.3020, 0.016663
1018.2300, 0.016673
1020.1590, 0.016828
1022.0870, 0.017119
1024.0160, 0.017372
1025.9440, 0.017602
1027.8730, 0.017771
1029.8010, 0.017801
1031.7300, 0.017997
1033.6580, 0.018277
1035.5870, 0.018490
1037.5150, 0.018624
1039.4440, 0.019207
1041.3720, 0.019432
1043.3010, 0.019485
1045.2290, 0.019676
1047.1570, 0.020101
1049.0860, 0.020256
1051.0140, 0.020340
1052.9430, 0.020231
1054.8710, 0.020308
1056.8000, 0.020561
1058.7280, 0.021155
1060.6570, 0.021775
1062.5850, 0.022562
1064.5140, 0.023603
1066.4420, 0.026311
1068.3710, 0.034936
1070.2990, 0.043529
1072.2280, 0.035866
1074.1560, 0.025039
1076.0840, 0.021820
1078.0130, 0.021316
1079.9410, 0.021498
1081.8700, 0.021949
1083.7980, 0.022921
1085.7270, 0.026054
1087.6550, 0.037089
1089.5840, 0.047356
1091.5120, 0.035522
1093.4410, 0.022205
1095.3690, 0.019007
1097.2980, 0.018746
1099.2260, 0.018836
1101.1550, 0.018914
1103.0830, 0.019100
1105.0110, 0.019131
1106.9400, 0.019294
1108.8680, 0.019404
1110.7970, 0.019465
1112.7250, 0.019456
1114.6540, 0.019277
1116.5820, 0.019253
1118.5110, 0.019313
1120.4390, 0.019079
1122.3680, 0.019167
1124.2960, 0.019448
1126.2250, 0.019688
1128.1530, 0.019732
1130.0820, 0.019610
1132.0100, 0.019539
1133.9380, 0.019646
1135.8670, 0.019676
1137.7950, 0.019754
1139.7240, 0.019931
1141.6520, 0.019986
1143.5810, 0.020075
1145.5090, 0.020203
1147.4380, 0.020271
1149.3660, 0.020431
1151.2950, 0.020546
1153.2230, 0.020561
1155.1520, 0.020678
1157.0800, 0.020916
1159.0090, 0.021050
1160.9370, 0.021033
1162.8650, 0.021124
1164.7940, 0.021252
1166.7220, 0.021374
1168.6510, 0.021542
1170.5790, 0.021753
1172.5080, 0.021785
1174.4360, 0.021924
1176.3650, 0.022201
1178.2930, 0.022406
1180.2220, 0.022669
1182.1500, 0.022893
1184.0790, 0.023017
1186.0070, 0.023230
1187.9360, 0.023427
1189.8640, 0.023663
1191.7920, 0.023942
1193.7210, 0.024173
1195.6490, 0.024377
1197.5780, 0.024581
1199.5060, 0.024950
1201.4350, 0.025342
1203.3630, 0.025405
1205.2920, 0.025602
1207.2200, 0.026016
1209.1490, 0.026447
1211.0770, 0.026851
1213.0060, 0.027089
1214.9340, 0.027213
1216.8630, 0.027550
1218.7910, 0.028124
1220.7190, 0.028672
1222.6480, 0.029029
1224.5760, 0.029539
1226.5050, 0.030143
1228.4330, 0.030693
1230.3620, 0.031118
1232.2900, 0.031561
1234.2190, 0.032212
1236.1470, 0.032873
1238.0760, 0.033369
1240.0040, 0.033876
1241.9330, 0.034613
1243.8610, 0.035410
1245.7900, 0.036019
1247.7180, 0.036635
1249.6460, 0.037410
1251.5750, 0.038095
1253.5030, 0.038702
1255.4320, 0.039422
1257.3600, 0.039912
1259.2890, 0.040520
1261.2170, 0.041293
1263.1460, 0.042039
1265.0740, 0.042945
1267.0030, 0.043802
1268.9310, 0.044458
1270.8600, 0.045256
1272.7880, 0.046198
1274.7170, 0.047334
1276.6450, 0.048358
1278.5730, 0.049293
1280.5020, 0.050169
1282.4300, 0.050985
1284.3590, 0.052152
1286.2870, 0.053499
1288.2160, 0.054590
1290.1440, 0.055857
1292.0730, 0.056958
1294.0010, 0.058130
1295.9300, 0.059407
1297.8580, 0.060583
1299.7870, 0.061874
1301.7150, 0.063376
1303.6440, 0.064965
1305.5720, 0.066699
1307.5000, 0.068488
1309.4290, 0.070176
1311.3570, 0.072039
1313.2860, 0.073864
1315.2140, 0.075616
1317.1430, 0.077599
1319.0710, 0.079828
1321.0000, 0.082135
1322.9280, 0.084558
1324.8570, 0.086899
1326.7850, 0.089269
1328.7140, 0.091766
1330.6420, 0.094388
1332.5710, 0.097410
1334.4990, 0.100533
1336.4270, 0.103610
1338.3560, 0.107160
1340.2840, 0.111064
1342.2130, 0.114981
1344.1410, 0.119084
1346.0700, 0.123395
1347.9980, 0.128115
1349.9270, 0.133058
1351.8550, 0.138369
1353.7840, 0.144069
1355.7120, 0.150037
1357.6410, 0.156416
1359.5690, 0.163407
1361.4980, 0.169478
1363.4260, 0.173904
1365.3540, 0.178492
1367.2830, 0.185081
1369.2110, 0.193248
1371.1400, 0.202570
1373.0680, 0.212646
1374.9970, 0.222904
1376.9250, 0.233596
1378.8540, 0.244746
1380.7820, 0.256289
1382.7110, 0.268151
1384.6390, 0.279986
1386.5680, 0.291510
1388.4960, 0.302913
1390.4240, 0.315541
1392.3530, 0.329381
1394.2810, 0.344155
1396.2100, 0.359637
1398.1380, 0.375440
1400.0670, 0.390315
1401.9950, 0.401891
1403.9240, 0.406406
1405.8520, 0.401812
1407.7810, 0.389443
1409.7090, 0.371073
1411.6380, 0.347201
1413.5660, 0.319393
1415.4950, 0.290702
1417.4230, 0.266221
1419.3510, 0.250904
1421.2800, 0.247432
1423.2080, 0.253851
1425.1370, 0.265616
1427.0650, 0.279563
1428.9940, 0.294222
1430.9220, 0.308002
1432.8510, 0.319685
1434.7790, 0.329165
1436.7080, 0.336657
1438.6360, 0.342005
1440.5650, 0.346414
1442.4930, 0.350028
1444.4220, 0.353051
1446.3500, 0.355759
1448.2780, 0.358161
1450.2070, 0.359665
1452.1350, 0.360010
1454.0640, 0.359514
1455.9920, 0.359026
1457.9210, 0.357878
1459.8490, 0.356352
1461.7780, 0.355489
1463.7060, 0.355208
1465.6350, 0.355056
1467.5630, 0.355354
1469.4920, 0.355308
1471.4200, 0.353010
1473.3490, 0.347398
1475.2770, 0.339655
1477.2050, 0.330071
1479.1340, 0.318877
1481.0620, 0.306177
1482.9910, 0.292970
1484.9190, 0.279185
1486.8480, 0.265133
1488.7760, 0.250743
1490.7050, 0.236543
1492.6330, 0.223169
1494.5620, 0.211045
1496.4900, 0.199308
1498.4190, 0.187852
1500.3470, 0.176618
1502.2760, 0.165834
1504.2040, 0.155330
1506.1320, 0.144106
1508.0610, 0.131304
1509.9890, 0.118093
1511.9180, 0.109416
1513.8460, 0.110917
1515.7750, 0.116465
1517.7030, 0.118236
1519.6320, 0.117155
1521.5600, 0.115614
1523.4890, 0.113805
1525.4170, 0.112124
1527.3460, 0.110394
1529.2740, 0.108301
1531.2030, 0.105811
1533.1310, 0.103182
1535.0590, 0.100143
1536.9880, 0.096965
1538.9160, 0.093665
1540.8450, 0.089828
1542.7730, 0.085277
1544.7020, 0.080663
1546.6300, 0.075988
1548.5590, 0.071469
1550.4870, 0.067035
1552.4160, 0.062560
1554.3440, 0.058028
1556.2730, 0.053576
1558.2010, 0.049556
1560.1300, 0.045328
1562.0580, 0.040970
1563.9860, 0.037161
1565.9150, 0.033598
1567.8430, 0.030318
1569.7720, 0.027414
1571.7000, 0.024616
1573.6290, 0.022212
1575.5570, 0.020219
1577.4860, 0.018271
1579.4140, 0.016691
1581.3430, 0.015472
1583.2710, 0.014516
1585.2000, 0.013875
1587.1280, 0.013189
1589.0570, 0.012608
1590.9850, 0.012151
1592.9130, 0.011569
1594.8420, 0.011058
1596.7700, 0.010446
1598.6990, 0.009616
1600.6270, 0.008926
1602.5560, 0.008503
1604.4840, 0.008203
1606.4130, 0.008141
1608.3410, 0.007920
1610.2700, 0.007656
1612.1980, 0.007373
1614.1270, 0.007054
1616.0550, 0.007185
1617.9840, 0.007191
1619.9120, 0.006836
1621.8400, 0.006752
1623.7690, 0.006679
1625.6970, 0.006559
1627.6260, 0.006324
1629.5540, 0.006125
1631.4830, 0.005895
1633.4110, 0.005872
1635.3400, 0.005993
1637.2680, 0.005775
1639.1970, 0.005448
1641.1250, 0.005256
1643.0540, 0.005022
1644.9820, 0.004921
1646.9110, 0.005011
1648.8390, 0.004907
1650.7670, 0.004924
1652.6960, 0.005101
1654.6240, 0.004657
1656.5530, 0.004141
1658.4810, 0.003976
1660.4100, 0.004145
1662.3380, 0.004330
1664.2670, 0.004296
1666.1950, 0.004201
1668.1240, 0.004169
1670.0520, 0.004367
1671.9810, 0.004318
1673.9090, 0.004212
1675.8380, 0.004450
1677.7660, 0.004462
1679.6940, 0.004414
1681.6230, 0.004159
1683.5510, 0.004332
1685.4800, 0.004388
1687.4080, 0.004048
1689.3370, 0.003686
1691.2650, 0.003481
1693.1940, 0.003351
1695.1220, 0.003327
1697.0510, 0.003146
1698.9790, 0.002872
1700.9080, 0.002908
1702.8360, 0.002855
1704.7650, 0.002879
1706.6930, 0.003085
1708.6210, 0.002730
1710.5500, 0.002228
1712.4780, 0.002118
1714.4070, 0.002253
1716.3350, 0.002249
1718.2640, 0.002132
1720.1920, 0.001993
1722.1210, 0.001771
1724.0490, 0.001492
1725.9780, 0.001432
1727.9060, 0.001398
1729.8350, 0.001351
1731.7630, 0.001596
1733.6920, 0.001793
1735.6200, 0.001431
1737.5480, 0.000947
1739.4770, 0.001009
1741.4050, 0.000974
1743.3340, 0.001186
1745.2620, 0.001509
1747.1910, 0.001441
1749.1190, 0.001682
1751.0480, 0.002031
1752.9760, 0.002104
1754.9050, 0.002227
1756.8330, 0.002477
1758.7620, 0.002784
1760.6900, 0.003864
1762.6190, 0.005236
1764.5470, 0.005705
1766.4750, 0.005205
1768.4040, 0.004603
1770.3320, 0.004677
1772.2610, 0.005118
1774.1890, 0.004895
1776.1180, 0.004669
1778.0460, 0.004869
1779.9750, 0.005128
1781.9030, 0.005142
1783.8320, 0.004865
1785.7600, 0.004817
1787.6890, 0.005276
1789.6170, 0.005528
1791.5460, 0.005536
1793.4740, 0.005197
1795.4020, 0.004914
1797.3310, 0.005133
1799.2590, 0.005659
1801.1880, 0.005919
1803.1160, 0.006112
1805.0450, 0.007227
1806.9730, 0.007526
1808.9020, 0.006198
1810.8300, 0.004708
1812.7590, 0.003647
1814.6870, 0.002821
1816.6160, 0.002295
1818.5440, 0.002008
1820.4730, 0.001794
1822.4010, 0.001800
1824.3290, 0.001571
1826.2580, 0.001389
1828.1860, 0.001642
1830.1150, 0.001648
1832.0430, 0.001461
1833.9720, 0.001307
1835.9000, 0.001124
1837.8290, 0.001036
1839.7570, 0.001133
1841.6860, 0.001284
1843.6140, 0.001367
1845.5430, 0.001500
1847.4710, 0.001527
1849.4000, 0.001252
1851.3280, 0.001262
1853.2560, 0.001438
1855.1850, 0.001285
1857.1130, 0.001211
1859.0420, 0.001246
1860.9700, 0.001451
1862.8990, 0.001374
1864.8270, 0.001215
1866.7560, 0.001262
1868.6840, 0.001523
1870.6130, 0.001536
1872.5410, 0.001469
1874.4700, 0.001355
1876.3980, 0.001341
1878.3270, 0.001453
1880.2550, 0.001184
1882.1830, 0.001228
1884.1120, 0.001027
1886.0400, 0.000938
1887.9690, 0.001508
1889.8970, 0.001254
1891.8260, 0.001096
1893.7540, 0.001579
1895.6830, 0.001932
1897.6110, 0.001907
1899.5400, 0.001650
1901.4680, 0.001423
1903.3970, 0.001678
1905.3250, 0.001691
1907.2540, 0.001562
1909.1820, 0.001574
1911.1100, 0.001684
1913.0390, 0.001453
1914.9670, 0.001567
1916.8960, 0.001718
1918.8240, 0.001591
1920.7530, 0.001971
1922.6810, 0.002558
1924.6100, 0.002094
1926.5380, 0.001107
1928.4670, 0.000947
1930.3950, 0.001101
1932.3240, 0.000810
1934.2520, 0.001776
1936.1810, 0.002761
1938.1090, 0.002685
1940.0370, 0.002057
1941.9660, 0.001510
1943.8940, 0.001443
1945.8230, 0.001841
1947.7510, 0.002053
1949.6800, 0.001773
1951.6080, 0.001454
1953.5370, 0.001027
1955.4650, 0.001030
1957.3940, 0.001451
1959.3220, 0.001772
1961.2510, 0.001283
1963.1790, 0.002183
1965.1080, 0.004170
1967.0360, 0.003746
1968.9640, 0.001858
1970.8930, 0.001220
1972.8210, 0.001740
1974.7500, 0.002637
1976.6780, 0.003757
1978.6070, 0.004395
1980.5350, 0.004755
1982.4640, 0.003499
1984.3920, 0.002254
1986.3210, 0.002404
1988.2490, 0.003070
1990.1780, 0.002837
1992.1060, 0.002380
1994.0350, 0.002884
1995.9630, 0.002766
1997.8910, 0.001687
1999.8200, 0.000940
2001.7480, 0.001273
2003.6770, 0.002138
2005.6050, 0.002611
2007.5340, 0.002278
2009.4620, 0.001844
2011.3910, 0.001989
2013.3190, 0.001951
2015.2480, 0.002130
2017.1760, 0.002328
2019.1050, 0.002034
2021.0330, 0.001171
2022.9620, 0.000501
2024.8900, -0.000061
2026.8180, 0.000151
2028.7470, 0.001883
2030.6750, 0.002698
2032.6040, 0.002840
2034.5320, 0.003386
2036.4610, 0.003705
2038.3890, 0.004026
2040.3180, 0.003920
2042.2460, 0.004469
2044.1750, 0.004398
2046.1030, 0.004089
2048.0320, 0.004649
2049.9600, 0.004722
2051.8890, 0.003769
2053.8170, 0.003399
2055.7460, 0.002236
2057.6740, 0.001687
2059.6030, 0.002631
2061.5310, 0.003688
2063.4590, 0.004154
2065.3880, 0.004391
2067.3160, 0.004321
2069.2450, 0.004063
2071.1730, 0.003851
2073.1020, 0.004508
2075.0300, 0.005027
2076.9590, 0.004844
2078.8870, 0.004415
2080.8160, 0.004009
2082.7440, 0.003900
2084.6730, 0.003811
2086.6010, 0.003591
2088.5300, 0.003205
2090.4580, 0.003578
2092.3860, 0.003603
2094.3150, 0.003196
2096.2430, 0.004068
2098.1720, 0.004374
2100.1000, 0.004600
2102.0290, 0.004970
2103.9570, 0.004750
2105.8860, 0.004311
2107.8140, 0.004063
2109.7430, 0.003993
2111.6710, 0.005408
2113.6000, 0.006226
2115.5280, 0.006053
2117.4570, 0.005015
2119.3850, 0.004277
2121.3130, 0.004158
2123.2420, 0.004537
2125.1700, 0.004151
2127.0990, 0.004359
2129.0270, 0.003845
2130.9560, 0.003292
2132.8840, 0.002238
2134.8130, 0.001805
2136.7410, 0.001916
2138.6700, 0.001999
2140.5980, 0.003512
2142.5270, 0.004295
2144.4550, 0.003986
2146.3840, 0.004671
2148.3120, 0.004432
2150.2400, 0.003301
2152.1690, 0.002634
2154.0970, 0.001765
2156.0260, 0.001389
2157.9540, 0.001868
2159.8830, 0.004919
2161.8110, 0.006950
2163.7400, 0.005516
2165.6680, 0.004828
2167.5970, 0.005242
2169.5250, 0.004790
2171.4540, 0.004560
2173.3820, 0.004644
2175.3110, 0.004444
2177.2390, 0.003574
2179.1670, 0.003291
2181.0960, 0.004008
2183.0240, 0.005402
2184.9530, 0.006663
2186.8810, 0.006089
2188.8100, 0.005029
2190.7380, 0.004449
2192.6670, 0.004109
2194.5950, 0.004997
2196.5240, 0.005699
2198.4520, 0.005296
2200.3810, 0.004930
2202.3090, 0.004798
2204.2380, 0.004388
2206.1660, 0.004117
2208.0940, 0.004831
2210.0230, 0.005264
2211.9510, 0.005418
2213.8800, 0.005180
2215.8080, 0.005283
2217.7370, 0.005179
2219.6650, 0.005368
2221.5940, 0.006449
2223.5220, 0.006374
2225.4510, 0.005777
2227.3790, 0.006025
2229.3080, 0.005433
2231.2360, 0.004717
2233.1650, 0.004715
2235.0930, 0.005503
2237.0210, 0.006110
2238.9500, 0.006500
2240.8780, 0.006561
2242.8070, 0.006292
2244.7350, 0.005737
2246.6640, 0.004927
2248.5920, 0.004764
2250.5210, 0.005173
2252.4490, 0.005161
2254.3780, 0.005122
2256.3060, 0.006055
2258.2350, 0.006867
2260.1630, 0.005998
2262.0920, 0.005153
2264.0200, 0.005429
2265.9480, 0.005261
2267.8770, 0.005258
2269.8050, 0.005979
2271.7340, 0.005628
2273.6620, 0.005023
2275.5910, 0.005816
2277.5190, 0.006794
2279.4480, 0.007309
2281.3760, 0.006847
2283.3050, 0.006348
2285.2330, 0.006634
2287.1620, 0.006826
2289.0900, 0.006509
2291.0190, 0.005892
2292.9470, 0.005651
2294.8750, 0.005890
2296.8040, 0.006276
2298.7320, 0.006832
2300.6610, 0.006683
2302.5890, 0.006173
2304.5180, 0.006336
2306.4460, 0.006541
2308.3750, 0.006214
2310.3030, 0.005910
2312.2320, 0.006050
2314.1600, 0.006102
2316.0890, 0.006436
2318.0170, 0.006849
2319.9460, 0.006940
2321.8740, 0.007381
2323.8020, 0.007857
2325.7310, 0.007109
2327.6590, 0.006573
2329.5880, 0.006215
2331.5160, 0.005976
2333.4450, 0.005903
2335.3730, 0.005778
2337.3020, 0.005931
2339.2300, 0.005837
2341.1590, 0.005984
2343.0870, 0.006314
2345.0160, 0.006011
2346.9440, 0.005492
2348.8730, 0.005533
2350.8010, 0.006017
2352.7290, 0.006328
2354.6580, 0.006223
2356.5860, 0.005771
2358.5150, 0.005680
2360.4430, 0.005775
2362.3720, 0.006060
2364.3000, 0.006128
2366.2290, 0.005855
2368.1570, 0.005793
2370.0860, 0.005883
2372.0140, 0.005897
2373.9420, 0.005432
2375.8710, 0.005475
2377.7990, 0.005517
2379.7280, 0.005537
2381.6560, 0.006085
2383.5850, 0.006240
2385.5130, 0.005829
2387.4420, 0.005908
2389.3700, 0.006409
2391.2990, 0.006335
2393.2270, 0.006180
2395.1560, 0.006280
2397.0840, 0.005882
2399.0120, 0.006023
2400.9410, 0.006475
2402.8690, 0.006369
2404.7980, 0.005820
2406.7260, 0.005339
2408.6550, 0.005346
2410.5830, 0.006036
2412.5120, 0.006329
2414.4400, 0.005903
2416.3690, 0.005945
2418.2970, 0.006002
2420.2260, 0.006127
2422.1540, 0.006106
2424.0830, 0.006386
2426.0110, 0.006016
2427.9390, 0.005655
2429.8680, 0.005909
2431.7960, 0.006569
2433.7250, 0.006668
2435.6530, 0.006491
2437.5820, 0.006450
2439.5100, 0.006871
2441.4390, 0.006993
2443.3670, 0.006719
2445.2960, 0.006604
2447.2240, 0.006657
2449.1530, 0.007239
2451.0810, 0.007967
2453.0100, 0.008385
2454.9380, 0.008616
2456.8660, 0.008574
2458.7950, 0.008176
2460.7230, 0.008404
2462.6520, 0.008615
2464.5800, 0.008577
2466.5090, 0.007976
2468.4370, 0.007254
2470.3660, 0.007351
2472.2940, 0.007669
2474.2230, 0.007656
2476.1510, 0.006676
2478.0800, 0.007122
2480.0080, 0.007510
2481.9370, 0.007053
2483.8650, 0.006584
2485.7930, 0.006436
2487.7220, 0.006599
2489.6500, 0.006729
2491.5790, 0.006660
2493.5070, 0.006615
2495.4360, 0.007258
2497.3640, 0.007665
2499.2930, 0.007813
2501.2210, 0.008285
2503.1500, 0.009037
2505.0780, 0.009810
2507.0070, 0.010362
2508.9350, 0.010503
2510.8640, 0.010552
2512.7920, 0.009677
2514.7200, 0.008712
2516.6490, 0.008695
2518.5770, 0.008913
2520.5060, 0.008675
2522.4340, 0.008575
2524.3630, 0.008419
2526.2910, 0.008538
2528.2200, 0.008642
2530.1480, 0.008099
2532.0770, 0.008148
2534.0050, 0.008244
2535.9340, 0.008257
2537.8620, 0.008248
2539.7910, 0.007719
2541.7190, 0.007815
2543.6470, 0.008185
2545.5760, 0.008632
2547.5040, 0.008914
2549.4330, 0.009053
2551.3610, 0.009183
2553.2900, 0.008213
2555.2180, 0.007265
2557.1470, 0.007989
2559.0750, 0.008194
2561.0040, 0.007466
2562.9320, 0.007615
2564.8610, 0.007646
2566.7890, 0.006710
2568.7180, 0.006831
2570.6460, 0.007281
2572.5740, 0.007007
2574.5030, 0.007077
2576.4310, 0.007418
2578.3600, 0.007160
2580.2880, 0.006950
2582.2170, 0.007202
2584.1450, 0.006782
2586.0740, 0.006842
2588.0020, 0.007535
2589.9310, 0.007311
2591.8590, 0.006897
2593.7880, 0.007025
2595.7160, 0.007216
2597.6450, 0.006971
2599.5730, 0.007012
2601.5010, 0.006690
2603.4300, 0.006997
2605.3580, 0.007503
2607.2870, 0.006487
2609.2150, 0.006484
2611.1440, 0.006958
2613.0720, 0.007054
2615.0010, 0.007225
2616.9290, 0.007628
2618.8580, 0.007670
2620.7860, 0.007349
2622.7150, 0.006733
2624.6430, 0.006307
2626.5720, 0.006401
2628.5000, 0.006728
2630.4280, 0.006576
2632.3570, 0.006598
2634.2850, 0.006447
2636.2140, 0.006237
2638.1420, 0.006570
2640.0710, 0.006386
2641.9990, 0.006526
2643.9280, 0.006320
2645.8560, 0.005700
2647.7850, 0.005236
2649.7130, 0.005578
2651.6420, 0.006100
2653.5700, 0.005832
2655.4990, 0.005627
2657.4270, 0.005813
2659.3550, 0.005546
2661.2840, 0.005289
2663.2120, 0.005611
2665.1410, 0.005490
2667.0690, 0.005139
2668.9980, 0.005219
2670.9260, 0.004858
2672.8550, 0.004892
2674.7830, 0.005171
2676.7120, 0.005001
2678.6400, 0.004632
2680.5690, 0.004599
2682.4970, 0.004819
2684.4260, 0.005149
2686.3540, 0.005213
2688.2820, 0.005032
2690.2110, 0.004890
2692.1390, 0.004578
2694.0680, 0.004464
2695.9960, 0.004662
2697.9250, 0.004741
2699.8530, 0.004523
2701.7820, 0.004587
2703.7100, 0.005312
2705.6390, 0.005456
2707.5670, 0.004735
2709.4960, 0.004394
2711.4240, 0.004667
2713.3530, 0.004870
2715.2810, 0.004646
2717.2090, 0.004556
2719.1380, 0.004335
2721.0660, 0.003858
2722.9950, 0.004101
2724.9230, 0.004447
2726.8520, 0.004625
2728.7800, 0.004581
2730.7090, 0.004385
2732.6370, 0.004500
2734.5660, 0.004327
2736.4940, 0.003800
2738.4230, 0.003638
2740.3510, 0.003808
2742.2800, 0.003694
2744.2080, 0.003423
2746.1360, 0.003810
2748.0650, 0.003963
2749.9930, 0.003410
2751.9220, 0.003666
2753.8500, 0.004098
2755.7790, 0.003845
2757.7070, 0.003246
2759.6360, 0.003094
2761.5640, 0.003170
2763.4930, 0.003129
2765.4210, 0.003219
2767.3500, 0.003447
2769.2780, 0.003751
2771.2070, 0.003640
2773.1350, 0.003051
2775.0630, 0.003003
2776.9920, 0.003187
2778.9200, 0.003138
2780.8490, 0.002819
2782.7770, 0.002693
2784.7060, 0.003068
2786.6340, 0.003060
2788.5630, 0.002647
2790.4910, 0.002825
2792.4200, 0.003054
2794.3480, 0.002915
2796.2770, 0.002547
2798.2050, 0.001781
2800.1340, 0.001639
2802.0620, 0.002053
2803.9900, 0.002120
2805.9190, 0.002200
2807.8470, 0.002456
2809.7760, 0.002567
2811.7040, 0.002825
2813.6330, 0.002875
2815.5610, 0.002868
2817.4900, 0.002759
2819.4180, 0.002601
2821.3470, 0.002710
2823.2750, 0.002818
2825.2040, 0.003543
2827.1320, 0.003956
2829.0610, 0.003857
2830.9890, 0.003564
2832.9170, 0.003709
2834.8460, 0.004244
2836.7740, 0.004765
2838.7030, 0.004243
2840.6310, 0.003424
2842.5600, 0.003234
2844.4880, 0.004007
2846.4170, 0.004414
2848.3450, 0.004286
2850.2740, 0.003625
2852.2020, 0.003023
2854.1310, 0.003145
2856.0590, 0.003958
2857.9880, 0.004082
2859.9160, 0.002973
2861.8440, 0.002398
2863.7730, 0.002804
2865.7010, 0.002719
2867.6300, 0.003193
2869.5580, 0.003309
2871.4870, 0.003148
2873.4150, 0.003550
2875.3440, 0.004007
2877.2720, 0.004424
2879.2010, 0.004129
2881.1290, 0.003575
2883.0580, 0.004078
2884.9860, 0.004416
2886.9150, 0.004140
2888.8430, 0.004278
2890.7710, 0.004235
2892.7000, 0.003606
2894.6280, 0.003424
2896.5570, 0.003823
2898.4850, 0.004063
2900.4140, 0.004518
2902.3420, 0.004175
2904.2710, 0.003402
2906.1990, 0.003784
2908.1280, 0.003803
2910.0560, 0.003011
2911.9850, 0.003346
2913.9130, 0.003856
2915.8420, 0.003819
2917.7700, 0.003748
2919.6980, 0.003248
2921.6270, 0.002938
2923.5550, 0.003122
2925.4840, 0.003318
2927.4120, 0.003172
2929.3410, 0.002762
2931.2690, 0.002749
2933.1980, 0.003215
2935.1260, 0.003480
2937.0550, 0.003499
2938.9830, 0.003638
2940.9120, 0.003713
2942.8400, 0.003304
2944.7690, 0.003294
2946.6970, 0.003306
2948.6250, 0.003284
2950.5540, 0.003278
2952.4820, 0.002986
2954.4110, 0.002368
2956.3390, 0.002121
2958.2680, 0.002241
2960.1960, 0.002780
2962.1250, 0.003334
2964.0530, 0.004261
2965.9820, 0.004505
2967.9100, 0.004444
2969.8390, 0.004549
2971.7670, 0.004402
2973.6960, 0.004611
2975.6240, 0.004945
2977.5520, 0.004280
2979.4810, 0.004110
2981.4090, 0.004200
2983.3380, 0.004597
2985.2660, 0.005095
2987.1950, 0.004663
2989.1230, 0.004840
2991.0520, 0.005365
2992.9800, 0.005207
2994.9090, 0.004929
2996.8370, 0.005104
2998.7660, 0.005285
3000.6940, 0.005177
3002.6230, 0.004558
3004.5510, 0.003868
3006.4790, 0.004724
3008.4080, 0.005223
3010.3360, 0.005040
3012.2650, 0.005005
3014.1930, 0.005197
3016.1220, 0.004924
3018.0500, 0.005396
3019.9790, 0.005841
3021.9070, 0.006008
3023.8360, 0.006493
3025.7640, 0.006686
3027.6930, 0.006061
3029.6210, 0.005359
3031.5500, 0.005579
3033.4780, 0.005516
3035.4060, 0.005584
3037.3350, 0.005774
3039.2630, 0.006383
3041.1920, 0.006052
3043.1200, 0.005478
3045.0490, 0.005751
3046.9770, 0.006298
3048.9060, 0.006308
3050.8340, 0.005574
3052.7630, 0.005768
3054.6910, 0.007154
3056.6200, 0.007578
3058.5480, 0.007163
3060.4770, 0.006756
3062.4050, 0.006316
3064.3330, 0.005641
3066.2620, 0.005636
3068.1900, 0.005801
3070.1190, 0.006053
3072.0470, 0.006287
3073.9760, 0.006459
3075.9040, 0.006471
3077.8330, 0.006632
3079.7610, 0.006744
3081.6900, 0.007055
3083.6180, 0.006731
3085.5470, 0.006330
3087.4750, 0.007048
3089.4040, 0.007100
3091.3320, 0.007200
3093.2600, 0.007044
3095.1890, 0.006714
3097.1170, 0.006988
3099.0460, 0.006891
3100.9740, 0.007213
3102.9030, 0.007665
3104.8310, 0.008135
3106.7600, 0.008501
3108.6880, 0.008738
3110.6170, 0.008117
3112.5450, 0.007716
3114.4740, 0.007721
3116.4020, 0.008081
3118.3310, 0.007837
3120.2590, 0.008345
3122.1880, 0.008708
3124.1160, 0.008017
3126.0440, 0.007762
3127.9730, 0.008736
3129.9010, 0.009687
3131.8300, 0.009254
3133.7580, 0.008762
3135.6870, 0.009178
3137.6150, 0.008991
3139.5440, 0.008890
3141.4720, 0.008742
3143.4010, 0.008547
3145.3290, 0.008793
3147.2580, 0.009261
3149.1860, 0.009281
3151.1150, 0.009094
3153.0430, 0.009548
3154.9710, 0.009966
3156.9000, 0.009588
3158.8280, 0.009521
3160.7570, 0.009316
3162.6850, 0.009069
3164.6140, 0.009350
3166.5420, 0.009289
3168.4710, 0.009389
3170.3990, 0.009389
3172.3280, 0.009456
3174.2560, 0.009214
3176.1850, 0.008779
3178.1130, 0.009172
3180.0420, 0.009474
3181.9700, 0.009409
3183.8980, 0.009287
3185.8270, 0.009487
3187.7550, 0.010123
3189.6840, 0.009911
3191.6120, 0.009426
3193.5410, 0.009322
3195.4690, 0.008756
3197.3980, 0.008900
3199.3260, 0.009119
3201.2550, 0.009585
3203.1830, 0.009929
3205.1120, 0.009335
3207.0400, 0.008751
3208.9690, 0.008552
3210.8970, 0.009279
3212.8250, 0.010255
3214.7540, 0.009741
3216.6820, 0.009590
3218.6110, 0.009746
3220.5390, 0.010150
3222.4680, 0.010696
3224.3960, 0.010538
3226.3250, 0.009868
3228.2530, 0.009803
3230.1820, 0.010521
3232.1100, 0.010764
3234.0390, 0.010606
3235.9670, 0.010233
3237.8960, 0.010749
3239.8240, 0.011366
3241.7520, 0.010483
3243.6810, 0.009735
3245.6090, 0.009647
3247.5380, 0.010187
3249.4660, 0.011167
3251.3950, 0.010899
3253.3230, 0.010278
3255.2520, 0.010198
3257.1800, 0.010470
3259.1090, 0.009845
3261.0370, 0.009763
3262.9660, 0.010230
3264.8940, 0.010066
3266.8230, 0.009940
3268.7510, 0.009986
3270.6790, 0.010188
3272.6080, 0.010646
3274.5360, 0.010813
3276.4650, 0.010786
3278.3930, 0.010582
3280.3220, 0.010367
3282.2500, 0.010285
3284.1790, 0.010738
3286.1070, 0.011109
3288.0360, 0.011043
3289.9640, 0.011578
3291.8930, 0.010938
3293.8210, 0.010471
3295.7500, 0.010660
3297.6780, 0.010776
3299.6060, 0.010343
3301.5350, 0.010296
3303.4630, 0.010497
3305.3920, 0.010197
3307.3200, 0.009536
3309.2490, 0.008940
3311.1770, 0.008667
3313.1060, 0.009057
3315.0340, 0.009888
3316.9630, 0.010749
3318.8910, 0.010755
3320.8200, 0.009999
3322.7480, 0.010160
3324.6770, 0.010223
3326.6050, 0.010210
3328.5330, 0.009513
3330.4620, 0.009965
3332.3900, 0.011241
3334.3190, 0.010698
3336.2470, 0.010261
3338.1760, 0.010556
3340.1040, 0.010653
3342.0330, 0.010371
3343.9610, 0.010067
3345.8900, 0.009821
3347.8180, 0.009458
3349.7470, 0.009974
3351.6750, 0.010612
3353.6040, 0.011000
3355.5320, 0.010835
3357.4600, 0.010318
3359.3890, 0.010341
3361.3170, 0.010816
3363.2460, 0.010479
3365.1740, 0.009954
3367.1030, 0.010686
3369.0310, 0.010556
3370.9600, 0.010335
3372.8880, 0.010616
3374.8170, 0.011074
3376.7450, 0.011467
3378.6740, 0.010526
3380.6020, 0.009933
3382.5310, 0.010019
3384.4590, 0.010645
3386.3870, 0.010665
3388.3160, 0.010146
3390.2440, 0.009729
3392.1730, 0.009579
3394.1010, 0.009767
3396.0300, 0.009992
3397.9580, 0.010291
3399.8870, 0.010463
3401.8150, 0.011066
3403.7440, 0.011681
3405.6720, 0.011739
3407.6010, 0.010691
3409.5290, 0.010538
3411.4580, 0.011165
3413.3860, 0.010274
3415.3140, 0.009750
3417.2430, 0.010257
3419.1710, 0.009544
3421.1000, 0.009236
3423.0280, 0.010648
3424.9570, 0.011303
3426.8850, 0.011800
3428.8140, 0.011722
3430.7420, 0.011261
3432.6710, 0.011011
3434.5990, 0.011643
3436.5280, 0.012491
3438.4560, 0.011896
3440.3850, 0.010637
3442.3130, 0.010501
3444.2410, 0.011103
3446.1700, 0.010937
3448.0980, 0.009889
3450.0270, 0.009863
3451.9550, 0.009989
3453.8840, 0.009813
3455.8120, 0.009686
3457.7410, 0.009688
3459.6690, 0.010458
3461.5980, 0.011015
3463.5260, 0.012184
3465.4550, 0.012702
3467.3830, 0.011958
3469.3120, 0.010352
3471.2400, 0.010151
3473.1680, 0.011305
3475.0970, 0.012046
3477.0250, 0.011216
3478.9540, 0.010125
3480.8820, 0.010575
3482.8110, 0.010581
3484.7390, 0.010301
3486.6680, 0.010764
3488.5960, 0.010292
3490.5250, 0.009850
3492.4530, 0.010104
3494.3820, 0.010354
3496.3100, 0.009400
3498.2390, 0.008648
3500.1670, 0.009409
3502.0950, 0.010064
3504.0240, 0.009652
3505.9520, 0.008995
3507.8810, 0.010045
3509.8090, 0.010039
3511.7380, 0.008753
3513.6660, 0.009736
3515.5950, 0.010770
3517.5230, 0.009791
3519.4520, 0.010042
3521.3800, 0.009655
3523.3090, 0.009067
3525.2370, 0.010008
3527.1660, 0.010027
3529.0940, 0.009698
3531.0220, 0.009990
3532.9510, 0.009755
3534.8790, 0.009104
3536.8080, 0.008029
3538.7360, 0.008062
3540.6650, 0.009193
3542.5930, 0.009522
3544.5220, 0.009998
3546.4500, 0.010775
3548.3790, 0.010700
3550.3070, 0.010329
3552.2360, 0.010442
3554.1640, 0.009554
3556.0930, 0.009411
3558.0210, 0.009974
3559.9490, 0.009854
3561.8780, 0.009703
3563.8060, 0.010118
3565.7350, 0.010399
3567.6630, 0.010607
3569.5920, 0.010536
3571.5200, 0.009054
3573.4490, 0.009019
3575.3770, 0.009682
3577.3060, 0.009481
3579.2340, 0.008267
3581.1630, 0.008490
3583.0910, 0.008854
3585.0200, 0.009918
3586.9480, 0.011184
3588.8760, 0.010672
3590.8050, 0.010846
3592.7330, 0.010997
3594.6620, 0.009440
3596.5900, 0.008897
3598.5190, 0.009513
3600.4470, 0.009618
3602.3760, 0.009440
3604.3040, 0.009067
3606.2330, 0.008162
3608.1610, 0.008136
3610.0900, 0.008812
3612.0180, 0.008590
3613.9470, 0.008646
3615.8750, 0.008164
3617.8030, 0.007512
3619.7320, 0.009088
3621.6600, 0.009826
3623.5890, 0.009026
3625.5170, 0.008996
3627.4460, 0.010316
3629.3740, 0.010551
3631.3030, 0.009347
3633.2310, 0.009253
3635.1600, 0.008337
3637.0880, 0.007596
3639.0170, 0.008392
3640.9450, 0.009092
3642.8740, 0.009474
3644.8020, 0.008975
3646.7300, 0.009088
3648.6590, 0.009259
3650.5870, 0.009440
3652.5160, 0.009387
3654.4440, 0.009361
3656.3730, 0.009898
3658.3010, 0.009202
3660.2300, 0.007247
3662.1580, 0.007714
3664.0870, 0.009166
3666.0150, 0.008984
3667.9440, 0.007860
3669.8720, 0.008533
3671.8010, 0.009595
3673.7290, 0.008409
3675.6570, 0.008028
3677.5860, 0.008255
3679.5140, 0.008220
3681.4430, 0.008034
3683.3710, 0.007393
3685.3000, 0.008324
3687.2280, 0.008963
3689.1570, 0.008480
3691.0850, 0.008252
3693.0140, 0.009114
3694.9420, 0.009549
3696.8710, 0.010087
3698.7990, 0.010929
3700.7280, 0.008512
3702.6560, 0.008474
3704.5840, 0.010909
3706.5130, 0.010329
3708.4410, 0.008291
3710.3700, 0.007967
3712.2980, 0.009713
3714.2270, 0.009058
3716.1550, 0.006992
3718.0840, 0.007205
3720.0120, 0.008222
3721.9410, 0.008270
3723.8690, 0.009359
3725.7980, 0.011227
3727.7260, 0.010783
3729.6550, 0.009881
3731.5830, 0.010534
3733.5110, 0.011084
3735.4400, 0.009622
3737.3680, 0.008408
3739.2970, 0.010111
3741.2250, 0.010850
3743.1540, 0.009998
3745.0820, 0.008422
3747.0110, 0.007078
3748.9390, 0.008989
3750.8680, 0.009569
3752.7960, 0.009784
3754.7250, 0.010110
3756.6530, 0.009115
3758.5820, 0.009609
3760.5100, 0.009626
3762.4380, 0.008028
3764.3670, 0.008380
3766.2950, 0.008278
3768.2240, 0.008445
3770.1520, 0.008115
3772.0810, 0.007990
3774.0090, 0.008595
3775.9380, 0.009164
3777.8660, 0.008249
3779.7950, 0.008924
3781.7230, 0.009810
3783.6520, 0.009344
3785.5800, 0.008569
3787.5090, 0.007961
3789.4370, 0.007748
3791.3650, 0.008165
3793.2940, 0.009337
3795.2220, 0.009356
3797.1510, 0.009482
3799.0790, 0.009252
3801.0080, 0.009310
3802.9360, 0.009188
3804.8650, 0.010159
3806.7930, 0.010571
3808.7220, 0.009508
3810.6500, 0.009626
3812.5790, 0.010221
3814.5070, 0.010947
3816.4360, 0.010409
3818.3640, 0.010153
3820.2920, 0.010180
3822.2210, 0.008933
3824.1490, 0.008174
3826.0780, 0.007319
3828.0060, 0.006790
3829.9350, 0.007514
3831.8630, 0.007749
3833.7920, 0.007873
3835.7200, 0.008994
3837.6490, 0.010333
3839.5770, 0.011253
3841.5060, 0.010265
3843.4340, 0.008955
3845.3630, 0.007899
3847.2910, 0.008672
3849.2190, 0.009945
3851.1480, 0.010340
3853.0760, 0.011368
3855.0050, 0.010243
3856.9330, 0.008269
3858.8620, 0.007998
3860.7900, 0.008596
3862.7190, 0.008204
3864.6470, 0.007906
3866.5760, 0.008484
3868.5040, 0.008344
3870.4330, 0.008076
3872.3610, 0.009150
3874.2900, 0.009824
3876.2180, 0.009243
3878.1460, 0.009054
3880.0750, 0.009094
3882.0030, 0.008909
3883.9320, 0.009040
3885.8600, 0.009369
3887.7890, 0.008138
3889.7170, 0.007963
3891.6460, 0.009592
3893.5740, 0.009844
3895.5030, 0.008803
3897.4310, 0.009539
3899.3600, 0.009674
3901.2880, 0.009515
3903.2170, 0.009450
3905.1450, 0.008706
3907.0730, 0.008909
3909.0020, 0.009373
3910.9300, 0.008021
3912.8590, 0.007309
3914.7870, 0.008865
3916.7160, 0.009478
3918.6440, 0.008806
3920.5730, 0.009365
3922.5010, 0.009095
3924.4300, 0.008809
3926.3580, 0.008867
3928.2870, 0.010171
3930.2150, 0.010629
3932.1440, 0.010059
3934.0720, 0.008587
3936.0000, 0.007776
3937.9290, 0.007926
3939.8570, 0.007566
3941.7860, 0.007683
3943.7140, 0.007250
3945.6430, 0.008217
3947.5710, 0.008388
3949.5000, 0.007335
3951.4280, 0.008499
3953.3570, 0.009827
3955.2850, 0.008903
3957.2140, 0.009102
3959.1420, 0.009854
3961.0710, 0.009606
3962.9990, 0.009409
3964.9270, 0.009863
3966.8560, 0.010342
3968.7840, 0.010086
3970.7130, 0.009558
3972.6410, 0.009246
3974.5700, 0.009475
3976.4980, 0.008917
3978.4270, 0.008068
3980.3550, 0.008848
3982.2840, 0.009527
3984.2120, 0.009197
3986.1410, 0.008785
3988.0690, 0.008288
3989.9980, 0.009772
3991.9260, 0.011043
3993.8540, 0.010541
3995.7830, 0.010027
3997.7110, 0.009142
3999.6400, 0.009146
##END=



