##NAMES=Sodalite
##RRUFFID=R040141
##IDEAL CHEMISTRY=Na_4_Si_3_Al_3_O_12_Cl
##LOCALITY=Princess Sodalite mine, Bancroft, Ontario, Canada
##OWNER=RRUFF
##SOURCE=University of Arizona Mineral Museum
##DESCRIPTION=Blue grains in a coarsely crystalline rock
##STATUS=The identification of this mineral has been confirmed by X-ray diffraction and chemical analysis
##URL=rruff.info/R040141
##MEASURED CHEMISTRY=Na_7.86_Al_6.00_Si_6.03_O_24_Cl_2.02_
399.1926, 0.209489
401.1211, 0.226741
403.0496, 0.227831
404.9780, 0.238821
406.9065, 0.246029
408.8350, 0.245671
410.7634, 0.247185
412.6919, 0.252604
414.6204, 0.261660
416.5488, 0.270972
418.4773, 0.284146
420.4058, 0.296979
422.3342, 0.312891
424.2627, 0.326305
426.1912, 0.334110
428.1196, 0.339007
430.0481, 0.342417
431.9766, 0.335435
433.9050, 0.313207
435.8335, 0.281105
437.7620, 0.243648
439.6904, 0.207340
441.6189, 0.176585
443.5474, 0.152045
445.4758, 0.130637
447.4043, 0.113129
449.3328, 0.104850
451.2612, 0.106992
453.1897, 0.121201
455.1182, 0.148945
457.0466, 0.187108
458.9751, 0.225835
460.9036, 0.250423
462.8320, 0.250769
464.7605, 0.228099
466.6890, 0.196242
468.6174, 0.166178
470.5459, 0.140990
472.4744, 0.120247
474.4028, 0.103363
476.3313, 0.088937
478.2598, 0.076356
480.1882, 0.064676
482.1167, 0.053663
484.0452, 0.043245
485.9736, 0.034176
487.9021, 0.028134
489.8306, 0.024477
491.7590, 0.021909
493.6875, 0.019920
495.6160, 0.018731
497.5444, 0.017824
499.4729, 0.017068
501.4014, 0.016176
503.3298, 0.015441
505.2583, 0.015050
507.1868, 0.014867
509.1152, 0.014567
511.0437, 0.014568
512.9722, 0.014471
514.9006, 0.014168
516.8291, 0.014217
518.7576, 0.014454
520.6860, 0.014425
522.6145, 0.014279
524.5430, 0.013886
526.4714, 0.014076
528.3999, 0.014480
530.3284, 0.014517
532.2568, 0.014505
534.1853, 0.014957
536.1138, 0.015594
538.0422, 0.015925
539.9707, 0.015872
541.8992, 0.015577
543.8276, 0.015232
545.7561, 0.015035
547.6846, 0.014878
549.6130, 0.015015
551.5415, 0.015287
553.4700, 0.015372
555.3984, 0.015493
557.3269, 0.015837
559.2554, 0.016336
561.1838, 0.016601
563.1123, 0.016965
565.0408, 0.017216
566.9692, 0.017404
568.8977, 0.017780
570.8262, 0.018018
572.7546, 0.018490
574.6831, 0.019090
576.6116, 0.019517
578.5400, 0.019697
580.4685, 0.019906
582.3970, 0.020339
584.3254, 0.020823
586.2539, 0.021081
588.1824, 0.021377
590.1108, 0.021686
592.0393, 0.021958
593.9678, 0.022033
595.8962, 0.022187
597.8247, 0.022550
599.7532, 0.023095
601.6816, 0.023366
603.6101, 0.023099
605.5386, 0.023496
607.4670, 0.024551
609.3955, 0.025413
611.3240, 0.025575
613.2524, 0.025573
615.1809, 0.026047
617.1094, 0.026718
619.0378, 0.027211
620.9663, 0.027592
622.8948, 0.028239
624.8232, 0.029073
626.7517, 0.029894
628.6802, 0.030761
630.6086, 0.031655
632.5371, 0.032950
634.4656, 0.034556
636.3940, 0.036211
638.3225, 0.038021
640.2510, 0.039952
642.1794, 0.042481
644.1079, 0.045772
646.0364, 0.049815
647.9648, 0.055142
649.8933, 0.061794
651.8218, 0.070207
653.7502, 0.081412
655.6787, 0.096472
657.6072, 0.116742
659.5356, 0.142952
661.4641, 0.175578
663.3926, 0.210989
665.3210, 0.236948
667.2495, 0.235394
669.1780, 0.201288
671.1064, 0.153493
673.0349, 0.112265
674.9634, 0.084514
676.8918, 0.067490
678.8203, 0.057545
680.7488, 0.051959
682.6772, 0.048782
684.6057, 0.047067
686.5342, 0.046806
688.4626, 0.047711
690.3911, 0.049504
692.3196, 0.052279
694.2480, 0.056023
696.1765, 0.060900
698.1050, 0.067632
700.0334, 0.076184
701.9619, 0.086941
703.8904, 0.100853
705.8188, 0.118160
707.7473, 0.138563
709.6758, 0.157674
711.6042, 0.167536
713.5327, 0.161110
715.4612, 0.141202
717.3896, 0.119928
719.3181, 0.106445
721.2466, 0.102524
723.1750, 0.108120
725.1035, 0.123590
727.0320, 0.149695
728.9604, 0.185934
730.8889, 0.225882
732.8174, 0.254828
734.7458, 0.254561
736.6743, 0.221947
738.6028, 0.174845
740.5313, 0.130483
742.4597, 0.095750
744.3882, 0.071504
746.3167, 0.055885
748.2451, 0.045700
750.1736, 0.038718
752.1021, 0.033822
754.0305, 0.030620
755.9590, 0.028355
757.8875, 0.026404
759.8159, 0.024740
761.7444, 0.023457
763.6729, 0.022723
765.6013, 0.022074
767.5298, 0.021574
769.4583, 0.021186
771.3867, 0.021010
773.3152, 0.020693
775.2437, 0.020634
777.1721, 0.020597
779.1006, 0.020673
781.0291, 0.020814
782.9575, 0.020676
784.8860, 0.020571
786.8145, 0.020672
788.7429, 0.020700
790.6714, 0.020761
792.5999, 0.020684
794.5283, 0.020459
796.4568, 0.020345
798.3853, 0.020378
800.3137, 0.020252
802.2422, 0.020162
804.1707, 0.020277
806.0991, 0.020375
808.0276, 0.020602
809.9561, 0.020817
811.8845, 0.021152
813.8130, 0.021349
815.7415, 0.021465
817.6699, 0.021735
819.5984, 0.022319
821.5269, 0.022919
823.4553, 0.023352
825.3838, 0.023967
827.3123, 0.024510
829.2407, 0.024935
831.1692, 0.025474
833.0977, 0.026260
835.0261, 0.027072
836.9546, 0.027924
838.8831, 0.028629
840.8115, 0.029424
842.7400, 0.030463
844.6685, 0.031383
846.5969, 0.032605
848.5254, 0.034027
850.4539, 0.035452
852.3823, 0.036947
854.3108, 0.038630
856.2393, 0.040466
858.1677, 0.042173
860.0962, 0.044135
862.0247, 0.046223
863.9531, 0.047977
865.8816, 0.050098
867.8101, 0.053025
869.7385, 0.056223
871.6670, 0.059432
873.5955, 0.062831
875.5239, 0.066550
877.4524, 0.070205
879.3809, 0.073678
881.3093, 0.077107
883.2378, 0.080751
885.1663, 0.084707
887.0947, 0.089111
889.0232, 0.094174
890.9517, 0.099641
892.8801, 0.105604
894.8085, 0.112020
896.7370, 0.118838
898.6655, 0.125863
900.5939, 0.133239
902.5224, 0.141368
904.4509, 0.149936
906.3793, 0.158731
908.3078, 0.168299
910.2363, 0.178478
912.1647, 0.189576
914.0932, 0.201452
916.0217, 0.214295
917.9501, 0.227960
919.8786, 0.242029
921.8071, 0.256543
923.7355, 0.271568
925.6640, 0.286839
927.5925, 0.302239
929.5209, 0.317965
931.4494, 0.334028
933.3779, 0.350278
935.3063, 0.366492
937.2348, 0.382509
939.1633, 0.398274
941.0917, 0.413231
943.0202, 0.426975
944.9487, 0.439194
946.8771, 0.451381
948.8056, 0.464016
950.7341, 0.476643
952.6625, 0.488183
954.5910, 0.497384
956.5195, 0.504198
958.4479, 0.508878
960.3764, 0.510636
962.3049, 0.508428
964.2333, 0.501145
966.1618, 0.491763
968.0903, 0.485056
970.0187, 0.481813
971.9472, 0.475999
973.8757, 0.463458
975.8041, 0.444936
977.7326, 0.423336
979.6611, 0.400997
981.5895, 0.379818
983.5180, 0.361147
985.4465, 0.345357
987.3749, 0.330771
989.3034, 0.314704
991.2319, 0.297478
993.1603, 0.280945
995.0888, 0.265502
997.0173, 0.251723
998.9457, 0.239120
1000.8740, 0.227480
1002.8030, 0.216813
1004.7310, 0.206969
1006.6600, 0.197552
1008.5880, 0.188588
1010.5170, 0.180224
1012.4450, 0.172553
1014.3730, 0.165405
1016.3020, 0.158396
1018.2300, 0.151746
1020.1590, 0.145632
1022.0870, 0.139620
1024.0160, 0.133664
1025.9440, 0.127824
1027.8730, 0.122071
1029.8010, 0.116365
1031.7300, 0.111101
1033.6580, 0.106224
1035.5870, 0.101419
1037.5150, 0.096337
1039.4440, 0.091197
1041.3720, 0.085905
1043.3010, 0.080481
1045.2290, 0.075167
1047.1570, 0.070050
1049.0860, 0.065130
1051.0140, 0.060430
1052.9430, 0.055685
1054.8710, 0.051154
1056.8000, 0.047022
1058.7280, 0.043355
1060.6570, 0.040343
1062.5850, 0.037953
1064.5140, 0.035930
1066.4420, 0.034380
1068.3710, 0.033259
1070.2990, 0.032312
1072.2280, 0.031533
1074.1560, 0.030787
1076.0840, 0.030178
1078.0130, 0.029449
1079.9410, 0.028626
1081.8700, 0.028092
1083.7980, 0.027457
1085.7270, 0.026748
1087.6550, 0.026364
1089.5840, 0.025996
1091.5120, 0.025531
1093.4410, 0.025167
1095.3690, 0.024693
1097.2980, 0.024318
1099.2260, 0.023993
1101.1550, 0.023621
1103.0830, 0.023051
1105.0110, 0.022377
1106.9400, 0.021832
1108.8680, 0.021318
1110.7970, 0.020802
1112.7250, 0.020398
1114.6540, 0.020121
1116.5820, 0.019775
1118.5110, 0.019374
1120.4390, 0.018868
1122.3680, 0.018461
1124.2960, 0.018128
1126.2250, 0.017699
1128.1530, 0.017384
1130.0820, 0.017277
1132.0100, 0.017162
1133.9380, 0.016922
1135.8670, 0.016775
1137.7950, 0.016547
1139.7240, 0.016199
1141.6520, 0.015755
1143.5810, 0.015235
1145.5090, 0.014721
1147.4380, 0.014283
1149.3660, 0.013853
1151.2950, 0.013482
1153.2230, 0.013112
1155.1520, 0.012615
1157.0800, 0.012154
1159.0090, 0.011949
1160.9370, 0.011812
1162.8650, 0.011456
1164.7940, 0.011038
1166.7220, 0.010737
1168.6510, 0.010411
1170.5790, 0.009910
1172.5080, 0.009556
1174.4360, 0.009348
1176.3650, 0.009274
1178.2930, 0.009078
1180.2220, 0.008606
1182.1500, 0.008169
1184.0790, 0.007879
1186.0070, 0.007612
1187.9360, 0.007329
1189.8640, 0.007089
1191.7920, 0.007029
1193.7210, 0.006794
1195.6490, 0.006277
1197.5780, 0.005895
1199.5060, 0.005707
1201.4350, 0.005612
1203.3630, 0.005400
1205.2920, 0.005171
1207.2200, 0.005069
1209.1490, 0.005016
1211.0770, 0.004864
1213.0060, 0.004714
1214.9340, 0.004544
1216.8630, 0.004385
1218.7910, 0.004249
1220.7190, 0.004089
1222.6480, 0.003992
1224.5760, 0.004091
1226.5050, 0.004135
1228.4330, 0.004076
1230.3620, 0.004080
1232.2900, 0.004077
1234.2190, 0.004196
1236.1470, 0.004223
1238.0760, 0.004086
1240.0040, 0.003972
1241.9330, 0.003818
1243.8610, 0.003777
1245.7900, 0.003852
1247.7180, 0.003814
1249.6460, 0.003762
1251.5750, 0.003637
1253.5030, 0.003536
1255.4320, 0.003533
1257.3600, 0.003563
1259.2890, 0.003601
1261.2170, 0.003587
1263.1460, 0.003483
1265.0740, 0.003305
1267.0030, 0.003213
1268.9310, 0.003238
1270.8600, 0.003290
1272.7880, 0.003370
1274.7170, 0.003340
1276.6450, 0.003304
1278.5730, 0.003419
1280.5020, 0.003351
1282.4300, 0.003414
1284.3590, 0.003543
1286.2870, 0.003525
1288.2160, 0.003541
1290.1440, 0.003497
1292.0730, 0.003397
1294.0010, 0.003307
1295.9300, 0.003303
1297.8580, 0.003405
1299.7870, 0.003369
1301.7150, 0.003232
1303.6440, 0.003215
1305.5720, 0.003332
1307.5000, 0.003478
1309.4290, 0.003532
1311.3570, 0.003433
1313.2860, 0.003441
1315.2140, 0.003370
1317.1430, 0.003412
1319.0710, 0.003680
1321.0000, 0.003700
1322.9280, 0.003686
1324.8570, 0.003644
1326.7850, 0.003535
1328.7140, 0.003562
1330.6420, 0.003627
1332.5710, 0.003747
1334.4990, 0.004209
1336.4270, 0.004655
1338.3560, 0.004367
1340.2840, 0.003924
1342.2130, 0.003729
1344.1410, 0.003543
1346.0700, 0.003484
1347.9980, 0.003509
1349.9270, 0.003572
1351.8550, 0.003545
1353.7840, 0.003383
1355.7120, 0.003265
1357.6410, 0.003243
1359.5690, 0.003398
1361.4980, 0.003556
1363.4260, 0.003788
1365.3540, 0.003695
1367.2830, 0.003532
1369.2110, 0.003602
1371.1400, 0.003640
1373.0680, 0.003653
1374.9970, 0.003835
1376.9250, 0.004024
1378.8540, 0.004011
1380.7820, 0.004012
1382.7110, 0.004184
1384.6390, 0.004216
1386.5680, 0.004392
1388.4960, 0.004457
1390.4240, 0.004435
1392.3530, 0.004559
1394.2810, 0.004759
1396.2100, 0.004909
1398.1380, 0.004963
1400.0670, 0.005002
1401.9950, 0.005010
1403.9240, 0.005130
1405.8520, 0.005372
1407.7810, 0.005558
1409.7090, 0.005698
1411.6380, 0.005744
1413.5660, 0.005741
1415.4950, 0.005892
1417.4230, 0.006203
1419.3510, 0.006319
1421.2800, 0.006134
1423.2080, 0.006090
1425.1370, 0.006201
1427.0650, 0.006248
1428.9940, 0.006301
1430.9220, 0.006436
1432.8510, 0.006603
1434.7790, 0.006828
1436.7080, 0.007208
1438.6360, 0.007233
1440.5650, 0.007178
1442.4930, 0.007230
1444.4220, 0.007424
1446.3500, 0.007475
1448.2780, 0.007356
1450.2070, 0.007448
1452.1350, 0.007547
1454.0640, 0.007387
1455.9920, 0.007478
1457.9210, 0.007424
1459.8490, 0.007112
1461.7780, 0.006767
1463.7060, 0.006563
1465.6350, 0.006583
1467.5630, 0.006400
1469.4920, 0.006112
1471.4200, 0.006009
1473.3490, 0.005980
1475.2770, 0.005685
1477.2050, 0.005377
1479.1340, 0.005252
1481.0620, 0.005235
1482.9910, 0.005296
1484.9190, 0.005235
1486.8480, 0.005160
1488.7760, 0.005164
1490.7050, 0.005129
1492.6330, 0.004854
1494.5620, 0.004719
1496.4900, 0.004824
1498.4190, 0.004974
1500.3470, 0.005048
1502.2760, 0.004922
1504.2040, 0.004961
1506.1320, 0.005424
1508.0610, 0.005342
1509.9890, 0.004868
1511.9180, 0.004737
1513.8460, 0.004647
1515.7750, 0.004658
1517.7030, 0.004823
1519.6320, 0.005195
1521.5600, 0.005308
1523.4890, 0.005005
1525.4170, 0.004814
1527.3460, 0.004513
1529.2740, 0.004341
1531.2030, 0.004549
1533.1310, 0.004573
1535.0590, 0.004516
1536.9880, 0.004700
1538.9160, 0.005168
1540.8450, 0.005092
1542.7730, 0.004890
1544.7020, 0.005042
1546.6300, 0.005086
1548.5590, 0.005073
1550.4870, 0.005158
1552.4160, 0.005163
1554.3440, 0.005142
1556.2730, 0.005428
1558.2010, 0.006203
1560.1300, 0.006303
1562.0580, 0.005723
1563.9860, 0.005609
1565.9150, 0.005620
1567.8430, 0.005630
1569.7720, 0.005605
1571.7000, 0.005431
1573.6290, 0.005440
1575.5570, 0.005870
1577.4860, 0.005892
1579.4140, 0.005612
1581.3430, 0.005576
1583.2710, 0.005588
1585.2000, 0.005595
1587.1280, 0.005615
1589.0570, 0.005673
1590.9850, 0.005648
1592.9130, 0.005622
1594.8420, 0.005672
1596.7700, 0.005884
1598.6990, 0.006001
1600.6270, 0.005805
1602.5560, 0.005802
1604.4840, 0.005988
1606.4130, 0.005935
1608.3410, 0.005690
1610.2700, 0.005604
1612.1980, 0.005593
1614.1270, 0.005882
1616.0550, 0.006259
1617.9840, 0.006151
1619.9120, 0.006157
1621.8400, 0.006211
1623.7690, 0.006123
1625.6970, 0.006087
1627.6260, 0.006287
1629.5540, 0.006617
1631.4830, 0.006728
1633.4110, 0.006840
1635.3400, 0.007088
1637.2680, 0.006847
1639.1970, 0.006480
1641.1250, 0.006585
1643.0540, 0.006787
1644.9820, 0.007052
1646.9110, 0.007151
1648.8390, 0.007003
1650.7670, 0.007204
1652.6960, 0.007810
1654.6240, 0.007325
1656.5530, 0.006605
1658.4810, 0.006588
1660.4100, 0.006568
1662.3380, 0.006489
1664.2670, 0.006411
1666.1950, 0.006226
1668.1240, 0.006156
1670.0520, 0.006012
1671.9810, 0.005979
1673.9090, 0.006161
1675.8380, 0.005967
1677.7660, 0.005489
1679.6940, 0.005526
1681.6230, 0.005912
1683.5510, 0.006371
1685.4800, 0.006177
1687.4080, 0.005968
1689.3370, 0.005903
1691.2650, 0.005572
1693.1940, 0.005624
1695.1220, 0.006259
1697.0510, 0.006252
1698.9790, 0.006239
1700.9080, 0.006398
1702.8360, 0.006238
1704.7650, 0.006328
1706.6930, 0.006146
1708.6210, 0.005764
1710.5500, 0.005314
1712.4780, 0.004807
1714.4070, 0.004899
1716.3350, 0.005238
1718.2640, 0.005078
1720.1920, 0.004405
1722.1210, 0.003900
1724.0490, 0.003905
1725.9780, 0.004140
1727.9060, 0.004084
1729.8350, 0.003898
1731.7630, 0.004088
1733.6920, 0.004514
1735.6200, 0.004171
1737.5480, 0.004079
1739.4770, 0.004321
1741.4050, 0.004377
1743.3340, 0.004080
1745.2620, 0.003756
1747.1910, 0.003843
1749.1190, 0.003904
1751.0480, 0.003825
1752.9760, 0.003214
1754.9050, 0.003022
1756.8330, 0.003319
1758.7620, 0.003382
1760.6900, 0.003276
1762.6190, 0.003079
1764.5470, 0.002824
1766.4750, 0.002903
1768.4040, 0.003067
1770.3320, 0.003109
1772.2610, 0.003227
1774.1890, 0.002932
1776.1180, 0.002767
1778.0460, 0.002984
1779.9750, 0.003119
1781.9030, 0.003087
1783.8320, 0.002876
1785.7600, 0.002510
1787.6890, 0.002436
1789.6170, 0.002750
1791.5460, 0.002911
1793.4740, 0.002633
1795.4020, 0.002263
1797.3310, 0.002354
1799.2590, 0.002199
1801.1880, 0.002476
1803.1160, 0.002501
1805.0450, 0.002102
1806.9730, 0.002173
1808.9020, 0.002264
1810.8300, 0.002150
1812.7590, 0.001776
1814.6870, 0.001451
1816.6160, 0.001596
1818.5440, 0.001714
1820.4730, 0.001965
1822.4010, 0.002256
1824.3290, 0.001965
1826.2580, 0.001477
1828.1860, 0.001368
1830.1150, 0.001859
1832.0430, 0.001619
1833.9720, 0.001531
1835.9000, 0.001619
1837.8290, 0.001507
1839.7570, 0.001448
1841.6860, 0.001097
1843.6140, 0.001099
1845.5430, 0.001407
1847.4710, 0.001428
1849.4000, 0.001751
1851.3280, 0.001606
1853.2560, 0.000998
1855.1850, 0.000862
1857.1130, 0.001033
1859.0420, 0.000673
1860.9700, 0.000753
1862.8990, 0.000832
1864.8270, 0.000694
1866.7560, 0.000600
1868.6840, 0.000369
1870.6130, 0.000471
1872.5410, 0.000381
1874.4700, 0.000340
1876.3980, 0.000746
1878.3270, 0.000541
1880.2550, -0.000118
1882.1830, -0.000074
1884.1120, 0.000240
1886.0400, 0.000558
1887.9690, 0.000502
1889.8970, -0.000082
1891.8260, -0.000358
1893.7540, -0.000088
1895.6830, -0.000073
1897.6110, 0.000128
1899.5400, 0.000293
1901.4680, 0.000432
1903.3970, -0.000212
1905.3250, -0.000909
1907.2540, -0.000823
1909.1820, -0.000782
1911.1100, -0.001154
1913.0390, -0.001352
1914.9670, -0.001147
1916.8960, -0.001194
1918.8240, -0.001186
1920.7530, -0.001346
1922.6810, -0.001635
1924.6100, -0.002060
1926.5380, -0.002424
1928.4670, -0.002127
1930.3950, -0.001144
1932.3240, -0.001133
1934.2520, -0.001195
1936.1810, -0.002484
1938.1090, -0.003141
1940.0370, -0.003114
1941.9660, -0.003406
1943.8940, -0.003584
1945.8230, -0.002533
1947.7510, -0.002514
1949.6800, -0.002694
1951.6080, -0.002920
1953.5370, -0.003192
1955.4650, -0.003214
1957.3940, -0.005059
1959.3220, -0.005825
1961.2510, -0.005114
1963.1790, -0.005037
1965.1080, -0.004885
1967.0360, -0.005701
1968.9640, -0.007716
1970.8930, -0.007592
1972.8210, -0.006529
1974.7500, -0.007193
1976.6780, -0.007652
1978.6070, -0.006729
1980.5350, -0.005543
1982.4640, -0.005083
1984.3920, -0.004559
1986.3210, -0.004447
1988.2490, -0.004205
1990.1780, -0.002620
1992.1060, -0.002096
1994.0350, -0.004131
1995.9630, -0.005074
1997.8910, -0.004625
1999.8200, -0.004239
2001.7480, -0.004802
2003.6770, -0.005655
2005.6050, -0.005331
2007.5340, -0.004761
2009.4620, -0.004932
2011.3910, -0.005764
2013.3190, -0.006769
2015.2480, -0.007206
2017.1760, -0.007197
2019.1050, -0.005182
2021.0330, -0.005138
2022.9620, -0.005577
2024.8900, -0.004840
2026.8180, -0.004998
2028.7470, -0.006390
2030.6750, -0.005289
2032.6040, -0.002549
2034.5320, -0.001871
2036.4610, -0.001764
2038.3890, -0.002274
2040.3180, -0.002845
2042.2460, -0.002491
2044.1750, -0.001774
2046.1030, -0.001327
2048.0320, -0.001413
2049.9600, -0.000271
2051.8890, -0.000972
2053.8170, -0.001841
2055.7460, -0.001045
2057.6740, -0.000045
2059.6030, 0.000357
2061.5310, 0.000080
2063.4590, 0.000088
2065.3880, -0.000359
2067.3160, -0.000289
2069.2450, 0.001055
2071.1730, 0.000943
2073.1020, 0.000472
2075.0300, 0.000688
2076.9590, 0.000901
2078.8870, 0.001342
2080.8160, 0.001751
2082.7440, 0.001617
2084.6730, 0.001796
2086.6010, 0.002220
2088.5300, 0.001989
2090.4580, 0.002138
2092.3860, 0.001768
2094.3150, 0.002002
2096.2430, 0.002108
2098.1720, 0.001341
2100.1000, 0.001455
2102.0290, 0.002108
2103.9570, 0.001850
2105.8860, 0.001843
2107.8140, 0.002263
2109.7430, 0.002149
2111.6710, 0.002276
2113.6000, 0.003094
2115.5280, 0.003317
2117.4570, 0.002751
2119.3850, 0.002536
2121.3130, 0.003388
2123.2420, 0.003383
2125.1700, 0.002330
2127.0990, 0.001800
2129.0270, 0.001952
2130.9560, 0.000896
2132.8840, -0.000890
2134.8130, -0.000532
2136.7410, 0.001043
2138.6700, 0.001757
2140.5980, 0.001823
2142.5270, 0.001080
2144.4550, -0.000574
2146.3840, -0.000697
2148.3120, 0.000234
2150.2400, 0.001315
2152.1690, 0.001099
2154.0970, -0.000561
2156.0260, -0.002537
2157.9540, -0.001438
2159.8830, 0.002400
2161.8110, 0.005093
2163.7400, 0.004992
2165.6680, 0.003648
2167.5970, 0.004008
2169.5250, 0.003627
2171.4540, 0.001719
2173.3820, 0.000735
2175.3110, 0.001687
2177.2390, 0.002907
2179.1670, 0.003210
2181.0960, 0.002203
2183.0240, 0.003209
2184.9530, 0.004632
2186.8810, 0.003746
2188.8100, 0.002730
2190.7380, 0.003641
2192.6670, 0.003884
2194.5950, 0.004331
2196.5240, 0.004225
2198.4520, 0.004382
2200.3810, 0.003963
2202.3090, 0.003584
2204.2380, 0.003742
2206.1660, 0.004279
2208.0940, 0.004437
2210.0230, 0.004478
2211.9510, 0.003979
2213.8800, 0.002972
2215.8080, 0.003522
2217.7370, 0.004567
2219.6650, 0.004291
2221.5940, 0.003848
2223.5220, 0.003760
2225.4510, 0.003685
2227.3790, 0.004091
2229.3080, 0.005636
2231.2360, 0.005974
2233.1650, 0.005162
2235.0930, 0.004030
2237.0210, 0.004014
2238.9500, 0.003954
2240.8780, 0.003805
2242.8070, 0.003775
2244.7350, 0.002761
2246.6640, 0.002466
2248.5920, 0.002178
2250.5210, 0.002196
2252.4490, 0.002666
2254.3780, 0.003153
2256.3060, 0.004725
2258.2350, 0.005283
2260.1630, 0.003721
2262.0920, 0.003905
2264.0200, 0.004244
2265.9480, 0.004508
2267.8770, 0.004931
2269.8050, 0.005208
2271.7340, 0.004542
2273.6620, 0.003777
2275.5910, 0.004098
2277.5190, 0.004598
2279.4480, 0.004242
2281.3760, 0.005087
2283.3050, 0.005842
2285.2330, 0.004853
2287.1620, 0.004198
2289.0900, 0.004262
2291.0190, 0.004882
2292.9470, 0.005463
2294.8750, 0.005578
2296.8040, 0.005903
2298.7320, 0.005707
2300.6610, 0.005158
2302.5890, 0.004846
2304.5180, 0.004911
2306.4460, 0.005229
2308.3750, 0.006032
2310.3030, 0.006254
2312.2320, 0.006131
2314.1600, 0.006197
2316.0890, 0.006462
2318.0170, 0.006495
2319.9460, 0.006838
2321.8740, 0.007853
2323.8020, 0.008284
2325.7310, 0.007685
2327.6590, 0.007553
2329.5880, 0.007618
2331.5160, 0.007207
2333.4450, 0.006999
2335.3730, 0.007101
2337.3020, 0.007325
2339.2300, 0.007275
2341.1590, 0.007048
2343.0870, 0.006537
2345.0160, 0.006085
2346.9440, 0.005946
2348.8730, 0.005791
2350.8010, 0.005816
2352.7290, 0.006242
2354.6580, 0.007026
2356.5860, 0.007468
2358.5150, 0.007654
2360.4430, 0.008253
2362.3720, 0.008223
2364.3000, 0.007379
2366.2290, 0.007241
2368.1570, 0.007206
2370.0860, 0.006804
2372.0140, 0.006334
2373.9420, 0.005739
2375.8710, 0.005218
2377.7990, 0.005000
2379.7280, 0.004702
2381.6560, 0.004545
2383.5850, 0.005148
2385.5130, 0.005892
2387.4420, 0.005641
2389.3700, 0.004657
2391.2990, 0.004400
2393.2270, 0.004655
2395.1560, 0.004734
2397.0840, 0.005257
2399.0120, 0.005473
2400.9410, 0.005145
2402.8690, 0.004848
2404.7980, 0.004635
2406.7260, 0.004732
2408.6550, 0.004814
2410.5830, 0.004756
2412.5120, 0.004708
2414.4400, 0.004921
2416.3690, 0.004901
2418.2970, 0.005317
2420.2260, 0.005822
2422.1540, 0.005867
2424.0830, 0.005725
2426.0110, 0.005277
2427.9390, 0.004917
2429.8680, 0.005039
2431.7960, 0.005281
2433.7250, 0.005142
2435.6530, 0.005328
2437.5820, 0.005618
2439.5100, 0.005834
2441.4390, 0.006020
2443.3670, 0.005866
2445.2960, 0.005648
2447.2240, 0.006173
2449.1530, 0.006804
2451.0810, 0.006797
2453.0100, 0.006247
2454.9380, 0.005819
2456.8660, 0.005596
2458.7950, 0.005320
2460.7230, 0.005416
2462.6520, 0.005672
2464.5800, 0.005579
2466.5090, 0.005177
2468.4370, 0.005146
2470.3660, 0.005493
2472.2940, 0.005930
2474.2230, 0.006125
2476.1510, 0.005913
2478.0800, 0.006327
2480.0080, 0.006665
2481.9370, 0.006191
2483.8650, 0.005704
2485.7930, 0.005637
2487.7220, 0.005950
2489.6500, 0.006452
2491.5790, 0.006416
2493.5070, 0.006548
2495.4360, 0.006961
2497.3640, 0.006306
2499.2930, 0.005590
2501.2210, 0.005924
2503.1500, 0.006101
2505.0780, 0.006249
2507.0070, 0.006393
2508.9350, 0.006802
2510.8640, 0.007213
2512.7920, 0.006680
2514.7200, 0.006454
2516.6490, 0.006179
2518.5770, 0.005746
2520.5060, 0.006088
2522.4340, 0.006645
2524.3630, 0.006286
2526.2910, 0.005959
2528.2200, 0.005658
2530.1480, 0.005316
2532.0770, 0.005866
2534.0050, 0.005978
2535.9340, 0.005832
2537.8620, 0.006335
2539.7910, 0.006325
2541.7190, 0.006227
2543.6470, 0.006552
2545.5760, 0.006815
2547.5040, 0.006887
2549.4330, 0.006501
2551.3610, 0.005898
2553.2900, 0.006179
2555.2180, 0.006725
2557.1470, 0.006507
2559.0750, 0.006108
2561.0040, 0.005813
2562.9320, 0.005770
2564.8610, 0.006302
2566.7890, 0.007063
2568.7180, 0.007183
2570.6460, 0.007076
2572.5740, 0.006945
2574.5030, 0.006814
2576.4310, 0.006689
2578.3600, 0.006223
2580.2880, 0.006448
2582.2170, 0.007490
2584.1450, 0.007126
2586.0740, 0.006906
2588.0020, 0.007261
2589.9310, 0.007306
2591.8590, 0.007439
2593.7880, 0.007209
2595.7160, 0.006918
2597.6450, 0.006778
2599.5730, 0.006800
2601.5010, 0.006629
2603.4300, 0.006167
2605.3580, 0.006514
2607.2870, 0.006825
2609.2150, 0.006609
2611.1440, 0.006497
2613.0720, 0.006345
2615.0010, 0.006730
2616.9290, 0.006638
2618.8580, 0.006910
2620.7860, 0.007605
2622.7150, 0.007491
2624.6430, 0.006929
2626.5720, 0.007681
2628.5000, 0.008153
2630.4280, 0.007843
2632.3570, 0.007699
2634.2850, 0.007577
2636.2140, 0.007646
2638.1420, 0.007786
2640.0710, 0.007808
2641.9990, 0.007661
2643.9280, 0.007359
2645.8560, 0.007268
2647.7850, 0.007655
2649.7130, 0.007812
2651.6420, 0.007170
2653.5700, 0.007054
2655.4990, 0.007470
2657.4270, 0.007781
2659.3550, 0.007940
2661.2840, 0.007361
2663.2120, 0.006922
2665.1410, 0.006734
2667.0690, 0.006648
2668.9980, 0.006869
2670.9260, 0.006523
2672.8550, 0.006462
2674.7830, 0.006627
2676.7120, 0.006968
2678.6400, 0.007384
2680.5690, 0.006937
2682.4970, 0.006623
2684.4260, 0.007137
2686.3540, 0.006948
2688.2820, 0.006709
2690.2110, 0.006892
2692.1390, 0.006755
2694.0680, 0.006761
2695.9960, 0.007108
2697.9250, 0.007174
2699.8530, 0.006826
2701.7820, 0.006732
2703.7100, 0.007078
2705.6390, 0.007669
2707.5670, 0.007771
2709.4960, 0.007899
2711.4240, 0.008045
2713.3530, 0.007747
2715.2810, 0.007665
2717.2090, 0.007571
2719.1380, 0.007263
2721.0660, 0.007059
2722.9950, 0.007165
2724.9230, 0.007636
2726.8520, 0.007813
2728.7800, 0.007559
2730.7090, 0.007443
2732.6370, 0.007326
2734.5660, 0.007134
2736.4940, 0.006993
2738.4230, 0.007158
2740.3510, 0.007839
2742.2800, 0.008010
2744.2080, 0.007923
2746.1360, 0.008158
2748.0650, 0.008331
2749.9930, 0.008182
2751.9220, 0.008089
2753.8500, 0.007850
2755.7790, 0.007849
2757.7070, 0.008006
2759.6360, 0.008189
2761.5640, 0.008402
2763.4930, 0.008392
2765.4210, 0.008390
2767.3500, 0.008712
2769.2780, 0.009327
2771.2070, 0.009367
2773.1350, 0.008809
2775.0630, 0.008699
2776.9920, 0.008855
2778.9200, 0.008389
2780.8490, 0.008340
2782.7770, 0.008600
2784.7060, 0.008690
2786.6340, 0.008449
2788.5630, 0.008521
2790.4910, 0.008413
2792.4200, 0.008144
2794.3480, 0.008477
2796.2770, 0.008883
2798.2050, 0.009192
2800.1340, 0.008844
2802.0620, 0.008440
2803.9900, 0.008812
2805.9190, 0.008912
2807.8470, 0.008208
2809.7760, 0.008212
2811.7040, 0.008662
2813.6330, 0.008750
2815.5610, 0.009159
2817.4900, 0.009549
2819.4180, 0.008904
2821.3470, 0.008545
2823.2750, 0.008762
2825.2040, 0.008585
2827.1320, 0.008392
2829.0610, 0.008808
2830.9890, 0.009213
2832.9170, 0.009418
2834.8460, 0.009018
2836.7740, 0.008489
2838.7030, 0.008824
2840.6310, 0.008927
2842.5600, 0.008916
2844.4880, 0.008957
2846.4170, 0.008916
2848.3450, 0.009094
2850.2740, 0.009861
2852.2020, 0.010185
2854.1310, 0.010556
2856.0590, 0.010937
2857.9880, 0.011081
2859.9160, 0.010695
2861.8440, 0.010008
2863.7730, 0.009732
2865.7010, 0.009989
2867.6300, 0.010105
2869.5580, 0.010314
2871.4870, 0.010487
2873.4150, 0.010240
2875.3440, 0.009771
2877.2720, 0.009652
2879.2010, 0.010190
2881.1290, 0.010573
2883.0580, 0.010714
2884.9860, 0.010466
2886.9150, 0.010353
2888.8430, 0.009980
2890.7710, 0.009478
2892.7000, 0.009440
2894.6280, 0.009854
2896.5570, 0.009837
2898.4850, 0.010392
2900.4140, 0.011127
2902.3420, 0.010720
2904.2710, 0.009516
2906.1990, 0.010165
2908.1280, 0.011061
2910.0560, 0.010897
2911.9850, 0.010761
2913.9130, 0.011613
2915.8420, 0.011593
2917.7700, 0.011532
2919.6980, 0.011584
2921.6270, 0.011694
2923.5550, 0.011581
2925.4840, 0.011664
2927.4120, 0.012152
2929.3410, 0.012402
2931.2690, 0.012347
2933.1980, 0.012325
2935.1260, 0.012381
2937.0550, 0.012009
2938.9830, 0.012204
2940.9120, 0.012102
2942.8400, 0.011447
2944.7690, 0.010975
2946.6970, 0.010766
2948.6250, 0.011242
2950.5540, 0.011886
2952.4820, 0.012241
2954.4110, 0.011968
2956.3390, 0.011305
2958.2680, 0.011306
2960.1960, 0.011000
2962.1250, 0.010796
2964.0530, 0.010540
2965.9820, 0.010861
2967.9100, 0.011225
2969.8390, 0.010981
2971.7670, 0.011042
2973.6960, 0.010825
2975.6240, 0.010880
2977.5520, 0.011032
2979.4810, 0.011412
2981.4090, 0.011467
2983.3380, 0.011461
2985.2660, 0.011826
2987.1950, 0.011543
2989.1230, 0.011285
2991.0520, 0.011217
2992.9800, 0.011113
2994.9090, 0.011015
2996.8370, 0.010864
2998.7660, 0.010469
3000.6940, 0.010220
3002.6230, 0.010801
3004.5510, 0.010791
3006.4790, 0.010756
3008.4080, 0.010896
3010.3360, 0.011195
3012.2650, 0.011259
3014.1930, 0.011321
3016.1220, 0.010945
3018.0500, 0.010254
3019.9790, 0.010285
3021.9070, 0.010893
3023.8360, 0.011628
3025.7640, 0.011774
3027.6930, 0.011463
3029.6210, 0.011293
3031.5500, 0.011580
3033.4780, 0.011873
3035.4060, 0.011737
3037.3350, 0.011861
3039.2630, 0.012154
3041.1920, 0.011637
3043.1200, 0.011157
3045.0490, 0.011080
3046.9770, 0.011314
3048.9060, 0.011789
3050.8340, 0.012141
3052.7630, 0.012214
3054.6910, 0.012756
3056.6200, 0.012618
3058.5480, 0.012357
3060.4770, 0.012152
3062.4050, 0.012361
3064.3330, 0.012961
3066.2620, 0.012463
3068.1900, 0.012252
3070.1190, 0.012419
3072.0470, 0.011846
3073.9760, 0.011853
3075.9040, 0.012488
3077.8330, 0.012853
3079.7610, 0.013101
3081.6900, 0.013260
3083.6180, 0.013224
3085.5470, 0.012726
3087.4750, 0.012325
3089.4040, 0.012878
3091.3320, 0.013502
3093.2600, 0.013039
3095.1890, 0.012301
3097.1170, 0.012622
3099.0460, 0.012943
3100.9740, 0.013316
3102.9030, 0.013464
3104.8310, 0.013286
3106.7600, 0.013419
3108.6880, 0.014038
3110.6170, 0.014329
3112.5450, 0.014448
3114.4740, 0.014492
3116.4020, 0.013706
3118.3310, 0.013054
3120.2590, 0.013533
3122.1880, 0.014413
3124.1160, 0.014950
3126.0440, 0.014561
3127.9730, 0.013544
3129.9010, 0.013227
3131.8300, 0.013649
3133.7580, 0.014636
3135.6870, 0.014723
3137.6150, 0.014142
3139.5440, 0.013566
3141.4720, 0.013706
3143.4010, 0.014517
3145.3290, 0.015143
3147.2580, 0.015321
3149.1860, 0.015431
3151.1150, 0.015497
3153.0430, 0.015688
3154.9710, 0.015369
3156.9000, 0.014845
3158.8280, 0.014018
3160.7570, 0.014449
3162.6850, 0.015775
3164.6140, 0.016084
3166.5420, 0.015870
3168.4710, 0.015610
3170.3990, 0.015588
3172.3280, 0.015776
3174.2560, 0.015739
3176.1850, 0.015386
3178.1130, 0.015491
3180.0420, 0.015713
3181.9700, 0.016144
3183.8980, 0.016546
3185.8270, 0.015342
3187.7550, 0.014773
3189.6840, 0.015815
3191.6120, 0.016688
3193.5410, 0.016722
3195.4690, 0.016240
3197.3980, 0.016049
3199.3260, 0.015906
3201.2550, 0.016058
3203.1830, 0.016925
3205.1120, 0.017265
3207.0400, 0.017052
3208.9690, 0.016541
3210.8970, 0.016509
3212.8250, 0.016068
3214.7540, 0.015476
3216.6820, 0.016868
3218.6110, 0.017647
3220.5390, 0.017037
3222.4680, 0.016280
3224.3960, 0.015599
3226.3250, 0.015280
3228.2530, 0.016645
3230.1820, 0.017520
3232.1100, 0.017388
3234.0390, 0.016337
3235.9670, 0.015402
3237.8960, 0.016013
3239.8240, 0.017074
3241.7520, 0.017839
3243.6810, 0.017766
3245.6090, 0.017035
3247.5380, 0.016922
3249.4660, 0.017133
3251.3950, 0.016654
3253.3230, 0.017175
3255.2520, 0.017944
3257.1800, 0.017764
3259.1090, 0.017496
3261.0370, 0.017176
3262.9660, 0.017578
3264.8940, 0.017838
3266.8230, 0.018017
3268.7510, 0.018549
3270.6790, 0.018228
3272.6080, 0.018086
3274.5360, 0.018482
3276.4650, 0.018743
3278.3930, 0.018636
3280.3220, 0.017824
3282.2500, 0.017547
3284.1790, 0.016905
3286.1070, 0.016224
3288.0360, 0.016767
3289.9640, 0.018060
3291.8930, 0.018110
3293.8210, 0.018300
3295.7500, 0.018195
3297.6780, 0.017623
3299.6060, 0.017648
3301.5350, 0.018182
3303.4630, 0.018527
3305.3920, 0.019008
3307.3200, 0.018272
3309.2490, 0.017722
3311.1770, 0.018690
3313.1060, 0.018609
3315.0340, 0.018281
3316.9630, 0.019334
3318.8910, 0.019457
3320.8200, 0.018574
3322.7480, 0.018227
3324.6770, 0.018562
3326.6050, 0.018856
3328.5330, 0.019196
3330.4620, 0.018596
3332.3900, 0.017919
3334.3190, 0.017618
3336.2470, 0.017877
3338.1760, 0.019271
3340.1040, 0.019698
3342.0330, 0.018910
3343.9610, 0.018700
3345.8900, 0.018680
3347.8180, 0.018622
3349.7470, 0.018427
3351.6750, 0.019067
3353.6040, 0.019260
3355.5320, 0.018309
3357.4600, 0.018306
3359.3890, 0.019207
3361.3170, 0.019650
3363.2460, 0.019293
3365.1740, 0.019311
3367.1030, 0.019160
3369.0310, 0.018568
3370.9600, 0.018552
3372.8880, 0.018878
3374.8170, 0.019173
3376.7450, 0.019532
3378.6740, 0.019287
3380.6020, 0.019775
3382.5310, 0.020150
3384.4590, 0.020037
3386.3870, 0.020066
3388.3160, 0.019866
3390.2440, 0.019611
3392.1730, 0.019099
3394.1010, 0.020063
3396.0300, 0.020675
3397.9580, 0.020113
3399.8870, 0.019722
3401.8150, 0.020301
3403.7440, 0.020599
3405.6720, 0.019763
3407.6010, 0.019791
3409.5290, 0.020146
3411.4580, 0.019694
3413.3860, 0.019855
3415.3140, 0.020476
3417.2430, 0.020142
3419.1710, 0.019038
3421.1000, 0.019574
3423.0280, 0.020189
3424.9570, 0.019465
3426.8850, 0.019708
3428.8140, 0.020636
3430.7420, 0.020985
3432.6710, 0.020283
3434.5990, 0.019290
3436.5280, 0.019699
3438.4560, 0.021420
3440.3850, 0.021529
3442.3130, 0.020763
3444.2410, 0.020749
3446.1700, 0.020492
3448.0980, 0.019792
3450.0270, 0.019286
3451.9550, 0.020048
3453.8840, 0.020565
3455.8120, 0.020252
3457.7410, 0.020139
3459.6690, 0.019965
3461.5980, 0.019578
3463.5260, 0.019987
3465.4550, 0.019935
3467.3830, 0.019266
3469.3120, 0.019028
3471.2400, 0.018178
3473.1680, 0.018202
3475.0970, 0.018848
3477.0250, 0.018633
3478.9540, 0.019223
3480.8820, 0.020480
3482.8110, 0.020264
3484.7390, 0.020326
3486.6680, 0.020324
3488.5960, 0.019530
3490.5250, 0.019600
3492.4530, 0.019738
3494.3820, 0.020436
3496.3100, 0.020603
3498.2390, 0.019745
3500.1670, 0.019614
3502.0950, 0.020369
3504.0240, 0.020676
3505.9520, 0.020585
3507.8810, 0.020407
3509.8090, 0.020139
3511.7380, 0.020360
3513.6660, 0.019792
3515.5950, 0.020313
3517.5230, 0.021181
3519.4520, 0.020256
3521.3800, 0.018976
3523.3090, 0.019746
3525.2370, 0.020332
3527.1660, 0.019330
3529.0940, 0.020030
3531.0220, 0.019915
3532.9510, 0.019382
3534.8790, 0.019742
3536.8080, 0.019949
3538.7360, 0.020117
3540.6650, 0.019883
3542.5930, 0.019858
3544.5220, 0.019609
3546.4500, 0.019209
3548.3790, 0.019751
3550.3070, 0.019755
3552.2360, 0.019040
3554.1640, 0.018255
3556.0930, 0.017937
3558.0210, 0.018566
3559.9490, 0.018842
3561.8780, 0.018928
3563.8060, 0.019798
3565.7350, 0.019785
3567.6630, 0.019570
3569.5920, 0.019974
3571.5200, 0.020013
3573.4490, 0.019237
3575.3770, 0.018590
3577.3060, 0.018311
3579.2340, 0.018976
3581.1630, 0.018770
3583.0910, 0.018005
3585.0200, 0.016923
3586.9480, 0.017649
3588.8760, 0.017841
3590.8050, 0.018295
3592.7330, 0.018610
3594.6620, 0.018750
3596.5900, 0.018489
3598.5190, 0.019349
3600.4470, 0.018818
3602.3760, 0.016394
3604.3040, 0.015623
3606.2330, 0.015707
3608.1610, 0.017194
3610.0900, 0.017435
3612.0180, 0.016466
3613.9470, 0.016036
3615.8750, 0.016106
3617.8030, 0.016254
3619.7320, 0.015560
3621.6600, 0.015526
3623.5890, 0.016706
3625.5170, 0.017983
3627.4460, 0.017882
3629.3740, 0.016323
3631.3030, 0.015417
3633.2310, 0.014210
3635.1600, 0.015148
3637.0880, 0.015813
3639.0170, 0.015325
3640.9450, 0.014989
3642.8740, 0.013978
3644.8020, 0.013869
3646.7300, 0.014403
3648.6590, 0.014445
3650.5870, 0.014540
3652.5160, 0.013670
3654.4440, 0.012875
3656.3730, 0.013575
3658.3010, 0.014504
3660.2300, 0.014821
3662.1580, 0.014847
3664.0870, 0.013828
3666.0150, 0.013027
3667.9440, 0.013048
3669.8720, 0.014047
3671.8010, 0.015269
3673.7290, 0.015366
3675.6570, 0.015715
3677.5860, 0.015251
3679.5140, 0.014090
3681.4430, 0.014129
3683.3710, 0.013139
3685.3000, 0.013061
3687.2280, 0.013239
3689.1570, 0.013107
3691.0850, 0.013820
3693.0140, 0.014905
3694.9420, 0.014518
3696.8710, 0.013538
3698.7990, 0.012420
3700.7280, 0.012135
3702.6560, 0.013449
3704.5840, 0.013615
3706.5130, 0.012570
3708.4410, 0.012094
3710.3700, 0.013039
3712.2980, 0.014538
3714.2270, 0.013184
3716.1550, 0.012937
3718.0840, 0.013788
3720.0120, 0.013162
3721.9410, 0.013696
3723.8690, 0.014401
3725.7980, 0.014454
3727.7260, 0.013606
3729.6550, 0.012886
3731.5830, 0.013589
3733.5110, 0.014287
3735.4400, 0.014379
3737.3680, 0.014073
3739.2970, 0.013053
3741.2250, 0.013089
3743.1540, 0.012888
3745.0820, 0.012185
3747.0110, 0.013771
3748.9390, 0.015448
3750.8680, 0.014516
3752.7960, 0.014811
3754.7250, 0.015030
3756.6530, 0.013932
3758.5820, 0.013697
3760.5100, 0.014013
3762.4380, 0.014448
3764.3670, 0.014168
3766.2950, 0.013756
3768.2240, 0.015310
3770.1520, 0.016341
3772.0810, 0.015807
3774.0090, 0.014942
3775.9380, 0.014690
3777.8660, 0.014902
3779.7950, 0.013843
3781.7230, 0.014036
3783.6520, 0.015154
3785.5800, 0.014950
3787.5090, 0.014488
3789.4370, 0.014206
3791.3650, 0.013605
3793.2940, 0.012653
3795.2220, 0.012810
3797.1510, 0.012890
3799.0790, 0.013543
3801.0080, 0.015042
3802.9360, 0.014433
3804.8650, 0.014720
3806.7930, 0.014761
3808.7220, 0.014328
3810.6500, 0.014200
3812.5790, 0.014304
3814.5070, 0.015121
3816.4360, 0.014840
3818.3640, 0.014086
3820.2920, 0.016004
3822.2210, 0.016654
3824.1490, 0.015041
3826.0780, 0.015849
3828.0060, 0.015358
3829.9350, 0.013871
3831.8630, 0.013797
3833.7920, 0.014139
3835.7200, 0.014599
3837.6490, 0.015798
3839.5770, 0.017245
3841.5060, 0.017396
3843.4340, 0.015802
3845.3630, 0.014844
3847.2910, 0.015015
3849.2190, 0.016712
3851.1480, 0.017429
3853.0760, 0.018168
3855.0050, 0.018060
3856.9330, 0.015993
3858.8620, 0.014402
3860.7900, 0.014467
3862.7190, 0.014274
3864.6470, 0.013985
3866.5760, 0.014669
3868.5040, 0.015112
3870.4330, 0.014738
3872.3610, 0.014724
3874.2900, 0.015114
3876.2180, 0.014911
3878.1460, 0.015843
3880.0750, 0.016861
3882.0030, 0.016828
3883.9320, 0.016520
3885.8600, 0.015441
3887.7890, 0.013379
3889.7170, 0.013621
3891.6460, 0.014874
3893.5740, 0.015177
3895.5030, 0.014971
3897.4310, 0.015869
3899.3600, 0.015357
3901.2880, 0.014284
3903.2170, 0.015360
3905.1450, 0.015463
3907.0730, 0.015596
3909.0020, 0.015852
3910.9300, 0.014793
3912.8590, 0.013816
3914.7870, 0.015778
3916.7160, 0.016765
3918.6440, 0.015710
3920.5730, 0.015899
3922.5010, 0.015901
3924.4300, 0.015112
3926.3580, 0.014257
3928.2870, 0.014310
3930.2150, 0.015544
3932.1440, 0.016020
3934.0720, 0.015456
3936.0000, 0.015148
3937.9290, 0.015749
3939.8570, 0.017007
3941.7860, 0.017626
3943.7140, 0.016465
3945.6430, 0.015766
3947.5710, 0.016742
3949.5000, 0.015859
3951.4280, 0.015003
3953.3570, 0.015330
3955.2850, 0.015496
3957.2140, 0.015128
3959.1420, 0.014415
3961.0710, 0.013520
3962.9990, 0.014336
3964.9270, 0.017172
3966.8560, 0.017620
3968.7840, 0.014964
3970.7130, 0.015034
3972.6410, 0.015707
3974.5700, 0.015869
3976.4980, 0.017196
3978.4270, 0.016973
3980.3550, 0.016406
3982.2840, 0.016970
3984.2120, 0.016343
3986.1410, 0.015650
3988.0690, 0.015777
3989.9980, 0.016359
3991.9260, 0.016601
3993.8540, 0.015889
3995.7830, 0.016107
3997.7110, 0.017278
3999.6400, 0.017286
##END=



