##NAMES=Wavellite
##RRUFFID=R040176
##IDEAL CHEMISTRY=Al_3_(PO_4_)_2_(OH)_3_&#183;5H_2_O
##LOCALITY=Montgomery County, Arkansas, USA
##OWNER=RRUFF
##SOURCE=University of Arizona Mineral Museum
##DESCRIPTION=Pale green radial aggregates
##STATUS=The identification of this mineral has been confirmed by X-ray diffraction and chemical analysis
##URL=rruff.info/R040176
##MEASURED CHEMISTRY=(Al_0.88_V_0.03_)_3_(P_0.97_O_4_)_2_((OH)_1.74_F_0.26_)_3_Â·5H_2_O
399.1926, 0.165864
401.1211, 0.164775
403.0496, 0.165567
404.9780, 0.168354
406.9065, 0.172156
408.8350, 0.175852
410.7634, 0.179839
412.6919, 0.186431
414.6204, 0.188482
416.5488, 0.187851
418.4773, 0.192437
420.4058, 0.193861
422.3342, 0.193643
424.2627, 0.195631
426.1912, 0.195122
428.1196, 0.193433
430.0481, 0.194973
431.9766, 0.196624
433.9050, 0.197611
435.8335, 0.199695
437.7620, 0.201918
439.6904, 0.203641
441.6189, 0.203611
443.5474, 0.201696
445.4758, 0.200496
447.4043, 0.198810
449.3328, 0.196427
451.2612, 0.192637
453.1897, 0.189128
455.1182, 0.187324
457.0466, 0.185516
458.9751, 0.183616
460.9036, 0.182659
462.8320, 0.183839
464.7605, 0.186152
466.6890, 0.188209
468.6174, 0.189346
470.5459, 0.189817
472.4744, 0.189606
474.4028, 0.188143
476.3313, 0.187301
478.2598, 0.186646
480.1882, 0.184872
482.1167, 0.182449
484.0452, 0.180420
485.9736, 0.178748
487.9021, 0.176862
489.8306, 0.174157
491.7590, 0.171046
493.6875, 0.167552
495.6160, 0.163528
497.5444, 0.159333
499.4729, 0.155107
501.4014, 0.150742
503.3298, 0.146846
505.2583, 0.143590
507.1868, 0.141151
509.1152, 0.139841
511.0437, 0.140079
512.9722, 0.141412
514.9006, 0.143565
516.8291, 0.146713
518.7576, 0.150304
520.6860, 0.153215
522.6145, 0.155411
524.5430, 0.157583
526.4714, 0.159371
528.3999, 0.160208
530.3284, 0.160167
532.2568, 0.159774
534.1853, 0.159504
536.1138, 0.159546
538.0422, 0.159748
539.9707, 0.160060
541.8992, 0.160194
543.8276, 0.160657
545.7561, 0.161304
547.6846, 0.161059
549.6130, 0.160063
551.5415, 0.158483
553.4700, 0.156329
555.3984, 0.154147
557.3269, 0.151763
559.2554, 0.149889
561.1838, 0.148859
563.1123, 0.148059
565.0408, 0.147453
566.9692, 0.147350
568.8977, 0.147907
570.8262, 0.148458
572.7546, 0.150013
574.6831, 0.152477
576.6116, 0.154668
578.5400, 0.156812
580.4685, 0.159243
582.3970, 0.161791
584.3254, 0.164180
586.2539, 0.165682
588.1824, 0.166617
590.1108, 0.166323
592.0393, 0.164935
593.9678, 0.162779
595.8962, 0.160220
597.8247, 0.157842
599.7532, 0.156387
601.6816, 0.155244
603.6101, 0.154004
605.5386, 0.153697
607.4670, 0.154112
609.3955, 0.154420
611.3240, 0.154581
613.2524, 0.155285
615.1809, 0.156496
617.1094, 0.157767
619.0378, 0.159394
620.9663, 0.161069
622.8948, 0.162677
624.8232, 0.164406
626.7517, 0.166363
628.6802, 0.168666
630.6086, 0.170837
632.5371, 0.172864
634.4656, 0.174970
636.3940, 0.176911
638.3225, 0.177739
640.2510, 0.177589
642.1794, 0.176718
644.1079, 0.174490
646.0364, 0.171164
647.9648, 0.167829
649.8933, 0.164010
651.8218, 0.159640
653.7502, 0.155337
655.6787, 0.151301
657.6072, 0.147232
659.5356, 0.143144
661.4641, 0.139757
663.3926, 0.136420
665.3210, 0.133074
667.2495, 0.129737
669.1780, 0.126608
671.1064, 0.123238
673.0349, 0.119546
674.9634, 0.115880
676.8918, 0.111941
678.8203, 0.107713
680.7488, 0.103546
682.6772, 0.099401
684.6057, 0.095093
686.5342, 0.090940
688.4626, 0.087310
690.3911, 0.084057
692.3196, 0.080865
694.2480, 0.077856
696.1765, 0.075278
698.1050, 0.072900
700.0334, 0.070791
701.9619, 0.069050
703.8904, 0.067573
705.8188, 0.066014
707.7473, 0.064586
709.6758, 0.063295
711.6042, 0.062288
713.5327, 0.061627
715.4612, 0.060696
717.3896, 0.059889
719.3181, 0.059492
721.2466, 0.059221
723.1750, 0.059241
725.1035, 0.059230
727.0320, 0.058837
728.9604, 0.058834
730.8889, 0.059028
732.8174, 0.059011
734.7458, 0.058934
736.6743, 0.058736
738.6028, 0.058418
740.5313, 0.057956
742.4597, 0.057304
744.3882, 0.056640
746.3167, 0.055834
748.2451, 0.054841
750.1736, 0.053749
752.1021, 0.052887
754.0305, 0.052366
755.9590, 0.051642
757.8875, 0.050856
759.8159, 0.050223
761.7444, 0.049772
763.6729, 0.049619
765.6013, 0.049298
767.5298, 0.048942
769.4583, 0.048790
771.3867, 0.048712
773.3152, 0.048632
775.2437, 0.048757
777.1721, 0.048790
779.1006, 0.048842
781.0291, 0.048924
782.9575, 0.048869
784.8860, 0.048930
786.8145, 0.049080
788.7429, 0.049360
790.6714, 0.049909
792.5999, 0.050412
794.5283, 0.050939
796.4568, 0.051583
798.3853, 0.052487
800.3137, 0.053364
802.2422, 0.054070
804.1707, 0.055122
806.0991, 0.056377
808.0276, 0.057516
809.9561, 0.058619
811.8845, 0.059854
813.8130, 0.061012
815.7415, 0.061835
817.6699, 0.062668
819.5984, 0.063728
821.5269, 0.064714
823.4553, 0.065410
825.3838, 0.065955
827.3123, 0.066513
829.2407, 0.066830
831.1692, 0.067148
833.0977, 0.067709
835.0261, 0.068227
836.9546, 0.068821
838.8831, 0.069170
840.8115, 0.069525
842.7400, 0.070083
844.6685, 0.070441
846.5969, 0.070689
848.5254, 0.070838
850.4539, 0.071114
852.3823, 0.071237
854.3108, 0.071136
856.2393, 0.071113
858.1677, 0.070943
860.0962, 0.070572
862.0247, 0.070224
863.9531, 0.069505
865.8816, 0.068759
867.8101, 0.068208
869.7385, 0.067453
871.6670, 0.066519
873.5955, 0.065625
875.5239, 0.064831
877.4524, 0.063983
879.3809, 0.062948
881.3093, 0.062023
883.2378, 0.061058
885.1663, 0.060350
887.0947, 0.059800
889.0232, 0.059472
890.9517, 0.059276
892.8801, 0.059126
894.8085, 0.059330
896.7370, 0.059580
898.6655, 0.059822
900.5939, 0.060104
902.5224, 0.060782
904.4509, 0.061450
906.3793, 0.061923
908.3078, 0.062549
910.2363, 0.063258
912.1647, 0.064084
914.0932, 0.064827
916.0217, 0.065739
917.9501, 0.066586
919.8786, 0.067347
921.8071, 0.068154
923.7355, 0.068828
925.6640, 0.069373
927.5925, 0.070037
929.5209, 0.070632
931.4494, 0.071216
933.3779, 0.071570
935.3063, 0.071749
937.2348, 0.071995
939.1633, 0.072159
941.0917, 0.072286
943.0202, 0.072532
944.9487, 0.072705
946.8771, 0.073023
948.8056, 0.073524
950.7341, 0.073993
952.6625, 0.074681
954.5910, 0.075473
956.5195, 0.076486
958.4479, 0.077747
960.3764, 0.079216
962.3049, 0.081056
964.2333, 0.083160
966.1618, 0.085949
968.0903, 0.089386
970.0187, 0.092989
971.9472, 0.096677
973.8757, 0.100823
975.8041, 0.105623
977.7326, 0.111126
979.6611, 0.117524
981.5895, 0.124397
983.5180, 0.131701
985.4465, 0.139649
987.3749, 0.147981
989.3034, 0.156966
991.2319, 0.166833
993.1603, 0.177491
995.0888, 0.188806
997.0173, 0.201171
998.9457, 0.214250
1000.8740, 0.227451
1002.8030, 0.240156
1004.7310, 0.252028
1006.6600, 0.262363
1008.5880, 0.270938
1010.5170, 0.277210
1012.4450, 0.281287
1014.3730, 0.283429
1016.3020, 0.283767
1018.2300, 0.282748
1020.1590, 0.280687
1022.0870, 0.277753
1024.0160, 0.274832
1025.9440, 0.273276
1027.8730, 0.273618
1029.8010, 0.276396
1031.7300, 0.282118
1033.6580, 0.289879
1035.5870, 0.298460
1037.5150, 0.306589
1039.4440, 0.313485
1041.3720, 0.318822
1043.3010, 0.322429
1045.2290, 0.324598
1047.1570, 0.325236
1049.0860, 0.324076
1051.0140, 0.320547
1052.9430, 0.314499
1054.8710, 0.306763
1056.8000, 0.297668
1058.7280, 0.287569
1060.6570, 0.276732
1062.5850, 0.265685
1064.5140, 0.254767
1066.4420, 0.244362
1068.3710, 0.234659
1070.2990, 0.225304
1072.2280, 0.216175
1074.1560, 0.207375
1076.0840, 0.198964
1078.0130, 0.191007
1079.9410, 0.183454
1081.8700, 0.176354
1083.7980, 0.169354
1085.7270, 0.162689
1087.6550, 0.156630
1089.5840, 0.150905
1091.5120, 0.145287
1093.4410, 0.140137
1095.3690, 0.135072
1097.2980, 0.130296
1099.2260, 0.125729
1101.1550, 0.121106
1103.0830, 0.116491
1105.0110, 0.112075
1106.9400, 0.108021
1108.8680, 0.104395
1110.7970, 0.101017
1112.7250, 0.097933
1114.6540, 0.095328
1116.5820, 0.092821
1118.5110, 0.090215
1120.4390, 0.087530
1122.3680, 0.084933
1124.2960, 0.082242
1126.2250, 0.079430
1128.1530, 0.076658
1130.0820, 0.074155
1132.0100, 0.071860
1133.9380, 0.069810
1135.8670, 0.068539
1137.7950, 0.067916
1139.7240, 0.067634
1141.6520, 0.067520
1143.5810, 0.067174
1145.5090, 0.066419
1147.4380, 0.064836
1149.3660, 0.062389
1151.2950, 0.059216
1153.2230, 0.055769
1155.1520, 0.052209
1157.0800, 0.049024
1159.0090, 0.046671
1160.9370, 0.044790
1162.8650, 0.043005
1164.7940, 0.041364
1166.7220, 0.039744
1168.6510, 0.037746
1170.5790, 0.035294
1172.5080, 0.032841
1174.4360, 0.030574
1176.3650, 0.028668
1178.2930, 0.026956
1180.2220, 0.025333
1182.1500, 0.023930
1184.0790, 0.022722
1186.0070, 0.021704
1187.9360, 0.020893
1189.8640, 0.020176
1191.7920, 0.019626
1193.7210, 0.019008
1195.6490, 0.018246
1197.5780, 0.017628
1199.5060, 0.017174
1201.4350, 0.016843
1203.3630, 0.016427
1205.2920, 0.015988
1207.2200, 0.015676
1209.1490, 0.015428
1211.0770, 0.015049
1213.0060, 0.014681
1214.9340, 0.014317
1216.8630, 0.014024
1218.7910, 0.013621
1220.7190, 0.013283
1222.6480, 0.013073
1224.5760, 0.012893
1226.5050, 0.012642
1228.4330, 0.012412
1230.3620, 0.012250
1232.2900, 0.012003
1234.2190, 0.011849
1236.1470, 0.011599
1238.0760, 0.011348
1240.0040, 0.011201
1241.9330, 0.010903
1243.8610, 0.010665
1245.7900, 0.010621
1247.7180, 0.010604
1249.6460, 0.010480
1251.5750, 0.010269
1253.5030, 0.010263
1255.4320, 0.010201
1257.3600, 0.010093
1259.2890, 0.010004
1261.2170, 0.009901
1263.1460, 0.009814
1265.0740, 0.009692
1267.0030, 0.009602
1268.9310, 0.009502
1270.8600, 0.009405
1272.7880, 0.009458
1274.7170, 0.009445
1276.6450, 0.009336
1278.5730, 0.009270
1280.5020, 0.009219
1282.4300, 0.009236
1284.3590, 0.009199
1286.2870, 0.009138
1288.2160, 0.009120
1290.1440, 0.008987
1292.0730, 0.008926
1294.0010, 0.008830
1295.9300, 0.008710
1297.8580, 0.008717
1299.7870, 0.008735
1301.7150, 0.008529
1303.6440, 0.008455
1305.5720, 0.008528
1307.5000, 0.008506
1309.4290, 0.008337
1311.3570, 0.008182
1313.2860, 0.008219
1315.2140, 0.008138
1317.1430, 0.008128
1319.0710, 0.008330
1321.0000, 0.008401
1322.9280, 0.008320
1324.8570, 0.008165
1326.7850, 0.008024
1328.7140, 0.007999
1330.6420, 0.008050
1332.5710, 0.008008
1334.4990, 0.007906
1336.4270, 0.007930
1338.3560, 0.007898
1340.2840, 0.007879
1342.2130, 0.007998
1344.1410, 0.008001
1346.0700, 0.008039
1347.9980, 0.008049
1349.9270, 0.008131
1351.8550, 0.008172
1353.7840, 0.008024
1355.7120, 0.007930
1357.6410, 0.007929
1359.5690, 0.007983
1361.4980, 0.008125
1363.4260, 0.008286
1365.3540, 0.008216
1367.2830, 0.008054
1369.2110, 0.008101
1371.1400, 0.008114
1373.0680, 0.008115
1374.9970, 0.008281
1376.9250, 0.008457
1378.8540, 0.008418
1380.7820, 0.008349
1382.7110, 0.008454
1384.6390, 0.008534
1386.5680, 0.008648
1388.4960, 0.008675
1390.4240, 0.008553
1392.3530, 0.008605
1394.2810, 0.008665
1396.2100, 0.008746
1398.1380, 0.008740
1400.0670, 0.008790
1401.9950, 0.008851
1403.9240, 0.008971
1405.8520, 0.009258
1407.7810, 0.009373
1409.7090, 0.009352
1411.6380, 0.009395
1413.5660, 0.009497
1415.4950, 0.009501
1417.4230, 0.009576
1419.3510, 0.009798
1421.2800, 0.009769
1423.2080, 0.009673
1425.1370, 0.009878
1427.0650, 0.010082
1428.9940, 0.010080
1430.9220, 0.010071
1432.8510, 0.010135
1434.7790, 0.010164
1436.7080, 0.010342
1438.6360, 0.010433
1440.5650, 0.010466
1442.4930, 0.010486
1444.4220, 0.010617
1446.3500, 0.010648
1448.2780, 0.010617
1450.2070, 0.010860
1452.1350, 0.010937
1454.0640, 0.010886
1455.9920, 0.010930
1457.9210, 0.011083
1459.8490, 0.011174
1461.7780, 0.011121
1463.7060, 0.011191
1465.6350, 0.011412
1467.5630, 0.011407
1469.4920, 0.011235
1471.4200, 0.011214
1473.3490, 0.011341
1475.2770, 0.011298
1477.2050, 0.011230
1479.1340, 0.011305
1481.0620, 0.011479
1482.9910, 0.011661
1484.9190, 0.011558
1486.8480, 0.011433
1488.7760, 0.011451
1490.7050, 0.011666
1492.6330, 0.011741
1494.5620, 0.011774
1496.4900, 0.011983
1498.4190, 0.012391
1500.3470, 0.012671
1502.2760, 0.012754
1504.2040, 0.012939
1506.1320, 0.013191
1508.0610, 0.013322
1509.9890, 0.013349
1511.9180, 0.013464
1513.8460, 0.013586
1515.7750, 0.013774
1517.7030, 0.014147
1519.6320, 0.014616
1521.5600, 0.014854
1523.4890, 0.015085
1525.4170, 0.015273
1527.3460, 0.015397
1529.2740, 0.015714
1531.2030, 0.016272
1533.1310, 0.016527
1535.0590, 0.016785
1536.9880, 0.017110
1538.9160, 0.017413
1540.8450, 0.017665
1542.7730, 0.018105
1544.7020, 0.018732
1546.6300, 0.019227
1548.5590, 0.019652
1550.4870, 0.020122
1552.4160, 0.020482
1554.3440, 0.020858
1556.2730, 0.021439
1558.2010, 0.022125
1560.1300, 0.022678
1562.0580, 0.023034
1563.9860, 0.023601
1565.9150, 0.024168
1567.8430, 0.024584
1569.7720, 0.024958
1571.7000, 0.025378
1573.6290, 0.025906
1575.5570, 0.026328
1577.4860, 0.026610
1579.4140, 0.026800
1581.3430, 0.026981
1583.2710, 0.027227
1585.2000, 0.027433
1587.1280, 0.027729
1589.0570, 0.028027
1590.9850, 0.028076
1592.9130, 0.028073
1594.8420, 0.028267
1596.7700, 0.028507
1598.6990, 0.028601
1600.6270, 0.028547
1602.5560, 0.028636
1604.4840, 0.028796
1606.4130, 0.029052
1608.3410, 0.029279
1610.2700, 0.029531
1612.1980, 0.029838
1614.1270, 0.030381
1616.0550, 0.030994
1617.9840, 0.031523
1619.9120, 0.032130
1621.8400, 0.032711
1623.7690, 0.033436
1625.6970, 0.034082
1627.6260, 0.034479
1629.5540, 0.034908
1631.4830, 0.035287
1633.4110, 0.035425
1635.3400, 0.035382
1637.2680, 0.035097
1639.1970, 0.034723
1641.1250, 0.034431
1643.0540, 0.033972
1644.9820, 0.033396
1646.9110, 0.032854
1648.8390, 0.032282
1650.7670, 0.031544
1652.6960, 0.030918
1654.6240, 0.029985
1656.5530, 0.028893
1658.4810, 0.028001
1660.4100, 0.027006
1662.3380, 0.025898
1664.2670, 0.024951
1666.1950, 0.023920
1668.1240, 0.022959
1670.0520, 0.022134
1671.9810, 0.021396
1673.9090, 0.020508
1675.8380, 0.019560
1677.7660, 0.018703
1679.6940, 0.018022
1681.6230, 0.017438
1683.5510, 0.016800
1685.4800, 0.016121
1687.4080, 0.015694
1689.3370, 0.015194
1691.2650, 0.014600
1693.1940, 0.014115
1695.1220, 0.013763
1697.0510, 0.013348
1698.9790, 0.012990
1700.9080, 0.012763
1702.8360, 0.012538
1704.7650, 0.012116
1706.6930, 0.011738
1708.6210, 0.011468
1710.5500, 0.011274
1712.4780, 0.010871
1714.4070, 0.010695
1716.3350, 0.010571
1718.2640, 0.010449
1720.1920, 0.010234
1722.1210, 0.009830
1724.0490, 0.009595
1725.9780, 0.009560
1727.9060, 0.009467
1729.8350, 0.009146
1731.7630, 0.009016
1733.6920, 0.009071
1735.6200, 0.008976
1737.5480, 0.009062
1739.4770, 0.009077
1741.4050, 0.009072
1743.3340, 0.008848
1745.2620, 0.008548
1747.1910, 0.008399
1749.1190, 0.008268
1751.0480, 0.008178
1752.9760, 0.008049
1754.9050, 0.007974
1756.8330, 0.008070
1758.7620, 0.008086
1760.6900, 0.007966
1762.6190, 0.007856
1764.5470, 0.007667
1766.4750, 0.007777
1768.4040, 0.007822
1770.3320, 0.007765
1772.2610, 0.007820
1774.1890, 0.007749
1776.1180, 0.007819
1778.0460, 0.008077
1779.9750, 0.008049
1781.9030, 0.008110
1783.8320, 0.007895
1785.7600, 0.007463
1787.6890, 0.007309
1789.6170, 0.007456
1791.5460, 0.007627
1793.4740, 0.007375
1795.4020, 0.007161
1797.3310, 0.007333
1799.2590, 0.007250
1801.1880, 0.007347
1803.1160, 0.007240
1805.0450, 0.006965
1806.9730, 0.007302
1808.9020, 0.007436
1810.8300, 0.007207
1812.7590, 0.006861
1814.6870, 0.006748
1816.6160, 0.007066
1818.5440, 0.007243
1820.4730, 0.007278
1822.4010, 0.007528
1824.3290, 0.007211
1826.2580, 0.006790
1828.1860, 0.006717
1830.1150, 0.007171
1832.0430, 0.007211
1833.9720, 0.007234
1835.9000, 0.007238
1837.8290, 0.006956
1839.7570, 0.007170
1841.6860, 0.007124
1843.6140, 0.006775
1845.5430, 0.006806
1847.4710, 0.007017
1849.4000, 0.007407
1851.3280, 0.007308
1853.2560, 0.006976
1855.1850, 0.006865
1857.1130, 0.007089
1859.0420, 0.006966
1860.9700, 0.006975
1862.8990, 0.006940
1864.8270, 0.006947
1866.7560, 0.007064
1868.6840, 0.006593
1870.6130, 0.006379
1872.5410, 0.006457
1874.4700, 0.006524
1876.3980, 0.006915
1878.3270, 0.006843
1880.2550, 0.006427
1882.1830, 0.006533
1884.1120, 0.006589
1886.0400, 0.006565
1887.9690, 0.006484
1889.8970, 0.006202
1891.8260, 0.006719
1893.7540, 0.007257
1895.6830, 0.006990
1897.6110, 0.006983
1899.5400, 0.007032
1901.4680, 0.007105
1903.3970, 0.006741
1905.3250, 0.006259
1907.2540, 0.006250
1909.1820, 0.006244
1911.1100, 0.005867
1913.0390, 0.005672
1914.9670, 0.005627
1916.8960, 0.005333
1918.8240, 0.005422
1920.7530, 0.005517
1922.6810, 0.005233
1924.6100, 0.005191
1926.5380, 0.005119
1928.4670, 0.004973
1930.3950, 0.005793
1932.3240, 0.006490
1934.2520, 0.006538
1936.1810, 0.005054
1938.1090, 0.004196
1940.0370, 0.003732
1941.9660, 0.003410
1943.8940, 0.003926
1945.8230, 0.005176
1947.7510, 0.005317
1949.6800, 0.005128
1951.6080, 0.004802
1953.5370, 0.004321
1955.4650, 0.004007
1957.3940, 0.002668
1959.3220, 0.003008
1961.2510, 0.004252
1963.1790, 0.004006
1965.1080, 0.003564
1967.0360, 0.002010
1968.9640, 0.000273
1970.8930, 0.000870
1972.8210, 0.002229
1974.7500, 0.001525
1976.6780, 0.001126
1978.6070, 0.002244
1980.5350, 0.002716
1982.4640, 0.002336
1984.3920, 0.003073
1986.3210, 0.003315
1988.2490, 0.003002
1990.1780, 0.004099
1992.1060, 0.004078
1994.0350, 0.002295
1995.9630, 0.001442
1997.8910, 0.001426
1999.8200, 0.001758
2001.7480, 0.001404
2003.6770, 0.000425
2005.6050, 0.000923
2007.5340, 0.001256
2009.4620, 0.000136
2011.3910, -0.000710
2013.3190, -0.001653
2015.2480, -0.001423
2017.1760, -0.001042
2019.1050, 0.000243
2021.0330, -0.000856
2022.9620, -0.001796
2024.8900, -0.000635
2026.8180, 0.000327
2028.7470, -0.001297
2030.6750, -0.001260
2032.6040, 0.000381
2034.5320, 0.001728
2036.4610, 0.001676
2038.3890, 0.001153
2040.3180, 0.000893
2042.2460, 0.001283
2044.1750, 0.002577
2046.1030, 0.003225
2048.0320, 0.002927
2049.9600, 0.003527
2051.8890, 0.002704
2053.8170, 0.002128
2055.7460, 0.002684
2057.6740, 0.004103
2059.6030, 0.005370
2061.5310, 0.004815
2063.4590, 0.004362
2065.3880, 0.004264
2067.3160, 0.004149
2069.2450, 0.004542
2071.1730, 0.004594
2073.1020, 0.004249
2075.0300, 0.004209
2076.9590, 0.004262
2078.8870, 0.004822
2080.8160, 0.004966
2082.7440, 0.005210
2084.6730, 0.005669
2086.6010, 0.005926
2088.5300, 0.005858
2090.4580, 0.005676
2092.3860, 0.004324
2094.3150, 0.003834
2096.2430, 0.004125
2098.1720, 0.004094
2100.1000, 0.004954
2102.0290, 0.005437
2103.9570, 0.004830
2105.8860, 0.004963
2107.8140, 0.005552
2109.7430, 0.004735
2111.6710, 0.004824
2113.6000, 0.005462
2115.5280, 0.005545
2117.4570, 0.005351
2119.3850, 0.004695
2121.3130, 0.004776
2123.2420, 0.005279
2125.1700, 0.004919
2127.0990, 0.004369
2129.0270, 0.004369
2130.9560, 0.003554
2132.8840, 0.002253
2134.8130, 0.002059
2136.7410, 0.002857
2138.6700, 0.003183
2140.5980, 0.002835
2142.5270, 0.002024
2144.4550, 0.001323
2146.3840, 0.001475
2148.3120, 0.001467
2150.2400, 0.001491
2152.1690, 0.000979
2154.0970, -0.001060
2156.0260, -0.003819
2157.9540, -0.003082
2159.8830, 0.001013
2161.8110, 0.002786
2163.7400, 0.003604
2165.6680, 0.004060
2167.5970, 0.003688
2169.5250, 0.003375
2171.4540, 0.003950
2173.3820, 0.002718
2175.3110, 0.003479
2177.2390, 0.004686
2179.1670, 0.004079
2181.0960, 0.003200
2183.0240, 0.004154
2184.9530, 0.004687
2186.8810, 0.003985
2188.8100, 0.003801
2190.7380, 0.006219
2192.6670, 0.006994
2194.5950, 0.006254
2196.5240, 0.005907
2198.4520, 0.006699
2200.3810, 0.007227
2202.3090, 0.007585
2204.2380, 0.007727
2206.1660, 0.007495
2208.0940, 0.007668
2210.0230, 0.007744
2211.9510, 0.007291
2213.8800, 0.006748
2215.8080, 0.006865
2217.7370, 0.007463
2219.6650, 0.007855
2221.5940, 0.007771
2223.5220, 0.007950
2225.4510, 0.008658
2227.3790, 0.009091
2229.3080, 0.009655
2231.2360, 0.009596
2233.1650, 0.009588
2235.0930, 0.009615
2237.0210, 0.009086
2238.9500, 0.007937
2240.8780, 0.007867
2242.8070, 0.008308
2244.7350, 0.008004
2246.6640, 0.008123
2248.5920, 0.008161
2250.5210, 0.007810
2252.4490, 0.008149
2254.3780, 0.009177
2256.3060, 0.010292
2258.2350, 0.010158
2260.1630, 0.009269
2262.0920, 0.009435
2264.0200, 0.009749
2265.9480, 0.010016
2267.8770, 0.010627
2269.8050, 0.011134
2271.7340, 0.011097
2273.6620, 0.010579
2275.5910, 0.010699
2277.5190, 0.010950
2279.4480, 0.010836
2281.3760, 0.011899
2283.3050, 0.012791
2285.2330, 0.011459
2287.1620, 0.010613
2289.0900, 0.010761
2291.0190, 0.011325
2292.9470, 0.011790
2294.8750, 0.012081
2296.8040, 0.012246
2298.7320, 0.011822
2300.6610, 0.011275
2302.5890, 0.010974
2304.5180, 0.011113
2306.4460, 0.011429
2308.3750, 0.012430
2310.3030, 0.012502
2312.2320, 0.011912
2314.1600, 0.011646
2316.0890, 0.012136
2318.0170, 0.012177
2319.9460, 0.012421
2321.8740, 0.013263
2323.8020, 0.013254
2325.7310, 0.012219
2327.6590, 0.011964
2329.5880, 0.012304
2331.5160, 0.012131
2333.4450, 0.011688
2335.3730, 0.011224
2337.3020, 0.011359
2339.2300, 0.011526
2341.1590, 0.011592
2343.0870, 0.011354
2345.0160, 0.011441
2346.9440, 0.011651
2348.8730, 0.011794
2350.8010, 0.011906
2352.7290, 0.011660
2354.6580, 0.011578
2356.5860, 0.011503
2358.5150, 0.011280
2360.4430, 0.011271
2362.3720, 0.011041
2364.3000, 0.010496
2366.2290, 0.010877
2368.1570, 0.011401
2370.0860, 0.011430
2372.0140, 0.011489
2373.9420, 0.011598
2375.8710, 0.011681
2377.7990, 0.011630
2379.7280, 0.011470
2381.6560, 0.011347
2383.5850, 0.011426
2385.5130, 0.012025
2387.4420, 0.011902
2389.3700, 0.011248
2391.2990, 0.011459
2393.2270, 0.011875
2395.1560, 0.011461
2397.0840, 0.011417
2399.0120, 0.011907
2400.9410, 0.012084
2402.8690, 0.011590
2404.7980, 0.011374
2406.7260, 0.011812
2408.6550, 0.011899
2410.5830, 0.011902
2412.5120, 0.011865
2414.4400, 0.011808
2416.3690, 0.011712
2418.2970, 0.012135
2420.2260, 0.012869
2422.1540, 0.013142
2424.0830, 0.012928
2426.0110, 0.012237
2427.9390, 0.011908
2429.8680, 0.012207
2431.7960, 0.012163
2433.7250, 0.012017
2435.6530, 0.012496
2437.5820, 0.012648
2439.5100, 0.012592
2441.4390, 0.012820
2443.3670, 0.013153
2445.2960, 0.013306
2447.2240, 0.013692
2449.1530, 0.014232
2451.0810, 0.014008
2453.0100, 0.012986
2454.9380, 0.012323
2456.8660, 0.012745
2458.7950, 0.012773
2460.7230, 0.012459
2462.6520, 0.012530
2464.5800, 0.012666
2466.5090, 0.012615
2468.4370, 0.012876
2470.3660, 0.012927
2472.2940, 0.013184
2474.2230, 0.013157
2476.1510, 0.012926
2478.0800, 0.013163
2480.0080, 0.013367
2481.9370, 0.013317
2483.8650, 0.013279
2485.7930, 0.013252
2487.7220, 0.013240
2489.6500, 0.013332
2491.5790, 0.013099
2493.5070, 0.013003
2495.4360, 0.013388
2497.3640, 0.013050
2499.2930, 0.012646
2501.2210, 0.012923
2503.1500, 0.012990
2505.0780, 0.013078
2507.0070, 0.013092
2508.9350, 0.013362
2510.8640, 0.013423
2512.7920, 0.013131
2514.7200, 0.013366
2516.6490, 0.013717
2518.5770, 0.013428
2520.5060, 0.013323
2522.4340, 0.013576
2524.3630, 0.013549
2526.2910, 0.013221
2528.2200, 0.012804
2530.1480, 0.012436
2532.0770, 0.012864
2534.0050, 0.013088
2535.9340, 0.013125
2537.8620, 0.013638
2539.7910, 0.013832
2541.7190, 0.013852
2543.6470, 0.014110
2545.5760, 0.013764
2547.5040, 0.013630
2549.4330, 0.013705
2551.3610, 0.013744
2553.2900, 0.014096
2555.2180, 0.014345
2557.1470, 0.014188
2559.0750, 0.014314
2561.0040, 0.014345
2562.9320, 0.014432
2564.8610, 0.014550
2566.7890, 0.014948
2568.7180, 0.015073
2570.6460, 0.015256
2572.5740, 0.015423
2574.5030, 0.015072
2576.4310, 0.014610
2578.3600, 0.014494
2580.2880, 0.015056
2582.2170, 0.015821
2584.1450, 0.015267
2586.0740, 0.014915
2588.0020, 0.014952
2589.9310, 0.015211
2591.8590, 0.015827
2593.7880, 0.016071
2595.7160, 0.015664
2597.6450, 0.015315
2599.5730, 0.015345
2601.5010, 0.015458
2603.4300, 0.015696
2605.3580, 0.015890
2607.2870, 0.015813
2609.2150, 0.015660
2611.1440, 0.015888
2613.0720, 0.015896
2615.0010, 0.016333
2616.9290, 0.016204
2618.8580, 0.016260
2620.7860, 0.016949
2622.7150, 0.017345
2624.6430, 0.016962
2626.5720, 0.017179
2628.5000, 0.017070
2630.4280, 0.017353
2632.3570, 0.017506
2634.2850, 0.017316
2636.2140, 0.017644
2638.1420, 0.017796
2640.0710, 0.017716
2641.9990, 0.017648
2643.9280, 0.017574
2645.8560, 0.017691
2647.7850, 0.018421
2649.7130, 0.018865
2651.6420, 0.018153
2653.5700, 0.017993
2655.4990, 0.018565
2657.4270, 0.018836
2659.3550, 0.018768
2661.2840, 0.018353
2663.2120, 0.018214
2665.1410, 0.018299
2667.0690, 0.018509
2668.9980, 0.018753
2670.9260, 0.018445
2672.8550, 0.018650
2674.7830, 0.019065
2676.7120, 0.019335
2678.6400, 0.019262
2680.5690, 0.018804
2682.4970, 0.018489
2684.4260, 0.018808
2686.3540, 0.019171
2688.2820, 0.019337
2690.2110, 0.019423
2692.1390, 0.019096
2694.0680, 0.019254
2695.9960, 0.019715
2697.9250, 0.019923
2699.8530, 0.019850
2701.7820, 0.020185
2703.7100, 0.020578
2705.6390, 0.020915
2707.5670, 0.020959
2709.4960, 0.020868
2711.4240, 0.021004
2713.3530, 0.021368
2715.2810, 0.021851
2717.2090, 0.021871
2719.1380, 0.021694
2721.0660, 0.021508
2722.9950, 0.021646
2724.9230, 0.022004
2726.8520, 0.022172
2728.7800, 0.022357
2730.7090, 0.022458
2732.6370, 0.022492
2734.5660, 0.022613
2736.4940, 0.022408
2738.4230, 0.022301
2740.3510, 0.023002
2742.2800, 0.024074
2744.2080, 0.024398
2746.1360, 0.024212
2748.0650, 0.023961
2749.9930, 0.024024
2751.9220, 0.024562
2753.8500, 0.024919
2755.7790, 0.024824
2757.7070, 0.024677
2759.6360, 0.024702
2761.5640, 0.024812
2763.4930, 0.025170
2765.4210, 0.025538
2767.3500, 0.025839
2769.2780, 0.026242
2771.2070, 0.026649
2773.1350, 0.026319
2775.0630, 0.026321
2776.9920, 0.026710
2778.9200, 0.026599
2780.8490, 0.026709
2782.7770, 0.027239
2784.7060, 0.027530
2786.6340, 0.027411
2788.5630, 0.027690
2790.4910, 0.027604
2792.4200, 0.027462
2794.3480, 0.028250
2796.2770, 0.028747
2798.2050, 0.028890
2800.1340, 0.028735
2802.0620, 0.028777
2803.9900, 0.029342
2805.9190, 0.029653
2807.8470, 0.029271
2809.7760, 0.029422
2811.7040, 0.029841
2813.6330, 0.030213
2815.5610, 0.030889
2817.4900, 0.031420
2819.4180, 0.031157
2821.3470, 0.030954
2823.2750, 0.031260
2825.2040, 0.031699
2827.1320, 0.031774
2829.0610, 0.032191
2830.9890, 0.032584
2832.9170, 0.032986
2834.8460, 0.033156
2836.7740, 0.032952
2838.7030, 0.033297
2840.6310, 0.033397
2842.5600, 0.033417
2844.4880, 0.033798
2846.4170, 0.034072
2848.3450, 0.034026
2850.2740, 0.034662
2852.2020, 0.035458
2854.1310, 0.035980
2856.0590, 0.036181
2857.9880, 0.036411
2859.9160, 0.036349
2861.8440, 0.036303
2863.7730, 0.036744
2865.7010, 0.037044
2867.6300, 0.037101
2869.5580, 0.037383
2871.4870, 0.037596
2873.4150, 0.037993
2875.3440, 0.038305
2877.2720, 0.038492
2879.2010, 0.038792
2881.1290, 0.039455
2883.0580, 0.039776
2884.9860, 0.039739
2886.9150, 0.040198
2888.8430, 0.040199
2890.7710, 0.040033
2892.7000, 0.040385
2894.6280, 0.040919
2896.5570, 0.041064
2898.4850, 0.041468
2900.4140, 0.042387
2902.3420, 0.042649
2904.2710, 0.041789
2906.1990, 0.042458
2908.1280, 0.043356
2910.0560, 0.043647
2911.9850, 0.044043
2913.9130, 0.044883
2915.8420, 0.044628
2917.7700, 0.044812
2919.6980, 0.045254
2921.6270, 0.044934
2923.5550, 0.044684
2925.4840, 0.045434
2927.4120, 0.046155
2929.3410, 0.046619
2931.2690, 0.047418
2933.1980, 0.047838
2935.1260, 0.048029
2937.0550, 0.048127
2938.9830, 0.048490
2940.9120, 0.048470
2942.8400, 0.048513
2944.7690, 0.048661
2946.6970, 0.049154
2948.6250, 0.049952
2950.5540, 0.050357
2952.4820, 0.050971
2954.4110, 0.051285
2956.3390, 0.051353
2958.2680, 0.052084
2960.1960, 0.052155
2962.1250, 0.052006
2964.0530, 0.052021
2965.9820, 0.052783
2967.9100, 0.053536
2969.8390, 0.053712
2971.7670, 0.054374
2973.6960, 0.054740
2975.6240, 0.055011
2977.5520, 0.055617
2979.4810, 0.056230
2981.4090, 0.056508
2983.3380, 0.056966
2985.2660, 0.057609
2987.1950, 0.057831
2989.1230, 0.058425
2991.0520, 0.058973
2992.9800, 0.059311
2994.9090, 0.059109
2996.8370, 0.059238
2998.7660, 0.059378
3000.6940, 0.059430
3002.6230, 0.060520
3004.5510, 0.061133
3006.4790, 0.062053
3008.4080, 0.063102
3010.3360, 0.063421
3012.2650, 0.063356
3014.1930, 0.063906
3016.1220, 0.064145
3018.0500, 0.064039
3019.9790, 0.064500
3021.9070, 0.065440
3023.8360, 0.066207
3025.7640, 0.066662
3027.6930, 0.066835
3029.6210, 0.067127
3031.5500, 0.067523
3033.4780, 0.068299
3035.4060, 0.068613
3037.3350, 0.068969
3039.2630, 0.069574
3041.1920, 0.069803
3043.1200, 0.069568
3045.0490, 0.069625
3046.9770, 0.070196
3048.9060, 0.070842
3050.8340, 0.071396
3052.7630, 0.071610
3054.6910, 0.072355
3056.6200, 0.072619
3058.5480, 0.072744
3060.4770, 0.072679
3062.4050, 0.072940
3064.3330, 0.073354
3066.2620, 0.072788
3068.1900, 0.072942
3070.1190, 0.073500
3072.0470, 0.073403
3073.9760, 0.073474
3075.9040, 0.073826
3077.8330, 0.073813
3079.7610, 0.073898
3081.6900, 0.074647
3083.6180, 0.075010
3085.5470, 0.075302
3087.4750, 0.075143
3089.4040, 0.075179
3091.3320, 0.075283
3093.2600, 0.074763
3095.1890, 0.074232
3097.1170, 0.074447
3099.0460, 0.075034
3100.9740, 0.075074
3102.9030, 0.074784
3104.8310, 0.074530
3106.7600, 0.074511
3108.6880, 0.075352
3110.6170, 0.075634
3112.5450, 0.075179
3114.4740, 0.075415
3116.4020, 0.074485
3118.3310, 0.074239
3120.2590, 0.075011
3122.1880, 0.075386
3124.1160, 0.075728
3126.0440, 0.075421
3127.9730, 0.074323
3129.9010, 0.073629
3131.8300, 0.074637
3133.7580, 0.075903
3135.6870, 0.076311
3137.6150, 0.075741
3139.5440, 0.074708
3141.4720, 0.074294
3143.4010, 0.075119
3145.3290, 0.076185
3147.2580, 0.076620
3149.1860, 0.076896
3151.1150, 0.076966
3153.0430, 0.077461
3154.9710, 0.077641
3156.9000, 0.077415
3158.8280, 0.076937
3160.7570, 0.077232
3162.6850, 0.077907
3164.6140, 0.078224
3166.5420, 0.077982
3168.4710, 0.077987
3170.3990, 0.078172
3172.3280, 0.077897
3174.2560, 0.078540
3176.1850, 0.078681
3178.1130, 0.078683
3180.0420, 0.078915
3181.9700, 0.078970
3183.8980, 0.079058
3185.8270, 0.078428
3187.7550, 0.078279
3189.6840, 0.079103
3191.6120, 0.079801
3193.5410, 0.079824
3195.4690, 0.079271
3197.3980, 0.079103
3199.3260, 0.078941
3201.2550, 0.079508
3203.1830, 0.079680
3205.1120, 0.079554
3207.0400, 0.079496
3208.9690, 0.079406
3210.8970, 0.079426
3212.8250, 0.078880
3214.7540, 0.078885
3216.6820, 0.079770
3218.6110, 0.079923
3220.5390, 0.079250
3222.4680, 0.078046
3224.3960, 0.077263
3226.3250, 0.076848
3228.2530, 0.078010
3230.1820, 0.078797
3232.1100, 0.078461
3234.0390, 0.077656
3235.9670, 0.076975
3237.8960, 0.077365
3239.8240, 0.077489
3241.7520, 0.077599
3243.6810, 0.077224
3245.6090, 0.076930
3247.5380, 0.076902
3249.4660, 0.076873
3251.3950, 0.076382
3253.3230, 0.076473
3255.2520, 0.076958
3257.1800, 0.077015
3259.1090, 0.076700
3261.0370, 0.076152
3262.9660, 0.076254
3264.8940, 0.075817
3266.8230, 0.075674
3268.7510, 0.075696
3270.6790, 0.075618
3272.6080, 0.075951
3274.5360, 0.075719
3276.4650, 0.075409
3278.3930, 0.075717
3280.3220, 0.075503
3282.2500, 0.075300
3284.1790, 0.074629
3286.1070, 0.073495
3288.0360, 0.073717
3289.9640, 0.075556
3291.8930, 0.075562
3293.8210, 0.075163
3295.7500, 0.074964
3297.6780, 0.074368
3299.6060, 0.074273
3301.5350, 0.074480
3303.4630, 0.074417
3305.3920, 0.075136
3307.3200, 0.074894
3309.2490, 0.074164
3311.1770, 0.074854
3313.1060, 0.074641
3315.0340, 0.073937
3316.9630, 0.074704
3318.8910, 0.074969
3320.8200, 0.074017
3322.7480, 0.073350
3324.6770, 0.073242
3326.6050, 0.073499
3328.5330, 0.073551
3330.4620, 0.072914
3332.3900, 0.072324
3334.3190, 0.072284
3336.2470, 0.072671
3338.1760, 0.073582
3340.1040, 0.073500
3342.0330, 0.072753
3343.9610, 0.072766
3345.8900, 0.072426
3347.8180, 0.072286
3349.7470, 0.071739
3351.6750, 0.071760
3353.6040, 0.071660
3355.5320, 0.070761
3357.4600, 0.070707
3359.3890, 0.071475
3361.3170, 0.072167
3363.2460, 0.071809
3365.1740, 0.070835
3367.1030, 0.070198
3369.0310, 0.069929
3370.9600, 0.069866
3372.8880, 0.070391
3374.8170, 0.070609
3376.7450, 0.070752
3378.6740, 0.070925
3380.6020, 0.071293
3382.5310, 0.071373
3384.4590, 0.071101
3386.3870, 0.070756
3388.3160, 0.070859
3390.2440, 0.071476
3392.1730, 0.071067
3394.1010, 0.071679
3396.0300, 0.072432
3397.9580, 0.072298
3399.8870, 0.072233
3401.8150, 0.072601
3403.7440, 0.073010
3405.6720, 0.072961
3407.6010, 0.073638
3409.5290, 0.073838
3411.4580, 0.073027
3413.3860, 0.073439
3415.3140, 0.074691
3417.2430, 0.074022
3419.1710, 0.073044
3421.1000, 0.073472
3423.0280, 0.073437
3424.9570, 0.072564
3426.8850, 0.073109
3428.8140, 0.074019
3430.7420, 0.074062
3432.6710, 0.072980
3434.5990, 0.072349
3436.5280, 0.073188
3438.4560, 0.074409
3440.3850, 0.074323
3442.3130, 0.073931
3444.2410, 0.073938
3446.1700, 0.073785
3448.0980, 0.073566
3450.0270, 0.073549
3451.9550, 0.074755
3453.8840, 0.075617
3455.8120, 0.076577
3457.7410, 0.077606
3459.6690, 0.078066
3461.5980, 0.078561
3463.5260, 0.079726
3465.4550, 0.081535
3467.3830, 0.082372
3469.3120, 0.083035
3471.2400, 0.084180
3473.1680, 0.086402
3475.0970, 0.088580
3477.0250, 0.090462
3478.9540, 0.092947
3480.8820, 0.096763
3482.8110, 0.099121
3484.7390, 0.101272
3486.6680, 0.103354
3488.5960, 0.104963
3490.5250, 0.107330
3492.4530, 0.109781
3494.3820, 0.112654
3496.3100, 0.114803
3498.2390, 0.115950
3500.1670, 0.117298
3502.0950, 0.118897
3504.0240, 0.120286
3505.9520, 0.121656
3507.8810, 0.122509
3509.8090, 0.122140
3511.7380, 0.121550
3513.6660, 0.120343
3515.5950, 0.119745
3517.5230, 0.118633
3519.4520, 0.116106
3521.3800, 0.112852
3523.3090, 0.110400
3525.2370, 0.107426
3527.1660, 0.102550
3529.0940, 0.098777
3531.0220, 0.095768
3532.9510, 0.091277
3534.8790, 0.085850
3536.8080, 0.081452
3538.7360, 0.077232
3540.6650, 0.072897
3542.5930, 0.069021
3544.5220, 0.065098
3546.4500, 0.060464
3548.3790, 0.057523
3550.3070, 0.055101
3552.2360, 0.051586
3554.1640, 0.048653
3556.0930, 0.046937
3558.0210, 0.045265
3559.9490, 0.043362
3561.8780, 0.040905
3563.8060, 0.038840
3565.7350, 0.037228
3567.6630, 0.036124
3569.5920, 0.035009
3571.5200, 0.032684
3573.4490, 0.030072
3575.3770, 0.028668
3577.3060, 0.027327
3579.2340, 0.026709
3581.1630, 0.026523
3583.0910, 0.025165
3585.0200, 0.022769
3586.9480, 0.022608
3588.8760, 0.022684
3590.8050, 0.022743
3592.7330, 0.022826
3594.6620, 0.021594
3596.5900, 0.020389
3598.5190, 0.020733
3600.4470, 0.019946
3602.3760, 0.018197
3604.3040, 0.016763
3606.2330, 0.015779
3608.1610, 0.016096
3610.0900, 0.015821
3612.0180, 0.015098
3613.9470, 0.014669
3615.8750, 0.014720
3617.8030, 0.013799
3619.7320, 0.013010
3621.6600, 0.013351
3623.5890, 0.014368
3625.5170, 0.014457
3627.4460, 0.012745
3629.3740, 0.011415
3631.3030, 0.011501
3633.2310, 0.010766
3635.1600, 0.012010
3637.0880, 0.012862
3639.0170, 0.012029
3640.9450, 0.010539
3642.8740, 0.008808
3644.8020, 0.008118
3646.7300, 0.007370
3648.6590, 0.007106
3650.5870, 0.007525
3652.5160, 0.007234
3654.4440, 0.007608
3656.3730, 0.008046
3658.3010, 0.008757
3660.2300, 0.009169
3662.1580, 0.008201
3664.0870, 0.006758
3666.0150, 0.006548
3667.9440, 0.005504
3669.8720, 0.005612
3671.8010, 0.008215
3673.7290, 0.008432
3675.6570, 0.008143
3677.5860, 0.007970
3679.5140, 0.006620
3681.4430, 0.006235
3683.3710, 0.005484
3685.3000, 0.005156
3687.2280, 0.004611
3689.1570, 0.004086
3691.0850, 0.006334
3693.0140, 0.007725
3694.9420, 0.006850
3696.8710, 0.006004
3698.7990, 0.004887
3700.7280, 0.004284
3702.6560, 0.005276
3704.5840, 0.005738
3706.5130, 0.004692
3708.4410, 0.003874
3710.3700, 0.004536
3712.2980, 0.005414
3714.2270, 0.003963
3716.1550, 0.003447
3718.0840, 0.004545
3720.0120, 0.004887
3721.9410, 0.005312
3723.8690, 0.005919
3725.7980, 0.005799
3727.7260, 0.005252
3729.6550, 0.004727
3731.5830, 0.005113
3733.5110, 0.005278
3735.4400, 0.005667
3737.3680, 0.006099
3739.2970, 0.005337
3741.2250, 0.005550
3743.1540, 0.005004
3745.0820, 0.003585
3747.0110, 0.005099
3748.9390, 0.006522
3750.8680, 0.005536
3752.7960, 0.006171
3754.7250, 0.007001
3756.6530, 0.006756
3758.5820, 0.007312
3760.5100, 0.007710
3762.4380, 0.007571
3764.3670, 0.006313
3766.2950, 0.005113
3768.2240, 0.006411
3770.1520, 0.007991
3772.0810, 0.007965
3774.0090, 0.006927
3775.9380, 0.006122
3777.8660, 0.005514
3779.7950, 0.004957
3781.7230, 0.005860
3783.6520, 0.006280
3785.5800, 0.006238
3787.5090, 0.006218
3789.4370, 0.005422
3791.3650, 0.004709
3793.2940, 0.004094
3795.2220, 0.004104
3797.1510, 0.003942
3799.0790, 0.005361
3801.0080, 0.006903
3802.9360, 0.006839
3804.8650, 0.007002
3806.7930, 0.005757
3808.7220, 0.005603
3810.6500, 0.006363
3812.5790, 0.006473
3814.5070, 0.005829
3816.4360, 0.005268
3818.3640, 0.005508
3820.2920, 0.006838
3822.2210, 0.007579
3824.1490, 0.007967
3826.0780, 0.008055
3828.0060, 0.006756
3829.9350, 0.005935
3831.8630, 0.005971
3833.7920, 0.005559
3835.7200, 0.005441
3837.6490, 0.005806
3839.5770, 0.006995
3841.5060, 0.007383
3843.4340, 0.006212
3845.3630, 0.006376
3847.2910, 0.007105
3849.2190, 0.008095
3851.1480, 0.007985
3853.0760, 0.007577
3855.0050, 0.007345
3856.9330, 0.006421
3858.8620, 0.005844
3860.7900, 0.005805
3862.7190, 0.005659
3864.6470, 0.004477
3866.5760, 0.005314
3868.5040, 0.005919
3870.4330, 0.005817
3872.3610, 0.006375
3874.2900, 0.006298
3876.2180, 0.006564
3878.1460, 0.007418
3880.0750, 0.007709
3882.0030, 0.008102
3883.9320, 0.007968
3885.8600, 0.006638
3887.7890, 0.005469
3889.7170, 0.004471
3891.6460, 0.004270
3893.5740, 0.005464
3895.5030, 0.005468
3897.4310, 0.006271
3899.3600, 0.007561
3901.2880, 0.006832
3903.2170, 0.005815
3905.1450, 0.006648
3907.0730, 0.007905
3909.0020, 0.008460
3910.9300, 0.006759
3912.8590, 0.005005
3914.7870, 0.007187
3916.7160, 0.007805
3918.6440, 0.007433
3920.5730, 0.007418
3922.5010, 0.006983
3924.4300, 0.006233
3926.3580, 0.006033
3928.2870, 0.005555
3930.2150, 0.006073
3932.1440, 0.006718
3934.0720, 0.006599
3936.0000, 0.006561
3937.9290, 0.006918
3939.8570, 0.007697
3941.7860, 0.007690
3943.7140, 0.007241
3945.6430, 0.007465
3947.5710, 0.007748
3949.5000, 0.006241
3951.4280, 0.006048
3953.3570, 0.006381
3955.2850, 0.006269
3957.2140, 0.006678
3959.1420, 0.005908
3961.0710, 0.004553
3962.9990, 0.005364
3964.9270, 0.007830
3966.8560, 0.007751
3968.7840, 0.005440
3970.7130, 0.005887
3972.6410, 0.006108
3974.5700, 0.005503
3976.4980, 0.006222
3978.4270, 0.006817
3980.3550, 0.006734
3982.2840, 0.007316
3984.2120, 0.007675
3986.1410, 0.006449
3988.0690, 0.006657
3989.9980, 0.007520
3991.9260, 0.007412
3993.8540, 0.006837
3995.7830, 0.006854
3997.7110, 0.006801
3999.6400, 0.006804
##END=



