##NAMES=Wollastonite
##RRUFFID=R040131
##IDEAL CHEMISTRY=CaSiO_3_
##LOCALITY=In-Ne-Koh-Pah Gorge, Jacumba, San Diego County, California, USA
##OWNER=RRUFF
##SOURCE=University of Arizona Mineral Museum
##DESCRIPTION=White coarsely crystalline massive
##STATUS=The identification of this mineral has been confirmed by X-ray diffraction and chemical analysis
##URL=rruff.info/R040131
##MEASURED CHEMISTRY=Ca_1.01_Si_1.00_O_3_
399.1926, 0.132833
401.1211, 0.129196
403.0496, 0.129817
404.9780, 0.137797
406.9065, 0.144693
408.8350, 0.144660
410.7634, 0.132638
412.6919, 0.117483
414.6204, 0.110710
416.5488, 0.113328
418.4773, 0.118439
420.4058, 0.123935
422.3342, 0.131427
424.2627, 0.143553
426.1912, 0.159077
428.1196, 0.174855
430.0481, 0.190167
431.9766, 0.206795
433.9050, 0.226490
435.8335, 0.249205
437.7620, 0.271950
439.6904, 0.291424
441.6189, 0.312819
443.5474, 0.331870
445.4758, 0.340278
447.4043, 0.344107
449.3328, 0.350636
451.2612, 0.357042
453.1897, 0.354169
455.1182, 0.338475
457.0466, 0.320775
458.9751, 0.304175
460.9036, 0.283662
462.8320, 0.267517
464.7605, 0.262976
466.6890, 0.268756
468.6174, 0.276803
470.5459, 0.277333
472.4744, 0.270558
474.4028, 0.255430
476.3313, 0.238077
478.2598, 0.222299
480.1882, 0.207759
482.1167, 0.194448
484.0452, 0.182165
485.9736, 0.172035
487.9021, 0.162628
489.8306, 0.153365
491.7590, 0.144890
493.6875, 0.136742
495.6160, 0.130220
497.5444, 0.125599
499.4729, 0.121700
501.4014, 0.121030
503.3298, 0.124070
505.2583, 0.128149
507.1868, 0.131748
509.1152, 0.134125
511.0437, 0.132376
512.9722, 0.126581
514.9006, 0.119098
516.8291, 0.111332
518.7576, 0.103992
520.6860, 0.097340
522.6145, 0.091890
524.5430, 0.086581
526.4714, 0.081180
528.3999, 0.077107
530.3284, 0.073092
532.2568, 0.069716
534.1853, 0.067028
536.1138, 0.064588
538.0422, 0.061446
539.9707, 0.058635
541.8992, 0.057333
543.8276, 0.056638
545.7561, 0.056732
547.6846, 0.058266
549.6130, 0.060798
551.5415, 0.064661
553.4700, 0.071061
555.3984, 0.079491
557.3269, 0.089347
559.2554, 0.099053
561.1838, 0.106120
563.1123, 0.109074
565.0408, 0.106788
566.9692, 0.099788
568.8977, 0.089053
570.8262, 0.076730
572.7546, 0.064404
574.6831, 0.052892
576.6116, 0.043823
578.5400, 0.037408
580.4685, 0.032684
582.3970, 0.028809
584.3254, 0.026332
586.2539, 0.025080
588.1824, 0.023786
590.1108, 0.022952
592.0393, 0.022600
593.9678, 0.022005
595.8962, 0.021411
597.8247, 0.021316
599.7532, 0.021280
601.6816, 0.021385
603.6101, 0.021390
605.5386, 0.022030
607.4670, 0.022971
609.3955, 0.023489
611.3240, 0.024609
613.2524, 0.025947
615.1809, 0.027044
617.1094, 0.028478
619.0378, 0.030577
620.9663, 0.032886
622.8948, 0.035363
624.8232, 0.038508
626.7517, 0.042725
628.6802, 0.047813
630.6086, 0.054029
632.5371, 0.061886
634.4656, 0.072103
636.3940, 0.085617
638.3225, 0.101322
640.2510, 0.116513
642.1794, 0.125408
644.1079, 0.123972
646.0364, 0.112079
647.9648, 0.093519
649.8933, 0.073905
651.8218, 0.057090
653.7502, 0.044584
655.6787, 0.036544
657.6072, 0.031665
659.5356, 0.029500
661.4641, 0.028753
663.3926, 0.029184
665.3210, 0.030756
667.2495, 0.033239
669.1780, 0.035813
671.1064, 0.039565
673.0349, 0.044805
674.9634, 0.051321
676.8918, 0.059346
678.8203, 0.068132
680.7488, 0.073450
682.6772, 0.071063
684.6057, 0.063062
686.5342, 0.054507
688.4626, 0.048185
690.3911, 0.042485
692.3196, 0.036309
694.2480, 0.030924
696.1765, 0.026890
698.1050, 0.024237
700.0334, 0.022368
701.9619, 0.021356
703.8904, 0.020659
705.8188, 0.020177
707.7473, 0.020390
709.6758, 0.021405
711.6042, 0.022689
713.5327, 0.022940
715.4612, 0.021676
717.3896, 0.020671
719.3181, 0.020131
721.2466, 0.020148
723.1750, 0.020473
725.1035, 0.020589
727.0320, 0.020679
728.9604, 0.021014
730.8889, 0.021220
732.8174, 0.021295
734.7458, 0.021446
736.6743, 0.021594
738.6028, 0.021729
740.5313, 0.021791
742.4597, 0.022054
744.3882, 0.022407
746.3167, 0.022788
748.2451, 0.023330
750.1736, 0.023607
752.1021, 0.024140
754.0305, 0.024878
755.9590, 0.025628
757.8875, 0.025972
759.8159, 0.026366
761.7444, 0.027247
763.6729, 0.028147
765.6013, 0.028817
767.5298, 0.029441
769.4583, 0.030175
771.3867, 0.031210
773.3152, 0.032703
775.2437, 0.034145
777.1721, 0.035469
779.1006, 0.036775
781.0291, 0.038134
782.9575, 0.039376
784.8860, 0.040208
786.8145, 0.041056
788.7429, 0.042097
790.6714, 0.043144
792.5999, 0.044516
794.5283, 0.046243
796.4568, 0.047872
798.3853, 0.049178
800.3137, 0.050262
802.2422, 0.051654
804.1707, 0.053013
806.0991, 0.054544
808.0276, 0.056112
809.9561, 0.058071
811.8845, 0.060125
813.8130, 0.062214
815.7415, 0.064746
817.6699, 0.067697
819.5984, 0.070640
821.5269, 0.073764
823.4553, 0.077536
825.3838, 0.081331
827.3123, 0.085091
829.2407, 0.089327
831.1692, 0.093925
833.0977, 0.098963
835.0261, 0.104725
836.9546, 0.110804
838.8831, 0.116834
840.8115, 0.123492
842.7400, 0.130773
844.6685, 0.139120
846.5969, 0.148652
848.5254, 0.158466
850.4539, 0.168068
852.3823, 0.178827
854.3108, 0.190725
856.2393, 0.203667
858.1677, 0.217490
860.0962, 0.232250
862.0247, 0.248346
863.9531, 0.265745
865.8816, 0.284558
867.8101, 0.305589
869.7385, 0.329264
871.6670, 0.353284
873.5955, 0.373819
875.5239, 0.389930
877.4524, 0.402909
879.3809, 0.414350
881.3093, 0.426360
883.2378, 0.439334
885.1663, 0.453917
887.0947, 0.472257
889.0232, 0.493336
890.9517, 0.513009
892.8801, 0.528054
894.8085, 0.537432
896.7370, 0.539824
898.6655, 0.533432
900.5939, 0.517032
902.5224, 0.490319
904.4509, 0.458214
906.3793, 0.427484
908.3078, 0.403663
910.2363, 0.388566
912.1647, 0.380575
914.0932, 0.375942
916.0217, 0.371115
917.9501, 0.364776
919.8786, 0.357946
921.8071, 0.352294
923.7355, 0.349146
925.6640, 0.348736
927.5925, 0.349311
929.5209, 0.348200
931.4494, 0.344354
933.3779, 0.338339
935.3063, 0.329654
937.2348, 0.318482
939.1633, 0.306980
941.0917, 0.295593
943.0202, 0.285121
944.9487, 0.276062
946.8771, 0.268337
948.8056, 0.262630
950.7341, 0.259131
952.6625, 0.258127
954.5910, 0.258963
956.5195, 0.260699
958.4479, 0.261577
960.3764, 0.261087
962.3049, 0.259145
964.2333, 0.254343
966.1618, 0.246541
968.0903, 0.235620
970.0187, 0.221411
971.9472, 0.204313
973.8757, 0.184831
975.8041, 0.163972
977.7326, 0.143582
979.6611, 0.126849
981.5895, 0.116202
983.5180, 0.111911
985.4465, 0.113249
987.3749, 0.119687
989.3034, 0.130942
991.2319, 0.146621
993.1603, 0.165861
995.0888, 0.187220
997.0173, 0.209417
998.9457, 0.231338
1000.8740, 0.253933
1002.8030, 0.277893
1004.7310, 0.301412
1006.6600, 0.320416
1008.5880, 0.332215
1010.5170, 0.335645
1012.4450, 0.331155
1014.3730, 0.320554
1016.3020, 0.308834
1018.2300, 0.300529
1020.1590, 0.294347
1022.0870, 0.287787
1024.0160, 0.279498
1025.9440, 0.268351
1027.8730, 0.253836
1029.8010, 0.237670
1031.7300, 0.222148
1033.6580, 0.209144
1035.5870, 0.200458
1037.5150, 0.197050
1039.4440, 0.197017
1041.3720, 0.197777
1043.3010, 0.198656
1045.2290, 0.199948
1047.1570, 0.202283
1049.0860, 0.206658
1051.0140, 0.213773
1052.9430, 0.223138
1054.8710, 0.233244
1056.8000, 0.241532
1058.7280, 0.245397
1060.6570, 0.243004
1062.5850, 0.234559
1064.5140, 0.222711
1066.4420, 0.209822
1068.3710, 0.196922
1070.2990, 0.186036
1072.2280, 0.176928
1074.1560, 0.168483
1076.0840, 0.160971
1078.0130, 0.154564
1079.9410, 0.148973
1081.8700, 0.144145
1083.7980, 0.140342
1085.7270, 0.137326
1087.6550, 0.134679
1089.5840, 0.132158
1091.5120, 0.129053
1093.4410, 0.125371
1095.3690, 0.121342
1097.2980, 0.116784
1099.2260, 0.111747
1101.1550, 0.106332
1103.0830, 0.100914
1105.0110, 0.095367
1106.9400, 0.089748
1108.8680, 0.084216
1110.7970, 0.078622
1112.7250, 0.072924
1114.6540, 0.067102
1116.5820, 0.061337
1118.5110, 0.055689
1120.4390, 0.050260
1122.3680, 0.045120
1124.2960, 0.040345
1126.2250, 0.036227
1128.1530, 0.032633
1130.0820, 0.029425
1132.0100, 0.026750
1133.9380, 0.024701
1135.8670, 0.022914
1137.7950, 0.021315
1139.7240, 0.020171
1141.6520, 0.019674
1143.5810, 0.019060
1145.5090, 0.018326
1147.4380, 0.017734
1149.3660, 0.017410
1151.2950, 0.017117
1153.2230, 0.017037
1155.1520, 0.016843
1157.0800, 0.016556
1159.0090, 0.016254
1160.9370, 0.016225
1162.8650, 0.016049
1164.7940, 0.015619
1166.7220, 0.015388
1168.6510, 0.015352
1170.5790, 0.015124
1172.5080, 0.014879
1174.4360, 0.014872
1176.3650, 0.014738
1178.2930, 0.014323
1180.2220, 0.014061
1182.1500, 0.013853
1184.0790, 0.013723
1186.0070, 0.013573
1187.9360, 0.013373
1189.8640, 0.013088
1191.7920, 0.012693
1193.7210, 0.012329
1195.6490, 0.012213
1197.5780, 0.012021
1199.5060, 0.011738
1201.4350, 0.011476
1203.3630, 0.011366
1205.2920, 0.011293
1207.2200, 0.011036
1209.1490, 0.010710
1211.0770, 0.010402
1213.0060, 0.010214
1214.9340, 0.010336
1216.8630, 0.010180
1218.7910, 0.009913
1220.7190, 0.009832
1222.6480, 0.009583
1224.5760, 0.009293
1226.5050, 0.009141
1228.4330, 0.008996
1230.3620, 0.008755
1232.2900, 0.008622
1234.2190, 0.008534
1236.1470, 0.008444
1238.0760, 0.008298
1240.0040, 0.008303
1241.9330, 0.008263
1243.8610, 0.008165
1245.7900, 0.008037
1247.7180, 0.007994
1249.6460, 0.008010
1251.5750, 0.007715
1253.5030, 0.007587
1255.4320, 0.007654
1257.3600, 0.007489
1259.2890, 0.007407
1261.2170, 0.007535
1263.1460, 0.007550
1265.0740, 0.007567
1267.0030, 0.007444
1268.9310, 0.007246
1270.8600, 0.007100
1272.7880, 0.007016
1274.7170, 0.007050
1276.6450, 0.007001
1278.5730, 0.007093
1280.5020, 0.006991
1282.4300, 0.006866
1284.3590, 0.006980
1286.2870, 0.006954
1288.2160, 0.006649
1290.1440, 0.006595
1292.0730, 0.006663
1294.0010, 0.006657
1295.9300, 0.006907
1297.8580, 0.007034
1299.7870, 0.007050
1301.7150, 0.007175
1303.6440, 0.007336
1305.5720, 0.007405
1307.5000, 0.007589
1309.4290, 0.007796
1311.3570, 0.007835
1313.2860, 0.007832
1315.2140, 0.007752
1317.1430, 0.007835
1319.0710, 0.008109
1321.0000, 0.008184
1322.9280, 0.008062
1324.8570, 0.008121
1326.7850, 0.008501
1328.7140, 0.008787
1330.6420, 0.008787
1332.5710, 0.008841
1334.4990, 0.008942
1336.4270, 0.008925
1338.3560, 0.009233
1340.2840, 0.009499
1342.2130, 0.009602
1344.1410, 0.009450
1346.0700, 0.009651
1347.9980, 0.009859
1349.9270, 0.009997
1351.8550, 0.010401
1353.7840, 0.010805
1355.7120, 0.011020
1357.6410, 0.011488
1359.5690, 0.011966
1361.4980, 0.012302
1363.4260, 0.012488
1365.3540, 0.012724
1367.2830, 0.013181
1369.2110, 0.013781
1371.1400, 0.014339
1373.0680, 0.015042
1374.9970, 0.015770
1376.9250, 0.016319
1378.8540, 0.016995
1380.7820, 0.017984
1382.7110, 0.019033
1384.6390, 0.019925
1386.5680, 0.020799
1388.4960, 0.021874
1390.4240, 0.023271
1392.3530, 0.024661
1394.2810, 0.026041
1396.2100, 0.027604
1398.1380, 0.028878
1400.0670, 0.029936
1401.9950, 0.030957
1403.9240, 0.032125
1405.8520, 0.033577
1407.7810, 0.035255
1409.7090, 0.037051
1411.6380, 0.038731
1413.5660, 0.040349
1415.4950, 0.041980
1417.4230, 0.043123
1419.3510, 0.043931
1421.2800, 0.044867
1423.2080, 0.045777
1425.1370, 0.046646
1427.0650, 0.047313
1428.9940, 0.047664
1430.9220, 0.047887
1432.8510, 0.048091
1434.7790, 0.048426
1436.7080, 0.048738
1438.6360, 0.048818
1440.5650, 0.048877
1442.4930, 0.049036
1444.4220, 0.048849
1446.3500, 0.048550
1448.2780, 0.048210
1450.2070, 0.047797
1452.1350, 0.047291
1454.0640, 0.046862
1455.9920, 0.046483
1457.9210, 0.045883
1459.8490, 0.045102
1461.7780, 0.044509
1463.7060, 0.043917
1465.6350, 0.043200
1467.5630, 0.042333
1469.4920, 0.041535
1471.4200, 0.040710
1473.3490, 0.039848
1475.2770, 0.038988
1477.2050, 0.038204
1479.1340, 0.037510
1481.0620, 0.036787
1482.9910, 0.035946
1484.9190, 0.035352
1486.8480, 0.034671
1488.7760, 0.033881
1490.7050, 0.032913
1492.6330, 0.031970
1494.5620, 0.031150
1496.4900, 0.030183
1498.4190, 0.029119
1500.3470, 0.028240
1502.2760, 0.027391
1504.2040, 0.026692
1506.1320, 0.026047
1508.0610, 0.025365
1509.9890, 0.024543
1511.9180, 0.023538
1513.8460, 0.022733
1515.7750, 0.022071
1517.7030, 0.021382
1519.6320, 0.020863
1521.5600, 0.020187
1523.4890, 0.019433
1525.4170, 0.018767
1527.3460, 0.018210
1529.2740, 0.017839
1531.2030, 0.017242
1533.1310, 0.016890
1535.0590, 0.016492
1536.9880, 0.016089
1538.9160, 0.015966
1540.8450, 0.015761
1542.7730, 0.015420
1544.7020, 0.015083
1546.6300, 0.014856
1548.5590, 0.014493
1550.4870, 0.014194
1552.4160, 0.014165
1554.3440, 0.014147
1556.2730, 0.014269
1558.2010, 0.014597
1560.1300, 0.014665
1562.0580, 0.014390
1563.9860, 0.013823
1565.9150, 0.013513
1567.8430, 0.013405
1569.7720, 0.013464
1571.7000, 0.013280
1573.6290, 0.013086
1575.5570, 0.013240
1577.4860, 0.012990
1579.4140, 0.012648
1581.3430, 0.012673
1583.2710, 0.012773
1585.2000, 0.012823
1587.1280, 0.012667
1589.0570, 0.012352
1590.9850, 0.012405
1592.9130, 0.012603
1594.8420, 0.012442
1596.7700, 0.012237
1598.6990, 0.012133
1600.6270, 0.012057
1602.5560, 0.011985
1604.4840, 0.011677
1606.4130, 0.011508
1608.3410, 0.011565
1610.2700, 0.011375
1612.1980, 0.011276
1614.1270, 0.011170
1616.0550, 0.011176
1617.9840, 0.011154
1619.9120, 0.010951
1621.8400, 0.010662
1623.7690, 0.010384
1625.6970, 0.010430
1627.6260, 0.010585
1629.5540, 0.010285
1631.4830, 0.010135
1633.4110, 0.010252
1635.3400, 0.010215
1637.2680, 0.009995
1639.1970, 0.009916
1641.1250, 0.009878
1643.0540, 0.009837
1644.9820, 0.009612
1646.9110, 0.009534
1648.8390, 0.009287
1650.7670, 0.009308
1652.6960, 0.009549
1654.6240, 0.009284
1656.5530, 0.008876
1658.4810, 0.008630
1660.4100, 0.008623
1662.3380, 0.008678
1664.2670, 0.008392
1666.1950, 0.008625
1668.1240, 0.008797
1670.0520, 0.008612
1671.9810, 0.008406
1673.9090, 0.008278
1675.8380, 0.008144
1677.7660, 0.008160
1679.6940, 0.008294
1681.6230, 0.008010
1683.5510, 0.007865
1685.4800, 0.007891
1687.4080, 0.008070
1689.3370, 0.007951
1691.2650, 0.007734
1693.1940, 0.007969
1695.1220, 0.008221
1697.0510, 0.008497
1698.9790, 0.008683
1700.9080, 0.008586
1702.8360, 0.008375
1704.7650, 0.008382
1706.6930, 0.008237
1708.6210, 0.008128
1710.5500, 0.007990
1712.4780, 0.008449
1714.4070, 0.008573
1716.3350, 0.008438
1718.2640, 0.008488
1720.1920, 0.008737
1722.1210, 0.008998
1724.0490, 0.009118
1725.9780, 0.009122
1727.9060, 0.009239
1729.8350, 0.009371
1731.7630, 0.009715
1733.6920, 0.009916
1735.6200, 0.009788
1737.5480, 0.009623
1739.4770, 0.009761
1741.4050, 0.009758
1743.3340, 0.009239
1745.2620, 0.008721
1747.1910, 0.008546
1749.1190, 0.008437
1751.0480, 0.008424
1752.9760, 0.008114
1754.9050, 0.007769
1756.8330, 0.007657
1758.7620, 0.007414
1760.6900, 0.007440
1762.6190, 0.007369
1764.5470, 0.006970
1766.4750, 0.006779
1768.4040, 0.006631
1770.3320, 0.006837
1772.2610, 0.007240
1774.1890, 0.007263
1776.1180, 0.006953
1778.0460, 0.006724
1779.9750, 0.006645
1781.9030, 0.006843
1783.8320, 0.006829
1785.7600, 0.007008
1787.6890, 0.007490
1789.6170, 0.007875
1791.5460, 0.007939
1793.4740, 0.007969
1795.4020, 0.007747
1797.3310, 0.007452
1799.2590, 0.007380
1801.1880, 0.007184
1803.1160, 0.006998
1805.0450, 0.006923
1806.9730, 0.006986
1808.9020, 0.007163
1810.8300, 0.006983
1812.7590, 0.006905
1814.6870, 0.006734
1816.6160, 0.006683
1818.5440, 0.006749
1820.4730, 0.006628
1822.4010, 0.006498
1824.3290, 0.006356
1826.2580, 0.006232
1828.1860, 0.006180
1830.1150, 0.006108
1832.0430, 0.006293
1833.9720, 0.006405
1835.9000, 0.006522
1837.8290, 0.007014
1839.7570, 0.007222
1841.6860, 0.007061
1843.6140, 0.007312
1845.5430, 0.007216
1847.4710, 0.006513
1849.4000, 0.006144
1851.3280, 0.006448
1853.2560, 0.006449
1855.1850, 0.006870
1857.1130, 0.006387
1859.0420, 0.006101
1860.9700, 0.006351
1862.8990, 0.006520
1864.8270, 0.006313
1866.7560, 0.006561
1868.6840, 0.007175
1870.6130, 0.006947
1872.5410, 0.006130
1874.4700, 0.006408
1876.3980, 0.007309
1878.3270, 0.007603
1880.2550, 0.007048
1882.1830, 0.007199
1884.1120, 0.007239
1886.0400, 0.006918
1887.9690, 0.006658
1889.8970, 0.006688
1891.8260, 0.007095
1893.7540, 0.007426
1895.6830, 0.007097
1897.6110, 0.006954
1899.5400, 0.007007
1901.4680, 0.007876
1903.3970, 0.008235
1905.3250, 0.008134
1907.2540, 0.007894
1909.1820, 0.007413
1911.1100, 0.006664
1913.0390, 0.006300
1914.9670, 0.006712
1916.8960, 0.007318
1918.8240, 0.006712
1920.7530, 0.006182
1922.6810, 0.006011
1924.6100, 0.006010
1926.5380, 0.006329
1928.4670, 0.006287
1930.3950, 0.005071
1932.3240, 0.004754
1934.2520, 0.005990
1936.1810, 0.006491
1938.1090, 0.005138
1940.0370, 0.004178
1941.9660, 0.003558
1943.8940, 0.003892
1945.8230, 0.004325
1947.7510, 0.005032
1949.6800, 0.004858
1951.6080, 0.004022
1953.5370, 0.004806
1955.4650, 0.004765
1957.3940, 0.004913
1959.3220, 0.006703
1961.2510, 0.006602
1963.1790, 0.005783
1965.1080, 0.006954
1967.0360, 0.008129
1968.9640, 0.006145
1970.8930, 0.004853
1972.8210, 0.004711
1974.7500, 0.006023
1976.6780, 0.007389
1978.6070, 0.008311
1980.5350, 0.008664
1982.4640, 0.007294
1984.3920, 0.006667
1986.3210, 0.005185
1988.2490, 0.004348
1990.1780, 0.004886
1992.1060, 0.003918
1994.0350, 0.002753
1995.9630, 0.004151
1997.8910, 0.004025
1999.8200, 0.002964
2001.7480, 0.002597
2003.6770, 0.002632
2005.6050, 0.001586
2007.5340, 0.001615
2009.4620, 0.002079
2011.3910, 0.002131
2013.3190, 0.002538
2015.2480, -0.000050
2017.1760, -0.000055
2019.1050, -0.000060
2021.0330, 0.000206
2022.9620, 0.000367
2024.8900, 0.001532
2026.8180, 0.001091
2028.7470, 0.000359
2030.6750, -0.000272
2032.6040, 0.000473
2034.5320, 0.001035
2036.4610, 0.002037
2038.3890, 0.002738
2040.3180, 0.003030
2042.2460, 0.002803
2044.1750, 0.002451
2046.1030, 0.003621
2048.0320, 0.005400
2049.9600, 0.005520
2051.8890, 0.004629
2053.8170, 0.005157
2055.7460, 0.005898
2057.6740, 0.005769
2059.6030, 0.005138
2061.5310, 0.004712
2063.4590, 0.005242
2065.3880, 0.006094
2067.3160, 0.006349
2069.2450, 0.006322
2071.1730, 0.007027
2073.1020, 0.007171
2075.0300, 0.006493
2076.9590, 0.005795
2078.8870, 0.007355
2080.8160, 0.007732
2082.7440, 0.007076
2084.6730, 0.006601
2086.6010, 0.007215
2088.5300, 0.007551
2090.4580, 0.007864
2092.3860, 0.007139
2094.3150, 0.006315
2096.2430, 0.006128
2098.1720, 0.006816
2100.1000, 0.006791
2102.0290, 0.007154
2103.9570, 0.007372
2105.8860, 0.007236
2107.8140, 0.007072
2109.7430, 0.007178
2111.6710, 0.006464
2113.6000, 0.006653
2115.5280, 0.006708
2117.4570, 0.006440
2119.3850, 0.005641
2121.3130, 0.005373
2123.2420, 0.005209
2125.1700, 0.005820
2127.0990, 0.006106
2129.0270, 0.005228
2130.9560, 0.004055
2132.8840, 0.002372
2134.8130, 0.003077
2136.7410, 0.004457
2138.6700, 0.004673
2140.5980, 0.002231
2142.5270, 0.001559
2144.4550, 0.003846
2146.3840, 0.004720
2148.3120, 0.004254
2150.2400, 0.002473
2152.1690, 0.000744
2154.0970, -0.000209
2156.0260, -0.000469
2157.9540, 0.000561
2159.8830, 0.005270
2161.8110, 0.008190
2163.7400, 0.008887
2165.6680, 0.006128
2167.5970, 0.004344
2169.5250, 0.004805
2171.4540, 0.005446
2173.3820, 0.005505
2175.3110, 0.005915
2177.2390, 0.006680
2179.1670, 0.005334
2181.0960, 0.003505
2183.0240, 0.005029
2184.9530, 0.006269
2186.8810, 0.007419
2188.8100, 0.007934
2190.7380, 0.007790
2192.6670, 0.006997
2194.5950, 0.007234
2196.5240, 0.008925
2198.4520, 0.008803
2200.3810, 0.008105
2202.3090, 0.008288
2204.2380, 0.008624
2206.1660, 0.008763
2208.0940, 0.008956
2210.0230, 0.008694
2211.9510, 0.008655
2213.8800, 0.008762
2215.8080, 0.008681
2217.7370, 0.009014
2219.6650, 0.007769
2221.5940, 0.007324
2223.5220, 0.009369
2225.4510, 0.009963
2227.3790, 0.009058
2229.3080, 0.008754
2231.2360, 0.008581
2233.1650, 0.010403
2235.0930, 0.010703
2237.0210, 0.010796
2238.9500, 0.011577
2240.8780, 0.012216
2242.8070, 0.012777
2244.7350, 0.012811
2246.6640, 0.011746
2248.5920, 0.011861
2250.5210, 0.011478
2252.4490, 0.010784
2254.3780, 0.011292
2256.3060, 0.012398
2258.2350, 0.012827
2260.1630, 0.012116
2262.0920, 0.011425
2264.0200, 0.011993
2265.9480, 0.013650
2267.8770, 0.014044
2269.8050, 0.013460
2271.7340, 0.013271
2273.6620, 0.013181
2275.5910, 0.012994
2277.5190, 0.013697
2279.4480, 0.014343
2281.3760, 0.014117
2283.3050, 0.014137
2285.2330, 0.013536
2287.1620, 0.013400
2289.0900, 0.013991
2291.0190, 0.013757
2292.9470, 0.013254
2294.8750, 0.014229
2296.8040, 0.014684
2298.7320, 0.013998
2300.6610, 0.013292
2302.5890, 0.013513
2304.5180, 0.013701
2306.4460, 0.012954
2308.3750, 0.012792
2310.3030, 0.013845
2312.2320, 0.014103
2314.1600, 0.013967
2316.0890, 0.014301
2318.0170, 0.015038
2319.9460, 0.015480
2321.8740, 0.015978
2323.8020, 0.016043
2325.7310, 0.015232
2327.6590, 0.014450
2329.5880, 0.014536
2331.5160, 0.014538
2333.4450, 0.014594
2335.3730, 0.014725
2337.3020, 0.014513
2339.2300, 0.014085
2341.1590, 0.014344
2343.0870, 0.014660
2345.0160, 0.014670
2346.9440, 0.013922
2348.8730, 0.013897
2350.8010, 0.014672
2352.7290, 0.014975
2354.6580, 0.014905
2356.5860, 0.014707
2358.5150, 0.014798
2360.4430, 0.014969
2362.3720, 0.014730
2364.3000, 0.014674
2366.2290, 0.014527
2368.1570, 0.014228
2370.0860, 0.014340
2372.0140, 0.014750
2373.9420, 0.015104
2375.8710, 0.014932
2377.7990, 0.014156
2379.7280, 0.013659
2381.6560, 0.013959
2383.5850, 0.013997
2385.5130, 0.013833
2387.4420, 0.013969
2389.3700, 0.013703
2391.2990, 0.013714
2393.2270, 0.014018
2395.1560, 0.014506
2397.0840, 0.014896
2399.0120, 0.014954
2400.9410, 0.014809
2402.8690, 0.014751
2404.7980, 0.014943
2406.7260, 0.015144
2408.6550, 0.014704
2410.5830, 0.014870
2412.5120, 0.014805
2414.4400, 0.014232
2416.3690, 0.014161
2418.2970, 0.014563
2420.2260, 0.014648
2422.1540, 0.014674
2424.0830, 0.015066
2426.0110, 0.015130
2427.9390, 0.014793
2429.8680, 0.014962
2431.7960, 0.015179
2433.7250, 0.015319
2435.6530, 0.014979
2437.5820, 0.014632
2439.5100, 0.015067
2441.4390, 0.015308
2443.3670, 0.014743
2445.2960, 0.014878
2447.2240, 0.014893
2449.1530, 0.014773
2451.0810, 0.015064
2453.0100, 0.015120
2454.9380, 0.015057
2456.8660, 0.015377
2458.7950, 0.015258
2460.7230, 0.014962
2462.6520, 0.014453
2464.5800, 0.014738
2466.5090, 0.015043
2468.4370, 0.014925
2470.3660, 0.014540
2472.2940, 0.014649
2474.2230, 0.015129
2476.1510, 0.015282
2478.0800, 0.015382
2480.0080, 0.015754
2481.9370, 0.015708
2483.8650, 0.015465
2485.7930, 0.014862
2487.7220, 0.015024
2489.6500, 0.015244
2491.5790, 0.014776
2493.5070, 0.014494
2495.4360, 0.014967
2497.3640, 0.015197
2499.2930, 0.015138
2501.2210, 0.014745
2503.1500, 0.014696
2505.0780, 0.014956
2507.0070, 0.015506
2508.9350, 0.015526
2510.8640, 0.015808
2512.7920, 0.015998
2514.7200, 0.015967
2516.6490, 0.016325
2518.5770, 0.016051
2520.5060, 0.016028
2522.4340, 0.016779
2524.3630, 0.016427
2526.2910, 0.016208
2528.2200, 0.016431
2530.1480, 0.016280
2532.0770, 0.015457
2534.0050, 0.014978
2535.9340, 0.015130
2537.8620, 0.015497
2539.7910, 0.014983
2541.7190, 0.015814
2543.6470, 0.017015
2545.5760, 0.017189
2547.5040, 0.016170
2549.4330, 0.016611
2551.3610, 0.017202
2553.2900, 0.016577
2555.2180, 0.016522
2557.1470, 0.016539
2559.0750, 0.016593
2561.0040, 0.016211
2562.9320, 0.016525
2564.8610, 0.016693
2566.7890, 0.016503
2568.7180, 0.017154
2570.6460, 0.017714
2572.5740, 0.016576
2574.5030, 0.015942
2576.4310, 0.016105
2578.3600, 0.016257
2580.2880, 0.016239
2582.2170, 0.016527
2584.1450, 0.017249
2586.0740, 0.017343
2588.0020, 0.016950
2589.9310, 0.016424
2591.8590, 0.016672
2593.7880, 0.016812
2595.7160, 0.016610
2597.6450, 0.017129
2599.5730, 0.017156
2601.5010, 0.016409
2603.4300, 0.016654
2605.3580, 0.017028
2607.2870, 0.017150
2609.2150, 0.017450
2611.1440, 0.017528
2613.0720, 0.017202
2615.0010, 0.017235
2616.9290, 0.017508
2618.8580, 0.017549
2620.7860, 0.017806
2622.7150, 0.017819
2624.6430, 0.017776
2626.5720, 0.017497
2628.5000, 0.017496
2630.4280, 0.017745
2632.3570, 0.017254
2634.2850, 0.017416
2636.2140, 0.017752
2638.1420, 0.017566
2640.0710, 0.018020
2641.9990, 0.018732
2643.9280, 0.018267
2645.8560, 0.017292
2647.7850, 0.017319
2649.7130, 0.017795
2651.6420, 0.017853
2653.5700, 0.017783
2655.4990, 0.017916
2657.4270, 0.017529
2659.3550, 0.017326
2661.2840, 0.017783
2663.2120, 0.017540
2665.1410, 0.017195
2667.0690, 0.017360
2668.9980, 0.017318
2670.9260, 0.017080
2672.8550, 0.017213
2674.7830, 0.017524
2676.7120, 0.017544
2678.6400, 0.017067
2680.5690, 0.017167
2682.4970, 0.017316
2684.4260, 0.017131
2686.3540, 0.017134
2688.2820, 0.017442
2690.2110, 0.017610
2692.1390, 0.017152
2694.0680, 0.016725
2695.9960, 0.017162
2697.9250, 0.017415
2699.8530, 0.017665
2701.7820, 0.018068
2703.7100, 0.018368
2705.6390, 0.018212
2707.5670, 0.017421
2709.4960, 0.017016
2711.4240, 0.017458
2713.3530, 0.017857
2715.2810, 0.018315
2717.2090, 0.018059
2719.1380, 0.018217
2721.0660, 0.018207
2722.9950, 0.018144
2724.9230, 0.017634
2726.8520, 0.016971
2728.7800, 0.017880
2730.7090, 0.018037
2732.6370, 0.017482
2734.5660, 0.017661
2736.4940, 0.018318
2738.4230, 0.018537
2740.3510, 0.018187
2742.2800, 0.018024
2744.2080, 0.018471
2746.1360, 0.018842
2748.0650, 0.018561
2749.9930, 0.018362
2751.9220, 0.018274
2753.8500, 0.018198
2755.7790, 0.018722
2757.7070, 0.018634
2759.6360, 0.018178
2761.5640, 0.018399
2763.4930, 0.018440
2765.4210, 0.018251
2767.3500, 0.018275
2769.2780, 0.018291
2771.2070, 0.017975
2773.1350, 0.017865
2775.0630, 0.018467
2776.9920, 0.018744
2778.9200, 0.018356
2780.8490, 0.018113
2782.7770, 0.018010
2784.7060, 0.018185
2786.6340, 0.018145
2788.5630, 0.018341
2790.4910, 0.018993
2792.4200, 0.018945
2794.3480, 0.018342
2796.2770, 0.018704
2798.2050, 0.019251
2800.1340, 0.018975
2802.0620, 0.018747
2803.9900, 0.018741
2805.9190, 0.018600
2807.8470, 0.018444
2809.7760, 0.018685
2811.7040, 0.019177
2813.6330, 0.019335
2815.5610, 0.019528
2817.4900, 0.019669
2819.4180, 0.019613
2821.3470, 0.018818
2823.2750, 0.018598
2825.2040, 0.019230
2827.1320, 0.019139
2829.0610, 0.018803
2830.9890, 0.019258
2832.9170, 0.019433
2834.8460, 0.018983
2836.7740, 0.018991
2838.7030, 0.020042
2840.6310, 0.020305
2842.5600, 0.019585
2844.4880, 0.019325
2846.4170, 0.019508
2848.3450, 0.019647
2850.2740, 0.020108
2852.2020, 0.020696
2854.1310, 0.021145
2856.0590, 0.021554
2857.9880, 0.021784
2859.9160, 0.021837
2861.8440, 0.021329
2863.7730, 0.020874
2865.7010, 0.020877
2867.6300, 0.020409
2869.5580, 0.020222
2871.4870, 0.020595
2873.4150, 0.021225
2875.3440, 0.021416
2877.2720, 0.021210
2879.2010, 0.020571
2881.1290, 0.019987
2883.0580, 0.020155
2884.9860, 0.020950
2886.9150, 0.020730
2888.8430, 0.020525
2890.7710, 0.021263
2892.7000, 0.021095
2894.6280, 0.021077
2896.5570, 0.021549
2898.4850, 0.022103
2900.4140, 0.022419
2902.3420, 0.021967
2904.2710, 0.021229
2906.1990, 0.020859
2908.1280, 0.021471
2910.0560, 0.022479
2911.9850, 0.022000
2913.9130, 0.021793
2915.8420, 0.022822
2917.7700, 0.023503
2919.6980, 0.023574
2921.6270, 0.023630
2923.5550, 0.023152
2925.4840, 0.022978
2927.4120, 0.023610
2929.3410, 0.024606
2931.2690, 0.025539
2933.1980, 0.024961
2935.1260, 0.024385
2937.0550, 0.023434
2938.9830, 0.023498
2940.9120, 0.023188
2942.8400, 0.021868
2944.7690, 0.022553
2946.6970, 0.023474
2948.6250, 0.022771
2950.5540, 0.022204
2952.4820, 0.022170
2954.4110, 0.023086
2956.3390, 0.023801
2958.2680, 0.024663
2960.1960, 0.024806
2962.1250, 0.024598
2964.0530, 0.023935
2965.9820, 0.023331
2967.9100, 0.022949
2969.8390, 0.022752
2971.7670, 0.021964
2973.6960, 0.021441
2975.6240, 0.021113
2977.5520, 0.021334
2979.4810, 0.021765
2981.4090, 0.021856
2983.3380, 0.021597
2985.2660, 0.021752
2987.1950, 0.021698
2989.1230, 0.021494
2991.0520, 0.021510
2992.9800, 0.021174
2994.9090, 0.021616
2996.8370, 0.021892
2998.7660, 0.021732
3000.6940, 0.021795
3002.6230, 0.021631
3004.5510, 0.021449
3006.4790, 0.021507
3008.4080, 0.021162
3010.3360, 0.021819
3012.2650, 0.022770
3014.1930, 0.022810
3016.1220, 0.022301
3018.0500, 0.021614
3019.9790, 0.021837
3021.9070, 0.021996
3023.8360, 0.022024
3025.7640, 0.022332
3027.6930, 0.022808
3029.6210, 0.023155
3031.5500, 0.022267
3033.4780, 0.021852
3035.4060, 0.022308
3037.3350, 0.023147
3039.2630, 0.023079
3041.1920, 0.022563
3043.1200, 0.022837
3045.0490, 0.022802
3046.9770, 0.022546
3048.9060, 0.022939
3050.8340, 0.023333
3052.7630, 0.023593
3054.6910, 0.023222
3056.6200, 0.023482
3058.5480, 0.023583
3060.4770, 0.023252
3062.4050, 0.023631
3064.3330, 0.024270
3066.2620, 0.023726
3068.1900, 0.022824
3070.1190, 0.022541
3072.0470, 0.022607
3073.9760, 0.022764
3075.9040, 0.023359
3077.8330, 0.023869
3079.7610, 0.023693
3081.6900, 0.023058
3083.6180, 0.023122
3085.5470, 0.024093
3087.4750, 0.024548
3089.4040, 0.024844
3091.3320, 0.024486
3093.2600, 0.023970
3095.1890, 0.023717
3097.1170, 0.023807
3099.0460, 0.024607
3100.9740, 0.025346
3102.9030, 0.024818
3104.8310, 0.023527
3106.7600, 0.024053
3108.6880, 0.024975
3110.6170, 0.024837
3112.5450, 0.024677
3114.4740, 0.025700
3116.4020, 0.026097
3118.3310, 0.026121
3120.2590, 0.025798
3122.1880, 0.024739
3124.1160, 0.024942
3126.0440, 0.024304
3127.9730, 0.023645
3129.9010, 0.024874
3131.8300, 0.026232
3133.7580, 0.025789
3135.6870, 0.025065
3137.6150, 0.024685
3139.5440, 0.024584
3141.4720, 0.025320
3143.4010, 0.025289
3145.3290, 0.024621
3147.2580, 0.025321
3149.1860, 0.025390
3151.1150, 0.024867
3153.0430, 0.025553
3154.9710, 0.025944
3156.9000, 0.024828
3158.8280, 0.024140
3160.7570, 0.024854
3162.6850, 0.025911
3164.6140, 0.025695
3166.5420, 0.025494
3168.4710, 0.025564
3170.3990, 0.025327
3172.3280, 0.025245
3174.2560, 0.026335
3176.1850, 0.026327
3178.1130, 0.025133
3180.0420, 0.025268
3181.9700, 0.026476
3183.8980, 0.026539
3185.8270, 0.026674
3187.7550, 0.027055
3189.6840, 0.026868
3191.6120, 0.026180
3193.5410, 0.026669
3195.4690, 0.027052
3197.3980, 0.026096
3199.3260, 0.026032
3201.2550, 0.026415
3203.1830, 0.025890
3205.1120, 0.025636
3207.0400, 0.025763
3208.9690, 0.026769
3210.8970, 0.026391
3212.8250, 0.025580
3214.7540, 0.025877
3216.6820, 0.025933
3218.6110, 0.027121
3220.5390, 0.027460
3222.4680, 0.026387
3224.3960, 0.026893
3226.3250, 0.027827
3228.2530, 0.027247
3230.1820, 0.026871
3232.1100, 0.026878
3234.0390, 0.027373
3235.9670, 0.027153
3237.8960, 0.027114
3239.8240, 0.027740
3241.7520, 0.028198
3243.6810, 0.028623
3245.6090, 0.027330
3247.5380, 0.025975
3249.4660, 0.026291
3251.3950, 0.027256
3253.3230, 0.027761
3255.2520, 0.026746
3257.1800, 0.026128
3259.1090, 0.026266
3261.0370, 0.027758
3262.9660, 0.028305
3264.8940, 0.027202
3266.8230, 0.027176
3268.7510, 0.027114
3270.6790, 0.026913
3272.6080, 0.027788
3274.5360, 0.028589
3276.4650, 0.028694
3278.3930, 0.027980
3280.3220, 0.027541
3282.2500, 0.027346
3284.1790, 0.027671
3286.1070, 0.027812
3288.0360, 0.027948
3289.9640, 0.028434
3291.8930, 0.028649
3293.8210, 0.028327
3295.7500, 0.028150
3297.6780, 0.027660
3299.6060, 0.027163
3301.5350, 0.027585
3303.4630, 0.027514
3305.3920, 0.027700
3307.3200, 0.027940
3309.2490, 0.027721
3311.1770, 0.027308
3313.1060, 0.027681
3315.0340, 0.027923
3316.9630, 0.027284
3318.8910, 0.027175
3320.8200, 0.027293
3322.7480, 0.027173
3324.6770, 0.027722
3326.6050, 0.028121
3328.5330, 0.029278
3330.4620, 0.030561
3332.3900, 0.029968
3334.3190, 0.028618
3336.2470, 0.028361
3338.1760, 0.029995
3340.1040, 0.030434
3342.0330, 0.029894
3343.9610, 0.029184
3345.8900, 0.027986
3347.8180, 0.027547
3349.7470, 0.028608
3351.6750, 0.030228
3353.6040, 0.029294
3355.5320, 0.028834
3357.4600, 0.029582
3359.3890, 0.029437
3361.3170, 0.028751
3363.2460, 0.027902
3365.1740, 0.028498
3367.1030, 0.030764
3369.0310, 0.030822
3370.9600, 0.030226
3372.8880, 0.029661
3374.8170, 0.029231
3376.7450, 0.028456
3378.6740, 0.028381
3380.6020, 0.029118
3382.5310, 0.029124
3384.4590, 0.029318
3386.3870, 0.030116
3388.3160, 0.030714
3390.2440, 0.030164
3392.1730, 0.029014
3394.1010, 0.028517
3396.0300, 0.029542
3397.9580, 0.030686
3399.8870, 0.029550
3401.8150, 0.029106
3403.7440, 0.029674
3405.6720, 0.030350
3407.6010, 0.030125
3409.5290, 0.028940
3411.4580, 0.030582
3413.3860, 0.030800
3415.3140, 0.029154
3417.2430, 0.028980
3419.1710, 0.028598
3421.1000, 0.027834
3423.0280, 0.029542
3424.9570, 0.031497
3426.8850, 0.030832
3428.8140, 0.029672
3430.7420, 0.029174
3432.6710, 0.030162
3434.5990, 0.029370
3436.5280, 0.028183
3438.4560, 0.028618
3440.3850, 0.028928
3442.3130, 0.029599
3444.2410, 0.030564
3446.1700, 0.029900
3448.0980, 0.028982
3450.0270, 0.029061
3451.9550, 0.029711
3453.8840, 0.028947
3455.8120, 0.028234
3457.7410, 0.029894
3459.6690, 0.030153
3461.5980, 0.029632
3463.5260, 0.029536
3465.4550, 0.029552
3467.3830, 0.029304
3469.3120, 0.028481
3471.2400, 0.027860
3473.1680, 0.027851
3475.0970, 0.027675
3477.0250, 0.027537
3478.9540, 0.028314
3480.8820, 0.028677
3482.8110, 0.027230
3484.7390, 0.026007
3486.6680, 0.027518
3488.5960, 0.029713
3490.5250, 0.029294
3492.4530, 0.026976
3494.3820, 0.026168
3496.3100, 0.026253
3498.2390, 0.026301
3500.1670, 0.026831
3502.0950, 0.028131
3504.0240, 0.029829
3505.9520, 0.029758
3507.8810, 0.027810
3509.8090, 0.027861
3511.7380, 0.028880
3513.6660, 0.029174
3515.5950, 0.028947
3517.5230, 0.028436
3519.4520, 0.028883
3521.3800, 0.029258
3523.3090, 0.028430
3525.2370, 0.027820
3527.1660, 0.029062
3529.0940, 0.029107
3531.0220, 0.028340
3532.9510, 0.029093
3534.8790, 0.029371
3536.8080, 0.029170
3538.7360, 0.029014
3540.6650, 0.028031
3542.5930, 0.027258
3544.5220, 0.027835
3546.4500, 0.028214
3548.3790, 0.027802
3550.3070, 0.028249
3552.2360, 0.029601
3554.1640, 0.029500
3556.0930, 0.028620
3558.0210, 0.029349
3559.9490, 0.029113
3561.8780, 0.028070
3563.8060, 0.027972
3565.7350, 0.027427
3567.6630, 0.026847
3569.5920, 0.026808
3571.5200, 0.027253
3573.4490, 0.027486
3575.3770, 0.027073
3577.3060, 0.025910
3579.2340, 0.026302
3581.1630, 0.027644
3583.0910, 0.027381
3585.0200, 0.027529
3586.9480, 0.028366
3588.8760, 0.027718
3590.8050, 0.027811
3592.7330, 0.029090
3594.6620, 0.028828
3596.5900, 0.028010
3598.5190, 0.027941
3600.4470, 0.027552
3602.3760, 0.027105
3604.3040, 0.027393
3606.2330, 0.026692
3608.1610, 0.026914
3610.0900, 0.026832
3612.0180, 0.027207
3613.9470, 0.027940
3615.8750, 0.026194
3617.8030, 0.025846
3619.7320, 0.027090
3621.6600, 0.026806
3623.5890, 0.025978
3625.5170, 0.026546
3627.4460, 0.026993
3629.3740, 0.028463
3631.3030, 0.029424
3633.2310, 0.027542
3635.1600, 0.024962
3637.0880, 0.024520
3639.0170, 0.026163
3640.9450, 0.026621
3642.8740, 0.025677
3644.8020, 0.025128
3646.7300, 0.026909
3648.6590, 0.027450
3650.5870, 0.026785
3652.5160, 0.026452
3654.4440, 0.026108
3656.3730, 0.026808
3658.3010, 0.025277
3660.2300, 0.026461
3662.1580, 0.027511
3664.0870, 0.027557
3666.0150, 0.026776
3667.9440, 0.025085
3669.8720, 0.025329
3671.8010, 0.027965
3673.7290, 0.027396
3675.6570, 0.024746
3677.5860, 0.025248
3679.5140, 0.026539
3681.4430, 0.027058
3683.3710, 0.026298
3685.3000, 0.026431
3687.2280, 0.026294
3689.1570, 0.025741
3691.0850, 0.025860
3693.0140, 0.024866
3694.9420, 0.023718
3696.8710, 0.023880
3698.7990, 0.024836
3700.7280, 0.024888
3702.6560, 0.026406
3704.5840, 0.026213
3706.5130, 0.026589
3708.4410, 0.028611
3710.3700, 0.027940
3712.2980, 0.027473
3714.2270, 0.027685
3716.1550, 0.026995
3718.0840, 0.026844
3720.0120, 0.026673
3721.9410, 0.025913
3723.8690, 0.026836
3725.7980, 0.026400
3727.7260, 0.026694
3729.6550, 0.027941
3731.5830, 0.027471
3733.5110, 0.027827
3735.4400, 0.028643
3737.3680, 0.027947
3739.2970, 0.025997
3741.2250, 0.025176
3743.1540, 0.026608
3745.0820, 0.027159
3747.0110, 0.026804
3748.9390, 0.028291
3750.8680, 0.028332
3752.7960, 0.026384
3754.7250, 0.025852
3756.6530, 0.027939
3758.5820, 0.028681
3760.5100, 0.026753
3762.4380, 0.025002
3764.3670, 0.027624
3766.2950, 0.028697
3768.2240, 0.026822
3770.1520, 0.027117
3772.0810, 0.028372
3774.0090, 0.028920
3775.9380, 0.028345
3777.8660, 0.028781
3779.7950, 0.028410
3781.7230, 0.026107
3783.6520, 0.026362
3785.5800, 0.027789
3787.5090, 0.028646
3789.4370, 0.027233
3791.3650, 0.026402
3793.2940, 0.026146
3795.2220, 0.026541
3797.1510, 0.027236
3799.0790, 0.027149
3801.0080, 0.028327
3802.9360, 0.030138
3804.8650, 0.029243
3806.7930, 0.027956
3808.7220, 0.028215
3810.6500, 0.027853
3812.5790, 0.027716
3814.5070, 0.028148
3816.4360, 0.028222
3818.3640, 0.027701
3820.2920, 0.027883
3822.2210, 0.028463
3824.1490, 0.028675
3826.0780, 0.028665
3828.0060, 0.028202
3829.9350, 0.028284
3831.8630, 0.028979
3833.7920, 0.027517
3835.7200, 0.027182
3837.6490, 0.028019
3839.5770, 0.027738
3841.5060, 0.029229
3843.4340, 0.029808
3845.3630, 0.029478
3847.2910, 0.028426
3849.2190, 0.028774
3851.1480, 0.029016
3853.0760, 0.029602
3855.0050, 0.028431
3856.9330, 0.027894
3858.8620, 0.029259
3860.7900, 0.028804
3862.7190, 0.027377
3864.6470, 0.027916
3866.5760, 0.029444
3868.5040, 0.028873
3870.4330, 0.028327
3872.3610, 0.027786
3874.2900, 0.026895
3876.2180, 0.027040
3878.1460, 0.027733
3880.0750, 0.028676
3882.0030, 0.028825
3883.9320, 0.027714
3885.8600, 0.026963
3887.7890, 0.027935
3889.7170, 0.028796
3891.6460, 0.028037
3893.5740, 0.027612
3895.5030, 0.028246
3897.4310, 0.028326
3899.3600, 0.028558
3901.2880, 0.028498
3903.2170, 0.026766
3905.1450, 0.025868
3907.0730, 0.027365
3909.0020, 0.028900
3910.9300, 0.030467
3912.8590, 0.029958
3914.7870, 0.027688
3916.7160, 0.028908
3918.6440, 0.030824
3920.5730, 0.030422
3922.5010, 0.029235
3924.4300, 0.029235
3926.3580, 0.030074
3928.2870, 0.030879
3930.2150, 0.030633
3932.1440, 0.029464
3934.0720, 0.028464
3936.0000, 0.028660
3937.9290, 0.028301
3939.8570, 0.028349
3941.7860, 0.029406
3943.7140, 0.029268
3945.6430, 0.028071
3947.5710, 0.027995
3949.5000, 0.027738
3951.4280, 0.028144
3953.3570, 0.028116
3955.2850, 0.028400
3957.2140, 0.029033
3959.1420, 0.029013
3961.0710, 0.027195
3962.9990, 0.027204
3964.9270, 0.028022
3966.8560, 0.027980
3968.7840, 0.028594
3970.7130, 0.028505
3972.6410, 0.028956
3974.5700, 0.030265
3976.4980, 0.031381
3978.4270, 0.031136
3980.3550, 0.030408
3982.2840, 0.029217
3984.2120, 0.028377
3986.1410, 0.029088
3988.0690, 0.029298
3989.9980, 0.027365
3991.9260, 0.026471
3993.8540, 0.028142
3995.7830, 0.028267
3997.7110, 0.027424
3999.6400, 0.027437
##END=



