##NAMES=Actinolite
##RRUFFID=R060045
##IDEAL CHEMISTRY=Ca_2_(Mg_4.5-2.5_Fe^2+^_0.5-2.5_)Si_8_O_22_(OH)_2_
##LOCALITY=Colorado, USA
##OWNER=RRUFF
##SOURCE=University of Arizona Mineral Museum
##DESCRIPTION=Green prismatic crystals in a radial arrangement
##STATUS=The identification of this mineral has been confirmed by X-ray diffraction and chemical analysis
##URL=rruff.info/R060045
##MEASURED CHEMISTRY=(Ca_1.99_Na_0.01_)_Σ=2_(Mg_4.20_Fe^2+^_0.59_Al_0.09_Fe^3+^_0.08_Mn_0.02_Ti_0.01_)_Σ=5_(Si_7.82_Al_0.18_)_Σ=8_O_22_(OH)_2_
3.991926e+002, 2.534354e-001
4.011211e+002, 2.400788e-001
4.030495e+002, 2.599025e-001
4.049780e+002, 2.794813e-001
4.069065e+002, 2.778372e-001
4.088349e+002, 2.843585e-001
4.107634e+002, 2.861469e-001
4.126919e+002, 2.745532e-001
4.146203e+002, 2.567715e-001
4.165488e+002, 2.511034e-001
4.184773e+002, 2.450987e-001
4.204057e+002, 2.425310e-001
4.223342e+002, 2.415681e-001
4.242627e+002, 2.378587e-001
4.261911e+002, 2.476785e-001
4.281196e+002, 2.678847e-001
4.300481e+002, 2.956058e-001
4.319765e+002, 3.227638e-001
4.339050e+002, 3.289930e-001
4.358335e+002, 3.239754e-001
4.377619e+002, 3.276624e-001
4.396904e+002, 3.317582e-001
4.416189e+002, 3.333100e-001
4.435473e+002, 3.297009e-001
4.454758e+002, 3.229689e-001
4.474043e+002, 3.098866e-001
4.493327e+002, 3.031147e-001
4.512612e+002, 2.994615e-001
4.531897e+002, 2.942086e-001
4.551181e+002, 2.932172e-001
4.570466e+002, 2.863980e-001
4.589751e+002, 2.791420e-001
4.609035e+002, 2.794507e-001
4.628320e+002, 2.766528e-001
4.647605e+002, 2.721278e-001
4.666889e+002, 2.591280e-001
4.686174e+002, 2.488093e-001
4.705459e+002, 2.431948e-001
4.724743e+002, 2.350495e-001
4.744028e+002, 2.273609e-001
4.763313e+002, 2.166789e-001
4.782597e+002, 2.046902e-001
4.801882e+002, 1.966309e-001
4.821167e+002, 1.903720e-001
4.840451e+002, 1.825593e-001
4.859736e+002, 1.779192e-001
4.879021e+002, 1.774888e-001
4.898305e+002, 1.774652e-001
4.917590e+002, 1.812148e-001
4.936875e+002, 1.887337e-001
4.956159e+002, 1.938072e-001
4.975444e+002, 1.995645e-001
4.994729e+002, 2.056706e-001
5.014013e+002, 2.081409e-001
5.033298e+002, 2.084779e-001
5.052583e+002, 2.072052e-001
5.071867e+002, 2.022398e-001
5.091152e+002, 1.926324e-001
5.110437e+002, 1.834145e-001
5.129721e+002, 1.753124e-001
5.149006e+002, 1.664698e-001
5.168290e+002, 1.603416e-001
5.187575e+002, 1.553462e-001
5.206860e+002, 1.513101e-001
5.226144e+002, 1.497949e-001
5.245429e+002, 1.487347e-001
5.264714e+002, 1.449782e-001
5.283998e+002, 1.416180e-001
5.303283e+002, 1.403135e-001
5.322568e+002, 1.361842e-001
5.341852e+002, 1.306129e-001
5.361137e+002, 1.251175e-001
5.380422e+002, 1.185635e-001
5.399706e+002, 1.103695e-001
5.418991e+002, 1.029643e-001
5.438276e+002, 9.683471e-002
5.457560e+002, 9.000833e-002
5.476845e+002, 8.316843e-002
5.496130e+002, 7.732403e-002
5.515414e+002, 7.242120e-002
5.534699e+002, 6.781368e-002
5.553984e+002, 6.333714e-002
5.573268e+002, 5.883705e-002
5.592553e+002, 5.477323e-002
5.611838e+002, 5.036503e-002
5.631122e+002, 4.659237e-002
5.650407e+002, 4.383778e-002
5.669692e+002, 4.089158e-002
5.688976e+002, 3.766450e-002
5.708261e+002, 3.486717e-002
5.727546e+002, 3.209195e-002
5.746830e+002, 3.004840e-002
5.766115e+002, 2.837411e-002
5.785400e+002, 2.684446e-002
5.804684e+002, 2.474307e-002
5.823969e+002, 2.400643e-002
5.843254e+002, 2.314486e-002
5.862538e+002, 2.180377e-002
5.881823e+002, 2.125001e-002
5.901108e+002, 2.061239e-002
5.920392e+002, 2.043157e-002
5.939677e+002, 2.042650e-002
5.958962e+002, 2.037486e-002
5.978246e+002, 2.009189e-002
5.997531e+002, 1.962769e-002
6.016816e+002, 1.990128e-002
6.036100e+002, 1.989877e-002
6.055385e+002, 1.995245e-002
6.074670e+002, 2.053462e-002
6.093954e+002, 2.139109e-002
6.113239e+002, 2.218418e-002
6.132524e+002, 2.240873e-002
6.151808e+002, 2.273825e-002
6.171093e+002, 2.362441e-002
6.190378e+002, 2.458040e-002
6.209662e+002, 2.581599e-002
6.228947e+002, 2.748362e-002
6.248232e+002, 2.940813e-002
6.267516e+002, 3.193178e-002
6.286801e+002, 3.508230e-002
6.306086e+002, 3.900504e-002
6.325370e+002, 4.298373e-002
6.344655e+002, 4.697679e-002
6.363940e+002, 5.149897e-002
6.383224e+002, 5.539962e-002
6.402509e+002, 5.770770e-002
6.421794e+002, 5.695089e-002
6.441078e+002, 5.449324e-002
6.460363e+002, 5.221047e-002
6.479648e+002, 5.136690e-002
6.498932e+002, 5.243526e-002
6.518217e+002, 5.469868e-002
6.537502e+002, 5.764762e-002
6.556786e+002, 6.061891e-002
6.576071e+002, 6.200055e-002
6.595356e+002, 6.199256e-002
6.614641e+002, 6.044309e-002
6.633925e+002, 5.841040e-002
6.653210e+002, 5.658008e-002
6.672495e+002, 5.511662e-002
6.691779e+002, 5.517898e-002
6.711064e+002, 5.665827e-002
6.730349e+002, 5.949311e-002
6.749633e+002, 6.395783e-002
6.768918e+002, 6.995017e-002
6.788203e+002, 7.716681e-002
6.807487e+002, 8.431676e-002
6.826772e+002, 8.911128e-002
6.846057e+002, 9.047920e-002
6.865341e+002, 8.857248e-002
6.884626e+002, 8.325325e-002
6.903911e+002, 7.639893e-002
6.923195e+002, 7.000838e-002
6.942480e+002, 6.348073e-002
6.961765e+002, 5.763763e-002
6.981049e+002, 5.263506e-002
7.000334e+002, 4.826665e-002
7.019619e+002, 4.474656e-002
7.038903e+002, 4.257748e-002
7.058188e+002, 4.074700e-002
7.077473e+002, 3.935588e-002
7.096757e+002, 3.868754e-002
7.116042e+002, 3.902432e-002
7.135327e+002, 3.946304e-002
7.154611e+002, 3.983607e-002
7.173896e+002, 4.110477e-002
7.193181e+002, 4.299895e-002
7.212465e+002, 4.519897e-002
7.231750e+002, 4.670855e-002
7.251035e+002, 4.666882e-002
7.270319e+002, 4.565845e-002
7.289604e+002, 4.562470e-002
7.308889e+002, 4.671632e-002
7.328173e+002, 4.878564e-002
7.347458e+002, 5.151014e-002
7.366743e+002, 5.435073e-002
7.386027e+002, 5.652336e-002
7.405312e+002, 5.845916e-002
7.424597e+002, 6.254692e-002
7.443881e+002, 6.896296e-002
7.463166e+002, 7.778430e-002
7.482451e+002, 8.942943e-002
7.501735e+002, 1.038982e-001
7.521020e+002, 1.203741e-001
7.540305e+002, 1.342309e-001
7.559589e+002, 1.387474e-001
7.578874e+002, 1.310062e-001
7.598159e+002, 1.158373e-001
7.617443e+002, 9.857256e-002
7.636728e+002, 8.190595e-002
7.656013e+002, 6.816653e-002
7.675297e+002, 5.854731e-002
7.694582e+002, 5.195424e-002
7.713867e+002, 4.771086e-002
7.733151e+002, 4.544022e-002
7.752436e+002, 4.414823e-002
7.771721e+002, 4.314851e-002
7.791005e+002, 4.282718e-002
7.810290e+002, 4.210029e-002
7.829575e+002, 4.110787e-002
7.848859e+002, 4.041640e-002
7.868144e+002, 4.016739e-002
7.887429e+002, 4.028384e-002
7.906713e+002, 4.054888e-002
7.925998e+002, 4.070213e-002
7.945283e+002, 4.097527e-002
7.964567e+002, 4.169420e-002
7.983852e+002, 4.258961e-002
8.003137e+002, 4.261676e-002
8.022421e+002, 4.234216e-002
8.041706e+002, 4.198227e-002
8.060991e+002, 4.163194e-002
8.080275e+002, 4.166158e-002
8.099560e+002, 4.247736e-002
8.118845e+002, 4.321849e-002
8.138129e+002, 4.406031e-002
8.157414e+002, 4.539291e-002
8.176699e+002, 4.690590e-002
8.195983e+002, 4.861549e-002
8.215268e+002, 5.016448e-002
8.234553e+002, 5.208137e-002
8.253837e+002, 5.380193e-002
8.273122e+002, 5.606415e-002
8.292407e+002, 5.880945e-002
8.311691e+002, 6.171108e-002
8.330976e+002, 6.486142e-002
8.350261e+002, 6.808101e-002
8.369545e+002, 7.117897e-002
8.388830e+002, 7.462119e-002
8.408115e+002, 7.860828e-002
8.427399e+002, 8.267568e-002
8.446684e+002, 8.648592e-002
8.465969e+002, 8.997232e-002
8.485253e+002, 9.268145e-002
8.504538e+002, 9.497813e-002
8.523823e+002, 9.759124e-002
8.543107e+002, 1.005764e-001
8.562392e+002, 1.034113e-001
8.581677e+002, 1.067499e-001
8.600961e+002, 1.102507e-001
8.620246e+002, 1.144401e-001
8.639531e+002, 1.188269e-001
8.658815e+002, 1.234191e-001
8.678100e+002, 1.284621e-001
8.697385e+002, 1.344816e-001
8.716669e+002, 1.411753e-001
8.735954e+002, 1.478546e-001
8.755239e+002, 1.542715e-001
8.774523e+002, 1.593587e-001
8.793808e+002, 1.631141e-001
8.813093e+002, 1.671268e-001
8.832377e+002, 1.726374e-001
8.851662e+002, 1.786852e-001
8.870947e+002, 1.852982e-001
8.890231e+002, 1.933070e-001
8.909516e+002, 2.021436e-001
8.928801e+002, 2.117991e-001
8.948085e+002, 2.218632e-001
8.967370e+002, 2.327547e-001
8.986655e+002, 2.445065e-001
9.005939e+002, 2.568228e-001
9.025224e+002, 2.699288e-001
9.044509e+002, 2.842360e-001
9.063793e+002, 2.985796e-001
9.083078e+002, 3.127397e-001
9.102363e+002, 3.266999e-001
9.121647e+002, 3.396125e-001
9.140932e+002, 3.487025e-001
9.160217e+002, 3.526757e-001
9.179501e+002, 3.504896e-001
9.198786e+002, 3.417896e-001
9.218071e+002, 3.284995e-001
9.237355e+002, 3.126526e-001
9.256640e+002, 2.969506e-001
9.275925e+002, 2.850196e-001
9.295209e+002, 2.805728e-001
9.314494e+002, 2.849018e-001
9.333779e+002, 2.959121e-001
9.353063e+002, 3.112753e-001
9.372348e+002, 3.291765e-001
9.391633e+002, 3.474021e-001
9.410917e+002, 3.638253e-001
9.430202e+002, 3.769309e-001
9.449487e+002, 3.861678e-001
9.468771e+002, 3.911187e-001
9.488056e+002, 3.914217e-001
9.507341e+002, 3.887967e-001
9.526625e+002, 3.827256e-001
9.545910e+002, 3.755251e-001
9.565195e+002, 3.682593e-001
9.584479e+002, 3.598052e-001
9.603764e+002, 3.509612e-001
9.623049e+002, 3.432472e-001
9.642333e+002, 3.369417e-001
9.661618e+002, 3.310691e-001
9.680903e+002, 3.250315e-001
9.700187e+002, 3.193833e-001
9.719472e+002, 3.144721e-001
9.738757e+002, 3.108421e-001
9.758041e+002, 3.079139e-001
9.777326e+002, 3.052908e-001
9.796611e+002, 3.040765e-001
9.815895e+002, 3.030276e-001
9.835180e+002, 3.010123e-001
9.854465e+002, 2.978077e-001
9.873749e+002, 2.931465e-001
9.893034e+002, 2.875713e-001
9.912319e+002, 2.809340e-001
9.931603e+002, 2.722502e-001
9.950888e+002, 2.620702e-001
9.970173e+002, 2.505830e-001
9.989457e+002, 2.386975e-001
1.000874e+003, 2.272990e-001
1.002803e+003, 2.167624e-001
1.004731e+003, 2.066448e-001
1.006660e+003, 1.967635e-001
1.008588e+003, 1.879254e-001
1.010517e+003, 1.791414e-001
1.012445e+003, 1.709739e-001
1.014373e+003, 1.632923e-001
1.016302e+003, 1.556986e-001
1.018230e+003, 1.490764e-001
1.020159e+003, 1.430762e-001
1.022087e+003, 1.374197e-001
1.024016e+003, 1.325118e-001
1.025944e+003, 1.293127e-001
1.027873e+003, 1.283806e-001
1.029801e+003, 1.301678e-001
1.031730e+003, 1.345799e-001
1.033658e+003, 1.398183e-001
1.035587e+003, 1.436706e-001
1.037515e+003, 1.444997e-001
1.039443e+003, 1.432801e-001
1.041372e+003, 1.423271e-001
1.043300e+003, 1.421266e-001
1.045229e+003, 1.430469e-001
1.047157e+003, 1.446962e-001
1.049086e+003, 1.465244e-001
1.051014e+003, 1.481887e-001
1.052943e+003, 1.494426e-001
1.054871e+003, 1.503606e-001
1.056800e+003, 1.505189e-001
1.058728e+003, 1.500442e-001
1.060657e+003, 1.493025e-001
1.062585e+003, 1.485478e-001
1.064514e+003, 1.471372e-001
1.066442e+003, 1.448991e-001
1.068370e+003, 1.421538e-001
1.070299e+003, 1.389735e-001
1.072227e+003, 1.352978e-001
1.074156e+003, 1.316696e-001
1.076084e+003, 1.283440e-001
1.078013e+003, 1.261898e-001
1.079941e+003, 1.245471e-001
1.081870e+003, 1.229718e-001
1.083798e+003, 1.221293e-001
1.085727e+003, 1.226279e-001
1.087655e+003, 1.241702e-001
1.089584e+003, 1.259696e-001
1.091512e+003, 1.276793e-001
1.093441e+003, 1.291490e-001
1.095369e+003, 1.305528e-001
1.097297e+003, 1.311979e-001
1.099226e+003, 1.309385e-001
1.101154e+003, 1.302741e-001
1.103083e+003, 1.287189e-001
1.105011e+003, 1.263414e-001
1.106940e+003, 1.232581e-001
1.108868e+003, 1.194047e-001
1.110797e+003, 1.147830e-001
1.112725e+003, 1.096455e-001
1.114654e+003, 1.041968e-001
1.116582e+003, 9.818271e-002
1.118511e+003, 9.230500e-002
1.120439e+003, 8.668703e-002
1.122368e+003, 8.204094e-002
1.124296e+003, 7.897566e-002
1.126224e+003, 7.615089e-002
1.128153e+003, 7.242893e-002
1.130081e+003, 6.760357e-002
1.132010e+003, 6.246896e-002
1.133938e+003, 5.718571e-002
1.135867e+003, 5.207201e-002
1.137795e+003, 4.761558e-002
1.139724e+003, 4.315548e-002
1.141652e+003, 3.883675e-002
1.143581e+003, 3.521446e-002
1.145509e+003, 3.192015e-002
1.147438e+003, 2.923693e-002
1.149366e+003, 2.669195e-002
1.151295e+003, 2.450245e-002
1.153223e+003, 2.291261e-002
1.155151e+003, 2.168233e-002
1.157080e+003, 2.022847e-002
1.159008e+003, 1.905776e-002
1.160937e+003, 1.853279e-002
1.162865e+003, 1.818810e-002
1.164794e+003, 1.783015e-002
1.166722e+003, 1.735003e-002
1.168651e+003, 1.678021e-002
1.170579e+003, 1.634547e-002
1.172508e+003, 1.584262e-002
1.174436e+003, 1.519153e-002
1.176365e+003, 1.465508e-002
1.178293e+003, 1.411023e-002
1.180222e+003, 1.369682e-002
1.182150e+003, 1.362812e-002
1.184078e+003, 1.323831e-002
1.186007e+003, 1.286138e-002
1.187935e+003, 1.265712e-002
1.189864e+003, 1.209513e-002
1.191792e+003, 1.177132e-002
1.193721e+003, 1.167602e-002
1.195649e+003, 1.133284e-002
1.197578e+003, 1.095574e-002
1.199506e+003, 1.065463e-002
1.201435e+003, 1.070420e-002
1.203363e+003, 1.062846e-002
1.205292e+003, 1.031126e-002
1.207220e+003, 9.764649e-003
1.209149e+003, 9.420834e-003
1.211077e+003, 8.756881e-003
1.213005e+003, 8.386936e-003
1.214934e+003, 8.384514e-003
1.216862e+003, 8.350617e-003
1.218791e+003, 8.158363e-003
1.220719e+003, 7.572298e-003
1.222648e+003, 7.290661e-003
1.224576e+003, 7.411449e-003
1.226505e+003, 7.331030e-003
1.228433e+003, 6.955198e-003
1.230362e+003, 7.013925e-003
1.232290e+003, 7.077080e-003
1.234219e+003, 6.829613e-003
1.236147e+003, 6.684001e-003
1.238076e+003, 6.729530e-003
1.240004e+003, 6.812980e-003
1.241932e+003, 6.672745e-003
1.243861e+003, 6.327747e-003
1.245789e+003, 6.210322e-003
1.247718e+003, 6.243813e-003
1.249646e+003, 6.384223e-003
1.251575e+003, 6.267263e-003
1.253503e+003, 5.866886e-003
1.255432e+003, 5.736012e-003
1.257360e+003, 5.675414e-003
1.259289e+003, 5.796220e-003
1.261217e+003, 5.741297e-003
1.263146e+003, 5.870485e-003
1.265074e+003, 6.040714e-003
1.267003e+003, 5.740161e-003
1.268931e+003, 5.530598e-003
1.270859e+003, 5.550528e-003
1.272788e+003, 5.391891e-003
1.274716e+003, 5.330648e-003
1.276645e+003, 5.512691e-003
1.278573e+003, 5.676773e-003
1.280502e+003, 5.918287e-003
1.282430e+003, 6.093341e-003
1.284359e+003, 5.762510e-003
1.286287e+003, 5.449456e-003
1.288216e+003, 5.480777e-003
1.290144e+003, 5.539935e-003
1.292073e+003, 5.532403e-003
1.294001e+003, 5.712244e-003
1.295930e+003, 5.855457e-003
1.297858e+003, 5.657110e-003
1.299786e+003, 5.347967e-003
1.301715e+003, 5.573129e-003
1.303643e+003, 5.305545e-003
1.305572e+003, 4.939524e-003
1.307500e+003, 5.344018e-003
1.309429e+003, 5.248312e-003
1.311357e+003, 4.979928e-003
1.313286e+003, 5.168494e-003
1.315214e+003, 5.284289e-003
1.317143e+003, 5.212089e-003
1.319071e+003, 5.322152e-003
1.321000e+003, 5.431925e-003
1.322928e+003, 5.426524e-003
1.324857e+003, 5.542094e-003
1.326785e+003, 5.622710e-003
1.328714e+003, 5.579405e-003
1.330642e+003, 5.724743e-003
1.332570e+003, 5.811189e-003
1.334499e+003, 5.722945e-003
1.336427e+003, 6.039429e-003
1.338356e+003, 6.222846e-003
1.340284e+003, 6.307302e-003
1.342213e+003, 6.364967e-003
1.344141e+003, 6.332813e-003
1.346070e+003, 6.256422e-003
1.347998e+003, 6.436038e-003
1.349927e+003, 6.514294e-003
1.351855e+003, 6.693580e-003
1.353784e+003, 7.012698e-003
1.355712e+003, 7.199477e-003
1.357641e+003, 7.085515e-003
1.359569e+003, 7.039416e-003
1.361497e+003, 7.198782e-003
1.363426e+003, 7.643940e-003
1.365354e+003, 7.864927e-003
1.367283e+003, 8.000773e-003
1.369211e+003, 8.430615e-003
1.371140e+003, 8.669360e-003
1.373068e+003, 8.560264e-003
1.374997e+003, 8.706883e-003
1.376925e+003, 9.053632e-003
1.378854e+003, 9.339086e-003
1.380782e+003, 9.582706e-003
1.382711e+003, 9.653449e-003
1.384639e+003, 9.902894e-003
1.386568e+003, 1.026884e-002
1.388496e+003, 1.046148e-002
1.390424e+003, 1.104579e-002
1.392353e+003, 1.153004e-002
1.394281e+003, 1.191645e-002
1.396210e+003, 1.236893e-002
1.398138e+003, 1.263748e-002
1.400067e+003, 1.264167e-002
1.401995e+003, 1.313288e-002
1.403924e+003, 1.386719e-002
1.405852e+003, 1.415444e-002
1.407781e+003, 1.438743e-002
1.409709e+003, 1.490792e-002
1.411638e+003, 1.546816e-002
1.413566e+003, 1.606811e-002
1.415495e+003, 1.667848e-002
1.417423e+003, 1.691660e-002
1.419351e+003, 1.712165e-002
1.421280e+003, 1.776235e-002
1.423208e+003, 1.851922e-002
1.425137e+003, 1.873206e-002
1.427065e+003, 1.896468e-002
1.428994e+003, 1.964461e-002
1.430922e+003, 2.037236e-002
1.432851e+003, 2.043541e-002
1.434779e+003, 2.029408e-002
1.436708e+003, 2.016802e-002
1.438636e+003, 2.030978e-002
1.440565e+003, 2.053779e-002
1.442493e+003, 2.071083e-002
1.444422e+003, 2.092030e-002
1.446350e+003, 2.098007e-002
1.448278e+003, 2.120676e-002
1.450207e+003, 2.134431e-002
1.452135e+003, 2.102065e-002
1.454064e+003, 2.072115e-002
1.455992e+003, 2.064170e-002
1.457921e+003, 2.074159e-002
1.459849e+003, 2.061190e-002
1.461778e+003, 2.023774e-002
1.463706e+003, 1.994712e-002
1.465635e+003, 1.991277e-002
1.467563e+003, 1.967122e-002
1.469492e+003, 1.916964e-002
1.471420e+003, 1.871393e-002
1.473349e+003, 1.840913e-002
1.475277e+003, 1.848565e-002
1.477205e+003, 1.803150e-002
1.479134e+003, 1.764372e-002
1.481062e+003, 1.703314e-002
1.482991e+003, 1.654332e-002
1.484919e+003, 1.638458e-002
1.486848e+003, 1.632390e-002
1.488776e+003, 1.610264e-002
1.490705e+003, 1.584312e-002
1.492633e+003, 1.540716e-002
1.494562e+003, 1.511548e-002
1.496490e+003, 1.486134e-002
1.498419e+003, 1.464788e-002
1.500347e+003, 1.450614e-002
1.502276e+003, 1.402230e-002
1.504204e+003, 1.321602e-002
1.506132e+003, 1.280185e-002
1.508061e+003, 1.256835e-002
1.509989e+003, 1.204788e-002
1.511918e+003, 1.140404e-002
1.513846e+003, 1.141266e-002
1.515775e+003, 1.149629e-002
1.517703e+003, 1.118341e-002
1.519632e+003, 1.067328e-002
1.521560e+003, 1.043212e-002
1.523489e+003, 1.033105e-002
1.525417e+003, 1.002162e-002
1.527346e+003, 9.514776e-003
1.529274e+003, 9.513170e-003
1.531203e+003, 9.542411e-003
1.533131e+003, 9.276433e-003
1.535059e+003, 8.962119e-003
1.536988e+003, 8.704999e-003
1.538916e+003, 8.717734e-003
1.540845e+003, 8.367639e-003
1.542773e+003, 8.140412e-003
1.544702e+003, 8.145174e-003
1.546630e+003, 8.201030e-003
1.548559e+003, 8.155152e-003
1.550487e+003, 7.927780e-003
1.552416e+003, 7.841218e-003
1.554344e+003, 7.793449e-003
1.556273e+003, 7.962867e-003
1.558201e+003, 8.042851e-003
1.560130e+003, 7.912310e-003
1.562058e+003, 7.773459e-003
1.563986e+003, 7.797744e-003
1.565915e+003, 7.932445e-003
1.567843e+003, 8.280927e-003
1.569772e+003, 8.388266e-003
1.571700e+003, 8.188954e-003
1.573629e+003, 8.265116e-003
1.575557e+003, 8.489388e-003
1.577486e+003, 8.390899e-003
1.579414e+003, 8.528057e-003
1.581343e+003, 8.754695e-003
1.583271e+003, 8.860071e-003
1.585200e+003, 8.958990e-003
1.587128e+003, 8.987808e-003
1.589057e+003, 8.794518e-003
1.590985e+003, 8.847280e-003
1.592913e+003, 9.106644e-003
1.594842e+003, 9.382554e-003
1.596770e+003, 9.479782e-003
1.598699e+003, 9.554027e-003
1.600627e+003, 9.710598e-003
1.602556e+003, 9.797362e-003
1.604484e+003, 9.782541e-003
1.606413e+003, 9.816724e-003
1.608341e+003, 9.824153e-003
1.610270e+003, 9.645198e-003
1.612198e+003, 9.414459e-003
1.614127e+003, 9.551237e-003
1.616055e+003, 9.644240e-003
1.617984e+003, 9.723009e-003
1.619912e+003, 9.750404e-003
1.621840e+003, 9.820559e-003
1.623769e+003, 9.564177e-003
1.625697e+003, 9.409710e-003
1.627626e+003, 9.413448e-003
1.629554e+003, 9.320954e-003
1.631483e+003, 8.569011e-003
1.633411e+003, 8.202290e-003
1.635340e+003, 8.291377e-003
1.637268e+003, 8.555838e-003
1.639197e+003, 8.964964e-003
1.641125e+003, 8.791467e-003
1.643054e+003, 8.455720e-003
1.644982e+003, 8.421280e-003
1.646911e+003, 8.137180e-003
1.648839e+003, 7.758399e-003
1.650767e+003, 8.006123e-003
1.652696e+003, 8.101841e-003
1.654624e+003, 8.018447e-003
1.656553e+003, 8.136065e-003
1.658481e+003, 8.570068e-003
1.660410e+003, 8.494616e-003
1.662338e+003, 7.705506e-003
1.664267e+003, 7.282900e-003
1.666195e+003, 7.748679e-003
1.668124e+003, 7.809119e-003
1.670052e+003, 7.583584e-003
1.671981e+003, 7.635485e-003
1.673909e+003, 8.059818e-003
1.675838e+003, 8.253655e-003
1.677766e+003, 8.023330e-003
1.679694e+003, 7.965690e-003
1.681623e+003, 7.792601e-003
1.683551e+003, 7.467496e-003
1.685480e+003, 7.602930e-003
1.687408e+003, 8.050183e-003
1.689337e+003, 8.420452e-003
1.691265e+003, 8.209247e-003
1.693194e+003, 7.675878e-003
1.695122e+003, 7.389869e-003
1.697051e+003, 7.550037e-003
1.698979e+003, 7.151119e-003
1.700908e+003, 7.283458e-003
1.702836e+003, 7.679719e-003
1.704765e+003, 7.883394e-003
1.706693e+003, 8.050519e-003
1.708621e+003, 7.878477e-003
1.710550e+003, 7.877735e-003
1.712478e+003, 8.040708e-003
1.714407e+003, 8.404815e-003
1.716335e+003, 8.416906e-003
1.718264e+003, 8.208860e-003
1.720192e+003, 8.404105e-003
1.722121e+003, 8.826259e-003
1.724049e+003, 9.227146e-003
1.725978e+003, 9.637109e-003
1.727906e+003, 1.005850e-002
1.729835e+003, 1.041392e-002
1.731763e+003, 1.053968e-002
1.733692e+003, 1.074397e-002
1.735620e+003, 1.064040e-002
1.737548e+003, 9.785627e-003
1.739477e+003, 9.104049e-003
1.741405e+003, 8.805512e-003
1.743334e+003, 7.961662e-003
1.745262e+003, 7.677986e-003
1.747191e+003, 7.259807e-003
1.749119e+003, 7.146224e-003
1.751048e+003, 6.753556e-003
1.752976e+003, 6.559085e-003
1.754905e+003, 7.024542e-003
1.756833e+003, 7.120448e-003
1.758762e+003, 6.535004e-003
1.760690e+003, 6.102596e-003
1.762619e+003, 6.278117e-003
1.764547e+003, 7.030788e-003
1.766475e+003, 7.274370e-003
1.768404e+003, 7.224998e-003
1.770332e+003, 7.406625e-003
1.772261e+003, 6.657236e-003
1.774189e+003, 6.147720e-003
1.776118e+003, 6.636393e-003
1.778046e+003, 6.958541e-003
1.779975e+003, 6.563731e-003
1.781903e+003, 6.302768e-003
1.783832e+003, 6.896933e-003
1.785760e+003, 7.731880e-003
1.787689e+003, 7.971657e-003
1.789617e+003, 7.644312e-003
1.791546e+003, 7.196078e-003
1.793474e+003, 6.862823e-003
1.795402e+003, 6.372492e-003
1.797331e+003, 6.452837e-003
1.799259e+003, 7.154111e-003
1.801188e+003, 7.200979e-003
1.803116e+003, 7.062734e-003
1.805045e+003, 6.701712e-003
1.806973e+003, 6.595788e-003
1.808902e+003, 6.564640e-003
1.810830e+003, 6.660472e-003
1.812759e+003, 6.382144e-003
1.814687e+003, 5.472761e-003
1.816616e+003, 5.115374e-003
1.818544e+003, 5.697168e-003
1.820473e+003, 6.216101e-003
1.822401e+003, 6.380765e-003
1.824329e+003, 5.948490e-003
1.826258e+003, 5.369122e-003
1.828186e+003, 5.956435e-003
1.830115e+003, 6.774851e-003
1.832043e+003, 6.519224e-003
1.833972e+003, 6.389286e-003
1.835900e+003, 5.774359e-003
1.837829e+003, 5.239637e-003
1.839757e+003, 5.406726e-003
1.841686e+003, 5.734625e-003
1.843614e+003, 6.738648e-003
1.845543e+003, 6.088870e-003
1.847471e+003, 5.740606e-003
1.849400e+003, 5.651331e-003
1.851328e+003, 4.744738e-003
1.853256e+003, 4.562748e-003
1.855185e+003, 5.371782e-003
1.857113e+003, 5.810616e-003
1.859042e+003, 6.181124e-003
1.860970e+003, 6.158478e-003
1.862899e+003, 5.237936e-003
1.864827e+003, 4.716119e-003
1.866756e+003, 5.067683e-003
1.868684e+003, 5.410556e-003
1.870613e+003, 5.804911e-003
1.872541e+003, 6.749919e-003
1.874470e+003, 6.807309e-003
1.876398e+003, 5.461549e-003
1.878327e+003, 5.574061e-003
1.880255e+003, 5.493927e-003
1.882183e+003, 4.743748e-003
1.884112e+003, 5.474069e-003
1.886040e+003, 5.881074e-003
1.887969e+003, 4.611476e-003
1.889897e+003, 4.542247e-003
1.891826e+003, 5.611786e-003
1.893754e+003, 5.171650e-003
1.895683e+003, 5.488009e-003
1.897611e+003, 6.602652e-003
1.899540e+003, 7.680899e-003
1.901468e+003, 6.944250e-003
1.903397e+003, 6.854474e-003
1.905325e+003, 7.106042e-003
1.907254e+003, 5.841259e-003
1.909182e+003, 5.541110e-003
1.911110e+003, 6.347046e-003
1.913039e+003, 6.027963e-003
1.914967e+003, 5.339171e-003
1.916896e+003, 4.534683e-003
1.918824e+003, 4.276258e-003
1.920753e+003, 4.596360e-003
1.922681e+003, 5.468992e-003
1.924610e+003, 5.695609e-003
1.926538e+003, 6.114520e-003
1.928467e+003, 7.079980e-003
1.930395e+003, 7.620560e-003
1.932324e+003, 6.716335e-003
1.934252e+003, 6.044072e-003
1.936181e+003, 4.814044e-003
1.938109e+003, 5.133063e-003
1.940037e+003, 4.903099e-003
1.941966e+003, 3.158659e-003
1.943894e+003, 5.491134e-003
1.945823e+003, 7.435582e-003
1.947751e+003, 7.548940e-003
1.949680e+003, 7.637701e-003
1.951608e+003, 7.502376e-003
1.953537e+003, 7.511374e-003
1.955465e+003, 4.666223e-003
1.957394e+003, 3.699112e-003
1.959322e+003, 5.873163e-003
1.961251e+003, 6.197945e-003
1.963179e+003, 6.680869e-003
1.965108e+003, 6.023426e-003
1.967036e+003, 5.693506e-003
1.968964e+003, 4.998306e-003
1.970893e+003, 6.608722e-003
1.972821e+003, 8.584056e-003
1.974750e+003, 5.492162e-003
1.976678e+003, 4.676959e-003
1.978607e+003, 9.164030e-003
1.980535e+003, 9.588508e-003
1.982464e+003, 7.743767e-003
1.984392e+003, 8.679223e-003
1.986321e+003, 7.892750e-003
1.988249e+003, 4.584348e-003
1.990178e+003, 4.198552e-003
1.992106e+003, 8.255479e-003
1.994035e+003, 1.031320e-002
1.995963e+003, 7.936781e-003
1.997891e+003, 7.873478e-003
1.999820e+003, 1.029245e-002
2.001748e+003, 9.354891e-003
2.003677e+003, 8.225872e-003
2.005605e+003, 7.997026e-003
2.007534e+003, 6.309272e-003
2.009462e+003, 5.770531e-003
2.011391e+003, 7.245732e-003
2.013319e+003, 7.021170e-003
2.015248e+003, 8.779939e-003
2.017176e+003, 1.184717e-002
2.019105e+003, 1.060079e-002
2.021033e+003, 6.814428e-003
2.022962e+003, 8.665931e-003
2.024890e+003, 1.099093e-002
2.026818e+003, 1.038289e-002
2.028747e+003, 9.751040e-003
2.030675e+003, 1.218328e-002
2.032604e+003, 1.161510e-002
2.034532e+003, 1.049729e-002
2.036461e+003, 9.552591e-003
2.038389e+003, 9.785242e-003
2.040318e+003, 1.120295e-002
2.042246e+003, 1.092504e-002
2.044175e+003, 1.205751e-002
2.046103e+003, 1.137717e-002
2.048031e+003, 9.820392e-003
2.049960e+003, 1.222944e-002
2.051888e+003, 1.272754e-002
2.053817e+003, 1.175184e-002
2.055745e+003, 9.262292e-003
2.057674e+003, 9.102244e-003
2.059602e+003, 1.014631e-002
2.061531e+003, 9.340046e-003
2.063459e+003, 6.965264e-003
2.065388e+003, 7.220222e-003
2.067316e+003, 8.583721e-003
2.069245e+003, 9.680696e-003
2.071173e+003, 1.021401e-002
2.073102e+003, 9.708807e-003
2.075030e+003, 1.125258e-002
2.076958e+003, 1.210747e-002
2.078887e+003, 1.123395e-002
2.080815e+003, 1.021439e-002
2.082744e+003, 1.048850e-002
2.084672e+003, 1.157268e-002
2.086601e+003, 1.067005e-002
2.088529e+003, 8.145184e-003
2.090458e+003, 6.512989e-003
2.092386e+003, 7.460320e-003
2.094315e+003, 8.086689e-003
2.096243e+003, 9.630427e-003
2.098172e+003, 1.165008e-002
2.100100e+003, 9.542949e-003
2.102029e+003, 8.437775e-003
2.103957e+003, 8.382883e-003
2.105885e+003, 8.990992e-003
2.107814e+003, 9.176757e-003
2.109742e+003, 8.499021e-003
2.111671e+003, 8.155996e-003
2.113599e+003, 9.008188e-003
2.115528e+003, 9.141176e-003
2.117456e+003, 9.094113e-003
2.119385e+003, 8.758910e-003
2.121313e+003, 8.260354e-003
2.123242e+003, 1.050838e-002
2.125170e+003, 1.152642e-002
2.127099e+003, 8.746726e-003
2.129027e+003, 8.446740e-003
2.130956e+003, 7.775455e-003
2.132884e+003, 5.720671e-003
2.134813e+003, 6.144012e-003
2.136741e+003, 7.344668e-003
2.138669e+003, 6.323868e-003
2.140598e+003, 7.460921e-003
2.142526e+003, 9.996554e-003
2.144455e+003, 9.499200e-003
2.146383e+003, 1.024843e-002
2.148312e+003, 9.270952e-003
2.150240e+003, 9.864744e-003
2.152169e+003, 8.383451e-003
2.154097e+003, 1.098032e-002
2.156026e+003, 1.264334e-002
2.157954e+003, 1.140023e-002
2.159883e+003, 1.466841e-002
2.161811e+003, 1.683314e-002
2.163740e+003, 1.545183e-002
2.165668e+003, 1.449962e-002
2.167596e+003, 1.473397e-002
2.169525e+003, 1.391558e-002
2.171453e+003, 1.029398e-002
2.173382e+003, 8.755073e-003
2.175310e+003, 1.195206e-002
2.177239e+003, 1.523698e-002
2.179167e+003, 1.358636e-002
2.181096e+003, 1.092761e-002
2.183024e+003, 1.442647e-002
2.184953e+003, 1.504305e-002
2.186881e+003, 1.432523e-002
2.188810e+003, 1.430357e-002
2.190738e+003, 1.167192e-002
2.192667e+003, 1.097447e-002
2.194595e+003, 1.127610e-002
2.196523e+003, 1.162363e-002
2.198452e+003, 1.035895e-002
2.200380e+003, 1.132116e-002
2.202309e+003, 1.474134e-002
2.204237e+003, 1.524044e-002
2.206166e+003, 1.440515e-002
2.208094e+003, 1.225337e-002
2.210023e+003, 1.248392e-002
2.211951e+003, 1.299568e-002
2.213880e+003, 1.547511e-002
2.215808e+003, 1.523437e-002
2.217737e+003, 1.194029e-002
2.219665e+003, 9.296212e-003
2.221594e+003, 7.805757e-003
2.223522e+003, 8.588037e-003
2.225450e+003, 1.317202e-002
2.227379e+003, 1.604636e-002
2.229307e+003, 1.441849e-002
2.231236e+003, 1.319761e-002
2.233164e+003, 1.308162e-002
2.235093e+003, 1.185609e-002
2.237021e+003, 1.141482e-002
2.238950e+003, 1.226660e-002
2.240878e+003, 1.247826e-002
2.242807e+003, 1.261589e-002
2.244735e+003, 1.345791e-002
2.246664e+003, 1.470436e-002
2.248592e+003, 1.515371e-002
2.250521e+003, 1.556605e-002
2.252449e+003, 1.483903e-002
2.254377e+003, 1.396968e-002
2.256306e+003, 1.418590e-002
2.258234e+003, 1.344134e-002
2.260163e+003, 1.116882e-002
2.262091e+003, 1.169963e-002
2.264020e+003, 1.347247e-002
2.265948e+003, 1.586833e-002
2.267877e+003, 1.403597e-002
2.269805e+003, 1.245056e-002
2.271734e+003, 1.462757e-002
2.273662e+003, 1.593902e-002
2.275591e+003, 1.517284e-002
2.277519e+003, 1.611946e-002
2.279448e+003, 1.593045e-002
2.281376e+003, 1.520825e-002
2.283304e+003, 1.486531e-002
2.285233e+003, 1.462201e-002
2.287161e+003, 1.488652e-002
2.289090e+003, 1.473603e-002
2.291018e+003, 1.353984e-002
2.292947e+003, 1.285954e-002
2.294875e+003, 1.333972e-002
2.296804e+003, 1.381774e-002
2.298732e+003, 1.357096e-002
2.300661e+003, 1.334776e-002
2.302589e+003, 1.351058e-002
2.304518e+003, 1.306955e-002
2.306446e+003, 1.306085e-002
2.308375e+003, 1.358641e-002
2.310303e+003, 1.217679e-002
2.312231e+003, 1.298193e-002
2.314160e+003, 1.346107e-002
2.316088e+003, 1.284758e-002
2.318017e+003, 1.299135e-002
2.319945e+003, 1.378313e-002
2.321874e+003, 1.456136e-002
2.323802e+003, 1.467446e-002
2.325731e+003, 1.365385e-002
2.327659e+003, 1.299641e-002
2.329588e+003, 1.239882e-002
2.331516e+003, 1.208151e-002
2.333445e+003, 1.223530e-002
2.335373e+003, 1.223545e-002
2.337302e+003, 1.175594e-002
2.339230e+003, 1.155420e-002
2.341158e+003, 1.204354e-002
2.343087e+003, 1.267584e-002
2.345015e+003, 1.220994e-002
2.346944e+003, 1.218730e-002
2.348872e+003, 1.249876e-002
2.350801e+003, 1.349000e-002
2.352729e+003, 1.366522e-002
2.354658e+003, 1.232991e-002
2.356586e+003, 1.173226e-002
2.358515e+003, 1.209220e-002
2.360443e+003, 1.181061e-002
2.362372e+003, 1.177296e-002
2.364300e+003, 1.188772e-002
2.366229e+003, 1.157224e-002
2.368157e+003, 1.193290e-002
2.370085e+003, 1.193910e-002
2.372014e+003, 1.229315e-002
2.373942e+003, 1.343815e-002
2.375871e+003, 1.330170e-002
2.377799e+003, 1.195862e-002
2.379728e+003, 1.134320e-002
2.381656e+003, 1.172808e-002
2.383585e+003, 1.217816e-002
2.385513e+003, 1.302936e-002
2.387442e+003, 1.346689e-002
2.389370e+003, 1.288776e-002
2.391299e+003, 1.294258e-002
2.393227e+003, 1.308176e-002
2.395156e+003, 1.269537e-002
2.397084e+003, 1.267070e-002
2.399012e+003, 1.301485e-002
2.400941e+003, 1.353828e-002
2.402869e+003, 1.359669e-002
2.404798e+003, 1.269478e-002
2.406726e+003, 1.316903e-002
2.408655e+003, 1.284570e-002
2.410583e+003, 1.295292e-002
2.412512e+003, 1.334637e-002
2.414440e+003, 1.284784e-002
2.416369e+003, 1.228719e-002
2.418297e+003, 1.171373e-002
2.420226e+003, 1.229717e-002
2.422154e+003, 1.325332e-002
2.424083e+003, 1.440663e-002
2.426011e+003, 1.345135e-002
2.427939e+003, 1.256067e-002
2.429868e+003, 1.365323e-002
2.431796e+003, 1.387064e-002
2.433725e+003, 1.430413e-002
2.435653e+003, 1.372715e-002
2.437582e+003, 1.248321e-002
2.439510e+003, 1.361500e-002
2.441439e+003, 1.532043e-002
2.443367e+003, 1.515176e-002
2.445296e+003, 1.527858e-002
2.447224e+003, 1.532615e-002
2.449153e+003, 1.509184e-002
2.451081e+003, 1.454439e-002
2.453010e+003, 1.397265e-002
2.454938e+003, 1.457101e-002
2.456866e+003, 1.393758e-002
2.458795e+003, 1.264119e-002
2.460723e+003, 1.274283e-002
2.462652e+003, 1.327404e-002
2.464580e+003, 1.249498e-002
2.466509e+003, 1.310896e-002
2.468437e+003, 1.433631e-002
2.470366e+003, 1.456011e-002
2.472294e+003, 1.411670e-002
2.474223e+003, 1.324472e-002
2.476151e+003, 1.352566e-002
2.478080e+003, 1.456536e-002
2.480008e+003, 1.462924e-002
2.481937e+003, 1.278960e-002
2.483865e+003, 1.381073e-002
2.485793e+003, 1.478910e-002
2.487722e+003, 1.463513e-002
2.489650e+003, 1.526797e-002
2.491579e+003, 1.551187e-002
2.493507e+003, 1.438804e-002
2.495436e+003, 1.400877e-002
2.497364e+003, 1.542101e-002
2.499293e+003, 1.652281e-002
2.501221e+003, 1.552388e-002
2.503150e+003, 1.470439e-002
2.505078e+003, 1.409096e-002
2.507007e+003, 1.364490e-002
2.508935e+003, 1.361724e-002
2.510864e+003, 1.397387e-002
2.512792e+003, 1.297775e-002
2.514720e+003, 1.289354e-002
2.516649e+003, 1.487178e-002
2.518577e+003, 1.666731e-002
2.520506e+003, 1.682582e-002
2.522434e+003, 1.569670e-002
2.524363e+003, 1.471053e-002
2.526291e+003, 1.489328e-002
2.528220e+003, 1.297491e-002
2.530148e+003, 1.285186e-002
2.532077e+003, 1.562445e-002
2.534005e+003, 1.587361e-002
2.535934e+003, 1.491401e-002
2.537862e+003, 1.529590e-002
2.539791e+003, 1.607910e-002
2.541719e+003, 1.526661e-002
2.543647e+003, 1.498186e-002
2.545576e+003, 1.466301e-002
2.547504e+003, 1.504854e-002
2.549433e+003, 1.509612e-002
2.551361e+003, 1.438761e-002
2.553290e+003, 1.490275e-002
2.555218e+003, 1.560288e-002
2.557147e+003, 1.649215e-002
2.559075e+003, 1.665295e-002
2.561004e+003, 1.579366e-002
2.562932e+003, 1.543248e-002
2.564861e+003, 1.501222e-002
2.566789e+003, 1.549078e-002
2.568718e+003, 1.562375e-002
2.570646e+003, 1.523597e-002
2.572574e+003, 1.559428e-002
2.574503e+003, 1.610722e-002
2.576431e+003, 1.555279e-002
2.578360e+003, 1.457634e-002
2.580288e+003, 1.559069e-002
2.582217e+003, 1.651933e-002
2.584145e+003, 1.746808e-002
2.586074e+003, 1.705807e-002
2.588002e+003, 1.617715e-002
2.589931e+003, 1.585331e-002
2.591859e+003, 1.532396e-002
2.593788e+003, 1.610142e-002
2.595716e+003, 1.800588e-002
2.597645e+003, 1.778672e-002
2.599573e+003, 1.699690e-002
2.601501e+003, 1.704711e-002
2.603430e+003, 1.713750e-002
2.605358e+003, 1.771358e-002
2.607287e+003, 1.720066e-002
2.609215e+003, 1.778614e-002
2.611144e+003, 1.756686e-002
2.613072e+003, 1.746465e-002
2.615001e+003, 1.742305e-002
2.616929e+003, 1.723562e-002
2.618858e+003, 1.595531e-002
2.620786e+003, 1.705578e-002
2.622715e+003, 1.925275e-002
2.624643e+003, 1.923708e-002
2.626572e+003, 1.776160e-002
2.628500e+003, 1.803277e-002
2.630428e+003, 1.803695e-002
2.632357e+003, 1.797300e-002
2.634285e+003, 1.784961e-002
2.636214e+003, 1.790455e-002
2.638142e+003, 1.749094e-002
2.640071e+003, 1.709364e-002
2.641999e+003, 1.765792e-002
2.643928e+003, 1.771269e-002
2.645856e+003, 1.766674e-002
2.647785e+003, 1.764327e-002
2.649713e+003, 1.734690e-002
2.651642e+003, 1.813517e-002
2.653570e+003, 1.791412e-002
2.655499e+003, 1.746700e-002
2.657427e+003, 1.712504e-002
2.659355e+003, 1.717914e-002
2.661284e+003, 1.807908e-002
2.663212e+003, 1.798366e-002
2.665141e+003, 1.658006e-002
2.667069e+003, 1.628777e-002
2.668998e+003, 1.666871e-002
2.670926e+003, 1.705114e-002
2.672855e+003, 1.702867e-002
2.674783e+003, 1.693914e-002
2.676712e+003, 1.685669e-002
2.678640e+003, 1.687376e-002
2.680569e+003, 1.715510e-002
2.682497e+003, 1.694592e-002
2.684426e+003, 1.709691e-002
2.686354e+003, 1.698889e-002
2.688282e+003, 1.627678e-002
2.690211e+003, 1.596764e-002
2.692139e+003, 1.649758e-002
2.694068e+003, 1.632591e-002
2.695996e+003, 1.667821e-002
2.697925e+003, 1.715718e-002
2.699853e+003, 1.681086e-002
2.701782e+003, 1.642337e-002
2.703710e+003, 1.655283e-002
2.705639e+003, 1.667927e-002
2.707567e+003, 1.688653e-002
2.709496e+003, 1.754567e-002
2.711424e+003, 1.709759e-002
2.713353e+003, 1.731418e-002
2.715281e+003, 1.709608e-002
2.717209e+003, 1.660879e-002
2.719138e+003, 1.651001e-002
2.721066e+003, 1.632389e-002
2.722995e+003, 1.676911e-002
2.724923e+003, 1.685837e-002
2.726852e+003, 1.708906e-002
2.728780e+003, 1.730828e-002
2.730709e+003, 1.753269e-002
2.732637e+003, 1.819349e-002
2.734566e+003, 1.848716e-002
2.736494e+003, 1.813474e-002
2.738423e+003, 1.742272e-002
2.740351e+003, 1.746024e-002
2.742280e+003, 1.811460e-002
2.744208e+003, 1.803420e-002
2.746136e+003, 1.783544e-002
2.748065e+003, 1.799964e-002
2.749993e+003, 1.837786e-002
2.751922e+003, 1.860975e-002
2.753850e+003, 1.835211e-002
2.755779e+003, 1.780611e-002
2.757707e+003, 1.833710e-002
2.759636e+003, 1.845705e-002
2.761564e+003, 1.799330e-002
2.763493e+003, 1.823405e-002
2.765421e+003, 1.878629e-002
2.767350e+003, 1.875896e-002
2.769278e+003, 1.935959e-002
2.771207e+003, 1.968597e-002
2.773135e+003, 1.908705e-002
2.775063e+003, 1.887943e-002
2.776992e+003, 1.890674e-002
2.778920e+003, 1.850796e-002
2.780849e+003, 1.856711e-002
2.782777e+003, 1.851492e-002
2.784706e+003, 1.883247e-002
2.786634e+003, 1.924280e-002
2.788563e+003, 1.985705e-002
2.790491e+003, 1.956059e-002
2.792420e+003, 1.840446e-002
2.794348e+003, 1.876369e-002
2.796277e+003, 1.901095e-002
2.798205e+003, 1.926403e-002
2.800134e+003, 1.936299e-002
2.802062e+003, 1.893581e-002
2.803990e+003, 1.830613e-002
2.805919e+003, 1.840329e-002
2.807847e+003, 1.959830e-002
2.809776e+003, 2.009424e-002
2.811704e+003, 2.027680e-002
2.813633e+003, 2.024939e-002
2.815561e+003, 1.969349e-002
2.817490e+003, 1.890431e-002
2.819418e+003, 1.891081e-002
2.821347e+003, 1.944407e-002
2.823275e+003, 1.885669e-002
2.825204e+003, 1.793193e-002
2.827132e+003, 1.802287e-002
2.829061e+003, 1.872079e-002
2.830989e+003, 1.927260e-002
2.832917e+003, 1.957734e-002
2.834846e+003, 1.836946e-002
2.836774e+003, 1.858681e-002
2.838703e+003, 2.028845e-002
2.840631e+003, 2.083210e-002
2.842560e+003, 1.920572e-002
2.844488e+003, 1.853462e-002
2.846417e+003, 1.905028e-002
2.848345e+003, 1.850371e-002
2.850274e+003, 1.952692e-002
2.852202e+003, 1.973303e-002
2.854131e+003, 1.887751e-002
2.856059e+003, 1.913944e-002
2.857988e+003, 2.003420e-002
2.859916e+003, 2.108355e-002
2.861844e+003, 2.075756e-002
2.863773e+003, 2.074474e-002
2.865701e+003, 2.165118e-002
2.867630e+003, 2.233866e-002
2.869558e+003, 2.225545e-002
2.871487e+003, 2.219931e-002
2.873415e+003, 2.138649e-002
2.875344e+003, 2.078491e-002
2.877272e+003, 2.126402e-002
2.879201e+003, 2.170440e-002
2.881129e+003, 2.159929e-002
2.883058e+003, 2.082895e-002
2.884986e+003, 1.960034e-002
2.886915e+003, 2.061507e-002
2.888843e+003, 2.190393e-002
2.890771e+003, 2.123932e-002
2.892700e+003, 2.168860e-002
2.894628e+003, 2.149850e-002
2.896557e+003, 2.110073e-002
2.898485e+003, 2.124583e-002
2.900414e+003, 2.022083e-002
2.902342e+003, 1.963667e-002
2.904271e+003, 2.138085e-002
2.906199e+003, 2.228666e-002
2.908128e+003, 2.178200e-002
2.910056e+003, 2.270455e-002
2.911985e+003, 2.258287e-002
2.913913e+003, 2.081200e-002
2.915842e+003, 2.044644e-002
2.917770e+003, 2.076302e-002
2.919698e+003, 2.085659e-002
2.921627e+003, 2.181090e-002
2.923555e+003, 2.177043e-002
2.925484e+003, 2.174021e-002
2.927412e+003, 2.221058e-002
2.929341e+003, 2.275895e-002
2.931269e+003, 2.268675e-002
2.933198e+003, 2.342675e-002
2.935126e+003, 2.390096e-002
2.937055e+003, 2.357086e-002
2.938983e+003, 2.272023e-002
2.940912e+003, 2.326187e-002
2.942840e+003, 2.344752e-002
2.944769e+003, 2.232488e-002
2.946697e+003, 2.211877e-002
2.948625e+003, 2.331814e-002
2.950554e+003, 2.424604e-002
2.952482e+003, 2.497778e-002
2.954411e+003, 2.556327e-002
2.956339e+003, 2.562882e-002
2.958268e+003, 2.502097e-002
2.960196e+003, 2.546898e-002
2.962125e+003, 2.637243e-002
2.964053e+003, 2.581135e-002
2.965982e+003, 2.595602e-002
2.967910e+003, 2.641326e-002
2.969839e+003, 2.584984e-002
2.971767e+003, 2.517289e-002
2.973696e+003, 2.543861e-002
2.975624e+003, 2.496674e-002
2.977552e+003, 2.497357e-002
2.979481e+003, 2.450546e-002
2.981409e+003, 2.329164e-002
2.983338e+003, 2.278590e-002
2.985266e+003, 2.330307e-002
2.987195e+003, 2.307720e-002
2.989123e+003, 2.177817e-002
2.991052e+003, 2.304571e-002
2.992980e+003, 2.404987e-002
2.994909e+003, 2.334366e-002
2.996837e+003, 2.297744e-002
2.998766e+003, 2.335959e-002
3.000694e+003, 2.414401e-002
3.002623e+003, 2.327106e-002
3.004551e+003, 2.177864e-002
3.006479e+003, 2.215883e-002
3.008408e+003, 2.232158e-002
3.010336e+003, 2.288766e-002
3.012265e+003, 2.278738e-002
3.014193e+003, 2.246107e-002
3.016122e+003, 2.227238e-002
3.018050e+003, 2.323979e-002
3.019979e+003, 2.408020e-002
3.021907e+003, 2.364716e-002
3.023836e+003, 2.340483e-002
3.025764e+003, 2.393321e-002
3.027693e+003, 2.530726e-002
3.029621e+003, 2.557505e-002
3.031550e+003, 2.357400e-002
3.033478e+003, 2.324935e-002
3.035406e+003, 2.397012e-002
3.037335e+003, 2.409706e-002
3.039263e+003, 2.336580e-002
3.041192e+003, 2.378919e-002
3.043120e+003, 2.486624e-002
3.045049e+003, 2.301410e-002
3.046977e+003, 2.206527e-002
3.048906e+003, 2.399456e-002
3.050834e+003, 2.475723e-002
3.052763e+003, 2.420952e-002
3.054691e+003, 2.284733e-002
3.056620e+003, 2.308558e-002
3.058548e+003, 2.431809e-002
3.060477e+003, 2.402448e-002
3.062405e+003, 2.248771e-002
3.064333e+003, 2.297335e-002
3.066262e+003, 2.438281e-002
3.068190e+003, 2.529177e-002
3.070119e+003, 2.487007e-002
3.072047e+003, 2.455473e-002
3.073976e+003, 2.416242e-002
3.075904e+003, 2.309071e-002
3.077833e+003, 2.376171e-002
3.079761e+003, 2.623833e-002
3.081690e+003, 2.676998e-002
3.083618e+003, 2.518306e-002
3.085547e+003, 2.518101e-002
3.087475e+003, 2.577395e-002
3.089404e+003, 2.382999e-002
3.091332e+003, 2.235931e-002
3.093260e+003, 2.377156e-002
3.095189e+003, 2.572125e-002
3.097117e+003, 2.582255e-002
3.099046e+003, 2.483251e-002
3.100974e+003, 2.377810e-002
3.102903e+003, 2.541356e-002
3.104831e+003, 2.596685e-002
3.106760e+003, 2.590850e-002
3.108688e+003, 2.588249e-002
3.110617e+003, 2.641398e-002
3.112545e+003, 2.686286e-002
3.114474e+003, 2.749661e-002
3.116402e+003, 2.637523e-002
3.118331e+003, 2.445189e-002
3.120259e+003, 2.523602e-002
3.122188e+003, 2.681832e-002
3.124116e+003, 2.664161e-002
3.126044e+003, 2.675768e-002
3.127973e+003, 2.666165e-002
3.129901e+003, 2.654812e-002
3.131830e+003, 2.659023e-002
3.133758e+003, 2.630289e-002
3.135687e+003, 2.687169e-002
3.137615e+003, 2.732854e-002
3.139544e+003, 2.619869e-002
3.141472e+003, 2.660448e-002
3.143401e+003, 2.687915e-002
3.145329e+003, 2.739998e-002
3.147258e+003, 2.623064e-002
3.149186e+003, 2.443627e-002
3.151115e+003, 2.538148e-002
3.153043e+003, 2.651281e-002
3.154971e+003, 2.730429e-002
3.156900e+003, 2.642201e-002
3.158828e+003, 2.632263e-002
3.160757e+003, 2.728893e-002
3.162685e+003, 2.810657e-002
3.164614e+003, 2.738850e-002
3.166542e+003, 2.655567e-002
3.168471e+003, 2.829535e-002
3.170399e+003, 2.925595e-002
3.172328e+003, 2.724673e-002
3.174256e+003, 2.631652e-002
3.176185e+003, 2.749470e-002
3.178113e+003, 2.763604e-002
3.180042e+003, 2.780536e-002
3.181970e+003, 2.759412e-002
3.183898e+003, 2.732128e-002
3.185827e+003, 2.821267e-002
3.187755e+003, 2.823774e-002
3.189684e+003, 2.916971e-002
3.191612e+003, 2.951183e-002
3.193541e+003, 2.796341e-002
3.195469e+003, 2.884032e-002
3.197398e+003, 2.943307e-002
3.199326e+003, 2.723952e-002
3.201255e+003, 2.704007e-002
3.203183e+003, 2.846096e-002
3.205112e+003, 2.875574e-002
3.207040e+003, 2.974860e-002
3.208969e+003, 3.004917e-002
3.210897e+003, 2.894652e-002
3.212825e+003, 2.953148e-002
3.214754e+003, 3.051880e-002
3.216682e+003, 2.875036e-002
3.218611e+003, 2.831475e-002
3.220539e+003, 2.757866e-002
3.222468e+003, 2.779308e-002
3.224396e+003, 2.888421e-002
3.226325e+003, 2.921223e-002
3.228253e+003, 2.880951e-002
3.230182e+003, 2.924786e-002
3.232110e+003, 2.978899e-002
3.234039e+003, 2.994612e-002
3.235967e+003, 2.852874e-002
3.237896e+003, 2.784395e-002
3.239824e+003, 2.824942e-002
3.241752e+003, 2.839875e-002
3.243681e+003, 2.821350e-002
3.245609e+003, 2.774613e-002
3.247538e+003, 2.780631e-002
3.249466e+003, 3.073498e-002
3.251395e+003, 3.109954e-002
3.253323e+003, 2.824792e-002
3.255252e+003, 2.759947e-002
3.257180e+003, 2.779788e-002
3.259109e+003, 2.789984e-002
3.261037e+003, 2.913590e-002
3.262966e+003, 2.860391e-002
3.264894e+003, 2.834369e-002
3.266823e+003, 2.918237e-002
3.268751e+003, 2.800937e-002
3.270679e+003, 2.746104e-002
3.272608e+003, 2.861213e-002
3.274536e+003, 2.824174e-002
3.276465e+003, 2.770263e-002
3.278393e+003, 2.918514e-002
3.280322e+003, 2.898992e-002
3.282250e+003, 2.740891e-002
3.284179e+003, 2.799533e-002
3.286107e+003, 2.985595e-002
3.288036e+003, 2.911758e-002
3.289964e+003, 2.680089e-002
3.291893e+003, 2.748336e-002
3.293821e+003, 2.964427e-002
3.295750e+003, 3.097006e-002
3.297678e+003, 3.020554e-002
3.299606e+003, 2.801939e-002
3.301535e+003, 2.807887e-002
3.303463e+003, 2.845108e-002
3.305392e+003, 2.775160e-002
3.307320e+003, 2.811041e-002
3.309249e+003, 2.569619e-002
3.311177e+003, 2.640563e-002
3.313106e+003, 2.940959e-002
3.315034e+003, 3.099930e-002
3.316963e+003, 3.080505e-002
3.318891e+003, 3.044152e-002
3.320820e+003, 3.015678e-002
3.322748e+003, 2.967560e-002
3.324677e+003, 3.003103e-002
3.326605e+003, 3.070031e-002
3.328533e+003, 3.011142e-002
3.330462e+003, 2.936768e-002
3.332390e+003, 2.952861e-002
3.334319e+003, 3.162130e-002
3.336247e+003, 3.300120e-002
3.338176e+003, 3.234417e-002
3.340104e+003, 3.227032e-002
3.342033e+003, 3.115677e-002
3.343961e+003, 3.028204e-002
3.345890e+003, 3.002598e-002
3.347818e+003, 2.900813e-002
3.349747e+003, 2.773322e-002
3.351675e+003, 2.829558e-002
3.353604e+003, 2.933620e-002
3.355532e+003, 2.926452e-002
3.357460e+003, 2.869051e-002
3.359389e+003, 2.922827e-002
3.361317e+003, 2.949588e-002
3.363246e+003, 3.066867e-002
3.365174e+003, 3.057517e-002
3.367103e+003, 2.769610e-002
3.369031e+003, 2.788129e-002
3.370960e+003, 2.985869e-002
3.372888e+003, 2.847198e-002
3.374817e+003, 2.782912e-002
3.376745e+003, 2.843377e-002
3.378674e+003, 3.014916e-002
3.380602e+003, 3.086045e-002
3.382531e+003, 3.176881e-002
3.384459e+003, 3.336980e-002
3.386387e+003, 3.143299e-002
3.388316e+003, 3.039445e-002
3.390244e+003, 3.017201e-002
3.392173e+003, 2.914966e-002
3.394101e+003, 2.896256e-002
3.396030e+003, 2.917036e-002
3.397958e+003, 2.919053e-002
3.399887e+003, 3.114065e-002
3.401815e+003, 3.225581e-002
3.403744e+003, 3.159606e-002
3.405672e+003, 3.228484e-002
3.407601e+003, 3.098638e-002
3.409529e+003, 3.107849e-002
3.411458e+003, 3.283514e-002
3.413386e+003, 3.409912e-002
3.415314e+003, 3.503451e-002
3.417243e+003, 3.465883e-002
3.419171e+003, 3.275503e-002
3.421100e+003, 3.212408e-002
3.423028e+003, 3.308637e-002
3.424957e+003, 3.201844e-002
3.426885e+003, 3.091869e-002
3.428814e+003, 3.251386e-002
3.430742e+003, 3.293410e-002
3.432671e+003, 3.193745e-002
3.434599e+003, 3.163957e-002
3.436528e+003, 3.174880e-002
3.438456e+003, 3.276385e-002
3.440385e+003, 3.290823e-002
3.442313e+003, 3.081473e-002
3.444241e+003, 2.881710e-002
3.446170e+003, 2.699713e-002
3.448098e+003, 2.763787e-002
3.450027e+003, 2.967052e-002
3.451955e+003, 3.160638e-002
3.453884e+003, 3.048568e-002
3.455812e+003, 2.941280e-002
3.457741e+003, 2.846604e-002
3.459669e+003, 2.828361e-002
3.461598e+003, 2.907073e-002
3.463526e+003, 2.891687e-002
3.465455e+003, 2.940384e-002
3.467383e+003, 3.118077e-002
3.469312e+003, 3.193262e-002
3.471240e+003, 3.254579e-002
3.473168e+003, 3.104945e-002
3.475097e+003, 2.993024e-002
3.477025e+003, 2.943475e-002
3.478954e+003, 2.948884e-002
3.480882e+003, 2.936693e-002
3.482811e+003, 3.200837e-002
3.484739e+003, 3.398963e-002
3.486668e+003, 3.099814e-002
3.488596e+003, 2.910964e-002
3.490525e+003, 2.806687e-002
3.492453e+003, 2.802394e-002
3.494382e+003, 2.942374e-002
3.496310e+003, 2.795268e-002
3.498239e+003, 2.881358e-002
3.500167e+003, 2.961120e-002
3.502095e+003, 3.037348e-002
3.504024e+003, 3.089619e-002
3.505952e+003, 2.951019e-002
3.507881e+003, 2.752985e-002
3.509809e+003, 2.855187e-002
3.511738e+003, 2.970577e-002
3.513666e+003, 2.988585e-002
3.515595e+003, 3.059995e-002
3.517523e+003, 2.985194e-002
3.519452e+003, 2.912069e-002
3.521380e+003, 2.898297e-002
3.523309e+003, 2.899483e-002
3.525237e+003, 2.873223e-002
3.527166e+003, 3.009168e-002
3.529094e+003, 3.105780e-002
3.531022e+003, 3.083619e-002
3.532951e+003, 3.075143e-002
3.534879e+003, 3.072872e-002
3.536808e+003, 3.018228e-002
3.538736e+003, 2.960210e-002
3.540665e+003, 3.102979e-002
3.542593e+003, 2.969799e-002
3.544522e+003, 2.640307e-002
3.546450e+003, 2.684966e-002
3.548379e+003, 2.783715e-002
3.550307e+003, 2.898690e-002
3.552236e+003, 2.907981e-002
3.554164e+003, 3.093131e-002
3.556093e+003, 3.195858e-002
3.558021e+003, 3.063954e-002
3.559949e+003, 3.069818e-002
3.561878e+003, 3.289977e-002
3.563806e+003, 3.213067e-002
3.565735e+003, 2.768383e-002
3.567663e+003, 2.595324e-002
3.569592e+003, 2.674347e-002
3.571520e+003, 2.791226e-002
3.573449e+003, 3.035014e-002
3.575377e+003, 3.195315e-002
3.577306e+003, 2.965892e-002
3.579234e+003, 2.724640e-002
3.581163e+003, 2.857100e-002
3.583091e+003, 2.924824e-002
3.585020e+003, 2.881566e-002
3.586948e+003, 2.678519e-002
3.588876e+003, 2.724101e-002
3.590805e+003, 3.001481e-002
3.592733e+003, 2.986462e-002
3.594662e+003, 2.879074e-002
3.596590e+003, 2.829094e-002
3.598519e+003, 2.689495e-002
3.600447e+003, 2.683537e-002
3.602376e+003, 2.894151e-002
3.604304e+003, 3.194143e-002
3.606233e+003, 3.078977e-002
3.608161e+003, 2.723241e-002
3.610090e+003, 2.613438e-002
3.612018e+003, 2.690572e-002
3.613947e+003, 2.813945e-002
3.615875e+003, 3.175536e-002
3.617803e+003, 2.967355e-002
3.619732e+003, 2.627796e-002
3.621660e+003, 2.604981e-002
3.623589e+003, 2.874770e-002
3.625517e+003, 2.857210e-002
3.627446e+003, 2.626903e-002
3.629374e+003, 2.841487e-002
3.631303e+003, 2.969513e-002
3.633231e+003, 3.051796e-002
3.635160e+003, 3.062740e-002
3.637088e+003, 3.042894e-002
3.639017e+003, 2.922210e-002
3.640945e+003, 2.931345e-002
3.642874e+003, 3.125092e-002
3.644802e+003, 2.876846e-002
3.646730e+003, 2.608942e-002
3.648659e+003, 2.768442e-002
3.650587e+003, 2.741801e-002
3.652516e+003, 2.792034e-002
3.654444e+003, 3.205311e-002
3.656373e+003, 3.723087e-002
3.658301e+003, 4.075773e-002
3.660230e+003, 4.097240e-002
3.662158e+003, 3.970429e-002
3.664087e+003, 3.349215e-002
3.666015e+003, 2.957092e-002
3.667944e+003, 3.269887e-002
3.669872e+003, 3.672949e-002
3.671801e+003, 4.217791e-002
3.673729e+003, 4.528486e-002
3.675657e+003, 3.624217e-002
3.677586e+003, 2.537642e-002
3.679514e+003, 2.172693e-002
3.681443e+003, 2.309733e-002
3.683371e+003, 2.590078e-002
3.685300e+003, 2.418823e-002
3.687228e+003, 2.445821e-002
3.689157e+003, 2.723298e-002
3.691085e+003, 2.787645e-002
3.693014e+003, 2.370215e-002
3.694942e+003, 2.227134e-002
3.696871e+003, 2.431263e-002
3.698799e+003, 2.689227e-002
3.700728e+003, 2.880045e-002
3.702656e+003, 2.927794e-002
3.704584e+003, 2.817302e-002
3.706513e+003, 2.651228e-002
3.708441e+003, 2.513708e-002
3.710370e+003, 2.822444e-002
3.712298e+003, 3.107268e-002
3.714227e+003, 2.829271e-002
3.716155e+003, 2.474691e-002
3.718084e+003, 2.360885e-002
3.720012e+003, 2.449076e-002
3.721941e+003, 2.630931e-002
3.723869e+003, 2.382344e-002
3.725798e+003, 2.428664e-002
3.727726e+003, 2.511707e-002
3.729655e+003, 2.488652e-002
3.731583e+003, 2.518197e-002
3.733511e+003, 2.510243e-002
3.735440e+003, 2.632814e-002
3.737368e+003, 2.659002e-002
3.739297e+003, 2.421130e-002
3.741225e+003, 2.477140e-002
3.743154e+003, 2.665798e-002
3.745082e+003, 2.766568e-002
3.747011e+003, 2.641982e-002
3.748939e+003, 2.675130e-002
3.750868e+003, 2.794568e-002
3.752796e+003, 2.686102e-002
3.754725e+003, 2.577407e-002
3.756653e+003, 2.478011e-002
3.758582e+003, 2.646796e-002
3.760510e+003, 2.835625e-002
3.762438e+003, 2.844432e-002
3.764367e+003, 2.795914e-002
3.766295e+003, 2.819049e-002
3.768224e+003, 2.764392e-002
3.770152e+003, 2.530681e-002
3.772081e+003, 2.542964e-002
3.774009e+003, 2.432751e-002
3.775938e+003, 2.374612e-002
3.777866e+003, 2.337269e-002
3.779795e+003, 2.433074e-002
3.781723e+003, 2.591330e-002
3.783652e+003, 2.481092e-002
3.785580e+003, 2.483998e-002
3.787509e+003, 2.611104e-002
3.789437e+003, 2.672398e-002
3.791365e+003, 2.612634e-002
3.793294e+003, 2.325670e-002
3.795222e+003, 2.162358e-002
3.797151e+003, 2.598023e-002
3.799079e+003, 2.646354e-002
3.801008e+003, 2.302656e-002
3.802936e+003, 2.125455e-002
3.804865e+003, 2.323384e-002
3.806793e+003, 2.609344e-002
3.808722e+003, 2.891040e-002
3.810650e+003, 2.739607e-002
3.812579e+003, 2.455589e-002
3.814507e+003, 2.428878e-002
3.816436e+003, 2.424367e-002
3.818364e+003, 2.461299e-002
3.820292e+003, 2.480049e-002
3.822221e+003, 2.378310e-002
3.824149e+003, 2.312385e-002
3.826078e+003, 2.562260e-002
3.828006e+003, 2.554158e-002
3.829935e+003, 2.285999e-002
3.831863e+003, 2.408537e-002
3.833792e+003, 2.551574e-002
3.835720e+003, 2.547139e-002
3.837649e+003, 2.534756e-002
3.839577e+003, 2.539296e-002
3.841506e+003, 2.727783e-002
3.843434e+003, 2.769504e-002
3.845363e+003, 2.777342e-002
3.847291e+003, 2.618259e-002
3.849219e+003, 2.406616e-002
3.851148e+003, 2.129571e-002
3.853076e+003, 2.225507e-002
3.855005e+003, 2.355021e-002
3.856933e+003, 2.318306e-002
3.858862e+003, 2.461077e-002
3.860790e+003, 2.514540e-002
3.862719e+003, 2.612172e-002
3.864647e+003, 2.788835e-002
3.866576e+003, 2.688549e-002
3.868504e+003, 2.491078e-002
3.870433e+003, 2.512833e-002
3.872361e+003, 2.407646e-002
3.874290e+003, 2.438498e-002
3.876218e+003, 2.531905e-002
3.878146e+003, 2.712648e-002
3.880075e+003, 2.658349e-002
3.882003e+003, 2.519907e-002
3.883932e+003, 2.426754e-002
3.885860e+003, 2.365077e-002
3.887789e+003, 2.533692e-002
3.889717e+003, 2.405333e-002
3.891646e+003, 2.096613e-002
3.893574e+003, 2.145400e-002
3.895503e+003, 2.121195e-002
3.897431e+003, 2.277171e-002
3.899360e+003, 2.542948e-002
3.901288e+003, 2.500095e-002
3.903217e+003, 2.281232e-002
3.905145e+003, 2.279211e-002
3.907073e+003, 2.520056e-002
3.909002e+003, 2.645981e-002
3.910930e+003, 2.753236e-002
3.912859e+003, 2.603285e-002
3.914787e+003, 2.502585e-002
3.916716e+003, 2.661131e-002
3.918644e+003, 2.609484e-002
3.920573e+003, 2.521567e-002
3.922501e+003, 2.668087e-002
3.924430e+003, 2.537233e-002
3.926358e+003, 2.573846e-002
3.928287e+003, 2.454008e-002
3.930215e+003, 2.660745e-002
3.932144e+003, 3.001460e-002
3.934072e+003, 2.742301e-002
3.936000e+003, 2.622849e-002
3.937929e+003, 2.792360e-002
3.939857e+003, 2.652280e-002
3.941786e+003, 2.353248e-002
3.943714e+003, 2.612988e-002
3.945643e+003, 2.896120e-002
3.947571e+003, 2.692235e-002
3.949500e+003, 2.432146e-002
3.951428e+003, 2.647303e-002
3.953357e+003, 2.664386e-002
3.955285e+003, 2.589276e-002
3.957214e+003, 2.569948e-002
3.959142e+003, 2.752090e-002
3.961071e+003, 2.726522e-002
3.962999e+003, 2.443562e-002
3.964927e+003, 2.438730e-002
3.966856e+003, 2.762148e-002
3.968784e+003, 2.776456e-002
3.970713e+003, 2.429336e-002
3.972641e+003, 2.203478e-002
3.974570e+003, 2.174581e-002
3.976498e+003, 2.268490e-002
3.978427e+003, 2.210527e-002
3.980355e+003, 2.038771e-002
3.982284e+003, 2.065827e-002
3.984212e+003, 2.219284e-002
3.986141e+003, 2.389950e-002
3.988069e+003, 2.287051e-002
3.989998e+003, 2.338015e-002
3.991926e+003, 2.672884e-002
3.993854e+003, 2.865051e-002
3.995783e+003, 2.880721e-002
3.997711e+003, 2.797433e-002
3.999640e+003, 2.607551e-002
##END=



