##NAMES=Albite
##RRUFFID=R040129
##IDEAL CHEMISTRY=NaAlSi_3_O_8_
##LOCALITY=LaChance Quarry, Brunswick, Cumberland County, Maine, USA
##OWNER=RRUFF
##SOURCE=Bob Downs
##DESCRIPTION=Colorless fragment of a tabular single crystal. Characterized in the study by Che and Zega (2023)
##STATUS=The identification of this mineral has been confirmed by X-ray diffraction and chemical analysis
##URL=rruff.info/R040129
##MEASURED CHEMISTRY=(Na_0.99_K_0.01_)Al_1.00_Si_3.00_O_8_
399.1926, 0.2579502
401.1211, 0.2323985
403.0496, 0.2335158
404.9780, 0.2213718
406.9065, 0.2170236
408.8350, 0.2161429
410.7634, 0.2267434
412.6919, 0.2435016
414.6204, 0.2530521
416.5488, 0.2461965
418.4773, 0.2290066
420.4058, 0.2102272
422.3342, 0.1957180
424.2627, 0.1874076
426.1912, 0.1812725
428.1196, 0.1723168
430.0481, 0.1624521
431.9766, 0.1488955
433.9050, 0.1344860
435.8335, 0.1225509
437.7620, 0.1119029
439.6904, 0.1009260
441.6189, 9.1215909E-02
443.5474, 8.2291819E-02
445.4758, 7.4909747E-02
447.4043, 7.1614243E-02
449.3328, 7.1859144E-02
451.2612, 7.5251982E-02
453.1897, 8.3888777E-02
455.1182, 9.6512921E-02
457.0466, 0.1137949
458.9751, 0.1334481
460.9036, 0.1472264
462.8320, 0.1499688
464.7605, 0.1420221
466.6890, 0.1283573
468.6174, 0.1172552
470.5459, 0.1140777
472.4744, 0.1179499
474.4028, 0.1212359
476.3313, 0.1178573
478.2598, 0.1069502
480.1882, 9.1542900E-02
482.1167, 7.6439969E-02
484.0452, 6.4156249E-02
485.9736, 5.5336859E-02
487.9021, 4.9469352E-02
489.8306, 4.5266680E-02
491.7590, 4.3090049E-02
493.6875, 4.2105321E-02
495.6160, 4.1820809E-02
497.5444, 4.2040959E-02
499.4729, 4.3040909E-02
501.4014, 4.4491500E-02
503.3298, 4.6004411E-02
505.2583, 4.7883000E-02
507.1868, 5.0132290E-02
509.1152, 5.3524561E-02
511.0437, 5.7585038E-02
512.9722, 6.2287711E-02
514.9006, 6.8660393E-02
516.8291, 7.6528691E-02
518.7576, 8.6851977E-02
520.6860, 0.1007507
522.6145, 0.1177944
524.5430, 0.1374449
526.4714, 0.1583858
528.3999, 0.1737584
530.3284, 0.1765649
532.2568, 0.1676890
534.1853, 0.1510894
536.1138, 0.1308007
538.0422, 0.1104892
539.9707, 9.3514413E-02
541.8992, 8.1297897E-02
543.8276, 7.3092937E-02
545.7561, 6.8243086E-02
547.6846, 6.6494621E-02
549.6130, 6.6738263E-02
551.5415, 6.8288408E-02
553.4700, 7.1412392E-02
555.3984, 7.5100742E-02
557.3269, 7.9254717E-02
559.2554, 8.4551416E-02
561.1838, 9.0956673E-02
563.1123, 9.8882429E-02
565.0408, 0.1082096
566.9692, 0.1188431
568.8977, 0.1306222
570.8262, 0.1436343
572.7546, 0.1575382
574.6831, 0.1711910
576.6116, 0.1852571
578.5400, 0.1977028
580.4685, 0.2069718
582.3970, 0.2136492
584.3254, 0.2177604
586.2539, 0.2195791
588.1824, 0.2179014
590.1108, 0.2128491
592.0393, 0.2059001
593.9678, 0.1968160
595.8962, 0.1857573
597.8247, 0.1737974
599.7532, 0.1617242
601.6816, 0.1512610
603.6101, 0.1437346
605.5386, 0.1405592
607.4670, 0.1392537
609.3955, 0.1357353
611.3240, 0.1283553
613.2524, 0.1173188
615.1809, 0.1040220
617.1094, 9.0688348E-02
619.0378, 7.8882150E-02
620.9663, 6.8578683E-02
622.8948, 5.9793510E-02
624.8232, 5.3403310E-02
626.7517, 4.9334131E-02
628.6802, 4.6596508E-02
630.6086, 4.5048431E-02
632.5371, 4.5374390E-02
634.4656, 4.7027171E-02
636.3940, 5.0208941E-02
638.3225, 5.5826191E-02
640.2510, 6.4481661E-02
642.1794, 7.7004880E-02
644.1079, 9.4162941E-02
646.0364, 0.1132077
647.9648, 0.1275975
649.8933, 0.1301063
651.8218, 0.1196309
653.7502, 0.1018168
655.6787, 8.2965262E-02
657.6072, 6.6445991E-02
659.5356, 5.3886320E-02
661.4641, 4.4877861E-02
663.3926, 3.8937099E-02
665.3210, 3.5127331E-02
667.2495, 3.2674599E-02
669.1780, 3.0700160E-02
671.1064, 2.9712720E-02
673.0349, 2.9157920E-02
674.9634, 2.8571080E-02
676.8918, 2.8106909E-02
678.8203, 2.8169870E-02
680.7488, 2.8623730E-02
682.6772, 2.8879801E-02
684.6057, 2.9303269E-02
686.5342, 2.9771280E-02
688.4626, 3.0475970E-02
690.3911, 3.1625949E-02
692.3196, 3.2639131E-02
694.2480, 3.4000300E-02
696.1765, 3.5750061E-02
698.1050, 3.7643101E-02
700.0334, 3.9623179E-02
701.9619, 4.2141858E-02
703.8904, 4.5308739E-02
705.8188, 4.8754022E-02
707.7473, 5.3115390E-02
709.6758, 5.8888961E-02
711.6042, 6.6013977E-02
713.5327, 7.4723333E-02
715.4612, 8.4863313E-02
717.3896, 9.6841693E-02
719.3181, 0.1093578
721.2466, 0.1197960
723.1750, 0.1235933
725.1035, 0.1180170
727.0320, 0.1055398
728.9604, 9.2890367E-02
730.8889, 8.4981613E-02
732.8174, 8.3359323E-02
734.7458, 8.7945543E-02
736.6743, 9.7908467E-02
738.6028, 0.1116579
740.5313, 0.1254478
742.4597, 0.1344527
744.3882, 0.1337628
746.3167, 0.1239226
748.2451, 0.1109636
750.1736, 0.1001658
752.1021, 9.5369443E-02
754.0305, 9.7739793E-02
755.9590, 0.1068960
757.8875, 0.1201063
759.8159, 0.1316833
761.7444, 0.1336901
763.6729, 0.1233075
765.6013, 0.1048750
767.5298, 8.5019201E-02
769.4583, 6.9053739E-02
771.3867, 5.8910500E-02
773.3152, 5.3754121E-02
775.2437, 5.2304521E-02
777.1721, 5.4131720E-02
779.1006, 5.9537880E-02
781.0291, 6.8709761E-02
782.9575, 8.1499442E-02
784.8860, 9.5200904E-02
786.8145, 0.1032729
788.7429, 9.9320553E-02
790.6714, 8.4475748E-02
792.5999, 6.6414833E-02
794.5283, 5.1581491E-02
796.4568, 4.1526280E-02
798.3853, 3.5359722E-02
800.3137, 3.1421751E-02
802.2422, 2.8849700E-02
804.1707, 2.7025031E-02
806.0991, 2.5871690E-02
808.0276, 2.5159519E-02
809.9561, 2.4743740E-02
811.8845, 2.4256781E-02
813.8130, 2.3767270E-02
815.7415, 2.3681100E-02
817.6699, 2.3673249E-02
819.5984, 2.3673380E-02
821.5269, 2.3498110E-02
823.4553, 2.3617299E-02
825.3838, 2.3903679E-02
827.3123, 2.4029110E-02
829.2407, 2.4443280E-02
831.1692, 2.4770331E-02
833.0977, 2.5162119E-02
835.0261, 2.5822790E-02
836.9546, 2.6371101E-02
838.8831, 2.6795911E-02
840.8115, 2.7343310E-02
842.7400, 2.7978869E-02
844.6685, 2.8796090E-02
846.5969, 2.9673990E-02
848.5254, 3.0787241E-02
850.4539, 3.1829551E-02
852.3823, 3.2751091E-02
854.3108, 3.3706460E-02
856.2393, 3.4815371E-02
858.1677, 3.5891801E-02
860.0962, 3.6932360E-02
862.0247, 3.8276382E-02
863.9531, 3.9788749E-02
865.8816, 4.1124798E-02
867.8101, 4.2552710E-02
869.7385, 4.4177972E-02
871.6670, 4.5957431E-02
873.5955, 4.7531929E-02
875.5239, 4.9356330E-02
877.4524, 5.1083259E-02
879.3809, 5.2691899E-02
881.3093, 5.4604132E-02
883.2378, 5.7194661E-02
885.1663, 5.9592009E-02
887.0947, 6.1782040E-02
889.0232, 6.4190507E-02
890.9517, 6.7184083E-02
892.8801, 7.0285507E-02
894.8085, 7.3384181E-02
896.7370, 7.6840438E-02
898.6655, 8.0413356E-02
900.5939, 8.3961122E-02
902.5224, 8.7744199E-02
904.4509, 9.1816701E-02
906.3793, 9.6275449E-02
908.3078, 0.1009323
910.2363, 0.1059627
912.1647, 0.1112054
914.0932, 0.1170233
916.0217, 0.1231632
917.9501, 0.1294703
919.8786, 0.1361833
921.8071, 0.1430377
923.7355, 0.1503807
925.6640, 0.1584357
927.5925, 0.1668610
929.5209, 0.1756055
931.4494, 0.1848536
933.3779, 0.1947435
935.3063, 0.2054130
937.2348, 0.2165461
939.1633, 0.2282189
941.0917, 0.2407269
943.0202, 0.2539965
944.9487, 0.2680231
946.8771, 0.2826987
948.8056, 0.2979188
950.7341, 0.3137046
952.6625, 0.3299578
954.5910, 0.3462694
956.5195, 0.3623902
958.4479, 0.3786812
960.3764, 0.3954332
962.3049, 0.4128509
964.2333, 0.4301208
966.1618, 0.4466211
968.0903, 0.4626911
970.0187, 0.4784611
971.9472, 0.4924889
973.8757, 0.5038514
975.8041, 0.5125055
977.7326, 0.5187690
979.6611, 0.5228311
981.5895, 0.5248026
983.5180, 0.5244764
985.4465, 0.5225840
987.3749, 0.5188982
989.3034, 0.5130113
991.2319, 0.5058637
993.1603, 0.4973800
995.0888, 0.4872244
997.0173, 0.4759714
998.9457, 0.4636847
1000.874, 0.4512207
1002.803, 0.4389187
1004.731, 0.4271210
1006.660, 0.4160469
1008.588, 0.4055709
1010.517, 0.3961953
1012.445, 0.3879693
1014.373, 0.3810870
1016.302, 0.3756205
1018.230, 0.3708333
1020.159, 0.3663056
1022.087, 0.3631097
1024.016, 0.3613681
1025.944, 0.3607960
1027.873, 0.3602322
1029.801, 0.3581276
1031.730, 0.3533297
1033.658, 0.3450563
1035.587, 0.3330904
1037.515, 0.3186432
1039.444, 0.3029501
1041.372, 0.2865513
1043.301, 0.2700859
1045.229, 0.2541056
1047.157, 0.2387697
1049.086, 0.2246230
1051.014, 0.2120560
1052.943, 0.2014306
1054.871, 0.1927521
1056.800, 0.1860821
1058.728, 0.1810123
1060.657, 0.1771382
1062.585, 0.1740123
1064.514, 0.1715292
1066.442, 0.1694519
1068.371, 0.1670322
1070.299, 0.1648175
1072.228, 0.1630683
1074.156, 0.1610198
1076.084, 0.1594287
1078.013, 0.1589520
1079.941, 0.1594292
1081.870, 0.1612688
1083.798, 0.1651352
1085.727, 0.1714368
1087.655, 0.1798181
1089.584, 0.1898367
1091.512, 0.2001329
1093.441, 0.2086692
1095.369, 0.2139282
1097.298, 0.2151261
1099.226, 0.2129477
1101.155, 0.2085295
1103.083, 0.2038251
1105.011, 0.1998110
1106.940, 0.1961617
1108.868, 0.1924595
1110.797, 0.1884715
1112.725, 0.1842910
1114.654, 0.1801095
1116.582, 0.1763787
1118.511, 0.1734985
1120.439, 0.1714474
1122.368, 0.1703966
1124.296, 0.1703570
1126.225, 0.1715721
1128.153, 0.1738039
1130.082, 0.1768098
1132.010, 0.1805711
1133.938, 0.1847257
1135.867, 0.1887577
1137.795, 0.1926604
1139.724, 0.1965680
1141.652, 0.2003742
1143.581, 0.2028075
1145.509, 0.2038623
1147.438, 0.2040607
1149.366, 0.2033865
1151.295, 0.2012762
1153.223, 0.1980885
1155.152, 0.1936810
1157.080, 0.1883174
1159.009, 0.1817963
1160.937, 0.1743600
1162.865, 0.1662964
1164.794, 0.1578536
1166.722, 0.1497986
1168.651, 0.1421605
1170.579, 0.1345218
1172.508, 0.1272580
1174.436, 0.1203466
1176.365, 0.1138926
1178.293, 0.1077211
1180.222, 0.1016904
1182.150, 9.5668830E-02
1184.079, 8.9894868E-02
1186.007, 8.4220082E-02
1187.936, 7.8617088E-02
1189.864, 7.3113307E-02
1191.792, 6.7764074E-02
1193.721, 6.2696673E-02
1195.649, 5.8195759E-02
1197.578, 5.3922661E-02
1199.506, 4.9975570E-02
1201.435, 4.6456639E-02
1203.363, 4.3065540E-02
1205.292, 4.0187448E-02
1207.220, 3.7507959E-02
1209.149, 3.4686800E-02
1211.077, 3.2155018E-02
1213.006, 2.9923599E-02
1214.934, 2.7858660E-02
1216.863, 2.5676040E-02
1218.791, 2.3934150E-02
1220.719, 2.2453360E-02
1222.648, 2.0966301E-02
1224.576, 1.9651180E-02
1226.505, 1.8580390E-02
1228.433, 1.7632211E-02
1230.362, 1.6610369E-02
1232.290, 1.5794830E-02
1234.219, 1.5246110E-02
1236.147, 1.4529230E-02
1238.076, 1.3877960E-02
1240.004, 1.3321530E-02
1241.933, 1.2680070E-02
1243.861, 1.2130140E-02
1245.790, 1.1666010E-02
1247.718, 1.1375570E-02
1249.646, 1.0955260E-02
1251.575, 1.0307970E-02
1253.503, 1.0019210E-02
1255.432, 9.8093478E-03
1257.360, 9.3810773E-03
1259.289, 9.0425368E-03
1261.217, 8.8670142E-03
1263.146, 8.7860217E-03
1265.074, 8.7023731E-03
1267.003, 8.4201898E-03
1268.931, 8.0900304E-03
1270.860, 7.7754399E-03
1272.788, 7.6943059E-03
1274.717, 7.4818018E-03
1276.645, 7.2033131E-03
1278.573, 7.1599898E-03
1280.502, 7.1129431E-03
1282.430, 6.8760631E-03
1284.359, 6.7807701E-03
1286.287, 6.5916749E-03
1288.216, 6.3689821E-03
1290.144, 6.3179452E-03
1292.073, 6.2426189E-03
1294.001, 6.0414001E-03
1295.930, 6.1152079E-03
1297.858, 6.1330041E-03
1299.787, 5.9969779E-03
1301.715, 5.8976482E-03
1303.644, 5.7297261E-03
1305.572, 5.5970708E-03
1307.500, 5.6642769E-03
1309.429, 5.7104938E-03
1311.357, 5.7404549E-03
1313.286, 5.7056020E-03
1315.214, 5.6435140E-03
1317.143, 5.6807040E-03
1319.071, 5.7016020E-03
1321.000, 5.7277530E-03
1322.928, 5.7411608E-03
1324.857, 5.6914939E-03
1326.785, 5.7693999E-03
1328.714, 5.8313739E-03
1330.642, 5.8976938E-03
1332.571, 5.9608868E-03
1334.499, 5.9478912E-03
1336.427, 5.7545728E-03
1338.356, 5.8041280E-03
1340.284, 6.0174689E-03
1342.213, 6.0214540E-03
1344.141, 5.7569328E-03
1346.070, 5.8861449E-03
1347.998, 6.0262438E-03
1349.927, 5.9751240E-03
1351.855, 6.0813660E-03
1353.784, 6.2322840E-03
1355.712, 6.1910870E-03
1357.641, 6.3197389E-03
1359.569, 6.4180600E-03
1361.498, 6.3104262E-03
1363.426, 6.2388699E-03
1365.354, 6.1980910E-03
1367.283, 6.0153338E-03
1369.211, 6.0144700E-03
1371.140, 6.1039031E-03
1373.068, 6.2979809E-03
1374.997, 6.3352808E-03
1376.925, 6.1037070E-03
1378.854, 6.1127180E-03
1380.782, 6.4044320E-03
1382.711, 6.5248478E-03
1384.639, 6.4729149E-03
1386.568, 6.3523771E-03
1388.496, 6.2575391E-03
1390.424, 6.4458959E-03
1392.353, 6.4387489E-03
1394.281, 6.3288929E-03
1396.210, 6.4485441E-03
1398.138, 6.4174188E-03
1400.067, 6.3942499E-03
1401.995, 6.3892100E-03
1403.924, 6.3690422E-03
1405.852, 6.4227451E-03
1407.781, 6.3840882E-03
1409.709, 6.4671771E-03
1411.638, 6.3600340E-03
1413.566, 6.2320139E-03
1415.495, 6.3886442E-03
1417.423, 6.5306169E-03
1419.351, 6.6107069E-03
1421.280, 6.6216881E-03
1423.208, 6.6913059E-03
1425.137, 6.8287919E-03
1427.065, 6.7759799E-03
1428.994, 6.5690461E-03
1430.922, 6.5057999E-03
1432.851, 6.4339261E-03
1434.779, 6.3976762E-03
1436.708, 6.4624050E-03
1438.636, 6.5072989E-03
1440.565, 6.3826758E-03
1442.493, 6.3443850E-03
1444.422, 6.3849222E-03
1446.350, 6.4098588E-03
1448.278, 6.2597040E-03
1450.207, 6.2000970E-03
1452.135, 6.0382970E-03
1454.064, 5.9525389E-03
1455.992, 6.0309069E-03
1457.921, 6.0772779E-03
1459.849, 5.9500020E-03
1461.778, 5.9236879E-03
1463.706, 5.9354692E-03
1465.635, 6.0337819E-03
1467.563, 6.1175199E-03
1469.492, 6.0673081E-03
1471.420, 5.8538192E-03
1473.349, 5.7690241E-03
1475.277, 5.7291258E-03
1477.205, 5.8048698E-03
1479.134, 5.7145832E-03
1481.062, 5.7272818E-03
1482.991, 5.8250749E-03
1484.919, 5.8696391E-03
1486.848, 5.7085990E-03
1488.776, 5.5963239E-03
1490.705, 5.5438378E-03
1492.633, 5.5542020E-03
1494.562, 5.6489408E-03
1496.490, 5.6485781E-03
1498.419, 5.5135400E-03
1500.347, 5.5019851E-03
1502.276, 5.4552462E-03
1504.204, 5.5903709E-03
1506.132, 5.8220630E-03
1508.061, 5.8750939E-03
1509.989, 5.8130962E-03
1511.918, 5.8034370E-03
1513.846, 5.7765800E-03
1515.775, 5.7814061E-03
1517.703, 5.9074331E-03
1519.632, 5.8256811E-03
1521.560, 5.5770311E-03
1523.489, 5.5716778E-03
1525.417, 5.5783740E-03
1527.346, 5.6093121E-03
1529.274, 5.7856119E-03
1531.203, 5.8579589E-03
1533.131, 5.9702508E-03
1535.059, 5.9988531E-03
1536.988, 6.0439552E-03
1538.916, 6.2226970E-03
1540.845, 6.3906242E-03
1542.773, 6.5950742E-03
1544.702, 6.6553182E-03
1546.630, 6.6273469E-03
1548.559, 6.5305820E-03
1550.487, 6.5501272E-03
1552.416, 6.7691342E-03
1554.344, 6.7773340E-03
1556.273, 6.8583558E-03
1558.201, 7.4292258E-03
1560.130, 7.6656491E-03
1562.058, 7.6909862E-03
1563.986, 7.4909180E-03
1565.915, 7.5244969E-03
1567.843, 7.6011061E-03
1569.772, 7.7726841E-03
1571.700, 7.8733107E-03
1573.629, 7.9024872E-03
1575.557, 8.1296330E-03
1577.486, 8.4005026E-03
1579.414, 8.5797925E-03
1581.343, 8.7058870E-03
1583.271, 8.7064626E-03
1585.200, 9.0310853E-03
1587.128, 9.2840707E-03
1589.057, 9.2868134E-03
1590.985, 9.4770426E-03
1592.913, 9.6627753E-03
1594.842, 9.7418893E-03
1596.770, 9.7612897E-03
1598.699, 9.6692946E-03
1600.627, 9.6127698E-03
1602.556, 9.6056154E-03
1604.484, 9.5251705E-03
1606.413, 9.4775362E-03
1608.341, 9.7144833E-03
1610.270, 9.7635156E-03
1612.198, 9.6105514E-03
1614.127, 9.5800813E-03
1616.055, 9.6927183E-03
1617.984, 9.6096583E-03
1619.912, 9.4196489E-03
1621.840, 9.1780927E-03
1623.769, 9.0876287E-03
1625.697, 9.2048310E-03
1627.626, 9.2529589E-03
1629.554, 9.0519711E-03
1631.483, 8.8794483E-03
1633.411, 8.8653369E-03
1635.340, 8.8067297E-03
1637.268, 8.5225524E-03
1639.197, 8.4715234E-03
1641.125, 8.5141771E-03
1643.054, 8.5426392E-03
1644.982, 8.4095364E-03
1646.911, 8.3382893E-03
1648.839, 8.1143407E-03
1650.767, 7.8629348E-03
1652.696, 7.9924921E-03
1654.624, 8.0631347E-03
1656.553, 7.8160223E-03
1658.481, 7.6381559E-03
1660.410, 7.5892690E-03
1662.338, 7.6338202E-03
1664.267, 7.2854781E-03
1666.195, 7.2275610E-03
1668.124, 7.1964022E-03
1670.052, 7.1789022E-03
1671.981, 7.2609941E-03
1673.909, 7.0743300E-03
1675.838, 6.8309931E-03
1677.766, 6.7000939E-03
1679.694, 6.7348131E-03
1681.623, 6.6064680E-03
1683.551, 6.5739658E-03
1685.480, 6.5161320E-03
1687.408, 6.4331670E-03
1689.337, 6.4343079E-03
1691.265, 6.2596430E-03
1693.194, 6.2598200E-03
1695.122, 6.4373049E-03
1697.051, 6.5852040E-03
1698.979, 6.6853329E-03
1700.908, 6.6237128E-03
1702.836, 6.7421868E-03
1704.765, 6.7685768E-03
1706.693, 6.5395492E-03
1708.621, 6.3758418E-03
1710.550, 6.2746010E-03
1712.478, 6.3978452E-03
1714.407, 6.4268811E-03
1716.335, 6.5071932E-03
1718.264, 6.5807840E-03
1720.192, 6.7806528E-03
1722.121, 6.9526671E-03
1724.049, 6.9149621E-03
1725.978, 6.7670438E-03
1727.906, 6.6703921E-03
1729.835, 6.8759820E-03
1731.763, 7.3312931E-03
1733.692, 7.4703321E-03
1735.620, 7.4375779E-03
1737.548, 7.1896510E-03
1739.477, 7.0105800E-03
1741.405, 7.0376880E-03
1743.334, 6.7824600E-03
1745.262, 6.3880519E-03
1747.191, 6.3470639E-03
1749.119, 6.5211160E-03
1751.048, 6.4362609E-03
1752.976, 6.1874702E-03
1754.905, 5.9938752E-03
1756.833, 5.9109358E-03
1758.762, 5.8700922E-03
1760.690, 5.9182690E-03
1762.619, 6.0361740E-03
1764.547, 5.8612390E-03
1766.475, 5.9069851E-03
1768.404, 5.9065842E-03
1770.332, 5.9391530E-03
1772.261, 5.9273369E-03
1774.189, 5.7190112E-03
1776.118, 5.6173289E-03
1778.046, 5.5662231E-03
1779.975, 5.5898442E-03
1781.903, 5.6237322E-03
1783.832, 5.2605420E-03
1785.760, 5.3041768E-03
1787.689, 5.7400870E-03
1789.617, 6.0547050E-03
1791.546, 5.6667812E-03
1793.474, 5.4024830E-03
1795.402, 5.2809478E-03
1797.331, 5.3196582E-03
1799.259, 5.3792102E-03
1801.188, 5.3399070E-03
1803.116, 5.4728589E-03
1805.045, 5.4017450E-03
1806.973, 5.1527880E-03
1808.902, 5.1961150E-03
1810.830, 4.9528540E-03
1812.759, 4.6311361E-03
1814.687, 4.6886839E-03
1816.616, 4.7801989E-03
1818.544, 4.6074288E-03
1820.473, 4.4388720E-03
1822.401, 4.6117352E-03
1824.329, 4.7882730E-03
1826.258, 4.5847339E-03
1828.186, 4.1269129E-03
1830.115, 3.8937600E-03
1832.043, 4.0441570E-03
1833.972, 4.3409020E-03
1835.900, 4.3348861E-03
1837.829, 4.4972361E-03
1839.757, 4.3979920E-03
1841.686, 4.2939419E-03
1843.614, 4.8639649E-03
1845.543, 4.8310319E-03
1847.471, 4.0336070E-03
1849.400, 3.4365230E-03
1851.328, 3.8137049E-03
1853.256, 3.6670880E-03
1855.185, 3.9918842E-03
1857.113, 3.9594262E-03
1859.042, 3.8395601E-03
1860.970, 3.4972250E-03
1862.899, 3.0053039E-03
1864.827, 2.8610709E-03
1866.756, 3.1447059E-03
1868.684, 3.4893961E-03
1870.613, 3.8237269E-03
1872.541, 3.1688400E-03
1874.470, 2.8952491E-03
1876.398, 3.4852561E-03
1878.327, 3.8215481E-03
1880.255, 3.4419301E-03
1882.183, 3.0043661E-03
1884.112, 2.9367071E-03
1886.040, 3.0164190E-03
1887.969, 3.0664059E-03
1889.897, 2.5464410E-03
1891.826, 2.3301251E-03
1893.754, 2.5929289E-03
1895.683, 2.2900910E-03
1897.611, 1.6758260E-03
1899.540, 1.3348920E-03
1901.468, 1.9893930E-03
1903.397, 2.5918970E-03
1905.325, 2.6943991E-03
1907.254, 2.1181591E-03
1909.182, 1.7193870E-03
1911.110, 1.8738731E-03
1913.039, 1.7050130E-03
1914.967, 1.6264960E-03
1916.896, 1.5478260E-03
1918.824, 8.9751079E-04
1920.753, 1.0503770E-03
1922.681, 8.3394820E-04
1924.610, 5.8535929E-04
1926.538, 1.0687530E-03
1928.467, 8.6114713E-04
1930.395, 1.4930010E-04
1932.324, -3.6224321E-04
1934.252, -7.4618403E-04
1936.181, -8.8818482E-04
1938.109, -9.8368479E-04
1940.037, -8.7845977E-04
1941.966, -1.9844500E-03
1943.894, -2.5927951E-03
1945.823, -2.2592051E-03
1947.751, -2.2248200E-03
1949.680, -3.0537210E-03
1951.608, -3.8910459E-03
1953.537, -4.0863608E-03
1955.465, -4.3950779E-03
1957.394, -5.0230431E-03
1959.322, -4.0936810E-03
1961.251, -4.1934210E-03
1963.179, -5.0170030E-03
1965.108, -4.7206888E-03
1967.036, -3.5605561E-03
1968.964, -3.9263638E-03
1970.893, -5.1485011E-03
1972.821, -5.8380431E-03
1974.750, -5.2126222E-03
1976.678, -4.2088102E-03
1978.607, -4.4078920E-03
1980.535, -4.5899469E-03
1982.464, -4.7114282E-03
1984.392, -3.9577181E-03
1986.321, -4.5232880E-03
1988.249, -4.4031562E-03
1990.178, -2.5457209E-03
1992.106, -3.7065661E-03
1994.035, -4.9851718E-03
1995.963, -4.0848679E-03
1997.891, -3.6684200E-03
1999.820, -4.2005838E-03
2001.748, -4.0499028E-03
2003.677, -4.7201780E-03
2005.605, -6.1145672E-03
2007.534, -6.0459352E-03
2009.462, -5.3450810E-03
2011.391, -4.7113709E-03
2013.319, -5.1639718E-03
2015.248, -7.6241242E-03
2017.176, -6.9002951E-03
2019.105, -6.9789728E-03
2021.033, -7.9260413E-03
2022.962, -7.9380553E-03
2024.890, -6.8293568E-03
2026.818, -6.6285278E-03
2028.747, -6.3806758E-03
2030.675, -7.1076080E-03
2032.604, -5.3184768E-03
2034.532, -3.2558050E-03
2036.461, -2.9836160E-03
2038.389, -3.3412429E-03
2040.318, -2.1798429E-03
2042.246, -1.5402030E-03
2044.175, -2.0887591E-03
2046.103, -2.7120230E-03
2048.032, -1.9170690E-03
2049.960, -1.3708620E-03
2051.889, -2.4089999E-03
2053.817, -2.7166160E-03
2055.746, -1.5596320E-03
2057.674, -1.3411660E-03
2059.603, -1.0198550E-03
2061.531, -1.7355090E-04
2063.459, -1.0726730E-04
2065.388, -1.2112110E-04
2067.316, -2.4279450E-04
2069.245, -5.3037959E-04
2071.173, -2.4050320E-04
2073.102, -6.2980648E-04
2075.030, -6.8123348E-04
2076.959, -2.4842970E-05
2078.887, 6.3883042E-04
2080.816, 5.9892400E-04
2082.744, 3.5747199E-04
2084.673, -4.5073140E-04
2086.601, 7.8125731E-06
2088.530, 2.9623049E-04
2090.458, 4.6010761E-04
2092.386, -4.8945109E-05
2094.315, -1.2000561E-03
2096.243, -8.5024291E-04
2098.172, 6.8364688E-04
2100.100, 1.3239071E-03
2102.029, 1.4310090E-03
2103.957, 1.3012750E-03
2105.886, 1.2434950E-03
2107.814, 1.5988550E-03
2109.743, 1.7739300E-03
2111.671, 1.2115299E-03
2113.600, 1.3545090E-03
2115.528, 9.1626088E-04
2117.457, 6.5440353E-04
2119.385, 8.7716192E-04
2121.313, 1.0848960E-03
2123.242, 5.5636739E-04
2125.170, 2.2789260E-04
2127.099, 3.0430959E-04
2129.027, -7.1890920E-04
2130.956, -1.6943620E-03
2132.884, -2.7748379E-03
2134.813, -2.2127770E-03
2136.741, -9.4114750E-04
2138.670, -7.2039489E-04
2140.598, -1.7563280E-03
2142.527, -2.2637600E-03
2144.455, -1.1584620E-03
2146.384, -1.5111770E-03
2148.312, -2.5787121E-03
2150.240, -4.8324270E-03
2152.169, -4.7685830E-03
2154.097, -5.0183800E-03
2156.026, -6.2637469E-03
2157.954, -4.8509720E-03
2159.883, -1.8311510E-03
2161.811, 6.6166028E-04
2163.740, 1.8503640E-03
2165.668, 1.3382930E-03
2167.597, -6.4638449E-04
2169.525, -3.0248819E-03
2171.454, -3.4736970E-03
2173.382, -2.6508151E-03
2175.311, -2.1814080E-03
2177.239, -1.9262140E-03
2179.167, -3.1365640E-03
2181.096, -4.5648091E-03
2183.024, -2.7326830E-03
2184.953, -2.2857650E-03
2186.881, -2.5738471E-03
2188.810, -2.5032070E-03
2190.738, -1.8930980E-03
2192.667, -1.2652640E-03
2194.595, -6.2238949E-04
2196.524, -7.0293841E-04
2198.452, -1.0823520E-03
2200.381, 3.0548730E-05
2202.309, 1.0836551E-03
2204.238, -3.6297861E-05
2206.166, -9.1150359E-05
2208.094, 1.4972070E-03
2210.023, 2.0799211E-03
2211.951, 1.2623121E-03
2213.880, 6.2555302E-04
2215.808, 9.0362079E-04
2217.737, 5.5068888E-04
2219.665, -1.1035950E-03
2221.594, -1.6974340E-03
2223.522, -4.3782059E-04
2225.451, 3.1734741E-04
2227.379, -4.8903649E-04
2229.308, -1.4262470E-04
2231.236, -6.2690488E-05
2233.165, 1.1542490E-03
2235.093, 2.1685329E-03
2237.021, 2.6261900E-03
2238.950, 2.8720240E-03
2240.878, 2.6417361E-03
2242.807, 2.4021631E-03
2244.735, 2.9182369E-03
2246.664, 2.7613491E-03
2248.592, 2.8574930E-03
2250.521, 2.7411880E-03
2252.449, 1.9033439E-03
2254.378, 2.6807950E-03
2256.306, 4.2106500E-03
2258.235, 3.9530001E-03
2260.163, 2.8458340E-03
2262.092, 2.0926450E-03
2264.020, 2.8357939E-03
2265.948, 4.4865580E-03
2267.877, 4.3788129E-03
2269.805, 3.4956080E-03
2271.734, 3.2329429E-03
2273.662, 4.2026378E-03
2275.591, 4.2623142E-03
2277.519, 4.4839969E-03
2279.448, 5.3051040E-03
2281.376, 5.1514539E-03
2283.305, 4.8745419E-03
2285.233, 4.7597340E-03
2287.162, 4.4506071E-03
2289.090, 4.6984181E-03
2291.019, 5.0010951E-03
2292.947, 5.1749088E-03
2294.875, 5.8765900E-03
2296.804, 5.9696441E-03
2298.732, 5.2733379E-03
2300.661, 4.4211322E-03
2302.589, 4.2508980E-03
2304.518, 4.6190759E-03
2306.446, 4.9860012E-03
2308.375, 4.8938598E-03
2310.303, 5.3190431E-03
2312.232, 5.4569701E-03
2314.160, 5.7148100E-03
2316.089, 6.4762882E-03
2318.017, 6.9776918E-03
2319.946, 6.9651520E-03
2321.874, 7.1371221E-03
2323.802, 7.3520518E-03
2325.731, 6.9896602E-03
2327.659, 6.3381200E-03
2329.588, 6.2050428E-03
2331.516, 6.2809139E-03
2333.445, 6.5862192E-03
2335.373, 6.4876140E-03
2337.302, 5.9729242E-03
2339.230, 5.6414860E-03
2341.159, 6.0749380E-03
2343.087, 6.1863209E-03
2345.016, 5.9635630E-03
2346.944, 5.7396968E-03
2348.873, 6.3730930E-03
2350.801, 6.7159622E-03
2352.729, 6.5182541E-03
2354.658, 6.5681180E-03
2356.586, 6.5835570E-03
2358.515, 6.7802430E-03
2360.443, 7.0153112E-03
2362.372, 6.6194138E-03
2364.300, 5.9743882E-03
2366.229, 5.8022351E-03
2368.157, 5.8584930E-03
2370.086, 6.0298452E-03
2372.014, 6.5017631E-03
2373.942, 6.6820770E-03
2375.871, 6.6955080E-03
2377.799, 6.3887900E-03
2379.728, 6.1452729E-03
2381.656, 5.9229210E-03
2383.585, 5.8542448E-03
2385.513, 6.1923359E-03
2387.442, 6.4693820E-03
2389.370, 6.0367822E-03
2391.299, 5.7912800E-03
2393.227, 6.1964062E-03
2395.156, 6.8795839E-03
2397.084, 6.8110912E-03
2399.012, 6.6442420E-03
2400.941, 6.9423290E-03
2402.869, 7.4030892E-03
2404.798, 7.6312600E-03
2406.726, 7.4945642E-03
2408.655, 6.7409072E-03
2410.583, 6.7031360E-03
2412.512, 6.7416448E-03
2414.440, 6.7405119E-03
2416.369, 7.0806802E-03
2418.297, 7.7464222E-03
2420.226, 7.8308033E-03
2422.154, 7.7677518E-03
2424.083, 7.7449689E-03
2426.011, 7.6659461E-03
2427.939, 7.2539821E-03
2429.868, 7.5752232E-03
2431.796, 7.2191809E-03
2433.725, 7.5339680E-03
2435.653, 7.3007569E-03
2437.582, 7.0826700E-03
2439.510, 7.5315260E-03
2441.439, 7.5554042E-03
2443.367, 7.3487428E-03
2445.296, 7.6334388E-03
2447.224, 7.7605848E-03
2449.153, 8.1083681E-03
2451.081, 8.4947832E-03
2453.010, 8.6488677E-03
2454.938, 7.9267267E-03
2456.866, 7.5104232E-03
2458.795, 8.0576260E-03
2460.723, 7.8680329E-03
2462.652, 7.3984461E-03
2464.580, 7.8138970E-03
2466.509, 7.9821199E-03
2468.437, 8.2666660E-03
2470.366, 8.9244721E-03
2472.294, 8.7464284E-03
2474.223, 8.6682057E-03
2476.151, 8.6006913E-03
2478.080, 8.3543137E-03
2480.008, 8.5284421E-03
2481.937, 7.9770349E-03
2483.865, 7.6994631E-03
2485.793, 8.1333220E-03
2487.722, 8.5135112E-03
2489.650, 8.8962400E-03
2491.579, 8.6730858E-03
2493.507, 8.2710302E-03
2495.436, 7.8899842E-03
2497.364, 7.5016469E-03
2499.293, 7.3360950E-03
2501.221, 6.8559232E-03
2503.150, 7.1585509E-03
2505.078, 8.0145365E-03
2507.007, 8.8294540E-03
2508.935, 8.8296253E-03
2510.864, 8.8797743E-03
2512.792, 8.4873671E-03
2514.720, 7.8918720E-03
2516.649, 8.0686091E-03
2518.577, 8.2800239E-03
2520.506, 8.5474243E-03
2522.434, 8.9924876E-03
2524.363, 8.6056041E-03
2526.291, 8.5438453E-03
2528.220, 8.8851620E-03
2530.148, 8.6259181E-03
2532.077, 7.4710110E-03
2534.005, 7.3204078E-03
2535.934, 7.5297672E-03
2537.862, 7.8735333E-03
2539.791, 8.0029294E-03
2541.719, 8.5864291E-03
2543.647, 8.6925831E-03
2545.576, 8.8676782E-03
2547.504, 8.9630634E-03
2549.433, 9.4368802E-03
2551.361, 9.2101730E-03
2553.290, 8.2679046E-03
2555.218, 8.6798156E-03
2557.147, 9.0090334E-03
2559.075, 8.8356426E-03
2561.004, 8.5251871E-03
2562.932, 8.5597616E-03
2564.861, 9.3162348E-03
2566.789, 9.3121761E-03
2568.718, 9.3756476E-03
2570.646, 9.2037823E-03
2572.574, 9.0526436E-03
2574.503, 9.2530269E-03
2576.431, 9.2316400E-03
2578.360, 9.3268463E-03
2580.288, 9.3614962E-03
2582.217, 9.8945601E-03
2584.145, 1.0370320E-02
2586.074, 1.0392250E-02
2588.002, 1.0100320E-02
2589.931, 9.4043538E-03
2591.859, 9.7103380E-03
2593.788, 9.9770483E-03
2595.716, 9.6498374E-03
2597.645, 9.8179644E-03
2599.573, 9.9388203E-03
2601.501, 9.4310697E-03
2603.430, 9.5333150E-03
2605.358, 9.5243566E-03
2607.287, 9.6595688E-03
2609.215, 1.0144810E-02
2611.144, 1.0274270E-02
2613.072, 1.0334810E-02
2615.001, 1.0129890E-02
2616.929, 1.0158880E-02
2618.858, 1.0154990E-02
2620.786, 1.0559090E-02
2622.715, 1.1060600E-02
2624.643, 1.1194400E-02
2626.572, 1.0906310E-02
2628.500, 1.0488640E-02
2630.428, 1.0411630E-02
2632.357, 1.0756600E-02
2634.285, 1.1047700E-02
2636.214, 1.0918830E-02
2638.142, 1.0637390E-02
2640.071, 1.0486700E-02
2641.999, 1.0706140E-02
2643.928, 1.0743750E-02
2645.856, 1.0452970E-02
2647.785, 1.0416410E-02
2649.713, 1.0793320E-02
2651.642, 1.0960640E-02
2653.570, 1.1141190E-02
2655.499, 1.1135160E-02
2657.427, 1.0591180E-02
2659.355, 9.8623391E-03
2661.284, 9.9926721E-03
2663.212, 1.0238660E-02
2665.141, 9.7181462E-03
2667.069, 9.8157246E-03
2668.998, 1.0010750E-02
2670.926, 9.6708816E-03
2672.855, 9.5095392E-03
2674.783, 9.8023741E-03
2676.712, 1.0130940E-02
2678.640, 9.8997522E-03
2680.569, 1.0121530E-02
2682.497, 1.0030550E-02
2684.426, 9.6379658E-03
2686.354, 9.6522504E-03
2688.282, 9.8488806E-03
2690.211, 9.8806666E-03
2692.139, 9.6058520E-03
2694.068, 9.1777453E-03
2695.996, 9.2917290E-03
2697.925, 9.7242901E-03
2699.853, 9.7991657E-03
2701.782, 9.9663194E-03
2703.710, 1.0444160E-02
2705.639, 1.0624010E-02
2707.567, 1.0077240E-02
2709.496, 9.8223938E-03
2711.424, 1.0206220E-02
2713.353, 1.0133500E-02
2715.281, 9.9795489E-03
2717.209, 9.8978402E-03
2719.138, 1.0309690E-02
2721.066, 1.0425700E-02
2722.995, 1.0282450E-02
2724.923, 9.9507049E-03
2726.852, 9.7158626E-03
2728.780, 1.0251580E-02
2730.709, 1.0238480E-02
2732.637, 9.8250294E-03
2734.566, 1.0200390E-02
2736.494, 1.0306720E-02
2738.423, 1.0036780E-02
2740.351, 9.6862400E-03
2742.280, 1.0006570E-02
2744.208, 1.0663990E-02
2746.136, 1.0882840E-02
2748.065, 1.0476500E-02
2749.993, 1.0202520E-02
2751.922, 1.0269910E-02
2753.850, 1.0489170E-02
2755.779, 1.0685460E-02
2757.707, 1.0636880E-02
2759.636, 1.0801810E-02
2761.564, 1.0637080E-02
2763.493, 1.0221290E-02
2765.421, 1.0698620E-02
2767.350, 1.0812670E-02
2769.278, 1.0544510E-02
2771.207, 1.0258530E-02
2773.135, 1.0221090E-02
2775.063, 1.0417580E-02
2776.992, 1.1135310E-02
2778.920, 1.0946510E-02
2780.849, 1.0595630E-02
2782.777, 1.0244920E-02
2784.706, 1.0459080E-02
2786.634, 1.0864540E-02
2788.563, 1.0981700E-02
2790.491, 1.1086800E-02
2792.420, 1.0942640E-02
2794.348, 1.0807640E-02
2796.277, 1.0995160E-02
2798.205, 1.1031930E-02
2800.134, 1.0653670E-02
2802.062, 1.0596570E-02
2803.990, 1.0894430E-02
2805.919, 1.1069940E-02
2807.847, 1.1139140E-02
2809.776, 1.0941990E-02
2811.704, 1.1026770E-02
2813.633, 1.1317430E-02
2815.561, 1.1706780E-02
2817.490, 1.1614040E-02
2819.418, 1.1173440E-02
2821.347, 1.0459790E-02
2823.275, 1.0546950E-02
2825.204, 1.1199680E-02
2827.132, 1.1442830E-02
2829.061, 1.1443440E-02
2830.989, 1.2042280E-02
2832.917, 1.2233060E-02
2834.846, 1.1628030E-02
2836.774, 1.1313280E-02
2838.703, 1.1980020E-02
2840.631, 1.1984070E-02
2842.560, 1.1408590E-02
2844.488, 1.0983780E-02
2846.417, 1.0987710E-02
2848.345, 1.0734850E-02
2850.274, 1.0932940E-02
2852.202, 1.1608690E-02
2854.131, 1.2048380E-02
2856.059, 1.2172530E-02
2857.988, 1.1774860E-02
2859.916, 1.1618560E-02
2861.844, 1.1668130E-02
2863.773, 1.1693430E-02
2865.701, 1.2269820E-02
2867.630, 1.2127810E-02
2869.558, 1.1550920E-02
2871.487, 1.1608240E-02
2873.415, 1.1800840E-02
2875.344, 1.2211040E-02
2877.272, 1.2850650E-02
2879.201, 1.2540170E-02
2881.129, 1.1900280E-02
2883.058, 1.2222000E-02
2884.986, 1.2820100E-02
2886.915, 1.2567580E-02
2888.843, 1.2199650E-02
2890.771, 1.2111750E-02
2892.700, 1.1916620E-02
2894.628, 1.2090440E-02
2896.557, 1.2523480E-02
2898.485, 1.2912600E-02
2900.414, 1.2894290E-02
2902.342, 1.2690020E-02
2904.271, 1.2409980E-02
2906.199, 1.1692490E-02
2908.128, 1.1444100E-02
2910.056, 1.1929420E-02
2911.985, 1.2019930E-02
2913.913, 1.1905760E-02
2915.842, 1.2626960E-02
2917.770, 1.2975950E-02
2919.698, 1.2497980E-02
2921.627, 1.2136160E-02
2923.555, 1.1794090E-02
2925.484, 1.1257230E-02
2927.412, 1.1755310E-02
2929.341, 1.2851590E-02
2931.269, 1.3890540E-02
2933.198, 1.3757610E-02
2935.126, 1.3643280E-02
2937.055, 1.2997120E-02
2938.983, 1.2237840E-02
2940.912, 1.1516970E-02
2942.840, 1.1636990E-02
2944.769, 1.2600270E-02
2946.697, 1.3512440E-02
2948.625, 1.3352150E-02
2950.554, 1.2917900E-02
2952.482, 1.2918340E-02
2954.411, 1.2970580E-02
2956.339, 1.3195170E-02
2958.268, 1.4039090E-02
2960.196, 1.4160790E-02
2962.125, 1.4371080E-02
2964.053, 1.4026330E-02
2965.982, 1.3818000E-02
2967.910, 1.3804920E-02
2969.839, 1.4081070E-02
2971.767, 1.3654270E-02
2973.696, 1.2301210E-02
2975.624, 1.1945730E-02
2977.552, 1.2257510E-02
2979.481, 1.3075560E-02
2981.409, 1.3639670E-02
2983.338, 1.3139820E-02
2985.266, 1.3055090E-02
2987.195, 1.2677550E-02
2989.123, 1.2499530E-02
2991.052, 1.2686120E-02
2992.980, 1.2754580E-02
2994.909, 1.3119410E-02
2996.837, 1.3659170E-02
2998.766, 1.3596870E-02
3000.694, 1.3226000E-02
3002.623, 1.3263550E-02
3004.551, 1.3334930E-02
3006.479, 1.2994210E-02
3008.408, 1.2453460E-02
3010.336, 1.2774460E-02
3012.265, 1.3497430E-02
3014.193, 1.3772700E-02
3016.122, 1.3968560E-02
3018.050, 1.3566190E-02
3019.979, 1.3306760E-02
3021.907, 1.2892820E-02
3023.836, 1.3622570E-02
3025.764, 1.4337010E-02
3027.693, 1.4061790E-02
3029.621, 1.4272680E-02
3031.550, 1.3671930E-02
3033.478, 1.2998830E-02
3035.406, 1.3572360E-02
3037.335, 1.4376780E-02
3039.263, 1.3884190E-02
3041.192, 1.3613910E-02
3043.120, 1.4202040E-02
3045.049, 1.4506720E-02
3046.977, 1.4710580E-02
3048.906, 1.4529590E-02
3050.834, 1.4649780E-02
3052.763, 1.5128870E-02
3054.691, 1.5020600E-02
3056.620, 1.4924070E-02
3058.548, 1.4881010E-02
3060.477, 1.4889060E-02
3062.405, 1.4432250E-02
3064.333, 1.4577660E-02
3066.262, 1.4676300E-02
3068.190, 1.4798600E-02
3070.119, 1.5176710E-02
3072.047, 1.4951320E-02
3073.976, 1.4895610E-02
3075.904, 1.4445080E-02
3077.833, 1.4508460E-02
3079.761, 1.4995370E-02
3081.690, 1.4217120E-02
3083.618, 1.3854830E-02
3085.547, 1.4718260E-02
3087.475, 1.5201150E-02
3089.404, 1.5755130E-02
3091.332, 1.5421130E-02
3093.260, 1.4867080E-02
3095.189, 1.4738340E-02
3097.117, 1.5984800E-02
3099.046, 1.6455270E-02
3100.974, 1.6741270E-02
3102.903, 1.6683601E-02
3104.831, 1.5381400E-02
3106.760, 1.4716310E-02
3108.688, 1.5455310E-02
3110.617, 1.6027249E-02
3112.545, 1.6410541E-02
3114.474, 1.6962741E-02
3116.402, 1.7205801E-02
3118.331, 1.6826710E-02
3120.259, 1.6425470E-02
3122.188, 1.6161099E-02
3124.116, 1.6235819E-02
3126.044, 1.5354280E-02
3127.973, 1.5425390E-02
3129.901, 1.6687030E-02
3131.830, 1.8079439E-02
3133.758, 1.7121600E-02
3135.687, 1.6012499E-02
3137.615, 1.6262099E-02
3139.544, 1.6400330E-02
3141.472, 1.6348030E-02
3143.401, 1.6559420E-02
3145.329, 1.6861280E-02
3147.258, 1.7509241E-02
3149.186, 1.6974080E-02
3151.115, 1.6235281E-02
3153.043, 1.7330650E-02
3154.971, 1.7628610E-02
3156.900, 1.6900010E-02
3158.828, 1.6937360E-02
3160.757, 1.7325319E-02
3162.685, 1.7694110E-02
3164.614, 1.7685460E-02
3166.542, 1.8380420E-02
3168.471, 1.8784270E-02
3170.399, 1.7795149E-02
3172.328, 1.7385449E-02
3174.256, 1.8089371E-02
3176.185, 1.7897880E-02
3178.113, 1.7000889E-02
3180.042, 1.6981760E-02
3181.970, 1.7886160E-02
3183.898, 1.8009320E-02
3185.827, 1.7767120E-02
3187.755, 1.8517150E-02
3189.684, 1.8588981E-02
3191.612, 1.7816950E-02
3193.541, 1.8048000E-02
3195.469, 1.8028541E-02
3197.398, 1.7378541E-02
3199.326, 1.8102599E-02
3201.255, 1.8784130E-02
3203.183, 1.8243460E-02
3205.112, 1.7928779E-02
3207.040, 1.8534509E-02
3208.969, 1.9093459E-02
3210.897, 1.9418290E-02
3212.825, 1.8884931E-02
3214.754, 1.7926279E-02
3216.682, 1.7291920E-02
3218.611, 1.8102709E-02
3220.539, 1.9115999E-02
3222.468, 1.8542949E-02
3224.396, 1.8014470E-02
3226.325, 1.8669041E-02
3228.253, 1.9002290E-02
3230.182, 1.9370180E-02
3232.110, 1.9548319E-02
3234.039, 2.0096211E-02
3235.967, 1.9438900E-02
3237.896, 1.8087169E-02
3239.824, 1.8031720E-02
3241.752, 1.9433031E-02
3243.681, 2.0514760E-02
3245.609, 1.9507840E-02
3247.538, 1.8411810E-02
3249.466, 1.8444991E-02
3251.395, 1.8932240E-02
3253.323, 1.9382941E-02
3255.252, 1.9074950E-02
3257.180, 1.9582851E-02
3259.109, 2.0050010E-02
3261.037, 2.0181119E-02
3262.966, 2.0290110E-02
3264.894, 2.0010561E-02
3266.823, 1.9777261E-02
3268.751, 1.9430280E-02
3270.679, 1.9819399E-02
3272.608, 1.9906409E-02
3274.536, 1.9211380E-02
3276.465, 1.9096481E-02
3278.393, 1.9982461E-02
3280.322, 1.9635590E-02
3282.250, 1.9573370E-02
3284.179, 2.0269800E-02
3286.107, 2.0629421E-02
3288.036, 2.0593220E-02
3289.964, 2.0881040E-02
3291.893, 2.0688871E-02
3293.821, 1.9794520E-02
3295.750, 1.9386970E-02
3297.678, 1.9495999E-02
3299.606, 1.9085100E-02
3301.535, 1.9490641E-02
3303.463, 1.9641390E-02
3305.392, 2.0060290E-02
3307.320, 2.0335050E-02
3309.249, 2.0223020E-02
3311.177, 2.0302679E-02
3313.106, 2.0419391E-02
3315.034, 2.0201230E-02
3316.963, 1.9726001E-02
3318.891, 1.9294500E-02
3320.820, 1.9469080E-02
3322.748, 1.9843999E-02
3324.677, 2.0680441E-02
3326.605, 1.9892629E-02
3328.533, 2.0102540E-02
3330.462, 2.1079959E-02
3332.390, 2.0903390E-02
3334.319, 2.0798029E-02
3336.247, 2.0654630E-02
3338.176, 2.1649851E-02
3340.104, 2.1428719E-02
3342.033, 2.0543089E-02
3343.961, 2.0374700E-02
3345.890, 1.9592131E-02
3347.818, 1.9836290E-02
3349.747, 2.0818030E-02
3351.675, 2.1368610E-02
3353.604, 2.0326510E-02
3355.532, 1.9797459E-02
3357.460, 2.0333311E-02
3359.389, 2.0491051E-02
3361.317, 2.0215839E-02
3363.246, 2.0009831E-02
3365.174, 2.0494450E-02
3367.103, 2.2163520E-02
3369.031, 2.2177471E-02
3370.960, 2.1486679E-02
3372.888, 2.1216501E-02
3374.817, 2.0973500E-02
3376.745, 1.9678909E-02
3378.674, 1.9619809E-02
3380.602, 2.0590680E-02
3382.531, 2.0822721E-02
3384.459, 2.0459400E-02
3386.387, 2.0949461E-02
3388.316, 2.1362750E-02
3390.244, 2.1058779E-02
3392.173, 1.9970350E-02
3394.101, 2.0126261E-02
3396.030, 2.0620409E-02
3397.958, 2.1063181E-02
3399.887, 2.0319881E-02
3401.815, 2.0217819E-02
3403.744, 2.0636020E-02
3405.672, 2.1009240E-02
3407.601, 2.1283651E-02
3409.529, 2.0807199E-02
3411.458, 2.1699740E-02
3413.386, 2.2474030E-02
3415.314, 2.1991281E-02
3417.243, 2.2106441E-02
3419.171, 2.0759771E-02
3421.100, 2.0127550E-02
3423.028, 2.0989999E-02
3424.957, 2.1598600E-02
3426.885, 2.1579430E-02
3428.814, 2.1405419E-02
3430.742, 2.0568140E-02
3432.671, 2.1181909E-02
3434.599, 2.1482760E-02
3436.528, 2.1623280E-02
3438.456, 2.1103671E-02
3440.385, 2.1387110E-02
3442.313, 2.2262020E-02
3444.241, 2.2629680E-02
3446.170, 2.2497570E-02
3448.098, 2.1385809E-02
3450.027, 2.1252600E-02
3451.955, 2.1901630E-02
3453.884, 2.1312920E-02
3455.812, 2.1416690E-02
3457.741, 2.2483440E-02
3459.669, 2.1833790E-02
3461.598, 2.1248030E-02
3463.526, 2.1463919E-02
3465.455, 2.1716990E-02
3467.383, 2.1980859E-02
3469.312, 2.1376880E-02
3471.240, 1.9925511E-02
3473.168, 1.9940540E-02
3475.097, 1.9692261E-02
3477.025, 1.9029740E-02
3478.954, 2.0752819E-02
3480.882, 2.2185581E-02
3482.811, 2.0415399E-02
3484.739, 1.7918330E-02
3486.668, 1.8712521E-02
3488.596, 2.1150110E-02
3490.525, 2.1191470E-02
3492.453, 1.9569170E-02
3494.382, 1.9173980E-02
3496.310, 1.9379679E-02
3498.239, 1.9706201E-02
3500.167, 1.9353250E-02
3502.095, 1.9361090E-02
3504.024, 2.0218750E-02
3505.952, 2.0339360E-02
3507.881, 1.9194851E-02
3509.809, 1.9474760E-02
3511.738, 1.9599309E-02
3513.666, 1.9686259E-02
3515.595, 2.0196520E-02
3517.523, 1.9456889E-02
3519.452, 1.9022940E-02
3521.380, 1.9823089E-02
3523.309, 2.0226991E-02
3525.237, 1.8523401E-02
3527.166, 1.8762330E-02
3529.094, 1.9723780E-02
3531.022, 1.9175520E-02
3532.951, 1.9326931E-02
3534.879, 2.0250689E-02
3536.808, 2.0304490E-02
3538.736, 1.9234030E-02
3540.665, 1.8781880E-02
3542.593, 1.8482490E-02
3544.522, 1.9533079E-02
3546.450, 1.9836489E-02
3548.379, 1.9772129E-02
3550.307, 2.0211181E-02
3552.236, 2.0750901E-02
3554.164, 2.0100100E-02
3556.093, 1.8649630E-02
3558.021, 1.8507499E-02
3559.949, 1.8416179E-02
3561.878, 1.9017940E-02
3563.806, 1.8643120E-02
3565.735, 1.8411910E-02
3567.663, 1.9002400E-02
3569.592, 1.8848170E-02
3571.520, 1.8467180E-02
3573.449, 1.8356251E-02
3575.377, 1.7771089E-02
3577.306, 1.6113110E-02
3579.234, 1.6394081E-02
3581.163, 1.7222030E-02
3583.091, 1.7251721E-02
3585.020, 1.7770950E-02
3586.948, 1.8221879E-02
3588.876, 1.8206410E-02
3590.805, 1.8259170E-02
3592.733, 1.8654199E-02
3594.662, 1.8326269E-02
3596.590, 1.7474210E-02
3598.519, 1.7053431E-02
3600.447, 1.6423119E-02
3602.376, 1.6682830E-02
3604.304, 1.5983859E-02
3606.233, 1.5137870E-02
3608.161, 1.6461691E-02
3610.090, 1.6774530E-02
3612.018, 1.6172601E-02
3613.947, 1.5900331E-02
3615.875, 1.4380370E-02
3617.803, 1.4676230E-02
3619.732, 1.5898770E-02
3621.660, 1.5263820E-02
3623.589, 1.5270730E-02
3625.517, 1.6122110E-02
3627.446, 1.5956691E-02
3629.374, 1.6877150E-02
3631.303, 1.6596939E-02
3633.231, 1.5057820E-02
3635.160, 1.4865540E-02
3637.088, 1.5678240E-02
3639.017, 1.5585480E-02
3640.945, 1.4668670E-02
3642.874, 1.5216720E-02
3644.802, 1.4226080E-02
3646.730, 1.3404520E-02
3648.659, 1.3734980E-02
3650.587, 1.3902080E-02
3652.516, 1.4489570E-02
3654.444, 1.5852479E-02
3656.373, 1.5801379E-02
3658.301, 1.4172120E-02
3660.230, 1.4916160E-02
3662.158, 1.5326430E-02
3664.087, 1.4214870E-02
3666.015, 1.3417700E-02
3667.944, 1.2438560E-02
3669.872, 1.3562420E-02
3671.801, 1.5397990E-02
3673.729, 1.4236070E-02
3675.657, 1.2630560E-02
3677.586, 1.3666270E-02
3679.514, 1.4741370E-02
3681.443, 1.4589180E-02
3683.371, 1.3890270E-02
3685.300, 1.3920570E-02
3687.228, 1.4313280E-02
3689.157, 1.3318620E-02
3691.085, 1.2605540E-02
3693.014, 1.2402230E-02
3694.942, 1.3287280E-02
3696.871, 1.4161750E-02
3698.799, 1.3504570E-02
3700.728, 1.2608070E-02
3702.656, 1.4252360E-02
3704.584, 1.4843540E-02
3706.513, 1.4169570E-02
3708.441, 1.4860980E-02
3710.370, 1.4283410E-02
3712.298, 1.3967720E-02
3714.227, 1.3787530E-02
3716.155, 1.4704250E-02
3718.084, 1.4752790E-02
3720.012, 1.3243590E-02
3721.941, 1.2950460E-02
3723.869, 1.4014240E-02
3725.798, 1.4041420E-02
3727.726, 1.3992120E-02
3729.655, 1.4306530E-02
3731.583, 1.5317020E-02
3733.511, 1.5590330E-02
3735.440, 1.5347090E-02
3737.368, 1.5330390E-02
3739.297, 1.4052430E-02
3741.225, 1.3272370E-02
3743.154, 1.4078060E-02
3745.082, 1.3537540E-02
3747.011, 1.3951810E-02
3748.939, 1.4855160E-02
3750.868, 1.2863200E-02
3752.796, 1.1960410E-02
3754.725, 1.2878300E-02
3756.653, 1.4695180E-02
3758.582, 1.5349520E-02
3760.510, 1.4110660E-02
3762.438, 1.2544680E-02
3764.367, 1.3622090E-02
3766.295, 1.4715270E-02
3768.224, 1.3105330E-02
3770.152, 1.3199930E-02
3772.081, 1.4790720E-02
3774.009, 1.5389550E-02
3775.938, 1.5383140E-02
3777.866, 1.5059350E-02
3779.795, 1.4647960E-02
3781.723, 1.3638270E-02
3783.652, 1.3588590E-02
3785.580, 1.4425010E-02
3787.509, 1.5475760E-02
3789.437, 1.5040720E-02
3791.365, 1.3024870E-02
3793.294, 1.2875810E-02
3795.222, 1.3858140E-02
3797.151, 1.3620070E-02
3799.079, 1.3038050E-02
3801.008, 1.4056830E-02
3802.936, 1.5356410E-02
3804.865, 1.5348290E-02
3806.793, 1.4406600E-02
3808.722, 1.3823060E-02
3810.650, 1.3352420E-02
3812.579, 1.3615800E-02
3814.507, 1.4631250E-02
3816.436, 1.4169620E-02
3818.364, 1.4863560E-02
3820.292, 1.4408270E-02
3822.221, 1.4944380E-02
3824.149, 1.6436350E-02
3826.078, 1.6111780E-02
3828.006, 1.4983260E-02
3829.935, 1.5333760E-02
3831.863, 1.5369420E-02
3833.792, 1.3701550E-02
3835.720, 1.4067800E-02
3837.649, 1.4582370E-02
3839.577, 1.4314820E-02
3841.506, 1.4447060E-02
3843.434, 1.5329330E-02
3845.363, 1.5515380E-02
3847.291, 1.4772050E-02
3849.219, 1.5148910E-02
3851.148, 1.4910710E-02
3853.076, 1.4768760E-02
3855.005, 1.3605960E-02
3856.933, 1.2904940E-02
3858.862, 1.4035210E-02
3860.790, 1.4692760E-02
3862.719, 1.4330740E-02
3864.647, 1.4308450E-02
3866.576, 1.5043210E-02
3868.504, 1.4578200E-02
3870.433, 1.3762810E-02
3872.361, 1.4126350E-02
3874.290, 1.3385960E-02
3876.218, 1.2065270E-02
3878.146, 1.3430110E-02
3880.075, 1.5193290E-02
3882.003, 1.4364540E-02
3883.932, 1.3259080E-02
3885.860, 1.2759510E-02
3887.789, 1.3628420E-02
3889.717, 1.4705080E-02
3891.646, 1.4478640E-02
3893.574, 1.3921970E-02
3895.503, 1.4348750E-02
3897.431, 1.5417490E-02
3899.360, 1.5845271E-02
3901.288, 1.5350180E-02
3903.217, 1.3914070E-02
3905.145, 1.3586220E-02
3907.073, 1.4665700E-02
3909.002, 1.5644830E-02
3910.930, 1.5347710E-02
3912.859, 1.3835380E-02
3914.787, 1.3122960E-02
3916.716, 1.5022640E-02
3918.644, 1.6364980E-02
3920.573, 1.5331420E-02
3922.501, 1.3700970E-02
3924.430, 1.3761190E-02
3926.358, 1.4835460E-02
3928.287, 1.5536010E-02
3930.215, 1.5774541E-02
3932.144, 1.5172900E-02
3934.072, 1.5312520E-02
3936.000, 1.5237130E-02
3937.929, 1.3965720E-02
3939.857, 1.4099050E-02
3941.786, 1.4719720E-02
3943.714, 1.4054610E-02
3945.643, 1.3795120E-02
3947.571, 1.4839880E-02
3949.500, 1.4807930E-02
3951.428, 1.4551320E-02
3953.357, 1.3665610E-02
3955.285, 1.3748770E-02
3957.214, 1.4529780E-02
3959.142, 1.4679220E-02
3961.071, 1.3131700E-02
3962.999, 1.3493000E-02
3964.927, 1.4930830E-02
3966.856, 1.5303530E-02
3968.784, 1.4575310E-02
3970.713, 1.3754780E-02
3972.641, 1.4018890E-02
3974.570, 1.4457250E-02
3976.498, 1.4821310E-02
3978.427, 1.5481570E-02
3980.355, 1.5870901E-02
3982.284, 1.5144340E-02
3984.212, 1.4433610E-02
3986.141, 1.4093290E-02
3988.069, 1.3908150E-02
3989.998, 1.3162460E-02
3991.926, 1.3305040E-02
3993.854, 1.4547140E-02
3995.783, 1.4010990E-02
3997.711, 1.3948850E-02
3999.640, 1.3955580E-02
4001.568, 0.0000000E+00
##END=



