##NAMES=Analcime
##RRUFFID=R050094
##IDEAL CHEMISTRY=NaAlSi_2_O_6_&#183;H_2_O
##LOCALITY=Springfield, Oregon, USA
##OWNER=RRUFF
##SOURCE=Rock Currier
##DESCRIPTION=Clear colorless single crystals associated with gmelinite
##STATUS=The identification of this mineral has been confirmed by X-ray diffraction and chemical analysis
##URL=rruff.info/R050094
##MEASURED CHEMISTRY=(Na_0.99_[box]_0.01_)_Σ=1_(Si_2.01_Al_0.99_)O_6_·H_2_O
3.991926e+002, 0.000000e+000
4.011211e+002, 2.106699e-001
4.030496e+002, 2.117090e-001
4.049780e+002, 2.067131e-001
4.069065e+002, 2.025155e-001
4.088350e+002, 2.046135e-001
4.107634e+002, 2.076676e-001
4.126919e+002, 2.053145e-001
4.146204e+002, 2.012630e-001
4.165488e+002, 2.021624e-001
4.184773e+002, 2.043507e-001
4.204058e+002, 2.063434e-001
4.223342e+002, 2.076607e-001
4.242627e+002, 2.080732e-001
4.261912e+002, 2.056034e-001
4.281196e+002, 2.065610e-001
4.300481e+002, 2.082520e-001
4.319766e+002, 2.116184e-001
4.339050e+002, 2.129572e-001
4.358335e+002, 2.115389e-001
4.377620e+002, 2.082700e-001
4.396904e+002, 2.050726e-001
4.416189e+002, 2.000702e-001
4.435474e+002, 1.929311e-001
4.454758e+002, 1.850946e-001
4.474043e+002, 1.752122e-001
4.493328e+002, 1.666358e-001
4.512612e+002, 1.578169e-001
4.531897e+002, 1.473095e-001
4.551182e+002, 1.376250e-001
4.570466e+002, 1.289987e-001
4.589751e+002, 1.210213e-001
4.609036e+002, 1.135155e-001
4.628320e+002, 1.080835e-001
4.647605e+002, 1.036014e-001
4.666890e+002, 9.841736e-002
4.686174e+002, 9.304979e-002
4.705459e+002, 8.727325e-002
4.724744e+002, 8.227872e-002
4.744028e+002, 7.854988e-002
4.763313e+002, 7.476570e-002
4.782598e+002, 7.211663e-002
4.801882e+002, 6.966493e-002
4.821167e+002, 6.685412e-002
4.840452e+002, 6.419007e-002
4.859736e+002, 6.185156e-002
4.879021e+002, 5.907064e-002
4.898306e+002, 5.747733e-002
4.917590e+002, 5.639287e-002
4.936875e+002, 5.481406e-002
4.956160e+002, 5.284641e-002
4.975444e+002, 5.076890e-002
4.994729e+002, 4.871378e-002
5.014014e+002, 4.690740e-002
5.033298e+002, 4.590004e-002
5.052583e+002, 4.473582e-002
5.071868e+002, 4.334364e-002
5.091152e+002, 4.230900e-002
5.110437e+002, 4.158237e-002
5.129722e+002, 4.143057e-002
5.149006e+002, 4.146884e-002
5.168291e+002, 4.138694e-002
5.187576e+002, 4.106145e-002
5.206860e+002, 4.065253e-002
5.226145e+002, 4.024950e-002
5.245430e+002, 3.992111e-002
5.264714e+002, 3.992223e-002
5.283999e+002, 3.971646e-002
5.303284e+002, 3.955113e-002
5.322568e+002, 3.977272e-002
5.341853e+002, 3.925979e-002
5.361138e+002, 3.849410e-002
5.380422e+002, 3.874436e-002
5.399707e+002, 3.922223e-002
5.418992e+002, 3.931869e-002
5.438276e+002, 3.973580e-002
5.457561e+002, 3.974411e-002
5.476846e+002, 3.931312e-002
5.496130e+002, 3.909127e-002
5.515415e+002, 3.929954e-002
5.534700e+002, 3.959420e-002
5.553984e+002, 3.977177e-002
5.573269e+002, 3.939379e-002
5.592554e+002, 3.930160e-002
5.611838e+002, 3.950559e-002
5.631123e+002, 3.973319e-002
5.650408e+002, 3.988935e-002
5.669692e+002, 3.950830e-002
5.688977e+002, 3.880229e-002
5.708262e+002, 3.873796e-002
5.727546e+002, 3.936915e-002
5.746831e+002, 3.996196e-002
5.766116e+002, 4.011597e-002
5.785400e+002, 4.010852e-002
5.804685e+002, 3.984585e-002
5.823970e+002, 4.016009e-002
5.843254e+002, 4.067190e-002
5.862539e+002, 4.091467e-002
5.881824e+002, 4.120369e-002
5.901108e+002, 4.177381e-002
5.920393e+002, 4.239510e-002
5.939678e+002, 4.285766e-002
5.958962e+002, 4.330043e-002
5.978247e+002, 4.407334e-002
5.997532e+002, 4.490315e-002
6.016816e+002, 4.592267e-002
6.036101e+002, 4.701266e-002
6.055386e+002, 4.845263e-002
6.074670e+002, 5.020440e-002
6.093955e+002, 5.184278e-002
6.113240e+002, 5.326159e-002
6.132524e+002, 5.419745e-002
6.151809e+002, 5.524849e-002
6.171094e+002, 5.635259e-002
6.190378e+002, 5.677382e-002
6.209663e+002, 5.631898e-002
6.228948e+002, 5.571843e-002
6.248232e+002, 5.473100e-002
6.267517e+002, 5.343162e-002
6.286802e+002, 5.173471e-002
6.306086e+002, 5.007674e-002
6.325371e+002, 4.896607e-002
6.344656e+002, 4.782326e-002
6.363940e+002, 4.652463e-002
6.383225e+002, 4.569415e-002
6.402510e+002, 4.516773e-002
6.421794e+002, 4.472739e-002
6.441079e+002, 4.455954e-002
6.460364e+002, 4.465071e-002
6.479648e+002, 4.489568e-002
6.498933e+002, 4.519505e-002
6.518218e+002, 4.575697e-002
6.537502e+002, 4.635010e-002
6.556787e+002, 4.717921e-002
6.576072e+002, 4.802194e-002
6.595356e+002, 4.876726e-002
6.614641e+002, 5.007968e-002
6.633926e+002, 5.133399e-002
6.653210e+002, 5.216680e-002
6.672495e+002, 5.320374e-002
6.691780e+002, 5.397202e-002
6.711064e+002, 5.481331e-002
6.730349e+002, 5.608906e-002
6.749634e+002, 5.730331e-002
6.768918e+002, 5.858868e-002
6.788203e+002, 5.967366e-002
6.807488e+002, 6.115066e-002
6.826772e+002, 6.322640e-002
6.846057e+002, 6.519967e-002
6.865342e+002, 6.722013e-002
6.884626e+002, 6.921044e-002
6.903911e+002, 7.070607e-002
6.923196e+002, 7.209033e-002
6.942480e+002, 7.332202e-002
6.961765e+002, 7.403281e-002
6.981050e+002, 7.454289e-002
7.000334e+002, 7.481579e-002
7.019619e+002, 7.533538e-002
7.038904e+002, 7.608167e-002
7.058188e+002, 7.704937e-002
7.077473e+002, 7.835116e-002
7.096758e+002, 8.000209e-002
7.116042e+002, 8.182791e-002
7.135327e+002, 8.375240e-002
7.154612e+002, 8.537772e-002
7.173896e+002, 8.701721e-002
7.193181e+002, 8.871931e-002
7.212466e+002, 9.070744e-002
7.231750e+002, 9.243927e-002
7.251035e+002, 9.401006e-002
7.270320e+002, 9.564131e-002
7.289604e+002, 9.674650e-002
7.308889e+002, 9.759663e-002
7.328174e+002, 9.825273e-002
7.347458e+002, 9.863633e-002
7.366743e+002, 9.847379e-002
7.386028e+002, 9.787960e-002
7.405313e+002, 9.693845e-002
7.424597e+002, 9.543752e-002
7.443882e+002, 9.305902e-002
7.463167e+002, 9.028824e-002
7.482451e+002, 8.802069e-002
7.501736e+002, 8.633567e-002
7.521021e+002, 8.530476e-002
7.540305e+002, 8.508553e-002
7.559590e+002, 8.559840e-002
7.578875e+002, 8.643584e-002
7.598159e+002, 8.744511e-002
7.617444e+002, 8.823559e-002
7.636729e+002, 8.850341e-002
7.656013e+002, 8.779476e-002
7.675298e+002, 8.546384e-002
7.694583e+002, 8.151182e-002
7.713867e+002, 7.629118e-002
7.733152e+002, 7.016854e-002
7.752437e+002, 6.375907e-002
7.771721e+002, 5.738552e-002
7.791006e+002, 5.136378e-002
7.810291e+002, 4.610513e-002
7.829575e+002, 4.143263e-002
7.848860e+002, 3.760745e-002
7.868145e+002, 3.448706e-002
7.887429e+002, 3.185899e-002
7.906714e+002, 2.983219e-002
7.925999e+002, 2.772085e-002
7.945283e+002, 2.589517e-002
7.964568e+002, 2.438449e-002
7.983853e+002, 2.300890e-002
8.003137e+002, 2.192533e-002
8.022422e+002, 2.117716e-002
8.041707e+002, 2.040765e-002
8.060991e+002, 1.973093e-002
8.080276e+002, 1.930941e-002
8.099561e+002, 1.904734e-002
8.118845e+002, 1.881166e-002
8.138130e+002, 1.848461e-002
8.157415e+002, 1.819952e-002
8.176699e+002, 1.793594e-002
8.195984e+002, 1.800733e-002
8.215269e+002, 1.814966e-002
8.234553e+002, 1.821288e-002
8.253838e+002, 1.820748e-002
8.273123e+002, 1.819881e-002
8.292407e+002, 1.846264e-002
8.311692e+002, 1.864761e-002
8.330977e+002, 1.874051e-002
8.350261e+002, 1.915405e-002
8.369546e+002, 1.943495e-002
8.388831e+002, 1.959520e-002
8.408115e+002, 1.988940e-002
8.427400e+002, 2.041005e-002
8.446685e+002, 2.078733e-002
8.465969e+002, 2.122947e-002
8.485254e+002, 2.168024e-002
8.504539e+002, 2.208401e-002
8.523823e+002, 2.271000e-002
8.543108e+002, 2.345863e-002
8.562393e+002, 2.412974e-002
8.581677e+002, 2.471253e-002
8.600962e+002, 2.530811e-002
8.620247e+002, 2.587229e-002
8.639531e+002, 2.652981e-002
8.658816e+002, 2.735232e-002
8.678101e+002, 2.815491e-002
8.697385e+002, 2.919704e-002
8.716670e+002, 3.035774e-002
8.735955e+002, 3.132300e-002
8.755239e+002, 3.222512e-002
8.774524e+002, 3.326059e-002
8.793809e+002, 3.443964e-002
8.813093e+002, 3.560184e-002
8.832378e+002, 3.675860e-002
8.851663e+002, 3.804318e-002
8.870947e+002, 3.969369e-002
8.890232e+002, 4.149400e-002
8.909517e+002, 4.319521e-002
8.928801e+002, 4.497290e-002
8.948085e+002, 4.667858e-002
8.967370e+002, 4.842123e-002
8.986655e+002, 5.054068e-002
9.005939e+002, 5.294659e-002
9.025224e+002, 5.551735e-002
9.044509e+002, 5.809571e-002
9.063793e+002, 6.100182e-002
9.083078e+002, 6.405503e-002
9.102363e+002, 6.722572e-002
9.121647e+002, 7.086190e-002
9.140932e+002, 7.484519e-002
9.160217e+002, 7.904855e-002
9.179501e+002, 8.348112e-002
9.198786e+002, 8.843702e-002
9.218071e+002, 9.390055e-002
9.237355e+002, 9.978159e-002
9.256640e+002, 1.059123e-001
9.275925e+002, 1.125086e-001
9.295209e+002, 1.196205e-001
9.314494e+002, 1.272201e-001
9.333779e+002, 1.354155e-001
9.353063e+002, 1.439485e-001
9.372348e+002, 1.527183e-001
9.391633e+002, 1.621850e-001
9.410917e+002, 1.722051e-001
9.430202e+002, 1.827176e-001
9.449487e+002, 1.937185e-001
9.468771e+002, 2.053038e-001
9.488056e+002, 2.176720e-001
9.507341e+002, 2.307609e-001
9.526625e+002, 2.443270e-001
9.545910e+002, 2.581967e-001
9.565195e+002, 2.723621e-001
9.584479e+002, 2.869715e-001
9.603764e+002, 3.015622e-001
9.623049e+002, 3.158755e-001
9.642333e+002, 3.299849e-001
9.661618e+002, 3.434956e-001
9.680903e+002, 3.565577e-001
9.700187e+002, 3.685368e-001
9.719472e+002, 3.789426e-001
9.738757e+002, 3.878242e-001
9.758041e+002, 3.950016e-001
9.777326e+002, 4.000168e-001
9.796611e+002, 4.030801e-001
9.815895e+002, 4.044527e-001
9.835180e+002, 4.039778e-001
9.854465e+002, 4.024930e-001
9.873749e+002, 4.008756e-001
9.893034e+002, 3.989406e-001
9.912319e+002, 3.963696e-001
9.931603e+002, 3.937152e-001
9.950888e+002, 3.914035e-001
9.970173e+002, 3.888863e-001
9.989457e+002, 3.859956e-001
1.000874e+003, 3.826736e-001
1.002803e+003, 3.794566e-001
1.004731e+003, 3.762070e-001
1.006660e+003, 3.724469e-001
1.008588e+003, 3.685223e-001
1.010517e+003, 3.641057e-001
1.012445e+003, 3.589587e-001
1.014373e+003, 3.536294e-001
1.016302e+003, 3.479274e-001
1.018230e+003, 3.416952e-001
1.020159e+003, 3.353472e-001
1.022087e+003, 3.285482e-001
1.024016e+003, 3.217920e-001
1.025944e+003, 3.148921e-001
1.027873e+003, 3.079650e-001
1.029801e+003, 3.007683e-001
1.031730e+003, 2.933328e-001
1.033658e+003, 2.856380e-001
1.035587e+003, 2.781469e-001
1.037515e+003, 2.704784e-001
1.039444e+003, 2.625432e-001
1.041372e+003, 2.547688e-001
1.043301e+003, 2.470766e-001
1.045229e+003, 2.389782e-001
1.047157e+003, 2.305546e-001
1.049086e+003, 2.226487e-001
1.051014e+003, 2.146992e-001
1.052943e+003, 2.068188e-001
1.054871e+003, 1.992159e-001
1.056800e+003, 1.914408e-001
1.058728e+003, 1.838937e-001
1.060657e+003, 1.765373e-001
1.062585e+003, 1.693510e-001
1.064514e+003, 1.627816e-001
1.066442e+003, 1.568230e-001
1.068371e+003, 1.511719e-001
1.070299e+003, 1.459937e-001
1.072228e+003, 1.413410e-001
1.074156e+003, 1.371813e-001
1.076084e+003, 1.334304e-001
1.078013e+003, 1.298836e-001
1.079941e+003, 1.267541e-001
1.081870e+003, 1.239284e-001
1.083798e+003, 1.212956e-001
1.085727e+003, 1.189980e-001
1.087655e+003, 1.169967e-001
1.089584e+003, 1.151440e-001
1.091512e+003, 1.135169e-001
1.093441e+003, 1.120785e-001
1.095369e+003, 1.103786e-001
1.097298e+003, 1.086268e-001
1.099226e+003, 1.068053e-001
1.101155e+003, 1.049440e-001
1.103083e+003, 1.028059e-001
1.105011e+003, 1.008121e-001
1.106940e+003, 9.888774e-002
1.108868e+003, 9.671497e-002
1.110797e+003, 9.440690e-002
1.112725e+003, 9.224531e-002
1.114654e+003, 8.997362e-002
1.116582e+003, 8.737772e-002
1.118511e+003, 8.469100e-002
1.120439e+003, 8.232321e-002
1.122368e+003, 7.987329e-002
1.124296e+003, 7.736524e-002
1.126225e+003, 7.484819e-002
1.128153e+003, 7.223335e-002
1.130082e+003, 6.978066e-002
1.132010e+003, 6.768107e-002
1.133938e+003, 6.547799e-002
1.135867e+003, 6.331046e-002
1.137795e+003, 6.120806e-002
1.139724e+003, 5.921906e-002
1.141652e+003, 5.714845e-002
1.143581e+003, 5.516877e-002
1.145509e+003, 5.345291e-002
1.147438e+003, 5.161163e-002
1.149366e+003, 4.967916e-002
1.151295e+003, 4.779595e-002
1.153223e+003, 4.608877e-002
1.155152e+003, 4.450135e-002
1.157080e+003, 4.263570e-002
1.159009e+003, 4.078180e-002
1.160937e+003, 3.898203e-002
1.162865e+003, 3.726858e-002
1.164794e+003, 3.550270e-002
1.166722e+003, 3.372974e-002
1.168651e+003, 3.191918e-002
1.170579e+003, 3.011692e-002
1.172508e+003, 2.838772e-002
1.174436e+003, 2.674845e-002
1.176365e+003, 2.511456e-002
1.178293e+003, 2.351698e-002
1.180222e+003, 2.200528e-002
1.182150e+003, 2.049803e-002
1.184079e+003, 1.917082e-002
1.186007e+003, 1.780148e-002
1.187936e+003, 1.666244e-002
1.189864e+003, 1.567481e-002
1.191792e+003, 1.464671e-002
1.193721e+003, 1.352088e-002
1.195649e+003, 1.255346e-002
1.197578e+003, 1.177195e-002
1.199506e+003, 1.098835e-002
1.201435e+003, 1.009002e-002
1.203363e+003, 9.424662e-003
1.205292e+003, 8.831797e-003
1.207220e+003, 8.074868e-003
1.209149e+003, 7.497417e-003
1.211077e+003, 7.025369e-003
1.213006e+003, 6.558746e-003
1.214934e+003, 6.071849e-003
1.216863e+003, 5.550215e-003
1.218791e+003, 5.268896e-003
1.220719e+003, 4.974215e-003
1.222648e+003, 4.601027e-003
1.224576e+003, 4.105276e-003
1.226505e+003, 3.790106e-003
1.228433e+003, 3.707404e-003
1.230362e+003, 3.442509e-003
1.232290e+003, 3.025573e-003
1.234219e+003, 2.733808e-003
1.236147e+003, 2.526158e-003
1.238076e+003, 2.343579e-003
1.240004e+003, 1.989473e-003
1.241933e+003, 1.724839e-003
1.243861e+003, 1.619471e-003
1.245790e+003, 1.512351e-003
1.247718e+003, 1.346559e-003
1.249646e+003, 1.121644e-003
1.251575e+003, 8.730518e-004
1.253503e+003, 7.526361e-004
1.255432e+003, 6.497835e-004
1.257360e+003, 4.764660e-004
1.259289e+003, 2.868929e-004
1.261217e+003, 2.566276e-004
1.263146e+003, 2.197699e-004
1.265074e+003, 8.579268e-005
1.267003e+003, -5.445408e-005
1.268931e+003, -1.627213e-005
1.270860e+003, -1.213989e-004
1.272788e+003, -3.054745e-004
1.274717e+003, -2.068708e-004
1.276645e+003, -3.716021e-004
1.278573e+003, -5.909584e-004
1.280502e+003, -4.728718e-004
1.282430e+003, -3.765933e-004
1.284359e+003, -5.124821e-004
1.286287e+003, -7.254083e-004
1.288216e+003, -8.534856e-004
1.290144e+003, -8.993602e-004
1.292073e+003, -8.338686e-004
1.294001e+003, -9.577347e-004
1.295930e+003, -9.910580e-004
1.297858e+003, -9.860364e-004
1.299787e+003, -1.132500e-003
1.301715e+003, -1.283579e-003
1.303644e+003, -1.169883e-003
1.305572e+003, -1.102716e-003
1.307500e+003, -1.060661e-003
1.309429e+003, -1.021078e-003
1.311357e+003, -1.039615e-003
1.313286e+003, -1.114620e-003
1.315214e+003, -1.264594e-003
1.317143e+003, -1.262340e-003
1.319071e+003, -1.049262e-003
1.321000e+003, -1.080069e-003
1.322928e+003, -1.221302e-003
1.324857e+003, -1.283834e-003
1.326785e+003, -1.399934e-003
1.328714e+003, -1.390436e-003
1.330642e+003, -1.291377e-003
1.332571e+003, -1.245241e-003
1.334499e+003, -1.320900e-003
1.336427e+003, -1.511406e-003
1.338356e+003, -1.467878e-003
1.340284e+003, -1.380239e-003
1.342213e+003, -1.460651e-003
1.344141e+003, -1.325437e-003
1.346070e+003, -1.483467e-003
1.347998e+003, -1.526415e-003
1.349927e+003, -1.425713e-003
1.351855e+003, -1.509415e-003
1.353784e+003, -1.521025e-003
1.355712e+003, -1.448059e-003
1.357641e+003, -1.388947e-003
1.359569e+003, -1.268745e-003
1.361498e+003, -9.886920e-004
1.363426e+003, -1.005051e-003
1.365354e+003, -1.213680e-003
1.367283e+003, -1.377308e-003
1.369211e+003, -1.418607e-003
1.371140e+003, -1.410416e-003
1.373068e+003, -1.461881e-003
1.374997e+003, -1.363611e-003
1.376925e+003, -1.383184e-003
1.378854e+003, -1.467021e-003
1.380782e+003, -1.629585e-003
1.382711e+003, -1.507044e-003
1.384639e+003, -1.361180e-003
1.386568e+003, -1.342413e-003
1.388496e+003, -1.259889e-003
1.390424e+003, -1.313128e-003
1.392353e+003, -1.306246e-003
1.394281e+003, -1.173133e-003
1.396210e+003, -9.452387e-004
1.398138e+003, -1.131032e-003
1.400067e+003, -1.041699e-003
1.401995e+003, -1.070800e-003
1.403924e+003, -9.631280e-004
1.405852e+003, -8.227706e-004
1.407781e+003, -1.006345e-003
1.409709e+003, -1.093786e-003
1.411638e+003, -9.498977e-004
1.413566e+003, -8.517121e-004
1.415495e+003, -8.458795e-004
1.417423e+003, -7.295355e-004
1.419351e+003, -6.025106e-004
1.421280e+003, -8.901453e-004
1.423208e+003, -1.219976e-003
1.425137e+003, -1.153565e-003
1.427065e+003, -1.164951e-003
1.428994e+003, -1.146487e-003
1.430922e+003, -1.042085e-003
1.432851e+003, -1.171682e-003
1.434779e+003, -1.086734e-003
1.436708e+003, -8.275706e-004
1.438636e+003, -1.025587e-003
1.440565e+003, -1.340679e-003
1.442493e+003, -1.410526e-003
1.444422e+003, -1.358769e-003
1.446350e+003, -1.407897e-003
1.448278e+003, -1.235748e-003
1.450207e+003, -1.454459e-003
1.452135e+003, -1.610098e-003
1.454064e+003, -1.490059e-003
1.455992e+003, -1.042107e-003
1.457921e+003, -7.191217e-004
1.459849e+003, -1.235439e-003
1.461778e+003, -1.441278e-003
1.463706e+003, -1.382914e-003
1.465635e+003, -1.256093e-003
1.467563e+003, -1.583162e-003
1.469492e+003, -1.381034e-003
1.471420e+003, -1.038473e-003
1.473349e+003, -8.609405e-004
1.475277e+003, -1.323946e-003
1.477205e+003, -1.197753e-003
1.479134e+003, -1.251442e-003
1.481062e+003, -1.388724e-003
1.482991e+003, -1.547118e-003
1.484919e+003, -1.432800e-003
1.486848e+003, -1.285023e-003
1.488776e+003, -1.227159e-003
1.490705e+003, -1.139741e-003
1.492633e+003, -1.257703e-003
1.494562e+003, -1.173733e-003
1.496490e+003, -8.854775e-004
1.498419e+003, -1.154314e-003
1.500347e+003, -1.250543e-003
1.502276e+003, -1.240606e-003
1.504204e+003, -9.777895e-004
1.506132e+003, -4.655558e-004
1.508061e+003, -6.306176e-004
1.509989e+003, -1.307345e-003
1.511918e+003, -1.238939e-003
1.513846e+003, -1.102049e-003
1.515775e+003, -1.085723e-003
1.517703e+003, -9.481827e-004
1.519632e+003, -1.144913e-003
1.521560e+003, -6.655242e-004
1.523489e+003, -8.676411e-004
1.525417e+003, -1.111803e-003
1.527346e+003, -1.310617e-003
1.529274e+003, -1.349798e-003
1.531203e+003, -1.197547e-003
1.533131e+003, -8.825462e-004
1.535059e+003, -8.456134e-004
1.536988e+003, -6.873086e-004
1.538916e+003, 6.961559e-005
1.540845e+003, 2.260236e-004
1.542773e+003, -2.210333e-004
1.544702e+003, -4.397735e-004
1.546630e+003, -3.999108e-004
1.548559e+003, -3.840009e-004
1.550487e+003, -1.231653e-004
1.552416e+003, 7.863779e-006
1.554344e+003, 3.188029e-004
1.556273e+003, 3.440442e-004
1.558201e+003, 1.060903e-003
1.560130e+003, 1.532433e-003
1.562058e+003, 9.171547e-004
1.563986e+003, 8.585247e-004
1.565915e+003, 9.477423e-004
1.567843e+003, 9.112430e-004
1.569772e+003, 1.089816e-003
1.571700e+003, 1.035869e-003
1.573629e+003, 1.172437e-003
1.575557e+003, 1.456380e-003
1.577486e+003, 1.722154e-003
1.579414e+003, 1.208884e-003
1.581343e+003, 1.190456e-003
1.583271e+003, 1.046156e-003
1.585200e+003, 9.912640e-004
1.587128e+003, 1.241815e-003
1.589057e+003, 1.478689e-003
1.590985e+003, 1.672861e-003
1.592913e+003, 1.661263e-003
1.594842e+003, 1.895721e-003
1.596770e+003, 2.307961e-003
1.598699e+003, 2.688618e-003
1.600627e+003, 2.933647e-003
1.602556e+003, 3.157792e-003
1.604484e+003, 3.733730e-003
1.606413e+003, 4.393741e-003
1.608341e+003, 4.946635e-003
1.610270e+003, 6.004800e-003
1.612198e+003, 7.299711e-003
1.614127e+003, 8.934176e-003
1.616055e+003, 1.108907e-002
1.617984e+003, 1.352616e-002
1.619912e+003, 1.620839e-002
1.621840e+003, 1.974213e-002
1.623769e+003, 2.316685e-002
1.625697e+003, 2.561552e-002
1.627626e+003, 2.769831e-002
1.629554e+003, 2.910656e-002
1.631483e+003, 2.972908e-002
1.633411e+003, 2.989814e-002
1.635340e+003, 2.910762e-002
1.637268e+003, 2.639702e-002
1.639197e+003, 2.293032e-002
1.641125e+003, 1.998742e-002
1.643054e+003, 1.738088e-002
1.644982e+003, 1.512898e-002
1.646911e+003, 1.353840e-002
1.648839e+003, 1.159777e-002
1.650767e+003, 9.991640e-003
1.652696e+003, 9.587673e-003
1.654624e+003, 8.452384e-003
1.656553e+003, 6.198796e-003
1.658481e+003, 5.311842e-003
1.660410e+003, 4.964303e-003
1.662338e+003, 4.301453e-003
1.664267e+003, 3.608548e-003
1.666195e+003, 2.927645e-003
1.668124e+003, 2.488192e-003
1.670052e+003, 2.425679e-003
1.671981e+003, 1.985667e-003
1.673909e+003, 1.528300e-003
1.675838e+003, 1.470015e-003
1.677766e+003, 7.642114e-004
1.679694e+003, 3.744196e-004
1.681623e+003, 2.677374e-004
1.683551e+003, 6.324077e-004
1.685480e+003, 6.813138e-004
1.687408e+003, -4.795634e-004
1.689337e+003, -6.147710e-004
1.691265e+003, -7.490144e-004
1.693194e+003, -1.071483e-003
1.695122e+003, -6.021003e-004
1.697051e+003, -7.437004e-005
1.698979e+003, -7.259875e-004
1.700908e+003, -2.538142e-004
1.702836e+003, -1.245397e-003
1.704765e+003, -1.287393e-003
1.706693e+003, -1.529529e-003
1.708621e+003, -1.817858e-003
1.710550e+003, -1.840963e-003
1.712478e+003, -1.847588e-003
1.714407e+003, -1.878491e-003
1.716335e+003, -1.578274e-003
1.718264e+003, -1.235681e-003
1.720192e+003, -1.937158e-003
1.722121e+003, -2.210017e-003
1.724049e+003, -2.227128e-003
1.725978e+003, -2.423533e-003
1.727906e+003, -2.682080e-003
1.729835e+003, -2.864373e-003
1.731763e+003, -2.880969e-003
1.733692e+003, -2.378049e-003
1.735620e+003, -2.249787e-003
1.737548e+003, -3.113927e-003
1.739477e+003, -3.540237e-003
1.741405e+003, -3.715833e-003
1.743334e+003, -3.712301e-003
1.745262e+003, -3.904667e-003
1.747191e+003, -3.935340e-003
1.749119e+003, -3.763697e-003
1.751048e+003, -3.603330e-003
1.752976e+003, -3.478246e-003
1.754905e+003, -3.665510e-003
1.756833e+003, -3.362364e-003
1.758762e+003, -3.103296e-003
1.760690e+003, -2.986087e-003
1.762619e+003, -2.863803e-003
1.764547e+003, -3.213819e-003
1.766475e+003, -2.983480e-003
1.768404e+003, -2.797727e-003
1.770332e+003, -2.927491e-003
1.772261e+003, -2.600074e-003
1.774189e+003, -2.607822e-003
1.776118e+003, -3.014181e-003
1.778046e+003, -3.159642e-003
1.779975e+003, -2.953637e-003
1.781903e+003, -3.002038e-003
1.783832e+003, -3.420558e-003
1.785760e+003, -3.533039e-003
1.787689e+003, -3.480692e-003
1.789617e+003, -3.121417e-003
1.791546e+003, -2.855332e-003
1.793474e+003, -2.694432e-003
1.795402e+003, -3.272344e-003
1.797331e+003, -3.254981e-003
1.799259e+003, -3.266041e-003
1.801188e+003, -3.270123e-003
1.803116e+003, -3.328577e-003
1.805045e+003, -3.478620e-003
1.806973e+003, -3.486487e-003
1.808902e+003, -3.584865e-003
1.810830e+003, -3.684810e-003
1.812759e+003, -4.075612e-003
1.814687e+003, -4.246353e-003
1.816616e+003, -3.897274e-003
1.818544e+003, -3.703316e-003
1.820473e+003, -3.893341e-003
1.822401e+003, -4.015052e-003
1.824329e+003, -4.460015e-003
1.826258e+003, -4.238549e-003
1.828186e+003, -4.168558e-003
1.830115e+003, -4.057938e-003
1.832043e+003, -4.229060e-003
1.833972e+003, -4.129281e-003
1.835900e+003, -4.066410e-003
1.837829e+003, -4.146085e-003
1.839757e+003, -4.358593e-003
1.841686e+003, -4.489684e-003
1.843614e+003, -4.451824e-003
1.845543e+003, -4.568626e-003
1.847471e+003, -4.576218e-003
1.849400e+003, -4.246459e-003
1.851328e+003, -4.264119e-003
1.853256e+003, -4.645257e-003
1.855185e+003, -5.037319e-003
1.857113e+003, -4.976335e-003
1.859042e+003, -5.227053e-003
1.860970e+003, -5.269696e-003
1.862899e+003, -5.088483e-003
1.864827e+003, -5.173758e-003
1.866756e+003, -5.340472e-003
1.868684e+003, -5.354791e-003
1.870613e+003, -5.278897e-003
1.872541e+003, -5.734973e-003
1.874470e+003, -5.957295e-003
1.876398e+003, -5.730649e-003
1.878327e+003, -5.715295e-003
1.880255e+003, -5.604331e-003
1.882183e+003, -5.748761e-003
1.884112e+003, -6.335120e-003
1.886040e+003, -6.642211e-003
1.887969e+003, -7.051386e-003
1.889897e+003, -6.869880e-003
1.891826e+003, -6.800639e-003
1.893754e+003, -6.668647e-003
1.895683e+003, -6.183679e-003
1.897611e+003, -6.522327e-003
1.899540e+003, -7.228666e-003
1.901468e+003, -7.126629e-003
1.903397e+003, -7.070035e-003
1.905325e+003, -6.948823e-003
1.907254e+003, -6.764537e-003
1.909182e+003, -6.617601e-003
1.911110e+003, -6.526073e-003
1.913039e+003, -7.083617e-003
1.914967e+003, -7.130388e-003
1.916896e+003, -6.858607e-003
1.918824e+003, -6.936868e-003
1.920753e+003, -7.795218e-003
1.922681e+003, -9.032440e-003
1.924610e+003, -9.529879e-003
1.926538e+003, -8.969802e-003
1.928467e+003, -9.097274e-003
1.930395e+003, -8.888807e-003
1.932324e+003, -9.004833e-003
1.934252e+003, -9.497541e-003
1.936181e+003, -9.875117e-003
1.938109e+003, -1.047083e-002
1.940037e+003, -1.082029e-002
1.941966e+003, -1.002084e-002
1.943894e+003, -9.742127e-003
1.945823e+003, -1.032245e-002
1.947751e+003, -1.106294e-002
1.949680e+003, -1.111372e-002
1.951608e+003, -1.164213e-002
1.953537e+003, -1.215748e-002
1.955465e+003, -1.243671e-002
1.957394e+003, -1.227093e-002
1.959322e+003, -1.339416e-002
1.961251e+003, -1.464411e-002
1.963179e+003, -1.515503e-002
1.965108e+003, -1.549183e-002
1.967036e+003, -1.512214e-002
1.968964e+003, -1.455625e-002
1.970893e+003, -1.513005e-002
1.972821e+003, -1.627795e-002
1.974750e+003, -1.545081e-002
1.976678e+003, -1.466016e-002
1.978607e+003, -1.429184e-002
1.980535e+003, -1.374485e-002
1.982464e+003, -1.289295e-002
1.984392e+003, -1.361721e-002
1.986321e+003, -1.499632e-002
1.988249e+003, -1.508296e-002
1.990178e+003, -1.462777e-002
1.992106e+003, -1.322148e-002
1.994035e+003, -1.303248e-002
1.995963e+003, -1.426598e-002
1.997891e+003, -1.464752e-002
1.999820e+003, -1.415144e-002
2.001748e+003, -1.441482e-002
2.003677e+003, -1.431513e-002
2.005605e+003, -1.510734e-002
2.007534e+003, -1.515027e-002
2.009462e+003, -1.492323e-002
2.011391e+003, -1.669962e-002
2.013319e+003, -1.810664e-002
2.015248e+003, -1.781332e-002
2.017176e+003, -1.681622e-002
2.019105e+003, -1.661689e-002
2.021033e+003, -1.564172e-002
2.022962e+003, -1.494520e-002
2.024890e+003, -1.497968e-002
2.026818e+003, -1.634650e-002
2.028747e+003, -1.588928e-002
2.030675e+003, -1.579722e-002
2.032604e+003, -1.606097e-002
2.034532e+003, -1.563502e-002
2.036461e+003, -1.497753e-002
2.038389e+003, -1.364291e-002
2.040318e+003, -1.366456e-002
2.042246e+003, -1.353256e-002
2.044175e+003, -1.168927e-002
2.046103e+003, -1.015596e-002
2.048032e+003, -1.199114e-002
2.049960e+003, -1.175766e-002
2.051889e+003, -1.107817e-002
2.053817e+003, -1.102779e-002
2.055746e+003, -1.082254e-002
2.057674e+003, -1.074154e-002
2.059603e+003, -1.116993e-002
2.061531e+003, -1.107188e-002
2.063459e+003, -1.086375e-002
2.065388e+003, -1.037748e-002
2.067316e+003, -9.310864e-003
2.069245e+003, -9.296354e-003
2.071173e+003, -9.542913e-003
2.073102e+003, -9.703581e-003
2.075030e+003, -9.714680e-003
2.076959e+003, -8.590465e-003
2.078887e+003, -7.664818e-003
2.080816e+003, -8.157772e-003
2.082744e+003, -8.830411e-003
2.084673e+003, -8.728209e-003
2.086601e+003, -8.736745e-003
2.088530e+003, -8.413380e-003
2.090458e+003, -7.742208e-003
2.092386e+003, -8.190363e-003
2.094315e+003, -8.326810e-003
2.096243e+003, -8.205979e-003
2.098172e+003, -8.865169e-003
2.100100e+003, -9.446549e-003
2.102029e+003, -8.844912e-003
2.103957e+003, -8.080175e-003
2.105886e+003, -8.055504e-003
2.107814e+003, -8.459772e-003
2.109743e+003, -7.609800e-003
2.111671e+003, -6.713748e-003
2.113600e+003, -6.698863e-003
2.115528e+003, -7.755106e-003
2.117457e+003, -7.956490e-003
2.119385e+003, -8.871165e-003
2.121313e+003, -9.511071e-003
2.123242e+003, -9.038735e-003
2.125170e+003, -9.033290e-003
2.127099e+003, -9.473606e-003
2.129027e+003, -9.785965e-003
2.130956e+003, -1.068978e-002
2.132884e+003, -1.085293e-002
2.134813e+003, -1.083153e-002
2.136741e+003, -1.108458e-002
2.138670e+003, -1.108120e-002
2.140598e+003, -1.057974e-002
2.142527e+003, -9.834720e-003
2.144455e+003, -1.027193e-002
2.146384e+003, -1.160685e-002
2.148312e+003, -1.158978e-002
2.150240e+003, -1.203063e-002
2.152169e+003, -1.193306e-002
2.154097e+003, -1.224535e-002
2.156026e+003, -1.410542e-002
2.157954e+003, -1.465961e-002
2.159883e+003, -1.155277e-002
2.161811e+003, -8.617837e-003
2.163740e+003, -9.527204e-003
2.165668e+003, -9.795911e-003
2.167597e+003, -8.403605e-003
2.169525e+003, -8.502464e-003
2.171454e+003, -9.484551e-003
2.173382e+003, -1.052623e-002
2.175311e+003, -1.086261e-002
2.177239e+003, -1.029031e-002
2.179167e+003, -9.770736e-003
2.181096e+003, -9.628369e-003
2.183024e+003, -9.738620e-003
2.184953e+003, -8.504204e-003
2.186881e+003, -6.971443e-003
2.188810e+003, -7.694234e-003
2.190738e+003, -7.556416e-003
2.192667e+003, -6.890555e-003
2.194595e+003, -6.778861e-003
2.196524e+003, -7.122403e-003
2.198452e+003, -7.113838e-003
2.200381e+003, -6.845568e-003
2.202309e+003, -6.747287e-003
2.204238e+003, -7.365800e-003
2.206166e+003, -7.869142e-003
2.208094e+003, -6.991960e-003
2.210023e+003, -6.888058e-003
2.211951e+003, -7.180379e-003
2.213880e+003, -6.467674e-003
2.215808e+003, -6.510645e-003
2.217737e+003, -7.103120e-003
2.219665e+003, -7.865844e-003
2.221594e+003, -7.409390e-003
2.223522e+003, -6.607546e-003
2.225451e+003, -7.787371e-003
2.227379e+003, -7.755028e-003
2.229308e+003, -6.848038e-003
2.231236e+003, -7.370434e-003
2.233165e+003, -7.841331e-003
2.235093e+003, -7.602761e-003
2.237021e+003, -5.602196e-003
2.238950e+003, -5.345902e-003
2.240878e+003, -7.245306e-003
2.242807e+003, -7.056158e-003
2.244735e+003, -7.156658e-003
2.246664e+003, -6.066643e-003
2.248592e+003, -5.763115e-003
2.250521e+003, -7.277105e-003
2.252449e+003, -6.680551e-003
2.254378e+003, -4.938262e-003
2.256306e+003, -4.812815e-003
2.258235e+003, -5.734181e-003
2.260163e+003, -5.791957e-003
2.262092e+003, -5.825837e-003
2.264020e+003, -6.200815e-003
2.265948e+003, -6.206481e-003
2.267877e+003, -6.174636e-003
2.269805e+003, -6.021971e-003
2.271734e+003, -5.831413e-003
2.273662e+003, -5.882933e-003
2.275591e+003, -6.159421e-003
2.277519e+003, -5.468483e-003
2.279448e+003, -4.094868e-003
2.281376e+003, -3.315005e-003
2.283305e+003, -3.954614e-003
2.285233e+003, -4.890508e-003
2.287162e+003, -4.762067e-003
2.289090e+003, -4.077865e-003
2.291019e+003, -4.098210e-003
2.292947e+003, -4.288374e-003
2.294875e+003, -4.710272e-003
2.296804e+003, -5.133199e-003
2.298732e+003, -5.288440e-003
2.300661e+003, -4.887714e-003
2.302589e+003, -4.190347e-003
2.304518e+003, -3.911608e-003
2.306446e+003, -4.453460e-003
2.308375e+003, -4.943718e-003
2.310303e+003, -4.625164e-003
2.312232e+003, -4.792717e-003
2.314160e+003, -5.223468e-003
2.316089e+003, -5.078208e-003
2.318017e+003, -4.508913e-003
2.319946e+003, -3.707817e-003
2.321874e+003, -2.856716e-003
2.323802e+003, -3.164259e-003
2.325731e+003, -4.162230e-003
2.327659e+003, -4.626416e-003
2.329588e+003, -4.517728e-003
2.331516e+003, -4.260443e-003
2.333445e+003, -4.534774e-003
2.335373e+003, -4.576762e-003
2.337302e+003, -4.153940e-003
2.339230e+003, -3.956673e-003
2.341159e+003, -4.172290e-003
2.343087e+003, -4.454241e-003
2.345016e+003, -4.508322e-003
2.346944e+003, -5.091844e-003
2.348873e+003, -5.195347e-003
2.350801e+003, -4.750961e-003
2.352729e+003, -4.643173e-003
2.354658e+003, -4.478884e-003
2.356586e+003, -4.455474e-003
2.358515e+003, -4.724883e-003
2.360443e+003, -5.043196e-003
2.362372e+003, -4.924083e-003
2.364300e+003, -4.678286e-003
2.366229e+003, -4.647139e-003
2.368157e+003, -4.661256e-003
2.370086e+003, -4.684905e-003
2.372014e+003, -5.145607e-003
2.373942e+003, -5.455372e-003
2.375871e+003, -5.641654e-003
2.377799e+003, -5.623307e-003
2.379728e+003, -4.954178e-003
2.381656e+003, -4.705318e-003
2.383585e+003, -5.017755e-003
2.385513e+003, -5.469234e-003
2.387442e+003, -5.238774e-003
2.389370e+003, -5.058802e-003
2.391299e+003, -4.956536e-003
2.393227e+003, -4.441564e-003
2.395156e+003, -4.459412e-003
2.397084e+003, -4.975840e-003
2.399012e+003, -5.476634e-003
2.400941e+003, -5.869379e-003
2.402869e+003, -6.084826e-003
2.404798e+003, -6.234302e-003
2.406726e+003, -5.326157e-003
2.408655e+003, -4.310330e-003
2.410583e+003, -4.452663e-003
2.412512e+003, -4.643678e-003
2.414440e+003, -4.539095e-003
2.416369e+003, -4.685566e-003
2.418297e+003, -4.857464e-003
2.420226e+003, -4.519535e-003
2.422154e+003, -4.651948e-003
2.424083e+003, -5.040563e-003
2.426011e+003, -5.359950e-003
2.427939e+003, -5.429720e-003
2.429868e+003, -5.182256e-003
2.431796e+003, -5.171600e-003
2.433725e+003, -5.082838e-003
2.435653e+003, -4.675373e-003
2.437582e+003, -4.904156e-003
2.439510e+003, -4.910410e-003
2.441439e+003, -4.827301e-003
2.443367e+003, -5.207347e-003
2.445296e+003, -4.713402e-003
2.447224e+003, -4.525946e-003
2.449153e+003, -4.738694e-003
2.451081e+003, -4.388745e-003
2.453010e+003, -4.656057e-003
2.454938e+003, -5.304196e-003
2.456866e+003, -4.970791e-003
2.458795e+003, -4.555940e-003
2.460723e+003, -4.967234e-003
2.462652e+003, -5.335072e-003
2.464580e+003, -5.010362e-003
2.466509e+003, -4.463742e-003
2.468437e+003, -4.318137e-003
2.470366e+003, -4.931393e-003
2.472294e+003, -5.654254e-003
2.474223e+003, -5.938940e-003
2.476151e+003, -5.722727e-003
2.478080e+003, -4.583058e-003
2.480008e+003, -4.873028e-003
2.481937e+003, -4.655777e-003
2.483865e+003, -4.534674e-003
2.485793e+003, -5.208068e-003
2.487722e+003, -4.903762e-003
2.489650e+003, -4.613224e-003
2.491579e+003, -4.630003e-003
2.493507e+003, -5.034999e-003
2.495436e+003, -5.514012e-003
2.497364e+003, -5.724228e-003
2.499293e+003, -5.334111e-003
2.501221e+003, -5.104473e-003
2.503150e+003, -5.391596e-003
2.505078e+003, -5.392811e-003
2.507007e+003, -4.576692e-003
2.508935e+003, -4.283055e-003
2.510864e+003, -4.732673e-003
2.512792e+003, -5.278314e-003
2.514720e+003, -5.593535e-003
2.516649e+003, -5.154782e-003
2.518577e+003, -4.695290e-003
2.520506e+003, -4.825393e-003
2.522434e+003, -5.262936e-003
2.524363e+003, -5.592626e-003
2.526291e+003, -5.878942e-003
2.528220e+003, -5.887211e-003
2.530148e+003, -6.048647e-003
2.532077e+003, -5.587278e-003
2.534005e+003, -5.115272e-003
2.535934e+003, -4.955740e-003
2.537862e+003, -5.091629e-003
2.539791e+003, -4.832289e-003
2.541719e+003, -4.412589e-003
2.543647e+003, -4.748282e-003
2.545576e+003, -5.331728e-003
2.547504e+003, -5.661180e-003
2.549433e+003, -5.207549e-003
2.551361e+003, -4.959024e-003
2.553290e+003, -5.172389e-003
2.555218e+003, -4.807269e-003
2.557147e+003, -4.832433e-003
2.559075e+003, -4.466164e-003
2.561004e+003, -4.507335e-003
2.562932e+003, -4.508540e-003
2.564861e+003, -4.357222e-003
2.566789e+003, -4.256371e-003
2.568718e+003, -4.717553e-003
2.570646e+003, -5.217588e-003
2.572574e+003, -5.483208e-003
2.574503e+003, -5.169498e-003
2.576431e+003, -4.990770e-003
2.578360e+003, -5.561216e-003
2.580288e+003, -5.969003e-003
2.582217e+003, -5.134613e-003
2.584145e+003, -4.894689e-003
2.586074e+003, -5.570062e-003
2.588002e+003, -5.536436e-003
2.589931e+003, -5.036345e-003
2.591859e+003, -4.464480e-003
2.593788e+003, -4.722989e-003
2.595716e+003, -4.886786e-003
2.597645e+003, -5.057034e-003
2.599573e+003, -4.686408e-003
2.601501e+003, -4.211612e-003
2.603430e+003, -4.519416e-003
2.605358e+003, -4.815203e-003
2.607287e+003, -4.888475e-003
2.609215e+003, -4.238438e-003
2.611144e+003, -4.047055e-003
2.613072e+003, -4.848003e-003
2.615001e+003, -4.702879e-003
2.616929e+003, -4.888284e-003
2.618858e+003, -4.714598e-003
2.620786e+003, -4.586769e-003
2.622715e+003, -5.047131e-003
2.624643e+003, -5.141957e-003
2.626572e+003, -4.137171e-003
2.628500e+003, -3.635775e-003
2.630428e+003, -4.531348e-003
2.632357e+003, -4.969986e-003
2.634285e+003, -4.433781e-003
2.636214e+003, -4.563737e-003
2.638142e+003, -4.762074e-003
2.640071e+003, -4.484794e-003
2.641999e+003, -4.062709e-003
2.643928e+003, -4.065879e-003
2.645856e+003, -4.114427e-003
2.647785e+003, -4.389465e-003
2.649713e+003, -4.890395e-003
2.651642e+003, -5.097322e-003
2.653570e+003, -5.242633e-003
2.655499e+003, -4.788682e-003
2.657427e+003, -4.632723e-003
2.659355e+003, -5.021797e-003
2.661284e+003, -5.240595e-003
2.663212e+003, -5.331326e-003
2.665141e+003, -5.165866e-003
2.667069e+003, -5.358739e-003
2.668998e+003, -5.198222e-003
2.670926e+003, -5.044876e-003
2.672855e+003, -5.162042e-003
2.674783e+003, -5.519922e-003
2.676712e+003, -5.628080e-003
2.678640e+003, -5.776646e-003
2.680569e+003, -5.601685e-003
2.682497e+003, -5.070642e-003
2.684426e+003, -5.235984e-003
2.686354e+003, -5.946770e-003
2.688282e+003, -6.106821e-003
2.690211e+003, -6.014101e-003
2.692139e+003, -5.579802e-003
2.694068e+003, -5.185706e-003
2.695996e+003, -5.479446e-003
2.697925e+003, -5.837868e-003
2.699853e+003, -5.969753e-003
2.701782e+003, -5.961841e-003
2.703710e+003, -5.614096e-003
2.705639e+003, -5.585288e-003
2.707567e+003, -5.930830e-003
2.709496e+003, -5.728750e-003
2.711424e+003, -6.106942e-003
2.713353e+003, -6.427557e-003
2.715281e+003, -5.652301e-003
2.717209e+003, -5.141696e-003
2.719138e+003, -5.316355e-003
2.721066e+003, -5.171649e-003
2.722995e+003, -5.383535e-003
2.724923e+003, -5.463832e-003
2.726852e+003, -5.635968e-003
2.728780e+003, -5.739708e-003
2.730709e+003, -5.958478e-003
2.732637e+003, -6.137292e-003
2.734566e+003, -5.807063e-003
2.736494e+003, -5.870165e-003
2.738423e+003, -6.436893e-003
2.740351e+003, -6.509223e-003
2.742280e+003, -6.042161e-003
2.744208e+003, -6.059296e-003
2.746136e+003, -6.304445e-003
2.748065e+003, -6.118123e-003
2.749993e+003, -5.856919e-003
2.751922e+003, -5.973181e-003
2.753850e+003, -6.022926e-003
2.755779e+003, -6.185331e-003
2.757707e+003, -6.039689e-003
2.759636e+003, -6.076440e-003
2.761564e+003, -5.808927e-003
2.763493e+003, -5.209482e-003
2.765421e+003, -5.288972e-003
2.767350e+003, -5.332169e-003
2.769278e+003, -5.472121e-003
2.771207e+003, -5.842483e-003
2.773135e+003, -6.099419e-003
2.775063e+003, -6.061102e-003
2.776992e+003, -5.678807e-003
2.778920e+003, -5.516358e-003
2.780849e+003, -5.728174e-003
2.782777e+003, -5.981928e-003
2.784706e+003, -5.786678e-003
2.786634e+003, -6.264432e-003
2.788563e+003, -6.130453e-003
2.790491e+003, -5.307364e-003
2.792420e+003, -5.030707e-003
2.794348e+003, -5.071886e-003
2.796277e+003, -4.883321e-003
2.798205e+003, -4.975407e-003
2.800134e+003, -5.776949e-003
2.802062e+003, -6.377717e-003
2.803990e+003, -6.359281e-003
2.805919e+003, -5.684463e-003
2.807847e+003, -5.155409e-003
2.809776e+003, -5.095150e-003
2.811704e+003, -6.161487e-003
2.813633e+003, -6.504399e-003
2.815561e+003, -5.734088e-003
2.817490e+003, -6.031469e-003
2.819418e+003, -6.251944e-003
2.821347e+003, -5.813619e-003
2.823275e+003, -5.703884e-003
2.825204e+003, -5.563154e-003
2.827132e+003, -5.556769e-003
2.829061e+003, -5.509210e-003
2.830989e+003, -5.864698e-003
2.832917e+003, -5.557458e-003
2.834846e+003, -5.434874e-003
2.836774e+003, -5.761391e-003
2.838703e+003, -6.070622e-003
2.840631e+003, -6.182370e-003
2.842560e+003, -6.056461e-003
2.844488e+003, -5.395832e-003
2.846417e+003, -4.349999e-003
2.848345e+003, -4.159172e-003
2.850274e+003, -5.054221e-003
2.852202e+003, -6.304069e-003
2.854131e+003, -7.679045e-003
2.856059e+003, -8.141036e-003
2.857988e+003, -7.726877e-003
2.859916e+003, -7.694332e-003
2.861844e+003, -7.458938e-003
2.863773e+003, -6.764133e-003
2.865701e+003, -6.842845e-003
2.867630e+003, -7.319217e-003
2.869558e+003, -7.454088e-003
2.871487e+003, -6.875364e-003
2.873415e+003, -6.201691e-003
2.875344e+003, -5.799944e-003
2.877272e+003, -6.034308e-003
2.879201e+003, -6.239337e-003
2.881129e+003, -6.596564e-003
2.883058e+003, -7.032348e-003
2.884986e+003, -7.365642e-003
2.886915e+003, -6.657602e-003
2.888843e+003, -5.839926e-003
2.890771e+003, -5.764460e-003
2.892700e+003, -6.548478e-003
2.894628e+003, -6.932155e-003
2.896557e+003, -6.305069e-003
2.898485e+003, -6.302408e-003
2.900414e+003, -6.207294e-003
2.902342e+003, -6.366148e-003
2.904271e+003, -6.203920e-003
2.906199e+003, -6.231426e-003
2.908128e+003, -6.592229e-003
2.910056e+003, -7.302127e-003
2.911985e+003, -7.365745e-003
2.913913e+003, -6.482505e-003
2.915842e+003, -6.054759e-003
2.917770e+003, -5.489921e-003
2.919698e+003, -5.912515e-003
2.921627e+003, -6.716283e-003
2.923555e+003, -8.276572e-003
2.925484e+003, -9.049023e-003
2.927412e+003, -9.317748e-003
2.929341e+003, -9.246718e-003
2.931269e+003, -9.300697e-003
2.933198e+003, -9.403840e-003
2.935126e+003, -9.120199e-003
2.937055e+003, -9.699515e-003
2.938983e+003, -9.979180e-003
2.940912e+003, -9.218420e-003
2.942840e+003, -8.809688e-003
2.944769e+003, -9.166827e-003
2.946697e+003, -9.152079e-003
2.948625e+003, -8.576672e-003
2.950554e+003, -8.001281e-003
2.952482e+003, -7.631277e-003
2.954411e+003, -8.254276e-003
2.956339e+003, -8.217990e-003
2.958268e+003, -7.450516e-003
2.960196e+003, -7.505667e-003
2.962125e+003, -7.888384e-003
2.964053e+003, -7.807340e-003
2.965982e+003, -7.838790e-003
2.967910e+003, -7.772146e-003
2.969839e+003, -7.956024e-003
2.971767e+003, -7.538854e-003
2.973696e+003, -7.759051e-003
2.975624e+003, -7.866316e-003
2.977552e+003, -7.547573e-003
2.979481e+003, -7.282712e-003
2.981409e+003, -6.818772e-003
2.983338e+003, -6.660617e-003
2.985266e+003, -6.512141e-003
2.987195e+003, -6.684676e-003
2.989123e+003, -7.140714e-003
2.991052e+003, -7.379060e-003
2.992980e+003, -7.464003e-003
2.994909e+003, -7.781134e-003
2.996837e+003, -7.178621e-003
2.998766e+003, -6.657132e-003
3.000694e+003, -6.462384e-003
3.002623e+003, -6.553706e-003
3.004551e+003, -6.900338e-003
3.006479e+003, -6.918171e-003
3.008408e+003, -6.683007e-003
3.010336e+003, -7.107864e-003
3.012265e+003, -7.104126e-003
3.014193e+003, -6.905835e-003
3.016122e+003, -6.612991e-003
3.018050e+003, -6.630737e-003
3.019979e+003, -7.244145e-003
3.021907e+003, -7.105940e-003
3.023836e+003, -6.695913e-003
3.025764e+003, -6.184893e-003
3.027693e+003, -6.071821e-003
3.029621e+003, -5.812775e-003
3.031550e+003, -5.461557e-003
3.033478e+003, -5.747938e-003
3.035406e+003, -5.683202e-003
3.037335e+003, -5.576339e-003
3.039263e+003, -5.926750e-003
3.041192e+003, -6.887921e-003
3.043120e+003, -6.651599e-003
3.045049e+003, -6.114517e-003
3.046977e+003, -6.113117e-003
3.048906e+003, -6.105220e-003
3.050834e+003, -5.723155e-003
3.052763e+003, -5.547580e-003
3.054691e+003, -5.955316e-003
3.056620e+003, -5.919524e-003
3.058548e+003, -5.644388e-003
3.060477e+003, -5.358158e-003
3.062405e+003, -5.596060e-003
3.064333e+003, -6.374681e-003
3.066262e+003, -6.582400e-003
3.068190e+003, -6.594282e-003
3.070119e+003, -5.875003e-003
3.072047e+003, -5.739031e-003
3.073976e+003, -5.974393e-003
3.075904e+003, -5.993130e-003
3.077833e+003, -5.775536e-003
3.079761e+003, -6.114682e-003
3.081690e+003, -5.723674e-003
3.083618e+003, -4.883978e-003
3.085547e+003, -4.598131e-003
3.087475e+003, -4.836284e-003
3.089404e+003, -4.733777e-003
3.091332e+003, -4.544663e-003
3.093260e+003, -4.329474e-003
3.095189e+003, -4.468405e-003
3.097117e+003, -4.573230e-003
3.099046e+003, -4.196901e-003
3.100974e+003, -3.462774e-003
3.102903e+003, -3.673885e-003
3.104831e+003, -4.745059e-003
3.106760e+003, -5.150175e-003
3.108688e+003, -4.669776e-003
3.110617e+003, -4.653451e-003
3.112545e+003, -5.297639e-003
3.114474e+003, -5.703527e-003
3.116402e+003, -5.611885e-003
3.118331e+003, -5.280792e-003
3.120259e+003, -5.328533e-003
3.122188e+003, -5.381226e-003
3.124116e+003, -5.317988e-003
3.126044e+003, -4.898874e-003
3.127973e+003, -4.191665e-003
3.129901e+003, -4.681037e-003
3.131830e+003, -4.929316e-003
3.133758e+003, -4.493110e-003
3.135687e+003, -4.360252e-003
3.137615e+003, -4.562498e-003
3.139544e+003, -4.746376e-003
3.141472e+003, -4.511856e-003
3.143401e+003, -4.673995e-003
3.145329e+003, -4.581314e-003
3.147258e+003, -4.223277e-003
3.149186e+003, -4.189470e-003
3.151115e+003, -4.266220e-003
3.153043e+003, -4.505672e-003
3.154971e+003, -4.817957e-003
3.156900e+003, -3.808299e-003
3.158828e+003, -3.480995e-003
3.160757e+003, -3.603396e-003
3.162685e+003, -3.339641e-003
3.164614e+003, -3.037383e-003
3.166542e+003, -2.492548e-003
3.168471e+003, -2.487868e-003
3.170399e+003, -2.522150e-003
3.172328e+003, -3.107430e-003
3.174256e+003, -3.627954e-003
3.176185e+003, -3.119354e-003
3.178113e+003, -3.830013e-003
3.180042e+003, -4.209418e-003
3.181970e+003, -4.259719e-003
3.183898e+003, -4.945634e-003
3.185827e+003, -4.963202e-003
3.187755e+003, -4.089054e-003
3.189684e+003, -3.814796e-003
3.191612e+003, -3.557015e-003
3.193541e+003, -3.559116e-003
3.195469e+003, -3.427887e-003
3.197398e+003, -2.769343e-003
3.199326e+003, -2.744699e-003
3.201255e+003, -3.345273e-003
3.203183e+003, -3.284873e-003
3.205112e+003, -3.188665e-003
3.207040e+003, -2.564309e-003
3.208969e+003, -2.533137e-003
3.210897e+003, -2.855019e-003
3.212825e+003, -3.392165e-003
3.214754e+003, -3.301824e-003
3.216682e+003, -2.643967e-003
3.218611e+003, -2.163012e-003
3.220539e+003, -2.682355e-003
3.222468e+003, -2.282003e-003
3.224396e+003, -2.046169e-003
3.226325e+003, -3.031932e-003
3.228253e+003, -4.064291e-003
3.230182e+003, -3.650341e-003
3.232110e+003, -3.791741e-003
3.234039e+003, -4.035228e-003
3.235967e+003, -3.272299e-003
3.237896e+003, -2.698367e-003
3.239824e+003, -2.494073e-003
3.241752e+003, -2.548529e-003
3.243681e+003, -2.678588e-003
3.245609e+003, -2.326746e-003
3.247538e+003, -2.211686e-003
3.249466e+003, -2.551041e-003
3.251395e+003, -2.577093e-003
3.253323e+003, -2.522971e-003
3.255252e+003, -1.935168e-003
3.257180e+003, -1.003025e-003
3.259109e+003, -1.520236e-003
3.261037e+003, -2.804196e-003
3.262966e+003, -3.085713e-003
3.264894e+003, -2.512416e-003
3.266823e+003, -2.041222e-003
3.268751e+003, -1.503146e-003
3.270679e+003, -2.118423e-003
3.272608e+003, -3.133659e-003
3.274536e+003, -2.753000e-003
3.276465e+003, -1.213928e-003
3.278393e+003, -3.530469e-004
3.280322e+003, -6.911688e-004
3.282250e+003, -1.280876e-003
3.284179e+003, -8.097423e-004
3.286107e+003, -1.064344e-003
3.288036e+003, -2.317762e-003
3.289964e+003, -2.509434e-003
3.291893e+003, -1.912206e-003
3.293821e+003, -1.320915e-003
3.295750e+003, -1.331089e-003
3.297678e+003, -1.906591e-003
3.299606e+003, -1.453240e-003
3.301535e+003, -1.004617e-003
3.303463e+003, -1.281740e-004
3.305392e+003, 1.693023e-004
3.307320e+003, 2.124874e-004
3.309249e+003, -5.816265e-004
3.311177e+003, -2.690782e-004
3.313106e+003, -8.793212e-005
3.315034e+003, 1.935442e-004
3.316963e+003, 5.685363e-004
3.318891e+003, -5.233827e-004
3.320820e+003, -1.236777e-003
3.322748e+003, -1.483010e-003
3.324677e+003, -7.285891e-004
3.326605e+003, 3.951620e-004
3.328533e+003, -4.606356e-005
3.330462e+003, -5.243372e-005
3.332390e+003, -6.646948e-005
3.334319e+003, -9.215486e-004
3.336247e+003, -1.236278e-003
3.338176e+003, -7.320085e-004
3.340104e+003, -4.536378e-004
3.342033e+003, -4.379936e-004
3.343961e+003, -7.017705e-004
3.345890e+003, -1.328542e-003
3.347818e+003, -1.220049e-003
3.349747e+003, -6.486910e-004
3.351675e+003, -3.445821e-006
3.353604e+003, 1.097465e-003
3.355532e+003, 9.944905e-004
3.357460e+003, 6.896709e-005
3.359389e+003, 2.221330e-004
3.361317e+003, -6.895091e-004
3.363246e+003, -1.835663e-003
3.365174e+003, -8.432992e-004
3.367103e+003, 4.415173e-004
3.369031e+003, 3.703340e-005
3.370960e+003, -4.506977e-004
3.372888e+003, 4.369537e-004
3.374817e+003, 1.120555e-003
3.376745e+003, 7.570265e-004
3.378674e+003, 3.657509e-004
3.380602e+003, -1.476957e-004
3.382531e+003, 1.030829e-003
3.384459e+003, 1.489634e-003
3.386387e+003, 6.051818e-004
3.388316e+003, 6.670090e-004
3.390244e+003, 1.505527e-003
3.392173e+003, 1.515193e-003
3.394101e+003, 1.698572e-003
3.396030e+003, 2.406776e-003
3.397958e+003, 1.829545e-003
3.399887e+003, 4.790820e-004
3.401815e+003, 2.303714e-004
3.403744e+003, 1.104715e-003
3.405672e+003, 1.800470e-003
3.407601e+003, 2.321598e-003
3.409529e+003, 1.726749e-003
3.411458e+003, 7.033787e-004
3.413386e+003, 7.726253e-004
3.415314e+003, 1.147479e-003
3.417243e+003, 1.494560e-003
3.419171e+003, 9.897668e-004
3.421100e+003, 1.296755e-003
3.423028e+003, 2.554335e-003
3.424957e+003, 2.142293e-003
3.426885e+003, 2.121788e-003
3.428814e+003, 2.035001e-003
3.430742e+003, 1.758759e-003
3.432671e+003, 1.688681e-003
3.434599e+003, 2.224143e-003
3.436528e+003, 2.333588e-003
3.438456e+003, 2.680582e-003
3.440385e+003, 1.479690e-003
3.442313e+003, 9.882170e-004
3.444241e+003, 1.506049e-003
3.446170e+003, 1.933226e-003
3.448098e+003, 2.266545e-003
3.450027e+003, 2.119188e-003
3.451955e+003, 2.680232e-003
3.453884e+003, 2.914619e-003
3.455812e+003, 3.225964e-003
3.457741e+003, 2.474249e-003
3.459669e+003, 2.607491e-003
3.461598e+003, 3.400869e-003
3.463526e+003, 3.518083e-003
3.465455e+003, 3.429542e-003
3.467383e+003, 3.915052e-003
3.469312e+003, 4.044640e-003
3.471240e+003, 3.408785e-003
3.473168e+003, 3.672355e-003
3.475097e+003, 3.547215e-003
3.477025e+003, 2.825399e-003
3.478954e+003, 2.155901e-003
3.480882e+003, 2.114460e-003
3.482811e+003, 2.417441e-003
3.484739e+003, 3.413082e-003
3.486668e+003, 3.523636e-003
3.488596e+003, 4.895180e-003
3.490525e+003, 6.527208e-003
3.492453e+003, 5.399837e-003
3.494382e+003, 3.996461e-003
3.496310e+003, 3.929109e-003
3.498239e+003, 4.095398e-003
3.500167e+003, 5.436213e-003
3.502095e+003, 6.156687e-003
3.504024e+003, 5.611699e-003
3.505952e+003, 4.837739e-003
3.507881e+003, 4.529339e-003
3.509809e+003, 4.401878e-003
3.511738e+003, 4.201579e-003
3.513666e+003, 3.223405e-003
3.515595e+003, 3.963885e-003
3.517523e+003, 4.681436e-003
3.519452e+003, 5.914990e-003
3.521380e+003, 6.081949e-003
3.523309e+003, 5.081034e-003
3.525237e+003, 6.097602e-003
3.527166e+003, 6.767537e-003
3.529094e+003, 5.846256e-003
3.531022e+003, 5.936682e-003
3.532951e+003, 6.320789e-003
3.534879e+003, 6.537189e-003
3.536808e+003, 7.878533e-003
3.538736e+003, 8.328979e-003
3.540665e+003, 6.688931e-003
3.542593e+003, 5.699984e-003
3.544522e+003, 6.051161e-003
3.546450e+003, 6.425229e-003
3.548379e+003, 6.576926e-003
3.550307e+003, 5.779575e-003
3.552236e+003, 5.825380e-003
3.554164e+003, 6.769443e-003
3.556093e+003, 7.296856e-003
3.558021e+003, 6.751263e-003
3.559949e+003, 6.521005e-003
3.561878e+003, 5.995021e-003
3.563806e+003, 5.865033e-003
3.565735e+003, 5.156808e-003
3.567663e+003, 4.532308e-003
3.569592e+003, 3.862952e-003
3.571520e+003, 3.541818e-003
3.573449e+003, 3.902577e-003
3.575377e+003, 4.064591e-003
3.577306e+003, 4.085686e-003
3.579234e+003, 4.595814e-003
3.581163e+003, 5.362190e-003
3.583091e+003, 5.702055e-003
3.585020e+003, 5.091410e-003
3.586948e+003, 5.359652e-003
3.588876e+003, 6.308968e-003
3.590805e+003, 5.556629e-003
3.592733e+003, 5.603349e-003
3.594662e+003, 6.520702e-003
3.596590e+003, 6.819013e-003
3.598519e+003, 7.831101e-003
3.600447e+003, 8.157347e-003
3.602376e+003, 8.580561e-003
3.604304e+003, 9.242937e-003
3.606233e+003, 8.767937e-003
3.608161e+003, 8.136754e-003
3.610090e+003, 7.488562e-003
3.612018e+003, 6.646034e-003
3.613947e+003, 6.906863e-003
3.615875e+003, 6.918172e-003
3.617803e+003, 7.276679e-003
3.619732e+003, 6.450861e-003
3.621660e+003, 5.256777e-003
3.623589e+003, 3.678270e-003
3.625517e+003, 2.505536e-003
3.627446e+003, 2.050243e-003
3.629374e+003, 4.448183e-005
3.631303e+003, -5.919335e-004
3.633231e+003, -1.574027e-004
3.635160e+003, -1.132566e-003
3.637088e+003, -1.529620e-003
3.639017e+003, -1.271179e-003
3.640945e+003, -2.812698e-003
3.642874e+003, -5.675273e-003
3.644802e+003, -7.304350e-003
3.646730e+003, -8.678380e-003
3.648659e+003, -9.871805e-003
3.650587e+003, -1.125244e-002
3.652516e+003, -1.247459e-002
3.654444e+003, -9.813692e-003
3.656373e+003, -8.935560e-003
3.658301e+003, -1.011674e-002
3.660230e+003, -1.000442e-002
3.662158e+003, -1.003479e-002
3.664087e+003, -1.046724e-002
3.666015e+003, -1.190674e-002
3.667944e+003, -1.217001e-002
3.669872e+003, -1.175332e-002
3.671801e+003, -1.167884e-002
3.673729e+003, -1.063549e-002
3.675657e+003, -1.095927e-002
3.677586e+003, -1.100869e-002
3.679514e+003, -1.238861e-002
3.681443e+003, -1.413127e-002
3.683371e+003, -1.276523e-002
3.685300e+003, -1.151505e-002
3.687228e+003, -1.188230e-002
3.689157e+003, -1.282953e-002
3.691085e+003, -1.286663e-002
3.693014e+003, -1.182096e-002
3.694942e+003, -1.169796e-002
3.696871e+003, -1.277216e-002
3.698799e+003, -1.230144e-002
3.700728e+003, -1.226519e-002
3.702656e+003, -1.274256e-002
3.704584e+003, -1.285259e-002
3.706513e+003, -1.380461e-002
3.708441e+003, -1.304661e-002
3.710370e+003, -1.200302e-002
3.712298e+003, -1.239556e-002
3.714227e+003, -1.196510e-002
3.716155e+003, -1.295160e-002
3.718084e+003, -1.507989e-002
3.720012e+003, -1.471883e-002
3.721941e+003, -1.310102e-002
3.723869e+003, -1.211022e-002
3.725798e+003, -1.322066e-002
3.727726e+003, -1.470100e-002
3.729655e+003, -1.362143e-002
3.731583e+003, -1.276744e-002
3.733511e+003, -1.229830e-002
3.735440e+003, -1.216219e-002
3.737368e+003, -1.270578e-002
3.739297e+003, -1.468083e-002
3.741225e+003, -1.539994e-002
3.743154e+003, -1.349302e-002
3.745082e+003, -1.446637e-002
3.747011e+003, -1.513150e-002
3.748939e+003, -1.389456e-002
3.750868e+003, -1.272015e-002
3.752796e+003, -1.398528e-002
3.754725e+003, -1.471375e-002
3.756653e+003, -1.351724e-002
3.758582e+003, -1.257989e-002
3.760510e+003, -1.243551e-002
3.762438e+003, -1.354208e-002
3.764367e+003, -1.449194e-002
3.766295e+003, -1.432827e-002
3.768224e+003, -1.385650e-002
3.770152e+003, -1.289060e-002
3.772081e+003, -1.206639e-002
3.774009e+003, -1.321827e-002
3.775938e+003, -1.329110e-002
3.777866e+003, -1.239267e-002
3.779795e+003, -1.270345e-002
3.781723e+003, -1.511399e-002
3.783652e+003, -1.614950e-002
3.785580e+003, -1.407390e-002
3.787509e+003, -1.302193e-002
3.789437e+003, -1.409309e-002
3.791365e+003, -1.339680e-002
3.793294e+003, -1.304461e-002
3.795222e+003, -1.369055e-002
3.797151e+003, -1.414770e-002
3.799079e+003, -1.324503e-002
3.801008e+003, -1.353808e-002
3.802936e+003, -1.525633e-002
3.804865e+003, -1.449271e-002
3.806793e+003, -1.249060e-002
3.808722e+003, -1.264111e-002
3.810650e+003, -1.377973e-002
3.812579e+003, -1.379436e-002
3.814507e+003, -1.253418e-002
3.816436e+003, -1.282277e-002
3.818364e+003, -1.357654e-002
3.820292e+003, -1.369422e-002
3.822221e+003, -1.418406e-002
3.824149e+003, -1.355054e-002
3.826078e+003, -1.381827e-002
3.828006e+003, -1.327790e-002
3.829935e+003, -1.282205e-002
3.831863e+003, -1.312929e-002
3.833792e+003, -1.321896e-002
3.835720e+003, -1.239471e-002
3.837649e+003, -1.199000e-002
3.839577e+003, -1.408045e-002
3.841506e+003, -1.445858e-002
3.843434e+003, -1.228572e-002
3.845363e+003, -1.296081e-002
3.847291e+003, -1.401361e-002
3.849219e+003, -1.258174e-002
3.851148e+003, -1.226603e-002
3.853076e+003, -1.270439e-002
3.855005e+003, -1.322191e-002
3.856933e+003, -1.306494e-002
3.858862e+003, -1.403384e-002
3.860790e+003, -1.420072e-002
3.862719e+003, -1.351108e-002
3.864647e+003, -1.301250e-002
3.866576e+003, -1.364380e-002
3.868504e+003, -1.359349e-002
3.870433e+003, -1.323538e-002
3.872361e+003, -1.280878e-002
3.874290e+003, -1.232999e-002
3.876218e+003, -1.267701e-002
3.878146e+003, -1.410925e-002
3.880075e+003, -1.458965e-002
3.882003e+003, -1.460561e-002
3.883932e+003, -1.465971e-002
3.885860e+003, -1.468907e-002
3.887789e+003, -1.438153e-002
3.889717e+003, -1.394439e-002
3.891646e+003, -1.395919e-002
3.893574e+003, -1.348019e-002
3.895503e+003, -1.503162e-002
3.897431e+003, -1.546931e-002
3.899360e+003, -1.459684e-002
3.901288e+003, -1.221337e-002
3.903217e+003, -1.175646e-002
3.905145e+003, -1.216527e-002
3.907073e+003, -1.287035e-002
3.909002e+003, -1.381104e-002
3.910930e+003, -1.294322e-002
3.912859e+003, -1.346460e-002
3.914787e+003, -1.497967e-002
3.916716e+003, -1.505239e-002
3.918644e+003, -1.383648e-002
3.920573e+003, -1.376147e-002
3.922501e+003, -1.478561e-002
3.924430e+003, -1.562615e-002
3.926358e+003, -1.535482e-002
3.928287e+003, -1.390522e-002
3.930215e+003, -1.317339e-002
3.932144e+003, -1.263487e-002
3.934072e+003, -1.373071e-002
3.936000e+003, -1.382811e-002
3.937929e+003, -1.401672e-002
3.939857e+003, -1.528330e-002
3.941786e+003, -1.434281e-002
3.943714e+003, -1.343827e-002
3.945643e+003, -1.356223e-002
3.947571e+003, -1.354569e-002
3.949500e+003, -1.386748e-002
3.951428e+003, -1.534290e-002
3.953357e+003, -1.649521e-002
3.955285e+003, -1.608224e-002
3.957214e+003, -1.514480e-002
3.959142e+003, -1.482931e-002
3.961071e+003, -1.520521e-002
3.962999e+003, -1.517823e-002
3.964927e+003, -1.566400e-002
3.966856e+003, -1.586362e-002
3.968784e+003, -1.511615e-002
3.970713e+003, -1.393445e-002
3.972641e+003, -1.391720e-002
3.974570e+003, -1.370232e-002
3.976498e+003, -1.463160e-002
3.978427e+003, -1.548048e-002
3.980355e+003, -1.574961e-002
3.982284e+003, -1.481745e-002
3.984212e+003, -1.499563e-002
3.986141e+003, -1.652049e-002
3.988069e+003, -1.598614e-002
3.989998e+003, -1.434314e-002
3.991926e+003, -1.512159e-002
3.993854e+003, -1.640475e-002
3.995783e+003, -1.546948e-002
3.997711e+003, -1.477550e-002
3.999640e+003, -1.478174e-002
##END=



