##NAMES=Antigorite
##RRUFFID=R070228
##IDEAL CHEMISTRY=Mg_3_Si_2_O_5_(OH)_4_
##LOCALITY=Wood's Chrome Mine (Wood's Mine), Texas, Lancaster County, Pennsylvania, USA
##OWNER=RRUFF
##SOURCE=Michael Scott
##DESCRIPTION=Compact massive, light to dark green associated with chromite
##STATUS=The identification of this mineral has been confirmed by X-ray diffraction and chemical analysis
##URL=rruff.info/R070228
##MEASURED CHEMISTRY=(Mg_2.93_Fe_0.07_)_Î£=3_Si_2.00_O_5_(OH)_4_ ; trace amounts of Al and Mn; OH estimated by difference
3.991926e+002, 1.269213e-001
4.011211e+002, 1.285048e-001
4.030495e+002, 1.281654e-001
4.049780e+002, 1.291579e-001
4.069065e+002, 1.269096e-001
4.088349e+002, 1.245773e-001
4.107634e+002, 1.251144e-001
4.126919e+002, 1.251843e-001
4.146203e+002, 1.250323e-001
4.165488e+002, 1.249074e-001
4.184773e+002, 1.256074e-001
4.204057e+002, 1.266774e-001
4.223342e+002, 1.303994e-001
4.242627e+002, 1.336777e-001
4.261911e+002, 1.363494e-001
4.281196e+002, 1.391978e-001
4.300481e+002, 1.408319e-001
4.319765e+002, 1.417928e-001
4.339050e+002, 1.430706e-001
4.358335e+002, 1.439219e-001
4.377619e+002, 1.434224e-001
4.396904e+002, 1.429542e-001
4.416189e+002, 1.426246e-001
4.435473e+002, 1.432093e-001
4.454758e+002, 1.437108e-001
4.474043e+002, 1.436674e-001
4.493327e+002, 1.417287e-001
4.512612e+002, 1.390842e-001
4.531897e+002, 1.358931e-001
4.551181e+002, 1.328271e-001
4.570466e+002, 1.292753e-001
4.589751e+002, 1.254907e-001
4.609035e+002, 1.218761e-001
4.628320e+002, 1.174725e-001
4.647605e+002, 1.138293e-001
4.666889e+002, 1.112418e-001
4.686174e+002, 1.082933e-001
4.705459e+002, 1.045241e-001
4.724743e+002, 1.007275e-001
4.744028e+002, 9.760591e-002
4.763313e+002, 9.447456e-002
4.782597e+002, 9.134538e-002
4.801882e+002, 8.877868e-002
4.821167e+002, 8.697770e-002
4.840451e+002, 8.558218e-002
4.859736e+002, 8.364237e-002
4.879021e+002, 8.096142e-002
4.898305e+002, 7.809290e-002
4.917590e+002, 7.639974e-002
4.936875e+002, 7.459015e-002
4.956159e+002, 7.274082e-002
4.975444e+002, 7.118530e-002
4.994729e+002, 6.963744e-002
5.014013e+002, 6.851150e-002
5.033298e+002, 6.772200e-002
5.052583e+002, 6.685760e-002
5.071867e+002, 6.630197e-002
5.091152e+002, 6.567972e-002
5.110437e+002, 6.529050e-002
5.129721e+002, 6.505334e-002
5.149006e+002, 6.453697e-002
5.168290e+002, 6.412183e-002
5.187575e+002, 6.387817e-002
5.206860e+002, 6.383429e-002
5.226144e+002, 6.369437e-002
5.245429e+002, 6.368992e-002
5.264714e+002, 6.491049e-002
5.283998e+002, 6.670174e-002
5.303283e+002, 6.851479e-002
5.322568e+002, 7.035056e-002
5.341852e+002, 7.194032e-002
5.361137e+002, 7.375988e-002
5.380422e+002, 7.575928e-002
5.399706e+002, 7.820819e-002
5.418991e+002, 8.150360e-002
5.438276e+002, 8.414712e-002
5.457560e+002, 8.609940e-002
5.476845e+002, 8.774247e-002
5.496130e+002, 8.909015e-002
5.515414e+002, 9.054817e-002
5.534699e+002, 9.135383e-002
5.553984e+002, 9.140583e-002
5.573268e+002, 9.153324e-002
5.592553e+002, 9.174367e-002
5.611838e+002, 9.127989e-002
5.631122e+002, 9.002358e-002
5.650407e+002, 8.827147e-002
5.669692e+002, 8.632138e-002
5.688976e+002, 8.414239e-002
5.708261e+002, 8.197139e-002
5.727546e+002, 8.020039e-002
5.746830e+002, 7.899964e-002
5.766115e+002, 7.794134e-002
5.785400e+002, 7.715593e-002
5.804684e+002, 7.696870e-002
5.823969e+002, 7.745466e-002
5.843254e+002, 7.853445e-002
5.862538e+002, 8.052394e-002
5.881823e+002, 8.298976e-002
5.901108e+002, 8.566532e-002
5.920392e+002, 8.882004e-002
5.939677e+002, 9.208701e-002
5.958962e+002, 9.540921e-002
5.978246e+002, 9.875642e-002
5.997531e+002, 1.021449e-001
6.016816e+002, 1.053586e-001
6.036100e+002, 1.083686e-001
6.055385e+002, 1.113354e-001
6.074670e+002, 1.138646e-001
6.093954e+002, 1.159114e-001
6.113239e+002, 1.174922e-001
6.132524e+002, 1.184269e-001
6.151808e+002, 1.188921e-001
6.171093e+002, 1.191072e-001
6.190378e+002, 1.187472e-001
6.209662e+002, 1.177683e-001
6.228947e+002, 1.162039e-001
6.248232e+002, 1.138820e-001
6.267516e+002, 1.114994e-001
6.286801e+002, 1.097656e-001
6.306086e+002, 1.086679e-001
6.325370e+002, 1.087991e-001
6.344655e+002, 1.094914e-001
6.363940e+002, 1.102480e-001
6.383224e+002, 1.104999e-001
6.402509e+002, 1.105517e-001
6.421794e+002, 1.104732e-001
6.441078e+002, 1.100589e-001
6.460363e+002, 1.090988e-001
6.479648e+002, 1.076946e-001
6.498932e+002, 1.061687e-001
6.518217e+002, 1.048061e-001
6.537502e+002, 1.032118e-001
6.556786e+002, 1.016320e-001
6.576071e+002, 1.001928e-001
6.595356e+002, 9.869280e-002
6.614641e+002, 9.691913e-002
6.633925e+002, 9.515531e-002
6.653210e+002, 9.325650e-002
6.672495e+002, 9.123544e-002
6.691779e+002, 8.885402e-002
6.711064e+002, 8.627297e-002
6.730349e+002, 8.365723e-002
6.749633e+002, 8.110321e-002
6.768918e+002, 7.878301e-002
6.788203e+002, 7.667334e-002
6.807487e+002, 7.476035e-002
6.826772e+002, 7.299621e-002
6.846057e+002, 7.130691e-002
6.865341e+002, 6.954485e-002
6.884626e+002, 6.793381e-002
6.903911e+002, 6.660994e-002
6.923195e+002, 6.555343e-002
6.942480e+002, 6.483947e-002
6.961765e+002, 6.461915e-002
6.981049e+002, 6.435370e-002
7.000334e+002, 6.404296e-002
7.019619e+002, 6.387738e-002
7.038903e+002, 6.397419e-002
7.058188e+002, 6.391081e-002
7.077473e+002, 6.347844e-002
7.096757e+002, 6.279837e-002
7.116042e+002, 6.188406e-002
7.135327e+002, 6.072496e-002
7.154611e+002, 5.957421e-002
7.173896e+002, 5.854745e-002
7.193181e+002, 5.771399e-002
7.212465e+002, 5.694143e-002
7.231750e+002, 5.628686e-002
7.251035e+002, 5.573932e-002
7.270319e+002, 5.511267e-002
7.289604e+002, 5.463934e-002
7.308889e+002, 5.422074e-002
7.328173e+002, 5.366528e-002
7.347458e+002, 5.330781e-002
7.366743e+002, 5.287138e-002
7.386027e+002, 5.224384e-002
7.405312e+002, 5.164895e-002
7.424597e+002, 5.110018e-002
7.443881e+002, 5.072730e-002
7.463166e+002, 5.028624e-002
7.482451e+002, 4.971221e-002
7.501735e+002, 4.907959e-002
7.521020e+002, 4.852988e-002
7.540305e+002, 4.815120e-002
7.559589e+002, 4.774168e-002
7.578874e+002, 4.728442e-002
7.598159e+002, 4.714575e-002
7.617443e+002, 4.686012e-002
7.636728e+002, 4.649016e-002
7.656013e+002, 4.626865e-002
7.675297e+002, 4.620649e-002
7.694582e+002, 4.612403e-002
7.713867e+002, 4.599312e-002
7.733151e+002, 4.581244e-002
7.752436e+002, 4.582215e-002
7.771721e+002, 4.579332e-002
7.791005e+002, 4.570083e-002
7.810290e+002, 4.546203e-002
7.829575e+002, 4.499407e-002
7.848859e+002, 4.462152e-002
7.868144e+002, 4.429858e-002
7.887429e+002, 4.419189e-002
7.906713e+002, 4.417785e-002
7.925998e+002, 4.388180e-002
7.945283e+002, 4.346011e-002
7.964567e+002, 4.317623e-002
7.983852e+002, 4.290216e-002
8.003137e+002, 4.259344e-002
8.022421e+002, 4.230073e-002
8.041706e+002, 4.207274e-002
8.060991e+002, 4.198036e-002
8.080275e+002, 4.185739e-002
8.099560e+002, 4.176027e-002
8.118845e+002, 4.158220e-002
8.138129e+002, 4.132126e-002
8.157414e+002, 4.098325e-002
8.176699e+002, 4.070706e-002
8.195983e+002, 4.053786e-002
8.215268e+002, 4.037790e-002
8.234553e+002, 4.016550e-002
8.253837e+002, 4.003818e-002
8.273122e+002, 3.981698e-002
8.292407e+002, 3.939207e-002
8.311691e+002, 3.903351e-002
8.330976e+002, 3.846539e-002
8.350261e+002, 3.797196e-002
8.369545e+002, 3.727183e-002
8.388830e+002, 3.660003e-002
8.408115e+002, 3.613522e-002
8.427399e+002, 3.561451e-002
8.446684e+002, 3.506691e-002
8.465969e+002, 3.439304e-002
8.485253e+002, 3.369396e-002
8.504538e+002, 3.286058e-002
8.523823e+002, 3.205130e-002
8.543107e+002, 3.139086e-002
8.562392e+002, 3.069274e-002
8.581677e+002, 3.015255e-002
8.600961e+002, 2.946571e-002
8.620246e+002, 2.863980e-002
8.639531e+002, 2.783564e-002
8.658815e+002, 2.729702e-002
8.678100e+002, 2.691634e-002
8.697385e+002, 2.645855e-002
8.716669e+002, 2.600959e-002
8.735954e+002, 2.557473e-002
8.755239e+002, 2.527814e-002
8.774523e+002, 2.508789e-002
8.793808e+002, 2.485859e-002
8.813093e+002, 2.480916e-002
8.832377e+002, 2.472524e-002
8.851662e+002, 2.477915e-002
8.870947e+002, 2.505115e-002
8.890231e+002, 2.521879e-002
8.909516e+002, 2.529393e-002
8.928801e+002, 2.537620e-002
8.948085e+002, 2.563485e-002
8.967370e+002, 2.587927e-002
8.986655e+002, 2.611745e-002
9.005939e+002, 2.642201e-002
9.025224e+002, 2.686517e-002
9.044509e+002, 2.736938e-002
9.063793e+002, 2.796862e-002
9.083078e+002, 2.867207e-002
9.102363e+002, 2.959045e-002
9.121647e+002, 3.052265e-002
9.140932e+002, 3.163912e-002
9.160217e+002, 3.293099e-002
9.179501e+002, 3.427802e-002
9.198786e+002, 3.586642e-002
9.218071e+002, 3.775685e-002
9.237355e+002, 4.000363e-002
9.256640e+002, 4.252892e-002
9.275925e+002, 4.533504e-002
9.295209e+002, 4.838958e-002
9.314494e+002, 5.182341e-002
9.333779e+002, 5.576264e-002
9.353063e+002, 6.029924e-002
9.372348e+002, 6.549234e-002
9.391633e+002, 7.133643e-002
9.410917e+002, 7.787501e-002
9.430202e+002, 8.488144e-002
9.449487e+002, 9.208258e-002
9.468771e+002, 9.936741e-002
9.488056e+002, 1.068771e-001
9.507341e+002, 1.144032e-001
9.526625e+002, 1.212784e-001
9.545910e+002, 1.273970e-001
9.565195e+002, 1.326817e-001
9.584479e+002, 1.369229e-001
9.603764e+002, 1.401862e-001
9.623049e+002, 1.423668e-001
9.642333e+002, 1.435662e-001
9.661618e+002, 1.446317e-001
9.680903e+002, 1.455256e-001
9.700187e+002, 1.460815e-001
9.719472e+002, 1.462063e-001
9.738757e+002, 1.458473e-001
9.758041e+002, 1.460400e-001
9.777326e+002, 1.474489e-001
9.796611e+002, 1.494931e-001
9.815895e+002, 1.515791e-001
9.835180e+002, 1.530620e-001
9.854465e+002, 1.533710e-001
9.873749e+002, 1.523321e-001
9.893034e+002, 1.500975e-001
9.912319e+002, 1.470942e-001
9.931603e+002, 1.437236e-001
9.950888e+002, 1.400930e-001
9.970173e+002, 1.361517e-001
9.989457e+002, 1.318400e-001
1.000874e+003, 1.275368e-001
1.002803e+003, 1.235410e-001
1.004731e+003, 1.196569e-001
1.006660e+003, 1.157115e-001
1.008588e+003, 1.120393e-001
1.010517e+003, 1.086989e-001
1.012445e+003, 1.055666e-001
1.014373e+003, 1.026993e-001
1.016302e+003, 9.973949e-002
1.018230e+003, 9.656542e-002
1.020159e+003, 9.359099e-002
1.022087e+003, 9.058265e-002
1.024016e+003, 8.750485e-002
1.025944e+003, 8.474090e-002
1.027873e+003, 8.237782e-002
1.029801e+003, 8.034742e-002
1.031730e+003, 7.845426e-002
1.033658e+003, 7.650142e-002
1.035587e+003, 7.440171e-002
1.037515e+003, 7.176127e-002
1.039443e+003, 6.855121e-002
1.041372e+003, 6.514823e-002
1.043300e+003, 6.182612e-002
1.045229e+003, 5.857130e-002
1.047157e+003, 5.571244e-002
1.049086e+003, 5.341444e-002
1.051014e+003, 5.142178e-002
1.052943e+003, 4.989085e-002
1.054871e+003, 4.892552e-002
1.056800e+003, 4.848009e-002
1.058728e+003, 4.860798e-002
1.060657e+003, 4.904610e-002
1.062585e+003, 4.970456e-002
1.064514e+003, 5.052876e-002
1.066442e+003, 5.122812e-002
1.068370e+003, 5.172538e-002
1.070299e+003, 5.236460e-002
1.072227e+003, 5.272361e-002
1.074156e+003, 5.257261e-002
1.076084e+003, 5.214967e-002
1.078013e+003, 5.112850e-002
1.079941e+003, 4.930591e-002
1.081870e+003, 4.713158e-002
1.083798e+003, 4.486355e-002
1.085727e+003, 4.261922e-002
1.087655e+003, 4.053760e-002
1.089584e+003, 3.837695e-002
1.091512e+003, 3.576118e-002
1.093441e+003, 3.289599e-002
1.095369e+003, 2.983322e-002
1.097297e+003, 2.693969e-002
1.099226e+003, 2.421832e-002
1.101154e+003, 2.144847e-002
1.103083e+003, 1.906092e-002
1.105011e+003, 1.737730e-002
1.106940e+003, 1.593518e-002
1.108868e+003, 1.467659e-002
1.110797e+003, 1.385706e-002
1.112725e+003, 1.346373e-002
1.114654e+003, 1.340608e-002
1.116582e+003, 1.326109e-002
1.118511e+003, 1.334906e-002
1.120439e+003, 1.358624e-002
1.122368e+003, 1.371289e-002
1.124296e+003, 1.359729e-002
1.126224e+003, 1.323718e-002
1.128153e+003, 1.287989e-002
1.130081e+003, 1.233492e-002
1.132010e+003, 1.160949e-002
1.133938e+003, 1.091488e-002
1.135867e+003, 1.026294e-002
1.137795e+003, 9.542032e-003
1.139724e+003, 8.942826e-003
1.141652e+003, 8.410282e-003
1.143581e+003, 7.984980e-003
1.145509e+003, 7.628385e-003
1.147438e+003, 7.409396e-003
1.149366e+003, 7.157864e-003
1.151295e+003, 7.021089e-003
1.153223e+003, 6.963279e-003
1.155151e+003, 6.935359e-003
1.157080e+003, 6.937662e-003
1.159008e+003, 6.915022e-003
1.160937e+003, 6.923117e-003
1.162865e+003, 6.891746e-003
1.164794e+003, 6.619088e-003
1.166722e+003, 6.374774e-003
1.168651e+003, 6.361139e-003
1.170579e+003, 6.381826e-003
1.172508e+003, 6.512673e-003
1.174436e+003, 6.970504e-003
1.176365e+003, 7.296385e-003
1.178293e+003, 7.442595e-003
1.180222e+003, 7.594440e-003
1.182150e+003, 7.781972e-003
1.184078e+003, 7.847904e-003
1.186007e+003, 7.913855e-003
1.187935e+003, 8.030917e-003
1.189864e+003, 8.036207e-003
1.191792e+003, 8.042202e-003
1.193721e+003, 8.243229e-003
1.195649e+003, 8.446828e-003
1.197578e+003, 8.653930e-003
1.199506e+003, 8.841523e-003
1.201435e+003, 8.837869e-003
1.203363e+003, 8.598734e-003
1.205292e+003, 8.227665e-003
1.207220e+003, 7.936287e-003
1.209149e+003, 7.606063e-003
1.211077e+003, 7.152852e-003
1.213005e+003, 6.681434e-003
1.214934e+003, 6.268069e-003
1.216862e+003, 5.823283e-003
1.218791e+003, 5.410292e-003
1.220719e+003, 5.096464e-003
1.222648e+003, 4.769956e-003
1.224576e+003, 4.396623e-003
1.226505e+003, 4.097749e-003
1.228433e+003, 3.902956e-003
1.230362e+003, 3.755183e-003
1.232290e+003, 3.553500e-003
1.234219e+003, 3.324992e-003
1.236147e+003, 3.005649e-003
1.238076e+003, 2.787665e-003
1.240004e+003, 2.736125e-003
1.241932e+003, 2.612753e-003
1.243861e+003, 2.487114e-003
1.245789e+003, 2.374325e-003
1.247718e+003, 2.198232e-003
1.249646e+003, 2.064032e-003
1.251575e+003, 2.060633e-003
1.253503e+003, 1.927702e-003
1.255432e+003, 1.706879e-003
1.257360e+003, 1.452335e-003
1.259289e+003, 1.272059e-003
1.261217e+003, 1.090032e-003
1.263146e+003, 9.961702e-004
1.265074e+003, 9.457448e-004
1.267003e+003, 8.220504e-004
1.268931e+003, 7.644358e-004
1.270859e+003, 8.826956e-004
1.272788e+003, 1.014183e-003
1.274716e+003, 9.816976e-004
1.276645e+003, 9.316125e-004
1.278573e+003, 9.152758e-004
1.280502e+003, 9.121876e-004
1.282430e+003, 9.911511e-004
1.284359e+003, 9.693635e-004
1.286287e+003, 1.010180e-003
1.288216e+003, 9.720100e-004
1.290144e+003, 8.426194e-004
1.292073e+003, 8.598662e-004
1.294001e+003, 9.086845e-004
1.295930e+003, 7.918196e-004
1.297858e+003, 6.952112e-004
1.299786e+003, 6.317418e-004
1.301715e+003, 6.427392e-004
1.303643e+003, 7.294478e-004
1.305572e+003, 7.390996e-004
1.307500e+003, 5.866989e-004
1.309429e+003, 4.716588e-004
1.311357e+003, 4.803558e-004
1.313286e+003, 4.794520e-004
1.315214e+003, 4.562142e-004
1.317143e+003, 4.628248e-004
1.319071e+003, 4.991938e-004
1.321000e+003, 4.903323e-004
1.322928e+003, 4.884184e-004
1.324857e+003, 5.397874e-004
1.326785e+003, 5.979974e-004
1.328714e+003, 5.235629e-004
1.330642e+003, 4.500636e-004
1.332570e+003, 5.318921e-004
1.334499e+003, 5.488162e-004
1.336427e+003, 6.232808e-004
1.338356e+003, 6.445572e-004
1.340284e+003, 6.229516e-004
1.342213e+003, 6.033300e-004
1.344141e+003, 5.122789e-004
1.346070e+003, 5.517668e-004
1.347998e+003, 6.237830e-004
1.349927e+003, 5.687605e-004
1.351855e+003, 5.717278e-004
1.353784e+003, 5.868278e-004
1.355712e+003, 5.869476e-004
1.357641e+003, 6.685745e-004
1.359569e+003, 6.573552e-004
1.361497e+003, 6.603274e-004
1.363426e+003, 7.300614e-004
1.365354e+003, 8.005837e-004
1.367283e+003, 8.116121e-004
1.369211e+003, 7.915507e-004
1.371140e+003, 8.236507e-004
1.373068e+003, 1.021428e-003
1.374997e+003, 1.212154e-003
1.376925e+003, 1.297253e-003
1.378854e+003, 1.197717e-003
1.380782e+003, 9.591020e-004
1.382711e+003, 8.385890e-004
1.384639e+003, 8.846521e-004
1.386568e+003, 8.197379e-004
1.388496e+003, 7.362224e-004
1.390424e+003, 7.154358e-004
1.392353e+003, 7.182408e-004
1.394281e+003, 8.011645e-004
1.396210e+003, 8.867353e-004
1.398138e+003, 9.719913e-004
1.400067e+003, 1.008100e-003
1.401995e+003, 1.014666e-003
1.403924e+003, 1.170549e-003
1.405852e+003, 1.166290e-003
1.407781e+003, 1.047997e-003
1.409709e+003, 1.014029e-003
1.411638e+003, 8.873534e-004
1.413566e+003, 7.730668e-004
1.415495e+003, 7.879419e-004
1.417423e+003, 9.149692e-004
1.419351e+003, 9.726543e-004
1.421280e+003, 9.219220e-004
1.423208e+003, 8.277996e-004
1.425137e+003, 6.592595e-004
1.427065e+003, 5.770990e-004
1.428994e+003, 6.714995e-004
1.430922e+003, 7.377773e-004
1.432851e+003, 7.316584e-004
1.434779e+003, 7.368958e-004
1.436708e+003, 7.744587e-004
1.438636e+003, 7.798073e-004
1.440565e+003, 7.829728e-004
1.442493e+003, 8.000220e-004
1.444422e+003, 8.620145e-004
1.446350e+003, 8.873219e-004
1.448278e+003, 8.366753e-004
1.450207e+003, 8.456952e-004
1.452135e+003, 8.412017e-004
1.454064e+003, 9.520982e-004
1.455992e+003, 1.073308e-003
1.457921e+003, 9.656893e-004
1.459849e+003, 7.767297e-004
1.461778e+003, 7.608521e-004
1.463706e+003, 6.357380e-004
1.465635e+003, 4.450536e-004
1.467563e+003, 3.396404e-004
1.469492e+003, 3.407896e-004
1.471420e+003, 3.349131e-004
1.473349e+003, 4.065860e-004
1.475277e+003, 3.916872e-004
1.477205e+003, 3.927038e-004
1.479134e+003, 3.238036e-004
1.481062e+003, 2.659723e-004
1.482991e+003, 2.710109e-004
1.484919e+003, 2.359936e-004
1.486848e+003, 2.367172e-004
1.488776e+003, 3.382147e-004
1.490705e+003, 5.545160e-004
1.492633e+003, 7.209485e-004
1.494562e+003, 8.686123e-004
1.496490e+003, 9.616163e-004
1.498419e+003, 9.409000e-004
1.500347e+003, 8.690078e-004
1.502276e+003, 8.450796e-004
1.504204e+003, 9.062763e-004
1.506132e+003, 9.684826e-004
1.508061e+003, 7.648050e-004
1.509989e+003, 5.264750e-004
1.511918e+003, 3.539293e-004
1.513846e+003, 2.321154e-004
1.515775e+003, 1.644154e-004
1.517703e+003, -1.931747e-005
1.519632e+003, -2.374607e-005
1.521560e+003, 9.805159e-005
1.523489e+003, 3.296585e-006
1.525417e+003, -1.042174e-004
1.527346e+003, 7.299775e-005
1.529274e+003, 2.130476e-004
1.531203e+003, 1.752827e-004
1.533131e+003, 1.894541e-004
1.535059e+003, 1.669218e-004
1.536988e+003, 9.931376e-005
1.538916e+003, 2.959878e-004
1.540845e+003, 4.156098e-004
1.542773e+003, 2.781154e-004
1.544702e+003, 3.446051e-004
1.546630e+003, 5.178137e-004
1.548559e+003, 5.644410e-004
1.550487e+003, 4.590085e-004
1.552416e+003, 3.037196e-004
1.554344e+003, 1.835725e-004
1.556273e+003, 2.259722e-004
1.558201e+003, 4.406471e-004
1.560130e+003, 4.557520e-004
1.562058e+003, 3.645275e-004
1.563986e+003, 3.882376e-004
1.565915e+003, 3.052242e-004
1.567843e+003, 2.193654e-004
1.569772e+003, 3.797266e-004
1.571700e+003, 4.413996e-004
1.573629e+003, 4.468192e-004
1.575557e+003, 5.736179e-004
1.577486e+003, 7.631711e-004
1.579414e+003, 7.169884e-004
1.581343e+003, 4.941295e-004
1.583271e+003, 4.107235e-004
1.585200e+003, 6.221915e-004
1.587128e+003, 8.567726e-004
1.589057e+003, 7.084592e-004
1.590985e+003, 6.515742e-004
1.592913e+003, 7.666766e-004
1.594842e+003, 9.078954e-004
1.596770e+003, 9.680995e-004
1.598699e+003, 8.818927e-004
1.600627e+003, 7.672402e-004
1.602556e+003, 8.427770e-004
1.604484e+003, 9.303259e-004
1.606413e+003, 9.245522e-004
1.608341e+003, 8.410209e-004
1.610270e+003, 8.181354e-004
1.612198e+003, 9.051005e-004
1.614127e+003, 9.381911e-004
1.616055e+003, 9.681894e-004
1.617984e+003, 9.692216e-004
1.619912e+003, 9.118326e-004
1.621840e+003, 8.947699e-004
1.623769e+003, 8.246066e-004
1.625697e+003, 8.536138e-004
1.627626e+003, 8.996910e-004
1.629554e+003, 8.329519e-004
1.631483e+003, 9.414683e-004
1.633411e+003, 1.135193e-003
1.635340e+003, 1.223087e-003
1.637268e+003, 1.065746e-003
1.639197e+003, 1.009114e-003
1.641125e+003, 1.122409e-003
1.643054e+003, 9.757386e-004
1.644982e+003, 8.642286e-004
1.646911e+003, 8.431019e-004
1.648839e+003, 7.567309e-004
1.650767e+003, 8.352475e-004
1.652696e+003, 1.019508e-003
1.654624e+003, 7.867808e-004
1.656553e+003, 5.409025e-004
1.658481e+003, 5.496584e-004
1.660410e+003, 5.446140e-004
1.662338e+003, 4.188531e-004
1.664267e+003, 2.962415e-004
1.666195e+003, 1.887171e-004
1.668124e+003, 8.343973e-005
1.670052e+003, 2.873856e-005
1.671981e+003, 1.917566e-005
1.673909e+003, 4.985841e-005
1.675838e+003, -7.863703e-005
1.677766e+003, -2.435281e-004
1.679694e+003, -2.096025e-004
1.681623e+003, -3.211457e-004
1.683551e+003, -1.619293e-004
1.685480e+003, -9.154844e-005
1.687408e+003, -2.630423e-004
1.689337e+003, -3.457127e-004
1.691265e+003, -4.126563e-004
1.693194e+003, -4.486846e-004
1.695122e+003, -2.771503e-004
1.697051e+003, -3.491376e-004
1.698979e+003, -3.918555e-004
1.700908e+003, -3.245451e-004
1.702836e+003, -4.743016e-004
1.704765e+003, -5.330446e-004
1.706693e+003, -5.763759e-004
1.708621e+003, -6.965637e-004
1.710550e+003, -7.378437e-004
1.712478e+003, -6.244567e-004
1.714407e+003, -7.330557e-004
1.716335e+003, -7.628059e-004
1.718264e+003, -7.714063e-004
1.720192e+003, -9.834882e-004
1.722121e+003, -9.573098e-004
1.724049e+003, -9.104084e-004
1.725978e+003, -9.596983e-004
1.727906e+003, -1.059462e-003
1.729835e+003, -1.181809e-003
1.731763e+003, -1.196941e-003
1.733692e+003, -1.182394e-003
1.735620e+003, -1.429028e-003
1.737548e+003, -1.683019e-003
1.739477e+003, -1.721008e-003
1.741405e+003, -1.953907e-003
1.743334e+003, -2.094224e-003
1.745262e+003, -2.157326e-003
1.747191e+003, -2.197122e-003
1.749119e+003, -2.050513e-003
1.751048e+003, -1.902844e-003
1.752976e+003, -1.689503e-003
1.754905e+003, -1.482824e-003
1.756833e+003, -1.378192e-003
1.758762e+003, -1.293965e-003
1.760690e+003, -1.087154e-003
1.762619e+003, -7.768699e-004
1.764547e+003, -6.203611e-004
1.766475e+003, -5.533184e-004
1.768404e+003, -4.732390e-004
1.770332e+003, -4.650252e-004
1.772261e+003, -4.377186e-004
1.774189e+003, -3.673999e-004
1.776118e+003, -4.276884e-004
1.778046e+003, -6.472798e-004
1.779975e+003, -7.653023e-004
1.781903e+003, -9.519677e-004
1.783832e+003, -1.012032e-003
1.785760e+003, -9.709962e-004
1.787689e+003, -1.073565e-003
1.789617e+003, -1.127722e-003
1.791546e+003, -1.329145e-003
1.793474e+003, -1.591379e-003
1.795402e+003, -1.669258e-003
1.797331e+003, -1.725485e-003
1.799259e+003, -1.691826e-003
1.801188e+003, -1.705142e-003
1.803116e+003, -1.822792e-003
1.805045e+003, -1.788763e-003
1.806973e+003, -1.893653e-003
1.808902e+003, -2.020152e-003
1.810830e+003, -2.083468e-003
1.812759e+003, -2.140499e-003
1.814687e+003, -2.376251e-003
1.816616e+003, -2.509350e-003
1.818544e+003, -2.306990e-003
1.820473e+003, -2.218376e-003
1.822401e+003, -2.322542e-003
1.824329e+003, -2.065799e-003
1.826258e+003, -1.872777e-003
1.828186e+003, -1.965465e-003
1.830115e+003, -2.031776e-003
1.832043e+003, -2.029195e-003
1.833972e+003, -1.873490e-003
1.835900e+003, -2.039907e-003
1.837829e+003, -2.363596e-003
1.839757e+003, -2.406675e-003
1.841686e+003, -2.390953e-003
1.843614e+003, -2.308613e-003
1.845543e+003, -2.018727e-003
1.847471e+003, -1.949149e-003
1.849400e+003, -2.061268e-003
1.851328e+003, -2.284079e-003
1.853256e+003, -2.277579e-003
1.855185e+003, -2.252433e-003
1.857113e+003, -2.420494e-003
1.859042e+003, -2.012235e-003
1.860970e+003, -1.925684e-003
1.862899e+003, -2.118609e-003
1.864827e+003, -2.163446e-003
1.866756e+003, -2.146127e-003
1.868684e+003, -2.087520e-003
1.870613e+003, -2.450567e-003
1.872541e+003, -2.879736e-003
1.874470e+003, -2.586507e-003
1.876398e+003, -2.369270e-003
1.878327e+003, -2.520682e-003
1.880255e+003, -2.656588e-003
1.882183e+003, -2.783409e-003
1.884112e+003, -2.593467e-003
1.886040e+003, -2.561068e-003
1.887969e+003, -2.615905e-003
1.889897e+003, -2.751462e-003
1.891826e+003, -2.842186e-003
1.893754e+003, -2.835087e-003
1.895683e+003, -2.691429e-003
1.897611e+003, -2.811462e-003
1.899540e+003, -3.235543e-003
1.901468e+003, -3.260551e-003
1.903397e+003, -3.509483e-003
1.905325e+003, -3.459998e-003
1.907254e+003, -3.033220e-003
1.909182e+003, -3.235517e-003
1.911110e+003, -3.476414e-003
1.913039e+003, -3.393123e-003
1.914967e+003, -2.953651e-003
1.916896e+003, -2.856292e-003
1.918824e+003, -3.192539e-003
1.920753e+003, -3.621313e-003
1.922681e+003, -3.774811e-003
1.924610e+003, -3.666323e-003
1.926538e+003, -3.178285e-003
1.928467e+003, -3.069559e-003
1.930395e+003, -3.698704e-003
1.932324e+003, -4.387825e-003
1.934252e+003, -4.020330e-003
1.936181e+003, -3.704492e-003
1.938109e+003, -3.630046e-003
1.940037e+003, -3.801595e-003
1.941966e+003, -3.559880e-003
1.943894e+003, -3.249490e-003
1.945823e+003, -3.645767e-003
1.947751e+003, -3.959881e-003
1.949680e+003, -3.285816e-003
1.951608e+003, -2.843921e-003
1.953537e+003, -3.355313e-003
1.955465e+003, -4.167117e-003
1.957394e+003, -4.285645e-003
1.959322e+003, -4.221566e-003
1.961251e+003, -3.697321e-003
1.963179e+003, -3.766851e-003
1.965108e+003, -4.532452e-003
1.967036e+003, -5.618972e-003
1.968964e+003, -5.979748e-003
1.970893e+003, -4.821518e-003
1.972821e+003, -4.616622e-003
1.974750e+003, -5.400772e-003
1.976678e+003, -4.765077e-003
1.978607e+003, -4.025306e-003
1.980535e+003, -3.977052e-003
1.982464e+003, -3.707232e-003
1.984392e+003, -3.647812e-003
1.986321e+003, -3.917324e-003
1.988249e+003, -3.615453e-003
1.990178e+003, -3.534842e-003
1.992106e+003, -3.312909e-003
1.994035e+003, -3.062857e-003
1.995963e+003, -2.968461e-003
1.997891e+003, -3.144691e-003
1.999820e+003, -3.213058e-003
2.001748e+003, -3.770248e-003
2.003677e+003, -4.090550e-003
2.005605e+003, -4.246047e-003
2.007534e+003, -4.128495e-003
2.009462e+003, -2.750430e-003
2.011391e+003, -2.584961e-003
2.013319e+003, -3.358452e-003
2.015248e+003, -4.177705e-003
2.017176e+003, -4.294877e-003
2.019105e+003, -3.516897e-003
2.021033e+003, -2.462517e-003
2.022962e+003, -2.995953e-003
2.024890e+003, -3.407845e-003
2.026818e+003, -3.311082e-003
2.028747e+003, -3.757589e-003
2.030675e+003, -3.558587e-003
2.032604e+003, -3.728978e-003
2.034532e+003, -4.013390e-003
2.036461e+003, -4.185597e-003
2.038389e+003, -3.682677e-003
2.040318e+003, -3.276567e-003
2.042246e+003, -3.541793e-003
2.044175e+003, -3.033649e-003
2.046103e+003, -2.749325e-003
2.048031e+003, -2.773434e-003
2.049960e+003, -2.842298e-003
2.051888e+003, -2.577299e-003
2.053817e+003, -2.907804e-003
2.055745e+003, -3.257163e-003
2.057674e+003, -3.259819e-003
2.059602e+003, -2.655896e-003
2.061531e+003, -2.681070e-003
2.063459e+003, -3.188442e-003
2.065388e+003, -3.251673e-003
2.067316e+003, -2.769922e-003
2.069245e+003, -2.609144e-003
2.071173e+003, -2.450971e-003
2.073102e+003, -2.158562e-003
2.075030e+003, -2.444591e-003
2.076958e+003, -2.796297e-003
2.078887e+003, -2.362902e-003
2.080815e+003, -2.443441e-003
2.082744e+003, -2.806556e-003
2.084672e+003, -3.025703e-003
2.086601e+003, -3.128287e-003
2.088529e+003, -3.111020e-003
2.090458e+003, -3.528926e-003
2.092386e+003, -3.686375e-003
2.094315e+003, -3.258590e-003
2.096243e+003, -2.507763e-003
2.098172e+003, -2.322277e-003
2.100100e+003, -2.659915e-003
2.102029e+003, -2.611744e-003
2.103957e+003, -2.494741e-003
2.105885e+003, -2.257012e-003
2.107814e+003, -2.500106e-003
2.109742e+003, -3.171678e-003
2.111671e+003, -3.463498e-003
2.113599e+003, -2.723897e-003
2.115528e+003, -2.406624e-003
2.117456e+003, -2.761912e-003
2.119385e+003, -2.639121e-003
2.121313e+003, -2.719312e-003
2.123242e+003, -2.805137e-003
2.125170e+003, -2.785247e-003
2.127099e+003, -2.717152e-003
2.129027e+003, -2.583365e-003
2.130956e+003, -2.999258e-003
2.132884e+003, -3.686983e-003
2.134813e+003, -4.010378e-003
2.136741e+003, -3.427111e-003
2.138669e+003, -2.985330e-003
2.140598e+003, -3.380373e-003
2.142526e+003, -3.711903e-003
2.144455e+003, -3.331554e-003
2.146383e+003, -2.345694e-003
2.148312e+003, -2.062845e-003
2.150240e+003, -2.049859e-003
2.152169e+003, -1.781151e-003
2.154097e+003, -1.844507e-003
2.156026e+003, -2.190519e-003
2.157954e+003, -7.485361e-004
2.159883e+003, 1.101643e-003
2.161811e+003, -2.944949e-004
2.163740e+003, -1.992208e-003
2.165668e+003, -1.551714e-003
2.167596e+003, -1.258544e-003
2.169525e+003, -1.279849e-003
2.171453e+003, -1.701321e-003
2.173382e+003, -1.588479e-003
2.175310e+003, -2.330687e-003
2.177239e+003, -1.866674e-003
2.179167e+003, -1.306349e-003
2.181096e+003, -1.727277e-003
2.183024e+003, -1.760139e-003
2.184953e+003, -9.105862e-004
2.186881e+003, -9.860026e-004
2.188810e+003, -2.000873e-003
2.190738e+003, -2.111047e-003
2.192667e+003, -1.912603e-003
2.194595e+003, -9.584017e-004
2.196523e+003, -2.312176e-004
2.198452e+003, -8.430204e-004
2.200380e+003, -1.626874e-003
2.202309e+003, -1.927280e-003
2.204237e+003, -1.512731e-003
2.206166e+003, -1.575633e-003
2.208094e+003, -1.491389e-003
2.210023e+003, -1.155718e-003
2.211951e+003, -1.547844e-003
2.213880e+003, -1.988912e-003
2.215808e+003, -2.394658e-003
2.217737e+003, -1.485742e-003
2.219665e+003, -4.733413e-004
2.221594e+003, -9.621858e-004
2.223522e+003, -1.407960e-003
2.225450e+003, -9.761452e-004
2.227379e+003, -4.769859e-004
2.229307e+003, -6.459609e-004
2.231236e+003, -1.054786e-003
2.233164e+003, -8.887566e-004
2.235093e+003, -6.800921e-004
2.237021e+003, -9.420989e-004
2.238950e+003, -8.799738e-004
2.240878e+003, -5.466418e-004
2.242807e+003, -6.910163e-004
2.244735e+003, -6.912547e-004
2.246664e+003, -6.445758e-004
2.248592e+003, -9.164601e-004
2.250521e+003, -1.309387e-003
2.252449e+003, -1.375399e-003
2.254377e+003, -1.447992e-003
2.256306e+003, -1.461322e-003
2.258234e+003, -1.518394e-003
2.260163e+003, -1.481687e-003
2.262091e+003, -1.505870e-003
2.264020e+003, -1.388526e-003
2.265948e+003, -1.614847e-003
2.267877e+003, -1.682876e-003
2.269805e+003, -1.219550e-003
2.271734e+003, -9.682719e-004
2.273662e+003, -9.490816e-004
2.275591e+003, -1.441134e-003
2.277519e+003, -1.673473e-003
2.279448e+003, -1.578785e-003
2.281376e+003, -1.481039e-003
2.283304e+003, -1.559457e-003
2.285233e+003, -1.443315e-003
2.287161e+003, -1.276125e-003
2.289090e+003, -1.597354e-003
2.291018e+003, -1.921527e-003
2.292947e+003, -1.858735e-003
2.294875e+003, -1.765039e-003
2.296804e+003, -1.729389e-003
2.298732e+003, -1.645894e-003
2.300661e+003, -1.839937e-003
2.302589e+003, -2.110597e-003
2.304518e+003, -2.190347e-003
2.306446e+003, -2.251715e-003
2.308375e+003, -2.033093e-003
2.310303e+003, -2.091401e-003
2.312231e+003, -2.173983e-003
2.314160e+003, -2.004238e-003
2.316088e+003, -1.864549e-003
2.318017e+003, -1.571259e-003
2.319945e+003, -1.381335e-003
2.321874e+003, -1.204785e-003
2.323802e+003, -1.348349e-003
2.325731e+003, -1.841854e-003
2.327659e+003, -2.136104e-003
2.329588e+003, -2.085814e-003
2.331516e+003, -2.075646e-003
2.333445e+003, -2.157467e-003
2.335373e+003, -1.975372e-003
2.337302e+003, -1.859706e-003
2.339230e+003, -1.864819e-003
2.341158e+003, -1.792049e-003
2.343087e+003, -1.812665e-003
2.345015e+003, -1.905917e-003
2.346944e+003, -2.281093e-003
2.348872e+003, -2.755502e-003
2.350801e+003, -2.451746e-003
2.352729e+003, -1.965531e-003
2.354658e+003, -1.698166e-003
2.356586e+003, -1.327010e-003
2.358515e+003, -1.363833e-003
2.360443e+003, -1.532361e-003
2.362372e+003, -1.470741e-003
2.364300e+003, -1.484222e-003
2.366229e+003, -1.695253e-003
2.368157e+003, -1.675692e-003
2.370085e+003, -1.843752e-003
2.372014e+003, -2.262502e-003
2.373942e+003, -2.567691e-003
2.375871e+003, -2.882590e-003
2.377799e+003, -3.016674e-003
2.379728e+003, -2.916144e-003
2.381656e+003, -2.480911e-003
2.383585e+003, -2.379595e-003
2.385513e+003, -2.599757e-003
2.387442e+003, -2.470232e-003
2.389370e+003, -2.444840e-003
2.391299e+003, -2.700807e-003
2.393227e+003, -2.930066e-003
2.395156e+003, -2.857709e-003
2.397084e+003, -3.146898e-003
2.399012e+003, -3.176444e-003
2.400941e+003, -2.547927e-003
2.402869e+003, -2.429161e-003
2.404798e+003, -2.719077e-003
2.406726e+003, -2.636538e-003
2.408655e+003, -2.539821e-003
2.410583e+003, -2.562533e-003
2.412512e+003, -2.781700e-003
2.414440e+003, -2.833246e-003
2.416369e+003, -2.663438e-003
2.418297e+003, -2.461568e-003
2.420226e+003, -2.710343e-003
2.422154e+003, -3.034035e-003
2.424083e+003, -3.147732e-003
2.426011e+003, -3.100870e-003
2.427939e+003, -3.144411e-003
2.429868e+003, -2.995377e-003
2.431796e+003, -3.109351e-003
2.433725e+003, -3.320375e-003
2.435653e+003, -3.073632e-003
2.437582e+003, -3.178122e-003
2.439510e+003, -3.023518e-003
2.441439e+003, -3.069508e-003
2.443367e+003, -3.349860e-003
2.445296e+003, -3.111113e-003
2.447224e+003, -2.553588e-003
2.449153e+003, -2.619588e-003
2.451081e+003, -2.694197e-003
2.453010e+003, -2.649493e-003
2.454938e+003, -2.670118e-003
2.456866e+003, -3.056179e-003
2.458795e+003, -3.265992e-003
2.460723e+003, -3.089997e-003
2.462652e+003, -2.847282e-003
2.464580e+003, -2.794742e-003
2.466509e+003, -3.111385e-003
2.468437e+003, -3.346252e-003
2.470366e+003, -3.358694e-003
2.472294e+003, -2.996036e-003
2.474223e+003, -2.768829e-003
2.476151e+003, -2.893109e-003
2.478080e+003, -3.207263e-003
2.480008e+003, -3.077230e-003
2.481937e+003, -2.745055e-003
2.483865e+003, -2.589929e-003
2.485793e+003, -2.710211e-003
2.487722e+003, -3.157393e-003
2.489650e+003, -3.566187e-003
2.491579e+003, -3.028345e-003
2.493507e+003, -2.577255e-003
2.495436e+003, -2.755217e-003
2.497364e+003, -3.184666e-003
2.499293e+003, -3.122021e-003
2.501221e+003, -2.958189e-003
2.503150e+003, -3.188187e-003
2.505078e+003, -3.108586e-003
2.507007e+003, -2.608049e-003
2.508935e+003, -2.627761e-003
2.510864e+003, -2.860179e-003
2.512792e+003, -3.034959e-003
2.514720e+003, -3.103204e-003
2.516649e+003, -3.008421e-003
2.518577e+003, -2.669260e-003
2.520506e+003, -2.330636e-003
2.522434e+003, -2.606808e-003
2.524363e+003, -3.136893e-003
2.526291e+003, -3.336458e-003
2.528220e+003, -3.170579e-003
2.530148e+003, -3.325748e-003
2.532077e+003, -3.384106e-003
2.534005e+003, -3.524567e-003
2.535934e+003, -3.474775e-003
2.537862e+003, -3.226123e-003
2.539791e+003, -3.364528e-003
2.541719e+003, -3.455018e-003
2.543647e+003, -3.358202e-003
2.545576e+003, -3.527094e-003
2.547504e+003, -3.545451e-003
2.549433e+003, -3.485782e-003
2.551361e+003, -3.363138e-003
2.553290e+003, -3.024589e-003
2.555218e+003, -3.109479e-003
2.557147e+003, -2.817129e-003
2.559075e+003, -2.892528e-003
2.561004e+003, -2.926987e-003
2.562932e+003, -2.992921e-003
2.564861e+003, -3.346881e-003
2.566789e+003, -3.416753e-003
2.568718e+003, -3.136006e-003
2.570646e+003, -3.337641e-003
2.572574e+003, -3.560349e-003
2.574503e+003, -2.911878e-003
2.576431e+003, -2.492128e-003
2.578360e+003, -2.611481e-003
2.580288e+003, -2.435196e-003
2.582217e+003, -2.386766e-003
2.584145e+003, -2.702107e-003
2.586074e+003, -2.520191e-003
2.588002e+003, -2.530917e-003
2.589931e+003, -2.856348e-003
2.591859e+003, -2.698144e-003
2.593788e+003, -2.972367e-003
2.595716e+003, -3.235260e-003
2.597645e+003, -2.902435e-003
2.599573e+003, -2.872406e-003
2.601501e+003, -3.066119e-003
2.603430e+003, -3.120126e-003
2.605358e+003, -3.183590e-003
2.607287e+003, -3.061674e-003
2.609215e+003, -2.922823e-003
2.611144e+003, -2.702101e-003
2.613072e+003, -2.560828e-003
2.615001e+003, -2.683087e-003
2.616929e+003, -2.681986e-003
2.618858e+003, -2.479074e-003
2.620786e+003, -2.606570e-003
2.622715e+003, -2.806441e-003
2.624643e+003, -3.242728e-003
2.626572e+003, -3.107590e-003
2.628500e+003, -2.628633e-003
2.630428e+003, -2.754592e-003
2.632357e+003, -3.029384e-003
2.634285e+003, -2.991077e-003
2.636214e+003, -2.783151e-003
2.638142e+003, -2.779465e-003
2.640071e+003, -2.878998e-003
2.641999e+003, -2.772854e-003
2.643928e+003, -2.633949e-003
2.645856e+003, -2.732118e-003
2.647785e+003, -2.801007e-003
2.649713e+003, -2.560720e-003
2.651642e+003, -2.491090e-003
2.653570e+003, -2.647595e-003
2.655499e+003, -2.834153e-003
2.657427e+003, -2.846257e-003
2.659355e+003, -2.791397e-003
2.661284e+003, -2.871659e-003
2.663212e+003, -3.014416e-003
2.665141e+003, -3.044999e-003
2.667069e+003, -3.033486e-003
2.668998e+003, -2.995763e-003
2.670926e+003, -3.134415e-003
2.672855e+003, -2.985053e-003
2.674783e+003, -2.810351e-003
2.676712e+003, -3.056219e-003
2.678640e+003, -3.272923e-003
2.680569e+003, -3.157955e-003
2.682497e+003, -3.009039e-003
2.684426e+003, -3.066857e-003
2.686354e+003, -3.236242e-003
2.688282e+003, -3.518363e-003
2.690211e+003, -3.586857e-003
2.692139e+003, -3.286191e-003
2.694068e+003, -2.998182e-003
2.695996e+003, -3.168395e-003
2.697925e+003, -3.136371e-003
2.699853e+003, -3.090914e-003
2.701782e+003, -3.123071e-003
2.703710e+003, -3.253892e-003
2.705639e+003, -3.309354e-003
2.707567e+003, -3.136036e-003
2.709496e+003, -3.191940e-003
2.711424e+003, -3.209923e-003
2.713353e+003, -3.030040e-003
2.715281e+003, -2.838202e-003
2.717209e+003, -2.996157e-003
2.719138e+003, -3.101394e-003
2.721066e+003, -3.127904e-003
2.722995e+003, -3.133489e-003
2.724923e+003, -3.017773e-003
2.726852e+003, -3.003186e-003
2.728780e+003, -2.901264e-003
2.730709e+003, -2.930333e-003
2.732637e+003, -2.980941e-003
2.734566e+003, -3.014619e-003
2.736494e+003, -3.042649e-003
2.738423e+003, -2.899290e-003
2.740351e+003, -2.930348e-003
2.742280e+003, -2.834912e-003
2.744208e+003, -2.981881e-003
2.746136e+003, -2.939905e-003
2.748065e+003, -2.843630e-003
2.749993e+003, -2.825121e-003
2.751922e+003, -3.035789e-003
2.753850e+003, -3.229431e-003
2.755779e+003, -3.220341e-003
2.757707e+003, -2.945115e-003
2.759636e+003, -2.509592e-003
2.761564e+003, -2.567439e-003
2.763493e+003, -2.757017e-003
2.765421e+003, -2.909521e-003
2.767350e+003, -2.878110e-003
2.769278e+003, -2.730568e-003
2.771207e+003, -3.007578e-003
2.773135e+003, -3.018691e-003
2.775063e+003, -2.594722e-003
2.776992e+003, -2.478027e-003
2.778920e+003, -2.694865e-003
2.780849e+003, -2.782544e-003
2.782777e+003, -2.671076e-003
2.784706e+003, -2.638710e-003
2.786634e+003, -2.499334e-003
2.788563e+003, -2.546642e-003
2.790491e+003, -2.706012e-003
2.792420e+003, -2.425024e-003
2.794348e+003, -2.269737e-003
2.796277e+003, -2.410320e-003
2.798205e+003, -2.157444e-003
2.800134e+003, -2.114784e-003
2.802062e+003, -2.452377e-003
2.803990e+003, -2.437043e-003
2.805919e+003, -2.444224e-003
2.807847e+003, -2.329321e-003
2.809776e+003, -2.131902e-003
2.811704e+003, -2.118245e-003
2.813633e+003, -2.354133e-003
2.815561e+003, -2.566652e-003
2.817490e+003, -2.449660e-003
2.819418e+003, -2.287552e-003
2.821347e+003, -2.466703e-003
2.823275e+003, -2.370952e-003
2.825204e+003, -2.315050e-003
2.827132e+003, -2.464850e-003
2.829061e+003, -2.656077e-003
2.830989e+003, -2.340962e-003
2.832917e+003, -1.901624e-003
2.834846e+003, -1.712281e-003
2.836774e+003, -1.616233e-003
2.838703e+003, -1.693727e-003
2.840631e+003, -1.984936e-003
2.842560e+003, -2.180469e-003
2.844488e+003, -2.292996e-003
2.846417e+003, -2.642838e-003
2.848345e+003, -3.005016e-003
2.850274e+003, -3.357964e-003
2.852202e+003, -3.411442e-003
2.854131e+003, -3.602386e-003
2.856059e+003, -3.785623e-003
2.857988e+003, -3.557089e-003
2.859916e+003, -3.027725e-003
2.861844e+003, -2.464963e-003
2.863773e+003, -2.166803e-003
2.865701e+003, -2.336816e-003
2.867630e+003, -2.198711e-003
2.869558e+003, -1.933967e-003
2.871487e+003, -2.175143e-003
2.873415e+003, -1.957167e-003
2.875344e+003, -1.545246e-003
2.877272e+003, -1.602584e-003
2.879201e+003, -1.955402e-003
2.881129e+003, -2.183184e-003
2.883058e+003, -2.098564e-003
2.884986e+003, -1.801943e-003
2.886915e+003, -1.941955e-003
2.888843e+003, -1.864538e-003
2.890771e+003, -1.783848e-003
2.892700e+003, -1.795316e-003
2.894628e+003, -1.984043e-003
2.896557e+003, -2.352912e-003
2.898485e+003, -2.536631e-003
2.900414e+003, -2.292995e-003
2.902342e+003, -1.892296e-003
2.904271e+003, -1.412014e-003
2.906199e+003, -1.294580e-003
2.908128e+003, -1.608941e-003
2.910056e+003, -1.686688e-003
2.911985e+003, -1.493865e-003
2.913913e+003, -1.795915e-003
2.915842e+003, -2.339694e-003
2.917770e+003, -2.610656e-003
2.919698e+003, -2.868418e-003
2.921627e+003, -2.978706e-003
2.923555e+003, -2.927838e-003
2.925484e+003, -3.070025e-003
2.927412e+003, -3.104687e-003
2.929341e+003, -2.741212e-003
2.931269e+003, -2.661636e-003
2.933198e+003, -2.773981e-003
2.935126e+003, -3.037037e-003
2.937055e+003, -2.965575e-003
2.938983e+003, -2.801695e-003
2.940912e+003, -2.819411e-003
2.942840e+003, -2.823534e-003
2.944769e+003, -2.339521e-003
2.946697e+003, -1.831587e-003
2.948625e+003, -1.519810e-003
2.950554e+003, -1.331686e-003
2.952482e+003, -1.497925e-003
2.954411e+003, -1.576857e-003
2.956339e+003, -1.511590e-003
2.958268e+003, -1.636054e-003
2.960196e+003, -1.568096e-003
2.962125e+003, -1.431904e-003
2.964053e+003, -1.468776e-003
2.965982e+003, -1.617380e-003
2.967910e+003, -1.585854e-003
2.969839e+003, -1.813534e-003
2.971767e+003, -2.199632e-003
2.973696e+003, -2.297781e-003
2.975624e+003, -2.251468e-003
2.977552e+003, -2.465968e-003
2.979481e+003, -2.489764e-003
2.981409e+003, -2.112846e-003
2.983338e+003, -2.032336e-003
2.985266e+003, -2.180423e-003
2.987195e+003, -2.102818e-003
2.989123e+003, -2.019660e-003
2.991052e+003, -2.500711e-003
2.992980e+003, -3.006245e-003
2.994909e+003, -2.843560e-003
2.996837e+003, -2.649732e-003
2.998766e+003, -2.735648e-003
3.000694e+003, -2.606770e-003
3.002623e+003, -2.550390e-003
3.004551e+003, -2.567159e-003
3.006479e+003, -2.304460e-003
3.008408e+003, -2.155218e-003
3.010336e+003, -1.924391e-003
3.012265e+003, -1.896153e-003
3.014193e+003, -2.048878e-003
3.016122e+003, -1.761420e-003
3.018050e+003, -1.760585e-003
3.019979e+003, -1.834784e-003
3.021907e+003, -1.820194e-003
3.023836e+003, -2.228930e-003
3.025764e+003, -2.447444e-003
3.027693e+003, -2.215413e-003
3.029621e+003, -1.846915e-003
3.031550e+003, -1.881226e-003
3.033478e+003, -2.265493e-003
3.035406e+003, -2.176598e-003
3.037335e+003, -2.090905e-003
3.039263e+003, -2.190286e-003
3.041192e+003, -2.081049e-003
3.043120e+003, -1.879926e-003
3.045049e+003, -1.647192e-003
3.046977e+003, -1.897192e-003
3.048906e+003, -2.288250e-003
3.050834e+003, -1.906421e-003
3.052763e+003, -1.529445e-003
3.054691e+003, -1.959933e-003
3.056620e+003, -1.958367e-003
3.058548e+003, -1.778089e-003
3.060477e+003, -1.697613e-003
3.062405e+003, -1.676316e-003
3.064333e+003, -1.199809e-003
3.066262e+003, -1.332541e-003
3.068190e+003, -1.785874e-003
3.070119e+003, -1.654040e-003
3.072047e+003, -1.598894e-003
3.073976e+003, -1.788723e-003
3.075904e+003, -1.539372e-003
3.077833e+003, -1.032902e-003
3.079761e+003, -8.376891e-004
3.081690e+003, -1.107718e-003
3.083618e+003, -1.337195e-003
3.085547e+003, -1.151968e-003
3.087475e+003, -1.215881e-003
3.089404e+003, -1.599826e-003
3.091332e+003, -1.818736e-003
3.093260e+003, -1.523251e-003
3.095189e+003, -1.076301e-003
3.097117e+003, -1.045213e-003
3.099046e+003, -8.656145e-004
3.100974e+003, -1.002225e-003
3.102903e+003, -1.170123e-003
3.104831e+003, -8.208515e-004
3.106760e+003, -1.012929e-003
3.108688e+003, -1.160664e-003
3.110617e+003, -7.621106e-004
3.112545e+003, -6.093422e-004
3.114474e+003, -6.631765e-004
3.116402e+003, -9.404971e-004
3.118331e+003, -1.117645e-003
3.120259e+003, -7.917939e-004
3.122188e+003, -3.011334e-004
3.124116e+003, -1.889524e-004
3.126044e+003, -6.229607e-004
3.127973e+003, -1.146314e-003
3.129901e+003, -1.484183e-003
3.131830e+003, -1.126327e-003
3.133758e+003, -9.079186e-004
3.135687e+003, -1.009947e-003
3.137615e+003, -8.172556e-004
3.139544e+003, -3.969945e-004
3.141472e+003, -2.782188e-004
3.143401e+003, -5.083182e-004
3.145329e+003, -7.557430e-004
3.147258e+003, -7.585337e-004
3.149186e+003, -4.636571e-004
3.151115e+003, -3.786938e-004
3.153043e+003, -1.038309e-004
3.154971e+003, -1.628740e-004
3.156900e+003, -2.926894e-004
3.158828e+003, -9.102880e-005
3.160757e+003, 1.637934e-004
3.162685e+003, 2.351342e-004
3.164614e+003, 1.892119e-004
3.166542e+003, 1.786947e-004
3.168471e+003, 2.403123e-004
3.170399e+003, 3.287866e-004
3.172328e+003, 3.865748e-004
3.174256e+003, 1.935297e-004
3.176185e+003, 1.368899e-004
3.178113e+003, -3.522939e-005
3.180042e+003, 9.600541e-006
3.181970e+003, -1.172480e-004
3.183898e+003, -3.942231e-004
3.185827e+003, -1.385610e-004
3.187755e+003, 1.083671e-004
3.189684e+003, 9.133915e-004
3.191612e+003, 1.290790e-003
3.193541e+003, 8.112027e-004
3.195469e+003, 4.060909e-004
3.197398e+003, 5.731119e-004
3.199326e+003, 5.309058e-004
3.201255e+003, 3.168673e-004
3.203183e+003, 3.270100e-004
3.205112e+003, 6.086957e-004
3.207040e+003, 1.345611e-003
3.208969e+003, 9.659683e-004
3.210897e+003, 5.760666e-004
3.212825e+003, 5.963006e-004
3.214754e+003, 4.276351e-004
3.216682e+003, 6.038864e-004
3.218611e+003, 8.783353e-004
3.220539e+003, 7.009589e-004
3.222468e+003, 5.946375e-004
3.224396e+003, 7.925965e-004
3.226325e+003, 9.205461e-004
3.228253e+003, 9.427905e-004
3.230182e+003, 8.827101e-004
3.232110e+003, 1.084147e-003
3.234039e+003, 9.581181e-004
3.235967e+003, 1.962367e-004
3.237896e+003, 5.163187e-004
3.239824e+003, 1.111753e-003
3.241752e+003, 1.051970e-003
3.243681e+003, 6.423133e-004
3.245609e+003, 7.130326e-004
3.247538e+003, 7.624074e-004
3.249466e+003, 8.700236e-004
3.251395e+003, 1.138299e-003
3.253323e+003, 9.313993e-004
3.255252e+003, 1.140668e-003
3.257180e+003, 1.290054e-003
3.259109e+003, 1.401258e-003
3.261037e+003, 1.578901e-003
3.262966e+003, 1.390844e-003
3.264894e+003, 1.262564e-003
3.266823e+003, 1.277042e-003
3.268751e+003, 1.046240e-003
3.270679e+003, 9.524833e-004
3.272608e+003, 1.605498e-003
3.274536e+003, 1.859416e-003
3.276465e+003, 1.830809e-003
3.278393e+003, 2.094327e-003
3.280322e+003, 2.251957e-003
3.282250e+003, 1.824802e-003
3.284179e+003, 1.490957e-003
3.286107e+003, 1.528967e-003
3.288036e+003, 1.524603e-003
3.289964e+003, 1.473637e-003
3.291893e+003, 1.603858e-003
3.293821e+003, 1.906473e-003
3.295750e+003, 2.140371e-003
3.297678e+003, 1.883153e-003
3.299606e+003, 1.479125e-003
3.301535e+003, 1.821987e-003
3.303463e+003, 2.118084e-003
3.305392e+003, 2.008185e-003
3.307320e+003, 2.058932e-003
3.309249e+003, 1.628523e-003
3.311177e+003, 1.376737e-003
3.313106e+003, 1.444864e-003
3.315034e+003, 1.807567e-003
3.316963e+003, 2.089334e-003
3.318891e+003, 2.106705e-003
3.320820e+003, 2.121354e-003
3.322748e+003, 2.081427e-003
3.324677e+003, 1.841586e-003
3.326605e+003, 1.796821e-003
3.328533e+003, 2.405294e-003
3.330462e+003, 2.850523e-003
3.332390e+003, 2.441644e-003
3.334319e+003, 2.274721e-003
3.336247e+003, 2.077725e-003
3.338176e+003, 2.252701e-003
3.340104e+003, 3.168923e-003
3.342033e+003, 3.729486e-003
3.343961e+003, 3.332548e-003
3.345890e+003, 3.288443e-003
3.347818e+003, 3.030850e-003
3.349747e+003, 2.508141e-003
3.351675e+003, 2.389976e-003
3.353604e+003, 2.235619e-003
3.355532e+003, 2.107383e-003
3.357460e+003, 2.038050e-003
3.359389e+003, 2.137726e-003
3.361317e+003, 2.621957e-003
3.363246e+003, 2.973229e-003
3.365174e+003, 2.919604e-003
3.367103e+003, 2.410242e-003
3.369031e+003, 2.466274e-003
3.370960e+003, 2.939991e-003
3.372888e+003, 2.463114e-003
3.374817e+003, 2.147772e-003
3.376745e+003, 2.281750e-003
3.378674e+003, 2.559546e-003
3.380602e+003, 3.029177e-003
3.382531e+003, 2.724763e-003
3.384459e+003, 2.501718e-003
3.386387e+003, 3.270635e-003
3.388316e+003, 3.542987e-003
3.390244e+003, 3.142813e-003
3.392173e+003, 3.286503e-003
3.394101e+003, 3.676225e-003
3.396030e+003, 3.533004e-003
3.397958e+003, 2.673577e-003
3.399887e+003, 2.045361e-003
3.401815e+003, 2.411903e-003
3.403744e+003, 2.823010e-003
3.405672e+003, 3.265915e-003
3.407601e+003, 3.387003e-003
3.409529e+003, 2.523513e-003
3.411458e+003, 2.083057e-003
3.413386e+003, 3.114065e-003
3.415314e+003, 3.475434e-003
3.417243e+003, 3.127739e-003
3.419171e+003, 2.808909e-003
3.421100e+003, 2.508294e-003
3.423028e+003, 2.304179e-003
3.424957e+003, 2.549487e-003
3.426885e+003, 2.896820e-003
3.428814e+003, 3.343341e-003
3.430742e+003, 3.008455e-003
3.432671e+003, 2.228515e-003
3.434599e+003, 2.285126e-003
3.436528e+003, 2.820297e-003
3.438456e+003, 3.072985e-003
3.440385e+003, 2.940244e-003
3.442313e+003, 2.844846e-003
3.444241e+003, 2.747166e-003
3.446170e+003, 2.231715e-003
3.448098e+003, 2.560319e-003
3.450027e+003, 2.956600e-003
3.451955e+003, 2.481897e-003
3.453884e+003, 1.849493e-003
3.455812e+003, 1.930984e-003
3.457741e+003, 2.531649e-003
3.459669e+003, 2.456680e-003
3.461598e+003, 2.187493e-003
3.463526e+003, 2.726983e-003
3.465455e+003, 3.243438e-003
3.467383e+003, 3.071835e-003
3.469312e+003, 3.126505e-003
3.471240e+003, 3.010779e-003
3.473168e+003, 2.666656e-003
3.475097e+003, 2.491290e-003
3.477025e+003, 2.332832e-003
3.478954e+003, 2.577479e-003
3.480882e+003, 2.978096e-003
3.482811e+003, 3.341550e-003
3.484739e+003, 3.249416e-003
3.486668e+003, 2.798233e-003
3.488596e+003, 2.925633e-003
3.490525e+003, 3.065937e-003
3.492453e+003, 3.012639e-003
3.494382e+003, 3.007201e-003
3.496310e+003, 2.982952e-003
3.498239e+003, 2.527641e-003
3.500167e+003, 3.001648e-003
3.502095e+003, 3.378625e-003
3.504024e+003, 3.677904e-003
3.505952e+003, 3.532949e-003
3.507881e+003, 2.627264e-003
3.509809e+003, 2.169652e-003
3.511738e+003, 2.309364e-003
3.513666e+003, 2.502888e-003
3.515595e+003, 2.268214e-003
3.517523e+003, 2.499510e-003
3.519452e+003, 3.089416e-003
3.521380e+003, 3.310785e-003
3.523309e+003, 2.976483e-003
3.525237e+003, 2.506993e-003
3.527166e+003, 2.692953e-003
3.529094e+003, 2.812825e-003
3.531022e+003, 2.546301e-003
3.532951e+003, 2.571815e-003
3.534879e+003, 2.811372e-003
3.536808e+003, 2.965623e-003
3.538736e+003, 3.084815e-003
3.540665e+003, 3.678924e-003
3.542593e+003, 4.245417e-003
3.544522e+003, 4.317541e-003
3.546450e+003, 3.512535e-003
3.548379e+003, 3.046206e-003
3.550307e+003, 3.141538e-003
3.552236e+003, 3.125412e-003
3.554164e+003, 3.334899e-003
3.556093e+003, 2.968662e-003
3.558021e+003, 2.548155e-003
3.559949e+003, 2.816072e-003
3.561878e+003, 2.929071e-003
3.563806e+003, 3.155424e-003
3.565735e+003, 3.443275e-003
3.567663e+003, 3.877125e-003
3.569592e+003, 4.036658e-003
3.571520e+003, 3.836063e-003
3.573449e+003, 3.560034e-003
3.575377e+003, 2.936667e-003
3.577306e+003, 2.611682e-003
3.579234e+003, 3.146417e-003
3.581163e+003, 3.213365e-003
3.583091e+003, 3.218515e-003
3.585020e+003, 3.973037e-003
3.586948e+003, 4.200476e-003
3.588876e+003, 3.748735e-003
3.590805e+003, 3.247868e-003
3.592733e+003, 3.461101e-003
3.594662e+003, 4.148016e-003
3.596590e+003, 4.538832e-003
3.598519e+003, 5.048945e-003
3.600447e+003, 5.425910e-003
3.602376e+003, 5.302675e-003
3.604304e+003, 5.525385e-003
3.606233e+003, 6.203078e-003
3.608161e+003, 6.531189e-003
3.610090e+003, 6.757725e-003
3.612018e+003, 7.532320e-003
3.613947e+003, 8.621848e-003
3.615875e+003, 9.734993e-003
3.617803e+003, 1.017468e-002
3.619732e+003, 1.020555e-002
3.621660e+003, 1.004936e-002
3.623589e+003, 9.831893e-003
3.625517e+003, 9.854509e-003
3.627446e+003, 1.055519e-002
3.629374e+003, 1.207588e-002
3.631303e+003, 1.314702e-002
3.633231e+003, 1.488170e-002
3.635160e+003, 1.698421e-002
3.637088e+003, 1.765283e-002
3.639017e+003, 1.794507e-002
3.640945e+003, 1.870134e-002
3.642874e+003, 2.008440e-002
3.644802e+003, 2.180065e-002
3.646730e+003, 2.329468e-002
3.648659e+003, 2.487579e-002
3.650587e+003, 2.745999e-002
3.652516e+003, 3.029900e-002
3.654444e+003, 3.295540e-002
3.656373e+003, 3.551789e-002
3.658301e+003, 3.763269e-002
3.660230e+003, 4.035044e-002
3.662158e+003, 4.387498e-002
3.664087e+003, 4.682032e-002
3.666015e+003, 4.862492e-002
3.667944e+003, 5.041218e-002
3.669872e+003, 5.238707e-002
3.671801e+003, 5.249982e-002
3.673729e+003, 5.042830e-002
3.675657e+003, 4.624486e-002
3.677586e+003, 4.017689e-002
3.679514e+003, 3.331633e-002
3.681443e+003, 2.689433e-002
3.683371e+003, 2.176112e-002
3.685300e+003, 1.838314e-002
3.687228e+003, 1.588177e-002
3.689157e+003, 1.378223e-002
3.691085e+003, 1.172872e-002
3.693014e+003, 9.913559e-003
3.694942e+003, 9.419388e-003
3.696871e+003, 9.565981e-003
3.698799e+003, 7.920241e-003
3.700728e+003, 4.736851e-003
3.702656e+003, 1.781677e-003
3.704584e+003, -2.427222e-004
3.706513e+003, -1.559651e-003
3.708441e+003, -2.380405e-003
3.710370e+003, -2.371354e-003
3.712298e+003, -3.060638e-003
3.714227e+003, -3.867954e-003
3.716155e+003, -3.948482e-003
3.718084e+003, -4.331599e-003
3.720012e+003, -5.147567e-003
3.721941e+003, -5.576159e-003
3.723869e+003, -5.831606e-003
3.725798e+003, -5.669451e-003
3.727726e+003, -6.064498e-003
3.729655e+003, -6.599313e-003
3.731583e+003, -6.006402e-003
3.733511e+003, -6.086687e-003
3.735440e+003, -6.433962e-003
3.737368e+003, -5.878568e-003
3.739297e+003, -5.612466e-003
3.741225e+003, -5.523819e-003
3.743154e+003, -4.953049e-003
3.745082e+003, -5.186427e-003
3.747011e+003, -5.528038e-003
3.748939e+003, -5.615431e-003
3.750868e+003, -5.991070e-003
3.752796e+003, -6.014712e-003
3.754725e+003, -6.837522e-003
3.756653e+003, -6.781416e-003
3.758582e+003, -6.198053e-003
3.760510e+003, -6.484595e-003
3.762438e+003, -6.480590e-003
3.764367e+003, -6.179257e-003
3.766295e+003, -5.945204e-003
3.768224e+003, -6.059953e-003
3.770152e+003, -6.497853e-003
3.772081e+003, -6.175602e-003
3.774009e+003, -5.887101e-003
3.775938e+003, -6.730114e-003
3.777866e+003, -7.574801e-003
3.779795e+003, -7.420464e-003
3.781723e+003, -7.037761e-003
3.783652e+003, -7.127356e-003
3.785580e+003, -6.159810e-003
3.787509e+003, -5.718797e-003
3.789437e+003, -6.259891e-003
3.791365e+003, -5.799716e-003
3.793294e+003, -5.612783e-003
3.795222e+003, -6.142024e-003
3.797151e+003, -6.594949e-003
3.799079e+003, -5.914725e-003
3.801008e+003, -5.279855e-003
3.802936e+003, -5.721702e-003
3.804865e+003, -6.373114e-003
3.806793e+003, -6.383252e-003
3.808722e+003, -5.911721e-003
3.810650e+003, -5.390625e-003
3.812579e+003, -5.395230e-003
3.814507e+003, -5.346177e-003
3.816436e+003, -5.827270e-003
3.818364e+003, -6.060516e-003
3.820292e+003, -5.466416e-003
3.822221e+003, -5.612931e-003
3.824149e+003, -6.415810e-003
3.826078e+003, -7.159272e-003
3.828006e+003, -6.229192e-003
3.829935e+003, -5.253490e-003
3.831863e+003, -5.307633e-003
3.833792e+003, -4.877947e-003
3.835720e+003, -5.208561e-003
3.837649e+003, -5.695831e-003
3.839577e+003, -5.630973e-003
3.841506e+003, -5.537255e-003
3.843434e+003, -5.710472e-003
3.845363e+003, -6.184729e-003
3.847291e+003, -6.243442e-003
3.849219e+003, -5.723732e-003
3.851148e+003, -5.041265e-003
3.853076e+003, -4.801152e-003
3.855005e+003, -5.495000e-003
3.856933e+003, -6.293902e-003
3.858862e+003, -6.359710e-003
3.860790e+003, -5.338969e-003
3.862719e+003, -4.997626e-003
3.864647e+003, -5.242667e-003
3.866576e+003, -5.538475e-003
3.868504e+003, -5.447578e-003
3.870433e+003, -5.686484e-003
3.872361e+003, -6.298258e-003
3.874290e+003, -6.202897e-003
3.876218e+003, -5.689431e-003
3.878146e+003, -6.099320e-003
3.880075e+003, -6.592877e-003
3.882003e+003, -6.561419e-003
3.883932e+003, -5.936665e-003
3.885860e+003, -5.350070e-003
3.887789e+003, -5.263713e-003
3.889717e+003, -5.742644e-003
3.891646e+003, -5.738538e-003
3.893574e+003, -5.513385e-003
3.895503e+003, -5.476347e-003
3.897431e+003, -5.526920e-003
3.899360e+003, -5.980955e-003
3.901288e+003, -6.259522e-003
3.903217e+003, -6.309109e-003
3.905145e+003, -6.200698e-003
3.907073e+003, -6.434733e-003
3.909002e+003, -6.633106e-003
3.910930e+003, -5.884169e-003
3.912859e+003, -5.741567e-003
3.914787e+003, -5.691499e-003
3.916716e+003, -5.572303e-003
3.918644e+003, -5.532185e-003
3.920573e+003, -5.669022e-003
3.922501e+003, -5.902223e-003
3.924430e+003, -6.068496e-003
3.926358e+003, -6.174646e-003
3.928287e+003, -5.737688e-003
3.930215e+003, -5.302001e-003
3.932144e+003, -5.756131e-003
3.934072e+003, -6.263568e-003
3.936000e+003, -6.479446e-003
3.937929e+003, -5.850743e-003
3.939857e+003, -5.771884e-003
3.941786e+003, -6.324033e-003
3.943714e+003, -6.179458e-003
3.945643e+003, -5.913962e-003
3.947571e+003, -5.573451e-003
3.949500e+003, -5.615805e-003
3.951428e+003, -5.791676e-003
3.953357e+003, -5.836518e-003
3.955285e+003, -5.598604e-003
3.957214e+003, -4.907977e-003
3.959142e+003, -4.929307e-003
3.961071e+003, -5.124833e-003
3.962999e+003, -5.315559e-003
3.964927e+003, -5.902272e-003
3.966856e+003, -5.956597e-003
3.968784e+003, -6.324919e-003
3.970713e+003, -6.637170e-003
3.972641e+003, -6.227007e-003
3.974570e+003, -6.333397e-003
3.976498e+003, -6.181270e-003
3.978427e+003, -5.861082e-003
3.980355e+003, -6.391416e-003
3.982284e+003, -6.552492e-003
3.984212e+003, -5.922404e-003
3.986141e+003, -5.442100e-003
3.988069e+003, -5.471967e-003
3.989998e+003, -6.119704e-003
3.991926e+003, -6.146617e-003
3.993854e+003, -5.738487e-003
3.995783e+003, -6.048268e-003
3.997711e+003, -5.867273e-003
3.999640e+003, -5.479733e-003
4.001568e+003, 0.000000e+000
##END=



