##NAMES=Arsenopyrite
##RRUFFID=R050071
##IDEAL CHEMISTRY=Fe^3+^(AsS)^3-^
##LOCALITY=Yaogangxian mine, Yizhang County, Hunan Province, China
##OWNER=RRUFF
##SOURCE=Rock Currier
##DESCRIPTION=Steel-gray tabular
##STATUS=The identification of this mineral has been confirmed by X-ray diffraction and chemical analysis
##URL=rruff.info/R050071
##MEASURED CHEMISTRY=FeAsS
3.991926e+002, 0.000000e+000
4.011211e+002, 1.601487e-001
4.030496e+002, 1.609678e-001
4.049780e+002, 1.654343e-001
4.069065e+002, 1.657653e-001
4.088350e+002, 1.662447e-001
4.107634e+002, 1.687287e-001
4.126919e+002, 1.716961e-001
4.146204e+002, 1.742594e-001
4.165488e+002, 1.743416e-001
4.184773e+002, 1.745636e-001
4.204058e+002, 1.754596e-001
4.223342e+002, 1.766423e-001
4.242627e+002, 1.778753e-001
4.261912e+002, 1.802188e-001
4.281196e+002, 1.815862e-001
4.300481e+002, 1.814533e-001
4.319766e+002, 1.807726e-001
4.339050e+002, 1.813164e-001
4.358335e+002, 1.802453e-001
4.377620e+002, 1.769245e-001
4.396904e+002, 1.710570e-001
4.416189e+002, 1.651163e-001
4.435474e+002, 1.581545e-001
4.454758e+002, 1.486709e-001
4.474043e+002, 1.408565e-001
4.493328e+002, 1.370777e-001
4.512612e+002, 1.375982e-001
4.531897e+002, 1.412196e-001
4.551182e+002, 1.460484e-001
4.570466e+002, 1.507787e-001
4.589751e+002, 1.536127e-001
4.609036e+002, 1.554587e-001
4.628320e+002, 1.570661e-001
4.647605e+002, 1.593477e-001
4.666890e+002, 1.614907e-001
4.686174e+002, 1.627069e-001
4.705459e+002, 1.636545e-001
4.724744e+002, 1.642265e-001
4.744028e+002, 1.650257e-001
4.763313e+002, 1.659364e-001
4.782598e+002, 1.669981e-001
4.801882e+002, 1.676559e-001
4.821167e+002, 1.678903e-001
4.840452e+002, 1.691307e-001
4.859736e+002, 1.701850e-001
4.879021e+002, 1.711203e-001
4.898306e+002, 1.719561e-001
4.917590e+002, 1.725701e-001
4.936875e+002, 1.724887e-001
4.956160e+002, 1.722530e-001
4.975444e+002, 1.724985e-001
4.994729e+002, 1.740157e-001
5.014014e+002, 1.752901e-001
5.033298e+002, 1.751157e-001
5.052583e+002, 1.756569e-001
5.071868e+002, 1.766171e-001
5.091152e+002, 1.770956e-001
5.110437e+002, 1.772471e-001
5.129722e+002, 1.775189e-001
5.149006e+002, 1.783339e-001
5.168291e+002, 1.793736e-001
5.187576e+002, 1.796539e-001
5.206860e+002, 1.797168e-001
5.226145e+002, 1.799948e-001
5.245430e+002, 1.806215e-001
5.264714e+002, 1.813870e-001
5.283999e+002, 1.819464e-001
5.303284e+002, 1.823232e-001
5.322568e+002, 1.830419e-001
5.341853e+002, 1.833831e-001
5.361138e+002, 1.834722e-001
5.380422e+002, 1.834109e-001
5.399707e+002, 1.835902e-001
5.418992e+002, 1.838888e-001
5.438276e+002, 1.839450e-001
5.457561e+002, 1.842436e-001
5.476846e+002, 1.852019e-001
5.496130e+002, 1.862326e-001
5.515415e+002, 1.864535e-001
5.534700e+002, 1.866987e-001
5.553984e+002, 1.864485e-001
5.573269e+002, 1.863705e-001
5.592554e+002, 1.875103e-001
5.611838e+002, 1.885497e-001
5.631123e+002, 1.882644e-001
5.650408e+002, 1.878361e-001
5.669692e+002, 1.879593e-001
5.688977e+002, 1.884938e-001
5.708262e+002, 1.889726e-001
5.727546e+002, 1.897727e-001
5.746831e+002, 1.903656e-001
5.766116e+002, 1.902142e-001
5.785400e+002, 1.904814e-001
5.804685e+002, 1.908799e-001
5.823970e+002, 1.911532e-001
5.843254e+002, 1.917471e-001
5.862539e+002, 1.923897e-001
5.881824e+002, 1.932379e-001
5.901108e+002, 1.933261e-001
5.920393e+002, 1.931542e-001
5.939678e+002, 1.929694e-001
5.958962e+002, 1.933152e-001
5.978247e+002, 1.943645e-001
5.997532e+002, 1.950549e-001
6.016816e+002, 1.948318e-001
6.036101e+002, 1.951011e-001
6.055386e+002, 1.954497e-001
6.074670e+002, 1.955386e-001
6.093955e+002, 1.958841e-001
6.113240e+002, 1.963614e-001
6.132524e+002, 1.969985e-001
6.151809e+002, 1.970702e-001
6.171094e+002, 1.970876e-001
6.190378e+002, 1.972340e-001
6.209663e+002, 1.977431e-001
6.228948e+002, 1.977862e-001
6.248232e+002, 1.974774e-001
6.267517e+002, 1.973619e-001
6.286802e+002, 1.975052e-001
6.306086e+002, 1.979232e-001
6.325371e+002, 1.986535e-001
6.344656e+002, 1.987291e-001
6.363940e+002, 1.983398e-001
6.383225e+002, 1.986094e-001
6.402510e+002, 1.989782e-001
6.421794e+002, 1.994207e-001
6.441079e+002, 1.998957e-001
6.460364e+002, 2.001579e-001
6.479648e+002, 2.001127e-001
6.498933e+002, 1.999136e-001
6.518218e+002, 2.000810e-001
6.537502e+002, 2.002125e-001
6.556787e+002, 2.005040e-001
6.576072e+002, 2.009468e-001
6.595356e+002, 2.013286e-001
6.614641e+002, 2.012809e-001
6.633926e+002, 2.011607e-001
6.653210e+002, 2.013098e-001
6.672495e+002, 2.015699e-001
6.691780e+002, 2.016076e-001
6.711064e+002, 2.015321e-001
6.730349e+002, 2.014187e-001
6.749634e+002, 2.017023e-001
6.768918e+002, 2.022352e-001
6.788203e+002, 2.024823e-001
6.807488e+002, 2.023237e-001
6.826772e+002, 2.025392e-001
6.846057e+002, 2.026132e-001
6.865342e+002, 2.026859e-001
6.884626e+002, 2.032564e-001
6.903911e+002, 2.037097e-001
6.923196e+002, 2.038894e-001
6.942480e+002, 2.042909e-001
6.961765e+002, 2.044180e-001
6.981050e+002, 2.044322e-001
7.000334e+002, 2.047275e-001
7.019619e+002, 2.047732e-001
7.038904e+002, 2.051323e-001
7.058188e+002, 2.054464e-001
7.077473e+002, 2.053972e-001
7.096758e+002, 2.058307e-001
7.116042e+002, 2.062482e-001
7.135327e+002, 2.061618e-001
7.154612e+002, 2.064009e-001
7.173896e+002, 2.068233e-001
7.193181e+002, 2.069640e-001
7.212466e+002, 2.070164e-001
7.231750e+002, 2.071033e-001
7.251035e+002, 2.071043e-001
7.270320e+002, 2.074375e-001
7.289604e+002, 2.077624e-001
7.308889e+002, 2.080686e-001
7.328174e+002, 2.082163e-001
7.347458e+002, 2.082621e-001
7.366743e+002, 2.087044e-001
7.386028e+002, 2.091027e-001
7.405313e+002, 2.092200e-001
7.424597e+002, 2.094909e-001
7.443882e+002, 2.096679e-001
7.463167e+002, 2.098280e-001
7.482451e+002, 2.099989e-001
7.501736e+002, 2.100626e-001
7.521021e+002, 2.099821e-001
7.540305e+002, 2.103182e-001
7.559590e+002, 2.107085e-001
7.578875e+002, 2.108853e-001
7.598159e+002, 2.112103e-001
7.617444e+002, 2.114237e-001
7.636729e+002, 2.114883e-001
7.656013e+002, 2.116395e-001
7.675298e+002, 2.117484e-001
7.694583e+002, 2.118151e-001
7.713867e+002, 2.119748e-001
7.733152e+002, 2.122857e-001
7.752437e+002, 2.125451e-001
7.771721e+002, 2.129478e-001
7.791006e+002, 2.129731e-001
7.810291e+002, 2.130935e-001
7.829575e+002, 2.133047e-001
7.848860e+002, 2.135785e-001
7.868145e+002, 2.138630e-001
7.887429e+002, 2.139836e-001
7.906714e+002, 2.141034e-001
7.925999e+002, 2.143832e-001
7.945283e+002, 2.144685e-001
7.964568e+002, 2.145685e-001
7.983853e+002, 2.147789e-001
8.003137e+002, 2.152114e-001
8.022422e+002, 2.155434e-001
8.041707e+002, 2.155777e-001
8.060991e+002, 2.158096e-001
8.080276e+002, 2.162358e-001
8.099561e+002, 2.164548e-001
8.118845e+002, 2.165669e-001
8.138130e+002, 2.165913e-001
8.157415e+002, 2.167137e-001
8.176699e+002, 2.171481e-001
8.195984e+002, 2.174218e-001
8.215269e+002, 2.173386e-001
8.234553e+002, 2.172766e-001
8.253838e+002, 2.173542e-001
8.273123e+002, 2.176010e-001
8.292407e+002, 2.179128e-001
8.311692e+002, 2.182450e-001
8.330977e+002, 2.183556e-001
8.350261e+002, 2.184557e-001
8.369546e+002, 2.186036e-001
8.388831e+002, 2.187400e-001
8.408115e+002, 2.190204e-001
8.427400e+002, 2.189040e-001
8.446685e+002, 2.188913e-001
8.465969e+002, 2.191045e-001
8.485254e+002, 2.193247e-001
8.504539e+002, 2.194053e-001
8.523823e+002, 2.196938e-001
8.543108e+002, 2.198160e-001
8.562393e+002, 2.197002e-001
8.581677e+002, 2.197555e-001
8.600962e+002, 2.201460e-001
8.620247e+002, 2.202892e-001
8.639531e+002, 2.204297e-001
8.658816e+002, 2.203702e-001
8.678101e+002, 2.203892e-001
8.697385e+002, 2.205305e-001
8.716670e+002, 2.208437e-001
8.735955e+002, 2.211707e-001
8.755239e+002, 2.214112e-001
8.774524e+002, 2.215132e-001
8.793809e+002, 2.215074e-001
8.813093e+002, 2.213542e-001
8.832378e+002, 2.215138e-001
8.851663e+002, 2.216769e-001
8.870947e+002, 2.215587e-001
8.890232e+002, 2.216892e-001
8.909517e+002, 2.220606e-001
8.928801e+002, 2.219406e-001
8.948085e+002, 2.220757e-001
8.967370e+002, 2.223874e-001
8.986655e+002, 2.225693e-001
9.005939e+002, 2.227210e-001
9.025224e+002, 2.228014e-001
9.044509e+002, 2.230029e-001
9.063793e+002, 2.231736e-001
9.083078e+002, 2.231837e-001
9.102363e+002, 2.231807e-001
9.121647e+002, 2.234302e-001
9.140932e+002, 2.237101e-001
9.160217e+002, 2.237517e-001
9.179501e+002, 2.240188e-001
9.198786e+002, 2.241181e-001
9.218071e+002, 2.240903e-001
9.237355e+002, 2.241653e-001
9.256640e+002, 2.242718e-001
9.275925e+002, 2.244231e-001
9.295209e+002, 2.245541e-001
9.314494e+002, 2.245328e-001
9.333779e+002, 2.246981e-001
9.353063e+002, 2.249672e-001
9.372348e+002, 2.253142e-001
9.391633e+002, 2.256182e-001
9.410917e+002, 2.255634e-001
9.430202e+002, 2.255974e-001
9.449487e+002, 2.260015e-001
9.468771e+002, 2.262993e-001
9.488056e+002, 2.263214e-001
9.507341e+002, 2.263856e-001
9.526625e+002, 2.267303e-001
9.545910e+002, 2.271746e-001
9.565195e+002, 2.273966e-001
9.584479e+002, 2.277323e-001
9.603764e+002, 2.278765e-001
9.623049e+002, 2.279246e-001
9.642333e+002, 2.280686e-001
9.661618e+002, 2.282000e-001
9.680903e+002, 2.286938e-001
9.700187e+002, 2.291443e-001
9.719472e+002, 2.292556e-001
9.738757e+002, 2.290948e-001
9.758041e+002, 2.291790e-001
9.777326e+002, 2.295004e-001
9.796611e+002, 2.299234e-001
9.815895e+002, 2.304250e-001
9.835180e+002, 2.306821e-001
9.854465e+002, 2.306752e-001
9.873749e+002, 2.307598e-001
9.893034e+002, 2.309550e-001
9.912319e+002, 2.312037e-001
9.931603e+002, 2.314385e-001
9.950888e+002, 2.315549e-001
9.970173e+002, 2.318306e-001
9.989457e+002, 2.322568e-001
1.000874e+003, 2.325305e-001
1.002803e+003, 2.324675e-001
1.004731e+003, 2.326172e-001
1.006660e+003, 2.330424e-001
1.008588e+003, 2.333110e-001
1.010517e+003, 2.336121e-001
1.012445e+003, 2.339390e-001
1.014373e+003, 2.338187e-001
1.016302e+003, 2.340200e-001
1.018230e+003, 2.344108e-001
1.020159e+003, 2.347512e-001
1.022087e+003, 2.349553e-001
1.024016e+003, 2.350521e-001
1.025944e+003, 2.352176e-001
1.027873e+003, 2.355711e-001
1.029801e+003, 2.357332e-001
1.031730e+003, 2.358592e-001
1.033658e+003, 2.360653e-001
1.035587e+003, 2.363372e-001
1.037515e+003, 2.367293e-001
1.039444e+003, 2.371630e-001
1.041372e+003, 2.374116e-001
1.043301e+003, 2.375396e-001
1.045229e+003, 2.376505e-001
1.047157e+003, 2.377111e-001
1.049086e+003, 2.377494e-001
1.051014e+003, 2.379917e-001
1.052943e+003, 2.383762e-001
1.054871e+003, 2.386884e-001
1.056800e+003, 2.389835e-001
1.058728e+003, 2.391180e-001
1.060657e+003, 2.390092e-001
1.062585e+003, 2.391665e-001
1.064514e+003, 2.394021e-001
1.066442e+003, 2.394044e-001
1.068371e+003, 2.393727e-001
1.070299e+003, 2.395798e-001
1.072228e+003, 2.397902e-001
1.074156e+003, 2.399497e-001
1.076084e+003, 2.403765e-001
1.078013e+003, 2.409182e-001
1.079941e+003, 2.411920e-001
1.081870e+003, 2.413023e-001
1.083798e+003, 2.412751e-001
1.085727e+003, 2.414421e-001
1.087655e+003, 2.416302e-001
1.089584e+003, 2.417901e-001
1.091512e+003, 2.418747e-001
1.093441e+003, 2.420039e-001
1.095369e+003, 2.423626e-001
1.097298e+003, 2.427683e-001
1.099226e+003, 2.429038e-001
1.101155e+003, 2.428939e-001
1.103083e+003, 2.433968e-001
1.105011e+003, 2.436862e-001
1.106940e+003, 2.439157e-001
1.108868e+003, 2.441303e-001
1.110797e+003, 2.442286e-001
1.112725e+003, 2.442371e-001
1.114654e+003, 2.443070e-001
1.116582e+003, 2.445904e-001
1.118511e+003, 2.447443e-001
1.120439e+003, 2.449505e-001
1.122368e+003, 2.452653e-001
1.124296e+003, 2.455573e-001
1.126225e+003, 2.458192e-001
1.128153e+003, 2.460056e-001
1.130082e+003, 2.463095e-001
1.132010e+003, 2.465667e-001
1.133938e+003, 2.467130e-001
1.135867e+003, 2.466958e-001
1.137795e+003, 2.468818e-001
1.139724e+003, 2.472468e-001
1.141652e+003, 2.476922e-001
1.143581e+003, 2.477442e-001
1.145509e+003, 2.475780e-001
1.147438e+003, 2.477246e-001
1.149366e+003, 2.478733e-001
1.151295e+003, 2.479769e-001
1.153223e+003, 2.478899e-001
1.155152e+003, 2.479426e-001
1.157080e+003, 2.479380e-001
1.159009e+003, 2.479629e-001
1.160937e+003, 2.481997e-001
1.162865e+003, 2.483910e-001
1.164794e+003, 2.485100e-001
1.166722e+003, 2.484104e-001
1.168651e+003, 2.482577e-001
1.170579e+003, 2.483375e-001
1.172508e+003, 2.485409e-001
1.174436e+003, 2.488375e-001
1.176365e+003, 2.489739e-001
1.178293e+003, 2.488447e-001
1.180222e+003, 2.490316e-001
1.182150e+003, 2.492613e-001
1.184079e+003, 2.495126e-001
1.186007e+003, 2.498040e-001
1.187936e+003, 2.501865e-001
1.189864e+003, 2.502927e-001
1.191792e+003, 2.503205e-001
1.193721e+003, 2.505533e-001
1.195649e+003, 2.507374e-001
1.197578e+003, 2.508120e-001
1.199506e+003, 2.510073e-001
1.201435e+003, 2.513101e-001
1.203363e+003, 2.515752e-001
1.205292e+003, 2.516663e-001
1.207220e+003, 2.516722e-001
1.209149e+003, 2.514903e-001
1.211077e+003, 2.513547e-001
1.213006e+003, 2.515101e-001
1.214934e+003, 2.515973e-001
1.216863e+003, 2.516503e-001
1.218791e+003, 2.518247e-001
1.220719e+003, 2.521407e-001
1.222648e+003, 2.523415e-001
1.224576e+003, 2.521830e-001
1.226505e+003, 2.521766e-001
1.228433e+003, 2.524394e-001
1.230362e+003, 2.525836e-001
1.232290e+003, 2.527058e-001
1.234219e+003, 2.528813e-001
1.236147e+003, 2.529087e-001
1.238076e+003, 2.530501e-001
1.240004e+003, 2.532548e-001
1.241933e+003, 2.534525e-001
1.243861e+003, 2.533222e-001
1.245790e+003, 2.533761e-001
1.247718e+003, 2.534799e-001
1.249646e+003, 2.536939e-001
1.251575e+003, 2.537578e-001
1.253503e+003, 2.538729e-001
1.255432e+003, 2.541823e-001
1.257360e+003, 2.544441e-001
1.259289e+003, 2.544726e-001
1.261217e+003, 2.546248e-001
1.263146e+003, 2.547877e-001
1.265074e+003, 2.548638e-001
1.267003e+003, 2.549978e-001
1.268931e+003, 2.550068e-001
1.270860e+003, 2.550527e-001
1.272788e+003, 2.552233e-001
1.274717e+003, 2.555822e-001
1.276645e+003, 2.556740e-001
1.278573e+003, 2.556132e-001
1.280502e+003, 2.560383e-001
1.282430e+003, 2.565585e-001
1.284359e+003, 2.567405e-001
1.286287e+003, 2.566479e-001
1.288216e+003, 2.565045e-001
1.290144e+003, 2.567092e-001
1.292073e+003, 2.570352e-001
1.294001e+003, 2.573920e-001
1.295930e+003, 2.576578e-001
1.297858e+003, 2.577123e-001
1.299787e+003, 2.578664e-001
1.301715e+003, 2.583173e-001
1.303644e+003, 2.584731e-001
1.305572e+003, 2.584002e-001
1.307500e+003, 2.585164e-001
1.309429e+003, 2.588200e-001
1.311357e+003, 2.591431e-001
1.313286e+003, 2.594252e-001
1.315214e+003, 2.595441e-001
1.317143e+003, 2.596560e-001
1.319071e+003, 2.596933e-001
1.321000e+003, 2.595301e-001
1.322928e+003, 2.595850e-001
1.324857e+003, 2.599533e-001
1.326785e+003, 2.602324e-001
1.328714e+003, 2.603112e-001
1.330642e+003, 2.605323e-001
1.332571e+003, 2.608249e-001
1.334499e+003, 2.609506e-001
1.336427e+003, 2.610703e-001
1.338356e+003, 2.612548e-001
1.340284e+003, 2.614175e-001
1.342213e+003, 2.619255e-001
1.344141e+003, 2.621937e-001
1.346070e+003, 2.619813e-001
1.347998e+003, 2.621264e-001
1.349927e+003, 2.624217e-001
1.351855e+003, 2.624479e-001
1.353784e+003, 2.627402e-001
1.355712e+003, 2.631176e-001
1.357641e+003, 2.630763e-001
1.359569e+003, 2.631591e-001
1.361498e+003, 2.634841e-001
1.363426e+003, 2.637511e-001
1.365354e+003, 2.639590e-001
1.367283e+003, 2.641970e-001
1.369211e+003, 2.643653e-001
1.371140e+003, 2.644833e-001
1.373068e+003, 2.646571e-001
1.374997e+003, 2.646650e-001
1.376925e+003, 2.647751e-001
1.378854e+003, 2.648211e-001
1.380782e+003, 2.651267e-001
1.382711e+003, 2.653391e-001
1.384639e+003, 2.653078e-001
1.386568e+003, 2.655021e-001
1.388496e+003, 2.657836e-001
1.390424e+003, 2.660711e-001
1.392353e+003, 2.662754e-001
1.394281e+003, 2.664655e-001
1.396210e+003, 2.665618e-001
1.398138e+003, 2.668561e-001
1.400067e+003, 2.670068e-001
1.401995e+003, 2.671967e-001
1.403924e+003, 2.675192e-001
1.405852e+003, 2.675980e-001
1.407781e+003, 2.677432e-001
1.409709e+003, 2.679600e-001
1.411638e+003, 2.682253e-001
1.413566e+003, 2.683108e-001
1.415495e+003, 2.684258e-001
1.417423e+003, 2.686984e-001
1.419351e+003, 2.690098e-001
1.421280e+003, 2.692157e-001
1.423208e+003, 2.693250e-001
1.425137e+003, 2.692734e-001
1.427065e+003, 2.693399e-001
1.428994e+003, 2.696282e-001
1.430922e+003, 2.699740e-001
1.432851e+003, 2.701733e-001
1.434779e+003, 2.701786e-001
1.436708e+003, 2.700816e-001
1.438636e+003, 2.702552e-001
1.440565e+003, 2.705855e-001
1.442493e+003, 2.707594e-001
1.444422e+003, 2.709356e-001
1.446350e+003, 2.712813e-001
1.448278e+003, 2.715198e-001
1.450207e+003, 2.716262e-001
1.452135e+003, 2.716305e-001
1.454064e+003, 2.716788e-001
1.455992e+003, 2.717865e-001
1.457921e+003, 2.717797e-001
1.459849e+003, 2.720182e-001
1.461778e+003, 2.720186e-001
1.463706e+003, 2.720439e-001
1.465635e+003, 2.720698e-001
1.467563e+003, 2.722028e-001
1.469492e+003, 2.720840e-001
1.471420e+003, 2.720239e-001
1.473349e+003, 2.719147e-001
1.475277e+003, 2.722746e-001
1.477205e+003, 2.726575e-001
1.479134e+003, 2.729729e-001
1.481062e+003, 2.730402e-001
1.482991e+003, 2.733754e-001
1.484919e+003, 2.735325e-001
1.486848e+003, 2.734096e-001
1.488776e+003, 2.734805e-001
1.490705e+003, 2.737560e-001
1.492633e+003, 2.741225e-001
1.494562e+003, 2.742134e-001
1.496490e+003, 2.741933e-001
1.498419e+003, 2.742532e-001
1.500347e+003, 2.743905e-001
1.502276e+003, 2.745301e-001
1.504204e+003, 2.745536e-001
1.506132e+003, 2.745580e-001
1.508061e+003, 2.746605e-001
1.509989e+003, 2.751946e-001
1.511918e+003, 2.754787e-001
1.513846e+003, 2.754040e-001
1.515775e+003, 2.754077e-001
1.517703e+003, 2.754409e-001
1.519632e+003, 2.758304e-001
1.521560e+003, 2.758556e-001
1.523489e+003, 2.758606e-001
1.525417e+003, 2.762042e-001
1.527346e+003, 2.765711e-001
1.529274e+003, 2.766798e-001
1.531203e+003, 2.770353e-001
1.533131e+003, 2.771975e-001
1.535059e+003, 2.770964e-001
1.536988e+003, 2.772515e-001
1.538916e+003, 2.770294e-001
1.540845e+003, 2.769534e-001
1.542773e+003, 2.773484e-001
1.544702e+003, 2.779081e-001
1.546630e+003, 2.780586e-001
1.548559e+003, 2.780504e-001
1.550487e+003, 2.779121e-001
1.552416e+003, 2.782003e-001
1.554344e+003, 2.782710e-001
1.556273e+003, 2.783243e-001
1.558201e+003, 2.785880e-001
1.560130e+003, 2.785512e-001
1.562058e+003, 2.788238e-001
1.563986e+003, 2.790189e-001
1.565915e+003, 2.792231e-001
1.567843e+003, 2.795627e-001
1.569772e+003, 2.797277e-001
1.571700e+003, 2.800764e-001
1.573629e+003, 2.802376e-001
1.575557e+003, 2.801333e-001
1.577486e+003, 2.800217e-001
1.579414e+003, 2.804940e-001
1.581343e+003, 2.807945e-001
1.583271e+003, 2.808276e-001
1.585200e+003, 2.807830e-001
1.587128e+003, 2.810242e-001
1.589057e+003, 2.813148e-001
1.590985e+003, 2.812843e-001
1.592913e+003, 2.814508e-001
1.594842e+003, 2.816667e-001
1.596770e+003, 2.816968e-001
1.598699e+003, 2.818016e-001
1.600627e+003, 2.819021e-001
1.602556e+003, 2.820073e-001
1.604484e+003, 2.822611e-001
1.606413e+003, 2.824561e-001
1.608341e+003, 2.825851e-001
1.610270e+003, 2.825006e-001
1.612198e+003, 2.828189e-001
1.614127e+003, 2.831056e-001
1.616055e+003, 2.831809e-001
1.617984e+003, 2.831149e-001
1.619912e+003, 2.833023e-001
1.621840e+003, 2.834477e-001
1.623769e+003, 2.836258e-001
1.625697e+003, 2.837998e-001
1.627626e+003, 2.839180e-001
1.629554e+003, 2.839083e-001
1.631483e+003, 2.838149e-001
1.633411e+003, 2.837929e-001
1.635340e+003, 2.838039e-001
1.637268e+003, 2.838607e-001
1.639197e+003, 2.840421e-001
1.641125e+003, 2.840808e-001
1.643054e+003, 2.841173e-001
1.644982e+003, 2.843058e-001
1.646911e+003, 2.841273e-001
1.648839e+003, 2.841884e-001
1.650767e+003, 2.846397e-001
1.652696e+003, 2.845127e-001
1.654624e+003, 2.846433e-001
1.656553e+003, 2.852902e-001
1.658481e+003, 2.849679e-001
1.660410e+003, 2.848582e-001
1.662338e+003, 2.854693e-001
1.664267e+003, 2.855977e-001
1.666195e+003, 2.856208e-001
1.668124e+003, 2.856472e-001
1.670052e+003, 2.856210e-001
1.671981e+003, 2.857949e-001
1.673909e+003, 2.858883e-001
1.675838e+003, 2.856343e-001
1.677766e+003, 2.857229e-001
1.679694e+003, 2.859327e-001
1.681623e+003, 2.859888e-001
1.683551e+003, 2.861281e-001
1.685480e+003, 2.858735e-001
1.687408e+003, 2.861179e-001
1.689337e+003, 2.861992e-001
1.691265e+003, 2.864628e-001
1.693194e+003, 2.869762e-001
1.695122e+003, 2.872983e-001
1.697051e+003, 2.869032e-001
1.698979e+003, 2.870757e-001
1.700908e+003, 2.868893e-001
1.702836e+003, 2.875524e-001
1.704765e+003, 2.876223e-001
1.706693e+003, 2.875761e-001
1.708621e+003, 2.878191e-001
1.710550e+003, 2.879357e-001
1.712478e+003, 2.881562e-001
1.714407e+003, 2.880890e-001
1.716335e+003, 2.881235e-001
1.718264e+003, 2.881801e-001
1.720192e+003, 2.888302e-001
1.722121e+003, 2.892679e-001
1.724049e+003, 2.890520e-001
1.725978e+003, 2.892220e-001
1.727906e+003, 2.892566e-001
1.729835e+003, 2.890187e-001
1.731763e+003, 2.892016e-001
1.733692e+003, 2.888922e-001
1.735620e+003, 2.889101e-001
1.737548e+003, 2.896173e-001
1.739477e+003, 2.893188e-001
1.741405e+003, 2.889172e-001
1.743334e+003, 2.887344e-001
1.745262e+003, 2.887647e-001
1.747191e+003, 2.891615e-001
1.749119e+003, 2.892526e-001
1.751048e+003, 2.894710e-001
1.752976e+003, 2.896610e-001
1.754905e+003, 2.895887e-001
1.756833e+003, 2.892767e-001
1.758762e+003, 2.893471e-001
1.760690e+003, 2.892045e-001
1.762619e+003, 2.892815e-001
1.764547e+003, 2.896839e-001
1.766475e+003, 2.893104e-001
1.768404e+003, 2.892079e-001
1.770332e+003, 2.898880e-001
1.772261e+003, 2.898632e-001
1.774189e+003, 2.898247e-001
1.776118e+003, 2.897955e-001
1.778046e+003, 2.898708e-001
1.779975e+003, 2.900577e-001
1.781903e+003, 2.903357e-001
1.783832e+003, 2.906115e-001
1.785760e+003, 2.906741e-001
1.787689e+003, 2.907879e-001
1.789617e+003, 2.907068e-001
1.791546e+003, 2.906715e-001
1.793474e+003, 2.906873e-001
1.795402e+003, 2.907174e-001
1.797331e+003, 2.905846e-001
1.799259e+003, 2.906311e-001
1.801188e+003, 2.907798e-001
1.803116e+003, 2.910526e-001
1.805045e+003, 2.917486e-001
1.806973e+003, 2.918530e-001
1.808902e+003, 2.912441e-001
1.810830e+003, 2.909382e-001
1.812759e+003, 2.914486e-001
1.814687e+003, 2.916129e-001
1.816616e+003, 2.915982e-001
1.818544e+003, 2.913367e-001
1.820473e+003, 2.910405e-001
1.822401e+003, 2.911148e-001
1.824329e+003, 2.914857e-001
1.826258e+003, 2.915324e-001
1.828186e+003, 2.914747e-001
1.830115e+003, 2.911858e-001
1.832043e+003, 2.911859e-001
1.833972e+003, 2.912641e-001
1.835900e+003, 2.916608e-001
1.837829e+003, 2.914053e-001
1.839757e+003, 2.909009e-001
1.841686e+003, 2.915408e-001
1.843614e+003, 2.921793e-001
1.845543e+003, 2.921126e-001
1.847471e+003, 2.920890e-001
1.849400e+003, 2.916731e-001
1.851328e+003, 2.916325e-001
1.853256e+003, 2.917545e-001
1.855185e+003, 2.922150e-001
1.857113e+003, 2.922735e-001
1.859042e+003, 2.921425e-001
1.860970e+003, 2.922869e-001
1.862899e+003, 2.924854e-001
1.864827e+003, 2.926389e-001
1.866756e+003, 2.927718e-001
1.868684e+003, 2.931059e-001
1.870613e+003, 2.924142e-001
1.872541e+003, 2.918856e-001
1.874470e+003, 2.919320e-001
1.876398e+003, 2.917550e-001
1.878327e+003, 2.919318e-001
1.880255e+003, 2.921918e-001
1.882183e+003, 2.921451e-001
1.884112e+003, 2.919782e-001
1.886040e+003, 2.918965e-001
1.887969e+003, 2.921660e-001
1.889897e+003, 2.923545e-001
1.891826e+003, 2.926702e-001
1.893754e+003, 2.927136e-001
1.895683e+003, 2.926023e-001
1.897611e+003, 2.924503e-001
1.899540e+003, 2.920276e-001
1.901468e+003, 2.917366e-001
1.903397e+003, 2.924275e-001
1.905325e+003, 2.933462e-001
1.907254e+003, 2.941129e-001
1.909182e+003, 2.939954e-001
1.911110e+003, 2.933186e-001
1.913039e+003, 2.931932e-001
1.914967e+003, 2.933335e-001
1.916896e+003, 2.931661e-001
1.918824e+003, 2.935396e-001
1.920753e+003, 2.938178e-001
1.922681e+003, 2.926112e-001
1.924610e+003, 2.924286e-001
1.926538e+003, 2.932472e-001
1.928467e+003, 2.923071e-001
1.930395e+003, 2.908818e-001
1.932324e+003, 2.905140e-001
1.934252e+003, 2.909181e-001
1.936181e+003, 2.905756e-001
1.938109e+003, 2.912804e-001
1.940037e+003, 2.919953e-001
1.941966e+003, 2.911508e-001
1.943894e+003, 2.905834e-001
1.945823e+003, 2.897753e-001
1.947751e+003, 2.895130e-001
1.949680e+003, 2.895128e-001
1.951608e+003, 2.886211e-001
1.953537e+003, 2.881074e-001
1.955465e+003, 2.875976e-001
1.957394e+003, 2.875063e-001
1.959322e+003, 2.877195e-001
1.961251e+003, 2.880319e-001
1.963179e+003, 2.882958e-001
1.965108e+003, 2.879683e-001
1.967036e+003, 2.869074e-001
1.968964e+003, 2.856997e-001
1.970893e+003, 2.853230e-001
1.972821e+003, 2.854783e-001
1.974750e+003, 2.856268e-001
1.976678e+003, 2.869020e-001
1.978607e+003, 2.877281e-001
1.980535e+003, 2.877900e-001
1.982464e+003, 2.882435e-001
1.984392e+003, 2.878501e-001
1.986321e+003, 2.861193e-001
1.988249e+003, 2.874626e-001
1.990178e+003, 2.884676e-001
1.992106e+003, 2.880453e-001
1.994035e+003, 2.890297e-001
1.995963e+003, 2.897360e-001
1.997891e+003, 2.902849e-001
1.999820e+003, 2.902460e-001
2.001748e+003, 2.879329e-001
2.003677e+003, 2.868714e-001
2.005605e+003, 2.872517e-001
2.007534e+003, 2.872437e-001
2.009462e+003, 2.867781e-001
2.011391e+003, 2.883258e-001
2.013319e+003, 2.903848e-001
2.015248e+003, 2.898811e-001
2.017176e+003, 2.882459e-001
2.019105e+003, 2.872986e-001
2.021033e+003, 2.875219e-001
2.022962e+003, 2.873577e-001
2.024890e+003, 2.869501e-001
2.026818e+003, 2.868381e-001
2.028747e+003, 2.873698e-001
2.030675e+003, 2.892027e-001
2.032604e+003, 2.902559e-001
2.034532e+003, 2.891248e-001
2.036461e+003, 2.906309e-001
2.038389e+003, 2.925857e-001
2.040318e+003, 2.918728e-001
2.042246e+003, 2.912849e-001
2.044175e+003, 2.930829e-001
2.046103e+003, 2.940086e-001
2.048032e+003, 2.952774e-001
2.049960e+003, 2.973006e-001
2.051889e+003, 2.964028e-001
2.053817e+003, 2.949298e-001
2.055746e+003, 2.947086e-001
2.057674e+003, 2.950100e-001
2.059603e+003, 2.956204e-001
2.061531e+003, 2.958620e-001
2.063459e+003, 2.970482e-001
2.065388e+003, 2.972320e-001
2.067316e+003, 2.969224e-001
2.069245e+003, 2.978444e-001
2.071173e+003, 2.986398e-001
2.073102e+003, 2.991782e-001
2.075030e+003, 3.001419e-001
2.076959e+003, 3.001027e-001
2.078887e+003, 3.004366e-001
2.080816e+003, 3.019588e-001
2.082744e+003, 3.020947e-001
2.084673e+003, 3.011579e-001
2.086601e+003, 3.016531e-001
2.088530e+003, 3.012841e-001
2.090458e+003, 3.003721e-001
2.092386e+003, 3.009906e-001
2.094315e+003, 3.016129e-001
2.096243e+003, 3.011269e-001
2.098172e+003, 3.014781e-001
2.100100e+003, 3.020206e-001
2.102029e+003, 3.021027e-001
2.103957e+003, 3.011115e-001
2.105886e+003, 3.014496e-001
2.107814e+003, 3.014193e-001
2.109743e+003, 3.018554e-001
2.111671e+003, 3.030632e-001
2.113600e+003, 3.033070e-001
2.115528e+003, 3.023713e-001
2.117457e+003, 3.023651e-001
2.119385e+003, 3.020524e-001
2.121313e+003, 3.015029e-001
2.123242e+003, 3.018321e-001
2.125170e+003, 3.018533e-001
2.127099e+003, 3.008530e-001
2.129027e+003, 2.991203e-001
2.130956e+003, 2.981721e-001
2.132884e+003, 2.976062e-001
2.134813e+003, 2.985625e-001
2.136741e+003, 2.988085e-001
2.138670e+003, 2.968973e-001
2.140598e+003, 2.960986e-001
2.142527e+003, 2.965938e-001
2.144455e+003, 2.964270e-001
2.146384e+003, 2.957345e-001
2.148312e+003, 2.949555e-001
2.150240e+003, 2.946683e-001
2.152169e+003, 2.931214e-001
2.154097e+003, 2.928671e-001
2.156026e+003, 2.911684e-001
2.157954e+003, 2.913556e-001
2.159883e+003, 2.947272e-001
2.161811e+003, 2.936887e-001
2.163740e+003, 2.958269e-001
2.165668e+003, 2.974986e-001
2.167597e+003, 2.972905e-001
2.169525e+003, 2.968974e-001
2.171454e+003, 2.981084e-001
2.173382e+003, 2.994246e-001
2.175311e+003, 2.995647e-001
2.177239e+003, 2.982160e-001
2.179167e+003, 2.980061e-001
2.181096e+003, 2.969171e-001
2.183024e+003, 2.956337e-001
2.184953e+003, 2.976878e-001
2.186881e+003, 2.991532e-001
2.188810e+003, 2.974662e-001
2.190738e+003, 2.964024e-001
2.192667e+003, 2.988258e-001
2.194595e+003, 3.002979e-001
2.196524e+003, 3.013389e-001
2.198452e+003, 3.025801e-001
2.200381e+003, 3.019673e-001
2.202309e+003, 3.033780e-001
2.204238e+003, 3.042299e-001
2.206166e+003, 3.047116e-001
2.208094e+003, 3.038816e-001
2.210023e+003, 3.029634e-001
2.211951e+003, 3.025234e-001
2.213880e+003, 3.030567e-001
2.215808e+003, 3.036424e-001
2.217737e+003, 3.039169e-001
2.219665e+003, 3.049749e-001
2.221594e+003, 3.056082e-001
2.223522e+003, 3.060064e-001
2.225451e+003, 3.062933e-001
2.227379e+003, 3.062084e-001
2.229308e+003, 3.058727e-001
2.231236e+003, 3.054903e-001
2.233165e+003, 3.061664e-001
2.235093e+003, 3.076482e-001
2.237021e+003, 3.073933e-001
2.238950e+003, 3.075296e-001
2.240878e+003, 3.071374e-001
2.242807e+003, 3.066061e-001
2.244735e+003, 3.079061e-001
2.246664e+003, 3.090439e-001
2.248592e+003, 3.091152e-001
2.250521e+003, 3.093640e-001
2.252449e+003, 3.092745e-001
2.254378e+003, 3.094595e-001
2.256306e+003, 3.105269e-001
2.258235e+003, 3.111894e-001
2.260163e+003, 3.104090e-001
2.262092e+003, 3.099078e-001
2.264020e+003, 3.114714e-001
2.265948e+003, 3.121800e-001
2.267877e+003, 3.124929e-001
2.269805e+003, 3.120658e-001
2.271734e+003, 3.119523e-001
2.273662e+003, 3.122036e-001
2.275591e+003, 3.125913e-001
2.277519e+003, 3.138970e-001
2.279448e+003, 3.151405e-001
2.281376e+003, 3.156650e-001
2.283305e+003, 3.160980e-001
2.285233e+003, 3.161956e-001
2.287162e+003, 3.159085e-001
2.289090e+003, 3.158197e-001
2.291019e+003, 3.162796e-001
2.292947e+003, 3.167571e-001
2.294875e+003, 3.169240e-001
2.296804e+003, 3.167527e-001
2.298732e+003, 3.163435e-001
2.300661e+003, 3.170099e-001
2.302589e+003, 3.180271e-001
2.304518e+003, 3.180013e-001
2.306446e+003, 3.177962e-001
2.308375e+003, 3.179317e-001
2.310303e+003, 3.178909e-001
2.312232e+003, 3.184434e-001
2.314160e+003, 3.191106e-001
2.316089e+003, 3.190861e-001
2.318017e+003, 3.189481e-001
2.319946e+003, 3.192553e-001
2.321874e+003, 3.203646e-001
2.323802e+003, 3.209492e-001
2.325731e+003, 3.206384e-001
2.327659e+003, 3.196993e-001
2.329588e+003, 3.191142e-001
2.331516e+003, 3.190107e-001
2.333445e+003, 3.189624e-001
2.335373e+003, 3.191486e-001
2.337302e+003, 3.191754e-001
2.339230e+003, 3.185950e-001
2.341159e+003, 3.190366e-001
2.343087e+003, 3.199985e-001
2.345016e+003, 3.206424e-001
2.346944e+003, 3.207786e-001
2.348873e+003, 3.208801e-001
2.350801e+003, 3.209488e-001
2.352729e+003, 3.204469e-001
2.354658e+003, 3.204639e-001
2.356586e+003, 3.203906e-001
2.358515e+003, 3.199202e-001
2.360443e+003, 3.199086e-001
2.362372e+003, 3.199249e-001
2.364300e+003, 3.198006e-001
2.366229e+003, 3.193589e-001
2.368157e+003, 3.195429e-001
2.370086e+003, 3.193665e-001
2.372014e+003, 3.194487e-001
2.373942e+003, 3.197882e-001
2.375871e+003, 3.195435e-001
2.377799e+003, 3.199438e-001
2.379728e+003, 3.199085e-001
2.381656e+003, 3.195113e-001
2.383585e+003, 3.202763e-001
2.385513e+003, 3.204823e-001
2.387442e+003, 3.203469e-001
2.389370e+003, 3.204198e-001
2.391299e+003, 3.204949e-001
2.393227e+003, 3.202849e-001
2.395156e+003, 3.205537e-001
2.397084e+003, 3.211064e-001
2.399012e+003, 3.208760e-001
2.400941e+003, 3.213752e-001
2.402869e+003, 3.216685e-001
2.404798e+003, 3.218883e-001
2.406726e+003, 3.221299e-001
2.408655e+003, 3.216998e-001
2.410583e+003, 3.220446e-001
2.412512e+003, 3.217029e-001
2.414440e+003, 3.212702e-001
2.416369e+003, 3.214721e-001
2.418297e+003, 3.215292e-001
2.420226e+003, 3.212475e-001
2.422154e+003, 3.215532e-001
2.424083e+003, 3.217744e-001
2.426011e+003, 3.221726e-001
2.427939e+003, 3.221494e-001
2.429868e+003, 3.214806e-001
2.431796e+003, 3.213813e-001
2.433725e+003, 3.218924e-001
2.435653e+003, 3.222781e-001
2.437582e+003, 3.230262e-001
2.439510e+003, 3.227986e-001
2.441439e+003, 3.226366e-001
2.443367e+003, 3.231508e-001
2.445296e+003, 3.239323e-001
2.447224e+003, 3.234173e-001
2.449153e+003, 3.226099e-001
2.451081e+003, 3.228735e-001
2.453010e+003, 3.232856e-001
2.454938e+003, 3.232497e-001
2.456866e+003, 3.226060e-001
2.458795e+003, 3.232717e-001
2.460723e+003, 3.240815e-001
2.462652e+003, 3.241282e-001
2.464580e+003, 3.243536e-001
2.466509e+003, 3.235857e-001
2.468437e+003, 3.225828e-001
2.470366e+003, 3.231998e-001
2.472294e+003, 3.241869e-001
2.474223e+003, 3.236629e-001
2.476151e+003, 3.233227e-001
2.478080e+003, 3.233608e-001
2.480008e+003, 3.227392e-001
2.481937e+003, 3.218220e-001
2.483865e+003, 3.231032e-001
2.485793e+003, 3.244230e-001
2.487722e+003, 3.246939e-001
2.489650e+003, 3.253392e-001
2.491579e+003, 3.248518e-001
2.493507e+003, 3.240174e-001
2.495436e+003, 3.240135e-001
2.497364e+003, 3.240863e-001
2.499293e+003, 3.248872e-001
2.501221e+003, 3.255260e-001
2.503150e+003, 3.250921e-001
2.505078e+003, 3.247250e-001
2.507007e+003, 3.250906e-001
2.508935e+003, 3.263339e-001
2.510864e+003, 3.264590e-001
2.512792e+003, 3.253941e-001
2.514720e+003, 3.255706e-001
2.516649e+003, 3.253531e-001
2.518577e+003, 3.252365e-001
2.520506e+003, 3.260090e-001
2.522434e+003, 3.264718e-001
2.524363e+003, 3.259746e-001
2.526291e+003, 3.249104e-001
2.528220e+003, 3.253138e-001
2.530148e+003, 3.263384e-001
2.532077e+003, 3.267942e-001
2.534005e+003, 3.270396e-001
2.535934e+003, 3.267194e-001
2.537862e+003, 3.277765e-001
2.539791e+003, 3.282059e-001
2.541719e+003, 3.272675e-001
2.543647e+003, 3.272195e-001
2.545576e+003, 3.281158e-001
2.547504e+003, 3.286070e-001
2.549433e+003, 3.281341e-001
2.551361e+003, 3.281588e-001
2.553290e+003, 3.285812e-001
2.555218e+003, 3.281621e-001
2.557147e+003, 3.269104e-001
2.559075e+003, 3.265761e-001
2.561004e+003, 3.276617e-001
2.562932e+003, 3.281052e-001
2.564861e+003, 3.281282e-001
2.566789e+003, 3.285590e-001
2.568718e+003, 3.285887e-001
2.570646e+003, 3.283630e-001
2.572574e+003, 3.287849e-001
2.574503e+003, 3.291489e-001
2.576431e+003, 3.288220e-001
2.578360e+003, 3.289885e-001
2.580288e+003, 3.292144e-001
2.582217e+003, 3.290249e-001
2.584145e+003, 3.295518e-001
2.586074e+003, 3.298896e-001
2.588002e+003, 3.297180e-001
2.589931e+003, 3.298507e-001
2.591859e+003, 3.304256e-001
2.593788e+003, 3.309764e-001
2.595716e+003, 3.309440e-001
2.597645e+003, 3.313304e-001
2.599573e+003, 3.317174e-001
2.601501e+003, 3.317638e-001
2.603430e+003, 3.315852e-001
2.605358e+003, 3.316466e-001
2.607287e+003, 3.316323e-001
2.609215e+003, 3.313640e-001
2.611144e+003, 3.319156e-001
2.613072e+003, 3.320795e-001
2.615001e+003, 3.325061e-001
2.616929e+003, 3.334052e-001
2.618858e+003, 3.339206e-001
2.620786e+003, 3.340096e-001
2.622715e+003, 3.333632e-001
2.624643e+003, 3.332889e-001
2.626572e+003, 3.333832e-001
2.628500e+003, 3.336020e-001
2.630428e+003, 3.338537e-001
2.632357e+003, 3.342768e-001
2.634285e+003, 3.350396e-001
2.636214e+003, 3.351081e-001
2.638142e+003, 3.350379e-001
2.640071e+003, 3.358721e-001
2.641999e+003, 3.362485e-001
2.643928e+003, 3.364104e-001
2.645856e+003, 3.363387e-001
2.647785e+003, 3.359211e-001
2.649713e+003, 3.359184e-001
2.651642e+003, 3.364831e-001
2.653570e+003, 3.366131e-001
2.655499e+003, 3.364718e-001
2.657427e+003, 3.366354e-001
2.659355e+003, 3.370402e-001
2.661284e+003, 3.365330e-001
2.663212e+003, 3.363874e-001
2.665141e+003, 3.369483e-001
2.667069e+003, 3.374259e-001
2.668998e+003, 3.372433e-001
2.670926e+003, 3.367681e-001
2.672855e+003, 3.367267e-001
2.674783e+003, 3.369822e-001
2.676712e+003, 3.370668e-001
2.678640e+003, 3.374049e-001
2.680569e+003, 3.375290e-001
2.682497e+003, 3.375815e-001
2.684426e+003, 3.374309e-001
2.686354e+003, 3.369983e-001
2.688282e+003, 3.372900e-001
2.690211e+003, 3.374594e-001
2.692139e+003, 3.375972e-001
2.694068e+003, 3.377485e-001
2.695996e+003, 3.382198e-001
2.697925e+003, 3.382283e-001
2.699853e+003, 3.380360e-001
2.701782e+003, 3.386781e-001
2.703710e+003, 3.391894e-001
2.705639e+003, 3.392519e-001
2.707567e+003, 3.389836e-001
2.709496e+003, 3.390820e-001
2.711424e+003, 3.389616e-001
2.713353e+003, 3.387264e-001
2.715281e+003, 3.391861e-001
2.717209e+003, 3.393922e-001
2.719138e+003, 3.393032e-001
2.721066e+003, 3.392701e-001
2.722995e+003, 3.393757e-001
2.724923e+003, 3.400043e-001
2.726852e+003, 3.401249e-001
2.728780e+003, 3.398632e-001
2.730709e+003, 3.392782e-001
2.732637e+003, 3.393422e-001
2.734566e+003, 3.401025e-001
2.736494e+003, 3.401530e-001
2.738423e+003, 3.403238e-001
2.740351e+003, 3.406833e-001
2.742280e+003, 3.407208e-001
2.744208e+003, 3.402025e-001
2.746136e+003, 3.400149e-001
2.748065e+003, 3.404077e-001
2.749993e+003, 3.403064e-001
2.751922e+003, 3.402991e-001
2.753850e+003, 3.407567e-001
2.755779e+003, 3.406742e-001
2.757707e+003, 3.401417e-001
2.759636e+003, 3.401251e-001
2.761564e+003, 3.405428e-001
2.763493e+003, 3.408825e-001
2.765421e+003, 3.410702e-001
2.767350e+003, 3.412700e-001
2.769278e+003, 3.407402e-001
2.771207e+003, 3.405391e-001
2.773135e+003, 3.405329e-001
2.775063e+003, 3.402825e-001
2.776992e+003, 3.415765e-001
2.778920e+003, 3.419735e-001
2.780849e+003, 3.414649e-001
2.782777e+003, 3.414545e-001
2.784706e+003, 3.419646e-001
2.786634e+003, 3.420382e-001
2.788563e+003, 3.418175e-001
2.790491e+003, 3.414917e-001
2.792420e+003, 3.412439e-001
2.794348e+003, 3.415296e-001
2.796277e+003, 3.422260e-001
2.798205e+003, 3.421790e-001
2.800134e+003, 3.420699e-001
2.802062e+003, 3.422836e-001
2.803990e+003, 3.419401e-001
2.805919e+003, 3.418540e-001
2.807847e+003, 3.423224e-001
2.809776e+003, 3.414969e-001
2.811704e+003, 3.415356e-001
2.813633e+003, 3.427077e-001
2.815561e+003, 3.430283e-001
2.817490e+003, 3.427421e-001
2.819418e+003, 3.427425e-001
2.821347e+003, 3.428047e-001
2.823275e+003, 3.431072e-001
2.825204e+003, 3.435302e-001
2.827132e+003, 3.436746e-001
2.829061e+003, 3.438261e-001
2.830989e+003, 3.438828e-001
2.832917e+003, 3.438738e-001
2.834846e+003, 3.440824e-001
2.836774e+003, 3.441944e-001
2.838703e+003, 3.441319e-001
2.840631e+003, 3.441583e-001
2.842560e+003, 3.443228e-001
2.844488e+003, 3.444986e-001
2.846417e+003, 3.446740e-001
2.848345e+003, 3.445338e-001
2.850274e+003, 3.445806e-001
2.852202e+003, 3.437092e-001
2.854131e+003, 3.427428e-001
2.856059e+003, 3.427602e-001
2.857988e+003, 3.429281e-001
2.859916e+003, 3.434136e-001
2.861844e+003, 3.439609e-001
2.863773e+003, 3.444160e-001
2.865701e+003, 3.441615e-001
2.867630e+003, 3.441814e-001
2.869558e+003, 3.443835e-001
2.871487e+003, 3.441782e-001
2.873415e+003, 3.437641e-001
2.875344e+003, 3.436616e-001
2.877272e+003, 3.443314e-001
2.879201e+003, 3.454058e-001
2.881129e+003, 3.456916e-001
2.883058e+003, 3.453908e-001
2.884986e+003, 3.449886e-001
2.886915e+003, 3.452784e-001
2.888843e+003, 3.457606e-001
2.890771e+003, 3.460591e-001
2.892700e+003, 3.465313e-001
2.894628e+003, 3.459510e-001
2.896557e+003, 3.454548e-001
2.898485e+003, 3.458068e-001
2.900414e+003, 3.458707e-001
2.902342e+003, 3.462837e-001
2.904271e+003, 3.463616e-001
2.906199e+003, 3.458261e-001
2.908128e+003, 3.457590e-001
2.910056e+003, 3.460486e-001
2.911985e+003, 3.464055e-001
2.913913e+003, 3.469715e-001
2.915842e+003, 3.469233e-001
2.917770e+003, 3.466755e-001
2.919698e+003, 3.467396e-001
2.921627e+003, 3.465963e-001
2.923555e+003, 3.463154e-001
2.925484e+003, 3.460521e-001
2.927412e+003, 3.457267e-001
2.929341e+003, 3.451639e-001
2.931269e+003, 3.451136e-001
2.933198e+003, 3.457184e-001
2.935126e+003, 3.454041e-001
2.937055e+003, 3.454246e-001
2.938983e+003, 3.471337e-001
2.940912e+003, 3.467870e-001
2.942840e+003, 3.457942e-001
2.944769e+003, 3.455138e-001
2.946697e+003, 3.464631e-001
2.948625e+003, 3.466053e-001
2.950554e+003, 3.463423e-001
2.952482e+003, 3.458067e-001
2.954411e+003, 3.454946e-001
2.956339e+003, 3.453448e-001
2.958268e+003, 3.454564e-001
2.960196e+003, 3.457165e-001
2.962125e+003, 3.458169e-001
2.964053e+003, 3.454729e-001
2.965982e+003, 3.453962e-001
2.967910e+003, 3.462761e-001
2.969839e+003, 3.471790e-001
2.971767e+003, 3.475354e-001
2.973696e+003, 3.472538e-001
2.975624e+003, 3.461459e-001
2.977552e+003, 3.460107e-001
2.979481e+003, 3.469496e-001
2.981409e+003, 3.474476e-001
2.983338e+003, 3.463103e-001
2.985266e+003, 3.465979e-001
2.987195e+003, 3.475360e-001
2.989123e+003, 3.479988e-001
2.991052e+003, 3.482126e-001
2.992980e+003, 3.485489e-001
2.994909e+003, 3.483209e-001
2.996837e+003, 3.479002e-001
2.998766e+003, 3.480768e-001
3.000694e+003, 3.478677e-001
3.002623e+003, 3.475006e-001
3.004551e+003, 3.475428e-001
3.006479e+003, 3.473701e-001
3.008408e+003, 3.473735e-001
3.010336e+003, 3.479305e-001
3.012265e+003, 3.481759e-001
3.014193e+003, 3.485828e-001
3.016122e+003, 3.482558e-001
3.018050e+003, 3.479844e-001
3.019979e+003, 3.477069e-001
3.021907e+003, 3.477353e-001
3.023836e+003, 3.482408e-001
3.025764e+003, 3.489211e-001
3.027693e+003, 3.500595e-001
3.029621e+003, 3.502377e-001
3.031550e+003, 3.496791e-001
3.033478e+003, 3.493499e-001
3.035406e+003, 3.497629e-001
3.037335e+003, 3.503380e-001
3.039263e+003, 3.496038e-001
3.041192e+003, 3.485579e-001
3.043120e+003, 3.483026e-001
3.045049e+003, 3.488016e-001
3.046977e+003, 3.496705e-001
3.048906e+003, 3.498118e-001
3.050834e+003, 3.492498e-001
3.052763e+003, 3.490719e-001
3.054691e+003, 3.496736e-001
3.056620e+003, 3.490665e-001
3.058548e+003, 3.489915e-001
3.060477e+003, 3.494923e-001
3.062405e+003, 3.497529e-001
3.064333e+003, 3.493786e-001
3.066262e+003, 3.497651e-001
3.068190e+003, 3.491074e-001
3.070119e+003, 3.496222e-001
3.072047e+003, 3.503470e-001
3.073976e+003, 3.499481e-001
3.075904e+003, 3.498774e-001
3.077833e+003, 3.505244e-001
3.079761e+003, 3.497982e-001
3.081690e+003, 3.503071e-001
3.083618e+003, 3.510202e-001
3.085547e+003, 3.506695e-001
3.087475e+003, 3.505905e-001
3.089404e+003, 3.502478e-001
3.091332e+003, 3.494994e-001
3.093260e+003, 3.497449e-001
3.095189e+003, 3.496184e-001
3.097117e+003, 3.500419e-001
3.099046e+003, 3.504028e-001
3.100974e+003, 3.502818e-001
3.102903e+003, 3.498376e-001
3.104831e+003, 3.505055e-001
3.106760e+003, 3.515380e-001
3.108688e+003, 3.508638e-001
3.110617e+003, 3.500357e-001
3.112545e+003, 3.507383e-001
3.114474e+003, 3.520732e-001
3.116402e+003, 3.524725e-001
3.118331e+003, 3.513001e-001
3.120259e+003, 3.504439e-001
3.122188e+003, 3.510455e-001
3.124116e+003, 3.515924e-001
3.126044e+003, 3.515975e-001
3.127973e+003, 3.516424e-001
3.129901e+003, 3.517720e-001
3.131830e+003, 3.520947e-001
3.133758e+003, 3.519384e-001
3.135687e+003, 3.518110e-001
3.137615e+003, 3.522249e-001
3.139544e+003, 3.522768e-001
3.141472e+003, 3.524186e-001
3.143401e+003, 3.525670e-001
3.145329e+003, 3.525332e-001
3.147258e+003, 3.523231e-001
3.149186e+003, 3.518997e-001
3.151115e+003, 3.512666e-001
3.153043e+003, 3.517869e-001
3.154971e+003, 3.527333e-001
3.156900e+003, 3.533614e-001
3.158828e+003, 3.536501e-001
3.160757e+003, 3.536116e-001
3.162685e+003, 3.540280e-001
3.164614e+003, 3.542589e-001
3.166542e+003, 3.541577e-001
3.168471e+003, 3.532172e-001
3.170399e+003, 3.525541e-001
3.172328e+003, 3.531361e-001
3.174256e+003, 3.541887e-001
3.176185e+003, 3.549879e-001
3.178113e+003, 3.541376e-001
3.180042e+003, 3.543362e-001
3.181970e+003, 3.549424e-001
3.183898e+003, 3.543153e-001
3.185827e+003, 3.536403e-001
3.187755e+003, 3.538108e-001
3.189684e+003, 3.539971e-001
3.191612e+003, 3.535178e-001
3.193541e+003, 3.533866e-001
3.195469e+003, 3.541054e-001
3.197398e+003, 3.547972e-001
3.199326e+003, 3.553602e-001
3.201255e+003, 3.550224e-001
3.203183e+003, 3.537534e-001
3.205112e+003, 3.535905e-001
3.207040e+003, 3.544038e-001
3.208969e+003, 3.553710e-001
3.210897e+003, 3.549998e-001
3.212825e+003, 3.559603e-001
3.214754e+003, 3.567884e-001
3.216682e+003, 3.553828e-001
3.218611e+003, 3.539214e-001
3.220539e+003, 3.549586e-001
3.222468e+003, 3.554367e-001
3.224396e+003, 3.548834e-001
3.226325e+003, 3.547653e-001
3.228253e+003, 3.554512e-001
3.230182e+003, 3.557719e-001
3.232110e+003, 3.564119e-001
3.234039e+003, 3.557066e-001
3.235967e+003, 3.544563e-001
3.237896e+003, 3.551660e-001
3.239824e+003, 3.558773e-001
3.241752e+003, 3.556260e-001
3.243681e+003, 3.554595e-001
3.245609e+003, 3.558443e-001
3.247538e+003, 3.565415e-001
3.249466e+003, 3.561321e-001
3.251395e+003, 3.561778e-001
3.253323e+003, 3.563434e-001
3.255252e+003, 3.573425e-001
3.257180e+003, 3.574309e-001
3.259109e+003, 3.567198e-001
3.261037e+003, 3.558011e-001
3.262966e+003, 3.561005e-001
3.264894e+003, 3.567294e-001
3.266823e+003, 3.566839e-001
3.268751e+003, 3.568901e-001
3.270679e+003, 3.575533e-001
3.272608e+003, 3.581755e-001
3.274536e+003, 3.586056e-001
3.276465e+003, 3.582712e-001
3.278393e+003, 3.577828e-001
3.280322e+003, 3.574715e-001
3.282250e+003, 3.582855e-001
3.284179e+003, 3.591741e-001
3.286107e+003, 3.592536e-001
3.288036e+003, 3.587686e-001
3.289964e+003, 3.588287e-001
3.291893e+003, 3.590376e-001
3.293821e+003, 3.594119e-001
3.295750e+003, 3.601057e-001
3.297678e+003, 3.595136e-001
3.299606e+003, 3.588808e-001
3.301535e+003, 3.586967e-001
3.303463e+003, 3.581627e-001
3.305392e+003, 3.585641e-001
3.307320e+003, 3.593914e-001
3.309249e+003, 3.593481e-001
3.311177e+003, 3.587969e-001
3.313106e+003, 3.589051e-001
3.315034e+003, 3.598094e-001
3.316963e+003, 3.587071e-001
3.318891e+003, 3.577850e-001
3.320820e+003, 3.583305e-001
3.322748e+003, 3.590803e-001
3.324677e+003, 3.600483e-001
3.326605e+003, 3.599930e-001
3.328533e+003, 3.587763e-001
3.330462e+003, 3.596221e-001
3.332390e+003, 3.601026e-001
3.334319e+003, 3.594667e-001
3.336247e+003, 3.585044e-001
3.338176e+003, 3.576608e-001
3.340104e+003, 3.571412e-001
3.342033e+003, 3.581130e-001
3.343961e+003, 3.596669e-001
3.345890e+003, 3.594769e-001
3.347818e+003, 3.589212e-001
3.349747e+003, 3.591751e-001
3.351675e+003, 3.591637e-001
3.353604e+003, 3.590659e-001
3.355532e+003, 3.579043e-001
3.357460e+003, 3.574046e-001
3.359389e+003, 3.579700e-001
3.361317e+003, 3.597624e-001
3.363246e+003, 3.602599e-001
3.365174e+003, 3.599282e-001
3.367103e+003, 3.595960e-001
3.369031e+003, 3.594389e-001
3.370960e+003, 3.597182e-001
3.372888e+003, 3.601151e-001
3.374817e+003, 3.606336e-001
3.376745e+003, 3.610393e-001
3.378674e+003, 3.613196e-001
3.380602e+003, 3.601107e-001
3.382531e+003, 3.598861e-001
3.384459e+003, 3.617215e-001
3.386387e+003, 3.625254e-001
3.388316e+003, 3.613467e-001
3.390244e+003, 3.602568e-001
3.392173e+003, 3.604970e-001
3.394101e+003, 3.604184e-001
3.396030e+003, 3.604733e-001
3.397958e+003, 3.615969e-001
3.399887e+003, 3.625732e-001
3.401815e+003, 3.613912e-001
3.403744e+003, 3.605961e-001
3.405672e+003, 3.616191e-001
3.407601e+003, 3.620700e-001
3.409529e+003, 3.626229e-001
3.411458e+003, 3.629182e-001
3.413386e+003, 3.624823e-001
3.415314e+003, 3.616517e-001
3.417243e+003, 3.604129e-001
3.419171e+003, 3.607644e-001
3.421100e+003, 3.615425e-001
3.423028e+003, 3.611652e-001
3.424957e+003, 3.615938e-001
3.426885e+003, 3.619888e-001
3.428814e+003, 3.626530e-001
3.430742e+003, 3.626311e-001
3.432671e+003, 3.623884e-001
3.434599e+003, 3.617125e-001
3.436528e+003, 3.623642e-001
3.438456e+003, 3.631316e-001
3.440385e+003, 3.632216e-001
3.442313e+003, 3.630928e-001
3.444241e+003, 3.614655e-001
3.446170e+003, 3.594408e-001
3.448098e+003, 3.604802e-001
3.450027e+003, 3.617263e-001
3.451955e+003, 3.620037e-001
3.453884e+003, 3.641609e-001
3.455812e+003, 3.643855e-001
3.457741e+003, 3.626572e-001
3.459669e+003, 3.627519e-001
3.461598e+003, 3.628071e-001
3.463526e+003, 3.630039e-001
3.465455e+003, 3.641081e-001
3.467383e+003, 3.655002e-001
3.469312e+003, 3.655396e-001
3.471240e+003, 3.640331e-001
3.473168e+003, 3.636014e-001
3.475097e+003, 3.634294e-001
3.477025e+003, 3.629802e-001
3.478954e+003, 3.629813e-001
3.480882e+003, 3.626837e-001
3.482811e+003, 3.631556e-001
3.484739e+003, 3.646210e-001
3.486668e+003, 3.641208e-001
3.488596e+003, 3.631147e-001
3.490525e+003, 3.626995e-001
3.492453e+003, 3.640945e-001
3.494382e+003, 3.650233e-001
3.496310e+003, 3.651328e-001
3.498239e+003, 3.656316e-001
3.500167e+003, 3.650897e-001
3.502095e+003, 3.645236e-001
3.504024e+003, 3.641886e-001
3.505952e+003, 3.634742e-001
3.507881e+003, 3.643385e-001
3.509809e+003, 3.661093e-001
3.511738e+003, 3.664299e-001
3.513666e+003, 3.650975e-001
3.515595e+003, 3.637331e-001
3.517523e+003, 3.634952e-001
3.519452e+003, 3.632660e-001
3.521380e+003, 3.638373e-001
3.523309e+003, 3.634372e-001
3.525237e+003, 3.645230e-001
3.527166e+003, 3.658099e-001
3.529094e+003, 3.654944e-001
3.531022e+003, 3.632063e-001
3.532951e+003, 3.624074e-001
3.534879e+003, 3.642671e-001
3.536808e+003, 3.664602e-001
3.538736e+003, 3.674628e-001
3.540665e+003, 3.666337e-001
3.542593e+003, 3.650630e-001
3.544522e+003, 3.638417e-001
3.546450e+003, 3.641122e-001
3.548379e+003, 3.652109e-001
3.550307e+003, 3.656721e-001
3.552236e+003, 3.636001e-001
3.554164e+003, 3.626314e-001
3.556093e+003, 3.649180e-001
3.558021e+003, 3.677490e-001
3.559949e+003, 3.677094e-001
3.561878e+003, 3.658393e-001
3.563806e+003, 3.652746e-001
3.565735e+003, 3.654146e-001
3.567663e+003, 3.656322e-001
3.569592e+003, 3.668275e-001
3.571520e+003, 3.666746e-001
3.573449e+003, 3.671428e-001
3.575377e+003, 3.662871e-001
3.577306e+003, 3.643928e-001
3.579234e+003, 3.637087e-001
3.581163e+003, 3.650171e-001
3.583091e+003, 3.665740e-001
3.585020e+003, 3.660501e-001
3.586948e+003, 3.658680e-001
3.588876e+003, 3.663421e-001
3.590805e+003, 3.653013e-001
3.592733e+003, 3.645456e-001
3.594662e+003, 3.652355e-001
3.596590e+003, 3.660645e-001
3.598519e+003, 3.650108e-001
3.600447e+003, 3.645218e-001
3.602376e+003, 3.667645e-001
3.604304e+003, 3.668727e-001
3.606233e+003, 3.663249e-001
3.608161e+003, 3.671447e-001
3.610090e+003, 3.677311e-001
3.612018e+003, 3.675909e-001
3.613947e+003, 3.667247e-001
3.615875e+003, 3.679581e-001
3.617803e+003, 3.698377e-001
3.619732e+003, 3.697298e-001
3.621660e+003, 3.681265e-001
3.623589e+003, 3.659722e-001
3.625517e+003, 3.658425e-001
3.627446e+003, 3.687498e-001
3.629374e+003, 3.713290e-001
3.631303e+003, 3.703505e-001
3.633231e+003, 3.679815e-001
3.635160e+003, 3.670151e-001
3.637088e+003, 3.684829e-001
3.639017e+003, 3.687508e-001
3.640945e+003, 3.680854e-001
3.642874e+003, 3.693186e-001
3.644802e+003, 3.699730e-001
3.646730e+003, 3.685342e-001
3.648659e+003, 3.696508e-001
3.650587e+003, 3.693727e-001
3.652516e+003, 3.687151e-001
3.654444e+003, 3.706562e-001
3.656373e+003, 3.704830e-001
3.658301e+003, 3.703187e-001
3.660230e+003, 3.697009e-001
3.662158e+003, 3.687471e-001
3.664087e+003, 3.685232e-001
3.666015e+003, 3.686182e-001
3.667944e+003, 3.686401e-001
3.669872e+003, 3.698399e-001
3.671801e+003, 3.707166e-001
3.673729e+003, 3.710449e-001
3.675657e+003, 3.727552e-001
3.677586e+003, 3.720276e-001
3.679514e+003, 3.705432e-001
3.681443e+003, 3.707525e-001
3.683371e+003, 3.722667e-001
3.685300e+003, 3.715652e-001
3.687228e+003, 3.708931e-001
3.689157e+003, 3.714489e-001
3.691085e+003, 3.708281e-001
3.693014e+003, 3.729316e-001
3.694942e+003, 3.735827e-001
3.696871e+003, 3.714327e-001
3.698799e+003, 3.700155e-001
3.700728e+003, 3.706364e-001
3.702656e+003, 3.714065e-001
3.704584e+003, 3.722018e-001
3.706513e+003, 3.722641e-001
3.708441e+003, 3.721801e-001
3.710370e+003, 3.725832e-001
3.712298e+003, 3.728707e-001
3.714227e+003, 3.719065e-001
3.716155e+003, 3.717621e-001
3.718084e+003, 3.714899e-001
3.720012e+003, 3.699239e-001
3.721941e+003, 3.687144e-001
3.723869e+003, 3.710778e-001
3.725798e+003, 3.723792e-001
3.727726e+003, 3.717138e-001
3.729655e+003, 3.714175e-001
3.731583e+003, 3.728952e-001
3.733511e+003, 3.740031e-001
3.735440e+003, 3.744453e-001
3.737368e+003, 3.757001e-001
3.739297e+003, 3.745144e-001
3.741225e+003, 3.741273e-001
3.743154e+003, 3.748585e-001
3.745082e+003, 3.762486e-001
3.747011e+003, 3.758416e-001
3.748939e+003, 3.739533e-001
3.750868e+003, 3.745658e-001
3.752796e+003, 3.754162e-001
3.754725e+003, 3.743521e-001
3.756653e+003, 3.745185e-001
3.758582e+003, 3.750522e-001
3.760510e+003, 3.752944e-001
3.762438e+003, 3.750070e-001
3.764367e+003, 3.752394e-001
3.766295e+003, 3.776178e-001
3.768224e+003, 3.782217e-001
3.770152e+003, 3.778605e-001
3.772081e+003, 3.767679e-001
3.774009e+003, 3.750783e-001
3.775938e+003, 3.747546e-001
3.777866e+003, 3.733171e-001
3.779795e+003, 3.733928e-001
3.781723e+003, 3.751406e-001
3.783652e+003, 3.761071e-001
3.785580e+003, 3.756091e-001
3.787509e+003, 3.762389e-001
3.789437e+003, 3.770008e-001
3.791365e+003, 3.773278e-001
3.793294e+003, 3.765731e-001
3.795222e+003, 3.745152e-001
3.797151e+003, 3.748016e-001
3.799079e+003, 3.757470e-001
3.801008e+003, 3.756245e-001
3.802936e+003, 3.767911e-001
3.804865e+003, 3.787760e-001
3.806793e+003, 3.785428e-001
3.808722e+003, 3.768661e-001
3.810650e+003, 3.765263e-001
3.812579e+003, 3.772727e-001
3.814507e+003, 3.772442e-001
3.816436e+003, 3.784180e-001
3.818364e+003, 3.784924e-001
3.820292e+003, 3.782022e-001
3.822221e+003, 3.777284e-001
3.824149e+003, 3.789428e-001
3.826078e+003, 3.788669e-001
3.828006e+003, 3.792223e-001
3.829935e+003, 3.790641e-001
3.831863e+003, 3.781708e-001
3.833792e+003, 3.771291e-001
3.835720e+003, 3.765445e-001
3.837649e+003, 3.772410e-001
3.839577e+003, 3.768873e-001
3.841506e+003, 3.783757e-001
3.843434e+003, 3.783218e-001
3.845363e+003, 3.770161e-001
3.847291e+003, 3.772342e-001
3.849219e+003, 3.779498e-001
3.851148e+003, 3.787873e-001
3.853076e+003, 3.795958e-001
3.855005e+003, 3.783792e-001
3.856933e+003, 3.777231e-001
3.858862e+003, 3.779388e-001
3.860790e+003, 3.773488e-001
3.862719e+003, 3.777725e-001
3.864647e+003, 3.782689e-001
3.866576e+003, 3.783653e-001
3.868504e+003, 3.797938e-001
3.870433e+003, 3.807984e-001
3.872361e+003, 3.797401e-001
3.874290e+003, 3.794728e-001
3.876218e+003, 3.790767e-001
3.878146e+003, 3.807511e-001
3.880075e+003, 3.815697e-001
3.882003e+003, 3.812373e-001
3.883932e+003, 3.803913e-001
3.885860e+003, 3.799830e-001
3.887789e+003, 3.810133e-001
3.889717e+003, 3.831941e-001
3.891646e+003, 3.831303e-001
3.893574e+003, 3.813520e-001
3.895503e+003, 3.787059e-001
3.897431e+003, 3.774800e-001
3.899360e+003, 3.795043e-001
3.901288e+003, 3.806378e-001
3.903217e+003, 3.797965e-001
3.905145e+003, 3.800161e-001
3.907073e+003, 3.811132e-001
3.909002e+003, 3.816494e-001
3.910930e+003, 3.820557e-001
3.912859e+003, 3.810725e-001
3.914787e+003, 3.807241e-001
3.916716e+003, 3.824401e-001
3.918644e+003, 3.817908e-001
3.920573e+003, 3.812967e-001
3.922501e+003, 3.805815e-001
3.924430e+003, 3.801707e-001
3.926358e+003, 3.809709e-001
3.928287e+003, 3.824930e-001
3.930215e+003, 3.829592e-001
3.932144e+003, 3.817727e-001
3.934072e+003, 3.823080e-001
3.936000e+003, 3.821687e-001
3.937929e+003, 3.812070e-001
3.939857e+003, 3.807853e-001
3.941786e+003, 3.807169e-001
3.943714e+003, 3.816614e-001
3.945643e+003, 3.824513e-001
3.947571e+003, 3.817275e-001
3.949500e+003, 3.829174e-001
3.951428e+003, 3.847584e-001
3.953357e+003, 3.854914e-001
3.955285e+003, 3.855134e-001
3.957214e+003, 3.850154e-001
3.959142e+003, 3.849865e-001
3.961071e+003, 3.846072e-001
3.962999e+003, 3.834478e-001
3.964927e+003, 3.821261e-001
3.966856e+003, 3.823830e-001
3.968784e+003, 3.826867e-001
3.970713e+003, 3.821601e-001
3.972641e+003, 3.816013e-001
3.974570e+003, 3.823512e-001
3.976498e+003, 3.830010e-001
3.978427e+003, 3.824524e-001
3.980355e+003, 3.829300e-001
3.982284e+003, 3.836735e-001
3.984212e+003, 3.831454e-001
3.986141e+003, 3.839389e-001
3.988069e+003, 3.847153e-001
3.989998e+003, 3.843132e-001
3.991926e+003, 3.830717e-001
3.993854e+003, 3.834375e-001
3.995783e+003, 3.842579e-001
3.997711e+003, 3.842553e-001
3.999640e+003, 3.844400e-001
4.001568e+003, 0.000000e+000
##END=



