##NAMES=Axinite-(Fe)
##RRUFFID=R050061
##IDEAL CHEMISTRY=Ca_4_Fe^2+^_2_Al_4_[B_2_Si_8_O_30_](OH)_2_
##LOCALITY=Jamestown, California, USA
##OWNER=RRUFF
##SOURCE=Rock Currier
##DESCRIPTION=Brown colored axe-head-shaped single crystals
##STATUS=The identification of this mineral has been confirmed by X-ray diffraction and chemical analysis
##URL=rruff.info/R050061
##MEASURED CHEMISTRY=Ca_2.00_(Fe^2+^_0.73_Mg_0.20_Mn_0.07_)Al_2.00_BSi_4_O_15_(OH)
3.991926e+002, 0.000000e+000
4.011211e+002, 2.007201e-001
4.030496e+002, 2.016883e-001
4.049780e+002, 2.085057e-001
4.069065e+002, 2.205414e-001
4.088350e+002, 2.243356e-001
4.107634e+002, 2.207753e-001
4.126919e+002, 2.134631e-001
4.146204e+002, 2.086053e-001
4.165488e+002, 2.134115e-001
4.184773e+002, 2.251908e-001
4.204058e+002, 2.374885e-001
4.223342e+002, 2.470192e-001
4.242627e+002, 2.546150e-001
4.261912e+002, 2.571488e-001
4.281196e+002, 2.552871e-001
4.300481e+002, 2.507291e-001
4.319766e+002, 2.414030e-001
4.339050e+002, 2.299793e-001
4.358335e+002, 2.186453e-001
4.377620e+002, 2.077554e-001
4.396904e+002, 2.016595e-001
4.416189e+002, 2.027092e-001
4.435474e+002, 2.096808e-001
4.454758e+002, 2.206408e-001
4.474043e+002, 2.277047e-001
4.493328e+002, 2.298568e-001
4.512612e+002, 2.257306e-001
4.531897e+002, 2.201087e-001
4.551182e+002, 2.140437e-001
4.570466e+002, 2.063947e-001
4.589751e+002, 1.981017e-001
4.609036e+002, 1.882375e-001
4.628320e+002, 1.786357e-001
4.647605e+002, 1.707766e-001
4.666890e+002, 1.632896e-001
4.686174e+002, 1.577256e-001
4.705459e+002, 1.541124e-001
4.724744e+002, 1.528754e-001
4.744028e+002, 1.535798e-001
4.763313e+002, 1.542692e-001
4.782598e+002, 1.533054e-001
4.801882e+002, 1.504139e-001
4.821167e+002, 1.435263e-001
4.840452e+002, 1.356362e-001
4.859736e+002, 1.276925e-001
4.879021e+002, 1.185299e-001
4.898306e+002, 1.086114e-001
4.917590e+002, 1.001477e-001
4.936875e+002, 9.473407e-002
4.956160e+002, 9.383389e-002
4.975444e+002, 9.783674e-002
4.994729e+002, 1.057863e-001
5.014014e+002, 1.158482e-001
5.033298e+002, 1.261717e-001
5.052583e+002, 1.370258e-001
5.071868e+002, 1.475654e-001
5.091152e+002, 1.563003e-001
5.110437e+002, 1.642002e-001
5.129722e+002, 1.703526e-001
5.149006e+002, 1.745412e-001
5.168291e+002, 1.768318e-001
5.187576e+002, 1.765248e-001
5.206860e+002, 1.721238e-001
5.226145e+002, 1.629503e-001
5.245430e+002, 1.523725e-001
5.264714e+002, 1.449202e-001
5.283999e+002, 1.443268e-001
5.303284e+002, 1.491092e-001
5.322568e+002, 1.582218e-001
5.341853e+002, 1.697349e-001
5.361138e+002, 1.806603e-001
5.380422e+002, 1.887238e-001
5.399707e+002, 1.927360e-001
5.418992e+002, 1.936954e-001
5.438276e+002, 1.934500e-001
5.457561e+002, 1.929259e-001
5.476846e+002, 1.927167e-001
5.496130e+002, 1.927667e-001
5.515415e+002, 1.920950e-001
5.534700e+002, 1.893758e-001
5.553984e+002, 1.843748e-001
5.573269e+002, 1.783730e-001
5.592554e+002, 1.730993e-001
5.611838e+002, 1.681492e-001
5.631123e+002, 1.650510e-001
5.650408e+002, 1.641664e-001
5.669692e+002, 1.637322e-001
5.688977e+002, 1.625276e-001
5.708262e+002, 1.620518e-001
5.727546e+002, 1.638327e-001
5.746831e+002, 1.674771e-001
5.766116e+002, 1.728582e-001
5.785400e+002, 1.783014e-001
5.804685e+002, 1.808611e-001
5.823970e+002, 1.799423e-001
5.843254e+002, 1.753003e-001
5.862539e+002, 1.681474e-001
5.881824e+002, 1.605419e-001
5.901108e+002, 1.534454e-001
5.920393e+002, 1.472559e-001
5.939678e+002, 1.430590e-001
5.958962e+002, 1.405215e-001
5.978247e+002, 1.388689e-001
5.997532e+002, 1.369526e-001
6.016816e+002, 1.341564e-001
6.036101e+002, 1.301512e-001
6.055386e+002, 1.247987e-001
6.074670e+002, 1.182147e-001
6.093955e+002, 1.100840e-001
6.113240e+002, 1.009591e-001
6.132524e+002, 9.222175e-002
6.151809e+002, 8.491306e-002
6.171094e+002, 7.850484e-002
6.190378e+002, 7.322890e-002
6.209663e+002, 6.918452e-002
6.228948e+002, 6.597981e-002
6.248232e+002, 6.321336e-002
6.267517e+002, 6.102739e-002
6.286802e+002, 5.912364e-002
6.306086e+002, 5.763126e-002
6.325371e+002, 5.743142e-002
6.344656e+002, 5.773441e-002
6.363940e+002, 5.768253e-002
6.383225e+002, 5.597246e-002
6.402510e+002, 5.188527e-002
6.421794e+002, 4.734225e-002
6.441079e+002, 4.339899e-002
6.460364e+002, 4.019304e-002
6.479648e+002, 3.820169e-002
6.498933e+002, 3.761482e-002
6.518218e+002, 3.852135e-002
6.537502e+002, 4.095489e-002
6.556787e+002, 4.498237e-002
6.576072e+002, 5.061627e-002
6.595356e+002, 5.791777e-002
6.614641e+002, 6.482700e-002
6.633926e+002, 6.864607e-002
6.653210e+002, 6.774840e-002
6.672495e+002, 6.295085e-002
6.691780e+002, 5.574316e-002
6.711064e+002, 4.860711e-002
6.730349e+002, 4.346576e-002
6.749634e+002, 4.029116e-002
6.768918e+002, 3.889354e-002
6.788203e+002, 3.837874e-002
6.807488e+002, 3.779680e-002
6.826772e+002, 3.645086e-002
6.846057e+002, 3.423830e-002
6.865342e+002, 3.196478e-002
6.884626e+002, 3.017237e-002
6.903911e+002, 2.898083e-002
6.923196e+002, 2.838795e-002
6.942480e+002, 2.795936e-002
6.961765e+002, 2.769917e-002
6.981050e+002, 2.782916e-002
7.000334e+002, 2.824335e-002
7.019619e+002, 2.837930e-002
7.038904e+002, 2.868072e-002
7.058188e+002, 2.949649e-002
7.077473e+002, 3.035265e-002
7.096758e+002, 3.100382e-002
7.116042e+002, 3.175323e-002
7.135327e+002, 3.263633e-002
7.154612e+002, 3.353200e-002
7.173896e+002, 3.415484e-002
7.193181e+002, 3.480903e-002
7.212466e+002, 3.565285e-002
7.231750e+002, 3.620504e-002
7.251035e+002, 3.665277e-002
7.270320e+002, 3.758694e-002
7.289604e+002, 3.876239e-002
7.308889e+002, 3.961490e-002
7.328174e+002, 4.057414e-002
7.347458e+002, 4.161698e-002
7.366743e+002, 4.306358e-002
7.386028e+002, 4.474128e-002
7.405313e+002, 4.624967e-002
7.424597e+002, 4.815252e-002
7.443882e+002, 5.021745e-002
7.463167e+002, 5.200276e-002
7.482451e+002, 5.402787e-002
7.501736e+002, 5.622441e-002
7.521021e+002, 5.887162e-002
7.540305e+002, 6.190730e-002
7.559590e+002, 6.507650e-002
7.578875e+002, 6.840790e-002
7.598159e+002, 7.201027e-002
7.617444e+002, 7.576469e-002
7.636729e+002, 8.013688e-002
7.656013e+002, 8.499274e-002
7.675298e+002, 8.996490e-002
7.694583e+002, 9.527038e-002
7.713867e+002, 1.010661e-001
7.733152e+002, 1.068148e-001
7.752437e+002, 1.115988e-001
7.771721e+002, 1.143928e-001
7.791006e+002, 1.145642e-001
7.810291e+002, 1.123386e-001
7.829575e+002, 1.081766e-001
7.848860e+002, 1.035267e-001
7.868145e+002, 9.969005e-002
7.887429e+002, 9.707568e-002
7.906714e+002, 9.621824e-002
7.925999e+002, 9.714171e-002
7.945283e+002, 9.922493e-002
7.964568e+002, 1.022855e-001
7.983853e+002, 1.061301e-001
8.003137e+002, 1.106479e-001
8.022422e+002, 1.155553e-001
8.041707e+002, 1.212354e-001
8.060991e+002, 1.274933e-001
8.080276e+002, 1.339682e-001
8.099561e+002, 1.407139e-001
8.118845e+002, 1.475262e-001
8.138130e+002, 1.544061e-001
8.157415e+002, 1.614248e-001
8.176699e+002, 1.687344e-001
8.195984e+002, 1.763705e-001
8.215269e+002, 1.839314e-001
8.234553e+002, 1.907676e-001
8.253838e+002, 1.964544e-001
8.273123e+002, 2.002550e-001
8.292407e+002, 2.021574e-001
8.311692e+002, 2.024795e-001
8.330977e+002, 2.018930e-001
8.350261e+002, 2.027410e-001
8.369546e+002, 2.061460e-001
8.388831e+002, 2.115973e-001
8.408115e+002, 2.179746e-001
8.427400e+002, 2.248525e-001
8.446685e+002, 2.314628e-001
8.465969e+002, 2.377548e-001
8.485254e+002, 2.431745e-001
8.504539e+002, 2.473030e-001
8.523823e+002, 2.497356e-001
8.543108e+002, 2.503193e-001
8.562393e+002, 2.496885e-001
8.581677e+002, 2.487933e-001
8.600962e+002, 2.479409e-001
8.620247e+002, 2.481436e-001
8.639531e+002, 2.495272e-001
8.658816e+002, 2.512563e-001
8.678101e+002, 2.530777e-001
8.697385e+002, 2.547804e-001
8.716670e+002, 2.556512e-001
8.735955e+002, 2.560548e-001
8.755239e+002, 2.559441e-001
8.774524e+002, 2.544784e-001
8.793809e+002, 2.523529e-001
8.813093e+002, 2.491994e-001
8.832378e+002, 2.455010e-001
8.851663e+002, 2.422472e-001
8.870947e+002, 2.395160e-001
8.890232e+002, 2.374102e-001
8.909517e+002, 2.349795e-001
8.928801e+002, 2.316060e-001
8.948085e+002, 2.266766e-001
8.967370e+002, 2.205400e-001
8.986655e+002, 2.145951e-001
9.005939e+002, 2.094742e-001
9.025224e+002, 2.055935e-001
9.044509e+002, 2.038808e-001
9.063793e+002, 2.052173e-001
9.083078e+002, 2.092550e-001
9.102363e+002, 2.149756e-001
9.121647e+002, 2.213735e-001
9.140932e+002, 2.276300e-001
9.160217e+002, 2.331509e-001
9.179501e+002, 2.374386e-001
9.198786e+002, 2.399225e-001
9.218071e+002, 2.411744e-001
9.237355e+002, 2.416174e-001
9.256640e+002, 2.414706e-001
9.275925e+002, 2.404965e-001
9.295209e+002, 2.387536e-001
9.314494e+002, 2.360250e-001
9.333779e+002, 2.326830e-001
9.353063e+002, 2.292690e-001
9.372348e+002, 2.251735e-001
9.391633e+002, 2.208909e-001
9.410917e+002, 2.165453e-001
9.430202e+002, 2.118065e-001
9.449487e+002, 2.069250e-001
9.468771e+002, 2.015718e-001
9.488056e+002, 1.954756e-001
9.507341e+002, 1.888193e-001
9.526625e+002, 1.814262e-001
9.545910e+002, 1.737821e-001
9.565195e+002, 1.660695e-001
9.584479e+002, 1.583083e-001
9.603764e+002, 1.506963e-001
9.623049e+002, 1.436161e-001
9.642333e+002, 1.374091e-001
9.661618e+002, 1.320338e-001
9.680903e+002, 1.274381e-001
9.700187e+002, 1.238461e-001
9.719472e+002, 1.214313e-001
9.738757e+002, 1.201183e-001
9.758041e+002, 1.198911e-001
9.777326e+002, 1.201921e-001
9.796611e+002, 1.209682e-001
9.815895e+002, 1.221027e-001
9.835180e+002, 1.228637e-001
9.854465e+002, 1.235647e-001
9.873749e+002, 1.248117e-001
9.893034e+002, 1.262136e-001
9.912319e+002, 1.281976e-001
9.931603e+002, 1.313443e-001
9.950888e+002, 1.352382e-001
9.970173e+002, 1.397802e-001
9.989457e+002, 1.441179e-001
1.000874e+003, 1.475075e-001
1.002803e+003, 1.495709e-001
1.004731e+003, 1.498678e-001
1.006660e+003, 1.480648e-001
1.008588e+003, 1.439464e-001
1.010517e+003, 1.380539e-001
1.012445e+003, 1.311282e-001
1.014373e+003, 1.245270e-001
1.016302e+003, 1.198802e-001
1.018230e+003, 1.175138e-001
1.020159e+003, 1.176849e-001
1.022087e+003, 1.206885e-001
1.024016e+003, 1.266665e-001
1.025944e+003, 1.350347e-001
1.027873e+003, 1.449291e-001
1.029801e+003, 1.547218e-001
1.031730e+003, 1.636590e-001
1.033658e+003, 1.711204e-001
1.035587e+003, 1.762778e-001
1.037515e+003, 1.788680e-001
1.039444e+003, 1.793274e-001
1.041372e+003, 1.779455e-001
1.043301e+003, 1.747695e-001
1.045229e+003, 1.700861e-001
1.047157e+003, 1.647612e-001
1.049086e+003, 1.593595e-001
1.051014e+003, 1.538301e-001
1.052943e+003, 1.491785e-001
1.054871e+003, 1.455934e-001
1.056800e+003, 1.426741e-001
1.058728e+003, 1.410672e-001
1.060657e+003, 1.409351e-001
1.062585e+003, 1.417271e-001
1.064514e+003, 1.425201e-001
1.066442e+003, 1.424042e-001
1.068371e+003, 1.411174e-001
1.070299e+003, 1.382327e-001
1.072228e+003, 1.340098e-001
1.074156e+003, 1.280940e-001
1.076084e+003, 1.209040e-001
1.078013e+003, 1.132182e-001
1.079941e+003, 1.053412e-001
1.081870e+003, 9.781701e-002
1.083798e+003, 9.134392e-002
1.085727e+003, 8.598347e-002
1.087655e+003, 8.172743e-002
1.089584e+003, 7.848875e-002
1.091512e+003, 7.634483e-002
1.093441e+003, 7.497821e-002
1.095369e+003, 7.369149e-002
1.097298e+003, 7.217600e-002
1.099226e+003, 7.046680e-002
1.101155e+003, 6.837288e-002
1.103083e+003, 6.620971e-002
1.105011e+003, 6.377262e-002
1.106940e+003, 6.123239e-002
1.108868e+003, 5.886787e-002
1.110797e+003, 5.638617e-002
1.112725e+003, 5.383075e-002
1.114654e+003, 5.127893e-002
1.116582e+003, 4.873215e-002
1.118511e+003, 4.621042e-002
1.120439e+003, 4.356002e-002
1.122368e+003, 4.102363e-002
1.124296e+003, 3.882906e-002
1.126225e+003, 3.676631e-002
1.128153e+003, 3.473556e-002
1.130082e+003, 3.318211e-002
1.132010e+003, 3.180560e-002
1.133938e+003, 3.037397e-002
1.135867e+003, 2.921744e-002
1.137795e+003, 2.794750e-002
1.139724e+003, 2.640714e-002
1.141652e+003, 2.478589e-002
1.143581e+003, 2.305106e-002
1.145509e+003, 2.121799e-002
1.147438e+003, 1.933313e-002
1.149366e+003, 1.770732e-002
1.151295e+003, 1.615774e-002
1.153223e+003, 1.478482e-002
1.155152e+003, 1.364690e-002
1.157080e+003, 1.256129e-002
1.159009e+003, 1.164328e-002
1.160937e+003, 1.086538e-002
1.162865e+003, 1.034303e-002
1.164794e+003, 9.881205e-003
1.166722e+003, 9.387867e-003
1.168651e+003, 8.905407e-003
1.170579e+003, 8.181727e-003
1.172508e+003, 7.721044e-003
1.174436e+003, 7.407935e-003
1.176365e+003, 7.174819e-003
1.178293e+003, 6.978852e-003
1.180222e+003, 6.818064e-003
1.182150e+003, 6.532745e-003
1.184079e+003, 6.086663e-003
1.186007e+003, 5.730317e-003
1.187936e+003, 5.659287e-003
1.189864e+003, 5.750365e-003
1.191792e+003, 5.632006e-003
1.193721e+003, 5.356913e-003
1.195649e+003, 5.192089e-003
1.197578e+003, 5.061280e-003
1.199506e+003, 5.042725e-003
1.201435e+003, 4.918885e-003
1.203363e+003, 4.747435e-003
1.205292e+003, 4.542945e-003
1.207220e+003, 4.530190e-003
1.209149e+003, 4.461017e-003
1.211077e+003, 4.231647e-003
1.213006e+003, 4.158034e-003
1.214934e+003, 4.220832e-003
1.216863e+003, 4.295374e-003
1.218791e+003, 4.166547e-003
1.220719e+003, 4.061931e-003
1.222648e+003, 3.999307e-003
1.224576e+003, 3.945516e-003
1.226505e+003, 3.851990e-003
1.228433e+003, 3.745174e-003
1.230362e+003, 3.705099e-003
1.232290e+003, 3.820663e-003
1.234219e+003, 4.051679e-003
1.236147e+003, 4.150814e-003
1.238076e+003, 4.264100e-003
1.240004e+003, 4.302897e-003
1.241933e+003, 4.336531e-003
1.243861e+003, 4.272321e-003
1.245790e+003, 4.273646e-003
1.247718e+003, 4.591521e-003
1.249646e+003, 4.875951e-003
1.251575e+003, 4.826105e-003
1.253503e+003, 4.768505e-003
1.255432e+003, 4.979776e-003
1.257360e+003, 5.069837e-003
1.259289e+003, 4.827018e-003
1.261217e+003, 4.774437e-003
1.263146e+003, 4.843058e-003
1.265074e+003, 4.638526e-003
1.267003e+003, 4.416011e-003
1.268931e+003, 4.483930e-003
1.270860e+003, 4.642576e-003
1.272788e+003, 4.694072e-003
1.274717e+003, 4.721402e-003
1.276645e+003, 4.799157e-003
1.278573e+003, 4.743708e-003
1.280502e+003, 4.618835e-003
1.282430e+003, 4.562051e-003
1.284359e+003, 4.470836e-003
1.286287e+003, 4.441650e-003
1.288216e+003, 4.467476e-003
1.290144e+003, 4.286861e-003
1.292073e+003, 4.204888e-003
1.294001e+003, 4.177672e-003
1.295930e+003, 4.167229e-003
1.297858e+003, 4.231157e-003
1.299787e+003, 4.337728e-003
1.301715e+003, 4.387045e-003
1.303644e+003, 4.338618e-003
1.305572e+003, 4.339160e-003
1.307500e+003, 4.439328e-003
1.309429e+003, 4.386669e-003
1.311357e+003, 4.343474e-003
1.313286e+003, 4.478844e-003
1.315214e+003, 4.553596e-003
1.317143e+003, 4.485046e-003
1.319071e+003, 4.370237e-003
1.321000e+003, 4.276222e-003
1.322928e+003, 4.180762e-003
1.324857e+003, 4.307170e-003
1.326785e+003, 4.390649e-003
1.328714e+003, 4.146531e-003
1.330642e+003, 4.215580e-003
1.332571e+003, 4.388816e-003
1.334499e+003, 4.423830e-003
1.336427e+003, 4.445596e-003
1.338356e+003, 4.417682e-003
1.340284e+003, 4.169729e-003
1.342213e+003, 4.208085e-003
1.344141e+003, 4.445218e-003
1.346070e+003, 4.546687e-003
1.347998e+003, 4.586007e-003
1.349927e+003, 4.694378e-003
1.351855e+003, 4.730025e-003
1.353784e+003, 4.954432e-003
1.355712e+003, 5.134074e-003
1.357641e+003, 5.062456e-003
1.359569e+003, 5.033626e-003
1.361498e+003, 4.917213e-003
1.363426e+003, 4.962812e-003
1.365354e+003, 4.996639e-003
1.367283e+003, 4.842636e-003
1.369211e+003, 4.877118e-003
1.371140e+003, 4.854844e-003
1.373068e+003, 4.609421e-003
1.374997e+003, 4.479314e-003
1.376925e+003, 4.392954e-003
1.378854e+003, 4.390358e-003
1.380782e+003, 4.401047e-003
1.382711e+003, 4.302369e-003
1.384639e+003, 4.219733e-003
1.386568e+003, 4.144109e-003
1.388496e+003, 4.173891e-003
1.390424e+003, 4.102248e-003
1.392353e+003, 4.263342e-003
1.394281e+003, 4.311612e-003
1.396210e+003, 4.248396e-003
1.398138e+003, 4.158742e-003
1.400067e+003, 4.122919e-003
1.401995e+003, 4.115655e-003
1.403924e+003, 4.266001e-003
1.405852e+003, 4.487164e-003
1.407781e+003, 4.539515e-003
1.409709e+003, 4.298821e-003
1.411638e+003, 4.270021e-003
1.413566e+003, 4.341697e-003
1.415495e+003, 4.248497e-003
1.417423e+003, 4.436625e-003
1.419351e+003, 4.587490e-003
1.421280e+003, 4.264689e-003
1.423208e+003, 4.272211e-003
1.425137e+003, 4.381504e-003
1.427065e+003, 4.206370e-003
1.428994e+003, 4.198551e-003
1.430922e+003, 4.304160e-003
1.432851e+003, 4.173283e-003
1.434779e+003, 4.124092e-003
1.436708e+003, 4.204825e-003
1.438636e+003, 4.177291e-003
1.440565e+003, 4.215044e-003
1.442493e+003, 4.131402e-003
1.444422e+003, 3.967325e-003
1.446350e+003, 4.004492e-003
1.448278e+003, 4.122188e-003
1.450207e+003, 4.052866e-003
1.452135e+003, 4.081564e-003
1.454064e+003, 3.956011e-003
1.455992e+003, 3.834230e-003
1.457921e+003, 4.158839e-003
1.459849e+003, 4.077107e-003
1.461778e+003, 3.939614e-003
1.463706e+003, 3.863467e-003
1.465635e+003, 3.757993e-003
1.467563e+003, 3.733590e-003
1.469492e+003, 3.685850e-003
1.471420e+003, 3.624514e-003
1.473349e+003, 3.584685e-003
1.475277e+003, 3.358088e-003
1.477205e+003, 3.322285e-003
1.479134e+003, 3.446667e-003
1.481062e+003, 3.627133e-003
1.482991e+003, 3.533171e-003
1.484919e+003, 3.389166e-003
1.486848e+003, 3.127692e-003
1.488776e+003, 3.026029e-003
1.490705e+003, 3.292788e-003
1.492633e+003, 3.400556e-003
1.494562e+003, 3.260619e-003
1.496490e+003, 3.211860e-003
1.498419e+003, 3.047612e-003
1.500347e+003, 3.029401e-003
1.502276e+003, 3.025312e-003
1.504204e+003, 2.826105e-003
1.506132e+003, 2.812970e-003
1.508061e+003, 2.952847e-003
1.509989e+003, 2.812564e-003
1.511918e+003, 2.688233e-003
1.513846e+003, 2.781032e-003
1.515775e+003, 2.902135e-003
1.517703e+003, 2.785044e-003
1.519632e+003, 2.720819e-003
1.521560e+003, 2.903940e-003
1.523489e+003, 2.915023e-003
1.525417e+003, 2.860805e-003
1.527346e+003, 2.781623e-003
1.529274e+003, 2.718829e-003
1.531203e+003, 2.641650e-003
1.533131e+003, 2.674435e-003
1.535059e+003, 2.803324e-003
1.536988e+003, 2.916232e-003
1.538916e+003, 2.950482e-003
1.540845e+003, 2.962913e-003
1.542773e+003, 2.933854e-003
1.544702e+003, 2.984382e-003
1.546630e+003, 3.267085e-003
1.548559e+003, 3.379916e-003
1.550487e+003, 3.226367e-003
1.552416e+003, 3.184008e-003
1.554344e+003, 3.619278e-003
1.556273e+003, 3.920409e-003
1.558201e+003, 3.927682e-003
1.560130e+003, 4.015785e-003
1.562058e+003, 4.055619e-003
1.563986e+003, 4.143260e-003
1.565915e+003, 4.331919e-003
1.567843e+003, 4.293471e-003
1.569772e+003, 4.217336e-003
1.571700e+003, 4.258541e-003
1.573629e+003, 4.133489e-003
1.575557e+003, 4.157900e-003
1.577486e+003, 4.393253e-003
1.579414e+003, 4.462714e-003
1.581343e+003, 4.514017e-003
1.583271e+003, 4.744251e-003
1.585200e+003, 4.950418e-003
1.587128e+003, 4.834858e-003
1.589057e+003, 4.876831e-003
1.590985e+003, 4.993975e-003
1.592913e+003, 5.073982e-003
1.594842e+003, 5.015389e-003
1.596770e+003, 4.863034e-003
1.598699e+003, 4.756772e-003
1.600627e+003, 4.585729e-003
1.602556e+003, 4.709205e-003
1.604484e+003, 4.970037e-003
1.606413e+003, 4.913936e-003
1.608341e+003, 4.746534e-003
1.610270e+003, 4.751969e-003
1.612198e+003, 4.945204e-003
1.614127e+003, 4.985706e-003
1.616055e+003, 4.885964e-003
1.617984e+003, 4.844585e-003
1.619912e+003, 4.557487e-003
1.621840e+003, 4.490525e-003
1.623769e+003, 4.668998e-003
1.625697e+003, 4.622977e-003
1.627626e+003, 4.727188e-003
1.629554e+003, 4.437675e-003
1.631483e+003, 4.294450e-003
1.633411e+003, 4.123843e-003
1.635340e+003, 3.856081e-003
1.637268e+003, 3.780005e-003
1.639197e+003, 3.918004e-003
1.641125e+003, 3.884216e-003
1.643054e+003, 3.877999e-003
1.644982e+003, 4.069548e-003
1.646911e+003, 4.082709e-003
1.648839e+003, 3.847725e-003
1.650767e+003, 3.833505e-003
1.652696e+003, 3.875314e-003
1.654624e+003, 3.941705e-003
1.656553e+003, 4.135914e-003
1.658481e+003, 4.272351e-003
1.660410e+003, 4.178789e-003
1.662338e+003, 4.285657e-003
1.664267e+003, 4.452497e-003
1.666195e+003, 4.401588e-003
1.668124e+003, 4.369375e-003
1.670052e+003, 4.743910e-003
1.671981e+003, 4.900852e-003
1.673909e+003, 4.654154e-003
1.675838e+003, 4.480335e-003
1.677766e+003, 4.463062e-003
1.679694e+003, 4.482253e-003
1.681623e+003, 4.441348e-003
1.683551e+003, 4.380210e-003
1.685480e+003, 4.517945e-003
1.687408e+003, 4.388364e-003
1.689337e+003, 4.551001e-003
1.691265e+003, 4.783625e-003
1.693194e+003, 4.971986e-003
1.695122e+003, 5.075742e-003
1.697051e+003, 5.259376e-003
1.698979e+003, 5.133873e-003
1.700908e+003, 5.121276e-003
1.702836e+003, 5.038740e-003
1.704765e+003, 5.308926e-003
1.706693e+003, 5.761759e-003
1.708621e+003, 5.889610e-003
1.710550e+003, 5.809777e-003
1.712478e+003, 5.600176e-003
1.714407e+003, 5.634857e-003
1.716335e+003, 5.744046e-003
1.718264e+003, 5.752644e-003
1.720192e+003, 5.659356e-003
1.722121e+003, 5.881950e-003
1.724049e+003, 6.250169e-003
1.725978e+003, 6.249331e-003
1.727906e+003, 5.935109e-003
1.729835e+003, 5.810310e-003
1.731763e+003, 5.638421e-003
1.733692e+003, 5.458159e-003
1.735620e+003, 5.376117e-003
1.737548e+003, 5.444206e-003
1.739477e+003, 5.302560e-003
1.741405e+003, 4.866133e-003
1.743334e+003, 4.752693e-003
1.745262e+003, 5.076656e-003
1.747191e+003, 5.243985e-003
1.749119e+003, 5.302391e-003
1.751048e+003, 5.319637e-003
1.752976e+003, 5.062722e-003
1.754905e+003, 5.037150e-003
1.756833e+003, 5.226752e-003
1.758762e+003, 5.128990e-003
1.760690e+003, 4.856813e-003
1.762619e+003, 4.627904e-003
1.764547e+003, 4.746637e-003
1.766475e+003, 4.756641e-003
1.768404e+003, 4.462675e-003
1.770332e+003, 4.265886e-003
1.772261e+003, 4.296755e-003
1.774189e+003, 4.482605e-003
1.776118e+003, 4.306529e-003
1.778046e+003, 4.251384e-003
1.779975e+003, 4.360269e-003
1.781903e+003, 4.555270e-003
1.783832e+003, 4.894282e-003
1.785760e+003, 4.981699e-003
1.787689e+003, 4.802570e-003
1.789617e+003, 4.502861e-003
1.791546e+003, 4.369841e-003
1.793474e+003, 4.225235e-003
1.795402e+003, 4.133124e-003
1.797331e+003, 4.337478e-003
1.799259e+003, 4.260688e-003
1.801188e+003, 4.300236e-003
1.803116e+003, 4.452383e-003
1.805045e+003, 4.420099e-003
1.806973e+003, 4.464470e-003
1.808902e+003, 4.304796e-003
1.810830e+003, 4.159106e-003
1.812759e+003, 4.172730e-003
1.814687e+003, 3.891089e-003
1.816616e+003, 3.979467e-003
1.818544e+003, 4.687823e-003
1.820473e+003, 4.258102e-003
1.822401e+003, 3.501519e-003
1.824329e+003, 3.729073e-003
1.826258e+003, 4.090051e-003
1.828186e+003, 4.296825e-003
1.830115e+003, 4.320307e-003
1.832043e+003, 4.202067e-003
1.833972e+003, 3.906475e-003
1.835900e+003, 3.944861e-003
1.837829e+003, 3.844620e-003
1.839757e+003, 4.000710e-003
1.841686e+003, 4.363630e-003
1.843614e+003, 3.972147e-003
1.845543e+003, 3.964735e-003
1.847471e+003, 3.970621e-003
1.849400e+003, 3.741469e-003
1.851328e+003, 3.655580e-003
1.853256e+003, 3.937284e-003
1.855185e+003, 4.099647e-003
1.857113e+003, 3.777553e-003
1.859042e+003, 3.443063e-003
1.860970e+003, 3.287378e-003
1.862899e+003, 3.475513e-003
1.864827e+003, 3.682055e-003
1.866756e+003, 3.485354e-003
1.868684e+003, 3.297187e-003
1.870613e+003, 3.654127e-003
1.872541e+003, 3.685680e-003
1.874470e+003, 3.314475e-003
1.876398e+003, 3.105836e-003
1.878327e+003, 3.160650e-003
1.880255e+003, 3.105269e-003
1.882183e+003, 2.937371e-003
1.884112e+003, 2.605481e-003
1.886040e+003, 2.571501e-003
1.887969e+003, 2.729375e-003
1.889897e+003, 2.586626e-003
1.891826e+003, 2.367571e-003
1.893754e+003, 2.966033e-003
1.895683e+003, 3.059228e-003
1.897611e+003, 2.255227e-003
1.899540e+003, 2.248352e-003
1.901468e+003, 2.824891e-003
1.903397e+003, 3.249581e-003
1.905325e+003, 2.787941e-003
1.907254e+003, 2.696947e-003
1.909182e+003, 3.162026e-003
1.911110e+003, 3.208477e-003
1.913039e+003, 3.084538e-003
1.914967e+003, 2.951055e-003
1.916896e+003, 2.953749e-003
1.918824e+003, 2.850975e-003
1.920753e+003, 2.453505e-003
1.922681e+003, 2.684187e-003
1.924610e+003, 2.721598e-003
1.926538e+003, 2.284432e-003
1.928467e+003, 1.922151e-003
1.930395e+003, 1.928654e-003
1.932324e+003, 1.670811e-003
1.934252e+003, 2.528724e-003
1.936181e+003, 3.030825e-003
1.938109e+003, 2.536182e-003
1.940037e+003, 2.040702e-003
1.941966e+003, 1.228518e-003
1.943894e+003, 1.565487e-003
1.945823e+003, 2.117048e-003
1.947751e+003, 2.055561e-003
1.949680e+003, 1.727938e-003
1.951608e+003, 1.182676e-003
1.953537e+003, 4.849472e-004
1.955465e+003, 1.721699e-005
1.957394e+003, -1.604330e-003
1.959322e+003, -2.322896e-003
1.961251e+003, -4.909203e-004
1.963179e+003, 7.168382e-004
1.965108e+003, 1.164671e-003
1.967036e+003, 1.964452e-003
1.968964e+003, 7.587377e-004
1.970893e+003, -1.169974e-003
1.972821e+003, -1.865948e-003
1.974750e+003, -1.973860e-003
1.976678e+003, -1.114891e-003
1.978607e+003, 3.028275e-003
1.980535e+003, 5.556128e-003
1.982464e+003, 4.886278e-003
1.984392e+003, 3.087349e-003
1.986321e+003, 1.884036e-003
1.988249e+003, 1.439115e-003
1.990178e+003, 1.724098e-003
1.992106e+003, 6.893341e-004
1.994035e+003, -1.177872e-003
1.995963e+003, -1.117007e-003
1.997891e+003, -3.641037e-004
1.999820e+003, 1.872817e-004
2.001748e+003, -1.127038e-003
2.003677e+003, -1.294820e-003
2.005605e+003, 5.698925e-004
2.007534e+003, -1.543920e-004
2.009462e+003, -1.767423e-003
2.011391e+003, -1.721776e-003
2.013319e+003, -9.070868e-004
2.015248e+003, 9.336459e-004
2.017176e+003, 6.661170e-004
2.019105e+003, -7.156630e-004
2.021033e+003, -4.352063e-004
2.022962e+003, 8.988035e-004
2.024890e+003, 9.101003e-004
2.026818e+003, 3.011369e-004
2.028747e+003, 4.084824e-004
2.030675e+003, 1.334748e-003
2.032604e+003, 2.337015e-003
2.034532e+003, 2.381810e-003
2.036461e+003, 2.219920e-003
2.038389e+003, 2.810312e-003
2.040318e+003, 3.192875e-003
2.042246e+003, 3.969429e-003
2.044175e+003, 4.778206e-003
2.046103e+003, 5.266109e-003
2.048032e+003, 5.086768e-003
2.049960e+003, 4.704062e-003
2.051889e+003, 5.188829e-003
2.053817e+003, 5.430337e-003
2.055746e+003, 4.482340e-003
2.057674e+003, 3.763536e-003
2.059603e+003, 4.720135e-003
2.061531e+003, 3.445366e-003
2.063459e+003, 2.001971e-003
2.065388e+003, 2.092399e-003
2.067316e+003, 2.832954e-003
2.069245e+003, 2.447046e-003
2.071173e+003, 2.169903e-003
2.073102e+003, 3.953313e-003
2.075030e+003, 5.028134e-003
2.076959e+003, 4.571895e-003
2.078887e+003, 4.248118e-003
2.080816e+003, 4.286901e-003
2.082744e+003, 4.212488e-003
2.084673e+003, 4.322137e-003
2.086601e+003, 4.301425e-003
2.088530e+003, 4.565222e-003
2.090458e+003, 4.930071e-003
2.092386e+003, 3.619175e-003
2.094315e+003, 2.591410e-003
2.096243e+003, 2.974131e-003
2.098172e+003, 3.669024e-003
2.100100e+003, 3.893434e-003
2.102029e+003, 3.992028e-003
2.103957e+003, 4.150094e-003
2.105886e+003, 3.848974e-003
2.107814e+003, 2.778019e-003
2.109743e+003, 3.632179e-003
2.111671e+003, 4.388809e-003
2.113600e+003, 4.457226e-003
2.115528e+003, 3.992728e-003
2.117457e+003, 3.314279e-003
2.119385e+003, 3.337528e-003
2.121313e+003, 3.368772e-003
2.123242e+003, 2.248282e-003
2.125170e+003, 1.863033e-003
2.127099e+003, 1.866574e-003
2.129027e+003, 1.037539e-003
2.130956e+003, -7.841275e-004
2.132884e+003, -1.451758e-003
2.134813e+003, -3.971566e-004
2.136741e+003, 2.396771e-004
2.138670e+003, 5.068972e-004
2.140598e+003, 8.720148e-004
2.142527e+003, 1.980358e-003
2.144455e+003, -1.760092e-004
2.146384e+003, -1.154426e-003
2.148312e+003, 3.939187e-004
2.150240e+003, -6.313358e-004
2.152169e+003, -2.843000e-003
2.154097e+003, -3.641900e-003
2.156026e+003, -4.127537e-003
2.157954e+003, -2.683030e-003
2.159883e+003, 2.627779e-003
2.161811e+003, 3.838260e-003
2.163740e+003, 4.587423e-003
2.165668e+003, 6.032460e-003
2.167597e+003, 4.431301e-003
2.169525e+003, 2.625006e-003
2.171454e+003, 2.896631e-003
2.173382e+003, 3.687897e-003
2.175311e+003, 3.713539e-003
2.177239e+003, 3.299575e-003
2.179167e+003, 2.483983e-003
2.181096e+003, 9.956500e-004
2.183024e+003, 1.626361e-003
2.184953e+003, 2.724616e-003
2.186881e+003, 3.551520e-003
2.188810e+003, 4.547371e-003
2.190738e+003, 5.612415e-003
2.192667e+003, 5.519672e-003
2.194595e+003, 4.976699e-003
2.196524e+003, 4.471072e-003
2.198452e+003, 3.399651e-003
2.200381e+003, 3.383618e-003
2.202309e+003, 5.683625e-003
2.204238e+003, 6.181762e-003
2.206166e+003, 5.155695e-003
2.208094e+003, 5.410109e-003
2.210023e+003, 4.015521e-003
2.211951e+003, 2.957077e-003
2.213880e+003, 4.333588e-003
2.215808e+003, 5.786045e-003
2.217737e+003, 5.798205e-003
2.219665e+003, 7.244771e-003
2.221594e+003, 7.985667e-003
2.223522e+003, 7.064371e-003
2.225451e+003, 6.686060e-003
2.227379e+003, 6.196321e-003
2.229308e+003, 6.127655e-003
2.231236e+003, 6.976079e-003
2.233165e+003, 8.324091e-003
2.235093e+003, 7.786053e-003
2.237021e+003, 6.124832e-003
2.238950e+003, 6.352040e-003
2.240878e+003, 7.683970e-003
2.242807e+003, 7.147733e-003
2.244735e+003, 7.203609e-003
2.246664e+003, 7.712421e-003
2.248592e+003, 7.873254e-003
2.250521e+003, 7.658928e-003
2.252449e+003, 7.731610e-003
2.254378e+003, 7.612290e-003
2.256306e+003, 7.989115e-003
2.258235e+003, 8.261278e-003
2.260163e+003, 7.445417e-003
2.262092e+003, 7.277583e-003
2.264020e+003, 7.785778e-003
2.265948e+003, 8.376325e-003
2.267877e+003, 9.485098e-003
2.269805e+003, 9.501411e-003
2.271734e+003, 9.030401e-003
2.273662e+003, 8.930109e-003
2.275591e+003, 9.567618e-003
2.277519e+003, 1.008996e-002
2.279448e+003, 9.652834e-003
2.281376e+003, 9.580871e-003
2.283305e+003, 1.063659e-002
2.285233e+003, 1.119180e-002
2.287162e+003, 1.100430e-002
2.289090e+003, 1.022910e-002
2.291019e+003, 9.976006e-003
2.292947e+003, 1.033408e-002
2.294875e+003, 1.043139e-002
2.296804e+003, 1.068199e-002
2.298732e+003, 1.064994e-002
2.300661e+003, 1.029117e-002
2.302589e+003, 1.022228e-002
2.304518e+003, 1.015223e-002
2.306446e+003, 1.035330e-002
2.308375e+003, 1.096395e-002
2.310303e+003, 1.106668e-002
2.312232e+003, 1.162765e-002
2.314160e+003, 1.190231e-002
2.316089e+003, 1.140608e-002
2.318017e+003, 1.149465e-002
2.319946e+003, 1.123806e-002
2.321874e+003, 1.155278e-002
2.323802e+003, 1.197813e-002
2.325731e+003, 1.101843e-002
2.327659e+003, 1.020268e-002
2.329588e+003, 1.013147e-002
2.331516e+003, 1.004477e-002
2.333445e+003, 9.770214e-003
2.335373e+003, 1.006111e-002
2.337302e+003, 1.069108e-002
2.339230e+003, 1.075338e-002
2.341159e+003, 1.008476e-002
2.343087e+003, 9.732364e-003
2.345016e+003, 9.690399e-003
2.346944e+003, 9.414330e-003
2.348873e+003, 9.460284e-003
2.350801e+003, 9.788907e-003
2.352729e+003, 9.710225e-003
2.354658e+003, 9.638438e-003
2.356586e+003, 1.011544e-002
2.358515e+003, 1.046526e-002
2.360443e+003, 1.045758e-002
2.362372e+003, 1.005842e-002
2.364300e+003, 9.439591e-003
2.366229e+003, 8.952460e-003
2.368157e+003, 8.822315e-003
2.370086e+003, 8.718270e-003
2.372014e+003, 8.794655e-003
2.373942e+003, 9.308972e-003
2.375871e+003, 9.676313e-003
2.377799e+003, 9.916366e-003
2.379728e+003, 9.594556e-003
2.381656e+003, 1.001389e-002
2.383585e+003, 1.045677e-002
2.385513e+003, 9.689654e-003
2.387442e+003, 9.382393e-003
2.389370e+003, 9.525030e-003
2.391299e+003, 1.004970e-002
2.393227e+003, 9.914021e-003
2.395156e+003, 9.494668e-003
2.397084e+003, 9.898368e-003
2.399012e+003, 1.084499e-002
2.400941e+003, 1.059089e-002
2.402869e+003, 9.876218e-003
2.404798e+003, 1.002579e-002
2.406726e+003, 1.046469e-002
2.408655e+003, 1.055118e-002
2.410583e+003, 1.060634e-002
2.412512e+003, 1.060307e-002
2.414440e+003, 1.084659e-002
2.416369e+003, 1.103051e-002
2.418297e+003, 1.045905e-002
2.420226e+003, 1.013000e-002
2.422154e+003, 1.028483e-002
2.424083e+003, 1.035275e-002
2.426011e+003, 1.036773e-002
2.427939e+003, 1.070677e-002
2.429868e+003, 1.065792e-002
2.431796e+003, 1.017677e-002
2.433725e+003, 1.048417e-002
2.435653e+003, 1.093936e-002
2.437582e+003, 1.126246e-002
2.439510e+003, 1.105763e-002
2.441439e+003, 1.067615e-002
2.443367e+003, 1.043231e-002
2.445296e+003, 1.055925e-002
2.447224e+003, 1.066803e-002
2.449153e+003, 1.054104e-002
2.451081e+003, 1.014654e-002
2.453010e+003, 1.060039e-002
2.454938e+003, 1.119784e-002
2.456866e+003, 1.094109e-002
2.458795e+003, 1.060393e-002
2.460723e+003, 1.075615e-002
2.462652e+003, 1.109424e-002
2.464580e+003, 1.042155e-002
2.466509e+003, 1.020723e-002
2.468437e+003, 1.056539e-002
2.470366e+003, 1.066212e-002
2.472294e+003, 1.052099e-002
2.474223e+003, 1.005198e-002
2.476151e+003, 1.066155e-002
2.478080e+003, 1.096564e-002
2.480008e+003, 1.105645e-002
2.481937e+003, 1.082567e-002
2.483865e+003, 1.026893e-002
2.485793e+003, 1.093189e-002
2.487722e+003, 1.144665e-002
2.489650e+003, 1.106617e-002
2.491579e+003, 1.126650e-002
2.493507e+003, 1.044749e-002
2.495436e+003, 9.637928e-003
2.497364e+003, 9.935417e-003
2.499293e+003, 1.006983e-002
2.501221e+003, 9.496829e-003
2.503150e+003, 9.282351e-003
2.505078e+003, 9.855988e-003
2.507007e+003, 1.006284e-002
2.508935e+003, 1.010791e-002
2.510864e+003, 1.029938e-002
2.512792e+003, 1.048936e-002
2.514720e+003, 1.083848e-002
2.516649e+003, 1.135434e-002
2.518577e+003, 1.139747e-002
2.520506e+003, 1.127777e-002
2.522434e+003, 1.117788e-002
2.524363e+003, 1.121873e-002
2.526291e+003, 1.065240e-002
2.528220e+003, 1.071919e-002
2.530148e+003, 1.099853e-002
2.532077e+003, 1.105086e-002
2.534005e+003, 1.134003e-002
2.535934e+003, 1.088885e-002
2.537862e+003, 1.051808e-002
2.539791e+003, 1.043081e-002
2.541719e+003, 1.106660e-002
2.543647e+003, 1.140046e-002
2.545576e+003, 1.169693e-002
2.547504e+003, 1.188280e-002
2.549433e+003, 1.161079e-002
2.551361e+003, 1.130560e-002
2.553290e+003, 1.073651e-002
2.555218e+003, 1.063548e-002
2.557147e+003, 1.122163e-002
2.559075e+003, 1.150200e-002
2.561004e+003, 1.153085e-002
2.562932e+003, 1.144273e-002
2.564861e+003, 1.077167e-002
2.566789e+003, 1.113496e-002
2.568718e+003, 1.190913e-002
2.570646e+003, 1.168143e-002
2.572574e+003, 1.158575e-002
2.574503e+003, 1.194781e-002
2.576431e+003, 1.183658e-002
2.578360e+003, 1.142963e-002
2.580288e+003, 1.155159e-002
2.582217e+003, 1.150675e-002
2.584145e+003, 1.158606e-002
2.586074e+003, 1.238624e-002
2.588002e+003, 1.251588e-002
2.589931e+003, 1.235783e-002
2.591859e+003, 1.211322e-002
2.593788e+003, 1.191972e-002
2.595716e+003, 1.192710e-002
2.597645e+003, 1.295969e-002
2.599573e+003, 1.349723e-002
2.601501e+003, 1.296996e-002
2.603430e+003, 1.269333e-002
2.605358e+003, 1.262216e-002
2.607287e+003, 1.264435e-002
2.609215e+003, 1.309654e-002
2.611144e+003, 1.287927e-002
2.613072e+003, 1.227348e-002
2.615001e+003, 1.238410e-002
2.616929e+003, 1.287904e-002
2.618858e+003, 1.357958e-002
2.620786e+003, 1.397000e-002
2.622715e+003, 1.317575e-002
2.624643e+003, 1.310370e-002
2.626572e+003, 1.314140e-002
2.628500e+003, 1.230588e-002
2.630428e+003, 1.218119e-002
2.632357e+003, 1.275801e-002
2.634285e+003, 1.343963e-002
2.636214e+003, 1.341211e-002
2.638142e+003, 1.356122e-002
2.640071e+003, 1.436720e-002
2.641999e+003, 1.447027e-002
2.643928e+003, 1.365481e-002
2.645856e+003, 1.303489e-002
2.647785e+003, 1.315189e-002
2.649713e+003, 1.323050e-002
2.651642e+003, 1.353929e-002
2.653570e+003, 1.361485e-002
2.655499e+003, 1.317917e-002
2.657427e+003, 1.303591e-002
2.659355e+003, 1.306204e-002
2.661284e+003, 1.274264e-002
2.663212e+003, 1.257882e-002
2.665141e+003, 1.274112e-002
2.667069e+003, 1.272880e-002
2.668998e+003, 1.225535e-002
2.670926e+003, 1.184515e-002
2.672855e+003, 1.189468e-002
2.674783e+003, 1.198395e-002
2.676712e+003, 1.228178e-002
2.678640e+003, 1.250543e-002
2.680569e+003, 1.265863e-002
2.682497e+003, 1.239873e-002
2.684426e+003, 1.206064e-002
2.686354e+003, 1.240068e-002
2.688282e+003, 1.266898e-002
2.690211e+003, 1.266244e-002
2.692139e+003, 1.257567e-002
2.694068e+003, 1.207284e-002
2.695996e+003, 1.224507e-002
2.697925e+003, 1.257138e-002
2.699853e+003, 1.257657e-002
2.701782e+003, 1.293853e-002
2.703710e+003, 1.289983e-002
2.705639e+003, 1.236794e-002
2.707567e+003, 1.269264e-002
2.709496e+003, 1.304018e-002
2.711424e+003, 1.290841e-002
2.713353e+003, 1.235573e-002
2.715281e+003, 1.233832e-002
2.717209e+003, 1.268628e-002
2.719138e+003, 1.266643e-002
2.721066e+003, 1.242349e-002
2.722995e+003, 1.265632e-002
2.724923e+003, 1.327481e-002
2.726852e+003, 1.362508e-002
2.728780e+003, 1.305145e-002
2.730709e+003, 1.265850e-002
2.732637e+003, 1.257307e-002
2.734566e+003, 1.277808e-002
2.736494e+003, 1.300166e-002
2.738423e+003, 1.278060e-002
2.740351e+003, 1.277347e-002
2.742280e+003, 1.236513e-002
2.744208e+003, 1.246291e-002
2.746136e+003, 1.315604e-002
2.748065e+003, 1.276764e-002
2.749993e+003, 1.195672e-002
2.751922e+003, 1.211004e-002
2.753850e+003, 1.267473e-002
2.755779e+003, 1.273151e-002
2.757707e+003, 1.313532e-002
2.759636e+003, 1.367031e-002
2.761564e+003, 1.352427e-002
2.763493e+003, 1.329390e-002
2.765421e+003, 1.323229e-002
2.767350e+003, 1.368707e-002
2.769278e+003, 1.391984e-002
2.771207e+003, 1.345888e-002
2.773135e+003, 1.298703e-002
2.775063e+003, 1.272255e-002
2.776992e+003, 1.286359e-002
2.778920e+003, 1.321163e-002
2.780849e+003, 1.369273e-002
2.782777e+003, 1.356808e-002
2.784706e+003, 1.369664e-002
2.786634e+003, 1.349701e-002
2.788563e+003, 1.325868e-002
2.790491e+003, 1.325026e-002
2.792420e+003, 1.297778e-002
2.794348e+003, 1.281738e-002
2.796277e+003, 1.336791e-002
2.798205e+003, 1.363865e-002
2.800134e+003, 1.354134e-002
2.802062e+003, 1.332089e-002
2.803990e+003, 1.293105e-002
2.805919e+003, 1.311531e-002
2.807847e+003, 1.316536e-002
2.809776e+003, 1.361080e-002
2.811704e+003, 1.379117e-002
2.813633e+003, 1.358094e-002
2.815561e+003, 1.336987e-002
2.817490e+003, 1.327195e-002
2.819418e+003, 1.341517e-002
2.821347e+003, 1.359707e-002
2.823275e+003, 1.397026e-002
2.825204e+003, 1.395050e-002
2.827132e+003, 1.339889e-002
2.829061e+003, 1.316638e-002
2.830989e+003, 1.377870e-002
2.832917e+003, 1.421751e-002
2.834846e+003, 1.373344e-002
2.836774e+003, 1.323046e-002
2.838703e+003, 1.365195e-002
2.840631e+003, 1.438373e-002
2.842560e+003, 1.465487e-002
2.844488e+003, 1.449480e-002
2.846417e+003, 1.388885e-002
2.848345e+003, 1.390680e-002
2.850274e+003, 1.400200e-002
2.852202e+003, 1.315209e-002
2.854131e+003, 1.234321e-002
2.856059e+003, 1.280236e-002
2.857988e+003, 1.325270e-002
2.859916e+003, 1.311603e-002
2.861844e+003, 1.316191e-002
2.863773e+003, 1.340311e-002
2.865701e+003, 1.343056e-002
2.867630e+003, 1.329211e-002
2.869558e+003, 1.365821e-002
2.871487e+003, 1.331439e-002
2.873415e+003, 1.281434e-002
2.875344e+003, 1.301819e-002
2.877272e+003, 1.394565e-002
2.879201e+003, 1.493496e-002
2.881129e+003, 1.449039e-002
2.883058e+003, 1.432548e-002
2.884986e+003, 1.464418e-002
2.886915e+003, 1.436007e-002
2.888843e+003, 1.377967e-002
2.890771e+003, 1.384579e-002
2.892700e+003, 1.418290e-002
2.894628e+003, 1.419125e-002
2.896557e+003, 1.384979e-002
2.898485e+003, 1.328573e-002
2.900414e+003, 1.322319e-002
2.902342e+003, 1.406405e-002
2.904271e+003, 1.416310e-002
2.906199e+003, 1.388670e-002
2.908128e+003, 1.353822e-002
2.910056e+003, 1.362165e-002
2.911985e+003, 1.441845e-002
2.913913e+003, 1.448629e-002
2.915842e+003, 1.373474e-002
2.917770e+003, 1.333145e-002
2.919698e+003, 1.413577e-002
2.921627e+003, 1.417382e-002
2.923555e+003, 1.352178e-002
2.925484e+003, 1.398371e-002
2.927412e+003, 1.419273e-002
2.929341e+003, 1.403945e-002
2.931269e+003, 1.379132e-002
2.933198e+003, 1.317503e-002
2.935126e+003, 1.257537e-002
2.937055e+003, 1.275615e-002
2.938983e+003, 1.337179e-002
2.940912e+003, 1.406067e-002
2.942840e+003, 1.452162e-002
2.944769e+003, 1.459052e-002
2.946697e+003, 1.405466e-002
2.948625e+003, 1.363742e-002
2.950554e+003, 1.330798e-002
2.952482e+003, 1.302946e-002
2.954411e+003, 1.310650e-002
2.956339e+003, 1.358635e-002
2.958268e+003, 1.368815e-002
2.960196e+003, 1.312556e-002
2.962125e+003, 1.312067e-002
2.964053e+003, 1.367637e-002
2.965982e+003, 1.428512e-002
2.967910e+003, 1.429298e-002
2.969839e+003, 1.411262e-002
2.971767e+003, 1.433412e-002
2.973696e+003, 1.479079e-002
2.975624e+003, 1.445919e-002
2.977552e+003, 1.409266e-002
2.979481e+003, 1.454227e-002
2.981409e+003, 1.552108e-002
2.983338e+003, 1.588299e-002
2.985266e+003, 1.511745e-002
2.987195e+003, 1.431323e-002
2.989123e+003, 1.472933e-002
2.991052e+003, 1.503524e-002
2.992980e+003, 1.514208e-002
2.994909e+003, 1.521505e-002
2.996837e+003, 1.469227e-002
2.998766e+003, 1.447108e-002
3.000694e+003, 1.516510e-002
3.002623e+003, 1.562969e-002
3.004551e+003, 1.510788e-002
3.006479e+003, 1.452205e-002
3.008408e+003, 1.474980e-002
3.010336e+003, 1.500038e-002
3.012265e+003, 1.473865e-002
3.014193e+003, 1.454110e-002
3.016122e+003, 1.489852e-002
3.018050e+003, 1.546370e-002
3.019979e+003, 1.572205e-002
3.021907e+003, 1.537262e-002
3.023836e+003, 1.502248e-002
3.025764e+003, 1.448456e-002
3.027693e+003, 1.456559e-002
3.029621e+003, 1.494240e-002
3.031550e+003, 1.578010e-002
3.033478e+003, 1.532658e-002
3.035406e+003, 1.465219e-002
3.037335e+003, 1.464579e-002
3.039263e+003, 1.487132e-002
3.041192e+003, 1.536967e-002
3.043120e+003, 1.516005e-002
3.045049e+003, 1.493372e-002
3.046977e+003, 1.530187e-002
3.048906e+003, 1.558866e-002
3.050834e+003, 1.554098e-002
3.052763e+003, 1.548544e-002
3.054691e+003, 1.623347e-002
3.056620e+003, 1.647994e-002
3.058548e+003, 1.624036e-002
3.060477e+003, 1.626488e-002
3.062405e+003, 1.628037e-002
3.064333e+003, 1.602891e-002
3.066262e+003, 1.628322e-002
3.068190e+003, 1.674635e-002
3.070119e+003, 1.681728e-002
3.072047e+003, 1.583108e-002
3.073976e+003, 1.550050e-002
3.075904e+003, 1.577073e-002
3.077833e+003, 1.578645e-002
3.079761e+003, 1.594215e-002
3.081690e+003, 1.581529e-002
3.083618e+003, 1.562074e-002
3.085547e+003, 1.640438e-002
3.087475e+003, 1.729435e-002
3.089404e+003, 1.723000e-002
3.091332e+003, 1.694464e-002
3.093260e+003, 1.699526e-002
3.095189e+003, 1.647951e-002
3.097117e+003, 1.622435e-002
3.099046e+003, 1.699872e-002
3.100974e+003, 1.754249e-002
3.102903e+003, 1.662223e-002
3.104831e+003, 1.582254e-002
3.106760e+003, 1.630966e-002
3.108688e+003, 1.651329e-002
3.110617e+003, 1.648910e-002
3.112545e+003, 1.666095e-002
3.114474e+003, 1.736514e-002
3.116402e+003, 1.731259e-002
3.118331e+003, 1.666784e-002
3.120259e+003, 1.688728e-002
3.122188e+003, 1.674149e-002
3.124116e+003, 1.744882e-002
3.126044e+003, 1.757563e-002
3.127973e+003, 1.762809e-002
3.129901e+003, 1.779480e-002
3.131830e+003, 1.770163e-002
3.133758e+003, 1.731585e-002
3.135687e+003, 1.688151e-002
3.137615e+003, 1.762665e-002
3.139544e+003, 1.855049e-002
3.141472e+003, 1.828249e-002
3.143401e+003, 1.820013e-002
3.145329e+003, 1.829167e-002
3.147258e+003, 1.835328e-002
3.149186e+003, 1.745746e-002
3.151115e+003, 1.712442e-002
3.153043e+003, 1.761103e-002
3.154971e+003, 1.757226e-002
3.156900e+003, 1.793283e-002
3.158828e+003, 1.806409e-002
3.160757e+003, 1.820151e-002
3.162685e+003, 1.805775e-002
3.164614e+003, 1.779946e-002
3.166542e+003, 1.785827e-002
3.168471e+003, 1.770663e-002
3.170399e+003, 1.787226e-002
3.172328e+003, 1.751434e-002
3.174256e+003, 1.735343e-002
3.176185e+003, 1.772394e-002
3.178113e+003, 1.782266e-002
3.180042e+003, 1.836627e-002
3.181970e+003, 1.859727e-002
3.183898e+003, 1.802592e-002
3.185827e+003, 1.742892e-002
3.187755e+003, 1.807654e-002
3.189684e+003, 1.934532e-002
3.191612e+003, 1.951357e-002
3.193541e+003, 1.964524e-002
3.195469e+003, 1.940073e-002
3.197398e+003, 1.844496e-002
3.199326e+003, 1.799174e-002
3.201255e+003, 1.874284e-002
3.203183e+003, 1.923456e-002
3.205112e+003, 2.016751e-002
3.207040e+003, 1.993933e-002
3.208969e+003, 1.897863e-002
3.210897e+003, 1.896391e-002
3.212825e+003, 1.999232e-002
3.214754e+003, 2.043755e-002
3.216682e+003, 1.962569e-002
3.218611e+003, 1.983093e-002
3.220539e+003, 2.055187e-002
3.222468e+003, 2.053746e-002
3.224396e+003, 1.933845e-002
3.226325e+003, 1.917315e-002
3.228253e+003, 2.004735e-002
3.230182e+003, 2.075240e-002
3.232110e+003, 1.995214e-002
3.234039e+003, 1.998333e-002
3.235967e+003, 2.146938e-002
3.237896e+003, 2.291363e-002
3.239824e+003, 2.187923e-002
3.241752e+003, 2.123976e-002
3.243681e+003, 2.178114e-002
3.245609e+003, 2.111005e-002
3.247538e+003, 1.981592e-002
3.249466e+003, 2.024876e-002
3.251395e+003, 2.170542e-002
3.253323e+003, 2.146894e-002
3.255252e+003, 2.125810e-002
3.257180e+003, 2.164571e-002
3.259109e+003, 2.147404e-002
3.261037e+003, 2.121702e-002
3.262966e+003, 2.207841e-002
3.264894e+003, 2.230535e-002
3.266823e+003, 2.126779e-002
3.268751e+003, 2.179174e-002
3.270679e+003, 2.357480e-002
3.272608e+003, 2.360366e-002
3.274536e+003, 2.299899e-002
3.276465e+003, 2.195748e-002
3.278393e+003, 2.219532e-002
3.280322e+003, 2.293605e-002
3.282250e+003, 2.251075e-002
3.284179e+003, 2.239695e-002
3.286107e+003, 2.304824e-002
3.288036e+003, 2.356156e-002
3.289964e+003, 2.357080e-002
3.291893e+003, 2.351225e-002
3.293821e+003, 2.344479e-002
3.295750e+003, 2.369734e-002
3.297678e+003, 2.367230e-002
3.299606e+003, 2.375170e-002
3.301535e+003, 2.411479e-002
3.303463e+003, 2.408787e-002
3.305392e+003, 2.339060e-002
3.307320e+003, 2.485698e-002
3.309249e+003, 2.585888e-002
3.311177e+003, 2.498499e-002
3.313106e+003, 2.472552e-002
3.315034e+003, 2.508333e-002
3.316963e+003, 2.549116e-002
3.318891e+003, 2.613591e-002
3.320820e+003, 2.690139e-002
3.322748e+003, 2.693101e-002
3.324677e+003, 2.657485e-002
3.326605e+003, 2.642032e-002
3.328533e+003, 2.686470e-002
3.330462e+003, 2.716032e-002
3.332390e+003, 2.674168e-002
3.334319e+003, 2.722780e-002
3.336247e+003, 2.803269e-002
3.338176e+003, 2.958845e-002
3.340104e+003, 3.069016e-002
3.342033e+003, 3.065941e-002
3.343961e+003, 3.162963e-002
3.345890e+003, 3.375544e-002
3.347818e+003, 3.493452e-002
3.349747e+003, 3.572256e-002
3.351675e+003, 3.691042e-002
3.353604e+003, 3.794152e-002
3.355532e+003, 3.879967e-002
3.357460e+003, 4.033953e-002
3.359389e+003, 4.225868e-002
3.361317e+003, 4.346458e-002
3.363246e+003, 4.625475e-002
3.365174e+003, 4.992940e-002
3.367103e+003, 5.165635e-002
3.369031e+003, 5.307652e-002
3.370960e+003, 5.551333e-002
3.372888e+003, 5.659112e-002
3.374817e+003, 5.907100e-002
3.376745e+003, 6.122717e-002
3.378674e+003, 6.074554e-002
3.380602e+003, 5.902443e-002
3.382531e+003, 5.665128e-002
3.384459e+003, 5.430149e-002
3.386387e+003, 5.090237e-002
3.388316e+003, 4.703196e-002
3.390244e+003, 4.290279e-002
3.392173e+003, 3.972261e-002
3.394101e+003, 3.701980e-002
3.396030e+003, 3.398743e-002
3.397958e+003, 3.067736e-002
3.399887e+003, 2.986371e-002
3.401815e+003, 2.851704e-002
3.403744e+003, 2.705885e-002
3.405672e+003, 2.613436e-002
3.407601e+003, 2.439657e-002
3.409529e+003, 2.341496e-002
3.411458e+003, 2.330656e-002
3.413386e+003, 2.287398e-002
3.415314e+003, 2.256358e-002
3.417243e+003, 2.192952e-002
3.419171e+003, 2.143850e-002
3.421100e+003, 2.059558e-002
3.423028e+003, 1.956082e-002
3.424957e+003, 1.938331e-002
3.426885e+003, 1.914775e-002
3.428814e+003, 1.958448e-002
3.430742e+003, 1.929859e-002
3.432671e+003, 1.868992e-002
3.434599e+003, 1.861657e-002
3.436528e+003, 1.968138e-002
3.438456e+003, 2.124992e-002
3.440385e+003, 2.011292e-002
3.442313e+003, 1.922799e-002
3.444241e+003, 1.997140e-002
3.446170e+003, 2.041683e-002
3.448098e+003, 2.049281e-002
3.450027e+003, 2.057543e-002
3.451955e+003, 2.109442e-002
3.453884e+003, 2.067475e-002
3.455812e+003, 1.890959e-002
3.457741e+003, 1.762138e-002
3.459669e+003, 1.753383e-002
3.461598e+003, 1.911572e-002
3.463526e+003, 2.063772e-002
3.465455e+003, 2.116090e-002
3.467383e+003, 2.025383e-002
3.469312e+003, 1.972527e-002
3.471240e+003, 1.996360e-002
3.473168e+003, 1.850305e-002
3.475097e+003, 1.695495e-002
3.477025e+003, 1.705592e-002
3.478954e+003, 1.792783e-002
3.480882e+003, 1.896097e-002
3.482811e+003, 1.890337e-002
3.484739e+003, 1.783796e-002
3.486668e+003, 1.803610e-002
3.488596e+003, 1.801315e-002
3.490525e+003, 1.741876e-002
3.492453e+003, 1.662753e-002
3.494382e+003, 1.730338e-002
3.496310e+003, 1.866803e-002
3.498239e+003, 1.810846e-002
3.500167e+003, 1.850913e-002
3.502095e+003, 1.932199e-002
3.504024e+003, 1.814821e-002
3.505952e+003, 1.774455e-002
3.507881e+003, 1.880399e-002
3.509809e+003, 1.953600e-002
3.511738e+003, 1.859902e-002
3.513666e+003, 1.799607e-002
3.515595e+003, 1.840750e-002
3.517523e+003, 1.962418e-002
3.519452e+003, 2.006955e-002
3.521380e+003, 1.837163e-002
3.523309e+003, 1.712168e-002
3.525237e+003, 1.804236e-002
3.527166e+003, 1.801585e-002
3.529094e+003, 1.682911e-002
3.531022e+003, 1.531678e-002
3.532951e+003, 1.568541e-002
3.534879e+003, 1.737070e-002
3.536808e+003, 1.871433e-002
3.538736e+003, 1.874446e-002
3.540665e+003, 1.861611e-002
3.542593e+003, 1.810553e-002
3.544522e+003, 1.737313e-002
3.546450e+003, 1.696342e-002
3.548379e+003, 1.833146e-002
3.550307e+003, 1.912079e-002
3.552236e+003, 1.783919e-002
3.554164e+003, 1.561783e-002
3.556093e+003, 1.485513e-002
3.558021e+003, 1.620890e-002
3.559949e+003, 1.661102e-002
3.561878e+003, 1.606781e-002
3.563806e+003, 1.630623e-002
3.565735e+003, 1.648262e-002
3.567663e+003, 1.633121e-002
3.569592e+003, 1.633393e-002
3.571520e+003, 1.665518e-002
3.573449e+003, 1.632502e-002
3.575377e+003, 1.557289e-002
3.577306e+003, 1.704510e-002
3.579234e+003, 1.770997e-002
3.581163e+003, 1.575246e-002
3.583091e+003, 1.442261e-002
3.585020e+003, 1.513219e-002
3.586948e+003, 1.669758e-002
3.588876e+003, 1.661856e-002
3.590805e+003, 1.699057e-002
3.592733e+003, 1.743407e-002
3.594662e+003, 1.625624e-002
3.596590e+003, 1.573084e-002
3.598519e+003, 1.624065e-002
3.600447e+003, 1.722628e-002
3.602376e+003, 1.778266e-002
3.604304e+003, 1.673303e-002
3.606233e+003, 1.588957e-002
3.608161e+003, 1.628682e-002
3.610090e+003, 1.725445e-002
3.612018e+003, 1.499216e-002
3.613947e+003, 1.240758e-002
3.615875e+003, 1.207654e-002
3.617803e+003, 1.325374e-002
3.619732e+003, 1.460007e-002
3.621660e+003, 1.553451e-002
3.623589e+003, 1.504992e-002
3.625517e+003, 1.420168e-002
3.627446e+003, 1.463057e-002
3.629374e+003, 1.521771e-002
3.631303e+003, 1.604534e-002
3.633231e+003, 1.542326e-002
3.635160e+003, 1.489356e-002
3.637088e+003, 1.513809e-002
3.639017e+003, 1.398434e-002
3.640945e+003, 1.345239e-002
3.642874e+003, 1.524252e-002
3.644802e+003, 1.613465e-002
3.646730e+003, 1.479974e-002
3.648659e+003, 1.403928e-002
3.650587e+003, 1.429426e-002
3.652516e+003, 1.429296e-002
3.654444e+003, 1.541660e-002
3.656373e+003, 1.532232e-002
3.658301e+003, 1.405551e-002
3.660230e+003, 1.396945e-002
3.662158e+003, 1.335587e-002
3.664087e+003, 1.255480e-002
3.666015e+003, 1.390060e-002
3.667944e+003, 1.493384e-002
3.669872e+003, 1.558513e-002
3.671801e+003, 1.401085e-002
3.673729e+003, 1.457990e-002
3.675657e+003, 1.587140e-002
3.677586e+003, 1.480349e-002
3.679514e+003, 1.362036e-002
3.681443e+003, 1.448315e-002
3.683371e+003, 1.461084e-002
3.685300e+003, 1.498600e-002
3.687228e+003, 1.432228e-002
3.689157e+003, 1.296641e-002
3.691085e+003, 1.188649e-002
3.693014e+003, 1.323951e-002
3.694942e+003, 1.401767e-002
3.696871e+003, 1.396032e-002
3.698799e+003, 1.404333e-002
3.700728e+003, 1.410093e-002
3.702656e+003, 1.431907e-002
3.704584e+003, 1.629208e-002
3.706513e+003, 1.669421e-002
3.708441e+003, 1.479536e-002
3.710370e+003, 1.473699e-002
3.712298e+003, 1.562602e-002
3.714227e+003, 1.454859e-002
3.716155e+003, 1.471476e-002
3.718084e+003, 1.565931e-002
3.720012e+003, 1.567547e-002
3.721941e+003, 1.423826e-002
3.723869e+003, 1.511027e-002
3.725798e+003, 1.564242e-002
3.727726e+003, 1.522617e-002
3.729655e+003, 1.442679e-002
3.731583e+003, 1.472345e-002
3.733511e+003, 1.577726e-002
3.735440e+003, 1.566846e-002
3.737368e+003, 1.529446e-002
3.739297e+003, 1.533440e-002
3.741225e+003, 1.567330e-002
3.743154e+003, 1.476089e-002
3.745082e+003, 1.455936e-002
3.747011e+003, 1.517735e-002
3.748939e+003, 1.567256e-002
3.750868e+003, 1.601535e-002
3.752796e+003, 1.678632e-002
3.754725e+003, 1.736035e-002
3.756653e+003, 1.744996e-002
3.758582e+003, 1.590397e-002
3.760510e+003, 1.460848e-002
3.762438e+003, 1.499207e-002
3.764367e+003, 1.570707e-002
3.766295e+003, 1.554896e-002
3.768224e+003, 1.531000e-002
3.770152e+003, 1.605177e-002
3.772081e+003, 1.568380e-002
3.774009e+003, 1.461033e-002
3.775938e+003, 1.423707e-002
3.777866e+003, 1.528621e-002
3.779795e+003, 1.772787e-002
3.781723e+003, 1.866202e-002
3.783652e+003, 1.662420e-002
3.785580e+003, 1.520370e-002
3.787509e+003, 1.475313e-002
3.789437e+003, 1.580017e-002
3.791365e+003, 1.775411e-002
3.793294e+003, 1.616506e-002
3.795222e+003, 1.569693e-002
3.797151e+003, 1.682712e-002
3.799079e+003, 1.710408e-002
3.801008e+003, 1.689218e-002
3.802936e+003, 1.799303e-002
3.804865e+003, 1.808878e-002
3.806793e+003, 1.590155e-002
3.808722e+003, 1.453739e-002
3.810650e+003, 1.593452e-002
3.812579e+003, 1.671466e-002
3.814507e+003, 1.621002e-002
3.816436e+003, 1.672654e-002
3.818364e+003, 1.789492e-002
3.820292e+003, 1.747492e-002
3.822221e+003, 1.568160e-002
3.824149e+003, 1.691847e-002
3.826078e+003, 1.695910e-002
3.828006e+003, 1.672145e-002
3.829935e+003, 1.686407e-002
3.831863e+003, 1.562931e-002
3.833792e+003, 1.688950e-002
3.835720e+003, 1.761298e-002
3.837649e+003, 1.744867e-002
3.839577e+003, 1.629185e-002
3.841506e+003, 1.522789e-002
3.843434e+003, 1.484810e-002
3.845363e+003, 1.526254e-002
3.847291e+003, 1.578965e-002
3.849219e+003, 1.645518e-002
3.851148e+003, 1.703438e-002
3.853076e+003, 1.609128e-002
3.855005e+003, 1.613111e-002
3.856933e+003, 1.531812e-002
3.858862e+003, 1.464926e-002
3.860790e+003, 1.478325e-002
3.862719e+003, 1.450657e-002
3.864647e+003, 1.404173e-002
3.866576e+003, 1.386680e-002
3.868504e+003, 1.499533e-002
3.870433e+003, 1.609742e-002
3.872361e+003, 1.549032e-002
3.874290e+003, 1.592163e-002
3.876218e+003, 1.687693e-002
3.878146e+003, 1.744861e-002
3.880075e+003, 1.710640e-002
3.882003e+003, 1.707770e-002
3.883932e+003, 1.660610e-002
3.885860e+003, 1.702075e-002
3.887789e+003, 1.831091e-002
3.889717e+003, 1.915819e-002
3.891646e+003, 1.853245e-002
3.893574e+003, 1.690819e-002
3.895503e+003, 1.597869e-002
3.897431e+003, 1.598819e-002
3.899360e+003, 1.439216e-002
3.901288e+003, 1.381020e-002
3.903217e+003, 1.668301e-002
3.905145e+003, 1.746040e-002
3.907073e+003, 1.674074e-002
3.909002e+003, 1.522147e-002
3.910930e+003, 1.477984e-002
3.912859e+003, 1.503781e-002
3.914787e+003, 1.633250e-002
3.916716e+003, 1.750938e-002
3.918644e+003, 1.672492e-002
3.920573e+003, 1.694224e-002
3.922501e+003, 1.750297e-002
3.924430e+003, 1.686414e-002
3.926358e+003, 1.485769e-002
3.928287e+003, 1.473510e-002
3.930215e+003, 1.564922e-002
3.932144e+003, 1.472109e-002
3.934072e+003, 1.532652e-002
3.936000e+003, 1.579903e-002
3.937929e+003, 1.513663e-002
3.939857e+003, 1.546100e-002
3.941786e+003, 1.737431e-002
3.943714e+003, 1.746703e-002
3.945643e+003, 1.714287e-002
3.947571e+003, 1.659640e-002
3.949500e+003, 1.541238e-002
3.951428e+003, 1.518518e-002
3.953357e+003, 1.506743e-002
3.955285e+003, 1.604165e-002
3.957214e+003, 1.776340e-002
3.959142e+003, 1.892260e-002
3.961071e+003, 1.738215e-002
3.962999e+003, 1.497298e-002
3.964927e+003, 1.534719e-002
3.966856e+003, 1.807492e-002
3.968784e+003, 1.936902e-002
3.970713e+003, 1.763470e-002
3.972641e+003, 1.665062e-002
3.974570e+003, 1.628268e-002
3.976498e+003, 1.700516e-002
3.978427e+003, 1.652372e-002
3.980355e+003, 1.699330e-002
3.982284e+003, 1.689042e-002
3.984212e+003, 1.651674e-002
3.986141e+003, 1.755081e-002
3.988069e+003, 1.822517e-002
3.989998e+003, 1.632568e-002
3.991926e+003, 1.579302e-002
3.993854e+003, 1.662228e-002
3.995783e+003, 1.677007e-002
3.997711e+003, 1.611595e-002
3.999640e+003, 1.612342e-002
4.001568e+003, 0.000000e+000
##END=



