##NAMES=Babingtonite
##RRUFFID=R060083
##IDEAL CHEMISTRY=Ca_2_Fe^2+^Fe^3+^Si_5_O_14_(OH)
##LOCALITY=Hampden Quarry, Springfield, Massachusetts, USA
##OWNER=RRUFF
##SOURCE=University of Arizona Mineral Museum
##DESCRIPTION=Black stubby prismatic crystal associated with quartz
##STATUS=The identification of this mineral has been confirmed by X-ray diffraction and chemical analysis
##URL=rruff.info/R060083
##MEASURED CHEMISTRY=Ca_2.00_(Fe^2+^_0.73_Mg_0.21_Mn_0.06_)(Fe^3+^_0.93_Al_0.07_)Si_5.00_O_14_(OH)
3.991926e+002, 1.685525e-001
4.011211e+002, 1.667127e-001
4.030495e+002, 1.711296e-001
4.049780e+002, 1.738021e-001
4.069065e+002, 1.749745e-001
4.088349e+002, 1.808094e-001
4.107634e+002, 1.859088e-001
4.126919e+002, 1.981011e-001
4.146203e+002, 2.147451e-001
4.165488e+002, 2.296590e-001
4.184773e+002, 2.416361e-001
4.204057e+002, 2.508007e-001
4.223342e+002, 2.610590e-001
4.242627e+002, 2.649554e-001
4.261911e+002, 2.584953e-001
4.281196e+002, 2.547900e-001
4.300481e+002, 2.536597e-001
4.319765e+002, 2.529625e-001
4.339050e+002, 2.519222e-001
4.358335e+002, 2.487866e-001
4.377619e+002, 2.467127e-001
4.396904e+002, 2.418406e-001
4.416189e+002, 2.318523e-001
4.435473e+002, 2.235445e-001
4.454758e+002, 2.209777e-001
4.474043e+002, 2.210156e-001
4.493327e+002, 2.222845e-001
4.512612e+002, 2.242869e-001
4.531897e+002, 2.258804e-001
4.551181e+002, 2.262300e-001
4.570466e+002, 2.237214e-001
4.589751e+002, 2.205770e-001
4.609035e+002, 2.169978e-001
4.628320e+002, 2.114897e-001
4.647605e+002, 2.048522e-001
4.666889e+002, 1.981338e-001
4.686174e+002, 1.908372e-001
4.705459e+002, 1.846918e-001
4.724743e+002, 1.795947e-001
4.744028e+002, 1.751783e-001
4.763313e+002, 1.715593e-001
4.782597e+002, 1.709278e-001
4.801882e+002, 1.753677e-001
4.821167e+002, 1.838668e-001
4.840451e+002, 1.971708e-001
4.859736e+002, 2.134999e-001
4.879021e+002, 2.284772e-001
4.898305e+002, 2.357921e-001
4.917590e+002, 2.350321e-001
4.936875e+002, 2.330204e-001
4.956159e+002, 2.308117e-001
4.975444e+002, 2.281317e-001
4.994729e+002, 2.247300e-001
5.014013e+002, 2.209964e-001
5.033298e+002, 2.175177e-001
5.052583e+002, 2.143782e-001
5.071867e+002, 2.118239e-001
5.091152e+002, 2.076882e-001
5.110437e+002, 2.015919e-001
5.129721e+002, 1.943647e-001
5.149006e+002, 1.865026e-001
5.168290e+002, 1.795886e-001
5.187575e+002, 1.737964e-001
5.206860e+002, 1.698992e-001
5.226144e+002, 1.656571e-001
5.245429e+002, 1.598524e-001
5.264714e+002, 1.538536e-001
5.283998e+002, 1.495243e-001
5.303283e+002, 1.465419e-001
5.322568e+002, 1.438570e-001
5.341852e+002, 1.419062e-001
5.361137e+002, 1.402150e-001
5.380422e+002, 1.388575e-001
5.399706e+002, 1.393653e-001
5.418991e+002, 1.415377e-001
5.438276e+002, 1.440662e-001
5.457560e+002, 1.462286e-001
5.476845e+002, 1.491350e-001
5.496130e+002, 1.503440e-001
5.515414e+002, 1.478436e-001
5.534699e+002, 1.423905e-001
5.553984e+002, 1.347752e-001
5.573268e+002, 1.261046e-001
5.592553e+002, 1.165094e-001
5.611838e+002, 1.066099e-001
5.631122e+002, 9.716153e-002
5.650407e+002, 8.857272e-002
5.669692e+002, 8.081537e-002
5.688976e+002, 7.397027e-002
5.708261e+002, 6.816049e-002
5.727546e+002, 6.296208e-002
5.746830e+002, 5.879844e-002
5.766115e+002, 5.469413e-002
5.785400e+002, 5.092139e-002
5.804684e+002, 4.754781e-002
5.823969e+002, 4.504680e-002
5.843254e+002, 4.304729e-002
5.862538e+002, 4.175590e-002
5.881823e+002, 4.098039e-002
5.901108e+002, 4.053733e-002
5.920392e+002, 4.046861e-002
5.939677e+002, 4.032302e-002
5.958962e+002, 4.028748e-002
5.978246e+002, 4.033678e-002
5.997531e+002, 4.042460e-002
6.016816e+002, 4.065710e-002
6.036100e+002, 4.088826e-002
6.055385e+002, 4.153534e-002
6.074670e+002, 4.269925e-002
6.093954e+002, 4.385433e-002
6.113239e+002, 4.521937e-002
6.132524e+002, 4.676075e-002
6.151808e+002, 4.883507e-002
6.171093e+002, 5.109078e-002
6.190378e+002, 5.340670e-002
6.209662e+002, 5.577568e-002
6.228947e+002, 5.856362e-002
6.248232e+002, 6.149349e-002
6.267516e+002, 6.436442e-002
6.286801e+002, 6.778690e-002
6.306086e+002, 7.252546e-002
6.325370e+002, 7.898994e-002
6.344655e+002, 8.707675e-002
6.363940e+002, 9.663502e-002
6.383224e+002, 1.069305e-001
6.402509e+002, 1.163414e-001
6.421794e+002, 1.231158e-001
6.441078e+002, 1.260557e-001
6.460363e+002, 1.238482e-001
6.479648e+002, 1.173205e-001
6.498932e+002, 1.088833e-001
6.518217e+002, 1.016095e-001
6.537502e+002, 9.749255e-002
6.556786e+002, 9.630662e-002
6.576071e+002, 9.553432e-002
6.595356e+002, 9.209762e-002
6.614641e+002, 8.477954e-002
6.633925e+002, 7.482711e-002
6.653210e+002, 6.488042e-002
6.672495e+002, 5.719876e-002
6.691779e+002, 5.149173e-002
6.711064e+002, 4.762994e-002
6.730349e+002, 4.570666e-002
6.749633e+002, 4.537107e-002
6.768918e+002, 4.592113e-002
6.788203e+002, 4.652663e-002
6.807487e+002, 4.681209e-002
6.826772e+002, 4.682093e-002
6.846057e+002, 4.700853e-002
6.865341e+002, 4.787720e-002
6.884626e+002, 4.940306e-002
6.903911e+002, 5.183547e-002
6.923195e+002, 5.508371e-002
6.942480e+002, 5.937765e-002
6.961765e+002, 6.526791e-002
6.981049e+002, 7.258818e-002
7.000334e+002, 8.149598e-002
7.019619e+002, 9.087516e-002
7.038903e+002, 9.878998e-002
7.058188e+002, 1.020115e-001
7.077473e+002, 9.941535e-002
7.096757e+002, 9.278649e-002
7.116042e+002, 8.479100e-002
7.135327e+002, 7.697964e-002
7.154611e+002, 7.087844e-002
7.173896e+002, 6.666341e-002
7.193181e+002, 6.400384e-002
7.212465e+002, 6.222514e-002
7.231750e+002, 6.152399e-002
7.251035e+002, 6.173312e-002
7.270319e+002, 6.195831e-002
7.289604e+002, 6.268656e-002
7.308889e+002, 6.417773e-002
7.328173e+002, 6.596904e-002
7.347458e+002, 6.818780e-002
7.366743e+002, 7.100875e-002
7.386027e+002, 7.406935e-002
7.405312e+002, 7.764430e-002
7.424597e+002, 8.164392e-002
7.443881e+002, 8.583936e-002
7.463166e+002, 9.053262e-002
7.482451e+002, 9.577911e-002
7.501735e+002, 1.014774e-001
7.521020e+002, 1.075690e-001
7.540305e+002, 1.138664e-001
7.559589e+002, 1.206205e-001
7.578874e+002, 1.274465e-001
7.598159e+002, 1.336397e-001
7.617443e+002, 1.372442e-001
7.636728e+002, 1.355677e-001
7.656013e+002, 1.274321e-001
7.675297e+002, 1.147882e-001
7.694582e+002, 1.015425e-001
7.713867e+002, 9.077560e-002
7.733151e+002, 8.301137e-002
7.752436e+002, 7.807913e-002
7.771721e+002, 7.507769e-002
7.791005e+002, 7.351584e-002
7.810290e+002, 7.286566e-002
7.829575e+002, 7.276686e-002
7.848859e+002, 7.309008e-002
7.868144e+002, 7.374217e-002
7.887429e+002, 7.459447e-002
7.906713e+002, 7.596667e-002
7.925998e+002, 7.767265e-002
7.945283e+002, 7.971050e-002
7.964567e+002, 8.205317e-002
7.983852e+002, 8.447454e-002
8.003137e+002, 8.705385e-002
8.022421e+002, 8.990781e-002
8.041706e+002, 9.324416e-002
8.060991e+002, 9.687993e-002
8.080275e+002, 1.007997e-001
8.099560e+002, 1.050287e-001
8.118845e+002, 1.093601e-001
8.138129e+002, 1.140084e-001
8.157414e+002, 1.189504e-001
8.176699e+002, 1.240831e-001
8.195983e+002, 1.297287e-001
8.215268e+002, 1.356144e-001
8.234553e+002, 1.416859e-001
8.253837e+002, 1.482848e-001
8.273122e+002, 1.553988e-001
8.292407e+002, 1.626178e-001
8.311691e+002, 1.700803e-001
8.330976e+002, 1.777929e-001
8.350261e+002, 1.857698e-001
8.369545e+002, 1.941435e-001
8.388830e+002, 2.029569e-001
8.408115e+002, 2.118109e-001
8.427399e+002, 2.209980e-001
8.446684e+002, 2.307717e-001
8.465969e+002, 2.411270e-001
8.485253e+002, 2.519747e-001
8.504538e+002, 2.631745e-001
8.523823e+002, 2.746167e-001
8.543107e+002, 2.862568e-001
8.562392e+002, 2.979437e-001
8.581677e+002, 3.099933e-001
8.600961e+002, 3.218669e-001
8.620246e+002, 3.332225e-001
8.639531e+002, 3.436638e-001
8.658815e+002, 3.531940e-001
8.678100e+002, 3.614642e-001
8.697385e+002, 3.680474e-001
8.716669e+002, 3.729962e-001
8.735954e+002, 3.774969e-001
8.755239e+002, 3.824661e-001
8.774523e+002, 3.890670e-001
8.793808e+002, 3.979050e-001
8.813093e+002, 4.081754e-001
8.832377e+002, 4.178665e-001
8.851662e+002, 4.258538e-001
8.870947e+002, 4.310204e-001
8.890231e+002, 4.324570e-001
8.909516e+002, 4.302352e-001
8.928801e+002, 4.255511e-001
8.948085e+002, 4.186316e-001
8.967370e+002, 4.110788e-001
8.986655e+002, 4.046579e-001
9.005939e+002, 4.002358e-001
9.025224e+002, 3.975177e-001
9.044509e+002, 3.950673e-001
9.063793e+002, 3.913954e-001
9.083078e+002, 3.854075e-001
9.102363e+002, 3.769224e-001
9.121647e+002, 3.671718e-001
9.140932e+002, 3.572170e-001
9.160217e+002, 3.492223e-001
9.179501e+002, 3.447724e-001
9.198786e+002, 3.443494e-001
9.218071e+002, 3.472801e-001
9.237355e+002, 3.524106e-001
9.256640e+002, 3.584601e-001
9.275925e+002, 3.640489e-001
9.295209e+002, 3.681893e-001
9.314494e+002, 3.701561e-001
9.333779e+002, 3.697225e-001
9.353063e+002, 3.671433e-001
9.372348e+002, 3.629864e-001
9.391633e+002, 3.579856e-001
9.410917e+002, 3.523117e-001
9.430202e+002, 3.458432e-001
9.449487e+002, 3.381321e-001
9.468771e+002, 3.290268e-001
9.488056e+002, 3.181800e-001
9.507341e+002, 3.052015e-001
9.526625e+002, 2.904352e-001
9.545910e+002, 2.745388e-001
9.565195e+002, 2.586575e-001
9.584479e+002, 2.442528e-001
9.603764e+002, 2.323436e-001
9.623049e+002, 2.227364e-001
9.642333e+002, 2.148116e-001
9.661618e+002, 2.086555e-001
9.680903e+002, 2.043163e-001
9.700187e+002, 2.017483e-001
9.719472e+002, 2.006315e-001
9.738757e+002, 2.000723e-001
9.758041e+002, 1.991833e-001
9.777326e+002, 1.974075e-001
9.796611e+002, 1.958685e-001
9.815895e+002, 1.970636e-001
9.835180e+002, 2.038685e-001
9.854465e+002, 2.177663e-001
9.873749e+002, 2.367524e-001
9.893034e+002, 2.551604e-001
9.912319e+002, 2.670781e-001
9.931603e+002, 2.709456e-001
9.950888e+002, 2.686718e-001
9.970173e+002, 2.633047e-001
9.989457e+002, 2.578372e-001
1.000874e+003, 2.535039e-001
1.002803e+003, 2.503350e-001
1.004731e+003, 2.486467e-001
1.006660e+003, 2.482662e-001
1.008588e+003, 2.485756e-001
1.010517e+003, 2.490798e-001
1.012445e+003, 2.494732e-001
1.014373e+003, 2.492632e-001
1.016302e+003, 2.481357e-001
1.018230e+003, 2.461456e-001
1.020159e+003, 2.435401e-001
1.022087e+003, 2.410568e-001
1.024016e+003, 2.390311e-001
1.025944e+003, 2.366158e-001
1.027873e+003, 2.339448e-001
1.029801e+003, 2.320163e-001
1.031730e+003, 2.319618e-001
1.033658e+003, 2.344441e-001
1.035587e+003, 2.385470e-001
1.037515e+003, 2.418377e-001
1.039443e+003, 2.419215e-001
1.041372e+003, 2.376784e-001
1.043300e+003, 2.293643e-001
1.045229e+003, 2.186005e-001
1.047157e+003, 2.070321e-001
1.049086e+003, 1.956749e-001
1.051014e+003, 1.852411e-001
1.052943e+003, 1.761438e-001
1.054871e+003, 1.682797e-001
1.056800e+003, 1.617225e-001
1.058728e+003, 1.561656e-001
1.060657e+003, 1.515714e-001
1.062585e+003, 1.481061e-001
1.064514e+003, 1.454228e-001
1.066442e+003, 1.434689e-001
1.068370e+003, 1.421908e-001
1.070299e+003, 1.413902e-001
1.072227e+003, 1.407547e-001
1.074156e+003, 1.404157e-001
1.076084e+003, 1.403395e-001
1.078013e+003, 1.403816e-001
1.079941e+003, 1.405837e-001
1.081870e+003, 1.409454e-001
1.083798e+003, 1.415768e-001
1.085727e+003, 1.424649e-001
1.087655e+003, 1.436861e-001
1.089584e+003, 1.449688e-001
1.091512e+003, 1.457221e-001
1.093441e+003, 1.452079e-001
1.095369e+003, 1.427271e-001
1.097297e+003, 1.381831e-001
1.099226e+003, 1.319014e-001
1.101154e+003, 1.246881e-001
1.103083e+003, 1.170311e-001
1.105011e+003, 1.090982e-001
1.106940e+003, 1.011755e-001
1.108868e+003, 9.363481e-002
1.110797e+003, 8.639321e-002
1.112725e+003, 7.938528e-002
1.114654e+003, 7.281686e-002
1.116582e+003, 6.656755e-002
1.118511e+003, 6.067188e-002
1.120439e+003, 5.515903e-002
1.122368e+003, 5.017747e-002
1.124296e+003, 4.563526e-002
1.126224e+003, 4.141357e-002
1.128153e+003, 3.755424e-002
1.130081e+003, 3.424239e-002
1.132010e+003, 3.138766e-002
1.133938e+003, 2.893897e-002
1.135867e+003, 2.667677e-002
1.137795e+003, 2.466477e-002
1.139724e+003, 2.293727e-002
1.141652e+003, 2.143419e-002
1.143581e+003, 2.018019e-002
1.145509e+003, 1.911786e-002
1.147438e+003, 1.824312e-002
1.149366e+003, 1.755269e-002
1.151295e+003, 1.685529e-002
1.153223e+003, 1.619029e-002
1.155151e+003, 1.559636e-002
1.157080e+003, 1.512272e-002
1.159008e+003, 1.465321e-002
1.160937e+003, 1.417898e-002
1.162865e+003, 1.382722e-002
1.164794e+003, 1.350593e-002
1.166722e+003, 1.314002e-002
1.168651e+003, 1.284413e-002
1.170579e+003, 1.261774e-002
1.172508e+003, 1.231254e-002
1.174436e+003, 1.196747e-002
1.176365e+003, 1.164546e-002
1.178293e+003, 1.137638e-002
1.180222e+003, 1.104569e-002
1.182150e+003, 1.078094e-002
1.184078e+003, 1.054909e-002
1.186007e+003, 1.027878e-002
1.187935e+003, 1.006747e-002
1.189864e+003, 9.866795e-003
1.191792e+003, 9.657358e-003
1.193721e+003, 9.491865e-003
1.195649e+003, 9.431494e-003
1.197578e+003, 9.236901e-003
1.199506e+003, 8.901307e-003
1.201435e+003, 8.711522e-003
1.203363e+003, 8.676509e-003
1.205292e+003, 8.605910e-003
1.207220e+003, 8.534770e-003
1.209149e+003, 8.537752e-003
1.211077e+003, 8.480800e-003
1.213005e+003, 8.456714e-003
1.214934e+003, 8.592949e-003
1.216862e+003, 8.658528e-003
1.218791e+003, 8.737544e-003
1.220719e+003, 8.864603e-003
1.222648e+003, 9.063276e-003
1.224576e+003, 9.218596e-003
1.226505e+003, 9.537163e-003
1.228433e+003, 9.914492e-003
1.230362e+003, 1.036052e-002
1.232290e+003, 1.087471e-002
1.234219e+003, 1.149038e-002
1.236147e+003, 1.219645e-002
1.238076e+003, 1.313450e-002
1.240004e+003, 1.429717e-002
1.241932e+003, 1.550863e-002
1.243861e+003, 1.687105e-002
1.245789e+003, 1.857868e-002
1.247718e+003, 2.047521e-002
1.249646e+003, 2.258223e-002
1.251575e+003, 2.492191e-002
1.253503e+003, 2.759008e-002
1.255432e+003, 3.044601e-002
1.257360e+003, 3.334584e-002
1.259289e+003, 3.630505e-002
1.261217e+003, 3.924448e-002
1.263146e+003, 4.199103e-002
1.265074e+003, 4.427210e-002
1.267003e+003, 4.567999e-002
1.268931e+003, 4.562524e-002
1.270859e+003, 4.399928e-002
1.272788e+003, 4.130608e-002
1.274716e+003, 3.776601e-002
1.276645e+003, 3.362506e-002
1.278573e+003, 2.956391e-002
1.280502e+003, 2.598000e-002
1.282430e+003, 2.271950e-002
1.284359e+003, 1.999584e-002
1.286287e+003, 1.761733e-002
1.288216e+003, 1.550774e-002
1.290144e+003, 1.368818e-002
1.292073e+003, 1.232966e-002
1.294001e+003, 1.126244e-002
1.295930e+003, 1.028943e-002
1.297858e+003, 9.371407e-003
1.299786e+003, 8.733302e-003
1.301715e+003, 8.316529e-003
1.303643e+003, 7.907087e-003
1.305572e+003, 7.498195e-003
1.307500e+003, 7.153917e-003
1.309429e+003, 6.933294e-003
1.311357e+003, 6.801476e-003
1.313286e+003, 6.618298e-003
1.315214e+003, 6.407649e-003
1.317143e+003, 6.241084e-003
1.319071e+003, 6.201892e-003
1.321000e+003, 6.226588e-003
1.322928e+003, 6.211852e-003
1.324857e+003, 6.160259e-003
1.326785e+003, 6.183539e-003
1.328714e+003, 6.105649e-003
1.330642e+003, 6.059055e-003
1.332570e+003, 6.025371e-003
1.334499e+003, 6.084406e-003
1.336427e+003, 6.102208e-003
1.338356e+003, 6.084763e-003
1.340284e+003, 6.262700e-003
1.342213e+003, 6.473143e-003
1.344141e+003, 6.527126e-003
1.346070e+003, 6.630818e-003
1.347998e+003, 6.647610e-003
1.349927e+003, 6.656867e-003
1.351855e+003, 6.736383e-003
1.353784e+003, 6.718699e-003
1.355712e+003, 6.665225e-003
1.357641e+003, 6.825693e-003
1.359569e+003, 6.777402e-003
1.361497e+003, 6.655684e-003
1.363426e+003, 6.795897e-003
1.365354e+003, 7.209257e-003
1.367283e+003, 7.243446e-003
1.369211e+003, 7.333961e-003
1.371140e+003, 7.475355e-003
1.373068e+003, 7.491974e-003
1.374997e+003, 7.557376e-003
1.376925e+003, 7.804137e-003
1.378854e+003, 7.952289e-003
1.380782e+003, 8.141015e-003
1.382711e+003, 8.233359e-003
1.384639e+003, 8.358777e-003
1.386568e+003, 8.183864e-003
1.388496e+003, 8.435997e-003
1.390424e+003, 8.982085e-003
1.392353e+003, 9.067949e-003
1.394281e+003, 8.839788e-003
1.396210e+003, 9.161598e-003
1.398138e+003, 9.385331e-003
1.400067e+003, 9.637343e-003
1.401995e+003, 1.000853e-002
1.403924e+003, 9.977069e-003
1.405852e+003, 1.005288e-002
1.407781e+003, 1.032903e-002
1.409709e+003, 1.054323e-002
1.411638e+003, 1.080312e-002
1.413566e+003, 1.095974e-002
1.415495e+003, 1.088512e-002
1.417423e+003, 1.031808e-002
1.419351e+003, 9.936465e-003
1.421280e+003, 1.067400e-002
1.423208e+003, 1.101116e-002
1.425137e+003, 1.110840e-002
1.427065e+003, 1.128369e-002
1.428994e+003, 1.131976e-002
1.430922e+003, 1.145139e-002
1.432851e+003, 1.150270e-002
1.434779e+003, 1.096193e-002
1.436708e+003, 1.033556e-002
1.438636e+003, 1.104663e-002
1.440565e+003, 1.167030e-002
1.442493e+003, 1.185072e-002
1.444422e+003, 1.169865e-002
1.446350e+003, 1.140051e-002
1.448278e+003, 1.129444e-002
1.450207e+003, 1.150116e-002
1.452135e+003, 1.155908e-002
1.454064e+003, 1.115474e-002
1.455992e+003, 9.474661e-003
1.457921e+003, 9.437923e-003
1.459849e+003, 1.082891e-002
1.461778e+003, 1.125882e-002
1.463706e+003, 1.086979e-002
1.465635e+003, 1.084030e-002
1.467563e+003, 1.119157e-002
1.469492e+003, 1.109341e-002
1.471420e+003, 1.019075e-002
1.473349e+003, 9.838696e-003
1.475277e+003, 1.057083e-002
1.477205e+003, 1.109062e-002
1.479134e+003, 1.144171e-002
1.481062e+003, 1.143170e-002
1.482991e+003, 1.154007e-002
1.484919e+003, 1.148335e-002
1.486848e+003, 1.105787e-002
1.488776e+003, 1.066359e-002
1.490705e+003, 1.075312e-002
1.492633e+003, 1.124566e-002
1.494562e+003, 1.077994e-002
1.496490e+003, 1.008036e-002
1.498419e+003, 1.046249e-002
1.500347e+003, 1.101383e-002
1.502276e+003, 1.124175e-002
1.504204e+003, 9.942900e-003
1.506132e+003, 8.183885e-003
1.508061e+003, 8.961625e-003
1.509989e+003, 1.037830e-002
1.511918e+003, 1.051713e-002
1.513846e+003, 1.047597e-002
1.515775e+003, 9.967202e-003
1.517703e+003, 9.652726e-003
1.519632e+003, 8.966430e-003
1.521560e+003, 8.351018e-003
1.523489e+003, 9.278609e-003
1.525417e+003, 9.563404e-003
1.527346e+003, 9.867135e-003
1.529274e+003, 1.020980e-002
1.531203e+003, 9.983172e-003
1.533131e+003, 9.365466e-003
1.535059e+003, 9.887476e-003
1.536988e+003, 9.454322e-003
1.538916e+003, 7.318379e-003
1.540845e+003, 7.177691e-003
1.542773e+003, 8.578906e-003
1.544702e+003, 9.435384e-003
1.546630e+003, 1.009346e-002
1.548559e+003, 1.038611e-002
1.550487e+003, 1.030318e-002
1.552416e+003, 9.871690e-003
1.554344e+003, 9.224151e-003
1.556273e+003, 8.446697e-003
1.558201e+003, 6.386218e-003
1.560130e+003, 6.844183e-003
1.562058e+003, 9.349948e-003
1.563986e+003, 1.011144e-002
1.565915e+003, 1.016189e-002
1.567843e+003, 9.897021e-003
1.569772e+003, 9.449298e-003
1.571700e+003, 9.953268e-003
1.573629e+003, 9.721640e-003
1.575557e+003, 8.277501e-003
1.577486e+003, 8.911501e-003
1.579414e+003, 1.019071e-002
1.581343e+003, 1.043614e-002
1.583271e+003, 1.044804e-002
1.585200e+003, 1.021702e-002
1.587128e+003, 1.011932e-002
1.589057e+003, 1.016673e-002
1.590985e+003, 1.042270e-002
1.592913e+003, 1.048787e-002
1.594842e+003, 1.055784e-002
1.596770e+003, 1.061430e-002
1.598699e+003, 1.057600e-002
1.600627e+003, 1.056772e-002
1.602556e+003, 1.050241e-002
1.604484e+003, 1.051853e-002
1.606413e+003, 1.049845e-002
1.608341e+003, 1.033756e-002
1.610270e+003, 1.034348e-002
1.612198e+003, 1.058108e-002
1.614127e+003, 1.031029e-002
1.616055e+003, 9.038325e-003
1.617984e+003, 9.533746e-003
1.619912e+003, 1.068461e-002
1.621840e+003, 1.034925e-002
1.623769e+003, 1.020174e-002
1.625697e+003, 1.067315e-002
1.627626e+003, 1.073806e-002
1.629554e+003, 1.084329e-002
1.631483e+003, 1.105632e-002
1.633411e+003, 1.027548e-002
1.635340e+003, 9.118746e-003
1.637268e+003, 1.003324e-002
1.639197e+003, 1.111639e-002
1.641125e+003, 1.114014e-002
1.643054e+003, 1.092259e-002
1.644982e+003, 9.784773e-003
1.646911e+003, 9.444477e-003
1.648839e+003, 1.042919e-002
1.650767e+003, 9.267227e-003
1.652696e+003, 6.466099e-003
1.654624e+003, 8.144136e-003
1.656553e+003, 1.075294e-002
1.658481e+003, 1.125735e-002
1.660410e+003, 1.089578e-002
1.662338e+003, 1.045032e-002
1.664267e+003, 1.072010e-002
1.666195e+003, 1.083679e-002
1.668124e+003, 9.934142e-003
1.670052e+003, 9.537554e-003
1.671981e+003, 1.005913e-002
1.673909e+003, 9.752379e-003
1.675838e+003, 9.593382e-003
1.677766e+003, 1.035366e-002
1.679694e+003, 1.025734e-002
1.681623e+003, 9.620790e-003
1.683551e+003, 7.477741e-003
1.685480e+003, 7.696651e-003
1.687408e+003, 9.734798e-003
1.689337e+003, 1.021390e-002
1.691265e+003, 1.038307e-002
1.693194e+003, 9.919481e-003
1.695122e+003, 7.830671e-003
1.697051e+003, 7.837120e-003
1.698979e+003, 7.614487e-003
1.700908e+003, 7.295150e-003
1.702836e+003, 9.204037e-003
1.704765e+003, 9.363503e-003
1.706693e+003, 9.534050e-003
1.708621e+003, 9.831348e-003
1.710550e+003, 9.902279e-003
1.712478e+003, 9.378571e-003
1.714407e+003, 8.624376e-003
1.716335e+003, 7.389973e-003
1.718264e+003, 7.379232e-003
1.720192e+003, 8.839880e-003
1.722121e+003, 9.515272e-003
1.724049e+003, 9.552125e-003
1.725978e+003, 9.695218e-003
1.727906e+003, 9.562978e-003
1.729835e+003, 9.229364e-003
1.731763e+003, 8.167574e-003
1.733692e+003, 6.539582e-003
1.735620e+003, 7.452601e-003
1.737548e+003, 8.364125e-003
1.739477e+003, 7.773674e-003
1.741405e+003, 7.877720e-003
1.743334e+003, 7.986891e-003
1.745262e+003, 8.200169e-003
1.747191e+003, 8.053574e-003
1.749119e+003, 7.526692e-003
1.751048e+003, 7.184074e-003
1.752976e+003, 8.196796e-003
1.754905e+003, 8.650867e-003
1.756833e+003, 8.548749e-003
1.758762e+003, 8.890687e-003
1.760690e+003, 8.537655e-003
1.762619e+003, 8.444470e-003
1.764547e+003, 9.063412e-003
1.766475e+003, 8.949125e-003
1.768404e+003, 8.608206e-003
1.770332e+003, 8.101040e-003
1.772261e+003, 7.420069e-003
1.774189e+003, 8.365322e-003
1.776118e+003, 9.388201e-003
1.778046e+003, 9.384556e-003
1.779975e+003, 9.198588e-003
1.781903e+003, 9.373949e-003
1.783832e+003, 9.438415e-003
1.785760e+003, 9.509950e-003
1.787689e+003, 9.734541e-003
1.789617e+003, 9.318543e-003
1.791546e+003, 8.443023e-003
1.793474e+003, 8.486052e-003
1.795402e+003, 9.195938e-003
1.797331e+003, 9.328752e-003
1.799259e+003, 9.324581e-003
1.801188e+003, 9.314752e-003
1.803116e+003, 9.494514e-003
1.805045e+003, 9.577679e-003
1.806973e+003, 9.773393e-003
1.808902e+003, 9.592989e-003
1.810830e+003, 9.401050e-003
1.812759e+003, 9.444558e-003
1.814687e+003, 9.581360e-003
1.816616e+003, 9.422549e-003
1.818544e+003, 9.677665e-003
1.820473e+003, 9.816843e-003
1.822401e+003, 9.861361e-003
1.824329e+003, 9.742301e-003
1.826258e+003, 9.709416e-003
1.828186e+003, 9.417713e-003
1.830115e+003, 9.184755e-003
1.832043e+003, 9.565488e-003
1.833972e+003, 9.674511e-003
1.835900e+003, 9.544684e-003
1.837829e+003, 9.779808e-003
1.839757e+003, 9.863081e-003
1.841686e+003, 9.633989e-003
1.843614e+003, 9.003574e-003
1.845543e+003, 9.286568e-003
1.847471e+003, 9.922788e-003
1.849400e+003, 1.007232e-002
1.851328e+003, 1.015153e-002
1.853256e+003, 1.022461e-002
1.855185e+003, 1.029047e-002
1.857113e+003, 1.026234e-002
1.859042e+003, 1.020669e-002
1.860970e+003, 9.953626e-003
1.862899e+003, 9.989945e-003
1.864827e+003, 9.958196e-003
1.866756e+003, 9.446375e-003
1.868684e+003, 9.081867e-003
1.870613e+003, 9.563287e-003
1.872541e+003, 9.948283e-003
1.874470e+003, 9.690808e-003
1.876398e+003, 9.588128e-003
1.878327e+003, 9.698543e-003
1.880255e+003, 1.000901e-002
1.882183e+003, 9.887279e-003
1.884112e+003, 9.545332e-003
1.886040e+003, 9.527462e-003
1.887969e+003, 9.568296e-003
1.889897e+003, 9.435258e-003
1.891826e+003, 9.780704e-003
1.893754e+003, 1.005647e-002
1.895683e+003, 9.909786e-003
1.897611e+003, 9.949516e-003
1.899540e+003, 1.004137e-002
1.901468e+003, 9.910235e-003
1.903397e+003, 1.011670e-002
1.905325e+003, 1.030963e-002
1.907254e+003, 9.984688e-003
1.909182e+003, 9.801890e-003
1.911110e+003, 1.000620e-002
1.913039e+003, 9.948306e-003
1.914967e+003, 1.004235e-002
1.916896e+003, 9.923278e-003
1.918824e+003, 1.024216e-002
1.920753e+003, 1.070824e-002
1.922681e+003, 1.021829e-002
1.924610e+003, 9.996619e-003
1.926538e+003, 1.035614e-002
1.928467e+003, 1.051985e-002
1.930395e+003, 1.046777e-002
1.932324e+003, 1.043420e-002
1.934252e+003, 1.044183e-002
1.936181e+003, 1.042005e-002
1.938109e+003, 1.067066e-002
1.940037e+003, 1.064759e-002
1.941966e+003, 1.067432e-002
1.943894e+003, 1.111242e-002
1.945823e+003, 1.087937e-002
1.947751e+003, 1.038379e-002
1.949680e+003, 1.056497e-002
1.951608e+003, 1.040548e-002
1.953537e+003, 9.960271e-003
1.955465e+003, 1.015397e-002
1.957394e+003, 1.083749e-002
1.959322e+003, 1.157304e-002
1.961251e+003, 1.200052e-002
1.963179e+003, 1.173424e-002
1.965108e+003, 1.125032e-002
1.967036e+003, 1.007546e-002
1.968964e+003, 9.303276e-003
1.970893e+003, 9.600367e-003
1.972821e+003, 1.027377e-002
1.974750e+003, 1.002603e-002
1.976678e+003, 9.621628e-003
1.978607e+003, 1.091657e-002
1.980535e+003, 1.228104e-002
1.982464e+003, 1.239250e-002
1.984392e+003, 1.201733e-002
1.986321e+003, 1.068664e-002
1.988249e+003, 9.732079e-003
1.990178e+003, 1.009973e-002
1.992106e+003, 1.068393e-002
1.994035e+003, 1.082497e-002
1.995963e+003, 1.053633e-002
1.997891e+003, 1.109488e-002
1.999820e+003, 1.141441e-002
2.001748e+003, 1.076088e-002
2.003677e+003, 1.002969e-002
2.005605e+003, 9.690337e-003
2.007534e+003, 9.889742e-003
2.009462e+003, 1.053872e-002
2.011391e+003, 1.108150e-002
2.013319e+003, 1.122208e-002
2.015248e+003, 1.037788e-002
2.017176e+003, 1.116889e-002
2.019105e+003, 1.142394e-002
2.021033e+003, 1.043465e-002
2.022962e+003, 1.072204e-002
2.024890e+003, 1.130674e-002
2.026818e+003, 1.080805e-002
2.028747e+003, 1.106517e-002
2.030675e+003, 1.170611e-002
2.032604e+003, 1.253060e-002
2.034532e+003, 1.265473e-002
2.036461e+003, 1.218551e-002
2.038389e+003, 1.235054e-002
2.040318e+003, 1.230214e-002
2.042246e+003, 1.240382e-002
2.044175e+003, 1.217113e-002
2.046103e+003, 1.162292e-002
2.048031e+003, 1.219884e-002
2.049960e+003, 1.299929e-002
2.051888e+003, 1.277059e-002
2.053817e+003, 1.237267e-002
2.055745e+003, 1.215914e-002
2.057674e+003, 1.230796e-002
2.059602e+003, 1.208305e-002
2.061531e+003, 1.225736e-002
2.063459e+003, 1.208826e-002
2.065388e+003, 1.164034e-002
2.067316e+003, 1.195353e-002
2.069245e+003, 1.314868e-002
2.071173e+003, 1.358171e-002
2.073102e+003, 1.263072e-002
2.075030e+003, 1.296910e-002
2.076958e+003, 1.333288e-002
2.078887e+003, 1.338646e-002
2.080815e+003, 1.374373e-002
2.082744e+003, 1.357172e-002
2.084672e+003, 1.350071e-002
2.086601e+003, 1.321903e-002
2.088529e+003, 1.359870e-002
2.090458e+003, 1.378362e-002
2.092386e+003, 1.344912e-002
2.094315e+003, 1.375734e-002
2.096243e+003, 1.432279e-002
2.098172e+003, 1.436054e-002
2.100100e+003, 1.405277e-002
2.102029e+003, 1.400256e-002
2.103957e+003, 1.442649e-002
2.105885e+003, 1.523574e-002
2.107814e+003, 1.519519e-002
2.109742e+003, 1.485605e-002
2.111671e+003, 1.498493e-002
2.113599e+003, 1.503063e-002
2.115528e+003, 1.510734e-002
2.117456e+003, 1.509274e-002
2.119385e+003, 1.514668e-002
2.121313e+003, 1.487397e-002
2.123242e+003, 1.525540e-002
2.125170e+003, 1.551164e-002
2.127099e+003, 1.532767e-002
2.129027e+003, 1.510787e-002
2.130956e+003, 1.511115e-002
2.132884e+003, 1.477309e-002
2.134813e+003, 1.454305e-002
2.136741e+003, 1.539682e-002
2.138669e+003, 1.638716e-002
2.140598e+003, 1.694480e-002
2.142526e+003, 1.673827e-002
2.144455e+003, 1.595559e-002
2.146383e+003, 1.560515e-002
2.148312e+003, 1.593967e-002
2.150240e+003, 1.631495e-002
2.152169e+003, 1.620210e-002
2.154097e+003, 1.653927e-002
2.156026e+003, 1.681286e-002
2.157954e+003, 1.780548e-002
2.159883e+003, 2.017180e-002
2.161811e+003, 1.994323e-002
2.163740e+003, 1.862226e-002
2.165668e+003, 1.898900e-002
2.167596e+003, 2.018104e-002
2.169525e+003, 1.976736e-002
2.171453e+003, 1.854681e-002
2.173382e+003, 1.914318e-002
2.175310e+003, 1.948068e-002
2.177239e+003, 1.978231e-002
2.179167e+003, 1.996068e-002
2.181096e+003, 1.993733e-002
2.183024e+003, 2.025331e-002
2.184953e+003, 2.131719e-002
2.186881e+003, 2.118425e-002
2.188810e+003, 2.042707e-002
2.190738e+003, 2.004805e-002
2.192667e+003, 2.018138e-002
2.194595e+003, 2.081671e-002
2.196523e+003, 2.100612e-002
2.198452e+003, 2.070927e-002
2.200380e+003, 2.116331e-002
2.202309e+003, 2.155249e-002
2.204237e+003, 2.210563e-002
2.206166e+003, 2.228424e-002
2.208094e+003, 2.203347e-002
2.210023e+003, 2.191649e-002
2.211951e+003, 2.202757e-002
2.213880e+003, 2.219235e-002
2.215808e+003, 2.269994e-002
2.217737e+003, 2.293966e-002
2.219665e+003, 2.272213e-002
2.221594e+003, 2.249245e-002
2.223522e+003, 2.276821e-002
2.225450e+003, 2.365940e-002
2.227379e+003, 2.352740e-002
2.229307e+003, 2.295496e-002
2.231236e+003, 2.360586e-002
2.233164e+003, 2.437079e-002
2.235093e+003, 2.487221e-002
2.237021e+003, 2.485353e-002
2.238950e+003, 2.528576e-002
2.240878e+003, 2.533504e-002
2.242807e+003, 2.510393e-002
2.244735e+003, 2.487246e-002
2.246664e+003, 2.509857e-002
2.248592e+003, 2.566538e-002
2.250521e+003, 2.657886e-002
2.252449e+003, 2.623549e-002
2.254377e+003, 2.547035e-002
2.256306e+003, 2.548701e-002
2.258234e+003, 2.595113e-002
2.260163e+003, 2.653282e-002
2.262091e+003, 2.690016e-002
2.264020e+003, 2.696104e-002
2.265948e+003, 2.718343e-002
2.267877e+003, 2.741958e-002
2.269805e+003, 2.812052e-002
2.271734e+003, 2.831848e-002
2.273662e+003, 2.851789e-002
2.275591e+003, 2.894386e-002
2.277519e+003, 2.904877e-002
2.279448e+003, 2.913390e-002
2.281376e+003, 2.902231e-002
2.283304e+003, 2.907515e-002
2.285233e+003, 2.940122e-002
2.287161e+003, 2.949373e-002
2.289090e+003, 2.947027e-002
2.291018e+003, 2.930140e-002
2.292947e+003, 2.913195e-002
2.294875e+003, 2.929978e-002
2.296804e+003, 2.982028e-002
2.298732e+003, 3.020076e-002
2.300661e+003, 3.060001e-002
2.302589e+003, 3.066683e-002
2.304518e+003, 3.070699e-002
2.306446e+003, 3.064224e-002
2.308375e+003, 3.056136e-002
2.310303e+003, 3.061128e-002
2.312231e+003, 3.103747e-002
2.314160e+003, 3.165654e-002
2.316088e+003, 3.219572e-002
2.318017e+003, 3.256172e-002
2.319945e+003, 3.325386e-002
2.321874e+003, 3.358392e-002
2.323802e+003, 3.359401e-002
2.325731e+003, 3.344310e-002
2.327659e+003, 3.343955e-002
2.329588e+003, 3.365903e-002
2.331516e+003, 3.359525e-002
2.333445e+003, 3.346429e-002
2.335373e+003, 3.344795e-002
2.337302e+003, 3.357943e-002
2.339230e+003, 3.354762e-002
2.341158e+003, 3.339028e-002
2.343087e+003, 3.331547e-002
2.345015e+003, 3.329886e-002
2.346944e+003, 3.294514e-002
2.348872e+003, 3.225929e-002
2.350801e+003, 3.238294e-002
2.352729e+003, 3.298244e-002
2.354658e+003, 3.353624e-002
2.356586e+003, 3.385627e-002
2.358515e+003, 3.400935e-002
2.360443e+003, 3.454765e-002
2.362372e+003, 3.489884e-002
2.364300e+003, 3.456318e-002
2.366229e+003, 3.402000e-002
2.368157e+003, 3.375845e-002
2.370085e+003, 3.355961e-002
2.372014e+003, 3.317051e-002
2.373942e+003, 3.253089e-002
2.375871e+003, 3.233095e-002
2.377799e+003, 3.240795e-002
2.379728e+003, 3.231177e-002
2.381656e+003, 3.213759e-002
2.383585e+003, 3.195881e-002
2.385513e+003, 3.188182e-002
2.387442e+003, 3.219497e-002
2.389370e+003, 3.252899e-002
2.391299e+003, 3.224983e-002
2.393227e+003, 3.235461e-002
2.395156e+003, 3.239677e-002
2.397084e+003, 3.230954e-002
2.399012e+003, 3.247017e-002
2.400941e+003, 3.265407e-002
2.402869e+003, 3.232922e-002
2.404798e+003, 3.230459e-002
2.406726e+003, 3.253985e-002
2.408655e+003, 3.234907e-002
2.410583e+003, 3.204802e-002
2.412512e+003, 3.199995e-002
2.414440e+003, 3.207023e-002
2.416369e+003, 3.202084e-002
2.418297e+003, 3.170912e-002
2.420226e+003, 3.132584e-002
2.422154e+003, 3.101039e-002
2.424083e+003, 3.092941e-002
2.426011e+003, 3.030153e-002
2.427939e+003, 2.984430e-002
2.429868e+003, 2.953237e-002
2.431796e+003, 2.899163e-002
2.433725e+003, 2.862892e-002
2.435653e+003, 2.858295e-002
2.437582e+003, 2.826207e-002
2.439510e+003, 2.796530e-002
2.441439e+003, 2.736693e-002
2.443367e+003, 2.650978e-002
2.445296e+003, 2.613495e-002
2.447224e+003, 2.596695e-002
2.449153e+003, 2.537502e-002
2.451081e+003, 2.484272e-002
2.453010e+003, 2.465648e-002
2.454938e+003, 2.410140e-002
2.456866e+003, 2.360881e-002
2.458795e+003, 2.319866e-002
2.460723e+003, 2.280885e-002
2.462652e+003, 2.235599e-002
2.464580e+003, 2.178656e-002
2.466509e+003, 2.143422e-002
2.468437e+003, 2.085047e-002
2.470366e+003, 2.041162e-002
2.472294e+003, 2.023831e-002
2.474223e+003, 2.003317e-002
2.476151e+003, 1.996999e-002
2.478080e+003, 1.984319e-002
2.480008e+003, 1.934244e-002
2.481937e+003, 1.912484e-002
2.483865e+003, 1.904338e-002
2.485793e+003, 1.899178e-002
2.487722e+003, 1.858080e-002
2.489650e+003, 1.843991e-002
2.491579e+003, 1.835251e-002
2.493507e+003, 1.840278e-002
2.495436e+003, 1.851886e-002
2.497364e+003, 1.830116e-002
2.499293e+003, 1.807968e-002
2.501221e+003, 1.805143e-002
2.503150e+003, 1.817019e-002
2.505078e+003, 1.791954e-002
2.507007e+003, 1.784959e-002
2.508935e+003, 1.811398e-002
2.510864e+003, 1.816683e-002
2.512792e+003, 1.805669e-002
2.514720e+003, 1.813784e-002
2.516649e+003, 1.818033e-002
2.518577e+003, 1.838944e-002
2.520506e+003, 1.808952e-002
2.522434e+003, 1.814679e-002
2.524363e+003, 1.841615e-002
2.526291e+003, 1.847934e-002
2.528220e+003, 1.849329e-002
2.530148e+003, 1.854594e-002
2.532077e+003, 1.863424e-002
2.534005e+003, 1.897265e-002
2.535934e+003, 1.920749e-002
2.537862e+003, 1.915358e-002
2.539791e+003, 1.901515e-002
2.541719e+003, 1.906191e-002
2.543647e+003, 1.916735e-002
2.545576e+003, 1.940248e-002
2.547504e+003, 1.973352e-002
2.549433e+003, 2.024190e-002
2.551361e+003, 2.041849e-002
2.553290e+003, 2.038343e-002
2.555218e+003, 2.062074e-002
2.557147e+003, 2.090072e-002
2.559075e+003, 2.090519e-002
2.561004e+003, 2.082897e-002
2.562932e+003, 2.081507e-002
2.564861e+003, 2.128151e-002
2.566789e+003, 2.139324e-002
2.568718e+003, 2.130540e-002
2.570646e+003, 2.153742e-002
2.572574e+003, 2.172010e-002
2.574503e+003, 2.160463e-002
2.576431e+003, 2.129330e-002
2.578360e+003, 2.151380e-002
2.580288e+003, 2.206783e-002
2.582217e+003, 2.245988e-002
2.584145e+003, 2.230896e-002
2.586074e+003, 2.228690e-002
2.588002e+003, 2.266195e-002
2.589931e+003, 2.285618e-002
2.591859e+003, 2.275860e-002
2.593788e+003, 2.288744e-002
2.595716e+003, 2.279916e-002
2.597645e+003, 2.291088e-002
2.599573e+003, 2.326900e-002
2.601501e+003, 2.347282e-002
2.603430e+003, 2.346823e-002
2.605358e+003, 2.341064e-002
2.607287e+003, 2.340293e-002
2.609215e+003, 2.385738e-002
2.611144e+003, 2.423453e-002
2.613072e+003, 2.438592e-002
2.615001e+003, 2.445324e-002
2.616929e+003, 2.451329e-002
2.618858e+003, 2.452623e-002
2.620786e+003, 2.448575e-002
2.622715e+003, 2.447404e-002
2.624643e+003, 2.486003e-002
2.626572e+003, 2.514323e-002
2.628500e+003, 2.514017e-002
2.630428e+003, 2.523988e-002
2.632357e+003, 2.538753e-002
2.634285e+003, 2.543229e-002
2.636214e+003, 2.536939e-002
2.638142e+003, 2.530755e-002
2.640071e+003, 2.535541e-002
2.641999e+003, 2.536831e-002
2.643928e+003, 2.532254e-002
2.645856e+003, 2.544265e-002
2.647785e+003, 2.553998e-002
2.649713e+003, 2.597824e-002
2.651642e+003, 2.624942e-002
2.653570e+003, 2.593192e-002
2.655499e+003, 2.572116e-002
2.657427e+003, 2.581432e-002
2.659355e+003, 2.612163e-002
2.661284e+003, 2.632748e-002
2.663212e+003, 2.615099e-002
2.665141e+003, 2.600105e-002
2.667069e+003, 2.620436e-002
2.668998e+003, 2.629198e-002
2.670926e+003, 2.638424e-002
2.672855e+003, 2.660835e-002
2.674783e+003, 2.658730e-002
2.676712e+003, 2.635101e-002
2.678640e+003, 2.667771e-002
2.680569e+003, 2.714904e-002
2.682497e+003, 2.724073e-002
2.684426e+003, 2.729531e-002
2.686354e+003, 2.717427e-002
2.688282e+003, 2.719919e-002
2.690211e+003, 2.714921e-002
2.692139e+003, 2.740169e-002
2.694068e+003, 2.759078e-002
2.695996e+003, 2.763816e-002
2.697925e+003, 2.783251e-002
2.699853e+003, 2.800029e-002
2.701782e+003, 2.822422e-002
2.703710e+003, 2.820952e-002
2.705639e+003, 2.822314e-002
2.707567e+003, 2.828583e-002
2.709496e+003, 2.824705e-002
2.711424e+003, 2.836178e-002
2.713353e+003, 2.866870e-002
2.715281e+003, 2.908638e-002
2.717209e+003, 2.911593e-002
2.719138e+003, 2.892442e-002
2.721066e+003, 2.892094e-002
2.722995e+003, 2.920813e-002
2.724923e+003, 2.928233e-002
2.726852e+003, 2.960095e-002
2.728780e+003, 2.989662e-002
2.730709e+003, 2.972850e-002
2.732637e+003, 2.976297e-002
2.734566e+003, 2.967476e-002
2.736494e+003, 2.973112e-002
2.738423e+003, 2.995939e-002
2.740351e+003, 3.004394e-002
2.742280e+003, 3.033909e-002
2.744208e+003, 3.071708e-002
2.746136e+003, 3.094354e-002
2.748065e+003, 3.085261e-002
2.749993e+003, 3.082426e-002
2.751922e+003, 3.094106e-002
2.753850e+003, 3.091698e-002
2.755779e+003, 3.101381e-002
2.757707e+003, 3.120669e-002
2.759636e+003, 3.139343e-002
2.761564e+003, 3.139191e-002
2.763493e+003, 3.155137e-002
2.765421e+003, 3.188747e-002
2.767350e+003, 3.188035e-002
2.769278e+003, 3.202406e-002
2.771207e+003, 3.204799e-002
2.773135e+003, 3.211353e-002
2.775063e+003, 3.238286e-002
2.776992e+003, 3.246975e-002
2.778920e+003, 3.230658e-002
2.780849e+003, 3.241296e-002
2.782777e+003, 3.258522e-002
2.784706e+003, 3.270110e-002
2.786634e+003, 3.274218e-002
2.788563e+003, 3.279857e-002
2.790491e+003, 3.282699e-002
2.792420e+003, 3.293146e-002
2.794348e+003, 3.297278e-002
2.796277e+003, 3.311038e-002
2.798205e+003, 3.319650e-002
2.800134e+003, 3.300329e-002
2.802062e+003, 3.308748e-002
2.803990e+003, 3.324899e-002
2.805919e+003, 3.320884e-002
2.807847e+003, 3.339757e-002
2.809776e+003, 3.358359e-002
2.811704e+003, 3.363587e-002
2.813633e+003, 3.383751e-002
2.815561e+003, 3.411032e-002
2.817490e+003, 3.419256e-002
2.819418e+003, 3.426096e-002
2.821347e+003, 3.435527e-002
2.823275e+003, 3.428373e-002
2.825204e+003, 3.421324e-002
2.827132e+003, 3.444459e-002
2.829061e+003, 3.460309e-002
2.830989e+003, 3.486667e-002
2.832917e+003, 3.519012e-002
2.834846e+003, 3.506025e-002
2.836774e+003, 3.493058e-002
2.838703e+003, 3.515118e-002
2.840631e+003, 3.478343e-002
2.842560e+003, 3.454275e-002
2.844488e+003, 3.466555e-002
2.846417e+003, 3.435189e-002
2.848345e+003, 3.362351e-002
2.850274e+003, 3.335901e-002
2.852202e+003, 3.342220e-002
2.854131e+003, 3.360105e-002
2.856059e+003, 3.406296e-002
2.857988e+003, 3.413592e-002
2.859916e+003, 3.400920e-002
2.861844e+003, 3.413302e-002
2.863773e+003, 3.430109e-002
2.865701e+003, 3.396128e-002
2.867630e+003, 3.395509e-002
2.869558e+003, 3.445465e-002
2.871487e+003, 3.442805e-002
2.873415e+003, 3.381434e-002
2.875344e+003, 3.348923e-002
2.877272e+003, 3.324472e-002
2.879201e+003, 3.310745e-002
2.881129e+003, 3.332033e-002
2.883058e+003, 3.345333e-002
2.884986e+003, 3.309458e-002
2.886915e+003, 3.252820e-002
2.888843e+003, 3.216858e-002
2.890771e+003, 3.218921e-002
2.892700e+003, 3.219704e-002
2.894628e+003, 3.200043e-002
2.896557e+003, 3.175838e-002
2.898485e+003, 3.148411e-002
2.900414e+003, 3.128933e-002
2.902342e+003, 3.129399e-002
2.904271e+003, 3.143932e-002
2.906199e+003, 3.088639e-002
2.908128e+003, 3.026784e-002
2.910056e+003, 2.989249e-002
2.911985e+003, 2.953806e-002
2.913913e+003, 2.932683e-002
2.915842e+003, 2.886009e-002
2.917770e+003, 2.853391e-002
2.919698e+003, 2.855181e-002
2.921627e+003, 2.868576e-002
2.923555e+003, 2.847726e-002
2.925484e+003, 2.801668e-002
2.927412e+003, 2.821934e-002
2.929341e+003, 2.834831e-002
2.931269e+003, 2.827238e-002
2.933198e+003, 2.806347e-002
2.935126e+003, 2.778942e-002
2.937055e+003, 2.778006e-002
2.938983e+003, 2.779378e-002
2.940912e+003, 2.785767e-002
2.942840e+003, 2.804678e-002
2.944769e+003, 2.784392e-002
2.946697e+003, 2.767251e-002
2.948625e+003, 2.731515e-002
2.950554e+003, 2.714171e-002
2.952482e+003, 2.734216e-002
2.954411e+003, 2.705120e-002
2.956339e+003, 2.674630e-002
2.958268e+003, 2.699550e-002
2.960196e+003, 2.702785e-002
2.962125e+003, 2.672110e-002
2.964053e+003, 2.669892e-002
2.965982e+003, 2.635641e-002
2.967910e+003, 2.615912e-002
2.969839e+003, 2.619201e-002
2.971767e+003, 2.576159e-002
2.973696e+003, 2.559150e-002
2.975624e+003, 2.546082e-002
2.977552e+003, 2.541638e-002
2.979481e+003, 2.539865e-002
2.981409e+003, 2.523301e-002
2.983338e+003, 2.538332e-002
2.985266e+003, 2.538464e-002
2.987195e+003, 2.524878e-002
2.989123e+003, 2.510891e-002
2.991052e+003, 2.532411e-002
2.992980e+003, 2.523886e-002
2.994909e+003, 2.491627e-002
2.996837e+003, 2.497638e-002
2.998766e+003, 2.467542e-002
3.000694e+003, 2.418804e-002
3.002623e+003, 2.405922e-002
3.004551e+003, 2.397169e-002
3.006479e+003, 2.408137e-002
3.008408e+003, 2.444281e-002
3.010336e+003, 2.456666e-002
3.012265e+003, 2.443245e-002
3.014193e+003, 2.445362e-002
3.016122e+003, 2.389764e-002
3.018050e+003, 2.351493e-002
3.019979e+003, 2.377492e-002
3.021907e+003, 2.377984e-002
3.023836e+003, 2.381404e-002
3.025764e+003, 2.400702e-002
3.027693e+003, 2.387197e-002
3.029621e+003, 2.360727e-002
3.031550e+003, 2.323523e-002
3.033478e+003, 2.287764e-002
3.035406e+003, 2.336162e-002
3.037335e+003, 2.363609e-002
3.039263e+003, 2.371676e-002
3.041192e+003, 2.342800e-002
3.043120e+003, 2.326271e-002
3.045049e+003, 2.363816e-002
3.046977e+003, 2.358041e-002
3.048906e+003, 2.352278e-002
3.050834e+003, 2.353780e-002
3.052763e+003, 2.333426e-002
3.054691e+003, 2.342701e-002
3.056620e+003, 2.366298e-002
3.058548e+003, 2.358272e-002
3.060477e+003, 2.341877e-002
3.062405e+003, 2.297029e-002
3.064333e+003, 2.267668e-002
3.066262e+003, 2.291455e-002
3.068190e+003, 2.353282e-002
3.070119e+003, 2.351059e-002
3.072047e+003, 2.315892e-002
3.073976e+003, 2.322916e-002
3.075904e+003, 2.323528e-002
3.077833e+003, 2.292856e-002
3.079761e+003, 2.287467e-002
3.081690e+003, 2.294969e-002
3.083618e+003, 2.299902e-002
3.085547e+003, 2.312255e-002
3.087475e+003, 2.312653e-002
3.089404e+003, 2.300074e-002
3.091332e+003, 2.284596e-002
3.093260e+003, 2.297525e-002
3.095189e+003, 2.314996e-002
3.097117e+003, 2.320568e-002
3.099046e+003, 2.299735e-002
3.100974e+003, 2.314790e-002
3.102903e+003, 2.314759e-002
3.104831e+003, 2.290314e-002
3.106760e+003, 2.314714e-002
3.108688e+003, 2.323730e-002
3.110617e+003, 2.282938e-002
3.112545e+003, 2.266727e-002
3.114474e+003, 2.291907e-002
3.116402e+003, 2.307172e-002
3.118331e+003, 2.269821e-002
3.120259e+003, 2.275372e-002
3.122188e+003, 2.297550e-002
3.124116e+003, 2.272783e-002
3.126044e+003, 2.274422e-002
3.127973e+003, 2.267652e-002
3.129901e+003, 2.235504e-002
3.131830e+003, 2.252257e-002
3.133758e+003, 2.271607e-002
3.135687e+003, 2.290980e-002
3.137615e+003, 2.340781e-002
3.139544e+003, 2.360998e-002
3.141472e+003, 2.336954e-002
3.143401e+003, 2.318276e-002
3.145329e+003, 2.282418e-002
3.147258e+003, 2.301212e-002
3.149186e+003, 2.332767e-002
3.151115e+003, 2.334264e-002
3.153043e+003, 2.376765e-002
3.154971e+003, 2.361749e-002
3.156900e+003, 2.326871e-002
3.158828e+003, 2.330224e-002
3.160757e+003, 2.344476e-002
3.162685e+003, 2.343461e-002
3.164614e+003, 2.335616e-002
3.166542e+003, 2.325945e-002
3.168471e+003, 2.327646e-002
3.170399e+003, 2.314410e-002
3.172328e+003, 2.322279e-002
3.174256e+003, 2.312112e-002
3.176185e+003, 2.284844e-002
3.178113e+003, 2.308025e-002
3.180042e+003, 2.346806e-002
3.181970e+003, 2.358390e-002
3.183898e+003, 2.287452e-002
3.185827e+003, 2.263004e-002
3.187755e+003, 2.322752e-002
3.189684e+003, 2.346561e-002
3.191612e+003, 2.327294e-002
3.193541e+003, 2.327337e-002
3.195469e+003, 2.319728e-002
3.197398e+003, 2.306406e-002
3.199326e+003, 2.305335e-002
3.201255e+003, 2.306782e-002
3.203183e+003, 2.294205e-002
3.205112e+003, 2.287764e-002
3.207040e+003, 2.290387e-002
3.208969e+003, 2.327421e-002
3.210897e+003, 2.322496e-002
3.212825e+003, 2.300779e-002
3.214754e+003, 2.318626e-002
3.216682e+003, 2.337349e-002
3.218611e+003, 2.307691e-002
3.220539e+003, 2.295368e-002
3.222468e+003, 2.291375e-002
3.224396e+003, 2.314374e-002
3.226325e+003, 2.308483e-002
3.228253e+003, 2.326070e-002
3.230182e+003, 2.347859e-002
3.232110e+003, 2.347328e-002
3.234039e+003, 2.324132e-002
3.235967e+003, 2.281568e-002
3.237896e+003, 2.284339e-002
3.239824e+003, 2.323951e-002
3.241752e+003, 2.377916e-002
3.243681e+003, 2.390640e-002
3.245609e+003, 2.361533e-002
3.247538e+003, 2.348705e-002
3.249466e+003, 2.303774e-002
3.251395e+003, 2.256918e-002
3.253323e+003, 2.290030e-002
3.255252e+003, 2.338152e-002
3.257180e+003, 2.340936e-002
3.259109e+003, 2.355931e-002
3.261037e+003, 2.340028e-002
3.262966e+003, 2.289866e-002
3.264894e+003, 2.305814e-002
3.266823e+003, 2.314806e-002
3.268751e+003, 2.266395e-002
3.270679e+003, 2.253843e-002
3.272608e+003, 2.305035e-002
3.274536e+003, 2.351363e-002
3.276465e+003, 2.315035e-002
3.278393e+003, 2.267976e-002
3.280322e+003, 2.266687e-002
3.282250e+003, 2.246800e-002
3.284179e+003, 2.267914e-002
3.286107e+003, 2.290968e-002
3.288036e+003, 2.338125e-002
3.289964e+003, 2.375685e-002
3.291893e+003, 2.358530e-002
3.293821e+003, 2.308603e-002
3.295750e+003, 2.268560e-002
3.297678e+003, 2.270426e-002
3.299606e+003, 2.298419e-002
3.301535e+003, 2.289942e-002
3.303463e+003, 2.289918e-002
3.305392e+003, 2.302510e-002
3.307320e+003, 2.325141e-002
3.309249e+003, 2.326434e-002
3.311177e+003, 2.340385e-002
3.313106e+003, 2.354161e-002
3.315034e+003, 2.369460e-002
3.316963e+003, 2.356422e-002
3.318891e+003, 2.327687e-002
3.320820e+003, 2.326229e-002
3.322748e+003, 2.338997e-002
3.324677e+003, 2.352363e-002
3.326605e+003, 2.355278e-002
3.328533e+003, 2.339433e-002
3.330462e+003, 2.342219e-002
3.332390e+003, 2.330967e-002
3.334319e+003, 2.357136e-002
3.336247e+003, 2.381033e-002
3.338176e+003, 2.352758e-002
3.340104e+003, 2.309104e-002
3.342033e+003, 2.269012e-002
3.343961e+003, 2.270328e-002
3.345890e+003, 2.278513e-002
3.347818e+003, 2.266368e-002
3.349747e+003, 2.267115e-002
3.351675e+003, 2.280732e-002
3.353604e+003, 2.304208e-002
3.355532e+003, 2.318846e-002
3.357460e+003, 2.318184e-002
3.359389e+003, 2.305283e-002
3.361317e+003, 2.309668e-002
3.363246e+003, 2.331502e-002
3.365174e+003, 2.341501e-002
3.367103e+003, 2.360704e-002
3.369031e+003, 2.343198e-002
3.370960e+003, 2.300484e-002
3.372888e+003, 2.289806e-002
3.374817e+003, 2.299504e-002
3.376745e+003, 2.326999e-002
3.378674e+003, 2.334750e-002
3.380602e+003, 2.289093e-002
3.382531e+003, 2.324013e-002
3.384459e+003, 2.351776e-002
3.386387e+003, 2.318559e-002
3.388316e+003, 2.328508e-002
3.390244e+003, 2.347779e-002
3.392173e+003, 2.291381e-002
3.394101e+003, 2.241037e-002
3.396030e+003, 2.279268e-002
3.397958e+003, 2.332808e-002
3.399887e+003, 2.343775e-002
3.401815e+003, 2.330087e-002
3.403744e+003, 2.293106e-002
3.405672e+003, 2.240397e-002
3.407601e+003, 2.220902e-002
3.409529e+003, 2.250998e-002
3.411458e+003, 2.299051e-002
3.413386e+003, 2.307225e-002
3.415314e+003, 2.293157e-002
3.417243e+003, 2.265265e-002
3.419171e+003, 2.251447e-002
3.421100e+003, 2.275650e-002
3.423028e+003, 2.263431e-002
3.424957e+003, 2.271129e-002
3.426885e+003, 2.285789e-002
3.428814e+003, 2.256052e-002
3.430742e+003, 2.263616e-002
3.432671e+003, 2.271697e-002
3.434599e+003, 2.264128e-002
3.436528e+003, 2.235872e-002
3.438456e+003, 2.197517e-002
3.440385e+003, 2.156955e-002
3.442313e+003, 2.186419e-002
3.444241e+003, 2.233629e-002
3.446170e+003, 2.212474e-002
3.448098e+003, 2.167067e-002
3.450027e+003, 2.200183e-002
3.451955e+003, 2.236254e-002
3.453884e+003, 2.197928e-002
3.455812e+003, 2.236244e-002
3.457741e+003, 2.255371e-002
3.459669e+003, 2.248118e-002
3.461598e+003, 2.220763e-002
3.463526e+003, 2.197260e-002
3.465455e+003, 2.247198e-002
3.467383e+003, 2.257307e-002
3.469312e+003, 2.246901e-002
3.471240e+003, 2.248729e-002
3.473168e+003, 2.229861e-002
3.475097e+003, 2.241821e-002
3.477025e+003, 2.318568e-002
3.478954e+003, 2.325677e-002
3.480882e+003, 2.310250e-002
3.482811e+003, 2.322421e-002
3.484739e+003, 2.325883e-002
3.486668e+003, 2.339437e-002
3.488596e+003, 2.319526e-002
3.490525e+003, 2.292198e-002
3.492453e+003, 2.321233e-002
3.494382e+003, 2.277842e-002
3.496310e+003, 2.197822e-002
3.498239e+003, 2.166670e-002
3.500167e+003, 2.140523e-002
3.502095e+003, 2.120538e-002
3.504024e+003, 2.144660e-002
3.505952e+003, 2.158582e-002
3.507881e+003, 2.125240e-002
3.509809e+003, 2.096524e-002
3.511738e+003, 2.174922e-002
3.513666e+003, 2.205071e-002
3.515595e+003, 2.170294e-002
3.517523e+003, 2.159327e-002
3.519452e+003, 2.194335e-002
3.521380e+003, 2.183745e-002
3.523309e+003, 2.121701e-002
3.525237e+003, 2.088788e-002
3.527166e+003, 2.114369e-002
3.529094e+003, 2.190275e-002
3.531022e+003, 2.224760e-002
3.532951e+003, 2.236919e-002
3.534879e+003, 2.209010e-002
3.536808e+003, 2.180824e-002
3.538736e+003, 2.119323e-002
3.540665e+003, 2.068671e-002
3.542593e+003, 2.056372e-002
3.544522e+003, 2.086424e-002
3.546450e+003, 2.075130e-002
3.548379e+003, 2.063577e-002
3.550307e+003, 2.061688e-002
3.552236e+003, 2.085051e-002
3.554164e+003, 2.129251e-002
3.556093e+003, 2.101803e-002
3.558021e+003, 2.061811e-002
3.559949e+003, 2.098381e-002
3.561878e+003, 2.106990e-002
3.563806e+003, 2.071633e-002
3.565735e+003, 1.922122e-002
3.567663e+003, 1.879155e-002
3.569592e+003, 2.017048e-002
3.571520e+003, 2.071923e-002
3.573449e+003, 2.012405e-002
3.575377e+003, 1.980571e-002
3.577306e+003, 1.995164e-002
3.579234e+003, 1.963444e-002
3.581163e+003, 1.961229e-002
3.583091e+003, 1.952962e-002
3.585020e+003, 1.890439e-002
3.586948e+003, 1.835677e-002
3.588876e+003, 1.838537e-002
3.590805e+003, 1.896255e-002
3.592733e+003, 1.931976e-002
3.594662e+003, 1.914220e-002
3.596590e+003, 1.871976e-002
3.598519e+003, 1.885466e-002
3.600447e+003, 1.904656e-002
3.602376e+003, 1.931203e-002
3.604304e+003, 1.974130e-002
3.606233e+003, 1.862351e-002
3.608161e+003, 1.753215e-002
3.610090e+003, 1.778777e-002
3.612018e+003, 1.778863e-002
3.613947e+003, 1.820092e-002
3.615875e+003, 1.867923e-002
3.617803e+003, 1.719429e-002
3.619732e+003, 1.741695e-002
3.621660e+003, 1.897479e-002
3.623589e+003, 1.934496e-002
3.625517e+003, 1.880113e-002
3.627446e+003, 1.604732e-002
3.629374e+003, 1.470596e-002
3.631303e+003, 1.687887e-002
3.633231e+003, 1.725054e-002
3.635160e+003, 1.723005e-002
3.637088e+003, 1.695604e-002
3.639017e+003, 1.678352e-002
3.640945e+003, 1.712244e-002
3.642874e+003, 1.787153e-002
3.644802e+003, 1.777431e-002
3.646730e+003, 1.514858e-002
3.648659e+003, 1.273428e-002
3.650587e+003, 1.382434e-002
3.652516e+003, 1.615672e-002
3.654444e+003, 1.556702e-002
3.656373e+003, 1.485085e-002
3.658301e+003, 1.622280e-002
3.660230e+003, 1.648544e-002
3.662158e+003, 1.688167e-002
3.664087e+003, 1.752253e-002
3.666015e+003, 1.811333e-002
3.667944e+003, 1.641167e-002
3.669872e+003, 1.301224e-002
3.671801e+003, 1.404389e-002
3.673729e+003, 1.421015e-002
3.675657e+003, 1.269252e-002
3.677586e+003, 1.493769e-002
3.679514e+003, 1.594737e-002
3.681443e+003, 1.652854e-002
3.683371e+003, 1.676690e-002
3.685300e+003, 1.617098e-002
3.687228e+003, 1.350363e-002
3.689157e+003, 1.322553e-002
3.691085e+003, 1.522500e-002
3.693014e+003, 1.639265e-002
3.694942e+003, 1.682359e-002
3.696871e+003, 1.654568e-002
3.698799e+003, 1.730468e-002
3.700728e+003, 1.721934e-002
3.702656e+003, 1.707499e-002
3.704584e+003, 1.727986e-002
3.706513e+003, 1.744311e-002
3.708441e+003, 1.624773e-002
3.710370e+003, 1.377091e-002
3.712298e+003, 1.276057e-002
3.714227e+003, 1.545429e-002
3.716155e+003, 1.687596e-002
3.718084e+003, 1.695065e-002
3.720012e+003, 1.676759e-002
3.721941e+003, 1.654161e-002
3.723869e+003, 1.623730e-002
3.725798e+003, 1.607096e-002
3.727726e+003, 1.633548e-002
3.729655e+003, 1.623777e-002
3.731583e+003, 1.512791e-002
3.733511e+003, 1.463280e-002
3.735440e+003, 1.390650e-002
3.737368e+003, 1.487670e-002
3.739297e+003, 1.651017e-002
3.741225e+003, 1.619177e-002
3.743154e+003, 1.152456e-002
3.745082e+003, 1.053731e-002
3.747011e+003, 1.406751e-002
3.748939e+003, 1.259698e-002
3.750868e+003, 1.102279e-002
3.752796e+003, 1.270635e-002
3.754725e+003, 1.641333e-002
3.756653e+003, 1.620264e-002
3.758582e+003, 1.568859e-002
3.760510e+003, 1.686350e-002
3.762438e+003, 1.793094e-002
3.764367e+003, 1.667205e-002
3.766295e+003, 1.671667e-002
3.768224e+003, 1.638460e-002
3.770152e+003, 1.632083e-002
3.772081e+003, 1.786873e-002
3.774009e+003, 1.823278e-002
3.775938e+003, 1.769544e-002
3.777866e+003, 1.674353e-002
3.779795e+003, 1.659357e-002
3.781723e+003, 1.749188e-002
3.783652e+003, 1.733053e-002
3.785580e+003, 1.757521e-002
3.787509e+003, 1.749717e-002
3.789437e+003, 1.729002e-002
3.791365e+003, 1.758819e-002
3.793294e+003, 1.799216e-002
3.795222e+003, 1.718703e-002
3.797151e+003, 1.711086e-002
3.799079e+003, 1.592469e-002
3.801008e+003, 1.363770e-002
3.802936e+003, 1.555241e-002
3.804865e+003, 1.611427e-002
3.806793e+003, 1.419039e-002
3.808722e+003, 1.623212e-002
3.810650e+003, 1.776655e-002
3.812579e+003, 1.786714e-002
3.814507e+003, 1.504121e-002
3.816436e+003, 1.362563e-002
3.818364e+003, 1.509737e-002
3.820292e+003, 1.402739e-002
3.822221e+003, 1.522350e-002
3.824149e+003, 1.709682e-002
3.826078e+003, 1.684383e-002
3.828006e+003, 1.691181e-002
3.829935e+003, 1.669245e-002
3.831863e+003, 1.625736e-002
3.833792e+003, 1.553483e-002
3.835720e+003, 1.393620e-002
3.837649e+003, 1.253081e-002
3.839577e+003, 1.415467e-002
3.841506e+003, 1.605595e-002
3.843434e+003, 1.686518e-002
3.845363e+003, 1.728713e-002
3.847291e+003, 1.781010e-002
3.849219e+003, 1.701451e-002
3.851148e+003, 1.323462e-002
3.853076e+003, 8.781472e-003
3.855005e+003, 1.192189e-002
3.856933e+003, 1.642536e-002
3.858862e+003, 1.717376e-002
3.860790e+003, 1.677275e-002
3.862719e+003, 1.587845e-002
3.864647e+003, 1.548043e-002
3.866576e+003, 1.613873e-002
3.868504e+003, 1.497872e-002
3.870433e+003, 1.470561e-002
3.872361e+003, 1.629477e-002
3.874290e+003, 1.658230e-002
3.876218e+003, 1.736877e-002
3.878146e+003, 1.651184e-002
3.880075e+003, 1.592170e-002
3.882003e+003, 1.630652e-002
3.883932e+003, 1.570250e-002
3.885860e+003, 1.530832e-002
3.887789e+003, 1.685709e-002
3.889717e+003, 1.699725e-002
3.891646e+003, 1.660200e-002
3.893574e+003, 1.735920e-002
3.895503e+003, 1.834721e-002
3.897431e+003, 1.819253e-002
3.899360e+003, 1.670886e-002
3.901288e+003, 1.591816e-002
3.903217e+003, 1.518786e-002
3.905145e+003, 1.542365e-002
3.907073e+003, 1.655285e-002
3.909002e+003, 1.765210e-002
3.910930e+003, 1.793115e-002
3.912859e+003, 1.776226e-002
3.914787e+003, 1.711294e-002
3.916716e+003, 1.698642e-002
3.918644e+003, 1.759586e-002
3.920573e+003, 1.714054e-002
3.922501e+003, 1.710911e-002
3.924430e+003, 1.731962e-002
3.926358e+003, 1.747960e-002
3.928287e+003, 1.755216e-002
3.930215e+003, 1.725563e-002
3.932144e+003, 1.661964e-002
3.934072e+003, 1.656166e-002
3.936000e+003, 1.701381e-002
3.937929e+003, 1.700232e-002
3.939857e+003, 1.720955e-002
3.941786e+003, 1.828119e-002
3.943714e+003, 1.841674e-002
3.945643e+003, 1.796401e-002
3.947571e+003, 1.772981e-002
3.949500e+003, 1.777952e-002
3.951428e+003, 1.724440e-002
3.953357e+003, 1.738388e-002
3.955285e+003, 1.855388e-002
3.957214e+003, 1.840739e-002
3.959142e+003, 1.776459e-002
3.961071e+003, 1.703616e-002
3.962999e+003, 1.662881e-002
3.964927e+003, 1.709589e-002
3.966856e+003, 1.774199e-002
3.968784e+003, 1.759114e-002
3.970713e+003, 1.773945e-002
3.972641e+003, 1.783420e-002
3.974570e+003, 1.749541e-002
3.976498e+003, 1.805776e-002
3.978427e+003, 1.788159e-002
3.980355e+003, 1.737882e-002
3.982284e+003, 1.736560e-002
3.984212e+003, 1.778285e-002
3.986141e+003, 1.800627e-002
3.988069e+003, 1.771653e-002
3.989998e+003, 1.762513e-002
3.991926e+003, 1.759940e-002
3.993854e+003, 1.733461e-002
3.995783e+003, 1.786389e-002
3.997711e+003, 1.768309e-002
3.999640e+003, 1.747657e-002
4.001568e+003, 0.000000e+000
##END=



