##NAMES=Baryte
##RRUFFID=R050335
##IDEAL CHEMISTRY=BaS^6+^O_4_
##LOCALITY=Bullion Mountains, San Bernardino County, California, USA
##OWNER=RRUFF
##SOURCE=California Institute of Technology
##DESCRIPTION=Colorless cleavage fragment
##STATUS=The identification of this mineral has been confirmed by X-ray diffraction and chemical analysis
##URL=rruff.info/R050335
##MEASURED CHEMISTRY=(Ba_0.95_Sr_0.05_)_Î£=1_S_1.00_O_4_
399.1926, 4.3735001E-03
401.1211, 9.3083791E-03
403.0496, 9.3531292E-03
404.9780, 9.0272296E-03
406.9065, 7.3325522E-03
408.8350, 7.2772251E-03
410.7634, 8.9124925E-03
412.6919, 8.2046865E-03
414.6204, 6.9039050E-03
416.5488, 6.7167971E-03
418.4773, 7.0728292E-03
420.4058, 5.5183489E-03
422.3342, 6.0118539E-03
424.2627, 8.5398545E-03
426.1912, 8.7165534E-03
428.1196, 7.4835271E-03
430.0481, 6.3567450E-03
431.9766, 6.7344219E-03
433.9050, 6.8548471E-03
435.8335, 7.3270360E-03
437.7620, 8.3219362E-03
439.6904, 7.2436752E-03
441.6189, 7.2868438E-03
443.5474, 9.0730162E-03
445.4758, 9.2530996E-03
447.4043, 8.8182623E-03
449.3328, 9.4359554E-03
451.2612, 1.0007320E-02
453.1897, 9.7919935E-03
455.1182, 1.0289270E-02
457.0466, 1.0674860E-02
458.9751, 1.0596980E-02
460.9036, 1.0513290E-02
462.8320, 1.0860100E-02
464.7605, 1.1449140E-02
466.6890, 1.2061880E-02
468.6174, 1.2248180E-02
470.5459, 1.2590850E-02
472.4744, 1.3058680E-02
474.4028, 1.2757950E-02
476.3313, 1.2319310E-02
478.2598, 1.1983250E-02
480.1882, 1.2173420E-02
482.1167, 1.2498540E-02
484.0452, 1.2208010E-02
485.9736, 1.2083850E-02
487.9021, 1.2318650E-02
489.8306, 1.2285680E-02
491.7590, 1.2106100E-02
493.6875, 1.2837390E-02
495.6160, 1.3955640E-02
497.5444, 1.4348730E-02
499.4729, 1.4607520E-02
501.4014, 1.5084840E-02
503.3298, 1.5344080E-02
505.2583, 1.5690541E-02
507.1868, 1.6635651E-02
509.1152, 1.7231470E-02
511.0437, 1.6915020E-02
512.9722, 1.7679671E-02
514.9006, 1.8154841E-02
516.8291, 1.8065510E-02
518.7576, 1.8725829E-02
520.6860, 1.9748470E-02
522.6145, 2.0813851E-02
524.5430, 2.1238090E-02
526.4714, 2.1573320E-02
528.3999, 2.2301059E-02
530.3284, 2.3360381E-02
532.2568, 2.4509979E-02
534.1853, 2.5440650E-02
536.1138, 2.5866650E-02
538.0422, 2.6943030E-02
539.9707, 2.8738450E-02
541.8992, 3.0185770E-02
543.8276, 3.0920731E-02
545.7561, 3.2292660E-02
547.6846, 3.4426719E-02
549.6130, 3.6124200E-02
551.5415, 3.8471401E-02
553.4700, 4.1441999E-02
555.3984, 4.3290000E-02
557.3269, 4.5501132E-02
559.2554, 4.8508771E-02
561.1838, 5.1982049E-02
563.1123, 5.6268930E-02
565.0408, 6.0552672E-02
566.9692, 6.5531768E-02
568.8977, 7.0907578E-02
570.8262, 7.7178888E-02
572.7546, 8.4823273E-02
574.6831, 9.4503582E-02
576.6116, 0.1052812
578.5400, 0.1179558
580.4685, 0.1330674
582.3970, 0.1496011
584.3254, 0.1678635
586.2539, 0.1889225
588.1824, 0.2124262
590.1108, 0.2367687
592.0393, 0.2622144
593.9678, 0.2896022
595.8962, 0.3176600
597.8247, 0.3444933
599.7532, 0.3668896
601.6816, 0.3810012
603.6101, 0.3830931
605.5386, 0.3713624
607.4670, 0.3454088
609.3955, 0.3108964
611.3240, 0.2728337
613.2524, 0.2357128
615.1809, 0.2028829
617.1094, 0.1760222
619.0378, 0.1547269
620.9663, 0.1395887
622.8948, 0.1318778
624.8232, 0.1321565
626.7517, 0.1397718
628.6802, 0.1521909
630.6086, 0.1619626
632.5371, 0.1643370
634.4656, 0.1589009
636.3940, 0.1475468
638.3225, 0.1331510
640.2510, 0.1176220
642.1794, 0.1014052
644.1079, 8.5898809E-02
646.0364, 7.1679153E-02
647.9648, 5.8797639E-02
649.8933, 4.7680121E-02
651.8218, 3.8299128E-02
653.7502, 3.0828850E-02
655.6787, 2.5791440E-02
657.6072, 2.2078350E-02
659.5356, 1.8917110E-02
661.4641, 1.6451379E-02
663.3926, 1.4272160E-02
665.3210, 1.2351640E-02
667.2495, 1.0900660E-02
669.1780, 9.6803494E-03
671.1064, 8.8482797E-03
673.0349, 8.2445862E-03
674.9634, 7.7870842E-03
676.8918, 7.3152059E-03
678.8203, 7.0751160E-03
680.7488, 7.0628030E-03
682.6772, 6.8793590E-03
684.6057, 6.8744170E-03
686.5342, 6.8467832E-03
688.4626, 6.6874148E-03
690.3911, 6.7661321E-03
692.3196, 7.0988699E-03
694.2480, 7.5601810E-03
696.1765, 7.9165762E-03
698.1050, 8.0943583E-03
700.0334, 8.3091715E-03
701.9619, 8.4775481E-03
703.8904, 8.5064974E-03
705.8188, 8.5624829E-03
707.7473, 8.4877210E-03
709.6758, 8.4786778E-03
711.6042, 8.8584591E-03
713.5327, 9.1698105E-03
715.4612, 8.9461654E-03
717.3896, 8.9399926E-03
719.3181, 9.0283211E-03
721.2466, 8.9302696E-03
723.1750, 8.9277672E-03
725.1035, 9.4361315E-03
727.0320, 9.9714873E-03
728.9604, 1.0252140E-02
730.8889, 1.0355330E-02
732.8174, 1.0284940E-02
734.7458, 1.0102210E-02
736.6743, 1.0171210E-02
738.6028, 1.0136750E-02
740.5313, 1.0345610E-02
742.4597, 1.0566880E-02
744.3882, 1.0795170E-02
746.3167, 1.1168000E-02
748.2451, 1.1206100E-02
750.1736, 1.1600070E-02
752.1021, 1.1780420E-02
754.0305, 1.1717960E-02
755.9590, 1.2045650E-02
757.8875, 1.2255600E-02
759.8159, 1.2477240E-02
761.7444, 1.2680640E-02
763.6729, 1.2711430E-02
765.6013, 1.3066390E-02
767.5298, 1.3383710E-02
769.4583, 1.3406620E-02
771.3867, 1.3772610E-02
773.3152, 1.4469650E-02
775.2437, 1.4692760E-02
777.1721, 1.4735010E-02
779.1006, 1.4990700E-02
781.0291, 1.5180270E-02
782.9575, 1.5266350E-02
784.8860, 1.5273540E-02
786.8145, 1.5471560E-02
788.7429, 1.5772140E-02
790.6714, 1.6375430E-02
792.5999, 1.6659509E-02
794.5283, 1.6788580E-02
796.4568, 1.6998040E-02
798.3853, 1.7181549E-02
800.3137, 1.7547470E-02
802.2422, 1.7771799E-02
804.1707, 1.7939210E-02
806.0991, 1.8366041E-02
808.0276, 1.8672051E-02
809.9561, 1.8673319E-02
811.8845, 1.8699629E-02
813.8130, 1.8943019E-02
815.7415, 1.9331301E-02
817.6699, 1.9753050E-02
819.5984, 2.0132480E-02
821.5269, 2.0139650E-02
823.4553, 2.0182541E-02
825.3838, 2.0592790E-02
827.3123, 2.1090239E-02
829.2407, 2.0988060E-02
831.1692, 2.0878680E-02
833.0977, 2.1140199E-02
835.0261, 2.1707160E-02
836.9546, 2.2122569E-02
838.8831, 2.1901021E-02
840.8115, 2.2085980E-02
842.7400, 2.2306681E-02
844.6685, 2.2397339E-02
846.5969, 2.2742650E-02
848.5254, 2.3211390E-02
850.4539, 2.3657920E-02
852.3823, 2.3879860E-02
854.3108, 2.4243681E-02
856.2393, 2.4574259E-02
858.1677, 2.4873530E-02
860.0962, 2.5715400E-02
862.0247, 2.6275661E-02
863.9531, 2.6829319E-02
865.8816, 2.7560530E-02
867.8101, 2.7891990E-02
869.7385, 2.8321940E-02
871.6670, 2.9238161E-02
873.5955, 3.0054221E-02
875.5239, 3.0618250E-02
877.4524, 3.1013900E-02
879.3809, 3.2168169E-02
881.3093, 3.3178668E-02
883.2378, 3.3735659E-02
885.1663, 3.4630239E-02
887.0947, 3.5317220E-02
889.0232, 3.5775691E-02
890.9517, 3.6765259E-02
892.8801, 3.7723389E-02
894.8085, 3.8472071E-02
896.7370, 3.9457891E-02
898.6655, 4.0567130E-02
900.5939, 4.1596111E-02
902.5224, 4.2600390E-02
904.4509, 4.3740649E-02
906.3793, 4.5002632E-02
908.3078, 4.6241149E-02
910.2363, 4.7059570E-02
912.1647, 4.8040200E-02
914.0932, 4.9419578E-02
916.0217, 5.0795589E-02
917.9501, 5.1846340E-02
919.8786, 5.2976701E-02
921.8071, 5.4367390E-02
923.7355, 5.5868000E-02
925.6640, 5.7496950E-02
927.5925, 5.9251908E-02
929.5209, 6.1089139E-02
931.4494, 6.2838688E-02
933.3779, 6.4524703E-02
935.3063, 6.6552147E-02
937.2348, 6.8714663E-02
939.1633, 7.0668072E-02
941.0917, 7.3118173E-02
943.0202, 7.5952269E-02
944.9487, 7.8820229E-02
946.8771, 8.1846513E-02
948.8056, 8.5055187E-02
950.7341, 8.8422291E-02
952.6625, 9.2170693E-02
954.5910, 9.6297093E-02
956.5195, 0.1004298
958.4479, 0.1051040
960.3764, 0.1106241
962.3049, 0.1168670
964.2333, 0.1235654
966.1618, 0.1300470
968.0903, 0.1369094
970.0187, 0.1454739
971.9472, 0.1562720
973.8757, 0.1696024
975.8041, 0.1872680
977.7326, 0.2124958
979.6611, 0.2473174
981.5895, 0.2795178
983.5180, 0.2701445
985.4465, 0.2117428
987.3749, 0.1568149
989.3034, 0.1350290
991.2319, 0.1366807
993.1603, 0.1467839
995.0888, 0.1589886
997.0173, 0.1712365
998.9457, 0.1828448
1000.874, 0.1942542
1002.803, 0.2056065
1004.731, 0.2169014
1006.660, 0.2281018
1008.588, 0.2397203
1010.517, 0.2516032
1012.445, 0.2633458
1014.373, 0.2752796
1016.302, 0.2872104
1018.230, 0.2991593
1020.159, 0.3116855
1022.087, 0.3243658
1024.016, 0.3370011
1025.944, 0.3499296
1027.873, 0.3635450
1029.801, 0.3771382
1031.730, 0.3903582
1033.658, 0.4039030
1035.587, 0.4185194
1037.515, 0.4328641
1039.444, 0.4474043
1041.372, 0.4617954
1043.301, 0.4754665
1045.229, 0.4892204
1047.157, 0.5029626
1049.086, 0.5157056
1051.014, 0.5280930
1052.943, 0.5400455
1054.871, 0.5502467
1056.800, 0.5582848
1058.728, 0.5637938
1060.657, 0.5667713
1062.585, 0.5681199
1064.514, 0.5672696
1066.442, 0.5641804
1068.371, 0.5581300
1070.299, 0.5491191
1072.228, 0.5387837
1074.156, 0.5288358
1076.084, 0.5189466
1078.013, 0.5083001
1079.941, 0.4977554
1081.870, 0.4881632
1083.798, 0.4781883
1085.727, 0.4678135
1087.655, 0.4570132
1089.584, 0.4459478
1091.512, 0.4344802
1093.441, 0.4236062
1095.369, 0.4129102
1097.298, 0.4019455
1099.226, 0.3911769
1101.155, 0.3804452
1103.083, 0.3703221
1105.011, 0.3610229
1106.940, 0.3516743
1108.868, 0.3424845
1110.797, 0.3333584
1112.725, 0.3244241
1114.654, 0.3154622
1116.582, 0.3066497
1118.511, 0.2981179
1120.439, 0.2899799
1122.368, 0.2819398
1124.296, 0.2740881
1126.225, 0.2666909
1128.153, 0.2588624
1130.082, 0.2508807
1132.010, 0.2428207
1133.938, 0.2354821
1135.867, 0.2284330
1137.795, 0.2215504
1139.724, 0.2152153
1141.652, 0.2090853
1143.581, 0.2033069
1145.509, 0.1983728
1147.438, 0.1942406
1149.366, 0.1906970
1151.295, 0.1878119
1153.223, 0.1859003
1155.152, 0.1846544
1157.080, 0.1834202
1159.009, 0.1817118
1160.937, 0.1798287
1162.865, 0.1779122
1164.794, 0.1757512
1166.722, 0.1737750
1168.651, 0.1727877
1170.579, 0.1721637
1172.508, 0.1716167
1174.436, 0.1709455
1176.365, 0.1700211
1178.293, 0.1685416
1180.222, 0.1666317
1182.150, 0.1644911
1184.079, 0.1615367
1186.007, 0.1577344
1187.936, 0.1533306
1189.864, 0.1484643
1191.792, 0.1432443
1193.721, 0.1379096
1195.649, 0.1322514
1197.578, 0.1264883
1199.506, 0.1204067
1201.435, 0.1146947
1203.363, 0.1092163
1205.292, 0.1031099
1207.220, 9.7104773E-02
1209.149, 9.1616713E-02
1211.077, 8.5536957E-02
1213.006, 7.9647541E-02
1214.934, 7.4434809E-02
1216.863, 6.9325961E-02
1218.791, 6.4565457E-02
1220.719, 6.0745928E-02
1222.648, 5.7053629E-02
1224.576, 5.2404512E-02
1226.505, 4.6628930E-02
1228.433, 4.0353399E-02
1230.362, 3.4351692E-02
1232.290, 2.9096579E-02
1234.219, 2.4812041E-02
1236.147, 2.1233460E-02
1238.076, 1.8474540E-02
1240.004, 1.6309040E-02
1241.933, 1.4609920E-02
1243.861, 1.3200970E-02
1245.790, 1.2061570E-02
1247.718, 1.1302790E-02
1249.646, 1.0069660E-02
1251.575, 9.0823118E-03
1253.503, 8.3981697E-03
1255.432, 7.8296540E-03
1257.360, 7.1642720E-03
1259.289, 6.4277342E-03
1261.217, 6.2487298E-03
1263.146, 6.0270661E-03
1265.074, 5.5491128E-03
1267.003, 5.2819541E-03
1268.931, 5.2957661E-03
1270.860, 5.0874529E-03
1272.788, 4.6606041E-03
1274.717, 4.2700218E-03
1276.645, 3.7287709E-03
1278.573, 3.4141929E-03
1280.502, 3.1519970E-03
1282.430, 2.8904059E-03
1284.359, 2.5315201E-03
1286.287, 2.1755020E-03
1288.216, 2.0435441E-03
1290.144, 2.0666390E-03
1292.073, 2.1668491E-03
1294.001, 2.0380470E-03
1295.930, 1.9235760E-03
1297.858, 1.9559970E-03
1299.787, 1.9573481E-03
1301.715, 1.6875180E-03
1303.644, 1.5401799E-03
1305.572, 1.5477930E-03
1307.500, 1.4707620E-03
1309.429, 1.2855669E-03
1311.357, 9.9458243E-04
1313.286, 1.0429070E-03
1315.214, 1.2527690E-03
1317.143, 1.2494010E-03
1319.071, 1.2027880E-03
1321.000, 1.0847281E-03
1322.928, 1.2835320E-03
1324.857, 1.4334250E-03
1326.785, 1.2801799E-03
1328.714, 1.2769670E-03
1330.642, 1.3130670E-03
1332.571, 1.3077561E-03
1334.499, 1.3448820E-03
1336.427, 1.2403131E-03
1338.356, 1.0843630E-03
1340.284, 1.0419691E-03
1342.213, 1.2630650E-03
1344.141, 1.6409480E-03
1346.070, 1.4278060E-03
1347.998, 1.0147210E-03
1349.927, 8.6631568E-04
1351.855, 9.9649129E-04
1353.784, 1.0170990E-03
1355.712, 1.2987721E-03
1357.641, 1.2595051E-03
1359.569, 8.5102947E-04
1361.498, 7.5041648E-04
1363.426, 7.7871041E-04
1365.354, 9.2514948E-04
1367.283, 1.0475270E-03
1369.211, 9.5657172E-04
1371.140, 9.4595132E-04
1373.068, 9.6049649E-04
1374.997, 8.7177352E-04
1376.925, 8.8560669E-04
1378.854, 7.5508811E-04
1380.782, 6.0330023E-04
1382.711, 8.4184099E-04
1384.639, 1.1360650E-03
1386.568, 1.1573019E-03
1388.496, 1.0809239E-03
1390.424, 1.0179990E-03
1392.353, 1.0488949E-03
1394.281, 1.3241470E-03
1396.210, 1.2849020E-03
1398.138, 1.1037920E-03
1400.067, 1.1043390E-03
1401.995, 1.0784960E-03
1403.924, 1.1173540E-03
1405.852, 1.5175550E-03
1407.781, 1.5223960E-03
1409.709, 1.4334120E-03
1411.638, 1.6245750E-03
1413.566, 1.6620629E-03
1415.495, 1.3675600E-03
1417.423, 1.2815510E-03
1419.351, 1.5183610E-03
1421.280, 1.6707079E-03
1423.208, 1.7356300E-03
1425.137, 1.8199080E-03
1427.065, 1.8382580E-03
1428.994, 1.8005200E-03
1430.922, 1.6009430E-03
1432.851, 1.5985790E-03
1434.779, 1.7591330E-03
1436.708, 1.7273170E-03
1438.636, 1.7214140E-03
1440.565, 1.6524090E-03
1442.493, 1.5362171E-03
1444.422, 1.4650139E-03
1446.350, 1.5005480E-03
1448.278, 1.5183740E-03
1450.207, 1.5879300E-03
1452.135, 1.4476150E-03
1454.064, 1.0657510E-03
1455.992, 7.8936061E-04
1457.921, 7.1607012E-04
1459.849, 9.6001418E-04
1461.778, 1.1224460E-03
1463.706, 1.0655320E-03
1465.635, 1.0595900E-03
1467.563, 1.2964300E-03
1469.492, 1.7883620E-03
1471.420, 2.1081390E-03
1473.349, 2.3886750E-03
1475.277, 2.6641190E-03
1477.205, 2.9357700E-03
1479.134, 2.8351350E-03
1481.062, 2.8804829E-03
1482.991, 3.1537849E-03
1484.919, 3.1864650E-03
1486.848, 3.2270930E-03
1488.776, 3.0729510E-03
1490.705, 2.8236781E-03
1492.633, 2.8867419E-03
1494.562, 3.0741449E-03
1496.490, 3.1289801E-03
1498.419, 3.2886330E-03
1500.347, 3.3632179E-03
1502.276, 3.2398170E-03
1504.204, 3.2950181E-03
1506.132, 3.5415939E-03
1508.061, 3.6553580E-03
1509.989, 3.5021720E-03
1511.918, 3.4397149E-03
1513.846, 3.4210591E-03
1515.775, 3.4139571E-03
1517.703, 3.7243450E-03
1519.632, 3.9751171E-03
1521.560, 4.1335570E-03
1523.489, 4.3273270E-03
1525.417, 4.4887550E-03
1527.346, 4.5973579E-03
1529.274, 4.7409409E-03
1531.203, 4.8720711E-03
1533.131, 5.0973631E-03
1535.059, 5.2339202E-03
1536.988, 5.2326429E-03
1538.916, 5.1319110E-03
1540.845, 5.0239312E-03
1542.773, 5.0411890E-03
1544.702, 5.1856060E-03
1546.630, 5.4112920E-03
1548.559, 5.5798031E-03
1550.487, 5.4543591E-03
1552.416, 5.3589419E-03
1554.344, 5.7679391E-03
1556.273, 6.0337810E-03
1558.201, 5.7371580E-03
1560.130, 5.4240781E-03
1562.058, 5.1541119E-03
1563.986, 5.1234020E-03
1565.915, 5.2973959E-03
1567.843, 5.4767141E-03
1569.772, 5.6578121E-03
1571.700, 5.6352001E-03
1573.629, 5.5267792E-03
1575.557, 5.6235520E-03
1577.486, 5.7420111E-03
1579.414, 5.6783180E-03
1581.343, 5.6483750E-03
1583.271, 5.7100640E-03
1585.200, 5.7287761E-03
1587.128, 5.7221712E-03
1589.057, 5.9489552E-03
1590.985, 6.1926711E-03
1592.913, 6.3675242E-03
1594.842, 6.3649388E-03
1596.770, 6.1400831E-03
1598.699, 5.8510629E-03
1600.627, 5.5833738E-03
1602.556, 5.2546719E-03
1604.484, 5.0494419E-03
1606.413, 5.3663808E-03
1608.341, 5.6691631E-03
1610.270, 5.9684739E-03
1612.198, 6.0259989E-03
1614.127, 5.4882518E-03
1616.055, 4.9441271E-03
1617.984, 4.9088350E-03
1619.912, 5.3749681E-03
1621.840, 5.5550481E-03
1623.769, 5.4873098E-03
1625.697, 5.4983869E-03
1627.626, 5.2084308E-03
1629.554, 5.0139199E-03
1631.483, 5.4995408E-03
1633.411, 5.7450901E-03
1635.340, 5.4784128E-03
1637.268, 5.3960420E-03
1639.197, 5.6096790E-03
1641.125, 5.5964380E-03
1643.054, 5.5959909E-03
1644.982, 5.4381052E-03
1646.911, 5.5937832E-03
1648.839, 5.6039668E-03
1650.767, 5.1498129E-03
1652.696, 5.1198141E-03
1654.624, 5.5253920E-03
1656.553, 5.5872570E-03
1658.481, 5.3507928E-03
1660.410, 5.4398258E-03
1662.338, 5.4622940E-03
1664.267, 5.2220849E-03
1666.195, 5.2594999E-03
1668.124, 5.2422602E-03
1670.052, 4.9104081E-03
1671.981, 5.0034840E-03
1673.909, 5.4834941E-03
1675.838, 5.6536440E-03
1677.766, 5.3118719E-03
1679.694, 5.0697201E-03
1681.623, 5.1723891E-03
1683.551, 5.4268441E-03
1685.480, 5.5907820E-03
1687.408, 5.2814642E-03
1689.337, 5.0069541E-03
1691.265, 5.1045311E-03
1693.194, 5.0017778E-03
1695.122, 4.5779929E-03
1697.051, 4.3722978E-03
1698.979, 4.4036000E-03
1700.908, 4.2856932E-03
1702.836, 4.3919138E-03
1704.765, 4.2655841E-03
1706.693, 3.6242900E-03
1708.621, 3.1040360E-03
1710.550, 2.8843530E-03
1712.478, 3.1018120E-03
1714.407, 3.2710331E-03
1716.335, 3.3031581E-03
1718.264, 3.5077340E-03
1720.192, 3.4803471E-03
1722.121, 3.7274701E-03
1724.049, 4.1344850E-03
1725.978, 3.9458009E-03
1727.906, 3.0894559E-03
1729.835, 2.9935171E-03
1731.763, 3.2665720E-03
1733.692, 2.9578020E-03
1735.620, 2.6268261E-03
1737.548, 1.9313620E-03
1739.477, 1.3000011E-03
1741.405, 1.1358070E-03
1743.334, 1.0826300E-03
1745.262, 9.5886720E-04
1747.191, 1.2332801E-03
1749.119, 1.9154040E-03
1751.048, 2.5652931E-03
1752.976, 3.0207350E-03
1754.905, 3.6106340E-03
1756.833, 4.4487962E-03
1758.762, 5.0414111E-03
1760.690, 5.1401998E-03
1762.619, 4.9858610E-03
1764.547, 5.3925319E-03
1766.475, 5.9124702E-03
1768.404, 5.8257529E-03
1770.332, 5.5076298E-03
1772.261, 5.4754228E-03
1774.189, 5.4336041E-03
1776.118, 5.6010280E-03
1778.046, 6.0686399E-03
1779.975, 6.3988389E-03
1781.903, 6.6422708E-03
1783.832, 6.7590992E-03
1785.760, 6.4037070E-03
1787.689, 6.2489058E-03
1789.617, 6.2416000E-03
1791.546, 6.7594061E-03
1793.474, 7.0813880E-03
1795.402, 6.7337528E-03
1797.331, 6.1162142E-03
1799.259, 5.8265510E-03
1801.188, 6.1340309E-03
1803.116, 6.4598620E-03
1805.045, 6.5561458E-03
1806.973, 6.1700260E-03
1808.902, 6.0072420E-03
1810.830, 6.3274400E-03
1812.759, 6.3578519E-03
1814.687, 6.0582040E-03
1816.616, 6.1210538E-03
1818.544, 6.5486711E-03
1820.473, 6.3680629E-03
1822.401, 6.3917930E-03
1824.329, 6.8735238E-03
1826.258, 6.9968938E-03
1828.186, 7.0381998E-03
1830.115, 6.7939740E-03
1832.043, 6.4171059E-03
1833.972, 6.9553978E-03
1835.900, 6.9207400E-03
1837.829, 6.4312308E-03
1839.757, 6.5970938E-03
1841.686, 6.8800119E-03
1843.614, 7.2106938E-03
1845.543, 7.5108879E-03
1847.471, 6.8945852E-03
1849.400, 6.5853321E-03
1851.328, 6.7298831E-03
1853.256, 7.3070871E-03
1855.185, 7.6748570E-03
1857.113, 7.1200761E-03
1859.042, 6.4477781E-03
1860.970, 6.3800090E-03
1862.899, 6.9920081E-03
1864.827, 7.0555890E-03
1866.756, 6.7345700E-03
1868.684, 6.1435718E-03
1870.613, 6.2937532E-03
1872.541, 6.7468709E-03
1874.470, 6.6099172E-03
1876.398, 5.9927311E-03
1878.327, 5.7747210E-03
1880.255, 6.1149499E-03
1882.183, 6.8098479E-03
1884.112, 6.8386700E-03
1886.040, 6.8024411E-03
1887.969, 6.3506351E-03
1889.897, 5.5554882E-03
1891.826, 5.8863619E-03
1893.754, 6.7247339E-03
1895.683, 6.2330300E-03
1897.611, 6.2153600E-03
1899.540, 6.6407709E-03
1901.468, 6.0149808E-03
1903.397, 5.4219100E-03
1905.325, 5.4730941E-03
1907.254, 5.7809199E-03
1909.182, 6.6059311E-03
1911.110, 6.5240781E-03
1913.039, 6.0801888E-03
1914.967, 5.7759960E-03
1916.896, 5.3109662E-03
1918.824, 4.5932690E-03
1920.753, 4.3910821E-03
1922.681, 4.9494491E-03
1924.610, 5.3501800E-03
1926.538, 4.7433921E-03
1928.467, 5.7117119E-03
1930.395, 6.5551000E-03
1932.324, 6.5892022E-03
1934.252, 6.1767921E-03
1936.181, 6.1729332E-03
1938.109, 6.0894899E-03
1940.037, 4.4105491E-03
1941.966, 2.2588361E-03
1943.894, 4.8183189E-03
1945.823, 6.2288102E-03
1947.751, 4.0692710E-03
1949.680, 2.2638571E-03
1951.608, 1.6802300E-03
1953.537, 1.9616000E-03
1955.465, 2.9308200E-03
1957.394, 3.7377700E-03
1959.322, 2.0155620E-03
1961.251, 8.5204339E-04
1963.179, 1.4553260E-03
1965.108, 1.1900991E-03
1967.036, 8.2255880E-05
1968.964, 5.4538238E-04
1970.893, 2.0666760E-03
1972.821, 3.5442279E-03
1974.750, 1.5864780E-03
1976.678, 2.7031179E-03
1978.607, 7.0012589E-03
1980.535, 6.1630402E-03
1982.464, 4.3766000E-03
1984.392, 4.3367129E-03
1986.321, 4.8864139E-03
1988.249, 4.2942269E-03
1990.178, 4.3789148E-03
1992.106, 4.7270101E-03
1994.035, 3.0500221E-03
1995.963, -1.3721790E-04
1997.891, 9.2285227E-05
1999.820, 1.8413870E-03
2001.748, 1.8874310E-03
2003.677, 1.0418830E-03
2005.605, 1.6829730E-03
2007.534, 9.1050402E-04
2009.462, -1.6046020E-05
2011.391, -5.1654980E-04
2013.319, -1.1343909E-03
2015.248, -4.5447459E-04
2017.176, -6.2857883E-04
2019.105, 1.0722770E-03
2021.033, 1.2407330E-03
2022.962, -5.6152261E-04
2024.890, -4.8534950E-04
2026.818, 9.1750262E-04
2028.747, -6.6838949E-04
2030.675, -2.5076231E-03
2032.604, -1.1145450E-04
2034.532, 9.8402554E-04
2036.461, 1.8552450E-03
2038.389, 2.5709281E-03
2040.318, 1.9120090E-03
2042.246, 2.1509251E-03
2044.175, 3.7013900E-03
2046.103, 6.0786931E-03
2048.032, 9.0479106E-03
2049.960, 8.8308444E-03
2051.889, 5.9142229E-03
2053.817, 4.8614680E-03
2055.746, 6.0109859E-03
2057.674, 5.3861858E-03
2059.603, 5.7079992E-03
2061.531, 7.4812621E-03
2063.459, 6.9576818E-03
2065.388, 5.7491711E-03
2067.316, 6.4323270E-03
2069.245, 7.1099340E-03
2071.173, 7.5642820E-03
2073.102, 8.0904467E-03
2075.030, 7.8887632E-03
2076.959, 6.3675819E-03
2078.887, 4.5237001E-03
2080.816, 4.1885679E-03
2082.744, 5.4023098E-03
2084.673, 7.1116351E-03
2086.601, 6.1637140E-03
2088.530, 5.6013302E-03
2090.458, 5.3483220E-03
2092.386, 3.9497288E-03
2094.315, 3.8593560E-03
2096.243, 6.4838561E-03
2098.172, 6.1374898E-03
2100.100, 4.5299288E-03
2102.029, 4.8569650E-03
2103.957, 5.7971068E-03
2105.886, 6.1977790E-03
2107.814, 6.4168149E-03
2109.743, 7.4096778E-03
2111.671, 6.3117412E-03
2113.600, 5.1314910E-03
2115.528, 5.4748650E-03
2117.457, 5.6822291E-03
2119.385, 5.3271130E-03
2121.313, 4.9882322E-03
2123.242, 5.1759132E-03
2125.170, 4.9528410E-03
2127.099, 3.5970730E-03
2129.027, 2.1954421E-03
2130.956, 1.7128200E-03
2132.884, 1.3409640E-03
2134.813, 2.4158440E-03
2136.741, 3.8400651E-03
2138.670, 2.2801841E-03
2140.598, -1.8857489E-04
2142.527, -1.9439610E-03
2144.455, -3.0564319E-03
2146.384, -1.9943709E-03
2148.312, -3.6886239E-03
2150.240, -5.4193288E-03
2152.169, -5.0367252E-03
2154.097, -5.4824110E-03
2156.026, -7.8585967E-03
2157.954, -6.3068499E-03
2159.883, -1.5564060E-03
2161.811, -4.7736111E-04
2163.740, -1.8407170E-03
2165.668, -2.1368009E-03
2167.597, -1.2312880E-03
2169.525, -5.6643788E-05
2171.454, -1.2165800E-04
2173.382, 1.2220580E-03
2175.311, 1.5301320E-03
2177.239, 1.9831350E-03
2179.167, 1.7936730E-03
2181.096, 9.9891610E-04
2183.024, 9.3890558E-04
2184.953, 3.5741550E-04
2186.881, 2.7393911E-04
2188.810, 1.5202330E-03
2190.738, 2.2503471E-03
2192.667, 2.8159330E-03
2194.595, 8.8871049E-04
2196.524, 4.4020041E-04
2198.452, 3.2029820E-03
2200.381, 4.3305880E-03
2202.309, 3.8239651E-03
2204.238, 4.1757580E-03
2206.166, 2.4867700E-03
2208.094, 1.9896110E-03
2210.023, 3.2105090E-03
2211.951, 2.5945529E-03
2213.880, 1.6316200E-03
2215.808, 2.2556409E-03
2217.737, 4.6128021E-03
2219.665, 5.5745100E-03
2221.594, 4.4618151E-03
2223.522, 5.8506280E-03
2225.451, 4.8195780E-03
2227.379, 3.7700620E-03
2229.308, 4.4521508E-03
2231.236, 5.3785099E-03
2233.165, 4.4923378E-03
2235.093, 3.6455120E-03
2237.021, 5.2430280E-03
2238.950, 6.3589299E-03
2240.878, 6.0501900E-03
2242.807, 6.7175459E-03
2244.735, 7.3123751E-03
2246.664, 7.1496931E-03
2248.592, 6.3314219E-03
2250.521, 6.5842611E-03
2252.449, 6.3205729E-03
2254.378, 6.9877249E-03
2256.306, 8.1741503E-03
2258.235, 8.6105494E-03
2260.163, 7.8196004E-03
2262.092, 7.2339000E-03
2264.020, 8.0193561E-03
2265.948, 8.8325934E-03
2267.877, 8.6307134E-03
2269.805, 7.7075688E-03
2271.734, 7.9113049E-03
2273.662, 8.5975574E-03
2275.591, 9.0614604E-03
2277.519, 9.3454057E-03
2279.448, 9.5773488E-03
2281.376, 9.5577436E-03
2283.305, 9.0565206E-03
2285.233, 9.1571705E-03
2287.162, 9.8935347E-03
2289.090, 1.0170720E-02
2291.019, 1.0557680E-02
2292.947, 1.1383280E-02
2294.875, 1.1174220E-02
2296.804, 1.0765720E-02
2298.732, 9.9547412E-03
2300.661, 1.0624540E-02
2302.589, 1.1478540E-02
2304.518, 1.1265110E-02
2306.446, 1.1307460E-02
2308.375, 1.1973170E-02
2310.303, 1.1675510E-02
2312.232, 1.1004790E-02
2314.160, 1.1026840E-02
2316.089, 1.1127510E-02
2318.017, 1.1697940E-02
2319.946, 1.2260210E-02
2321.874, 1.3161840E-02
2323.802, 1.3841210E-02
2325.731, 1.3043960E-02
2327.659, 1.2284110E-02
2329.588, 1.2289210E-02
2331.516, 1.2129630E-02
2333.445, 1.1744280E-02
2335.373, 1.1355520E-02
2337.302, 1.1176880E-02
2339.230, 1.1652410E-02
2341.159, 1.2060080E-02
2343.087, 1.1600790E-02
2345.016, 1.0616730E-02
2346.944, 1.0202090E-02
2348.873, 1.0295060E-02
2350.801, 1.0289740E-02
2352.729, 1.0674580E-02
2354.658, 1.1770220E-02
2356.586, 1.1951670E-02
2358.515, 1.0883650E-02
2360.443, 1.0597510E-02
2362.372, 1.0835080E-02
2364.300, 1.0485030E-02
2366.229, 9.8430961E-03
2368.157, 9.7813252E-03
2370.086, 9.4164219E-03
2372.014, 1.0028570E-02
2373.942, 1.0480110E-02
2375.871, 1.1501410E-02
2377.799, 1.1385990E-02
2379.728, 1.0580850E-02
2381.656, 1.0554100E-02
2383.585, 1.0622250E-02
2385.513, 1.0397290E-02
2387.442, 1.0749740E-02
2389.370, 1.0919300E-02
2391.299, 9.9695427E-03
2393.227, 9.6053593E-03
2395.156, 9.7575253E-03
2397.084, 1.0136570E-02
2399.012, 1.0596410E-02
2400.941, 1.0224700E-02
2402.869, 9.1855684E-03
2404.798, 9.0458458E-03
2406.726, 9.8629436E-03
2408.655, 1.1180040E-02
2410.583, 1.1485320E-02
2412.512, 1.1017710E-02
2414.440, 1.0153180E-02
2416.369, 9.7616753E-03
2418.297, 1.0048120E-02
2420.226, 1.0584230E-02
2422.154, 1.1637580E-02
2424.083, 1.1885470E-02
2426.011, 1.1829890E-02
2427.939, 1.1959880E-02
2429.868, 1.2328300E-02
2431.796, 1.2938420E-02
2433.725, 1.2293940E-02
2435.653, 1.0957280E-02
2437.582, 1.1498900E-02
2439.510, 1.2236480E-02
2441.439, 1.2378660E-02
2443.367, 1.2533670E-02
2445.296, 1.3181100E-02
2447.224, 1.3147910E-02
2449.153, 1.3625200E-02
2451.081, 1.2711230E-02
2453.010, 1.1322090E-02
2454.938, 1.1236700E-02
2456.866, 1.1090710E-02
2458.795, 1.1890650E-02
2460.723, 1.3777040E-02
2462.652, 1.4131410E-02
2464.580, 1.3518080E-02
2466.509, 1.3807520E-02
2468.437, 1.3515130E-02
2470.366, 1.2947430E-02
2472.294, 1.3995090E-02
2474.223, 1.4881200E-02
2476.151, 1.4711630E-02
2478.080, 1.4628120E-02
2480.008, 1.3367050E-02
2481.937, 1.2140860E-02
2483.865, 1.2568040E-02
2485.793, 1.3765480E-02
2487.722, 1.3679650E-02
2489.650, 1.3054930E-02
2491.579, 1.3394480E-02
2493.507, 1.3215900E-02
2495.436, 1.3276010E-02
2497.364, 1.3377410E-02
2499.293, 1.4112440E-02
2501.221, 1.4048520E-02
2503.150, 1.3561230E-02
2505.078, 1.3957350E-02
2507.007, 1.3569260E-02
2508.935, 1.3431310E-02
2510.864, 1.4784700E-02
2512.792, 1.4338220E-02
2514.720, 1.3691590E-02
2516.649, 1.4880640E-02
2518.577, 1.4742240E-02
2520.506, 1.3590490E-02
2522.434, 1.3789700E-02
2524.363, 1.3935940E-02
2526.291, 1.3201990E-02
2528.220, 1.4082040E-02
2530.148, 1.5098650E-02
2532.077, 1.4306650E-02
2534.005, 1.3594340E-02
2535.934, 1.3964670E-02
2537.862, 1.4495080E-02
2539.791, 1.4483580E-02
2541.719, 1.3789800E-02
2543.647, 1.4121020E-02
2545.576, 1.5050490E-02
2547.504, 1.5272740E-02
2549.433, 1.5109690E-02
2551.361, 1.5727939E-02
2553.290, 1.5912490E-02
2555.218, 1.4945130E-02
2557.147, 1.4543670E-02
2559.075, 1.5064030E-02
2561.004, 1.4427370E-02
2562.932, 1.3982200E-02
2564.861, 1.6214989E-02
2566.789, 1.6543150E-02
2568.718, 1.5215260E-02
2570.646, 1.4815240E-02
2572.574, 1.5697209E-02
2574.503, 1.5056450E-02
2576.431, 1.3736210E-02
2578.360, 1.5072080E-02
2580.288, 1.6516401E-02
2582.217, 1.6332520E-02
2584.145, 1.6350981E-02
2586.074, 1.5550890E-02
2588.002, 1.4637930E-02
2589.931, 1.5292900E-02
2591.859, 1.6438650E-02
2593.788, 1.5927849E-02
2595.716, 1.5240140E-02
2597.645, 1.5887979E-02
2599.573, 1.5789021E-02
2601.501, 1.6423009E-02
2603.430, 1.7430000E-02
2605.358, 1.6344801E-02
2607.287, 1.5662860E-02
2609.215, 1.6133340E-02
2611.144, 1.5859120E-02
2613.072, 1.5380830E-02
2615.001, 1.5700679E-02
2616.929, 1.5127760E-02
2618.858, 1.5060650E-02
2620.786, 1.6391721E-02
2622.715, 1.6953601E-02
2624.643, 1.6609959E-02
2626.572, 1.6741650E-02
2628.500, 1.6708430E-02
2630.428, 1.6922081E-02
2632.357, 1.7082861E-02
2634.285, 1.7054530E-02
2636.214, 1.6651809E-02
2638.142, 1.6511630E-02
2640.071, 1.6314190E-02
2641.999, 1.5998140E-02
2643.928, 1.6422620E-02
2645.856, 1.5968600E-02
2647.785, 1.4959080E-02
2649.713, 1.6402360E-02
2651.642, 1.7164310E-02
2653.570, 1.6297190E-02
2655.499, 1.6220780E-02
2657.427, 1.6859779E-02
2659.355, 1.6778050E-02
2661.284, 1.5578270E-02
2663.212, 1.5574800E-02
2665.141, 1.6708910E-02
2667.069, 1.6954141E-02
2668.998, 1.5583000E-02
2670.926, 1.4754560E-02
2672.855, 1.5633440E-02
2674.783, 1.6097810E-02
2676.712, 1.5900800E-02
2678.640, 1.5617890E-02
2680.569, 1.5269650E-02
2682.497, 1.4435510E-02
2684.426, 1.4960840E-02
2686.354, 1.6162209E-02
2688.282, 1.6268469E-02
2690.211, 1.5655810E-02
2692.139, 1.5252510E-02
2694.068, 1.5285500E-02
2695.996, 1.6048141E-02
2697.925, 1.6210711E-02
2699.853, 1.5539400E-02
2701.782, 1.5348680E-02
2703.710, 1.6087620E-02
2705.639, 1.6603591E-02
2707.567, 1.5671641E-02
2709.496, 1.5749309E-02
2711.424, 1.6212899E-02
2713.353, 1.6425600E-02
2715.281, 1.6273281E-02
2717.209, 1.5403350E-02
2719.138, 1.5060620E-02
2721.066, 1.5630940E-02
2722.995, 1.6468549E-02
2724.923, 1.7981820E-02
2726.852, 1.7383389E-02
2728.780, 1.5721461E-02
2730.709, 1.6114241E-02
2732.637, 1.6710300E-02
2734.566, 1.6327260E-02
2736.494, 1.6223351E-02
2738.423, 1.6840991E-02
2740.351, 1.6396509E-02
2742.280, 1.5827039E-02
2744.208, 1.6433829E-02
2746.136, 1.7267250E-02
2748.065, 1.7898589E-02
2749.993, 1.7713111E-02
2751.922, 1.7170129E-02
2753.850, 1.6726220E-02
2755.779, 1.6233049E-02
2757.707, 1.6903279E-02
2759.636, 1.6969619E-02
2761.564, 1.6131841E-02
2763.493, 1.6179670E-02
2765.421, 1.6980181E-02
2767.350, 1.6980020E-02
2769.278, 1.6680280E-02
2771.207, 1.6621420E-02
2773.135, 1.5908130E-02
2775.063, 1.5836950E-02
2776.992, 1.6265400E-02
2778.920, 1.7108450E-02
2780.849, 1.7953200E-02
2782.777, 1.7164880E-02
2784.706, 1.6743479E-02
2786.634, 1.7532140E-02
2788.563, 1.7772820E-02
2790.491, 1.6971750E-02
2792.420, 1.7509719E-02
2794.348, 1.8481489E-02
2796.277, 1.7909991E-02
2798.205, 1.7139411E-02
2800.134, 1.7155610E-02
2802.062, 1.7677190E-02
2803.990, 1.7541900E-02
2805.919, 1.7765479E-02
2807.847, 1.8238960E-02
2809.776, 1.8323470E-02
2811.704, 1.7701650E-02
2813.633, 1.7109800E-02
2815.561, 1.6920229E-02
2817.490, 1.7154230E-02
2819.418, 1.6696811E-02
2821.347, 1.6848240E-02
2823.275, 1.7826620E-02
2825.204, 1.8005719E-02
2827.132, 1.7026180E-02
2829.061, 1.6307689E-02
2830.989, 1.6431291E-02
2832.917, 1.6687280E-02
2834.846, 1.6973840E-02
2836.774, 1.7439259E-02
2838.703, 1.7202999E-02
2840.631, 1.5444600E-02
2842.560, 1.5519560E-02
2844.488, 1.6067140E-02
2846.417, 1.5603230E-02
2848.345, 1.6111581E-02
2850.274, 1.6306320E-02
2852.202, 1.6209170E-02
2854.131, 1.6584801E-02
2856.059, 1.7365400E-02
2857.988, 1.8340349E-02
2859.916, 1.8603509E-02
2861.844, 1.9381300E-02
2863.773, 1.8305810E-02
2865.701, 1.6066629E-02
2867.630, 1.6013820E-02
2869.558, 1.5923239E-02
2871.487, 1.5536940E-02
2873.415, 1.5833000E-02
2875.344, 1.6540410E-02
2877.272, 1.7708810E-02
2879.201, 1.7583041E-02
2881.129, 1.7377580E-02
2883.058, 1.7290959E-02
2884.986, 1.7992180E-02
2886.915, 1.7792610E-02
2888.843, 1.7553899E-02
2890.771, 1.7113680E-02
2892.700, 1.6854869E-02
2894.628, 1.7109031E-02
2896.557, 1.7618731E-02
2898.485, 1.7046539E-02
2900.414, 1.6690060E-02
2902.342, 1.6784640E-02
2904.271, 1.5677519E-02
2906.199, 1.4910850E-02
2908.128, 1.5257300E-02
2910.056, 1.5413320E-02
2911.985, 1.6343100E-02
2913.913, 1.7832540E-02
2915.842, 1.7476050E-02
2917.770, 1.6391940E-02
2919.698, 1.8467279E-02
2921.627, 1.9290671E-02
2923.555, 1.7272610E-02
2925.484, 1.6916741E-02
2927.412, 1.6771240E-02
2929.341, 1.6910531E-02
2931.269, 1.7975770E-02
2933.198, 1.8203979E-02
2935.126, 1.8140940E-02
2937.055, 1.8701570E-02
2938.983, 1.9479390E-02
2940.912, 1.8740620E-02
2942.840, 1.7066630E-02
2944.769, 1.6726160E-02
2946.697, 1.7895769E-02
2948.625, 1.9375561E-02
2950.554, 1.9391449E-02
2952.482, 1.9732790E-02
2954.411, 1.9158131E-02
2956.339, 1.8451620E-02
2958.268, 1.9943440E-02
2960.196, 2.0194490E-02
2962.125, 2.0072579E-02
2964.053, 2.0170979E-02
2965.982, 1.9648690E-02
2967.910, 1.9638609E-02
2969.839, 1.9915640E-02
2971.767, 1.9856401E-02
2973.696, 1.8463690E-02
2975.624, 1.8984331E-02
2977.552, 2.0726079E-02
2979.481, 2.1188010E-02
2981.409, 1.9651130E-02
2983.338, 1.9294450E-02
2985.266, 2.0100970E-02
2987.195, 2.0583751E-02
2989.123, 1.9792510E-02
2991.052, 1.8805740E-02
2992.980, 1.9716380E-02
2994.909, 1.9072169E-02
2996.837, 1.8079160E-02
2998.766, 1.9195789E-02
3000.694, 2.0330230E-02
3002.623, 2.1029601E-02
3004.551, 2.1994149E-02
3006.479, 2.1883320E-02
3008.408, 2.0837151E-02
3010.336, 1.8912790E-02
3012.265, 1.8505501E-02
3014.193, 1.8940199E-02
3016.122, 1.8720020E-02
3018.050, 1.9178551E-02
3019.979, 2.0923819E-02
3021.907, 2.1460541E-02
3023.836, 2.0590579E-02
3025.764, 2.0504471E-02
3027.693, 2.0290000E-02
3029.621, 2.0408159E-02
3031.550, 1.8631451E-02
3033.478, 1.8055281E-02
3035.406, 2.0741090E-02
3037.335, 2.1044040E-02
3039.263, 2.0003431E-02
3041.192, 2.0858180E-02
3043.120, 2.0766580E-02
3045.049, 1.8832199E-02
3046.977, 1.8557100E-02
3048.906, 2.0168399E-02
3050.834, 1.8783141E-02
3052.763, 1.8941211E-02
3054.691, 2.0436140E-02
3056.620, 2.0477990E-02
3058.548, 2.0158861E-02
3060.477, 2.1456961E-02
3062.405, 2.2592820E-02
3064.333, 1.9784519E-02
3066.262, 1.7412610E-02
3068.190, 1.8238589E-02
3070.119, 1.9042820E-02
3072.047, 1.8378910E-02
3073.976, 1.8573569E-02
3075.904, 1.7868290E-02
3077.833, 1.7369250E-02
3079.761, 1.8344400E-02
3081.690, 2.0135971E-02
3083.618, 2.0911790E-02
3085.547, 2.0685360E-02
3087.475, 2.2174081E-02
3089.404, 2.2442089E-02
3091.332, 2.0273250E-02
3093.260, 1.8808570E-02
3095.189, 1.8528460E-02
3097.117, 1.9538639E-02
3099.046, 2.1402629E-02
3100.974, 2.2195971E-02
3102.903, 2.1518789E-02
3104.831, 2.0849660E-02
3106.760, 2.1541949E-02
3108.688, 2.0682300E-02
3110.617, 1.9826589E-02
3112.545, 2.0922340E-02
3114.474, 2.1620611E-02
3116.402, 2.1272261E-02
3118.331, 2.0892480E-02
3120.259, 2.0766011E-02
3122.188, 1.9075340E-02
3124.116, 1.8350961E-02
3126.044, 2.0780630E-02
3127.973, 2.1679450E-02
3129.901, 2.1123180E-02
3131.830, 2.2088289E-02
3133.758, 2.1976629E-02
3135.687, 2.1329479E-02
3137.615, 2.1267319E-02
3139.544, 2.2084311E-02
3141.472, 2.3033770E-02
3143.401, 2.2702640E-02
3145.329, 2.1331949E-02
3147.258, 2.0425240E-02
3149.186, 1.9996639E-02
3151.115, 2.0447999E-02
3153.043, 2.1167280E-02
3154.971, 2.0524809E-02
3156.900, 1.9191340E-02
3158.828, 1.8347420E-02
3160.757, 1.7837681E-02
3162.685, 1.9576499E-02
3164.614, 1.9724380E-02
3166.542, 1.9244321E-02
3168.471, 1.9565459E-02
3170.399, 2.0544451E-02
3172.328, 2.0057080E-02
3174.256, 1.9653350E-02
3176.185, 2.0894650E-02
3178.113, 1.9975280E-02
3180.042, 1.8468600E-02
3181.970, 1.9030830E-02
3183.898, 2.0070300E-02
3185.827, 2.0345740E-02
3187.755, 2.0473501E-02
3189.684, 2.1415081E-02
3191.612, 2.0906920E-02
3193.541, 1.9611441E-02
3195.469, 2.0048920E-02
3197.398, 2.1060660E-02
3199.326, 2.1749100E-02
3201.255, 2.2439331E-02
3203.183, 2.2866121E-02
3205.112, 2.3533080E-02
3207.040, 2.3281081E-02
3208.969, 2.2133190E-02
3210.897, 2.1245820E-02
3212.825, 2.1662779E-02
3214.754, 2.3361340E-02
3216.682, 2.2104099E-02
3218.611, 2.0524479E-02
3220.539, 2.0491511E-02
3222.468, 2.3182569E-02
3224.396, 2.4161991E-02
3226.325, 2.2405939E-02
3228.253, 2.2229791E-02
3230.182, 2.2264380E-02
3232.110, 2.0082820E-02
3234.039, 1.9569440E-02
3235.967, 2.0294741E-02
3237.896, 2.0355489E-02
3239.824, 2.2334989E-02
3241.752, 2.3591951E-02
3243.681, 2.2711270E-02
3245.609, 2.1603270E-02
3247.538, 2.0501809E-02
3249.466, 2.2333311E-02
3251.395, 2.3029590E-02
3253.323, 2.1337541E-02
3255.252, 2.0693880E-02
3257.180, 2.1277601E-02
3259.109, 2.0826120E-02
3261.037, 2.2575529E-02
3262.966, 2.2674790E-02
3264.894, 2.1367520E-02
3266.823, 2.1997619E-02
3268.751, 2.0845860E-02
3270.679, 2.0781949E-02
3272.608, 2.3879901E-02
3274.536, 2.4583301E-02
3276.465, 2.2721721E-02
3278.393, 2.1393459E-02
3280.322, 2.0890201E-02
3282.250, 2.1296861E-02
3284.179, 2.1529639E-02
3286.107, 2.1998759E-02
3288.036, 2.3577839E-02
3289.964, 2.2680100E-02
3291.893, 2.0843470E-02
3293.821, 1.9844420E-02
3295.750, 2.0266009E-02
3297.678, 2.1855760E-02
3299.606, 2.3407189E-02
3301.535, 2.3838701E-02
3303.463, 2.1189541E-02
3305.392, 2.0308310E-02
3307.320, 2.2050081E-02
3309.249, 2.3140490E-02
3311.177, 2.3005471E-02
3313.106, 2.3546919E-02
3315.034, 2.2989640E-02
3316.963, 2.2772091E-02
3318.891, 2.2992810E-02
3320.820, 2.2000080E-02
3322.748, 2.1429099E-02
3324.677, 2.2556139E-02
3326.605, 2.5332330E-02
3328.533, 2.6283391E-02
3330.462, 2.4311030E-02
3332.390, 2.3503520E-02
3334.319, 2.2048229E-02
3336.247, 2.2964230E-02
3338.176, 2.5172260E-02
3340.104, 2.5914781E-02
3342.033, 2.4767390E-02
3343.961, 2.2825191E-02
3345.890, 2.5725391E-02
3347.818, 2.6883520E-02
3349.747, 2.4677681E-02
3351.675, 2.5747711E-02
3353.604, 2.5031630E-02
3355.532, 2.2874240E-02
3357.460, 2.2941289E-02
3359.389, 2.3826420E-02
3361.317, 2.4386089E-02
3363.246, 2.4924710E-02
3365.174, 2.4527339E-02
3367.103, 2.2368440E-02
3369.031, 2.1228600E-02
3370.960, 2.3605609E-02
3372.888, 2.6051050E-02
3374.817, 2.6359880E-02
3376.745, 2.4941670E-02
3378.674, 2.5011711E-02
3380.602, 2.4986230E-02
3382.531, 2.4694080E-02
3384.459, 2.5813291E-02
3386.387, 2.5269819E-02
3388.316, 2.5078410E-02
3390.244, 2.4973171E-02
3392.173, 2.5293780E-02
3394.101, 2.6189251E-02
3396.030, 2.6201161E-02
3397.958, 2.5737289E-02
3399.887, 2.7686119E-02
3401.815, 2.6693670E-02
3403.744, 2.6319100E-02
3405.672, 2.7116030E-02
3407.601, 2.4559081E-02
3409.529, 2.3176340E-02
3411.458, 2.5371460E-02
3413.386, 2.6534010E-02
3415.314, 2.6964501E-02
3417.243, 2.7961170E-02
3419.171, 2.6057640E-02
3421.100, 2.2913979E-02
3423.028, 2.2121880E-02
3424.957, 2.1933820E-02
3426.885, 2.3903780E-02
3428.814, 2.5370410E-02
3430.742, 2.6632130E-02
3432.671, 2.6120581E-02
3434.599, 2.3345491E-02
3436.528, 2.5210571E-02
3438.456, 2.8355110E-02
3440.385, 2.6672751E-02
3442.313, 2.3739850E-02
3444.241, 2.2223990E-02
3446.170, 2.1806071E-02
3448.098, 2.2046659E-02
3450.027, 2.3121540E-02
3451.955, 2.3739180E-02
3453.884, 2.3533531E-02
3455.812, 2.4312681E-02
3457.741, 2.5790730E-02
3459.669, 2.4797050E-02
3461.598, 2.4069680E-02
3463.526, 2.5367200E-02
3465.455, 2.5683690E-02
3467.383, 2.4114460E-02
3469.312, 2.4297370E-02
3471.240, 2.6599720E-02
3473.168, 2.9222749E-02
3475.097, 2.8207770E-02
3477.025, 2.6049320E-02
3478.954, 2.4684859E-02
3480.882, 2.3962840E-02
3482.811, 2.5495300E-02
3484.739, 2.5491090E-02
3486.668, 2.4395799E-02
3488.596, 2.4883000E-02
3490.525, 2.6249301E-02
3492.453, 2.4619980E-02
3494.382, 2.5414919E-02
3496.310, 2.6842769E-02
3498.239, 2.6657499E-02
3500.167, 2.5335530E-02
3502.095, 2.4857910E-02
3504.024, 2.4099380E-02
3505.952, 2.2631731E-02
3507.881, 2.3559321E-02
3509.809, 2.5851540E-02
3511.738, 2.4952609E-02
3513.666, 2.3327559E-02
3515.595, 2.3725649E-02
3517.523, 2.5450019E-02
3519.452, 2.8070411E-02
3521.380, 2.8207131E-02
3523.309, 2.5832711E-02
3525.237, 2.5567001E-02
3527.166, 2.6768750E-02
3529.094, 2.7004370E-02
3531.022, 2.6302099E-02
3532.951, 2.5649130E-02
3534.879, 2.7055560E-02
3536.808, 2.4597170E-02
3538.736, 2.1856980E-02
3540.665, 2.5673401E-02
3542.593, 2.6513319E-02
3544.522, 2.6890431E-02
3546.450, 2.9835859E-02
3548.379, 2.9228991E-02
3550.307, 2.5039891E-02
3552.236, 2.4864620E-02
3554.164, 2.6090560E-02
3556.093, 2.6439819E-02
3558.021, 2.5195669E-02
3559.949, 2.5890000E-02
3561.878, 2.7708020E-02
3563.806, 2.7624330E-02
3565.735, 2.5569409E-02
3567.663, 2.5512330E-02
3569.592, 2.7444519E-02
3571.520, 2.7228929E-02
3573.449, 2.9109610E-02
3575.377, 2.9556070E-02
3577.306, 2.5753129E-02
3579.234, 2.4237519E-02
3581.163, 2.3441600E-02
3583.091, 2.2339880E-02
3585.020, 2.3535701E-02
3586.948, 2.6421759E-02
3588.876, 2.7099630E-02
3590.805, 2.5870269E-02
3592.733, 2.4626410E-02
3594.662, 2.4735341E-02
3596.590, 2.6377650E-02
3598.519, 2.4933301E-02
3600.447, 2.4020361E-02
3602.376, 2.6389239E-02
3604.304, 2.7334729E-02
3606.233, 2.4143411E-02
3608.161, 2.4208650E-02
3610.090, 2.7179001E-02
3612.018, 2.4626561E-02
3613.947, 2.3818251E-02
3615.875, 2.7393710E-02
3617.803, 2.7180361E-02
3619.732, 2.7137000E-02
3621.660, 2.8409000E-02
3623.589, 2.9445760E-02
3625.517, 2.6148930E-02
3627.446, 2.2658009E-02
3629.374, 2.1941280E-02
3631.303, 2.3086790E-02
3633.231, 2.3090379E-02
3635.160, 2.4501240E-02
3637.088, 2.8387560E-02
3639.017, 2.6906731E-02
3640.945, 2.7300330E-02
3642.874, 2.8084720E-02
3644.802, 2.8034190E-02
3646.730, 2.7752770E-02
3648.659, 2.5263639E-02
3650.587, 2.3199210E-02
3652.516, 2.4236370E-02
3654.444, 2.6052400E-02
3656.373, 2.8696090E-02
3658.301, 3.0150389E-02
3660.230, 2.7433461E-02
3662.158, 2.4223709E-02
3664.087, 2.2900550E-02
3666.015, 2.1280140E-02
3667.944, 2.2969039E-02
3669.872, 2.4572071E-02
3671.801, 2.6295850E-02
3673.729, 2.9692100E-02
3675.657, 2.9648630E-02
3677.586, 2.7145799E-02
3679.514, 2.8070880E-02
3681.443, 2.8829509E-02
3683.371, 2.7624290E-02
3685.300, 2.6208069E-02
3687.228, 2.4014840E-02
3689.157, 2.5218669E-02
3691.085, 2.6922170E-02
3693.014, 2.6146630E-02
3694.942, 2.7453991E-02
3696.871, 2.7534490E-02
3698.799, 2.7214009E-02
3700.728, 2.5621301E-02
3702.656, 2.6790241E-02
3704.584, 3.0479550E-02
3706.513, 2.8784631E-02
3708.441, 2.6161321E-02
3710.370, 2.5668440E-02
3712.298, 2.5844891E-02
3714.227, 2.5316659E-02
3716.155, 2.5887130E-02
3718.084, 2.7018370E-02
3720.012, 3.0749319E-02
3721.941, 3.1712510E-02
3723.869, 2.7301960E-02
3725.798, 2.4990030E-02
3727.726, 2.8384009E-02
3729.655, 2.6273539E-02
3731.583, 2.2853840E-02
3733.511, 2.4341639E-02
3735.440, 2.8728571E-02
3737.368, 2.9303400E-02
3739.297, 2.8597949E-02
3741.225, 2.4661630E-02
3743.154, 2.5378531E-02
3745.082, 3.1751879E-02
3747.011, 3.2410990E-02
3748.939, 3.0056760E-02
3750.868, 2.7522400E-02
3752.796, 2.8513139E-02
3754.725, 2.8538691E-02
3756.653, 2.7211180E-02
3758.582, 2.9673001E-02
3760.510, 3.2548849E-02
3762.438, 3.0830789E-02
3764.367, 2.6937731E-02
3766.295, 2.4493190E-02
3768.224, 2.3369141E-02
3770.152, 2.5484560E-02
3772.081, 2.6440561E-02
3774.009, 2.6097391E-02
3775.938, 2.6159421E-02
3777.866, 2.7259201E-02
3779.795, 3.0589800E-02
3781.723, 3.1417791E-02
3783.652, 3.2571651E-02
3785.580, 3.0113529E-02
3787.509, 2.7720800E-02
3789.437, 2.7892111E-02
3791.365, 2.7951160E-02
3793.294, 2.7764680E-02
3795.222, 2.8004790E-02
3797.151, 2.9763419E-02
3799.079, 2.9254271E-02
3801.008, 3.0127740E-02
3802.936, 2.7985450E-02
3804.865, 2.6779519E-02
3806.793, 2.6566589E-02
3808.722, 2.4441060E-02
3810.650, 2.3019381E-02
3812.579, 2.7332431E-02
3814.507, 3.2495148E-02
3816.436, 3.2816600E-02
3818.364, 2.8748820E-02
3820.292, 2.5346439E-02
3822.221, 2.6251800E-02
3824.149, 2.6134130E-02
3826.078, 2.7029200E-02
3828.006, 2.9989259E-02
3829.935, 3.0445170E-02
3831.863, 2.9403590E-02
3833.792, 2.5073079E-02
3835.720, 2.3391990E-02
3837.649, 2.3970859E-02
3839.577, 2.6458381E-02
3841.506, 2.7237421E-02
3843.434, 2.5112350E-02
3845.363, 2.6461219E-02
3847.291, 2.8336231E-02
3849.219, 3.1543989E-02
3851.148, 3.1490359E-02
3853.076, 2.8646231E-02
3855.005, 2.4986081E-02
3856.933, 2.6957670E-02
3858.862, 3.0697251E-02
3860.790, 2.7448790E-02
3862.719, 2.4515601E-02
3864.647, 2.6730400E-02
3866.576, 2.6898131E-02
3868.504, 2.5229830E-02
3870.433, 2.7616421E-02
3872.361, 2.9509589E-02
3874.290, 2.9352760E-02
3876.218, 2.8532039E-02
3878.146, 2.7670151E-02
3880.075, 2.6309460E-02
3882.003, 2.7864400E-02
3883.932, 2.6894910E-02
3885.860, 2.6195159E-02
3887.789, 2.9686810E-02
3889.717, 2.9304270E-02
3891.646, 2.8749211E-02
3893.574, 2.9128561E-02
3895.503, 2.7864579E-02
3897.431, 2.4349511E-02
3899.360, 2.5024800E-02
3901.288, 2.9103290E-02
3903.217, 2.9704969E-02
3905.145, 2.6547270E-02
3907.073, 2.6956240E-02
3909.002, 2.9735560E-02
3910.930, 3.0244170E-02
3912.859, 2.9639831E-02
3914.787, 3.0216159E-02
3916.716, 3.1243131E-02
3918.644, 3.1470388E-02
3920.573, 3.1908318E-02
3922.501, 3.0918270E-02
3924.430, 2.8254591E-02
3926.358, 2.5926379E-02
3928.287, 2.4685830E-02
3930.215, 2.6360059E-02
3932.144, 2.9306170E-02
3934.072, 2.9253310E-02
3936.000, 2.7977141E-02
3937.929, 2.6078170E-02
3939.857, 2.7732950E-02
3941.786, 2.9666780E-02
3943.714, 3.1251151E-02
3945.643, 3.1433400E-02
3947.571, 3.3076420E-02
3949.500, 3.0769311E-02
3951.428, 2.8437130E-02
3953.357, 2.8853379E-02
3955.285, 2.8901311E-02
3957.214, 2.9147970E-02
3959.142, 3.1040641E-02
3961.071, 2.9366881E-02
3962.999, 2.7775470E-02
3964.927, 2.9149340E-02
3966.856, 2.8319521E-02
3968.784, 2.7718470E-02
3970.713, 3.0252660E-02
3972.641, 3.1471532E-02
3974.570, 3.2388851E-02
3976.498, 3.3426668E-02
3978.427, 3.2233048E-02
3980.355, 3.2412481E-02
3982.284, 3.2801710E-02
3984.212, 3.2257602E-02
3986.141, 2.8598450E-02
3988.069, 2.7259860E-02
3989.998, 2.9321279E-02
3991.926, 3.2138139E-02
3993.854, 3.0393820E-02
3995.783, 2.7519589E-02
3997.711, 2.8971421E-02
3999.640, 2.8985400E-02
##END=



