##NAMES=Baryte
##RRUFFID=R050342
##IDEAL CHEMISTRY=BaS^6+^O_4_
##LOCALITY=Palos Verdes, Los Angeles County, California, USA
##OWNER=RRUFF
##SOURCE=California Institute of Technology
##DESCRIPTION=Light brown fragment
##STATUS=The identification of this mineral has been confirmed by X-ray diffraction and chemical analysis
##URL=rruff.info/R050342
##MEASURED CHEMISTRY=Ba_1.00_S_1.00_O_4_
3.991926e+002, 2.685312e-002
4.011211e+002, 2.407047e-002
4.030496e+002, 2.418619e-002
4.049780e+002, 2.588787e-002
4.069065e+002, 2.587361e-002
4.088350e+002, 2.438128e-002
4.107634e+002, 2.443686e-002
4.126919e+002, 2.751632e-002
4.146204e+002, 2.627623e-002
4.165488e+002, 2.504352e-002
4.184773e+002, 2.369385e-002
4.204058e+002, 2.151284e-002
4.223342e+002, 1.894290e-002
4.242627e+002, 1.759337e-002
4.261912e+002, 1.739659e-002
4.281196e+002, 1.685988e-002
4.300481e+002, 1.635701e-002
4.319766e+002, 1.698278e-002
4.339050e+002, 1.701650e-002
4.358335e+002, 1.638930e-002
4.377620e+002, 1.540055e-002
4.396904e+002, 1.606141e-002
4.416189e+002, 1.674723e-002
4.435474e+002, 1.614291e-002
4.454758e+002, 1.572772e-002
4.474043e+002, 1.594989e-002
4.493328e+002, 1.450801e-002
4.512612e+002, 1.351843e-002
4.531897e+002, 1.422261e-002
4.551182e+002, 1.479728e-002
4.570466e+002, 1.511483e-002
4.589751e+002, 1.557498e-002
4.609036e+002, 1.513649e-002
4.628320e+002, 1.480515e-002
4.647605e+002, 1.529524e-002
4.666890e+002, 1.546039e-002
4.686174e+002, 1.498687e-002
4.705459e+002, 1.605670e-002
4.724744e+002, 1.687643e-002
4.744028e+002, 1.599742e-002
4.763313e+002, 1.522475e-002
4.782598e+002, 1.480417e-002
4.801882e+002, 1.437532e-002
4.821167e+002, 1.436445e-002
4.840452e+002, 1.486110e-002
4.859736e+002, 1.558058e-002
4.879021e+002, 1.574855e-002
4.898306e+002, 1.578445e-002
4.917590e+002, 1.630490e-002
4.936875e+002, 1.678781e-002
4.956160e+002, 1.666141e-002
4.975444e+002, 1.700431e-002
4.994729e+002, 1.723726e-002
5.014014e+002, 1.687881e-002
5.033298e+002, 1.672700e-002
5.052583e+002, 1.734812e-002
5.071868e+002, 1.780733e-002
5.091152e+002, 1.820313e-002
5.110437e+002, 1.937811e-002
5.129722e+002, 1.993079e-002
5.149006e+002, 2.023114e-002
5.168291e+002, 2.065083e-002
5.187576e+002, 2.058223e-002
5.206860e+002, 2.109445e-002
5.226145e+002, 2.215112e-002
5.245430e+002, 2.254595e-002
5.264714e+002, 2.293004e-002
5.283999e+002, 2.412282e-002
5.303284e+002, 2.478393e-002
5.322568e+002, 2.547899e-002
5.341853e+002, 2.642888e-002
5.361138e+002, 2.787272e-002
5.380422e+002, 2.912206e-002
5.399707e+002, 3.014565e-002
5.418992e+002, 3.134358e-002
5.438276e+002, 3.278471e-002
5.457561e+002, 3.354025e-002
5.476846e+002, 3.473714e-002
5.496130e+002, 3.620572e-002
5.515415e+002, 3.783490e-002
5.534700e+002, 4.025584e-002
5.553984e+002, 4.260304e-002
5.573269e+002, 4.520364e-002
5.592554e+002, 4.892372e-002
5.611838e+002, 5.237814e-002
5.631123e+002, 5.494686e-002
5.650408e+002, 5.810454e-002
5.669692e+002, 6.221931e-002
5.688977e+002, 6.748060e-002
5.708262e+002, 7.294659e-002
5.727546e+002, 7.971220e-002
5.746831e+002, 8.801237e-002
5.766116e+002, 9.768372e-002
5.785400e+002, 1.090605e-001
5.804685e+002, 1.229533e-001
5.823970e+002, 1.396221e-001
5.843254e+002, 1.589511e-001
5.862539e+002, 1.824405e-001
5.881824e+002, 2.106454e-001
5.901108e+002, 2.432619e-001
5.920393e+002, 2.809738e-001
5.939678e+002, 3.215739e-001
5.958962e+002, 3.639679e-001
5.978247e+002, 4.058911e-001
5.997532e+002, 4.417272e-001
6.016816e+002, 4.634364e-001
6.036101e+002, 4.660311e-001
6.055386e+002, 4.483576e-001
6.074670e+002, 4.132800e-001
6.093955e+002, 3.650085e-001
6.113240e+002, 3.128673e-001
6.132524e+002, 2.652394e-001
6.151809e+002, 2.239863e-001
6.171094e+002, 1.903372e-001
6.190378e+002, 1.652548e-001
6.209663e+002, 1.478557e-001
6.228948e+002, 1.390038e-001
6.248232e+002, 1.405271e-001
6.267517e+002, 1.512724e-001
6.286802e+002, 1.667837e-001
6.306086e+002, 1.796283e-001
6.325371e+002, 1.837346e-001
6.344656e+002, 1.784042e-001
6.363940e+002, 1.657765e-001
6.383225e+002, 1.490259e-001
6.402510e+002, 1.320243e-001
6.421794e+002, 1.147315e-001
6.441079e+002, 9.727315e-002
6.460364e+002, 8.053042e-002
6.479648e+002, 6.549768e-002
6.498933e+002, 5.231377e-002
6.518218e+002, 4.156971e-002
6.537502e+002, 3.334158e-002
6.556787e+002, 2.737252e-002
6.576072e+002, 2.275636e-002
6.595356e+002, 1.921412e-002
6.614641e+002, 1.652778e-002
6.633926e+002, 1.402467e-002
6.653210e+002, 1.228812e-002
6.672495e+002, 1.104649e-002
6.691780e+002, 9.964190e-003
6.711064e+002, 9.231832e-003
6.730349e+002, 8.576096e-003
6.749634e+002, 7.890197e-003
6.768918e+002, 7.810069e-003
6.788203e+002, 7.509733e-003
6.807488e+002, 7.261725e-003
6.826772e+002, 7.478924e-003
6.846057e+002, 7.825705e-003
6.865342e+002, 8.034456e-003
6.884626e+002, 8.136456e-003
6.903911e+002, 8.282963e-003
6.923196e+002, 8.407425e-003
6.942480e+002, 8.735633e-003
6.961765e+002, 8.897605e-003
6.981050e+002, 9.011096e-003
7.000334e+002, 8.916589e-003
7.019619e+002, 8.936841e-003
7.038904e+002, 8.987091e-003
7.058188e+002, 9.243926e-003
7.077473e+002, 9.802341e-003
7.096758e+002, 9.869573e-003
7.116042e+002, 9.473774e-003
7.135327e+002, 9.436339e-003
7.154612e+002, 9.823971e-003
7.173896e+002, 1.022103e-002
7.193181e+002, 1.075173e-002
7.212466e+002, 1.127616e-002
7.231750e+002, 1.207785e-002
7.251035e+002, 1.323447e-002
7.270320e+002, 1.448088e-002
7.289604e+002, 1.508111e-002
7.308889e+002, 1.403990e-002
7.328174e+002, 1.250596e-002
7.347458e+002, 1.158174e-002
7.366743e+002, 1.112127e-002
7.386028e+002, 1.096603e-002
7.405313e+002, 1.103437e-002
7.424597e+002, 1.124606e-002
7.443882e+002, 1.116452e-002
7.463167e+002, 1.097195e-002
7.482451e+002, 1.119776e-002
7.501736e+002, 1.160705e-002
7.521021e+002, 1.167061e-002
7.540305e+002, 1.149002e-002
7.559590e+002, 1.151546e-002
7.578875e+002, 1.172757e-002
7.598159e+002, 1.225815e-002
7.617444e+002, 1.260745e-002
7.636729e+002, 1.272221e-002
7.656013e+002, 1.282564e-002
7.675298e+002, 1.309330e-002
7.694583e+002, 1.317149e-002
7.713867e+002, 1.360357e-002
7.733152e+002, 1.437344e-002
7.752437e+002, 1.482685e-002
7.771721e+002, 1.500059e-002
7.791006e+002, 1.509485e-002
7.810291e+002, 1.541499e-002
7.829575e+002, 1.585188e-002
7.848860e+002, 1.614658e-002
7.868145e+002, 1.633241e-002
7.887429e+002, 1.648318e-002
7.906714e+002, 1.634004e-002
7.925999e+002, 1.649507e-002
7.945283e+002, 1.661967e-002
7.964568e+002, 1.676021e-002
7.983853e+002, 1.679510e-002
8.003137e+002, 1.716830e-002
8.022422e+002, 1.792921e-002
8.041707e+002, 1.824893e-002
8.060991e+002, 1.808156e-002
8.080276e+002, 1.799442e-002
8.099561e+002, 1.819594e-002
8.118845e+002, 1.825994e-002
8.138130e+002, 1.864275e-002
8.157415e+002, 1.889820e-002
8.176699e+002, 1.873447e-002
8.195984e+002, 1.895513e-002
8.215269e+002, 1.941374e-002
8.234553e+002, 1.968819e-002
8.253838e+002, 1.991937e-002
8.273123e+002, 1.992934e-002
8.292407e+002, 2.002575e-002
8.311692e+002, 2.058633e-002
8.330977e+002, 2.134362e-002
8.350261e+002, 2.123780e-002
8.369546e+002, 2.092101e-002
8.388831e+002, 2.098867e-002
8.408115e+002, 2.122744e-002
8.427400e+002, 2.158034e-002
8.446685e+002, 2.201764e-002
8.465969e+002, 2.242850e-002
8.485254e+002, 2.291522e-002
8.504539e+002, 2.368928e-002
8.523823e+002, 2.436489e-002
8.543108e+002, 2.463436e-002
8.562393e+002, 2.496988e-002
8.581677e+002, 2.605633e-002
8.600962e+002, 2.731377e-002
8.620247e+002, 2.815333e-002
8.639531e+002, 2.917082e-002
8.658816e+002, 3.062146e-002
8.678101e+002, 3.210493e-002
8.697385e+002, 3.429612e-002
8.716670e+002, 3.737677e-002
8.735955e+002, 4.086087e-002
8.755239e+002, 4.400568e-002
8.774524e+002, 4.627542e-002
8.793809e+002, 4.852388e-002
8.813093e+002, 5.042085e-002
8.832378e+002, 5.056977e-002
8.851663e+002, 4.872708e-002
8.870947e+002, 4.536650e-002
8.890232e+002, 4.208769e-002
8.909517e+002, 3.988065e-002
8.928801e+002, 3.860303e-002
8.948085e+002, 3.809257e-002
8.967370e+002, 3.835201e-002
8.986655e+002, 3.903641e-002
9.005939e+002, 3.983972e-002
9.025224e+002, 4.049392e-002
9.044509e+002, 4.113555e-002
9.063793e+002, 4.203635e-002
9.083078e+002, 4.319794e-002
9.102363e+002, 4.432383e-002
9.121647e+002, 4.553680e-002
9.140932e+002, 4.654454e-002
9.160217e+002, 4.794432e-002
9.179501e+002, 4.924695e-002
9.198786e+002, 5.032181e-002
9.218071e+002, 5.160403e-002
9.237355e+002, 5.280931e-002
9.256640e+002, 5.394692e-002
9.275925e+002, 5.556286e-002
9.295209e+002, 5.748498e-002
9.314494e+002, 5.909869e-002
9.333779e+002, 6.061419e-002
9.353063e+002, 6.248598e-002
9.372348e+002, 6.434023e-002
9.391633e+002, 6.640597e-002
9.410917e+002, 6.859918e-002
9.430202e+002, 7.112478e-002
9.449487e+002, 7.378796e-002
9.468771e+002, 7.659793e-002
9.488056e+002, 7.953534e-002
9.507341e+002, 8.261356e-002
9.526625e+002, 8.547184e-002
9.545910e+002, 8.874212e-002
9.565195e+002, 9.294130e-002
9.584479e+002, 9.766117e-002
9.603764e+002, 1.026579e-001
9.623049e+002, 1.087182e-001
9.642333e+002, 1.150692e-001
9.661618e+002, 1.204410e-001
9.680903e+002, 1.267380e-001
9.700187e+002, 1.351637e-001
9.719472e+002, 1.458447e-001
9.738757e+002, 1.594109e-001
9.758041e+002, 1.778298e-001
9.777326e+002, 2.062164e-001
9.796611e+002, 2.492525e-001
9.815895e+002, 2.910197e-001
9.835180e+002, 2.711179e-001
9.854465e+002, 1.944320e-001
9.873749e+002, 1.415401e-001
9.893034e+002, 1.286154e-001
9.912319e+002, 1.337579e-001
9.931603e+002, 1.431608e-001
9.950888e+002, 1.535313e-001
9.970173e+002, 1.642871e-001
9.989457e+002, 1.752079e-001
1.000874e+003, 1.862124e-001
1.002803e+003, 1.975353e-001
1.004731e+003, 2.092543e-001
1.006660e+003, 2.215254e-001
1.008588e+003, 2.340574e-001
1.010517e+003, 2.465191e-001
1.012445e+003, 2.593247e-001
1.014373e+003, 2.726547e-001
1.016302e+003, 2.868226e-001
1.018230e+003, 3.019350e-001
1.020159e+003, 3.171427e-001
1.022087e+003, 3.324485e-001
1.024016e+003, 3.486508e-001
1.025944e+003, 3.657196e-001
1.027873e+003, 3.835241e-001
1.029801e+003, 4.011352e-001
1.031730e+003, 4.196713e-001
1.033658e+003, 4.395392e-001
1.035587e+003, 4.596985e-001
1.037515e+003, 4.800327e-001
1.039444e+003, 5.014954e-001
1.041372e+003, 5.235147e-001
1.043301e+003, 5.444492e-001
1.045229e+003, 5.643488e-001
1.047157e+003, 5.848517e-001
1.049086e+003, 6.054388e-001
1.051014e+003, 6.255938e-001
1.052943e+003, 6.453066e-001
1.054871e+003, 6.639947e-001
1.056800e+003, 6.790403e-001
1.058728e+003, 6.897504e-001
1.060657e+003, 6.966125e-001
1.062585e+003, 7.004929e-001
1.064514e+003, 7.005073e-001
1.066442e+003, 6.957412e-001
1.068371e+003, 6.874693e-001
1.070299e+003, 6.763116e-001
1.072228e+003, 6.626372e-001
1.074156e+003, 6.478551e-001
1.076084e+003, 6.330083e-001
1.078013e+003, 6.173955e-001
1.079941e+003, 6.005834e-001
1.081870e+003, 5.846325e-001
1.083798e+003, 5.692227e-001
1.085727e+003, 5.529525e-001
1.087655e+003, 5.355792e-001
1.089584e+003, 5.186782e-001
1.091512e+003, 5.023375e-001
1.093441e+003, 4.871677e-001
1.095369e+003, 4.722886e-001
1.097298e+003, 4.580892e-001
1.099226e+003, 4.447637e-001
1.101155e+003, 4.323789e-001
1.103083e+003, 4.209534e-001
1.105011e+003, 4.101809e-001
1.106940e+003, 3.993682e-001
1.108868e+003, 3.889272e-001
1.110797e+003, 3.784692e-001
1.112725e+003, 3.683467e-001
1.114654e+003, 3.590566e-001
1.116582e+003, 3.502716e-001
1.118511e+003, 3.413777e-001
1.120439e+003, 3.320338e-001
1.122368e+003, 3.227655e-001
1.124296e+003, 3.141661e-001
1.126225e+003, 3.049553e-001
1.128153e+003, 2.955270e-001
1.130082e+003, 2.867029e-001
1.132010e+003, 2.780204e-001
1.133938e+003, 2.690403e-001
1.135867e+003, 2.598087e-001
1.137795e+003, 2.505100e-001
1.139724e+003, 2.415134e-001
1.141652e+003, 2.329940e-001
1.143581e+003, 2.246759e-001
1.145509e+003, 2.170267e-001
1.147438e+003, 2.102012e-001
1.149366e+003, 2.044887e-001
1.151295e+003, 2.000654e-001
1.153223e+003, 1.969875e-001
1.155152e+003, 1.950014e-001
1.157080e+003, 1.943195e-001
1.159009e+003, 1.950485e-001
1.160937e+003, 1.960392e-001
1.162865e+003, 1.964499e-001
1.164794e+003, 1.970090e-001
1.166722e+003, 1.982960e-001
1.168651e+003, 1.997395e-001
1.170579e+003, 2.012735e-001
1.172508e+003, 2.028513e-001
1.174436e+003, 2.040498e-001
1.176365e+003, 2.045759e-001
1.178293e+003, 2.042492e-001
1.180222e+003, 2.028548e-001
1.182150e+003, 2.002058e-001
1.184079e+003, 1.961489e-001
1.186007e+003, 1.911774e-001
1.187936e+003, 1.856739e-001
1.189864e+003, 1.795026e-001
1.191792e+003, 1.726074e-001
1.193721e+003, 1.654402e-001
1.195649e+003, 1.580195e-001
1.197578e+003, 1.504360e-001
1.199506e+003, 1.430302e-001
1.201435e+003, 1.353946e-001
1.203363e+003, 1.277215e-001
1.205292e+003, 1.203285e-001
1.207220e+003, 1.129088e-001
1.209149e+003, 1.051160e-001
1.211077e+003, 9.731100e-002
1.213006e+003, 8.980589e-002
1.214934e+003, 8.237430e-002
1.216863e+003, 7.570006e-002
1.218791e+003, 7.017909e-002
1.220719e+003, 6.527878e-002
1.222648e+003, 6.008073e-002
1.224576e+003, 5.385992e-002
1.226505e+003, 4.702417e-002
1.228433e+003, 4.052960e-002
1.230362e+003, 3.486423e-002
1.232290e+003, 3.039713e-002
1.234219e+003, 2.696270e-002
1.236147e+003, 2.446108e-002
1.238076e+003, 2.250946e-002
1.240004e+003, 2.052766e-002
1.241933e+003, 1.905525e-002
1.243861e+003, 1.809549e-002
1.245790e+003, 1.687303e-002
1.247718e+003, 1.563558e-002
1.249646e+003, 1.422001e-002
1.251575e+003, 1.323728e-002
1.253503e+003, 1.277538e-002
1.255432e+003, 1.217623e-002
1.257360e+003, 1.164135e-002
1.259289e+003, 1.135665e-002
1.261217e+003, 1.111359e-002
1.263146e+003, 1.078802e-002
1.265074e+003, 1.049895e-002
1.267003e+003, 1.012870e-002
1.268931e+003, 1.002378e-002
1.270860e+003, 9.860057e-003
1.272788e+003, 9.725333e-003
1.274717e+003, 9.389755e-003
1.276645e+003, 8.908419e-003
1.278573e+003, 8.643752e-003
1.280502e+003, 8.267401e-003
1.282430e+003, 8.233361e-003
1.284359e+003, 8.368543e-003
1.286287e+003, 7.984432e-003
1.288216e+003, 7.708153e-003
1.290144e+003, 7.796454e-003
1.292073e+003, 7.741866e-003
1.294001e+003, 7.575348e-003
1.295930e+003, 7.443772e-003
1.297858e+003, 7.471801e-003
1.299787e+003, 7.578356e-003
1.301715e+003, 7.674936e-003
1.303644e+003, 7.628513e-003
1.305572e+003, 7.573769e-003
1.307500e+003, 7.473141e-003
1.309429e+003, 7.341263e-003
1.311357e+003, 7.246009e-003
1.313286e+003, 7.365928e-003
1.315214e+003, 7.577240e-003
1.317143e+003, 7.677782e-003
1.319071e+003, 7.762827e-003
1.321000e+003, 7.692278e-003
1.322928e+003, 7.723633e-003
1.324857e+003, 7.986772e-003
1.326785e+003, 8.003034e-003
1.328714e+003, 7.904503e-003
1.330642e+003, 8.105031e-003
1.332571e+003, 8.274370e-003
1.334499e+003, 8.399881e-003
1.336427e+003, 8.483773e-003
1.338356e+003, 8.569728e-003
1.340284e+003, 8.693767e-003
1.342213e+003, 8.963236e-003
1.344141e+003, 9.117465e-003
1.346070e+003, 9.047558e-003
1.347998e+003, 9.144853e-003
1.349927e+003, 9.285797e-003
1.351855e+003, 9.314808e-003
1.353784e+003, 9.350656e-003
1.355712e+003, 9.570716e-003
1.357641e+003, 9.810879e-003
1.359569e+003, 9.768891e-003
1.361498e+003, 9.627424e-003
1.363426e+003, 9.815021e-003
1.365354e+003, 1.025323e-002
1.367283e+003, 1.055873e-002
1.369211e+003, 1.074442e-002
1.371140e+003, 1.085083e-002
1.373068e+003, 1.102448e-002
1.374997e+003, 1.113789e-002
1.376925e+003, 1.128014e-002
1.378854e+003, 1.172684e-002
1.380782e+003, 1.194954e-002
1.382711e+003, 1.230199e-002
1.384639e+003, 1.281747e-002
1.386568e+003, 1.311125e-002
1.388496e+003, 1.348835e-002
1.390424e+003, 1.420852e-002
1.392353e+003, 1.483259e-002
1.394281e+003, 1.559801e-002
1.396210e+003, 1.710524e-002
1.398138e+003, 1.854672e-002
1.400067e+003, 1.938966e-002
1.401995e+003, 1.876803e-002
1.403924e+003, 1.748896e-002
1.405852e+003, 1.707739e-002
1.407781e+003, 1.721581e-002
1.409709e+003, 1.714043e-002
1.411638e+003, 1.693150e-002
1.413566e+003, 1.720009e-002
1.415495e+003, 1.759328e-002
1.417423e+003, 1.751901e-002
1.419351e+003, 1.760009e-002
1.421280e+003, 1.823321e-002
1.423208e+003, 1.888599e-002
1.425137e+003, 1.966160e-002
1.427065e+003, 2.042427e-002
1.428994e+003, 2.118970e-002
1.430922e+003, 2.229254e-002
1.432851e+003, 2.383517e-002
1.434779e+003, 2.582498e-002
1.436708e+003, 2.663849e-002
1.438636e+003, 2.586912e-002
1.440565e+003, 2.495867e-002
1.442493e+003, 2.419593e-002
1.444422e+003, 2.390906e-002
1.446350e+003, 2.412267e-002
1.448278e+003, 2.421493e-002
1.450207e+003, 2.409678e-002
1.452135e+003, 2.404319e-002
1.454064e+003, 2.393184e-002
1.455992e+003, 2.355104e-002
1.457921e+003, 2.319256e-002
1.459849e+003, 2.273929e-002
1.461778e+003, 2.241062e-002
1.463706e+003, 2.223037e-002
1.465635e+003, 2.205682e-002
1.467563e+003, 2.181793e-002
1.469492e+003, 2.151983e-002
1.471420e+003, 2.158569e-002
1.473349e+003, 2.146378e-002
1.475277e+003, 2.110427e-002
1.477205e+003, 2.083292e-002
1.479134e+003, 2.043175e-002
1.481062e+003, 1.998439e-002
1.482991e+003, 1.963741e-002
1.484919e+003, 1.945800e-002
1.486848e+003, 1.915616e-002
1.488776e+003, 1.858061e-002
1.490705e+003, 1.832332e-002
1.492633e+003, 1.809396e-002
1.494562e+003, 1.783372e-002
1.496490e+003, 1.760613e-002
1.498419e+003, 1.683662e-002
1.500347e+003, 1.638718e-002
1.502276e+003, 1.613511e-002
1.504204e+003, 1.560553e-002
1.506132e+003, 1.510676e-002
1.508061e+003, 1.472849e-002
1.509989e+003, 1.429447e-002
1.511918e+003, 1.392879e-002
1.513846e+003, 1.358263e-002
1.515775e+003, 1.308275e-002
1.517703e+003, 1.293352e-002
1.519632e+003, 1.262474e-002
1.521560e+003, 1.221627e-002
1.523489e+003, 1.193846e-002
1.525417e+003, 1.183424e-002
1.527346e+003, 1.161704e-002
1.529274e+003, 1.117004e-002
1.531203e+003, 1.069998e-002
1.533131e+003, 1.064031e-002
1.535059e+003, 1.077681e-002
1.536988e+003, 1.044424e-002
1.538916e+003, 9.860368e-003
1.540845e+003, 9.566889e-003
1.542773e+003, 9.390501e-003
1.544702e+003, 9.329005e-003
1.546630e+003, 9.198133e-003
1.548559e+003, 8.923410e-003
1.550487e+003, 8.811255e-003
1.552416e+003, 8.689281e-003
1.554344e+003, 8.439172e-003
1.556273e+003, 8.175939e-003
1.558201e+003, 7.342946e-003
1.560130e+003, 6.872950e-003
1.562058e+003, 6.696382e-003
1.563986e+003, 6.707475e-003
1.565915e+003, 6.815733e-003
1.567843e+003, 6.316175e-003
1.569772e+003, 5.949896e-003
1.571700e+003, 5.609629e-003
1.573629e+003, 5.113488e-003
1.575557e+003, 4.860291e-003
1.577486e+003, 4.954578e-003
1.579414e+003, 5.125222e-003
1.581343e+003, 4.972656e-003
1.583271e+003, 5.021258e-003
1.585200e+003, 5.157013e-003
1.587128e+003, 5.248172e-003
1.589057e+003, 5.309197e-003
1.590985e+003, 5.549527e-003
1.592913e+003, 5.430966e-003
1.594842e+003, 5.368253e-003
1.596770e+003, 5.567840e-003
1.598699e+003, 5.610450e-003
1.600627e+003, 5.511256e-003
1.602556e+003, 5.409844e-003
1.604484e+003, 5.226661e-003
1.606413e+003, 5.288825e-003
1.608341e+003, 5.288677e-003
1.610270e+003, 4.950393e-003
1.612198e+003, 4.912047e-003
1.614127e+003, 4.859380e-003
1.616055e+003, 4.764094e-003
1.617984e+003, 4.912992e-003
1.619912e+003, 5.024957e-003
1.621840e+003, 4.737165e-003
1.623769e+003, 4.523517e-003
1.625697e+003, 4.437385e-003
1.627626e+003, 4.283710e-003
1.629554e+003, 4.381519e-003
1.631483e+003, 4.711997e-003
1.633411e+003, 4.521293e-003
1.635340e+003, 4.246392e-003
1.637268e+003, 4.332448e-003
1.639197e+003, 4.246736e-003
1.641125e+003, 4.266393e-003
1.643054e+003, 4.331270e-003
1.644982e+003, 4.119836e-003
1.646911e+003, 4.194099e-003
1.648839e+003, 4.175929e-003
1.650767e+003, 3.938121e-003
1.652696e+003, 4.003128e-003
1.654624e+003, 4.363813e-003
1.656553e+003, 4.544362e-003
1.658481e+003, 4.520732e-003
1.660410e+003, 4.126437e-003
1.662338e+003, 3.977633e-003
1.664267e+003, 4.228369e-003
1.666195e+003, 4.488538e-003
1.668124e+003, 4.328629e-003
1.670052e+003, 4.059969e-003
1.671981e+003, 4.405797e-003
1.673909e+003, 4.490790e-003
1.675838e+003, 4.101116e-003
1.677766e+003, 3.694098e-003
1.679694e+003, 4.068299e-003
1.681623e+003, 4.479921e-003
1.683551e+003, 4.090935e-003
1.685480e+003, 3.926543e-003
1.687408e+003, 4.093391e-003
1.689337e+003, 3.918815e-003
1.691265e+003, 3.642663e-003
1.693194e+003, 3.383394e-003
1.695122e+003, 3.347920e-003
1.697051e+003, 3.395676e-003
1.698979e+003, 3.388677e-003
1.700908e+003, 3.277713e-003
1.702836e+003, 3.089503e-003
1.704765e+003, 2.688059e-003
1.706693e+003, 2.371126e-003
1.708621e+003, 2.247958e-003
1.710550e+003, 2.629664e-003
1.712478e+003, 2.941834e-003
1.714407e+003, 3.090132e-003
1.716335e+003, 2.799458e-003
1.718264e+003, 2.630839e-003
1.720192e+003, 2.682983e-003
1.722121e+003, 2.539633e-003
1.724049e+003, 2.317476e-003
1.725978e+003, 2.397172e-003
1.727906e+003, 2.761554e-003
1.729835e+003, 2.237695e-003
1.731763e+003, 1.377527e-003
1.733692e+003, 1.107189e-003
1.735620e+003, 1.300114e-003
1.737548e+003, 1.143555e-003
1.739477e+003, 8.721887e-004
1.741405e+003, 1.075019e-003
1.743334e+003, 6.427784e-004
1.745262e+003, 4.845766e-004
1.747191e+003, 4.418986e-004
1.749119e+003, 2.868174e-004
1.751048e+003, 6.945759e-004
1.752976e+003, 1.679759e-003
1.754905e+003, 2.276657e-003
1.756833e+003, 2.421574e-003
1.758762e+003, 2.474451e-003
1.760690e+003, 2.589195e-003
1.762619e+003, 2.953448e-003
1.764547e+003, 3.391363e-003
1.766475e+003, 3.388426e-003
1.768404e+003, 3.411782e-003
1.770332e+003, 3.719764e-003
1.772261e+003, 3.679739e-003
1.774189e+003, 3.333374e-003
1.776118e+003, 3.107526e-003
1.778046e+003, 3.595504e-003
1.779975e+003, 3.888495e-003
1.781903e+003, 3.747755e-003
1.783832e+003, 3.978189e-003
1.785760e+003, 4.430458e-003
1.787689e+003, 4.468783e-003
1.789617e+003, 4.388205e-003
1.791546e+003, 4.369353e-003
1.793474e+003, 4.511755e-003
1.795402e+003, 4.429373e-003
1.797331e+003, 4.386817e-003
1.799259e+003, 4.632751e-003
1.801188e+003, 4.807335e-003
1.803116e+003, 4.875123e-003
1.805045e+003, 4.919937e-003
1.806973e+003, 4.922060e-003
1.808902e+003, 4.748926e-003
1.810830e+003, 4.502433e-003
1.812759e+003, 4.744731e-003
1.814687e+003, 4.548489e-003
1.816616e+003, 4.281363e-003
1.818544e+003, 4.256767e-003
1.820473e+003, 4.492193e-003
1.822401e+003, 4.783394e-003
1.824329e+003, 4.719983e-003
1.826258e+003, 4.874064e-003
1.828186e+003, 5.194500e-003
1.830115e+003, 4.882467e-003
1.832043e+003, 4.657384e-003
1.833972e+003, 4.357215e-003
1.835900e+003, 4.460523e-003
1.837829e+003, 4.907947e-003
1.839757e+003, 4.473020e-003
1.841686e+003, 3.590065e-003
1.843614e+003, 3.902837e-003
1.845543e+003, 4.134682e-003
1.847471e+003, 4.461674e-003
1.849400e+003, 4.910239e-003
1.851328e+003, 4.581041e-003
1.853256e+003, 3.966507e-003
1.855185e+003, 3.497033e-003
1.857113e+003, 4.198150e-003
1.859042e+003, 4.841829e-003
1.860970e+003, 4.200361e-003
1.862899e+003, 3.829479e-003
1.864827e+003, 4.310252e-003
1.866756e+003, 4.689761e-003
1.868684e+003, 4.785907e-003
1.870613e+003, 4.243558e-003
1.872541e+003, 4.045941e-003
1.874470e+003, 4.293265e-003
1.876398e+003, 3.583167e-003
1.878327e+003, 3.296163e-003
1.880255e+003, 4.185273e-003
1.882183e+003, 4.293504e-003
1.884112e+003, 3.903570e-003
1.886040e+003, 3.467456e-003
1.887969e+003, 3.090141e-003
1.889897e+003, 4.079352e-003
1.891826e+003, 3.972901e-003
1.893754e+003, 2.232265e-003
1.895683e+003, 2.028675e-003
1.897611e+003, 3.049376e-003
1.899540e+003, 4.067717e-003
1.901468e+003, 3.975741e-003
1.903397e+003, 3.669310e-003
1.905325e+003, 4.063865e-003
1.907254e+003, 2.826538e-003
1.909182e+003, 2.191018e-003
1.911110e+003, 3.065857e-003
1.913039e+003, 3.015701e-003
1.914967e+003, 2.049949e-003
1.916896e+003, 2.390367e-003
1.918824e+003, 3.242058e-003
1.920753e+003, 2.539115e-003
1.922681e+003, 2.170294e-003
1.924610e+003, 1.746957e-003
1.926538e+003, 2.113978e-003
1.928467e+003, 1.766978e-003
1.930395e+003, 1.690679e-003
1.932324e+003, 2.930316e-003
1.934252e+003, 3.230616e-003
1.936181e+003, 3.252320e-003
1.938109e+003, 3.710878e-003
1.940037e+003, 2.421546e-003
1.941966e+003, 1.009343e-003
1.943894e+003, 5.479126e-004
1.945823e+003, 5.533593e-004
1.947751e+003, 3.514117e-004
1.949680e+003, 7.101309e-004
1.951608e+003, 2.660722e-004
1.953537e+003, -7.603493e-004
1.955465e+003, 1.226045e-003
1.957394e+003, 1.428818e-003
1.959322e+003, -2.445016e-003
1.961251e+003, -3.684743e-003
1.963179e+003, -3.313670e-003
1.965108e+003, -2.166518e-003
1.967036e+003, -3.283108e-003
1.968964e+003, -4.346623e-003
1.970893e+003, -4.523495e-003
1.972821e+003, -5.539407e-003
1.974750e+003, -3.960501e-003
1.976678e+003, -5.970443e-004
1.978607e+003, 3.938172e-003
1.980535e+003, 4.832453e-003
1.982464e+003, 1.926916e-003
1.984392e+003, 2.152412e-003
1.986321e+003, 2.649426e-003
1.988249e+003, 2.404294e-003
1.990178e+003, 2.165629e-003
1.992106e+003, 7.692519e-004
1.994035e+003, -2.765266e-004
1.995963e+003, -6.893745e-004
1.997891e+003, 7.023825e-004
1.999820e+003, 1.560482e-003
2.001748e+003, -1.289482e-003
2.003677e+003, -4.090148e-003
2.005605e+003, -4.471940e-003
2.007534e+003, -4.311112e-003
2.009462e+003, -3.282219e-003
2.011391e+003, -1.389586e-003
2.013319e+003, -1.586206e-004
2.015248e+003, -1.983455e-003
2.017176e+003, -4.093490e-003
2.019105e+003, -3.418064e-003
2.021033e+003, -3.844332e-003
2.022962e+003, -5.419095e-003
2.024890e+003, -4.937027e-003
2.026818e+003, -3.117661e-003
2.028747e+003, -2.021355e-003
2.030675e+003, -1.781776e-003
2.032604e+003, -2.332221e-003
2.034532e+003, -1.449455e-003
2.036461e+003, -1.413513e-004
2.038389e+003, 1.775787e-003
2.040318e+003, 1.781058e-003
2.042246e+003, 1.238035e-003
2.044175e+003, 3.991792e-003
2.046103e+003, 4.437780e-003
2.048032e+003, 3.219309e-003
2.049960e+003, 4.556194e-003
2.051889e+003, 4.233210e-003
2.053817e+003, 2.663211e-003
2.055746e+003, 2.696592e-003
2.057674e+003, 3.748837e-003
2.059603e+003, 3.224827e-003
2.061531e+003, 1.718062e-003
2.063459e+003, 8.692769e-004
2.065388e+003, 1.223556e-003
2.067316e+003, 1.718354e-003
2.069245e+003, 2.308581e-003
2.071173e+003, 3.157543e-003
2.073102e+003, 2.823608e-003
2.075030e+003, 1.633565e-003
2.076959e+003, 2.509151e-003
2.078887e+003, 4.256243e-003
2.080816e+003, 3.536178e-003
2.082744e+003, 2.554202e-003
2.084673e+003, 2.786708e-003
2.086601e+003, 2.183017e-003
2.088530e+003, 2.639789e-003
2.090458e+003, 3.299207e-003
2.092386e+003, 1.941905e-003
2.094315e+003, 1.393648e-003
2.096243e+003, 2.948357e-003
2.098172e+003, 2.347545e-003
2.100100e+003, 1.160299e-003
2.102029e+003, -2.458965e-004
2.103957e+003, -5.725793e-004
2.105886e+003, 3.888773e-004
2.107814e+003, 1.557158e-003
2.109743e+003, 2.053151e-003
2.111671e+003, 1.546831e-003
2.113600e+003, 1.216984e-003
2.115528e+003, 1.489625e-003
2.117457e+003, 1.467723e-003
2.119385e+003, 4.526334e-004
2.121313e+003, -4.141825e-004
2.123242e+003, 4.187573e-004
2.125170e+003, 1.890849e-004
2.127099e+003, 1.558430e-004
2.129027e+003, -6.948018e-004
2.130956e+003, -2.792955e-003
2.132884e+003, -3.726471e-003
2.134813e+003, -4.028645e-003
2.136741e+003, -3.890514e-003
2.138670e+003, -5.822153e-003
2.140598e+003, -8.168310e-003
2.142527e+003, -6.920767e-003
2.144455e+003, -6.866764e-003
2.146384e+003, -5.982581e-003
2.148312e+003, -6.403173e-003
2.150240e+003, -7.618892e-003
2.152169e+003, -6.451425e-003
2.154097e+003, -6.346975e-003
2.156026e+003, -1.166541e-002
2.157954e+003, -1.051455e-002
2.159883e+003, -4.379170e-003
2.161811e+003, -5.618252e-003
2.163740e+003, -7.803387e-003
2.165668e+003, -6.565004e-003
2.167597e+003, -3.785974e-003
2.169525e+003, -3.948417e-003
2.171454e+003, -5.748368e-003
2.173382e+003, -5.783033e-003
2.175311e+003, -5.065792e-003
2.177239e+003, -5.400083e-003
2.179167e+003, -6.061548e-003
2.181096e+003, -4.801544e-003
2.183024e+003, -2.896535e-003
2.184953e+003, -3.151097e-003
2.186881e+003, -2.713595e-003
2.188810e+003, -2.300652e-003
2.190738e+003, -3.156619e-003
2.192667e+003, -3.776286e-003
2.194595e+003, -3.067665e-003
2.196524e+003, -2.040669e-003
2.198452e+003, -3.790756e-004
2.200381e+003, -1.511416e-003
2.202309e+003, -3.006798e-003
2.204238e+003, -2.969169e-003
2.206166e+003, -1.519112e-003
2.208094e+003, -5.010363e-004
2.210023e+003, -1.460133e-003
2.211951e+003, 5.161798e-004
2.213880e+003, 8.725842e-004
2.215808e+003, -1.190777e-004
2.217737e+003, -2.716857e-003
2.219665e+003, -2.714086e-003
2.221594e+003, -2.219228e-003
2.223522e+003, -2.505724e-003
2.225451e+003, -1.007844e-003
2.227379e+003, 7.950274e-004
2.229308e+003, 1.259865e-003
2.231236e+003, 1.741799e-003
2.233165e+003, 1.203213e-004
2.235093e+003, -1.267780e-003
2.237021e+003, -1.692789e-004
2.238950e+003, 1.608929e-003
2.240878e+003, 1.696739e-003
2.242807e+003, 7.877236e-006
2.244735e+003, 6.813186e-005
2.246664e+003, 7.826147e-004
2.248592e+003, 7.228164e-004
2.250521e+003, 1.196219e-003
2.252449e+003, 2.519634e-003
2.254378e+003, 2.986890e-003
2.256306e+003, 1.792153e-003
2.258235e+003, 2.456117e-003
2.260163e+003, 3.008001e-003
2.262092e+003, 1.618277e-003
2.264020e+003, 1.424087e-003
2.265948e+003, 2.604290e-003
2.267877e+003, 3.364750e-003
2.269805e+003, 3.699789e-003
2.271734e+003, 4.176472e-003
2.273662e+003, 3.333118e-003
2.275591e+003, 1.645758e-003
2.277519e+003, 2.804495e-003
2.279448e+003, 4.016599e-003
2.281376e+003, 5.626096e-003
2.283305e+003, 6.726562e-003
2.285233e+003, 6.455322e-003
2.287162e+003, 5.526505e-003
2.289090e+003, 5.731242e-003
2.291019e+003, 5.353174e-003
2.292947e+003, 5.288784e-003
2.294875e+003, 6.438936e-003
2.296804e+003, 6.760584e-003
2.298732e+003, 5.929143e-003
2.300661e+003, 5.752315e-003
2.302589e+003, 6.226786e-003
2.304518e+003, 6.546920e-003
2.306446e+003, 6.389257e-003
2.308375e+003, 6.560957e-003
2.310303e+003, 6.767179e-003
2.312232e+003, 6.475374e-003
2.314160e+003, 6.220502e-003
2.316089e+003, 6.257655e-003
2.318017e+003, 6.124226e-003
2.319946e+003, 7.204044e-003
2.321874e+003, 8.221799e-003
2.323802e+003, 8.243764e-003
2.325731e+003, 7.181263e-003
2.327659e+003, 6.541323e-003
2.329588e+003, 6.813331e-003
2.331516e+003, 6.691896e-003
2.333445e+003, 6.889686e-003
2.335373e+003, 7.171759e-003
2.337302e+003, 6.959322e-003
2.339230e+003, 6.442945e-003
2.341159e+003, 6.614237e-003
2.343087e+003, 6.376223e-003
2.345016e+003, 6.078927e-003
2.346944e+003, 6.335543e-003
2.348873e+003, 6.819431e-003
2.350801e+003, 6.085618e-003
2.352729e+003, 5.186106e-003
2.354658e+003, 5.214510e-003
2.356586e+003, 5.817697e-003
2.358515e+003, 5.633146e-003
2.360443e+003, 5.332350e-003
2.362372e+003, 5.223803e-003
2.364300e+003, 5.596631e-003
2.366229e+003, 5.643687e-003
2.368157e+003, 5.285810e-003
2.370086e+003, 5.388946e-003
2.372014e+003, 5.143541e-003
2.373942e+003, 5.348929e-003
2.375871e+003, 4.921148e-003
2.377799e+003, 3.980529e-003
2.379728e+003, 4.817116e-003
2.381656e+003, 4.686090e-003
2.383585e+003, 4.584927e-003
2.385513e+003, 5.093697e-003
2.387442e+003, 5.722041e-003
2.389370e+003, 6.040126e-003
2.391299e+003, 5.584541e-003
2.393227e+003, 6.280967e-003
2.395156e+003, 6.786919e-003
2.397084e+003, 6.125377e-003
2.399012e+003, 5.175483e-003
2.400941e+003, 5.893753e-003
2.402869e+003, 6.530415e-003
2.404798e+003, 6.026151e-003
2.406726e+003, 5.613514e-003
2.408655e+003, 6.136078e-003
2.410583e+003, 5.782887e-003
2.412512e+003, 5.631107e-003
2.414440e+003, 5.472024e-003
2.416369e+003, 6.242953e-003
2.418297e+003, 6.708054e-003
2.420226e+003, 5.857143e-003
2.422154e+003, 5.351318e-003
2.424083e+003, 5.116727e-003
2.426011e+003, 5.750225e-003
2.427939e+003, 5.708124e-003
2.429868e+003, 5.402025e-003
2.431796e+003, 5.729345e-003
2.433725e+003, 5.862242e-003
2.435653e+003, 6.647287e-003
2.437582e+003, 5.877380e-003
2.439510e+003, 5.642116e-003
2.441439e+003, 6.567432e-003
2.443367e+003, 7.961634e-003
2.445296e+003, 7.939754e-003
2.447224e+003, 7.098769e-003
2.449153e+003, 7.385837e-003
2.451081e+003, 8.623156e-003
2.453010e+003, 9.298282e-003
2.454938e+003, 7.891653e-003
2.456866e+003, 6.799557e-003
2.458795e+003, 7.257087e-003
2.460723e+003, 7.815056e-003
2.462652e+003, 7.934043e-003
2.464580e+003, 8.290205e-003
2.466509e+003, 8.687236e-003
2.468437e+003, 8.668798e-003
2.470366e+003, 8.300097e-003
2.472294e+003, 8.554183e-003
2.474223e+003, 8.619776e-003
2.476151e+003, 8.818886e-003
2.478080e+003, 8.474803e-003
2.480008e+003, 8.123003e-003
2.481937e+003, 8.735770e-003
2.483865e+003, 9.312548e-003
2.485793e+003, 9.134778e-003
2.487722e+003, 9.001303e-003
2.489650e+003, 8.982162e-003
2.491579e+003, 8.222290e-003
2.493507e+003, 8.034450e-003
2.495436e+003, 8.470492e-003
2.497364e+003, 8.665531e-003
2.499293e+003, 9.058535e-003
2.501221e+003, 9.531778e-003
2.503150e+003, 8.972826e-003
2.505078e+003, 8.341528e-003
2.507007e+003, 8.999383e-003
2.508935e+003, 8.954170e-003
2.510864e+003, 8.232701e-003
2.512792e+003, 8.796028e-003
2.514720e+003, 9.237044e-003
2.516649e+003, 8.667642e-003
2.518577e+003, 8.454681e-003
2.520506e+003, 9.598782e-003
2.522434e+003, 8.640645e-003
2.524363e+003, 8.636375e-003
2.526291e+003, 1.002512e-002
2.528220e+003, 1.071801e-002
2.530148e+003, 1.047207e-002
2.532077e+003, 1.025435e-002
2.534005e+003, 8.764911e-003
2.535934e+003, 8.385004e-003
2.537862e+003, 7.862524e-003
2.539791e+003, 7.407607e-003
2.541719e+003, 8.248509e-003
2.543647e+003, 8.784755e-003
2.545576e+003, 8.883068e-003
2.547504e+003, 9.672734e-003
2.549433e+003, 9.415241e-003
2.551361e+003, 9.430121e-003
2.553290e+003, 9.792252e-003
2.555218e+003, 1.045789e-002
2.557147e+003, 9.809866e-003
2.559075e+003, 7.862403e-003
2.561004e+003, 7.455296e-003
2.562932e+003, 9.004074e-003
2.564861e+003, 8.894080e-003
2.566789e+003, 8.401332e-003
2.568718e+003, 8.479168e-003
2.570646e+003, 8.995282e-003
2.572574e+003, 9.633016e-003
2.574503e+003, 9.475994e-003
2.576431e+003, 9.363859e-003
2.578360e+003, 9.146815e-003
2.580288e+003, 9.624130e-003
2.582217e+003, 1.011892e-002
2.584145e+003, 1.032910e-002
2.586074e+003, 9.593768e-003
2.588002e+003, 9.232722e-003
2.589931e+003, 9.637332e-003
2.591859e+003, 8.825314e-003
2.593788e+003, 9.184216e-003
2.595716e+003, 1.022615e-002
2.597645e+003, 1.012727e-002
2.599573e+003, 1.000582e-002
2.601501e+003, 1.033428e-002
2.603430e+003, 9.264452e-003
2.605358e+003, 9.214568e-003
2.607287e+003, 9.707403e-003
2.609215e+003, 9.572983e-003
2.611144e+003, 8.746848e-003
2.613072e+003, 8.482073e-003
2.615001e+003, 8.883677e-003
2.616929e+003, 9.530806e-003
2.618858e+003, 9.572395e-003
2.620786e+003, 1.023799e-002
2.622715e+003, 9.955673e-003
2.624643e+003, 9.447617e-003
2.626572e+003, 1.018025e-002
2.628500e+003, 1.099908e-002
2.630428e+003, 1.095858e-002
2.632357e+003, 1.068009e-002
2.634285e+003, 1.147478e-002
2.636214e+003, 1.214933e-002
2.638142e+003, 1.059593e-002
2.640071e+003, 8.959236e-003
2.641999e+003, 9.307092e-003
2.643928e+003, 1.014596e-002
2.645856e+003, 1.016000e-002
2.647785e+003, 1.036666e-002
2.649713e+003, 9.886264e-003
2.651642e+003, 9.113798e-003
2.653570e+003, 8.775915e-003
2.655499e+003, 9.595680e-003
2.657427e+003, 1.029824e-002
2.659355e+003, 1.022357e-002
2.661284e+003, 1.003394e-002
2.663212e+003, 9.483153e-003
2.665141e+003, 9.082138e-003
2.667069e+003, 9.750577e-003
2.668998e+003, 1.036770e-002
2.670926e+003, 9.563443e-003
2.672855e+003, 8.788382e-003
2.674783e+003, 9.667958e-003
2.676712e+003, 1.008424e-002
2.678640e+003, 9.615942e-003
2.680569e+003, 9.378315e-003
2.682497e+003, 9.618048e-003
2.684426e+003, 1.026350e-002
2.686354e+003, 9.856357e-003
2.688282e+003, 8.967370e-003
2.690211e+003, 9.155532e-003
2.692139e+003, 9.422304e-003
2.694068e+003, 9.085082e-003
2.695996e+003, 9.848225e-003
2.697925e+003, 9.666333e-003
2.699853e+003, 9.018587e-003
2.701782e+003, 9.720951e-003
2.703710e+003, 9.235965e-003
2.705639e+003, 8.168883e-003
2.707567e+003, 8.453524e-003
2.709496e+003, 9.418432e-003
2.711424e+003, 1.006731e-002
2.713353e+003, 1.033292e-002
2.715281e+003, 1.041460e-002
2.717209e+003, 1.066700e-002
2.719138e+003, 1.029197e-002
2.721066e+003, 9.463107e-003
2.722995e+003, 9.432979e-003
2.724923e+003, 1.014275e-002
2.726852e+003, 1.034231e-002
2.728780e+003, 1.000901e-002
2.730709e+003, 9.777955e-003
2.732637e+003, 1.039723e-002
2.734566e+003, 1.060659e-002
2.736494e+003, 1.000640e-002
2.738423e+003, 9.505448e-003
2.740351e+003, 1.009651e-002
2.742280e+003, 1.038799e-002
2.744208e+003, 1.067931e-002
2.746136e+003, 1.023033e-002
2.748065e+003, 9.320031e-003
2.749993e+003, 9.319316e-003
2.751922e+003, 9.784687e-003
2.753850e+003, 1.035865e-002
2.755779e+003, 1.028513e-002
2.757707e+003, 1.059798e-002
2.759636e+003, 1.106286e-002
2.761564e+003, 1.018823e-002
2.763493e+003, 9.697144e-003
2.765421e+003, 1.059019e-002
2.767350e+003, 1.176898e-002
2.769278e+003, 1.151925e-002
2.771207e+003, 1.054685e-002
2.773135e+003, 1.041868e-002
2.775063e+003, 1.087314e-002
2.776992e+003, 1.064090e-002
2.778920e+003, 1.037800e-002
2.780849e+003, 1.070448e-002
2.782777e+003, 1.067488e-002
2.784706e+003, 1.063862e-002
2.786634e+003, 1.100168e-002
2.788563e+003, 1.110142e-002
2.790491e+003, 1.003034e-002
2.792420e+003, 9.032172e-003
2.794348e+003, 9.789455e-003
2.796277e+003, 1.081080e-002
2.798205e+003, 1.060574e-002
2.800134e+003, 1.018091e-002
2.802062e+003, 1.057315e-002
2.803990e+003, 1.076132e-002
2.805919e+003, 1.087894e-002
2.807847e+003, 1.000183e-002
2.809776e+003, 8.006395e-003
2.811704e+003, 8.306664e-003
2.813633e+003, 9.654595e-003
2.815561e+003, 1.036109e-002
2.817490e+003, 1.090072e-002
2.819418e+003, 1.063855e-002
2.821347e+003, 1.012202e-002
2.823275e+003, 9.780087e-003
2.825204e+003, 8.928768e-003
2.827132e+003, 8.787107e-003
2.829061e+003, 9.387470e-003
2.830989e+003, 9.710179e-003
2.832917e+003, 1.003775e-002
2.834846e+003, 9.731076e-003
2.836774e+003, 8.525152e-003
2.838703e+003, 7.399672e-003
2.840631e+003, 7.364079e-003
2.842560e+003, 6.882635e-003
2.844488e+003, 5.951744e-003
2.846417e+003, 5.110919e-003
2.848345e+003, 4.146514e-003
2.850274e+003, 2.923473e-003
2.852202e+003, 1.730177e-003
2.854131e+003, 1.766197e-003
2.856059e+003, 2.056086e-003
2.857988e+003, 3.281977e-003
2.859916e+003, 4.177430e-003
2.861844e+003, 4.702411e-003
2.863773e+003, 5.750033e-003
2.865701e+003, 5.651171e-003
2.867630e+003, 5.735726e-003
2.869558e+003, 7.011399e-003
2.871487e+003, 7.212080e-003
2.873415e+003, 7.073963e-003
2.875344e+003, 6.813623e-003
2.877272e+003, 6.920956e-003
2.879201e+003, 7.868552e-003
2.881129e+003, 7.809364e-003
2.883058e+003, 6.972239e-003
2.884986e+003, 6.877321e-003
2.886915e+003, 6.651488e-003
2.888843e+003, 6.321871e-003
2.890771e+003, 7.071033e-003
2.892700e+003, 6.893300e-003
2.894628e+003, 5.622759e-003
2.896557e+003, 5.190444e-003
2.898485e+003, 5.409935e-003
2.900414e+003, 5.695296e-003
2.902342e+003, 4.876688e-003
2.904271e+003, 3.953843e-003
2.906199e+003, 2.781823e-003
2.908128e+003, 2.550665e-003
2.910056e+003, 2.554289e-003
2.911985e+003, 1.083807e-003
2.913913e+003, 6.455995e-004
2.915842e+003, -3.362109e-005
2.917770e+003, -1.246112e-004
2.919698e+003, -1.556098e-003
2.921627e+003, -2.961398e-003
2.923555e+003, -3.049555e-003
2.925484e+003, -3.025554e-003
2.927412e+003, -2.094476e-003
2.929341e+003, -1.928884e-003
2.931269e+003, -2.216594e-003
2.933198e+003, -8.225339e-004
2.935126e+003, 1.348245e-003
2.937055e+003, 2.253699e-003
2.938983e+003, 3.350969e-003
2.940912e+003, 4.600337e-003
2.942840e+003, 4.728816e-003
2.944769e+003, 4.898218e-003
2.946697e+003, 6.028456e-003
2.948625e+003, 6.343806e-003
2.950554e+003, 5.849535e-003
2.952482e+003, 4.868625e-003
2.954411e+003, 3.880410e-003
2.956339e+003, 4.386093e-003
2.958268e+003, 6.442669e-003
2.960196e+003, 7.778536e-003
2.962125e+003, 8.194637e-003
2.964053e+003, 7.915744e-003
2.965982e+003, 7.465428e-003
2.967910e+003, 7.854804e-003
2.969839e+003, 8.010997e-003
2.971767e+003, 8.539548e-003
2.973696e+003, 8.159914e-003
2.975624e+003, 8.550134e-003
2.977552e+003, 9.349432e-003
2.979481e+003, 9.315316e-003
2.981409e+003, 1.046600e-002
2.983338e+003, 1.050027e-002
2.985266e+003, 8.892622e-003
2.987195e+003, 8.607494e-003
2.989123e+003, 9.103573e-003
2.991052e+003, 8.367224e-003
2.992980e+003, 7.887131e-003
2.994909e+003, 8.300013e-003
2.996837e+003, 8.623183e-003
2.998766e+003, 9.309458e-003
3.000694e+003, 1.005989e-002
3.002623e+003, 9.341773e-003
3.004551e+003, 9.716714e-003
3.006479e+003, 1.128370e-002
3.008408e+003, 1.219053e-002
3.010336e+003, 1.249004e-002
3.012265e+003, 1.174604e-002
3.014193e+003, 1.106848e-002
3.016122e+003, 1.032997e-002
3.018050e+003, 1.019557e-002
3.019979e+003, 1.145791e-002
3.021907e+003, 1.140210e-002
3.023836e+003, 1.098295e-002
3.025764e+003, 1.160679e-002
3.027693e+003, 1.068905e-002
3.029621e+003, 1.023587e-002
3.031550e+003, 1.074267e-002
3.033478e+003, 1.075852e-002
3.035406e+003, 1.073271e-002
3.037335e+003, 1.181729e-002
3.039263e+003, 1.147673e-002
3.041192e+003, 1.063807e-002
3.043120e+003, 1.147706e-002
3.045049e+003, 1.133880e-002
3.046977e+003, 1.092468e-002
3.048906e+003, 1.086203e-002
3.050834e+003, 1.201629e-002
3.052763e+003, 1.339757e-002
3.054691e+003, 1.253378e-002
3.056620e+003, 1.081466e-002
3.058548e+003, 1.096709e-002
3.060477e+003, 1.218843e-002
3.062405e+003, 1.219416e-002
3.064333e+003, 1.111192e-002
3.066262e+003, 1.068388e-002
3.068190e+003, 1.140744e-002
3.070119e+003, 1.122984e-002
3.072047e+003, 1.129202e-002
3.073976e+003, 1.158592e-002
3.075904e+003, 1.149296e-002
3.077833e+003, 1.168749e-002
3.079761e+003, 1.190998e-002
3.081690e+003, 1.043135e-002
3.083618e+003, 1.073694e-002
3.085547e+003, 1.344024e-002
3.087475e+003, 1.371702e-002
3.089404e+003, 1.242585e-002
3.091332e+003, 1.188456e-002
3.093260e+003, 1.091816e-002
3.095189e+003, 1.079036e-002
3.097117e+003, 1.180627e-002
3.099046e+003, 1.247987e-002
3.100974e+003, 1.247633e-002
3.102903e+003, 1.254977e-002
3.104831e+003, 1.249257e-002
3.106760e+003, 1.225807e-002
3.108688e+003, 1.200324e-002
3.110617e+003, 1.242400e-002
3.112545e+003, 1.381902e-002
3.114474e+003, 1.252356e-002
3.116402e+003, 1.218347e-002
3.118331e+003, 1.381893e-002
3.120259e+003, 1.354810e-002
3.122188e+003, 1.337133e-002
3.124116e+003, 1.351676e-002
3.126044e+003, 1.296291e-002
3.127973e+003, 1.208534e-002
3.129901e+003, 1.265405e-002
3.131830e+003, 1.354730e-002
3.133758e+003, 1.346032e-002
3.135687e+003, 1.285930e-002
3.137615e+003, 1.219025e-002
3.139544e+003, 1.293098e-002
3.141472e+003, 1.285812e-002
3.143401e+003, 1.324215e-002
3.145329e+003, 1.437832e-002
3.147258e+003, 1.326156e-002
3.149186e+003, 1.145034e-002
3.151115e+003, 1.264940e-002
3.153043e+003, 1.387523e-002
3.154971e+003, 1.545904e-002
3.156900e+003, 1.640450e-002
3.158828e+003, 1.593413e-002
3.160757e+003, 1.488358e-002
3.162685e+003, 1.316161e-002
3.164614e+003, 1.187276e-002
3.166542e+003, 1.319599e-002
3.168471e+003, 1.326646e-002
3.170399e+003, 1.171243e-002
3.172328e+003, 1.227081e-002
3.174256e+003, 1.342662e-002
3.176185e+003, 1.398388e-002
3.178113e+003, 1.403758e-002
3.180042e+003, 1.626107e-002
3.181970e+003, 1.717854e-002
3.183898e+003, 1.517269e-002
3.185827e+003, 1.274187e-002
3.187755e+003, 1.295874e-002
3.189684e+003, 1.267900e-002
3.191612e+003, 1.194045e-002
3.193541e+003, 1.289404e-002
3.195469e+003, 1.381906e-002
3.197398e+003, 1.513452e-002
3.199326e+003, 1.562202e-002
3.201255e+003, 1.362479e-002
3.203183e+003, 1.371521e-002
3.205112e+003, 1.401179e-002
3.207040e+003, 1.360521e-002
3.208969e+003, 1.273913e-002
3.210897e+003, 1.348395e-002
3.212825e+003, 1.665363e-002
3.214754e+003, 1.629771e-002
3.216682e+003, 1.506386e-002
3.218611e+003, 1.481225e-002
3.220539e+003, 1.363306e-002
3.222468e+003, 1.357276e-002
3.224396e+003, 1.507255e-002
3.226325e+003, 1.801430e-002
3.228253e+003, 1.760550e-002
3.230182e+003, 1.637061e-002
3.232110e+003, 1.546762e-002
3.234039e+003, 1.337060e-002
3.235967e+003, 1.158294e-002
3.237896e+003, 1.256091e-002
3.239824e+003, 1.520750e-002
3.241752e+003, 1.637416e-002
3.243681e+003, 1.555788e-002
3.245609e+003, 1.490292e-002
3.247538e+003, 1.369573e-002
3.249466e+003, 1.418579e-002
3.251395e+003, 1.557668e-002
3.253323e+003, 1.464161e-002
3.255252e+003, 1.429581e-002
3.257180e+003, 1.581644e-002
3.259109e+003, 1.564225e-002
3.261037e+003, 1.492199e-002
3.262966e+003, 1.418422e-002
3.264894e+003, 1.355037e-002
3.266823e+003, 1.448616e-002
3.268751e+003, 1.362838e-002
3.270679e+003, 1.247916e-002
3.272608e+003, 1.353323e-002
3.274536e+003, 1.550008e-002
3.276465e+003, 1.713085e-002
3.278393e+003, 1.663935e-002
3.280322e+003, 1.650487e-002
3.282250e+003, 1.539642e-002
3.284179e+003, 1.440185e-002
3.286107e+003, 1.533626e-002
3.288036e+003, 1.675178e-002
3.289964e+003, 1.622390e-002
3.291893e+003, 1.269379e-002
3.293821e+003, 1.186771e-002
3.295750e+003, 1.513767e-002
3.297678e+003, 1.610193e-002
3.299606e+003, 1.557078e-002
3.301535e+003, 1.491894e-002
3.303463e+003, 1.484083e-002
3.305392e+003, 1.476440e-002
3.307320e+003, 1.477590e-002
3.309249e+003, 1.704270e-002
3.311177e+003, 1.765072e-002
3.313106e+003, 1.555170e-002
3.315034e+003, 1.454704e-002
3.316963e+003, 1.470339e-002
3.318891e+003, 1.458640e-002
3.320820e+003, 1.364051e-002
3.322748e+003, 1.376480e-002
3.324677e+003, 1.599325e-002
3.326605e+003, 1.591215e-002
3.328533e+003, 1.430940e-002
3.330462e+003, 1.539548e-002
3.332390e+003, 1.582249e-002
3.334319e+003, 1.467954e-002
3.336247e+003, 1.551484e-002
3.338176e+003, 1.674964e-002
3.340104e+003, 1.592435e-002
3.342033e+003, 1.672732e-002
3.343961e+003, 1.759713e-002
3.345890e+003, 1.528663e-002
3.347818e+003, 1.358166e-002
3.349747e+003, 1.388517e-002
3.351675e+003, 1.404049e-002
3.353604e+003, 1.455971e-002
3.355532e+003, 1.475283e-002
3.357460e+003, 1.563519e-002
3.359389e+003, 1.623689e-002
3.361317e+003, 1.554700e-002
3.363246e+003, 1.449926e-002
3.365174e+003, 1.435623e-002
3.367103e+003, 1.458575e-002
3.369031e+003, 1.472016e-002
3.370960e+003, 1.367577e-002
3.372888e+003, 1.304028e-002
3.374817e+003, 1.526104e-002
3.376745e+003, 1.809935e-002
3.378674e+003, 2.005759e-002
3.380602e+003, 2.031229e-002
3.382531e+003, 1.817689e-002
3.384459e+003, 1.723339e-002
3.386387e+003, 1.769819e-002
3.388316e+003, 1.780406e-002
3.390244e+003, 1.786490e-002
3.392173e+003, 1.663051e-002
3.394101e+003, 1.665350e-002
3.396030e+003, 1.507229e-002
3.397958e+003, 1.351348e-002
3.399887e+003, 1.472833e-002
3.401815e+003, 1.468614e-002
3.403744e+003, 1.594592e-002
3.405672e+003, 1.624665e-002
3.407601e+003, 1.620094e-002
3.409529e+003, 1.714126e-002
3.411458e+003, 1.825589e-002
3.413386e+003, 1.862590e-002
3.415314e+003, 1.552845e-002
3.417243e+003, 1.472907e-002
3.419171e+003, 1.520956e-002
3.421100e+003, 1.645056e-002
3.423028e+003, 1.614358e-002
3.424957e+003, 1.636286e-002
3.426885e+003, 1.768393e-002
3.428814e+003, 1.798581e-002
3.430742e+003, 1.712521e-002
3.432671e+003, 1.558312e-002
3.434599e+003, 1.550792e-002
3.436528e+003, 1.696186e-002
3.438456e+003, 1.683633e-002
3.440385e+003, 1.493992e-002
3.442313e+003, 1.480303e-002
3.444241e+003, 1.490757e-002
3.446170e+003, 1.372147e-002
3.448098e+003, 1.405502e-002
3.450027e+003, 1.586038e-002
3.451955e+003, 1.691377e-002
3.453884e+003, 1.708630e-002
3.455812e+003, 1.818352e-002
3.457741e+003, 1.779225e-002
3.459669e+003, 1.575445e-002
3.461598e+003, 1.615435e-002
3.463526e+003, 1.656174e-002
3.465455e+003, 1.570166e-002
3.467383e+003, 1.576810e-002
3.469312e+003, 1.583751e-002
3.471240e+003, 1.699395e-002
3.473168e+003, 1.696021e-002
3.475097e+003, 1.764761e-002
3.477025e+003, 2.006986e-002
3.478954e+003, 1.969999e-002
3.480882e+003, 1.694435e-002
3.482811e+003, 1.522487e-002
3.484739e+003, 1.876155e-002
3.486668e+003, 1.994383e-002
3.488596e+003, 1.798565e-002
3.490525e+003, 1.709140e-002
3.492453e+003, 1.636946e-002
3.494382e+003, 1.758835e-002
3.496310e+003, 1.852502e-002
3.498239e+003, 1.731452e-002
3.500167e+003, 1.703670e-002
3.502095e+003, 1.676002e-002
3.504024e+003, 1.528008e-002
3.505952e+003, 1.712712e-002
3.507881e+003, 1.572383e-002
3.509809e+003, 1.645857e-002
3.511738e+003, 1.724446e-002
3.513666e+003, 1.575318e-002
3.515595e+003, 1.556164e-002
3.517523e+003, 1.423884e-002
3.519452e+003, 1.330446e-002
3.521380e+003, 1.603181e-002
3.523309e+003, 1.634475e-002
3.525237e+003, 1.407754e-002
3.527166e+003, 1.482402e-002
3.529094e+003, 1.536530e-002
3.531022e+003, 1.622977e-002
3.532951e+003, 1.684507e-002
3.534879e+003, 1.689654e-002
3.536808e+003, 1.653601e-002
3.538736e+003, 1.735700e-002
3.540665e+003, 1.885551e-002
3.542593e+003, 1.864014e-002
3.544522e+003, 1.628007e-002
3.546450e+003, 1.472592e-002
3.548379e+003, 1.502976e-002
3.550307e+003, 1.789864e-002
3.552236e+003, 1.811854e-002
3.554164e+003, 1.710530e-002
3.556093e+003, 1.818268e-002
3.558021e+003, 1.816415e-002
3.559949e+003, 1.663586e-002
3.561878e+003, 1.497789e-002
3.563806e+003, 1.306446e-002
3.565735e+003, 1.336978e-002
3.567663e+003, 1.424733e-002
3.569592e+003, 1.356321e-002
3.571520e+003, 1.658156e-002
3.573449e+003, 1.949404e-002
3.575377e+003, 1.996925e-002
3.577306e+003, 1.891637e-002
3.579234e+003, 1.847982e-002
3.581163e+003, 1.873067e-002
3.583091e+003, 1.611578e-002
3.585020e+003, 1.101579e-002
3.586948e+003, 1.220199e-002
3.588876e+003, 1.621185e-002
3.590805e+003, 1.519913e-002
3.592733e+003, 1.303317e-002
3.594662e+003, 1.574041e-002
3.596590e+003, 1.780987e-002
3.598519e+003, 1.664063e-002
3.600447e+003, 1.700673e-002
3.602376e+003, 1.697167e-002
3.604304e+003, 1.567406e-002
3.606233e+003, 1.710170e-002
3.608161e+003, 1.814048e-002
3.610090e+003, 1.727479e-002
3.612018e+003, 1.581339e-002
3.613947e+003, 1.721564e-002
3.615875e+003, 1.782563e-002
3.617803e+003, 1.412603e-002
3.619732e+003, 1.338475e-002
3.621660e+003, 1.487260e-002
3.623589e+003, 1.289620e-002
3.625517e+003, 1.263965e-002
3.627446e+003, 1.416695e-002
3.629374e+003, 1.406176e-002
3.631303e+003, 1.758470e-002
3.633231e+003, 1.725006e-002
3.635160e+003, 1.336696e-002
3.637088e+003, 1.507125e-002
3.639017e+003, 1.864267e-002
3.640945e+003, 1.822341e-002
3.642874e+003, 1.584959e-002
3.644802e+003, 1.584152e-002
3.646730e+003, 1.626613e-002
3.648659e+003, 1.665550e-002
3.650587e+003, 1.535141e-002
3.652516e+003, 1.516352e-002
3.654444e+003, 1.563321e-002
3.656373e+003, 1.737500e-002
3.658301e+003, 1.649055e-002
3.660230e+003, 1.415818e-002
3.662158e+003, 1.555384e-002
3.664087e+003, 1.699832e-002
3.666015e+003, 1.983665e-002
3.667944e+003, 2.121497e-002
3.669872e+003, 2.093213e-002
3.671801e+003, 1.956162e-002
3.673729e+003, 1.644067e-002
3.675657e+003, 1.522086e-002
3.677586e+003, 1.462321e-002
3.679514e+003, 1.699669e-002
3.681443e+003, 1.947630e-002
3.683371e+003, 1.801729e-002
3.685300e+003, 1.463281e-002
3.687228e+003, 1.343707e-002
3.689157e+003, 1.527491e-002
3.691085e+003, 1.702653e-002
3.693014e+003, 1.451279e-002
3.694942e+003, 1.448306e-002
3.696871e+003, 1.424838e-002
3.698799e+003, 1.415158e-002
3.700728e+003, 1.446552e-002
3.702656e+003, 1.344207e-002
3.704584e+003, 1.212173e-002
3.706513e+003, 1.534516e-002
3.708441e+003, 1.893965e-002
3.710370e+003, 1.752918e-002
3.712298e+003, 1.466367e-002
3.714227e+003, 1.414927e-002
3.716155e+003, 1.281949e-002
3.718084e+003, 1.464015e-002
3.720012e+003, 1.650371e-002
3.721941e+003, 1.652398e-002
3.723869e+003, 1.752335e-002
3.725798e+003, 1.775645e-002
3.727726e+003, 1.438362e-002
3.729655e+003, 1.404810e-002
3.731583e+003, 1.590601e-002
3.733511e+003, 1.879685e-002
3.735440e+003, 1.939003e-002
3.737368e+003, 1.589966e-002
3.739297e+003, 1.372628e-002
3.741225e+003, 1.301043e-002
3.743154e+003, 1.173316e-002
3.745082e+003, 1.229150e-002
3.747011e+003, 1.338177e-002
3.748939e+003, 1.129793e-002
3.750868e+003, 1.018082e-002
3.752796e+003, 1.216497e-002
3.754725e+003, 1.572614e-002
3.756653e+003, 1.653537e-002
3.758582e+003, 1.463072e-002
3.760510e+003, 1.659955e-002
3.762438e+003, 1.848360e-002
3.764367e+003, 1.727986e-002
3.766295e+003, 1.468858e-002
3.768224e+003, 1.330861e-002
3.770152e+003, 1.665082e-002
3.772081e+003, 1.911482e-002
3.774009e+003, 1.678294e-002
3.775938e+003, 1.703308e-002
3.777866e+003, 1.808585e-002
3.779795e+003, 1.828694e-002
3.781723e+003, 1.665129e-002
3.783652e+003, 1.810708e-002
3.785580e+003, 1.977343e-002
3.787509e+003, 1.645885e-002
3.789437e+003, 1.519570e-002
3.791365e+003, 1.841190e-002
3.793294e+003, 1.805932e-002
3.795222e+003, 1.686165e-002
3.797151e+003, 1.669291e-002
3.799079e+003, 1.646896e-002
3.801008e+003, 1.553664e-002
3.802936e+003, 1.438781e-002
3.804865e+003, 1.714077e-002
3.806793e+003, 1.678448e-002
3.808722e+003, 1.769315e-002
3.810650e+003, 2.191344e-002
3.812579e+003, 2.238633e-002
3.814507e+003, 1.881022e-002
3.816436e+003, 1.691795e-002
3.818364e+003, 1.711670e-002
3.820292e+003, 1.568753e-002
3.822221e+003, 1.547685e-002
3.824149e+003, 1.804084e-002
3.826078e+003, 1.815888e-002
3.828006e+003, 1.703165e-002
3.829935e+003, 1.798834e-002
3.831863e+003, 1.890749e-002
3.833792e+003, 1.638979e-002
3.835720e+003, 1.475096e-002
3.837649e+003, 1.498456e-002
3.839577e+003, 1.574926e-002
3.841506e+003, 1.822708e-002
3.843434e+003, 1.823893e-002
3.845363e+003, 1.755612e-002
3.847291e+003, 1.630808e-002
3.849219e+003, 1.730901e-002
3.851148e+003, 1.854712e-002
3.853076e+003, 1.630424e-002
3.855005e+003, 1.629060e-002
3.856933e+003, 1.757498e-002
3.858862e+003, 1.786353e-002
3.860790e+003, 1.735070e-002
3.862719e+003, 1.652405e-002
3.864647e+003, 1.601355e-002
3.866576e+003, 1.357744e-002
3.868504e+003, 1.565235e-002
3.870433e+003, 1.931080e-002
3.872361e+003, 1.930303e-002
3.874290e+003, 1.604586e-002
3.876218e+003, 1.576212e-002
3.878146e+003, 1.565323e-002
3.880075e+003, 1.399802e-002
3.882003e+003, 1.360879e-002
3.883932e+003, 1.486807e-002
3.885860e+003, 1.613369e-002
3.887789e+003, 1.583778e-002
3.889717e+003, 1.312478e-002
3.891646e+003, 1.550002e-002
3.893574e+003, 1.681670e-002
3.895503e+003, 1.763804e-002
3.897431e+003, 1.895989e-002
3.899360e+003, 1.913939e-002
3.901288e+003, 1.807130e-002
3.903217e+003, 1.589946e-002
3.905145e+003, 1.543926e-002
3.907073e+003, 1.487582e-002
3.909002e+003, 1.572457e-002
3.910930e+003, 1.981961e-002
3.912859e+003, 2.231859e-002
3.914787e+003, 2.050557e-002
3.916716e+003, 1.672621e-002
3.918644e+003, 1.670717e-002
3.920573e+003, 1.532630e-002
3.922501e+003, 1.503958e-002
3.924430e+003, 1.495948e-002
3.926358e+003, 1.439654e-002
3.928287e+003, 1.589108e-002
3.930215e+003, 1.923197e-002
3.932144e+003, 2.203762e-002
3.934072e+003, 2.287048e-002
3.936000e+003, 2.385687e-002
3.937929e+003, 2.270077e-002
3.939857e+003, 2.189957e-002
3.941786e+003, 2.196558e-002
3.943714e+003, 2.124917e-002
3.945643e+003, 2.251208e-002
3.947571e+003, 2.215880e-002
3.949500e+003, 1.862942e-002
3.951428e+003, 2.191296e-002
3.953357e+003, 2.318890e-002
3.955285e+003, 2.316608e-002
3.957214e+003, 2.356043e-002
3.959142e+003, 1.825310e-002
3.961071e+003, 1.823149e-002
3.962999e+003, 2.054706e-002
3.964927e+003, 1.882411e-002
3.966856e+003, 1.705157e-002
3.968784e+003, 1.484893e-002
3.970713e+003, 1.799905e-002
3.972641e+003, 2.203247e-002
3.974570e+003, 2.313514e-002
3.976498e+003, 2.162326e-002
3.978427e+003, 1.934965e-002
3.980355e+003, 2.042058e-002
3.982284e+003, 2.189337e-002
3.984212e+003, 1.982199e-002
3.986141e+003, 1.493598e-002
3.988069e+003, 1.559030e-002
3.989998e+003, 1.843731e-002
3.991926e+003, 1.994774e-002
3.993854e+003, 1.956801e-002
3.995783e+003, 2.060691e-002
3.997711e+003, 2.066028e-002
3.999640e+003, 2.067025e-002
4.001568e+003, 0.000000e+000
##END=



