##NAMES=Beryl
##RRUFFID=R050120
##IDEAL CHEMISTRY=Be_3_Al_2_Si_6_O_18_
##LOCALITY=Cruziero mine, San Jose, Minas Gerais, Brazil
##OWNER=RRUFF
##SOURCE=Carlos and Paulo Vasconcelos
##DESCRIPTION=Yellow gemmy fragment
##STATUS=The identification of this mineral has been confirmed by X-ray diffraction and chemical analysis
##URL=rruff.info/R050120
##MEASURED CHEMISTRY=(Be_2.76_Li_0.24_)_Σ=3_Al_2.00_Si_6.00_O_18_·Na_0.24_
3.991926e+002, 1.890941e-001
4.011211e+002, 1.859348e-001
4.030495e+002, 1.885598e-001
4.049780e+002, 1.953646e-001
4.069065e+002, 2.020309e-001
4.088349e+002, 2.079319e-001
4.107634e+002, 2.126054e-001
4.126919e+002, 2.170311e-001
4.146203e+002, 2.273692e-001
4.165488e+002, 2.314101e-001
4.184773e+002, 2.311479e-001
4.204057e+002, 2.298178e-001
4.223342e+002, 2.316666e-001
4.242627e+002, 2.354708e-001
4.261911e+002, 2.357699e-001
4.281196e+002, 2.381904e-001
4.300481e+002, 2.396229e-001
4.319765e+002, 2.348066e-001
4.339050e+002, 2.317968e-001
4.358335e+002, 2.308069e-001
4.377619e+002, 2.290060e-001
4.396904e+002, 2.253402e-001
4.416189e+002, 2.191134e-001
4.435473e+002, 2.154513e-001
4.454758e+002, 2.104210e-001
4.474043e+002, 2.038223e-001
4.493327e+002, 1.968622e-001
4.512612e+002, 1.906373e-001
4.531897e+002, 1.844427e-001
4.551181e+002, 1.782378e-001
4.570466e+002, 1.729618e-001
4.589751e+002, 1.699307e-001
4.609035e+002, 1.667410e-001
4.628320e+002, 1.642065e-001
4.647605e+002, 1.639093e-001
4.666889e+002, 1.624066e-001
4.686174e+002, 1.627019e-001
4.705459e+002, 1.655020e-001
4.724743e+002, 1.672785e-001
4.744028e+002, 1.697940e-001
4.763313e+002, 1.736089e-001
4.782597e+002, 1.768975e-001
4.801882e+002, 1.813368e-001
4.821167e+002, 1.854324e-001
4.840451e+002, 1.904518e-001
4.859736e+002, 1.965018e-001
4.879021e+002, 2.009987e-001
4.898305e+002, 2.043962e-001
4.917590e+002, 2.064719e-001
4.936875e+002, 2.048071e-001
4.956159e+002, 2.014966e-001
4.975444e+002, 1.972537e-001
4.994729e+002, 1.903309e-001
5.014013e+002, 1.824926e-001
5.033298e+002, 1.753905e-001
5.052583e+002, 1.716373e-001
5.071867e+002, 1.739017e-001
5.091152e+002, 1.794194e-001
5.110437e+002, 1.866767e-001
5.129721e+002, 1.935891e-001
5.149006e+002, 1.988109e-001
5.168290e+002, 2.026359e-001
5.187575e+002, 2.047779e-001
5.206860e+002, 2.039080e-001
5.226144e+002, 2.009928e-001
5.245429e+002, 1.964052e-001
5.264714e+002, 1.910386e-001
5.283998e+002, 1.839679e-001
5.303283e+002, 1.754653e-001
5.322568e+002, 1.668520e-001
5.341852e+002, 1.572236e-001
5.361137e+002, 1.475250e-001
5.380422e+002, 1.390313e-001
5.399706e+002, 1.318981e-001
5.418991e+002, 1.252855e-001
5.438276e+002, 1.179590e-001
5.457560e+002, 1.113500e-001
5.476845e+002, 1.058440e-001
5.496130e+002, 1.000763e-001
5.515414e+002, 9.523413e-002
5.534699e+002, 9.246437e-002
5.553984e+002, 9.081687e-002
5.573268e+002, 8.924756e-002
5.592553e+002, 8.856024e-002
5.611838e+002, 8.891595e-002
5.631122e+002, 8.919444e-002
5.650407e+002, 8.850541e-002
5.669692e+002, 8.643787e-002
5.688976e+002, 8.274820e-002
5.708261e+002, 7.985187e-002
5.727546e+002, 7.733738e-002
5.746830e+002, 7.510324e-002
5.766115e+002, 7.433336e-002
5.785400e+002, 7.540567e-002
5.804684e+002, 7.816642e-002
5.823969e+002, 8.298300e-002
5.843254e+002, 9.003949e-002
5.862538e+002, 9.759802e-002
5.881823e+002, 1.040212e-001
5.901108e+002, 1.078932e-001
5.920392e+002, 1.099457e-001
5.939677e+002, 1.103983e-001
5.958962e+002, 1.088658e-001
5.978246e+002, 1.059644e-001
5.997531e+002, 1.023282e-001
6.016816e+002, 9.780696e-002
6.036100e+002, 9.310282e-002
6.055385e+002, 8.798498e-002
6.074670e+002, 8.219932e-002
6.093954e+002, 7.615242e-002
6.113239e+002, 7.086565e-002
6.132524e+002, 6.627605e-002
6.151808e+002, 6.251281e-002
6.171093e+002, 5.988279e-002
6.190378e+002, 5.842171e-002
6.209662e+002, 5.763052e-002
6.228947e+002, 5.743103e-002
6.248232e+002, 5.747895e-002
6.267516e+002, 5.800920e-002
6.286801e+002, 5.914653e-002
6.306086e+002, 6.153304e-002
6.325370e+002, 6.466851e-002
6.344655e+002, 6.873145e-002
6.363940e+002, 7.388104e-002
6.383224e+002, 8.015449e-002
6.402509e+002, 8.729033e-002
6.421794e+002, 9.458353e-002
6.441078e+002, 1.015497e-001
6.460363e+002, 1.079121e-001
6.479648e+002, 1.122373e-001
6.498932e+002, 1.136878e-001
6.518217e+002, 1.127287e-001
6.537502e+002, 1.112613e-001
6.556786e+002, 1.110236e-001
6.576071e+002, 1.134045e-001
6.595356e+002, 1.187147e-001
6.614641e+002, 1.264949e-001
6.633925e+002, 1.351717e-001
6.653210e+002, 1.433898e-001
6.672495e+002, 1.509177e-001
6.691779e+002, 1.570186e-001
6.711064e+002, 1.612095e-001
6.730349e+002, 1.639170e-001
6.749633e+002, 1.647739e-001
6.768918e+002, 1.639439e-001
6.788203e+002, 1.613440e-001
6.807487e+002, 1.569093e-001
6.826772e+002, 1.518000e-001
6.846057e+002, 1.469593e-001
6.865341e+002, 1.420428e-001
6.884626e+002, 1.373948e-001
6.903911e+002, 1.334133e-001
6.923195e+002, 1.299219e-001
6.942480e+002, 1.264678e-001
6.961765e+002, 1.227724e-001
6.981049e+002, 1.183982e-001
7.000334e+002, 1.140340e-001
7.019619e+002, 1.093528e-001
7.038903e+002, 1.048428e-001
7.058188e+002, 1.006144e-001
7.077473e+002, 9.664679e-002
7.096757e+002, 9.337838e-002
7.116042e+002, 9.110416e-002
7.135327e+002, 8.987583e-002
7.154611e+002, 8.930552e-002
7.173896e+002, 8.935596e-002
7.193181e+002, 9.069037e-002
7.212465e+002, 9.289528e-002
7.231750e+002, 9.556312e-002
7.251035e+002, 9.865813e-002
7.270319e+002, 1.021881e-001
7.289604e+002, 1.051545e-001
7.308889e+002, 1.074510e-001
7.328173e+002, 1.095447e-001
7.347458e+002, 1.117593e-001
7.366743e+002, 1.135384e-001
7.386027e+002, 1.146816e-001
7.405312e+002, 1.153064e-001
7.424597e+002, 1.151071e-001
7.443881e+002, 1.142306e-001
7.463166e+002, 1.129697e-001
7.482451e+002, 1.107750e-001
7.501735e+002, 1.078610e-001
7.521020e+002, 1.041379e-001
7.540305e+002, 1.000366e-001
7.559589e+002, 9.580413e-002
7.578874e+002, 9.130725e-002
7.598159e+002, 8.630083e-002
7.617443e+002, 8.144262e-002
7.636728e+002, 7.711162e-002
7.656013e+002, 7.346395e-002
7.675297e+002, 7.087213e-002
7.694582e+002, 6.922511e-002
7.713867e+002, 6.825661e-002
7.733151e+002, 6.778225e-002
7.752436e+002, 6.816989e-002
7.771721e+002, 6.965252e-002
7.791005e+002, 7.135577e-002
7.810290e+002, 7.343513e-002
7.829575e+002, 7.605959e-002
7.848859e+002, 7.913668e-002
7.868144e+002, 8.264570e-002
7.887429e+002, 8.697302e-002
7.906713e+002, 9.155107e-002
7.925998e+002, 9.597164e-002
7.945283e+002, 1.003957e-001
7.964567e+002, 1.050752e-001
7.983852e+002, 1.097641e-001
8.003137e+002, 1.141503e-001
8.022421e+002, 1.180526e-001
8.041706e+002, 1.216527e-001
8.060991e+002, 1.246404e-001
8.080275e+002, 1.270621e-001
8.099560e+002, 1.287756e-001
8.118845e+002, 1.295845e-001
8.138129e+002, 1.298198e-001
8.157414e+002, 1.296229e-001
8.176699e+002, 1.285623e-001
8.195983e+002, 1.269726e-001
8.215268e+002, 1.249571e-001
8.234553e+002, 1.223118e-001
8.253837e+002, 1.191085e-001
8.273122e+002, 1.155699e-001
8.292407e+002, 1.113872e-001
8.311691e+002, 1.073615e-001
8.330976e+002, 1.030710e-001
8.350261e+002, 9.859201e-002
8.369545e+002, 9.427865e-002
8.388830e+002, 9.016366e-002
8.408115e+002, 8.652935e-002
8.427399e+002, 8.352779e-002
8.446684e+002, 8.057044e-002
8.465969e+002, 7.813761e-002
8.485253e+002, 7.617310e-002
8.504538e+002, 7.470138e-002
8.523823e+002, 7.371229e-002
8.543107e+002, 7.356562e-002
8.562392e+002, 7.428385e-002
8.581677e+002, 7.586296e-002
8.600961e+002, 7.794909e-002
8.620246e+002, 8.093297e-002
8.639531e+002, 8.434636e-002
8.658815e+002, 8.761573e-002
8.678100e+002, 9.003843e-002
8.697385e+002, 9.075399e-002
8.716669e+002, 8.965930e-002
8.735954e+002, 8.866522e-002
8.755239e+002, 8.951870e-002
8.774523e+002, 9.227176e-002
8.793808e+002, 9.599882e-002
8.813093e+002, 1.005038e-001
8.832377e+002, 1.054988e-001
8.851662e+002, 1.106828e-001
8.870947e+002, 1.158765e-001
8.890231e+002, 1.213596e-001
8.909516e+002, 1.270160e-001
8.928801e+002, 1.327712e-001
8.948085e+002, 1.386847e-001
8.967370e+002, 1.444411e-001
8.986655e+002, 1.501028e-001
9.005939e+002, 1.561641e-001
9.025224e+002, 1.621636e-001
9.044509e+002, 1.681695e-001
9.063793e+002, 1.737950e-001
9.083078e+002, 1.794571e-001
9.102363e+002, 1.851640e-001
9.121647e+002, 1.906076e-001
9.140932e+002, 1.958520e-001
9.160217e+002, 2.010847e-001
9.179501e+002, 2.060290e-001
9.198786e+002, 2.106520e-001
9.218071e+002, 2.149691e-001
9.237355e+002, 2.188642e-001
9.256640e+002, 2.225632e-001
9.275925e+002, 2.261516e-001
9.295209e+002, 2.293549e-001
9.314494e+002, 2.321978e-001
9.333779e+002, 2.345782e-001
9.353063e+002, 2.367302e-001
9.372348e+002, 2.383695e-001
9.391633e+002, 2.397901e-001
9.410917e+002, 2.408120e-001
9.430202e+002, 2.416898e-001
9.449487e+002, 2.426250e-001
9.468771e+002, 2.429153e-001
9.488056e+002, 2.422235e-001
9.507341e+002, 2.409254e-001
9.526625e+002, 2.387412e-001
9.545910e+002, 2.354994e-001
9.565195e+002, 2.311891e-001
9.584479e+002, 2.256237e-001
9.603764e+002, 2.189101e-001
9.623049e+002, 2.115002e-001
9.642333e+002, 2.034353e-001
9.661618e+002, 1.948890e-001
9.680903e+002, 1.861900e-001
9.700187e+002, 1.776787e-001
9.719472e+002, 1.691168e-001
9.738757e+002, 1.609905e-001
9.758041e+002, 1.536085e-001
9.777326e+002, 1.465401e-001
9.796611e+002, 1.393797e-001
9.815895e+002, 1.325884e-001
9.835180e+002, 1.261870e-001
9.854465e+002, 1.202683e-001
9.873749e+002, 1.149512e-001
9.893034e+002, 1.105741e-001
9.912319e+002, 1.072937e-001
9.931603e+002, 1.053322e-001
9.950888e+002, 1.044093e-001
9.970173e+002, 1.042903e-001
9.989457e+002, 1.051183e-001
1.000874e+003, 1.066505e-001
1.002803e+003, 1.083474e-001
1.004731e+003, 1.100838e-001
1.006660e+003, 1.119132e-001
1.008588e+003, 1.137120e-001
1.010517e+003, 1.147901e-001
1.012445e+003, 1.152690e-001
1.014373e+003, 1.159114e-001
1.016302e+003, 1.162980e-001
1.018230e+003, 1.165438e-001
1.020159e+003, 1.170853e-001
1.022087e+003, 1.174190e-001
1.024016e+003, 1.177261e-001
1.025944e+003, 1.179687e-001
1.027873e+003, 1.184293e-001
1.029801e+003, 1.189392e-001
1.031730e+003, 1.190998e-001
1.033658e+003, 1.190606e-001
1.035587e+003, 1.190559e-001
1.037515e+003, 1.191660e-001
1.039443e+003, 1.193282e-001
1.041372e+003, 1.193921e-001
1.043300e+003, 1.193388e-001
1.045229e+003, 1.193089e-001
1.047157e+003, 1.197434e-001
1.049086e+003, 1.200306e-001
1.051014e+003, 1.203116e-001
1.052943e+003, 1.205545e-001
1.054871e+003, 1.202637e-001
1.056800e+003, 1.199504e-001
1.058728e+003, 1.193963e-001
1.060657e+003, 1.181205e-001
1.062585e+003, 1.162067e-001
1.064514e+003, 1.139972e-001
1.066442e+003, 1.113328e-001
1.068370e+003, 1.082183e-001
1.070299e+003, 1.048470e-001
1.072227e+003, 1.011661e-001
1.074156e+003, 9.735597e-002
1.076084e+003, 9.363023e-002
1.078013e+003, 9.003269e-002
1.079941e+003, 8.654165e-002
1.081870e+003, 8.295401e-002
1.083798e+003, 7.941954e-002
1.085727e+003, 7.641660e-002
1.087655e+003, 7.380436e-002
1.089584e+003, 7.128982e-002
1.091512e+003, 6.906924e-002
1.093441e+003, 6.718583e-002
1.095369e+003, 6.531500e-002
1.097297e+003, 6.356970e-002
1.099226e+003, 6.220426e-002
1.101154e+003, 6.150762e-002
1.103083e+003, 6.135036e-002
1.105011e+003, 6.183701e-002
1.106940e+003, 6.264897e-002
1.108868e+003, 6.391594e-002
1.110797e+003, 6.551313e-002
1.112725e+003, 6.753052e-002
1.114654e+003, 7.027961e-002
1.116582e+003, 7.356486e-002
1.118511e+003, 7.707674e-002
1.120439e+003, 8.112824e-002
1.122368e+003, 8.575615e-002
1.124296e+003, 9.081540e-002
1.126224e+003, 9.572883e-002
1.128153e+003, 1.001714e-001
1.130081e+003, 1.041240e-001
1.132010e+003, 1.076244e-001
1.133938e+003, 1.104229e-001
1.135867e+003, 1.128475e-001
1.137795e+003, 1.145316e-001
1.139724e+003, 1.155905e-001
1.141652e+003, 1.161400e-001
1.143581e+003, 1.166202e-001
1.145509e+003, 1.169393e-001
1.147438e+003, 1.172365e-001
1.149366e+003, 1.174409e-001
1.151295e+003, 1.177895e-001
1.153223e+003, 1.183048e-001
1.155151e+003, 1.189933e-001
1.157080e+003, 1.196029e-001
1.159008e+003, 1.202696e-001
1.160937e+003, 1.212806e-001
1.162865e+003, 1.222738e-001
1.164794e+003, 1.231453e-001
1.166722e+003, 1.239352e-001
1.168651e+003, 1.244083e-001
1.170579e+003, 1.247105e-001
1.172508e+003, 1.245736e-001
1.174436e+003, 1.239665e-001
1.176365e+003, 1.228831e-001
1.178293e+003, 1.216170e-001
1.180222e+003, 1.199070e-001
1.182150e+003, 1.179715e-001
1.184078e+003, 1.157314e-001
1.186007e+003, 1.132067e-001
1.187935e+003, 1.104950e-001
1.189864e+003, 1.075745e-001
1.191792e+003, 1.045762e-001
1.193721e+003, 1.015972e-001
1.195649e+003, 9.825695e-002
1.197578e+003, 9.486286e-002
1.199506e+003, 9.135568e-002
1.201435e+003, 8.783568e-002
1.203363e+003, 8.436336e-002
1.205292e+003, 8.123297e-002
1.207220e+003, 7.801701e-002
1.209149e+003, 7.488017e-002
1.211077e+003, 7.197735e-002
1.213005e+003, 6.909081e-002
1.214934e+003, 6.616343e-002
1.216862e+003, 6.328558e-002
1.218791e+003, 6.043415e-002
1.220719e+003, 5.777010e-002
1.222648e+003, 5.523062e-002
1.224576e+003, 5.260875e-002
1.226505e+003, 5.005254e-002
1.228433e+003, 4.759619e-002
1.230362e+003, 4.537345e-002
1.232290e+003, 4.324362e-002
1.234219e+003, 4.094816e-002
1.236147e+003, 3.885356e-002
1.238076e+003, 3.690500e-002
1.240004e+003, 3.490472e-002
1.241932e+003, 3.292281e-002
1.243861e+003, 3.113104e-002
1.245789e+003, 2.936902e-002
1.247718e+003, 2.757356e-002
1.249646e+003, 2.587930e-002
1.251575e+003, 2.439546e-002
1.253503e+003, 2.278766e-002
1.255432e+003, 2.115814e-002
1.257360e+003, 1.929548e-002
1.259289e+003, 1.763339e-002
1.261217e+003, 1.597895e-002
1.263146e+003, 1.435448e-002
1.265074e+003, 1.296230e-002
1.267003e+003, 1.160057e-002
1.268931e+003, 1.034001e-002
1.270859e+003, 9.216337e-003
1.272788e+003, 8.237718e-003
1.274716e+003, 7.434075e-003
1.276645e+003, 6.667225e-003
1.278573e+003, 6.058367e-003
1.280502e+003, 5.650425e-003
1.282430e+003, 5.468190e-003
1.284359e+003, 5.224749e-003
1.286287e+003, 5.012702e-003
1.288216e+003, 4.660484e-003
1.290144e+003, 4.415298e-003
1.292073e+003, 4.368807e-003
1.294001e+003, 4.405168e-003
1.295930e+003, 4.087452e-003
1.297858e+003, 3.783679e-003
1.299786e+003, 3.705440e-003
1.301715e+003, 3.734278e-003
1.303643e+003, 3.599891e-003
1.305572e+003, 3.396884e-003
1.307500e+003, 3.424069e-003
1.309429e+003, 3.593720e-003
1.311357e+003, 3.530266e-003
1.313286e+003, 3.418594e-003
1.315214e+003, 3.431270e-003
1.317143e+003, 3.487305e-003
1.319071e+003, 3.539137e-003
1.321000e+003, 3.486386e-003
1.322928e+003, 3.472013e-003
1.324857e+003, 3.438062e-003
1.326785e+003, 3.273342e-003
1.328714e+003, 3.328209e-003
1.330642e+003, 3.316086e-003
1.332570e+003, 3.465614e-003
1.334499e+003, 3.721322e-003
1.336427e+003, 3.561104e-003
1.338356e+003, 3.489222e-003
1.340284e+003, 3.647984e-003
1.342213e+003, 3.704239e-003
1.344141e+003, 3.806363e-003
1.346070e+003, 3.826042e-003
1.347998e+003, 3.872782e-003
1.349927e+003, 3.776023e-003
1.351855e+003, 3.713469e-003
1.353784e+003, 3.726473e-003
1.355712e+003, 3.838685e-003
1.357641e+003, 3.981611e-003
1.359569e+003, 4.150545e-003
1.361497e+003, 4.381837e-003
1.363426e+003, 4.509467e-003
1.365354e+003, 4.591460e-003
1.367283e+003, 4.820223e-003
1.369211e+003, 5.064200e-003
1.371140e+003, 5.355876e-003
1.373068e+003, 5.614829e-003
1.374997e+003, 5.792198e-003
1.376925e+003, 5.832558e-003
1.378854e+003, 6.217746e-003
1.380782e+003, 6.697810e-003
1.382711e+003, 7.096346e-003
1.384639e+003, 7.309274e-003
1.386568e+003, 7.700427e-003
1.388496e+003, 8.158164e-003
1.390424e+003, 8.669113e-003
1.392353e+003, 9.221117e-003
1.394281e+003, 9.929113e-003
1.396210e+003, 1.076437e-002
1.398138e+003, 1.190949e-002
1.400067e+003, 1.280813e-002
1.401995e+003, 1.370925e-002
1.403924e+003, 1.478777e-002
1.405852e+003, 1.584715e-002
1.407781e+003, 1.697033e-002
1.409709e+003, 1.801044e-002
1.411638e+003, 1.879487e-002
1.413566e+003, 1.961003e-002
1.415495e+003, 2.028792e-002
1.417423e+003, 2.105045e-002
1.419351e+003, 2.153576e-002
1.421280e+003, 2.198328e-002
1.423208e+003, 2.275543e-002
1.425137e+003, 2.343503e-002
1.427065e+003, 2.391152e-002
1.428994e+003, 2.447045e-002
1.430922e+003, 2.487099e-002
1.432851e+003, 2.537688e-002
1.434779e+003, 2.583024e-002
1.436708e+003, 2.642723e-002
1.438636e+003, 2.681930e-002
1.440565e+003, 2.697494e-002
1.442493e+003, 2.710282e-002
1.444422e+003, 2.743247e-002
1.446350e+003, 2.771936e-002
1.448278e+003, 2.763045e-002
1.450207e+003, 2.742543e-002
1.452135e+003, 2.750190e-002
1.454064e+003, 2.754214e-002
1.455992e+003, 2.757741e-002
1.457921e+003, 2.734584e-002
1.459849e+003, 2.682423e-002
1.461778e+003, 2.628246e-002
1.463706e+003, 2.587605e-002
1.465635e+003, 2.535138e-002
1.467563e+003, 2.472362e-002
1.469492e+003, 2.428055e-002
1.471420e+003, 2.428906e-002
1.473349e+003, 2.391480e-002
1.475277e+003, 2.309845e-002
1.477205e+003, 2.225571e-002
1.479134e+003, 2.155504e-002
1.481062e+003, 2.086811e-002
1.482991e+003, 2.031716e-002
1.484919e+003, 1.965200e-002
1.486848e+003, 1.911493e-002
1.488776e+003, 1.852774e-002
1.490705e+003, 1.790014e-002
1.492633e+003, 1.712307e-002
1.494562e+003, 1.652543e-002
1.496490e+003, 1.590147e-002
1.498419e+003, 1.511676e-002
1.500347e+003, 1.419409e-002
1.502276e+003, 1.337298e-002
1.504204e+003, 1.289210e-002
1.506132e+003, 1.252049e-002
1.508061e+003, 1.147222e-002
1.509989e+003, 1.051278e-002
1.511918e+003, 9.753471e-003
1.513846e+003, 8.915964e-003
1.515775e+003, 8.380330e-003
1.517703e+003, 7.867577e-003
1.519632e+003, 7.434970e-003
1.521560e+003, 7.031136e-003
1.523489e+003, 6.364192e-003
1.525417e+003, 6.009772e-003
1.527346e+003, 5.631564e-003
1.529274e+003, 5.325900e-003
1.531203e+003, 4.977832e-003
1.533131e+003, 4.687888e-003
1.535059e+003, 4.367632e-003
1.536988e+003, 4.417512e-003
1.538916e+003, 4.675381e-003
1.540845e+003, 4.570097e-003
1.542773e+003, 4.250152e-003
1.544702e+003, 4.041028e-003
1.546630e+003, 3.698112e-003
1.548559e+003, 3.513246e-003
1.550487e+003, 3.500323e-003
1.552416e+003, 3.566778e-003
1.554344e+003, 3.569398e-003
1.556273e+003, 3.693897e-003
1.558201e+003, 4.000721e-003
1.560130e+003, 3.873968e-003
1.562058e+003, 3.448674e-003
1.563986e+003, 3.268215e-003
1.565915e+003, 3.176795e-003
1.567843e+003, 3.336519e-003
1.569772e+003, 3.556734e-003
1.571700e+003, 3.645969e-003
1.573629e+003, 3.682260e-003
1.575557e+003, 3.928568e-003
1.577486e+003, 3.877186e-003
1.579414e+003, 3.524620e-003
1.581343e+003, 3.361787e-003
1.583271e+003, 3.480611e-003
1.585200e+003, 3.472554e-003
1.587128e+003, 3.469595e-003
1.589057e+003, 3.432800e-003
1.590985e+003, 3.578753e-003
1.592913e+003, 3.609145e-003
1.594842e+003, 3.701595e-003
1.596770e+003, 3.788313e-003
1.598699e+003, 4.089725e-003
1.600627e+003, 4.273348e-003
1.602556e+003, 4.037321e-003
1.604484e+003, 3.766966e-003
1.606413e+003, 3.700487e-003
1.608341e+003, 3.683399e-003
1.610270e+003, 3.875250e-003
1.612198e+003, 4.489019e-003
1.614127e+003, 5.517564e-003
1.616055e+003, 7.047247e-003
1.617984e+003, 9.145737e-003
1.619912e+003, 1.156459e-002
1.621840e+003, 1.371867e-002
1.623769e+003, 1.419898e-002
1.625697e+003, 1.328405e-002
1.627626e+003, 1.183693e-002
1.629554e+003, 1.063301e-002
1.631483e+003, 9.759806e-003
1.633411e+003, 8.838490e-003
1.635340e+003, 7.371057e-003
1.637268e+003, 5.482687e-003
1.639197e+003, 3.843317e-003
1.641125e+003, 2.975718e-003
1.643054e+003, 2.450279e-003
1.644982e+003, 2.268055e-003
1.646911e+003, 1.894525e-003
1.648839e+003, 1.462884e-003
1.650767e+003, 1.478907e-003
1.652696e+003, 1.830818e-003
1.654624e+003, 1.681602e-003
1.656553e+003, 1.413601e-003
1.658481e+003, 1.284334e-003
1.660410e+003, 1.398166e-003
1.662338e+003, 1.422701e-003
1.664267e+003, 1.377783e-003
1.666195e+003, 1.213027e-003
1.668124e+003, 1.218200e-003
1.670052e+003, 1.117026e-003
1.671981e+003, 1.122708e-003
1.673909e+003, 1.253674e-003
1.675838e+003, 1.185325e-003
1.677766e+003, 9.941214e-004
1.679694e+003, 1.103677e-003
1.681623e+003, 1.224600e-003
1.683551e+003, 1.521434e-003
1.685480e+003, 1.564544e-003
1.687408e+003, 1.302603e-003
1.689337e+003, 1.148570e-003
1.691265e+003, 1.064416e-003
1.693194e+003, 1.143401e-003
1.695122e+003, 1.470881e-003
1.697051e+003, 1.593992e-003
1.698979e+003, 1.812537e-003
1.700908e+003, 1.731673e-003
1.702836e+003, 1.434369e-003
1.704765e+003, 1.333857e-003
1.706693e+003, 1.293626e-003
1.708621e+003, 1.118287e-003
1.710550e+003, 8.693372e-004
1.712478e+003, 7.925065e-004
1.714407e+003, 1.194191e-003
1.716335e+003, 1.481312e-003
1.718264e+003, 1.264135e-003
1.720192e+003, 9.610930e-004
1.722121e+003, 9.333255e-004
1.724049e+003, 9.083590e-004
1.725978e+003, 8.212155e-004
1.727906e+003, 7.300459e-004
1.729835e+003, 7.992058e-004
1.731763e+003, 8.505439e-004
1.733692e+003, 1.030032e-003
1.735620e+003, 8.118131e-004
1.737548e+003, 6.397266e-004
1.739477e+003, 5.404314e-004
1.741405e+003, 3.746531e-004
1.743334e+003, 1.866451e-004
1.745262e+003, 9.588551e-005
1.747191e+003, 2.475399e-004
1.749119e+003, 3.946257e-004
1.751048e+003, 4.194553e-004
1.752976e+003, 3.541477e-004
1.754905e+003, 2.223335e-004
1.756833e+003, 2.762210e-004
1.758762e+003, 2.848162e-004
1.760690e+003, 3.716956e-004
1.762619e+003, 4.407127e-004
1.764547e+003, 4.547227e-004
1.766475e+003, 5.958611e-004
1.768404e+003, 6.139422e-004
1.770332e+003, 4.940561e-004
1.772261e+003, 9.326097e-004
1.774189e+003, 8.121682e-004
1.776118e+003, 3.309609e-004
1.778046e+003, 1.977915e-004
1.779975e+003, 2.904090e-004
1.781903e+003, 5.441627e-004
1.783832e+003, 6.823546e-004
1.785760e+003, 6.938269e-004
1.787689e+003, 6.365481e-004
1.789617e+003, 4.070833e-004
1.791546e+003, 5.111241e-004
1.793474e+003, 6.961092e-004
1.795402e+003, 6.774040e-004
1.797331e+003, 6.735582e-004
1.799259e+003, 8.126196e-004
1.801188e+003, 7.661876e-004
1.803116e+003, 4.695621e-004
1.805045e+003, 2.957748e-004
1.806973e+003, 3.333030e-004
1.808902e+003, 2.537510e-004
1.810830e+003, 1.933014e-004
1.812759e+003, 1.220341e-004
1.814687e+003, -1.811562e-004
1.816616e+003, -2.044996e-004
1.818544e+003, 6.244911e-005
1.820473e+003, 1.620525e-005
1.822401e+003, -1.051235e-004
1.824329e+003, -2.188948e-004
1.826258e+003, -2.984730e-004
1.828186e+003, -2.680746e-004
1.830115e+003, -1.500642e-004
1.832043e+003, -4.125293e-004
1.833972e+003, -8.269348e-004
1.835900e+003, -6.440043e-004
1.837829e+003, -3.277172e-004
1.839757e+003, -5.841042e-004
1.841686e+003, -2.922005e-004
1.843614e+003, 1.745425e-004
1.845543e+003, 1.992708e-004
1.847471e+003, -3.930426e-004
1.849400e+003, -6.115689e-004
1.851328e+003, -5.906112e-004
1.853256e+003, -5.812667e-004
1.855185e+003, -5.518196e-004
1.857113e+003, -5.322658e-004
1.859042e+003, -5.885058e-004
1.860970e+003, -7.896944e-004
1.862899e+003, -7.569465e-004
1.864827e+003, -3.129379e-004
1.866756e+003, -2.952490e-004
1.868684e+003, -4.300238e-004
1.870613e+003, -9.890873e-004
1.872541e+003, -1.327625e-003
1.874470e+003, -1.455457e-003
1.876398e+003, -1.458600e-003
1.878327e+003, -1.344375e-003
1.880255e+003, -1.144054e-003
1.882183e+003, -1.079142e-003
1.884112e+003, -7.243259e-004
1.886040e+003, -1.014327e-003
1.887969e+003, -1.279569e-003
1.889897e+003, -1.227082e-003
1.891826e+003, -1.164533e-003
1.893754e+003, -1.441701e-003
1.895683e+003, -1.369645e-003
1.897611e+003, -1.198323e-003
1.899540e+003, -1.123006e-003
1.901468e+003, -1.154683e-003
1.903397e+003, -9.820780e-004
1.905325e+003, -1.217250e-003
1.907254e+003, -1.462983e-003
1.909182e+003, -1.195108e-003
1.911110e+003, -1.132250e-003
1.913039e+003, -1.423660e-003
1.914967e+003, -1.158689e-003
1.916896e+003, -9.063531e-004
1.918824e+003, -1.207846e-003
1.920753e+003, -1.645347e-003
1.922681e+003, -1.507456e-003
1.924610e+003, -1.415678e-003
1.926538e+003, -1.472845e-003
1.928467e+003, -1.711095e-003
1.930395e+003, -1.875894e-003
1.932324e+003, -2.256162e-003
1.934252e+003, -1.937661e-003
1.936181e+003, -2.114879e-003
1.938109e+003, -1.972474e-003
1.940037e+003, -2.047639e-003
1.941966e+003, -1.586693e-003
1.943894e+003, -3.790036e-004
1.945823e+003, -7.460589e-004
1.947751e+003, -2.411436e-003
1.949680e+003, -1.820711e-003
1.951608e+003, -1.550468e-003
1.953537e+003, -1.922306e-003
1.955465e+003, -3.014173e-003
1.957394e+003, -2.589191e-003
1.959322e+003, -1.861519e-003
1.961251e+003, -1.567050e-003
1.963179e+003, -2.032435e-003
1.965108e+003, -2.064684e-003
1.967036e+003, -1.589880e-003
1.968964e+003, -2.590754e-003
1.970893e+003, -3.236814e-003
1.972821e+003, -2.429529e-003
1.974750e+003, -2.416400e-003
1.976678e+003, -1.536148e-003
1.978607e+003, -5.480633e-004
1.980535e+003, 7.056188e-004
1.982464e+003, 3.865764e-004
1.984392e+003, -5.219962e-004
1.986321e+003, -1.087388e-003
1.988249e+003, -1.092681e-003
1.990178e+003, -1.293690e-003
1.992106e+003, -1.992798e-003
1.994035e+003, -2.511425e-003
1.995963e+003, -1.923802e-003
1.997891e+003, -1.702098e-003
1.999820e+003, -2.253172e-003
2.001748e+003, -3.197870e-003
2.003677e+003, -3.297249e-003
2.005605e+003, -2.577855e-003
2.007534e+003, -1.475084e-003
2.009462e+003, -1.348087e-003
2.011391e+003, -2.669929e-003
2.013319e+003, -3.134968e-003
2.015248e+003, -1.520243e-003
2.017176e+003, -1.299489e-003
2.019105e+003, -1.933375e-003
2.021033e+003, -2.665814e-003
2.022962e+003, -2.013700e-003
2.024890e+003, -9.312710e-004
2.026818e+003, -1.246761e-003
2.028747e+003, -1.931133e-003
2.030675e+003, -1.466822e-003
2.032604e+003, -1.409857e-003
2.034532e+003, -2.223640e-003
2.036461e+003, -3.035488e-003
2.038389e+003, -1.151845e-003
2.040318e+003, -1.114360e-004
2.042246e+003, -4.273929e-004
2.044175e+003, -1.428295e-003
2.046103e+003, -6.482267e-004
2.048031e+003, 3.395699e-004
2.049960e+003, 5.679065e-004
2.051888e+003, -2.318384e-004
2.053817e+003, -1.479911e-003
2.055745e+003, -1.308610e-003
2.057674e+003, -1.295213e-003
2.059602e+003, -1.153240e-003
2.061531e+003, -1.141235e-003
2.063459e+003, -1.312749e-003
2.065388e+003, -1.760773e-004
2.067316e+003, 9.536301e-005
2.069245e+003, -3.994656e-004
2.071173e+003, -5.566255e-004
2.073102e+003, -6.261726e-004
2.075030e+003, -7.726757e-004
2.076958e+003, -4.931067e-004
2.078887e+003, -2.971127e-004
2.080815e+003, -4.337745e-005
2.082744e+003, -4.395340e-004
2.084672e+003, -4.895881e-004
2.086601e+003, -9.644974e-004
2.088529e+003, -1.341067e-003
2.090458e+003, -1.338565e-003
2.092386e+003, -9.863458e-004
2.094315e+003, -1.242289e-003
2.096243e+003, -9.823604e-004
2.098172e+003, -6.188024e-004
2.100100e+003, -6.163856e-004
2.102029e+003, -5.811357e-004
2.103957e+003, -2.887028e-004
2.105885e+003, -4.385310e-004
2.107814e+003, -2.445797e-004
2.109742e+003, -1.535463e-004
2.111671e+003, 1.795477e-004
2.113599e+003, -1.511956e-004
2.115528e+003, -6.706815e-004
2.117456e+003, -8.797157e-004
2.119385e+003, -7.832414e-004
2.121313e+003, -1.116477e-003
2.123242e+003, -1.180496e-003
2.125170e+003, -1.127908e-003
2.127099e+003, -1.600332e-003
2.129027e+003, -3.090654e-003
2.130956e+003, -3.614032e-003
2.132884e+003, -2.972264e-003
2.134813e+003, -1.915159e-003
2.136741e+003, -2.136365e-003
2.138669e+003, -1.737704e-003
2.140598e+003, -2.024993e-003
2.142526e+003, -2.008069e-003
2.144455e+003, -2.003644e-003
2.146383e+003, -2.068102e-003
2.148312e+003, -2.209130e-003
2.150240e+003, -3.650104e-003
2.152169e+003, -4.155311e-003
2.154097e+003, -2.632275e-003
2.156026e+003, -3.046559e-003
2.157954e+003, -2.546026e-003
2.159883e+003, 3.275773e-004
2.161811e+003, 1.799922e-003
2.163740e+003, 5.907865e-004
2.165668e+003, 4.206547e-004
2.167596e+003, 5.568289e-004
2.169525e+003, -9.126626e-004
2.171453e+003, -1.645378e-003
2.173382e+003, -2.455449e-004
2.175310e+003, 1.113502e-004
2.177239e+003, -6.295558e-004
2.179167e+003, -1.124049e-003
2.181096e+003, -5.594125e-004
2.183024e+003, -6.311090e-004
2.184953e+003, -5.480552e-004
2.186881e+003, -8.460486e-004
2.188810e+003, -7.211702e-004
2.190738e+003, -8.725936e-004
2.192667e+003, -4.616886e-004
2.194595e+003, 2.402440e-004
2.196523e+003, 6.604653e-004
2.198452e+003, 1.390856e-004
2.200380e+003, 3.011775e-004
2.202309e+003, 3.008080e-004
2.204237e+003, -4.549433e-004
2.206166e+003, -5.216966e-004
2.208094e+003, 6.317823e-004
2.210023e+003, 1.423793e-004
2.211951e+003, -8.409320e-004
2.213880e+003, -8.337443e-004
2.215808e+003, -1.400561e-004
2.217737e+003, -6.014750e-004
2.219665e+003, -4.391634e-004
2.221594e+003, 5.778783e-004
2.223522e+003, 1.280856e-003
2.225450e+003, 1.162674e-004
2.227379e+003, -1.629287e-004
2.229307e+003, -6.857493e-004
2.231236e+003, -1.102468e-003
2.233164e+003, -1.116781e-003
2.235093e+003, -6.873925e-004
2.237021e+003, -1.045526e-003
2.238950e+003, -1.196386e-003
2.240878e+003, -9.426140e-004
2.242807e+003, -5.519886e-004
2.244735e+003, -2.309855e-005
2.246664e+003, -4.756531e-004
2.248592e+003, -1.340484e-003
2.250521e+003, -8.314311e-004
2.252449e+003, -1.233365e-003
2.254377e+003, -9.294646e-004
2.256306e+003, -3.436832e-004
2.258234e+003, -1.495253e-004
2.260163e+003, -4.253894e-004
2.262091e+003, -5.878314e-004
2.264020e+003, -2.942058e-004
2.265948e+003, -9.321218e-005
2.267877e+003, -3.228950e-004
2.269805e+003, -2.308175e-004
2.271734e+003, -6.182362e-004
2.273662e+003, -9.091195e-004
2.275591e+003, -1.504008e-003
2.277519e+003, -1.158390e-003
2.279448e+003, -1.321087e-005
2.281376e+003, 1.811839e-004
2.283304e+003, 6.062747e-005
2.285233e+003, 2.210826e-004
2.287161e+003, 3.543597e-004
2.289090e+003, 8.352619e-004
2.291018e+003, 1.041188e-003
2.292947e+003, 1.305591e-003
2.294875e+003, 4.610823e-004
2.296804e+003, -1.864478e-004
2.298732e+003, 1.032926e-004
2.300661e+003, 4.749002e-004
2.302589e+003, 7.878034e-004
2.304518e+003, 1.152474e-003
2.306446e+003, 6.024024e-004
2.308375e+003, 2.819282e-004
2.310303e+003, 4.550350e-004
2.312231e+003, 1.049418e-003
2.314160e+003, 1.163720e-003
2.316088e+003, 1.510990e-003
2.318017e+003, 1.641624e-003
2.319945e+003, 1.816141e-003
2.321874e+003, 2.064022e-003
2.323802e+003, 2.730786e-003
2.325731e+003, 2.223001e-003
2.327659e+003, 1.332592e-003
2.329588e+003, 1.285200e-003
2.331516e+003, 1.361175e-003
2.333445e+003, 1.112763e-003
2.335373e+003, 1.474387e-003
2.337302e+003, 1.723267e-003
2.339230e+003, 1.397044e-003
2.341158e+003, 1.359683e-003
2.343087e+003, 1.287403e-003
2.345015e+003, 7.215330e-004
2.346944e+003, 6.066216e-004
2.348872e+003, 7.175194e-004
2.350801e+003, 7.608478e-004
2.352729e+003, 8.026063e-004
2.354658e+003, 1.396563e-003
2.356586e+003, 1.914690e-003
2.358515e+003, 1.935965e-003
2.360443e+003, 1.419595e-003
2.362372e+003, 1.108849e-003
2.364300e+003, 1.023077e-003
2.366229e+003, 9.267957e-004
2.368157e+003, 8.456445e-004
2.370085e+003, 8.596264e-004
2.372014e+003, 7.145760e-004
2.373942e+003, 5.506445e-004
2.375871e+003, 1.407714e-005
2.377799e+003, -4.645879e-004
2.379728e+003, -4.772435e-004
2.381656e+003, -5.761167e-004
2.383585e+003, -4.501724e-004
2.385513e+003, 1.178572e-004
2.387442e+003, -2.341649e-004
2.389370e+003, -3.581854e-004
2.391299e+003, -2.255073e-004
2.393227e+003, -2.187839e-004
2.395156e+003, 2.811541e-004
2.397084e+003, 5.987310e-004
2.399012e+003, -1.603572e-004
2.400941e+003, -3.152595e-004
2.402869e+003, -2.879204e-004
2.404798e+003, -1.399707e-004
2.406726e+003, 6.991839e-005
2.408655e+003, 3.584016e-005
2.410583e+003, -7.567659e-005
2.412512e+003, -2.086381e-004
2.414440e+003, 5.820858e-005
2.416369e+003, 4.802386e-004
2.418297e+003, 6.130583e-004
2.420226e+003, 5.023870e-004
2.422154e+003, 2.244386e-004
2.424083e+003, 3.029102e-004
2.426011e+003, 6.146227e-004
2.427939e+003, 8.402221e-004
2.429868e+003, 5.717120e-004
2.431796e+003, 5.945683e-004
2.433725e+003, 4.678068e-004
2.435653e+003, 7.816966e-004
2.437582e+003, 4.756890e-004
2.439510e+003, 1.606301e-004
2.441439e+003, 4.722591e-004
2.443367e+003, 8.684945e-004
2.445296e+003, 8.698798e-004
2.447224e+003, 1.059478e-003
2.449153e+003, 1.190994e-003
2.451081e+003, 1.274591e-003
2.453010e+003, 1.129106e-003
2.454938e+003, 1.284034e-003
2.456866e+003, 1.210772e-003
2.458795e+003, 1.489606e-003
2.460723e+003, 1.760624e-003
2.462652e+003, 1.836116e-003
2.464580e+003, 1.934298e-003
2.466509e+003, 1.972466e-003
2.468437e+003, 1.316050e-003
2.470366e+003, 1.012316e-003
2.472294e+003, 1.770631e-003
2.474223e+003, 1.915862e-003
2.476151e+003, 1.731762e-003
2.478080e+003, 2.402555e-003
2.480008e+003, 2.496065e-003
2.481937e+003, 1.985327e-003
2.483865e+003, 1.559340e-003
2.485793e+003, 2.115108e-003
2.487722e+003, 2.195186e-003
2.489650e+003, 2.107022e-003
2.491579e+003, 2.432752e-003
2.493507e+003, 2.269760e-003
2.495436e+003, 2.005302e-003
2.497364e+003, 1.955680e-003
2.499293e+003, 2.225651e-003
2.501221e+003, 2.797758e-003
2.503150e+003, 2.687475e-003
2.505078e+003, 2.446245e-003
2.507007e+003, 2.330141e-003
2.508935e+003, 2.538527e-003
2.510864e+003, 2.099840e-003
2.512792e+003, 1.911580e-003
2.514720e+003, 2.216474e-003
2.516649e+003, 2.110114e-003
2.518577e+003, 2.030440e-003
2.520506e+003, 2.441185e-003
2.522434e+003, 2.609642e-003
2.524363e+003, 2.381579e-003
2.526291e+003, 2.015335e-003
2.528220e+003, 2.497076e-003
2.530148e+003, 2.496011e-003
2.532077e+003, 2.714856e-003
2.534005e+003, 2.818915e-003
2.535934e+003, 2.754906e-003
2.537862e+003, 2.538411e-003
2.539791e+003, 2.042618e-003
2.541719e+003, 2.079328e-003
2.543647e+003, 2.490903e-003
2.545576e+003, 2.421508e-003
2.547504e+003, 2.882414e-003
2.549433e+003, 3.145280e-003
2.551361e+003, 2.915881e-003
2.553290e+003, 2.604767e-003
2.555218e+003, 2.966161e-003
2.557147e+003, 2.947132e-003
2.559075e+003, 2.242560e-003
2.561004e+003, 2.533523e-003
2.562932e+003, 3.536350e-003
2.564861e+003, 3.492098e-003
2.566789e+003, 3.290563e-003
2.568718e+003, 3.240344e-003
2.570646e+003, 3.636443e-003
2.572574e+003, 3.559278e-003
2.574503e+003, 2.974176e-003
2.576431e+003, 2.471406e-003
2.578360e+003, 3.277740e-003
2.580288e+003, 3.487084e-003
2.582217e+003, 3.470699e-003
2.584145e+003, 3.071297e-003
2.586074e+003, 2.842119e-003
2.588002e+003, 3.638485e-003
2.589931e+003, 3.381551e-003
2.591859e+003, 2.940016e-003
2.593788e+003, 3.276721e-003
2.595716e+003, 3.738193e-003
2.597645e+003, 4.288652e-003
2.599573e+003, 4.061676e-003
2.601501e+003, 3.459444e-003
2.603430e+003, 3.397698e-003
2.605358e+003, 3.352051e-003
2.607287e+003, 3.051028e-003
2.609215e+003, 2.771568e-003
2.611144e+003, 2.522022e-003
2.613072e+003, 2.929772e-003
2.615001e+003, 3.292552e-003
2.616929e+003, 3.339916e-003
2.618858e+003, 3.456626e-003
2.620786e+003, 3.700698e-003
2.622715e+003, 3.514837e-003
2.624643e+003, 3.610474e-003
2.626572e+003, 3.673083e-003
2.628500e+003, 3.391570e-003
2.630428e+003, 3.416583e-003
2.632357e+003, 3.527896e-003
2.634285e+003, 3.365690e-003
2.636214e+003, 3.262046e-003
2.638142e+003, 3.167549e-003
2.640071e+003, 3.450307e-003
2.641999e+003, 3.862739e-003
2.643928e+003, 4.144729e-003
2.645856e+003, 3.864100e-003
2.647785e+003, 3.742784e-003
2.649713e+003, 3.728047e-003
2.651642e+003, 3.646470e-003
2.653570e+003, 3.564429e-003
2.655499e+003, 3.604856e-003
2.657427e+003, 3.407057e-003
2.659355e+003, 3.408446e-003
2.661284e+003, 3.312020e-003
2.663212e+003, 2.839990e-003
2.665141e+003, 2.584890e-003
2.667069e+003, 3.083616e-003
2.668998e+003, 3.361611e-003
2.670926e+003, 3.295856e-003
2.672855e+003, 3.171928e-003
2.674783e+003, 3.193473e-003
2.676712e+003, 2.876260e-003
2.678640e+003, 2.697970e-003
2.680569e+003, 2.905819e-003
2.682497e+003, 2.917950e-003
2.684426e+003, 2.292633e-003
2.686354e+003, 2.522768e-003
2.688282e+003, 2.868634e-003
2.690211e+003, 2.888005e-003
2.692139e+003, 2.880479e-003
2.694068e+003, 2.979167e-003
2.695996e+003, 3.108269e-003
2.697925e+003, 3.141303e-003
2.699853e+003, 3.072040e-003
2.701782e+003, 2.966686e-003
2.703710e+003, 2.587688e-003
2.705639e+003, 2.885853e-003
2.707567e+003, 2.992123e-003
2.709496e+003, 2.948416e-003
2.711424e+003, 2.991832e-003
2.713353e+003, 3.069470e-003
2.715281e+003, 2.720978e-003
2.717209e+003, 2.539808e-003
2.719138e+003, 2.660409e-003
2.721066e+003, 2.713058e-003
2.722995e+003, 2.744073e-003
2.724923e+003, 2.746627e-003
2.726852e+003, 2.516642e-003
2.728780e+003, 2.759981e-003
2.730709e+003, 2.891692e-003
2.732637e+003, 2.718275e-003
2.734566e+003, 3.111370e-003
2.736494e+003, 3.491136e-003
2.738423e+003, 3.527973e-003
2.740351e+003, 3.184521e-003
2.742280e+003, 2.830755e-003
2.744208e+003, 2.829989e-003
2.746136e+003, 3.049770e-003
2.748065e+003, 2.840215e-003
2.749993e+003, 2.495253e-003
2.751922e+003, 2.780267e-003
2.753850e+003, 3.215408e-003
2.755779e+003, 3.048182e-003
2.757707e+003, 2.799687e-003
2.759636e+003, 3.076051e-003
2.761564e+003, 3.357821e-003
2.763493e+003, 3.489522e-003
2.765421e+003, 3.256803e-003
2.767350e+003, 3.129601e-003
2.769278e+003, 2.993867e-003
2.771207e+003, 3.241265e-003
2.773135e+003, 3.428969e-003
2.775063e+003, 3.477714e-003
2.776992e+003, 3.097674e-003
2.778920e+003, 2.857970e-003
2.780849e+003, 2.957460e-003
2.782777e+003, 3.264452e-003
2.784706e+003, 3.246987e-003
2.786634e+003, 3.434937e-003
2.788563e+003, 3.592596e-003
2.790491e+003, 3.405434e-003
2.792420e+003, 3.068505e-003
2.794348e+003, 3.382239e-003
2.796277e+003, 3.719535e-003
2.798205e+003, 3.783361e-003
2.800134e+003, 3.462952e-003
2.802062e+003, 3.282466e-003
2.803990e+003, 3.230669e-003
2.805919e+003, 3.138817e-003
2.807847e+003, 2.766417e-003
2.809776e+003, 2.928331e-003
2.811704e+003, 3.070495e-003
2.813633e+003, 2.908660e-003
2.815561e+003, 2.928961e-003
2.817490e+003, 3.090412e-003
2.819418e+003, 3.352796e-003
2.821347e+003, 3.200406e-003
2.823275e+003, 3.029167e-003
2.825204e+003, 3.549324e-003
2.827132e+003, 3.452895e-003
2.829061e+003, 3.263858e-003
2.830989e+003, 2.876374e-003
2.832917e+003, 2.557714e-003
2.834846e+003, 2.636048e-003
2.836774e+003, 3.130647e-003
2.838703e+003, 3.497260e-003
2.840631e+003, 3.579465e-003
2.842560e+003, 3.625518e-003
2.844488e+003, 3.715958e-003
2.846417e+003, 3.474044e-003
2.848345e+003, 3.314166e-003
2.850274e+003, 3.053170e-003
2.852202e+003, 2.810249e-003
2.854131e+003, 2.628637e-003
2.856059e+003, 2.916440e-003
2.857988e+003, 3.207063e-003
2.859916e+003, 3.051603e-003
2.861844e+003, 2.783039e-003
2.863773e+003, 3.017909e-003
2.865701e+003, 3.325867e-003
2.867630e+003, 3.150615e-003
2.869558e+003, 2.878508e-003
2.871487e+003, 2.904353e-003
2.873415e+003, 2.961251e-003
2.875344e+003, 2.575937e-003
2.877272e+003, 2.849077e-003
2.879201e+003, 3.391308e-003
2.881129e+003, 3.105853e-003
2.883058e+003, 2.795282e-003
2.884986e+003, 3.010115e-003
2.886915e+003, 3.162749e-003
2.888843e+003, 3.344005e-003
2.890771e+003, 3.422953e-003
2.892700e+003, 3.106944e-003
2.894628e+003, 2.762245e-003
2.896557e+003, 2.518625e-003
2.898485e+003, 2.632966e-003
2.900414e+003, 2.708852e-003
2.902342e+003, 2.410272e-003
2.904271e+003, 2.628897e-003
2.906199e+003, 2.453274e-003
2.908128e+003, 2.237675e-003
2.910056e+003, 2.754076e-003
2.911985e+003, 2.655510e-003
2.913913e+003, 2.697304e-003
2.915842e+003, 2.862310e-003
2.917770e+003, 2.892868e-003
2.919698e+003, 2.589266e-003
2.921627e+003, 2.805833e-003
2.923555e+003, 2.844168e-003
2.925484e+003, 2.440777e-003
2.927412e+003, 2.147548e-003
2.929341e+003, 2.752743e-003
2.931269e+003, 2.892561e-003
2.933198e+003, 2.391228e-003
2.935126e+003, 2.136944e-003
2.937055e+003, 2.165616e-003
2.938983e+003, 2.234818e-003
2.940912e+003, 2.696889e-003
2.942840e+003, 2.977926e-003
2.944769e+003, 2.339144e-003
2.946697e+003, 1.627496e-003
2.948625e+003, 1.594890e-003
2.950554e+003, 1.956662e-003
2.952482e+003, 2.131938e-003
2.954411e+003, 2.092618e-003
2.956339e+003, 2.344273e-003
2.958268e+003, 2.261923e-003
2.960196e+003, 2.308865e-003
2.962125e+003, 2.103201e-003
2.964053e+003, 1.976473e-003
2.965982e+003, 2.563011e-003
2.967910e+003, 3.250041e-003
2.969839e+003, 3.090055e-003
2.971767e+003, 2.523054e-003
2.973696e+003, 2.416471e-003
2.975624e+003, 2.544657e-003
2.977552e+003, 2.604407e-003
2.979481e+003, 2.522192e-003
2.981409e+003, 1.970539e-003
2.983338e+003, 1.536066e-003
2.985266e+003, 2.226471e-003
2.987195e+003, 2.965250e-003
2.989123e+003, 2.849617e-003
2.991052e+003, 2.715172e-003
2.992980e+003, 3.062777e-003
2.994909e+003, 3.239006e-003
2.996837e+003, 2.987852e-003
2.998766e+003, 2.965257e-003
3.000694e+003, 2.658059e-003
3.002623e+003, 2.577206e-003
3.004551e+003, 2.597594e-003
3.006479e+003, 2.407907e-003
3.008408e+003, 2.071831e-003
3.010336e+003, 2.149266e-003
3.012265e+003, 1.624479e-003
3.014193e+003, 8.829402e-004
3.016122e+003, 1.036203e-003
3.018050e+003, 1.674993e-003
3.019979e+003, 2.307197e-003
3.021907e+003, 2.525619e-003
3.023836e+003, 2.131759e-003
3.025764e+003, 2.254609e-003
3.027693e+003, 2.531294e-003
3.029621e+003, 2.639200e-003
3.031550e+003, 2.995888e-003
3.033478e+003, 3.332975e-003
3.035406e+003, 3.295147e-003
3.037335e+003, 2.836835e-003
3.039263e+003, 2.450439e-003
3.041192e+003, 2.526879e-003
3.043120e+003, 2.536750e-003
3.045049e+003, 2.603738e-003
3.046977e+003, 2.834506e-003
3.048906e+003, 3.513735e-003
3.050834e+003, 3.369992e-003
3.052763e+003, 2.520559e-003
3.054691e+003, 2.256876e-003
3.056620e+003, 2.540442e-003
3.058548e+003, 2.844527e-003
3.060477e+003, 3.009313e-003
3.062405e+003, 2.819196e-003
3.064333e+003, 2.692751e-003
3.066262e+003, 2.738405e-003
3.068190e+003, 2.783912e-003
3.070119e+003, 2.955888e-003
3.072047e+003, 3.377472e-003
3.073976e+003, 3.515488e-003
3.075904e+003, 2.794300e-003
3.077833e+003, 2.839461e-003
3.079761e+003, 3.044223e-003
3.081690e+003, 3.377729e-003
3.083618e+003, 3.319595e-003
3.085547e+003, 2.705726e-003
3.087475e+003, 3.171626e-003
3.089404e+003, 3.328423e-003
3.091332e+003, 3.188998e-003
3.093260e+003, 3.277987e-003
3.095189e+003, 3.144722e-003
3.097117e+003, 2.972018e-003
3.099046e+003, 2.898825e-003
3.100974e+003, 2.863747e-003
3.102903e+003, 3.544845e-003
3.104831e+003, 4.034685e-003
3.106760e+003, 4.375037e-003
3.108688e+003, 3.728103e-003
3.110617e+003, 3.394547e-003
3.112545e+003, 2.674749e-003
3.114474e+003, 2.370568e-003
3.116402e+003, 3.116357e-003
3.118331e+003, 3.744435e-003
3.120259e+003, 3.207848e-003
3.122188e+003, 2.805251e-003
3.124116e+003, 3.189566e-003
3.126044e+003, 3.853635e-003
3.127973e+003, 3.548690e-003
3.129901e+003, 3.756847e-003
3.131830e+003, 4.348123e-003
3.133758e+003, 3.863687e-003
3.135687e+003, 3.372364e-003
3.137615e+003, 3.443100e-003
3.139544e+003, 2.633971e-003
3.141472e+003, 2.897466e-003
3.143401e+003, 3.472463e-003
3.145329e+003, 3.220811e-003
3.147258e+003, 3.060234e-003
3.149186e+003, 2.920394e-003
3.151115e+003, 3.530519e-003
3.153043e+003, 3.612891e-003
3.154971e+003, 3.217272e-003
3.156900e+003, 3.604682e-003
3.158828e+003, 3.702363e-003
3.160757e+003, 3.638654e-003
3.162685e+003, 4.039862e-003
3.164614e+003, 4.077957e-003
3.166542e+003, 3.589814e-003
3.168471e+003, 3.735039e-003
3.170399e+003, 3.692522e-003
3.172328e+003, 3.322025e-003
3.174256e+003, 3.068906e-003
3.176185e+003, 3.830157e-003
3.178113e+003, 4.272233e-003
3.180042e+003, 4.247850e-003
3.181970e+003, 3.427348e-003
3.183898e+003, 3.148859e-003
3.185827e+003, 3.260677e-003
3.187755e+003, 3.151360e-003
3.189684e+003, 3.221679e-003
3.191612e+003, 3.929403e-003
3.193541e+003, 4.062917e-003
3.195469e+003, 3.266201e-003
3.197398e+003, 2.390013e-003
3.199326e+003, 3.153225e-003
3.201255e+003, 3.905217e-003
3.203183e+003, 3.545518e-003
3.205112e+003, 2.780529e-003
3.207040e+003, 2.609489e-003
3.208969e+003, 3.320885e-003
3.210897e+003, 3.357943e-003
3.212825e+003, 2.588219e-003
3.214754e+003, 2.509293e-003
3.216682e+003, 3.327181e-003
3.218611e+003, 3.751364e-003
3.220539e+003, 3.462275e-003
3.222468e+003, 3.386409e-003
3.224396e+003, 3.992451e-003
3.226325e+003, 4.282696e-003
3.228253e+003, 3.539434e-003
3.230182e+003, 2.804262e-003
3.232110e+003, 2.765786e-003
3.234039e+003, 3.215419e-003
3.235967e+003, 3.345530e-003
3.237896e+003, 3.524951e-003
3.239824e+003, 3.294276e-003
3.241752e+003, 3.675992e-003
3.243681e+003, 3.460407e-003
3.245609e+003, 3.025909e-003
3.247538e+003, 2.941203e-003
3.249466e+003, 2.819833e-003
3.251395e+003, 2.768590e-003
3.253323e+003, 3.717853e-003
3.255252e+003, 3.186451e-003
3.257180e+003, 2.711496e-003
3.259109e+003, 2.829504e-003
3.261037e+003, 2.659347e-003
3.262966e+003, 2.814179e-003
3.264894e+003, 2.751326e-003
3.266823e+003, 2.822344e-003
3.268751e+003, 2.893339e-003
3.270679e+003, 2.836389e-003
3.272608e+003, 3.021452e-003
3.274536e+003, 3.031913e-003
3.276465e+003, 3.090689e-003
3.278393e+003, 3.267545e-003
3.280322e+003, 3.370003e-003
3.282250e+003, 3.516298e-003
3.284179e+003, 3.228752e-003
3.286107e+003, 3.386468e-003
3.288036e+003, 3.543296e-003
3.289964e+003, 3.913239e-003
3.291893e+003, 4.273199e-003
3.293821e+003, 3.801355e-003
3.295750e+003, 3.047394e-003
3.297678e+003, 2.935724e-003
3.299606e+003, 3.834605e-003
3.301535e+003, 3.671103e-003
3.303463e+003, 3.248941e-003
3.305392e+003, 3.165198e-003
3.307320e+003, 2.695073e-003
3.309249e+003, 2.520757e-003
3.311177e+003, 2.474290e-003
3.313106e+003, 1.910382e-003
3.315034e+003, 2.192846e-003
3.316963e+003, 3.073838e-003
3.318891e+003, 3.547234e-003
3.320820e+003, 3.519831e-003
3.322748e+003, 4.085812e-003
3.324677e+003, 3.865583e-003
3.326605e+003, 2.801143e-003
3.328533e+003, 3.106657e-003
3.330462e+003, 2.742771e-003
3.332390e+003, 2.064601e-003
3.334319e+003, 2.671083e-003
3.336247e+003, 3.371916e-003
3.338176e+003, 3.668997e-003
3.340104e+003, 2.800061e-003
3.342033e+003, 2.259337e-003
3.343961e+003, 2.336861e-003
3.345890e+003, 2.612153e-003
3.347818e+003, 3.248526e-003
3.349747e+003, 3.519151e-003
3.351675e+003, 2.639641e-003
3.353604e+003, 2.396478e-003
3.355532e+003, 2.704457e-003
3.357460e+003, 3.437969e-003
3.359389e+003, 3.917862e-003
3.361317e+003, 4.204550e-003
3.363246e+003, 3.098272e-003
3.365174e+003, 2.846073e-003
3.367103e+003, 3.157798e-003
3.369031e+003, 3.530373e-003
3.370960e+003, 4.089946e-003
3.372888e+003, 3.359292e-003
3.374817e+003, 2.590980e-003
3.376745e+003, 2.563857e-003
3.378674e+003, 2.467069e-003
3.380602e+003, 2.543407e-003
3.382531e+003, 2.449077e-003
3.384459e+003, 1.793598e-003
3.386387e+003, 2.352929e-003
3.388316e+003, 2.781275e-003
3.390244e+003, 2.909003e-003
3.392173e+003, 3.281761e-003
3.394101e+003, 3.520991e-003
3.396030e+003, 3.455526e-003
3.397958e+003, 2.888246e-003
3.399887e+003, 3.218361e-003
3.401815e+003, 3.743269e-003
3.403744e+003, 3.671088e-003
3.405672e+003, 3.261213e-003
3.407601e+003, 3.567231e-003
3.409529e+003, 3.741938e-003
3.411458e+003, 3.923887e-003
3.413386e+003, 3.727990e-003
3.415314e+003, 3.513184e-003
3.417243e+003, 3.609008e-003
3.419171e+003, 3.841356e-003
3.421100e+003, 3.354788e-003
3.423028e+003, 3.041477e-003
3.424957e+003, 3.127774e-003
3.426885e+003, 3.722681e-003
3.428814e+003, 3.410785e-003
3.430742e+003, 3.136531e-003
3.432671e+003, 1.953502e-003
3.434599e+003, 2.496396e-003
3.436528e+003, 4.676009e-003
3.438456e+003, 4.218907e-003
3.440385e+003, 2.704033e-003
3.442313e+003, 2.555740e-003
3.444241e+003, 2.108298e-003
3.446170e+003, 2.951515e-003
3.448098e+003, 4.037835e-003
3.450027e+003, 4.397391e-003
3.451955e+003, 3.953892e-003
3.453884e+003, 2.712678e-003
3.455812e+003, 1.753202e-003
3.457741e+003, 3.032021e-003
3.459669e+003, 3.953114e-003
3.461598e+003, 3.903202e-003
3.463526e+003, 2.921591e-003
3.465455e+003, 3.188286e-003
3.467383e+003, 3.870506e-003
3.469312e+003, 3.016945e-003
3.471240e+003, 2.250342e-003
3.473168e+003, 2.724408e-003
3.475097e+003, 2.545501e-003
3.477025e+003, 2.581517e-003
3.478954e+003, 2.912046e-003
3.480882e+003, 3.242671e-003
3.482811e+003, 3.277983e-003
3.484739e+003, 3.821067e-003
3.486668e+003, 3.943157e-003
3.488596e+003, 4.206327e-003
3.490525e+003, 4.165029e-003
3.492453e+003, 3.696737e-003
3.494382e+003, 2.717753e-003
3.496310e+003, 1.834818e-003
3.498239e+003, 1.734272e-003
3.500167e+003, 1.813120e-003
3.502095e+003, 2.325939e-003
3.504024e+003, 3.035624e-003
3.505952e+003, 2.920065e-003
3.507881e+003, 2.401783e-003
3.509809e+003, 1.343518e-003
3.511738e+003, 1.209846e-003
3.513666e+003, 2.450932e-003
3.515595e+003, 3.466123e-003
3.517523e+003, 3.486580e-003
3.519452e+003, 3.525989e-003
3.521380e+003, 2.948434e-003
3.523309e+003, 2.558242e-003
3.525237e+003, 2.942262e-003
3.527166e+003, 3.088706e-003
3.529094e+003, 3.530520e-003
3.531022e+003, 3.553658e-003
3.532951e+003, 3.346506e-003
3.534879e+003, 3.278242e-003
3.536808e+003, 2.510042e-003
3.538736e+003, 2.631425e-003
3.540665e+003, 2.985198e-003
3.542593e+003, 2.403697e-003
3.544522e+003, 2.446159e-003
3.546450e+003, 3.624859e-003
3.548379e+003, 4.332654e-003
3.550307e+003, 4.744502e-003
3.552236e+003, 4.292828e-003
3.554164e+003, 2.693951e-003
3.556093e+003, 1.283305e-003
3.558021e+003, 1.883719e-003
3.559949e+003, 2.412000e-003
3.561878e+003, 3.168316e-003
3.563806e+003, 3.724814e-003
3.565735e+003, 3.081854e-003
3.567663e+003, 2.313562e-003
3.569592e+003, 2.793525e-003
3.571520e+003, 3.794846e-003
3.573449e+003, 3.902161e-003
3.575377e+003, 3.144110e-003
3.577306e+003, 3.350320e-003
3.579234e+003, 4.201640e-003
3.581163e+003, 5.091959e-003
3.583091e+003, 5.345904e-003
3.585020e+003, 5.545328e-003
3.586948e+003, 6.755086e-003
3.588876e+003, 8.101549e-003
3.590805e+003, 8.947354e-003
3.592733e+003, 9.933843e-003
3.594662e+003, 9.800117e-003
3.596590e+003, 9.070787e-003
3.598519e+003, 7.115703e-003
3.600447e+003, 5.094299e-003
3.602376e+003, 3.221776e-003
3.604304e+003, 2.412204e-003
3.606233e+003, 2.631657e-003
3.608161e+003, 3.775304e-003
3.610090e+003, 3.718194e-003
3.612018e+003, 1.971224e-003
3.613947e+003, 7.314811e-004
3.615875e+003, 1.376493e-003
3.617803e+003, 2.807498e-003
3.619732e+003, 3.404073e-003
3.621660e+003, 3.050418e-003
3.623589e+003, 3.516804e-003
3.625517e+003, 3.719974e-003
3.627446e+003, 3.540266e-003
3.629374e+003, 3.027210e-003
3.631303e+003, 3.337918e-003
3.633231e+003, 3.785856e-003
3.635160e+003, 4.240427e-003
3.637088e+003, 4.272024e-003
3.639017e+003, 3.601723e-003
3.640945e+003, 3.574954e-003
3.642874e+003, 4.008167e-003
3.644802e+003, 4.960124e-003
3.646730e+003, 5.526213e-003
3.648659e+003, 5.265641e-003
3.650587e+003, 4.401161e-003
3.652516e+003, 4.002311e-003
3.654444e+003, 4.329887e-003
3.656373e+003, 4.233759e-003
3.658301e+003, 3.928756e-003
3.660230e+003, 3.822610e-003
3.662158e+003, 3.582936e-003
3.664087e+003, 3.045739e-003
3.666015e+003, 4.054238e-003
3.667944e+003, 4.107282e-003
3.669872e+003, 4.369237e-003
3.671801e+003, 4.734976e-003
3.673729e+003, 4.306667e-003
3.675657e+003, 4.449592e-003
3.677586e+003, 4.726011e-003
3.679514e+003, 3.367004e-003
3.681443e+003, 3.473020e-003
3.683371e+003, 3.166877e-003
3.685300e+003, 2.370747e-003
3.687228e+003, 3.956859e-003
3.689157e+003, 4.273126e-003
3.691085e+003, 2.623072e-003
3.693014e+003, 1.695783e-003
3.694942e+003, 1.301450e-003
3.696871e+003, 2.347417e-003
3.698799e+003, 2.600742e-003
3.700728e+003, 1.822378e-003
3.702656e+003, 2.169457e-003
3.704584e+003, 2.186426e-003
3.706513e+003, 1.741073e-003
3.708441e+003, 1.828809e-003
3.710370e+003, 1.840452e-003
3.712298e+003, 1.295956e-003
3.714227e+003, 5.614833e-004
3.716155e+003, 7.861912e-004
3.718084e+003, 1.737030e-003
3.720012e+003, 2.560647e-003
3.721941e+003, 3.100704e-003
3.723869e+003, 3.143590e-003
3.725798e+003, 2.691443e-003
3.727726e+003, 1.200339e-003
3.729655e+003, 9.584422e-004
3.731583e+003, 1.648035e-003
3.733511e+003, 1.539651e-003
3.735440e+003, 1.662464e-003
3.737368e+003, 1.347455e-003
3.739297e+003, 1.740854e-003
3.741225e+003, 2.373466e-003
3.743154e+003, 3.516370e-003
3.745082e+003, 3.439917e-003
3.747011e+003, 1.488986e-003
3.748939e+003, 8.287753e-004
3.750868e+003, 1.366907e-003
3.752796e+003, 2.038731e-003
3.754725e+003, 1.735700e-003
3.756653e+003, 2.041353e-003
3.758582e+003, 1.538801e-003
3.760510e+003, 2.770132e-004
3.762438e+003, 9.701326e-004
3.764367e+003, 1.920854e-003
3.766295e+003, 1.184442e-003
3.768224e+003, 1.388054e-003
3.770152e+003, 2.126908e-003
3.772081e+003, 8.592117e-004
3.774009e+003, 3.103222e-004
3.775938e+003, 6.514653e-004
3.777866e+003, 4.793281e-004
3.779795e+003, 1.277851e-003
3.781723e+003, 1.195822e-003
3.783652e+003, 9.150042e-004
3.785580e+003, 1.017844e-003
3.787509e+003, 2.214980e-004
3.789437e+003, -4.788701e-004
3.791365e+003, -2.561008e-004
3.793294e+003, 8.907068e-004
3.795222e+003, 5.631407e-004
3.797151e+003, 2.399576e-004
3.799079e+003, 5.292471e-004
3.801008e+003, 6.261002e-004
3.802936e+003, 8.483718e-004
3.804865e+003, 1.186584e-003
3.806793e+003, 1.295695e-003
3.808722e+003, 2.000059e-003
3.810650e+003, 2.364761e-003
3.812579e+003, 1.104496e-003
3.814507e+003, -7.398513e-004
3.816436e+003, -7.347050e-004
3.818364e+003, -8.217361e-004
3.820292e+003, -2.695978e-004
3.822221e+003, 2.984657e-005
3.824149e+003, 3.231793e-004
3.826078e+003, 1.034790e-003
3.828006e+003, 1.396255e-003
3.829935e+003, 8.151985e-004
3.831863e+003, 4.006234e-004
3.833792e+003, -1.886704e-004
3.835720e+003, -6.345358e-004
3.837649e+003, 9.488580e-004
3.839577e+003, 1.116821e-003
3.841506e+003, 1.661583e-004
3.843434e+003, 4.382680e-004
3.845363e+003, 6.423697e-004
3.847291e+003, 1.065708e-003
3.849219e+003, 5.420170e-004
3.851148e+003, 1.041035e-003
3.853076e+003, 1.626831e-003
3.855005e+003, 6.809685e-004
3.856933e+003, 2.097076e-004
3.858862e+003, 1.480071e-004
3.860790e+003, -7.864172e-005
3.862719e+003, 6.463248e-004
3.864647e+003, 1.196375e-003
3.866576e+003, 1.286810e-003
3.868504e+003, 9.509725e-004
3.870433e+003, -1.989314e-004
3.872361e+003, -3.235105e-004
3.874290e+003, 3.462638e-004
3.876218e+003, 9.649256e-004
3.878146e+003, 1.634074e-003
3.880075e+003, 5.484354e-004
3.882003e+003, -3.223214e-004
3.883932e+003, 1.071896e-003
3.885860e+003, 2.086509e-003
3.887789e+003, 1.174208e-003
3.889717e+003, 1.126391e-003
3.891646e+003, 1.330018e-003
3.893574e+003, 8.799736e-004
3.895503e+003, 8.670682e-004
3.897431e+003, 7.719836e-004
3.899360e+003, 1.247038e-003
3.901288e+003, 1.141289e-003
3.903217e+003, 2.410590e-004
3.905145e+003, -1.412299e-004
3.907073e+003, -7.166262e-004
3.909002e+003, 6.423276e-005
3.910930e+003, -1.314391e-004
3.912859e+003, -1.145406e-003
3.914787e+003, -5.169447e-004
3.916716e+003, 2.541015e-004
3.918644e+003, 1.010927e-003
3.920573e+003, 4.953117e-004
3.922501e+003, 1.936694e-004
3.924430e+003, 4.698446e-004
3.926358e+003, 5.183179e-004
3.928287e+003, 2.804208e-004
3.930215e+003, -6.891380e-004
3.932144e+003, -7.929172e-004
3.934072e+003, -1.494462e-004
3.936000e+003, -1.326036e-004
3.937929e+003, -1.715799e-004
3.939857e+003, -6.241907e-004
3.941786e+003, -1.359021e-004
3.943714e+003, 1.478198e-004
3.945643e+003, -2.158348e-005
3.947571e+003, -5.172772e-004
3.949500e+003, -1.269246e-003
3.951428e+003, -4.815881e-004
3.953357e+003, 6.942531e-004
3.955285e+003, 4.364288e-004
3.957214e+003, 5.404822e-004
3.959142e+003, 2.420751e-004
3.961071e+003, 2.029150e-004
3.962999e+003, -1.335772e-004
3.964927e+003, -8.544494e-004
3.966856e+003, 3.435110e-004
3.968784e+003, 1.071945e-003
3.970713e+003, 6.233067e-004
3.972641e+003, -4.916344e-004
3.974570e+003, -1.123475e-003
3.976498e+003, -1.086001e-003
3.978427e+003, -8.017126e-004
3.980355e+003, -4.147902e-004
3.982284e+003, -4.891561e-004
3.984212e+003, -1.300359e-003
3.986141e+003, -3.157807e-004
3.988069e+003, 7.041537e-004
3.989998e+003, 4.055813e-004
3.991926e+003, 2.606222e-004
3.993854e+003, 3.127312e-004
3.995783e+003, -1.442426e-003
3.997711e+003, -2.185353e-003
3.999640e+003, -6.241685e-004
4.001568e+003, 0.000000e+000
##END=



