##NAMES=Bikitaite
##RRUFFID=R060032
##IDEAL CHEMISTRY=LiAlSi_2_O_6_&#183;H_2_O
##LOCALITY=Al Hyat mine, Bikita, Fort Victoria, Southern Rhodesia
##OWNER=RRUFF
##SOURCE=University of Arizona Mineral Museum
##DESCRIPTION=A group of radiating white to colorless acicular crystals
##STATUS=The identification of this mineral has been confirmed by X-ray diffraction and chemical analysis
##URL=rruff.info/R060032
##MEASURED CHEMISTRY=Li_1.00_Al_1.00_Si_2.00_O_6_Â·H_2_O ; Li not measured but estimated by charge balance
3.741225e+002, 2.119799e-001
3.760510e+002, 2.142545e-001
3.779795e+002, 2.110696e-001
3.799079e+002, 2.115845e-001
3.818364e+002, 2.090252e-001
3.837649e+002, 2.119390e-001
3.856933e+002, 2.197290e-001
3.876218e+002, 2.182596e-001
3.895503e+002, 2.230937e-001
3.914787e+002, 2.234702e-001
3.934072e+002, 2.182734e-001
3.953357e+002, 2.113352e-001
3.972641e+002, 2.093788e-001
3.991926e+002, 2.099764e-001
4.011211e+002, 2.050437e-001
4.030495e+002, 2.013318e-001
4.049780e+002, 2.005855e-001
4.069065e+002, 1.991481e-001
4.088349e+002, 2.023726e-001
4.107634e+002, 2.123037e-001
4.126919e+002, 2.224898e-001
4.146203e+002, 2.272234e-001
4.165488e+002, 2.314768e-001
4.184773e+002, 2.330376e-001
4.204057e+002, 2.346776e-001
4.223342e+002, 2.329683e-001
4.242627e+002, 2.323992e-001
4.261911e+002, 2.364606e-001
4.281196e+002, 2.398496e-001
4.300481e+002, 2.421469e-001
4.319765e+002, 2.459868e-001
4.339050e+002, 2.526666e-001
4.358335e+002, 2.596051e-001
4.377619e+002, 2.683561e-001
4.396904e+002, 2.747227e-001
4.416189e+002, 2.767717e-001
4.435473e+002, 2.787008e-001
4.454758e+002, 2.782598e-001
4.474043e+002, 2.783598e-001
4.493327e+002, 2.772889e-001
4.512612e+002, 2.731495e-001
4.531897e+002, 2.676813e-001
4.551181e+002, 2.619425e-001
4.570466e+002, 2.579835e-001
4.589751e+002, 2.534615e-001
4.609035e+002, 2.455030e-001
4.628320e+002, 2.385092e-001
4.647605e+002, 2.314595e-001
4.666889e+002, 2.229932e-001
4.686174e+002, 2.148238e-001
4.705459e+002, 2.067171e-001
4.724743e+002, 1.998204e-001
4.744028e+002, 1.933069e-001
4.763313e+002, 1.869584e-001
4.782597e+002, 1.817880e-001
4.801882e+002, 1.753962e-001
4.821167e+002, 1.678125e-001
4.840451e+002, 1.608460e-001
4.859736e+002, 1.538803e-001
4.879021e+002, 1.476506e-001
4.898305e+002, 1.428035e-001
4.917590e+002, 1.390644e-001
4.936875e+002, 1.367222e-001
4.956159e+002, 1.353741e-001
4.975444e+002, 1.334910e-001
4.994729e+002, 1.308459e-001
5.014013e+002, 1.275863e-001
5.033298e+002, 1.235591e-001
5.052583e+002, 1.199507e-001
5.071867e+002, 1.164206e-001
5.091152e+002, 1.122529e-001
5.110437e+002, 1.099243e-001
5.129721e+002, 1.090547e-001
5.149006e+002, 1.079302e-001
5.168290e+002, 1.076938e-001
5.187575e+002, 1.087737e-001
5.206860e+002, 1.103102e-001
5.226144e+002, 1.120459e-001
5.245429e+002, 1.137966e-001
5.264714e+002, 1.146128e-001
5.283998e+002, 1.141773e-001
5.303283e+002, 1.127491e-001
5.322568e+002, 1.106611e-001
5.341852e+002, 1.088424e-001
5.361137e+002, 1.077091e-001
5.380422e+002, 1.058168e-001
5.399706e+002, 1.032389e-001
5.418991e+002, 1.003148e-001
5.438276e+002, 9.698641e-002
5.457560e+002, 9.327166e-002
5.476845e+002, 8.973709e-002
5.496130e+002, 8.637786e-002
5.515414e+002, 8.309590e-002
5.534699e+002, 8.006611e-002
5.553984e+002, 7.692032e-002
5.573268e+002, 7.409196e-002
5.592553e+002, 7.137937e-002
5.611838e+002, 6.843422e-002
5.631122e+002, 6.552596e-002
5.650407e+002, 6.315593e-002
5.669692e+002, 6.067905e-002
5.688976e+002, 5.803214e-002
5.708261e+002, 5.618980e-002
5.727546e+002, 5.453244e-002
5.746830e+002, 5.272695e-002
5.766115e+002, 5.117042e-002
5.785400e+002, 5.013512e-002
5.804684e+002, 4.926893e-002
5.823969e+002, 4.853546e-002
5.843254e+002, 4.783561e-002
5.862538e+002, 4.748927e-002
5.881823e+002, 4.742857e-002
5.901108e+002, 4.739873e-002
5.920392e+002, 4.747294e-002
5.939677e+002, 4.765112e-002
5.958962e+002, 4.806389e-002
5.978246e+002, 4.831515e-002
5.997531e+002, 4.867016e-002
6.016816e+002, 4.904973e-002
6.036100e+002, 4.929048e-002
6.055385e+002, 4.946539e-002
6.074670e+002, 4.984145e-002
6.093954e+002, 5.028878e-002
6.113239e+002, 5.125182e-002
6.132524e+002, 5.281418e-002
6.151808e+002, 5.520474e-002
6.171093e+002, 5.850897e-002
6.190378e+002, 6.255641e-002
6.209662e+002, 6.646309e-002
6.228947e+002, 6.846874e-002
6.248232e+002, 6.685746e-002
6.267516e+002, 6.234551e-002
6.286801e+002, 5.686589e-002
6.306086e+002, 5.231148e-002
6.325370e+002, 4.934005e-002
6.344655e+002, 4.761507e-002
6.363940e+002, 4.684042e-002
6.383224e+002, 4.672027e-002
6.402509e+002, 4.699841e-002
6.421794e+002, 4.728531e-002
6.441078e+002, 4.798084e-002
6.460363e+002, 4.904316e-002
6.479648e+002, 5.059288e-002
6.498932e+002, 5.249956e-002
6.518217e+002, 5.455077e-002
6.537502e+002, 5.711228e-002
6.556786e+002, 6.044856e-002
6.576071e+002, 6.431647e-002
6.595356e+002, 6.877856e-002
6.614641e+002, 7.430685e-002
6.633925e+002, 8.080024e-002
6.653210e+002, 8.827242e-002
6.672495e+002, 9.729706e-002
6.691779e+002, 1.079059e-001
6.711064e+002, 1.198084e-001
6.730349e+002, 1.335511e-001
6.749633e+002, 1.488793e-001
6.768918e+002, 1.647215e-001
6.788203e+002, 1.794037e-001
6.807487e+002, 1.907106e-001
6.826772e+002, 1.958747e-001
6.846057e+002, 1.931099e-001
6.865341e+002, 1.834168e-001
6.884626e+002, 1.699538e-001
6.903911e+002, 1.557705e-001
6.923195e+002, 1.430057e-001
6.942480e+002, 1.325471e-001
6.961765e+002, 1.243221e-001
6.981049e+002, 1.178964e-001
7.000334e+002, 1.136203e-001
7.019619e+002, 1.110604e-001
7.038903e+002, 1.103856e-001
7.058188e+002, 1.101114e-001
7.077473e+002, 1.082880e-001
7.096757e+002, 1.039515e-001
7.116042e+002, 9.748714e-002
7.135327e+002, 9.029596e-002
7.154611e+002, 8.479329e-002
7.173896e+002, 8.261098e-002
7.193181e+002, 8.408031e-002
7.212465e+002, 8.795688e-002
7.231750e+002, 9.120807e-002
7.251035e+002, 9.159482e-002
7.270319e+002, 8.829035e-002
7.289604e+002, 8.246017e-002
7.308889e+002, 7.567845e-002
7.328173e+002, 6.881652e-002
7.347458e+002, 6.258915e-002
7.366743e+002, 5.731101e-002
7.386027e+002, 5.269844e-002
7.405312e+002, 4.903755e-002
7.424597e+002, 4.637073e-002
7.443881e+002, 4.452566e-002
7.463166e+002, 4.340363e-002
7.482451e+002, 4.265931e-002
7.501735e+002, 4.248023e-002
7.521020e+002, 4.297065e-002
7.540305e+002, 4.401436e-002
7.559589e+002, 4.537491e-002
7.578874e+002, 4.714148e-002
7.598159e+002, 4.924620e-002
7.617443e+002, 5.145347e-002
7.636728e+002, 5.366170e-002
7.656013e+002, 5.574433e-002
7.675297e+002, 5.817767e-002
7.694582e+002, 6.127476e-002
7.713867e+002, 6.528497e-002
7.733151e+002, 7.058954e-002
7.752436e+002, 7.712580e-002
7.771721e+002, 8.415720e-002
7.791005e+002, 9.001227e-002
7.810290e+002, 9.307528e-002
7.829575e+002, 9.277350e-002
7.848859e+002, 8.919737e-002
7.868144e+002, 8.346814e-002
7.887429e+002, 7.702772e-002
7.906713e+002, 7.140993e-002
7.925998e+002, 6.751585e-002
7.945283e+002, 6.484497e-002
7.964567e+002, 6.283414e-002
7.983852e+002, 6.052551e-002
8.003137e+002, 5.700792e-002
8.022421e+002, 5.230837e-002
8.041706e+002, 4.713752e-002
8.060991e+002, 4.207828e-002
8.080275e+002, 3.759656e-002
8.099560e+002, 3.428759e-002
8.118845e+002, 3.205815e-002
8.138129e+002, 3.044073e-002
8.157414e+002, 2.915107e-002
8.176699e+002, 2.826462e-002
8.195983e+002, 2.787585e-002
8.215268e+002, 2.781296e-002
8.234553e+002, 2.769590e-002
8.253837e+002, 2.766247e-002
8.273122e+002, 2.803191e-002
8.292407e+002, 2.848618e-002
8.311691e+002, 2.884456e-002
8.330976e+002, 2.907806e-002
8.350261e+002, 2.964057e-002
8.369545e+002, 3.028739e-002
8.388830e+002, 3.090577e-002
8.408115e+002, 3.162200e-002
8.427399e+002, 3.242939e-002
8.446684e+002, 3.338343e-002
8.465969e+002, 3.426799e-002
8.485253e+002, 3.513035e-002
8.504538e+002, 3.620153e-002
8.523823e+002, 3.737547e-002
8.543107e+002, 3.853217e-002
8.562392e+002, 3.977650e-002
8.581677e+002, 4.139356e-002
8.600961e+002, 4.294135e-002
8.620246e+002, 4.434705e-002
8.639531e+002, 4.593620e-002
8.658815e+002, 4.773340e-002
8.678100e+002, 4.947039e-002
8.697385e+002, 5.111014e-002
8.716669e+002, 5.313366e-002
8.735954e+002, 5.545159e-002
8.755239e+002, 5.783788e-002
8.774523e+002, 6.032939e-002
8.793808e+002, 6.306551e-002
8.813093e+002, 6.596981e-002
8.832377e+002, 6.895974e-002
8.851662e+002, 7.225723e-002
8.870947e+002, 7.570244e-002
8.890231e+002, 7.921500e-002
8.909516e+002, 8.303510e-002
8.928801e+002, 8.716093e-002
8.948085e+002, 9.165807e-002
8.967370e+002, 9.630129e-002
8.986655e+002, 1.014881e-001
9.005939e+002, 1.070145e-001
9.025224e+002, 1.128551e-001
9.044509e+002, 1.190618e-001
9.063793e+002, 1.257357e-001
9.083078e+002, 1.327547e-001
9.102363e+002, 1.399138e-001
9.121647e+002, 1.474153e-001
9.140932e+002, 1.551980e-001
9.160217e+002, 1.632177e-001
9.179501e+002, 1.716502e-001
9.198786e+002, 1.805647e-001
9.218071e+002, 1.898747e-001
9.237355e+002, 1.997172e-001
9.256640e+002, 2.099758e-001
9.275925e+002, 2.209637e-001
9.295209e+002, 2.325600e-001
9.314494e+002, 2.446546e-001
9.333779e+002, 2.571138e-001
9.353063e+002, 2.694086e-001
9.372348e+002, 2.818836e-001
9.391633e+002, 2.951960e-001
9.410917e+002, 3.088454e-001
9.430202e+002, 3.227401e-001
9.449487e+002, 3.367853e-001
9.468771e+002, 3.505819e-001
9.488056e+002, 3.643718e-001
9.507341e+002, 3.774789e-001
9.526625e+002, 3.885661e-001
9.545910e+002, 3.965989e-001
9.565195e+002, 4.001469e-001
9.584479e+002, 4.011237e-001
9.603764e+002, 4.028735e-001
9.623049e+002, 4.058452e-001
9.642333e+002, 4.065502e-001
9.661618e+002, 4.023475e-001
9.680903e+002, 3.922025e-001
9.700187e+002, 3.766390e-001
9.719472e+002, 3.594874e-001
9.738757e+002, 3.439275e-001
9.758041e+002, 3.283691e-001
9.777326e+002, 3.095686e-001
9.796611e+002, 2.881698e-001
9.815895e+002, 2.664659e-001
9.835180e+002, 2.455277e-001
9.854465e+002, 2.260240e-001
9.873749e+002, 2.082372e-001
9.893034e+002, 1.923951e-001
9.912319e+002, 1.784573e-001
9.931603e+002, 1.666694e-001
9.950888e+002, 1.574042e-001
9.970173e+002, 1.506145e-001
9.989457e+002, 1.471985e-001
1.000874e+003, 1.480303e-001
1.002803e+003, 1.538612e-001
1.004731e+003, 1.654423e-001
1.006660e+003, 1.824666e-001
1.008588e+003, 2.038056e-001
1.010517e+003, 2.274641e-001
1.012445e+003, 2.504967e-001
1.014373e+003, 2.691292e-001
1.016302e+003, 2.802566e-001
1.018230e+003, 2.830374e-001
1.020159e+003, 2.788131e-001
1.022087e+003, 2.702678e-001
1.024016e+003, 2.599286e-001
1.025944e+003, 2.492965e-001
1.027873e+003, 2.391530e-001
1.029801e+003, 2.298543e-001
1.031730e+003, 2.213813e-001
1.033658e+003, 2.140038e-001
1.035587e+003, 2.076858e-001
1.037515e+003, 2.021902e-001
1.039443e+003, 1.972160e-001
1.041372e+003, 1.926417e-001
1.043300e+003, 1.887693e-001
1.045229e+003, 1.856686e-001
1.047157e+003, 1.830520e-001
1.049086e+003, 1.809807e-001
1.051014e+003, 1.794661e-001
1.052943e+003, 1.784477e-001
1.054871e+003, 1.779182e-001
1.056800e+003, 1.778512e-001
1.058728e+003, 1.781322e-001
1.060657e+003, 1.787114e-001
1.062585e+003, 1.795954e-001
1.064514e+003, 1.809262e-001
1.066442e+003, 1.829330e-001
1.068370e+003, 1.859926e-001
1.070299e+003, 1.900345e-001
1.072227e+003, 1.951095e-001
1.074156e+003, 2.010638e-001
1.076084e+003, 2.071837e-001
1.078013e+003, 2.130874e-001
1.079941e+003, 2.186824e-001
1.081870e+003, 2.231938e-001
1.083798e+003, 2.259379e-001
1.085727e+003, 2.268062e-001
1.087655e+003, 2.256914e-001
1.089584e+003, 2.226764e-001
1.091512e+003, 2.175565e-001
1.093441e+003, 2.108906e-001
1.095369e+003, 2.031144e-001
1.097297e+003, 1.948696e-001
1.099226e+003, 1.870996e-001
1.101154e+003, 1.804479e-001
1.103083e+003, 1.751951e-001
1.105011e+003, 1.706293e-001
1.106940e+003, 1.655957e-001
1.108868e+003, 1.598663e-001
1.110797e+003, 1.538326e-001
1.112725e+003, 1.478897e-001
1.114654e+003, 1.424546e-001
1.116582e+003, 1.376083e-001
1.118511e+003, 1.335525e-001
1.120439e+003, 1.300545e-001
1.122368e+003, 1.271611e-001
1.124296e+003, 1.247312e-001
1.126224e+003, 1.224064e-001
1.128153e+003, 1.203217e-001
1.130081e+003, 1.180371e-001
1.132010e+003, 1.151369e-001
1.133938e+003, 1.116973e-001
1.135867e+003, 1.078720e-001
1.137795e+003, 1.037401e-001
1.139724e+003, 9.975072e-002
1.141652e+003, 9.612361e-002
1.143581e+003, 9.282553e-002
1.145509e+003, 8.952369e-002
1.147438e+003, 8.616874e-002
1.149366e+003, 8.311149e-002
1.151295e+003, 8.020423e-002
1.153223e+003, 7.754588e-002
1.155151e+003, 7.545789e-002
1.157080e+003, 7.410614e-002
1.159008e+003, 7.329077e-002
1.160937e+003, 7.258801e-002
1.162865e+003, 7.096729e-002
1.164794e+003, 6.824832e-002
1.166722e+003, 6.496154e-002
1.168651e+003, 6.132811e-002
1.170579e+003, 5.758077e-002
1.172508e+003, 5.396183e-002
1.174436e+003, 5.065291e-002
1.176365e+003, 4.761087e-002
1.178293e+003, 4.484900e-002
1.180222e+003, 4.230110e-002
1.182150e+003, 4.000508e-002
1.184078e+003, 3.789760e-002
1.186007e+003, 3.610286e-002
1.187935e+003, 3.466762e-002
1.189864e+003, 3.330315e-002
1.191792e+003, 3.195436e-002
1.193721e+003, 3.073532e-002
1.195649e+003, 2.943349e-002
1.197578e+003, 2.826929e-002
1.199506e+003, 2.715991e-002
1.201435e+003, 2.599426e-002
1.203363e+003, 2.468176e-002
1.205292e+003, 2.334313e-002
1.207220e+003, 2.213529e-002
1.209149e+003, 2.081053e-002
1.211077e+003, 1.949583e-002
1.213005e+003, 1.815910e-002
1.214934e+003, 1.678277e-002
1.216862e+003, 1.562513e-002
1.218791e+003, 1.470071e-002
1.220719e+003, 1.367928e-002
1.222648e+003, 1.268568e-002
1.224576e+003, 1.175980e-002
1.226505e+003, 1.100990e-002
1.228433e+003, 1.043173e-002
1.230362e+003, 9.825493e-003
1.232290e+003, 9.317357e-003
1.234219e+003, 8.857187e-003
1.236147e+003, 8.370371e-003
1.238076e+003, 7.952030e-003
1.240004e+003, 7.538144e-003
1.241932e+003, 7.221173e-003
1.243861e+003, 6.970471e-003
1.245789e+003, 6.723340e-003
1.247718e+003, 6.416553e-003
1.249646e+003, 6.057844e-003
1.251575e+003, 5.812538e-003
1.253503e+003, 5.620527e-003
1.255432e+003, 5.421628e-003
1.257360e+003, 5.228102e-003
1.259289e+003, 5.097319e-003
1.261217e+003, 4.970706e-003
1.263146e+003, 4.742599e-003
1.265074e+003, 4.579429e-003
1.267003e+003, 4.448334e-003
1.268931e+003, 4.317278e-003
1.270859e+003, 4.204924e-003
1.272788e+003, 4.244396e-003
1.274716e+003, 4.231025e-003
1.276645e+003, 4.208304e-003
1.278573e+003, 4.227920e-003
1.280502e+003, 4.220601e-003
1.282430e+003, 4.143810e-003
1.284359e+003, 3.998117e-003
1.286287e+003, 4.010420e-003
1.288216e+003, 3.930963e-003
1.290144e+003, 3.721992e-003
1.292073e+003, 3.525939e-003
1.294001e+003, 3.385604e-003
1.295930e+003, 3.412840e-003
1.297858e+003, 3.343635e-003
1.299786e+003, 3.241128e-003
1.301715e+003, 3.121192e-003
1.303643e+003, 3.001305e-003
1.305572e+003, 2.924246e-003
1.307500e+003, 2.788321e-003
1.309429e+003, 2.665088e-003
1.311357e+003, 2.632037e-003
1.313286e+003, 2.672930e-003
1.315214e+003, 2.578660e-003
1.317143e+003, 2.407027e-003
1.319071e+003, 2.430820e-003
1.321000e+003, 2.390946e-003
1.322928e+003, 2.247929e-003
1.324857e+003, 2.179813e-003
1.326785e+003, 2.176757e-003
1.328714e+003, 2.093408e-003
1.330642e+003, 1.984820e-003
1.332570e+003, 1.842085e-003
1.334499e+003, 1.776175e-003
1.336427e+003, 1.796464e-003
1.338356e+003, 1.786775e-003
1.340284e+003, 1.645226e-003
1.342213e+003, 1.592209e-003
1.344141e+003, 1.532200e-003
1.346070e+003, 1.471758e-003
1.347998e+003, 1.372731e-003
1.349927e+003, 1.321082e-003
1.351855e+003, 1.244817e-003
1.353784e+003, 1.136931e-003
1.355712e+003, 1.139944e-003
1.357641e+003, 1.278144e-003
1.359569e+003, 1.200698e-003
1.361497e+003, 1.127874e-003
1.363426e+003, 1.075123e-003
1.365354e+003, 1.064725e-003
1.367283e+003, 9.606383e-004
1.369211e+003, 8.775353e-004
1.371140e+003, 9.675425e-004
1.373068e+003, 1.002312e-003
1.374997e+003, 9.557687e-004
1.376925e+003, 9.753951e-004
1.378854e+003, 1.056574e-003
1.380782e+003, 1.004299e-003
1.382711e+003, 9.143983e-004
1.384639e+003, 9.602475e-004
1.386568e+003, 1.028088e-003
1.388496e+003, 1.050958e-003
1.390424e+003, 9.944165e-004
1.392353e+003, 9.866115e-004
1.394281e+003, 1.134225e-003
1.396210e+003, 1.181088e-003
1.398138e+003, 1.155017e-003
1.400067e+003, 1.135012e-003
1.401995e+003, 1.109550e-003
1.403924e+003, 1.043005e-003
1.405852e+003, 9.995667e-004
1.407781e+003, 1.142669e-003
1.409709e+003, 1.262979e-003
1.411638e+003, 1.258857e-003
1.413566e+003, 1.153551e-003
1.415495e+003, 1.123472e-003
1.417423e+003, 1.220482e-003
1.419351e+003, 1.246662e-003
1.421280e+003, 1.150564e-003
1.423208e+003, 1.283159e-003
1.425137e+003, 1.305020e-003
1.427065e+003, 1.268420e-003
1.428994e+003, 1.322911e-003
1.430922e+003, 1.297629e-003
1.432851e+003, 1.233796e-003
1.434779e+003, 1.391348e-003
1.436708e+003, 1.673874e-003
1.438636e+003, 1.589634e-003
1.440565e+003, 1.510491e-003
1.442493e+003, 1.529254e-003
1.444422e+003, 1.521624e-003
1.446350e+003, 1.476986e-003
1.448278e+003, 1.386154e-003
1.450207e+003, 1.404534e-003
1.452135e+003, 1.405749e-003
1.454064e+003, 1.508416e-003
1.455992e+003, 1.861217e-003
1.457921e+003, 1.846744e-003
1.459849e+003, 1.521271e-003
1.461778e+003, 1.469030e-003
1.463706e+003, 1.652373e-003
1.465635e+003, 1.707645e-003
1.467563e+003, 1.407026e-003
1.469492e+003, 1.297948e-003
1.471420e+003, 1.578333e-003
1.473349e+003, 1.720837e-003
1.475277e+003, 1.605701e-003
1.477205e+003, 1.510966e-003
1.479134e+003, 1.453333e-003
1.481062e+003, 1.487963e-003
1.482991e+003, 1.453189e-003
1.484919e+003, 1.482963e-003
1.486848e+003, 1.787274e-003
1.488776e+003, 1.897709e-003
1.490705e+003, 1.746646e-003
1.492633e+003, 1.675251e-003
1.494562e+003, 1.856945e-003
1.496490e+003, 2.013936e-003
1.498419e+003, 1.954259e-003
1.500347e+003, 1.935316e-003
1.502276e+003, 1.908082e-003
1.504204e+003, 2.133782e-003
1.506132e+003, 2.506441e-003
1.508061e+003, 2.372804e-003
1.509989e+003, 2.173198e-003
1.511918e+003, 2.123537e-003
1.513846e+003, 2.084565e-003
1.515775e+003, 2.174269e-003
1.517703e+003, 2.234941e-003
1.519632e+003, 2.383736e-003
1.521560e+003, 2.621542e-003
1.523489e+003, 2.418672e-003
1.525417e+003, 2.277012e-003
1.527346e+003, 2.279368e-003
1.529274e+003, 2.281368e-003
1.531203e+003, 2.357389e-003
1.533131e+003, 2.315842e-003
1.535059e+003, 2.187117e-003
1.536988e+003, 2.406364e-003
1.538916e+003, 2.947723e-003
1.540845e+003, 2.985454e-003
1.542773e+003, 2.680807e-003
1.544702e+003, 2.480957e-003
1.546630e+003, 2.354430e-003
1.548559e+003, 2.330930e-003
1.550487e+003, 2.315109e-003
1.552416e+003, 2.397157e-003
1.554344e+003, 2.607200e-003
1.556273e+003, 2.708886e-003
1.558201e+003, 3.212420e-003
1.560130e+003, 3.267276e-003
1.562058e+003, 2.895823e-003
1.563986e+003, 2.850315e-003
1.565915e+003, 2.864502e-003
1.567843e+003, 2.935424e-003
1.569772e+003, 3.120257e-003
1.571700e+003, 3.088300e-003
1.573629e+003, 3.322352e-003
1.575557e+003, 3.779432e-003
1.577486e+003, 3.728553e-003
1.579414e+003, 3.425262e-003
1.581343e+003, 3.549980e-003
1.583271e+003, 3.769002e-003
1.585200e+003, 3.910064e-003
1.587128e+003, 3.934912e-003
1.589057e+003, 4.110415e-003
1.590985e+003, 4.615697e-003
1.592913e+003, 5.095758e-003
1.594842e+003, 5.354718e-003
1.596770e+003, 5.597048e-003
1.598699e+003, 5.940300e-003
1.600627e+003, 6.425502e-003
1.602556e+003, 6.947354e-003
1.604484e+003, 7.398997e-003
1.606413e+003, 7.865445e-003
1.608341e+003, 8.516246e-003
1.610270e+003, 9.180632e-003
1.612198e+003, 9.808631e-003
1.614127e+003, 1.062916e-002
1.616055e+003, 1.177541e-002
1.617984e+003, 1.253968e-002
1.619912e+003, 1.332289e-002
1.621840e+003, 1.452029e-002
1.623769e+003, 1.598429e-002
1.625697e+003, 1.752876e-002
1.627626e+003, 1.951641e-002
1.629554e+003, 2.188206e-002
1.631483e+003, 2.465525e-002
1.633411e+003, 2.787894e-002
1.635340e+003, 3.116733e-002
1.637268e+003, 3.352638e-002
1.639197e+003, 3.469121e-002
1.641125e+003, 3.477553e-002
1.643054e+003, 3.402902e-002
1.644982e+003, 3.238502e-002
1.646911e+003, 2.935769e-002
1.648839e+003, 2.537742e-002
1.650767e+003, 2.169379e-002
1.652696e+003, 1.874053e-002
1.654624e+003, 1.544952e-002
1.656553e+003, 1.256107e-002
1.658481e+003, 1.064506e-002
1.660410e+003, 9.259153e-003
1.662338e+003, 8.209834e-003
1.664267e+003, 7.069785e-003
1.666195e+003, 6.158426e-003
1.668124e+003, 5.742138e-003
1.670052e+003, 5.268497e-003
1.671981e+003, 4.631918e-003
1.673909e+003, 4.444947e-003
1.675838e+003, 4.214634e-003
1.677766e+003, 3.632753e-003
1.679694e+003, 3.486717e-003
1.681623e+003, 3.367056e-003
1.683551e+003, 3.551843e-003
1.685480e+003, 3.325536e-003
1.687408e+003, 2.836113e-003
1.689337e+003, 2.794691e-003
1.691265e+003, 2.695463e-003
1.693194e+003, 2.667632e-003
1.695122e+003, 3.071732e-003
1.697051e+003, 3.003416e-003
1.698979e+003, 3.022664e-003
1.700908e+003, 2.973706e-003
1.702836e+003, 2.302316e-003
1.704765e+003, 2.181196e-003
1.706693e+003, 2.119248e-003
1.708621e+003, 2.085022e-003
1.710550e+003, 1.975371e-003
1.712478e+003, 1.972147e-003
1.714407e+003, 1.997901e-003
1.716335e+003, 2.028385e-003
1.718264e+003, 1.816116e-003
1.720192e+003, 1.417016e-003
1.722121e+003, 1.232489e-003
1.724049e+003, 1.191026e-003
1.725978e+003, 9.795527e-004
1.727906e+003, 8.398790e-004
1.729835e+003, 8.622318e-004
1.731763e+003, 1.022805e-003
1.733692e+003, 1.185092e-003
1.735620e+003, 8.536289e-004
1.737548e+003, 4.677089e-004
1.739477e+003, 3.127775e-004
1.741405e+003, 2.353318e-004
1.743334e+003, 2.469894e-004
1.745262e+003, 1.639840e-004
1.747191e+003, 1.706649e-004
1.749119e+003, 1.075592e-004
1.751048e+003, 7.409621e-005
1.752976e+003, -1.575426e-004
1.754905e+003, -1.245632e-004
1.756833e+003, 3.532585e-005
1.758762e+003, 4.447184e-005
1.760690e+003, 4.144476e-005
1.762619e+003, 1.294002e-004
1.764547e+003, 1.882702e-004
1.766475e+003, 9.002828e-005
1.768404e+003, -9.952234e-005
1.770332e+003, -1.268948e-005
1.772261e+003, 2.865528e-004
1.774189e+003, 2.033221e-004
1.776118e+003, 2.309233e-005
1.778046e+003, -1.091167e-004
1.779975e+003, -1.353391e-004
1.781903e+003, -2.690210e-005
1.783832e+003, 1.309082e-004
1.785760e+003, 1.334954e-004
1.787689e+003, 4.313045e-005
1.789617e+003, 1.346424e-004
1.791546e+003, 2.075994e-004
1.793474e+003, 1.331899e-004
1.795402e+003, -4.101655e-005
1.797331e+003, 2.113173e-005
1.799259e+003, 1.984387e-004
1.801188e+003, 2.923288e-004
1.803116e+003, 1.093819e-004
1.805045e+003, -2.941980e-005
1.806973e+003, -1.507752e-004
1.808902e+003, 1.167672e-005
1.810830e+003, -1.253173e-004
1.812759e+003, -4.534335e-004
1.814687e+003, -7.099172e-004
1.816616e+003, -7.113703e-004
1.818544e+003, -4.332634e-004
1.820473e+003, -2.417258e-004
1.822401e+003, -4.717924e-004
1.824329e+003, -4.123379e-004
1.826258e+003, -3.868036e-004
1.828186e+003, -4.367835e-004
1.830115e+003, -3.761879e-004
1.832043e+003, -4.420843e-004
1.833972e+003, -5.321718e-004
1.835900e+003, -6.480155e-004
1.837829e+003, -7.845251e-004
1.839757e+003, -7.680273e-004
1.841686e+003, -6.444427e-004
1.843614e+003, -5.662280e-004
1.845543e+003, -6.379798e-004
1.847471e+003, -5.434414e-004
1.849400e+003, -3.812611e-004
1.851328e+003, -4.309864e-004
1.853256e+003, -6.466736e-004
1.855185e+003, -6.086958e-004
1.857113e+003, -5.251211e-004
1.859042e+003, -5.260693e-004
1.860970e+003, -8.078982e-004
1.862899e+003, -8.440391e-004
1.864827e+003, -5.967143e-004
1.866756e+003, -4.328170e-004
1.868684e+003, -3.021660e-004
1.870613e+003, -5.786075e-004
1.872541e+003, -8.955619e-004
1.874470e+003, -8.385691e-004
1.876398e+003, -7.846222e-004
1.878327e+003, -1.024323e-003
1.880255e+003, -1.094881e-003
1.882183e+003, -8.912498e-004
1.884112e+003, -1.231089e-003
1.886040e+003, -1.357054e-003
1.887969e+003, -1.207577e-003
1.889897e+003, -1.211380e-003
1.891826e+003, -9.994726e-004
1.893754e+003, -9.503707e-004
1.895683e+003, -1.552194e-003
1.897611e+003, -1.322373e-003
1.899540e+003, -9.308585e-004
1.901468e+003, -1.369058e-003
1.903397e+003, -1.916359e-003
1.905325e+003, -1.349502e-003
1.907254e+003, -9.626328e-004
1.909182e+003, -1.328866e-003
1.911110e+003, -1.637064e-003
1.913039e+003, -1.641643e-003
1.914967e+003, -1.416286e-003
1.916896e+003, -1.472701e-003
1.918824e+003, -1.769059e-003
1.920753e+003, -1.574104e-003
1.922681e+003, -1.741869e-003
1.924610e+003, -2.330185e-003
1.926538e+003, -1.994629e-003
1.928467e+003, -1.493533e-003
1.930395e+003, -1.601148e-003
1.932324e+003, -1.535579e-003
1.934252e+003, -1.485640e-003
1.936181e+003, -1.686202e-003
1.938109e+003, -2.272237e-003
1.940037e+003, -2.803518e-003
1.941966e+003, -2.408244e-003
1.943894e+003, -2.078831e-003
1.945823e+003, -2.748156e-003
1.947751e+003, -2.327387e-003
1.949680e+003, -1.320490e-003
1.951608e+003, -1.353903e-003
1.953537e+003, -2.078368e-003
1.955465e+003, -2.819034e-003
1.957394e+003, -2.410150e-003
1.959322e+003, -1.022179e-003
1.961251e+003, -8.214037e-004
1.963179e+003, -1.232226e-003
1.965108e+003, -1.101741e-003
1.967036e+003, -9.985706e-004
1.968964e+003, -9.940600e-004
1.970893e+003, -8.413519e-004
1.972821e+003, -9.169756e-004
1.974750e+003, -1.448165e-004
1.976678e+003, 1.561868e-003
1.978607e+003, 1.896303e-003
1.980535e+003, 9.540741e-004
1.982464e+003, 8.040911e-004
1.984392e+003, 1.509077e-003
1.986321e+003, 1.493615e-003
1.988249e+003, 8.415891e-004
1.990178e+003, 6.544192e-004
1.992106e+003, 5.651533e-004
1.994035e+003, 1.021459e-003
1.995963e+003, 1.353365e-003
1.997891e+003, 1.601735e-003
1.999820e+003, 1.724798e-003
2.001748e+003, 7.526611e-004
2.003677e+003, 4.649558e-005
2.005605e+003, 2.586734e-004
2.007534e+003, 1.391280e-003
2.009462e+003, 1.809304e-003
2.011391e+003, 1.252262e-003
2.013319e+003, 5.543604e-004
2.015248e+003, 7.413980e-005
2.017176e+003, 6.667846e-004
2.019105e+003, 4.924505e-004
2.021033e+003, -5.273907e-004
2.022962e+003, -1.525176e-003
2.024890e+003, -1.640813e-003
2.026818e+003, -1.032799e-003
2.028747e+003, -3.282353e-004
2.030675e+003, -4.739072e-004
2.032604e+003, -5.219486e-004
2.034532e+003, -1.402522e-003
2.036461e+003, -1.584883e-003
2.038389e+003, -2.051213e-003
2.040318e+003, -2.224572e-003
2.042246e+003, -1.706548e-003
2.044175e+003, -1.542316e-003
2.046103e+003, -2.446659e-003
2.048031e+003, -2.268863e-003
2.049960e+003, -8.330923e-004
2.051888e+003, -7.939618e-004
2.053817e+003, -1.398473e-003
2.055745e+003, -1.213355e-003
2.057674e+003, -9.228224e-004
2.059602e+003, -1.385845e-003
2.061531e+003, -1.219910e-003
2.063459e+003, -1.132878e-003
2.065388e+003, -1.595594e-003
2.067316e+003, -1.155677e-003
2.069245e+003, -7.832445e-004
2.071173e+003, -9.381640e-004
2.073102e+003, -1.487499e-003
2.075030e+003, -1.244985e-003
2.076958e+003, -1.239661e-003
2.078887e+003, -1.318786e-003
2.080815e+003, -1.575707e-003
2.082744e+003, -1.602985e-003
2.084672e+003, -1.503483e-003
2.086601e+003, -1.987628e-003
2.088529e+003, -2.320293e-003
2.090458e+003, -1.990365e-003
2.092386e+003, -2.131908e-003
2.094315e+003, -2.197982e-003
2.096243e+003, -1.443940e-003
2.098172e+003, -1.932903e-004
2.100100e+003, -3.870524e-004
2.102029e+003, -1.047874e-003
2.103957e+003, -1.278852e-003
2.105885e+003, -1.424009e-003
2.107814e+003, -1.937512e-003
2.109742e+003, -2.346911e-003
2.111671e+003, -1.852537e-003
2.113599e+003, -1.342291e-003
2.115528e+003, -1.675610e-003
2.117456e+003, -2.163433e-003
2.119385e+003, -2.212526e-003
2.121313e+003, -2.711613e-003
2.123242e+003, -2.664324e-003
2.125170e+003, -1.977605e-003
2.127099e+003, -2.283890e-003
2.129027e+003, -3.308592e-003
2.130956e+003, -4.206744e-003
2.132884e+003, -4.803642e-003
2.134813e+003, -3.991319e-003
2.136741e+003, -3.340289e-003
2.138669e+003, -3.623985e-003
2.140598e+003, -3.252906e-003
2.142526e+003, -2.827885e-003
2.144455e+003, -3.280126e-003
2.146383e+003, -3.508922e-003
2.148312e+003, -3.008872e-003
2.150240e+003, -2.972555e-003
2.152169e+003, -3.275355e-003
2.154097e+003, -3.250254e-003
2.156026e+003, -3.653563e-003
2.157954e+003, -3.474816e-003
2.159883e+003, -9.572729e-004
2.161811e+003, -9.671412e-005
2.163740e+003, -1.159620e-003
2.165668e+003, -1.321315e-003
2.167596e+003, -1.250557e-003
2.169525e+003, -1.503178e-003
2.171453e+003, -2.577560e-003
2.173382e+003, -2.758028e-003
2.175310e+003, -1.901666e-003
2.177239e+003, -2.183774e-003
2.179167e+003, -2.681129e-003
2.181096e+003, -2.190733e-003
2.183024e+003, -1.648367e-003
2.184953e+003, -1.087451e-003
2.186881e+003, -6.773821e-004
2.188810e+003, -4.522807e-004
2.190738e+003, -3.276742e-004
2.192667e+003, -7.233825e-004
2.194595e+003, 2.744116e-004
2.196523e+003, -4.526228e-006
2.198452e+003, -1.061592e-003
2.200380e+003, -8.617851e-004
2.202309e+003, -2.759772e-004
2.204237e+003, -1.643344e-004
2.206166e+003, -3.304679e-004
2.208094e+003, -1.217138e-003
2.210023e+003, -8.255965e-004
2.211951e+003, -3.040333e-004
2.213880e+003, -7.650491e-004
2.215808e+003, -1.003070e-003
2.217737e+003, 2.336246e-005
2.219665e+003, 5.678288e-004
2.221594e+003, 3.719779e-004
2.223522e+003, -1.935319e-004
2.225450e+003, -4.447857e-005
2.227379e+003, 1.761210e-004
2.229307e+003, -2.852292e-004
2.231236e+003, -2.423045e-004
2.233164e+003, 3.571686e-004
2.235093e+003, 4.615200e-004
2.237021e+003, -3.222539e-005
2.238950e+003, -4.133068e-004
2.240878e+003, -3.578903e-004
2.242807e+003, -4.296317e-004
2.244735e+003, -3.200870e-004
2.246664e+003, 1.269210e-004
2.248592e+003, 4.881672e-004
2.250521e+003, 1.305030e-004
2.252449e+003, -8.138246e-005
2.254377e+003, 3.351895e-004
2.256306e+003, 4.683654e-004
2.258234e+003, 2.737154e-004
2.260163e+003, 3.231801e-004
2.262091e+003, 1.051091e-004
2.264020e+003, -3.046799e-005
2.265948e+003, -1.418171e-005
2.267877e+003, -4.567113e-004
2.269805e+003, -1.891622e-004
2.271734e+003, 6.606191e-004
2.273662e+003, 1.219770e-003
2.275591e+003, 1.162123e-003
2.277519e+003, 6.864223e-004
2.279448e+003, 5.309406e-004
2.281376e+003, 4.981057e-004
2.283304e+003, 7.489508e-004
2.285233e+003, 7.069605e-004
2.287161e+003, 6.037696e-004
2.289090e+003, 7.529288e-004
2.291018e+003, 7.764673e-004
2.292947e+003, 4.522511e-004
2.294875e+003, 2.654840e-004
2.296804e+003, 3.656585e-004
2.298732e+003, 3.747996e-004
2.300661e+003, 5.708348e-004
2.302589e+003, 8.822007e-004
2.304518e+003, 5.243184e-004
2.306446e+003, -1.193594e-004
2.308375e+003, -9.960531e-005
2.310303e+003, 3.965647e-004
2.312231e+003, 5.888950e-004
2.314160e+003, 2.984648e-004
2.316088e+003, 2.531258e-004
2.318017e+003, 4.808159e-004
2.319945e+003, 9.981565e-004
2.321874e+003, 1.504164e-003
2.323802e+003, 1.474482e-003
2.325731e+003, 6.684755e-004
2.327659e+003, 5.355186e-005
2.329588e+003, -3.029819e-005
2.331516e+003, -1.114168e-004
2.333445e+003, -2.517822e-004
2.335373e+003, -2.552727e-004
2.337302e+003, -4.823884e-005
2.339230e+003, -1.252841e-004
2.341158e+003, -2.094416e-004
2.343087e+003, -1.331766e-004
2.345015e+003, -3.556564e-004
2.346944e+003, -6.622525e-004
2.348872e+003, -7.793220e-004
2.350801e+003, -7.257179e-004
2.352729e+003, -5.556580e-004
2.354658e+003, -2.644032e-004
2.356586e+003, 1.012107e-004
2.358515e+003, 9.203365e-005
2.360443e+003, 9.708153e-005
2.362372e+003, 2.310312e-004
2.364300e+003, 2.306149e-004
2.366229e+003, 9.451437e-005
2.368157e+003, -1.948245e-004
2.370085e+003, -3.766451e-004
2.372014e+003, -3.395912e-004
2.373942e+003, -5.825926e-004
2.375871e+003, -7.146848e-004
2.377799e+003, -6.286921e-004
2.379728e+003, -5.442956e-004
2.381656e+003, -6.221042e-004
2.383585e+003, -6.783059e-004
2.385513e+003, -6.419077e-004
2.387442e+003, -4.990955e-004
2.389370e+003, -3.392389e-004
2.391299e+003, -3.908083e-004
2.393227e+003, -5.635258e-004
2.395156e+003, -6.947984e-004
2.397084e+003, -8.618795e-004
2.399012e+003, -6.490562e-004
2.400941e+003, -4.236010e-004
2.402869e+003, -2.845955e-004
2.404798e+003, -4.721392e-004
2.406726e+003, -4.585626e-004
2.408655e+003, -2.101591e-005
2.410583e+003, 6.954666e-006
2.412512e+003, -1.843561e-004
2.414440e+003, 4.824952e-005
2.416369e+003, 5.903229e-005
2.418297e+003, -7.953604e-005
2.420226e+003, -3.178453e-004
2.422154e+003, -2.873219e-004
2.424083e+003, -1.031301e-004
2.426011e+003, 1.416863e-004
2.427939e+003, 3.633972e-004
2.429868e+003, 7.259381e-004
2.431796e+003, 9.074844e-004
2.433725e+003, 6.938234e-004
2.435653e+003, 5.543701e-004
2.437582e+003, 2.665675e-004
2.439510e+003, 2.350295e-004
2.441439e+003, 4.163187e-004
2.443367e+003, 6.513169e-004
2.445296e+003, 6.741383e-004
2.447224e+003, 3.928702e-004
2.449153e+003, 5.983581e-004
2.451081e+003, 1.148116e-003
2.453010e+003, 9.184065e-004
2.454938e+003, 2.725454e-004
2.456866e+003, 2.218959e-004
2.458795e+003, 3.184017e-004
2.460723e+003, 5.220931e-004
2.462652e+003, 3.968293e-004
2.464580e+003, 1.727796e-004
2.466509e+003, 4.560423e-005
2.468437e+003, 2.755891e-004
2.470366e+003, 5.675756e-004
2.472294e+003, 4.644446e-004
2.474223e+003, 2.971290e-004
2.476151e+003, 3.345622e-004
2.478080e+003, 4.061298e-004
2.480008e+003, 5.510722e-004
2.481937e+003, 6.719737e-004
2.483865e+003, 7.878164e-004
2.485793e+003, 8.365785e-004
2.487722e+003, 8.987925e-004
2.489650e+003, 8.747601e-004
2.491579e+003, 5.128969e-004
2.493507e+003, -2.413919e-005
2.495436e+003, -1.149196e-005
2.497364e+003, 2.408407e-004
2.499293e+003, 5.010672e-004
2.501221e+003, 6.508962e-004
2.503150e+003, 4.454741e-004
2.505078e+003, 2.766236e-004
2.507007e+003, 3.665167e-004
2.508935e+003, 3.777089e-004
2.510864e+003, 2.714268e-004
2.512792e+003, 3.556813e-004
2.514720e+003, 3.319898e-004
2.516649e+003, 7.217667e-004
2.518577e+003, 1.139606e-003
2.520506e+003, 1.057664e-003
2.522434e+003, 7.035966e-004
2.524363e+003, 5.232343e-004
2.526291e+003, 5.642679e-004
2.528220e+003, 8.855149e-004
2.530148e+003, 9.169995e-004
2.532077e+003, 4.157334e-004
2.534005e+003, 7.216784e-004
2.535934e+003, 7.558775e-004
2.537862e+003, 4.731209e-004
2.539791e+003, 4.059103e-004
2.541719e+003, 2.897433e-004
2.543647e+003, 1.873090e-004
2.545576e+003, 6.713698e-004
2.547504e+003, 8.879708e-004
2.549433e+003, 1.080664e-003
2.551361e+003, 1.046904e-003
2.553290e+003, 7.659435e-004
2.555218e+003, 6.124576e-004
2.557147e+003, 6.727899e-004
2.559075e+003, 6.171649e-004
2.561004e+003, 8.312054e-004
2.562932e+003, 7.994742e-004
2.564861e+003, 5.136370e-004
2.566789e+003, 6.062041e-004
2.568718e+003, 8.907188e-004
2.570646e+003, 9.371830e-004
2.572574e+003, 8.579866e-004
2.574503e+003, 1.108118e-003
2.576431e+003, 1.192808e-003
2.578360e+003, 1.295933e-003
2.580288e+003, 1.557064e-003
2.582217e+003, 1.515680e-003
2.584145e+003, 1.472938e-003
2.586074e+003, 1.583636e-003
2.588002e+003, 1.410464e-003
2.589931e+003, 9.333356e-004
2.591859e+003, 6.724714e-004
2.593788e+003, 9.743453e-004
2.595716e+003, 1.328938e-003
2.597645e+003, 1.362260e-003
2.599573e+003, 1.163515e-003
2.601501e+003, 1.229806e-003
2.603430e+003, 1.338697e-003
2.605358e+003, 1.399184e-003
2.607287e+003, 1.885662e-003
2.609215e+003, 1.859380e-003
2.611144e+003, 1.644513e-003
2.613072e+003, 1.646975e-003
2.615001e+003, 1.861944e-003
2.616929e+003, 1.835125e-003
2.618858e+003, 1.889094e-003
2.620786e+003, 1.951394e-003
2.622715e+003, 1.889061e-003
2.624643e+003, 1.803196e-003
2.626572e+003, 1.362199e-003
2.628500e+003, 1.233148e-003
2.630428e+003, 1.393926e-003
2.632357e+003, 1.571827e-003
2.634285e+003, 1.513571e-003
2.636214e+003, 1.552585e-003
2.638142e+003, 1.829589e-003
2.640071e+003, 1.873805e-003
2.641999e+003, 1.898620e-003
2.643928e+003, 1.682441e-003
2.645856e+003, 1.587914e-003
2.647785e+003, 1.662464e-003
2.649713e+003, 1.695538e-003
2.651642e+003, 1.412901e-003
2.653570e+003, 1.490552e-003
2.655499e+003, 1.935672e-003
2.657427e+003, 1.819113e-003
2.659355e+003, 1.421732e-003
2.661284e+003, 1.274303e-003
2.663212e+003, 1.155760e-003
2.665141e+003, 1.039597e-003
2.667069e+003, 1.245779e-003
2.668998e+003, 1.106576e-003
2.670926e+003, 9.159180e-004
2.672855e+003, 1.043097e-003
2.674783e+003, 1.016289e-003
2.676712e+003, 9.015820e-004
2.678640e+003, 8.698389e-004
2.680569e+003, 1.115219e-003
2.682497e+003, 1.223610e-003
2.684426e+003, 1.119558e-003
2.686354e+003, 1.252977e-003
2.688282e+003, 1.243303e-003
2.690211e+003, 1.116017e-003
2.692139e+003, 1.261760e-003
2.694068e+003, 1.382628e-003
2.695996e+003, 1.255764e-003
2.697925e+003, 1.008940e-003
2.699853e+003, 7.705869e-004
2.701782e+003, 8.280473e-004
2.703710e+003, 9.686211e-004
2.705639e+003, 1.052961e-003
2.707567e+003, 1.242774e-003
2.709496e+003, 1.291318e-003
2.711424e+003, 1.485384e-003
2.713353e+003, 1.596033e-003
2.715281e+003, 1.351745e-003
2.717209e+003, 1.197817e-003
2.719138e+003, 1.389992e-003
2.721066e+003, 1.639357e-003
2.722995e+003, 1.478388e-003
2.724923e+003, 1.236962e-003
2.726852e+003, 1.252338e-003
2.728780e+003, 1.430582e-003
2.730709e+003, 1.579840e-003
2.732637e+003, 1.315922e-003
2.734566e+003, 1.253490e-003
2.736494e+003, 1.547607e-003
2.738423e+003, 1.538744e-003
2.740351e+003, 1.476685e-003
2.742280e+003, 1.560553e-003
2.744208e+003, 1.640173e-003
2.746136e+003, 1.810290e-003
2.748065e+003, 1.706830e-003
2.749993e+003, 1.728224e-003
2.751922e+003, 1.854306e-003
2.753850e+003, 1.760233e-003
2.755779e+003, 1.726760e-003
2.757707e+003, 1.782730e-003
2.759636e+003, 1.859464e-003
2.761564e+003, 1.855582e-003
2.763493e+003, 1.741825e-003
2.765421e+003, 1.751443e-003
2.767350e+003, 1.708437e-003
2.769278e+003, 1.761402e-003
2.771207e+003, 2.235401e-003
2.773135e+003, 2.401682e-003
2.775063e+003, 2.228085e-003
2.776992e+003, 1.944862e-003
2.778920e+003, 1.617803e-003
2.780849e+003, 1.804048e-003
2.782777e+003, 2.084055e-003
2.784706e+003, 2.195717e-003
2.786634e+003, 2.039572e-003
2.788563e+003, 2.117290e-003
2.790491e+003, 2.014420e-003
2.792420e+003, 1.818196e-003
2.794348e+003, 1.833856e-003
2.796277e+003, 1.965726e-003
2.798205e+003, 2.102052e-003
2.800134e+003, 2.277071e-003
2.802062e+003, 2.422306e-003
2.803990e+003, 2.576776e-003
2.805919e+003, 2.356599e-003
2.807847e+003, 1.878396e-003
2.809776e+003, 1.795444e-003
2.811704e+003, 2.063010e-003
2.813633e+003, 2.310367e-003
2.815561e+003, 2.539696e-003
2.817490e+003, 2.521462e-003
2.819418e+003, 2.280062e-003
2.821347e+003, 2.185196e-003
2.823275e+003, 2.330776e-003
2.825204e+003, 2.373116e-003
2.827132e+003, 2.313862e-003
2.829061e+003, 2.401887e-003
2.830989e+003, 2.470006e-003
2.832917e+003, 2.624578e-003
2.834846e+003, 2.619340e-003
2.836774e+003, 2.898685e-003
2.838703e+003, 3.087760e-003
2.840631e+003, 2.921953e-003
2.842560e+003, 3.187603e-003
2.844488e+003, 3.606761e-003
2.846417e+003, 3.531127e-003
2.848345e+003, 3.226283e-003
2.850274e+003, 3.146519e-003
2.852202e+003, 3.218806e-003
2.854131e+003, 3.332048e-003
2.856059e+003, 3.341557e-003
2.857988e+003, 3.591217e-003
2.859916e+003, 3.771600e-003
2.861844e+003, 3.409486e-003
2.863773e+003, 2.995161e-003
2.865701e+003, 2.946295e-003
2.867630e+003, 3.024243e-003
2.869558e+003, 2.970284e-003
2.871487e+003, 2.845865e-003
2.873415e+003, 2.671114e-003
2.875344e+003, 2.833921e-003
2.877272e+003, 3.215258e-003
2.879201e+003, 3.095799e-003
2.881129e+003, 3.116390e-003
2.883058e+003, 3.227986e-003
2.884986e+003, 3.077239e-003
2.886915e+003, 2.985569e-003
2.888843e+003, 3.277194e-003
2.890771e+003, 3.395537e-003
2.892700e+003, 3.273296e-003
2.894628e+003, 3.497201e-003
2.896557e+003, 3.906641e-003
2.898485e+003, 3.909473e-003
2.900414e+003, 3.837320e-003
2.902342e+003, 3.898750e-003
2.904271e+003, 4.098317e-003
2.906199e+003, 4.082238e-003
2.908128e+003, 4.242574e-003
2.910056e+003, 4.135348e-003
2.911985e+003, 4.229508e-003
2.913913e+003, 4.558467e-003
2.915842e+003, 4.275137e-003
2.917770e+003, 4.303537e-003
2.919698e+003, 4.982288e-003
2.921627e+003, 5.202075e-003
2.923555e+003, 5.128333e-003
2.925484e+003, 5.082804e-003
2.927412e+003, 5.150284e-003
2.929341e+003, 5.162877e-003
2.931269e+003, 4.781876e-003
2.933198e+003, 4.276725e-003
2.935126e+003, 4.276269e-003
2.937055e+003, 4.417190e-003
2.938983e+003, 4.091969e-003
2.940912e+003, 3.887092e-003
2.942840e+003, 4.231742e-003
2.944769e+003, 4.236720e-003
2.946697e+003, 4.062735e-003
2.948625e+003, 3.817705e-003
2.950554e+003, 3.782591e-003
2.952482e+003, 3.995195e-003
2.954411e+003, 4.275579e-003
2.956339e+003, 4.347503e-003
2.958268e+003, 4.218119e-003
2.960196e+003, 4.375903e-003
2.962125e+003, 4.411404e-003
2.964053e+003, 4.286805e-003
2.965982e+003, 4.009959e-003
2.967910e+003, 3.968527e-003
2.969839e+003, 4.456760e-003
2.971767e+003, 4.291059e-003
2.973696e+003, 3.824108e-003
2.975624e+003, 3.730035e-003
2.977552e+003, 3.640878e-003
2.979481e+003, 3.572310e-003
2.981409e+003, 3.632129e-003
2.983338e+003, 3.719176e-003
2.985266e+003, 4.053982e-003
2.987195e+003, 4.145307e-003
2.989123e+003, 4.049181e-003
2.991052e+003, 4.144106e-003
2.992980e+003, 4.159366e-003
2.994909e+003, 3.995764e-003
2.996837e+003, 3.975173e-003
2.998766e+003, 4.115526e-003
3.000694e+003, 4.129685e-003
3.002623e+003, 3.972820e-003
3.004551e+003, 4.001189e-003
3.006479e+003, 4.184668e-003
3.008408e+003, 4.306999e-003
3.010336e+003, 4.053957e-003
3.012265e+003, 4.182460e-003
3.014193e+003, 4.293992e-003
3.016122e+003, 4.284573e-003
3.018050e+003, 4.183023e-003
3.019979e+003, 4.173705e-003
3.021907e+003, 4.225231e-003
3.023836e+003, 4.514776e-003
3.025764e+003, 4.485318e-003
3.027693e+003, 4.261655e-003
3.029621e+003, 4.059201e-003
3.031550e+003, 4.124299e-003
3.033478e+003, 4.573603e-003
3.035406e+003, 4.437907e-003
3.037335e+003, 4.476012e-003
3.039263e+003, 4.736998e-003
3.041192e+003, 4.983179e-003
3.043120e+003, 4.996831e-003
3.045049e+003, 4.838116e-003
3.046977e+003, 4.977020e-003
3.048906e+003, 5.034477e-003
3.050834e+003, 5.357270e-003
3.052763e+003, 5.579690e-003
3.054691e+003, 5.621273e-003
3.056620e+003, 5.530296e-003
3.058548e+003, 5.907861e-003
3.060477e+003, 6.086030e-003
3.062405e+003, 5.884034e-003
3.064333e+003, 5.576882e-003
3.066262e+003, 5.583305e-003
3.068190e+003, 5.414769e-003
3.070119e+003, 5.380542e-003
3.072047e+003, 5.787815e-003
3.073976e+003, 5.782401e-003
3.075904e+003, 5.855691e-003
3.077833e+003, 5.870677e-003
3.079761e+003, 5.965839e-003
3.081690e+003, 6.392144e-003
3.083618e+003, 6.545477e-003
3.085547e+003, 6.582698e-003
3.087475e+003, 6.464029e-003
3.089404e+003, 6.073923e-003
3.091332e+003, 5.603235e-003
3.093260e+003, 5.701374e-003
3.095189e+003, 6.369321e-003
3.097117e+003, 6.616800e-003
3.099046e+003, 6.438339e-003
3.100974e+003, 6.611003e-003
3.102903e+003, 7.063210e-003
3.104831e+003, 6.979967e-003
3.106760e+003, 6.627331e-003
3.108688e+003, 6.812437e-003
3.110617e+003, 7.412681e-003
3.112545e+003, 7.427695e-003
3.114474e+003, 7.347898e-003
3.116402e+003, 7.418735e-003
3.118331e+003, 7.511809e-003
3.120259e+003, 7.867734e-003
3.122188e+003, 8.280064e-003
3.124116e+003, 8.432092e-003
3.126044e+003, 8.053762e-003
3.127973e+003, 7.787439e-003
3.129901e+003, 7.904312e-003
3.131830e+003, 8.044935e-003
3.133758e+003, 8.033029e-003
3.135687e+003, 7.934248e-003
3.137615e+003, 7.933750e-003
3.139544e+003, 8.298236e-003
3.141472e+003, 8.550142e-003
3.143401e+003, 8.405588e-003
3.145329e+003, 8.214735e-003
3.147258e+003, 8.389258e-003
3.149186e+003, 8.622717e-003
3.151115e+003, 8.620809e-003
3.153043e+003, 8.574729e-003
3.154971e+003, 8.758239e-003
3.156900e+003, 8.712274e-003
3.158828e+003, 8.853119e-003
3.160757e+003, 9.227011e-003
3.162685e+003, 9.456902e-003
3.164614e+003, 9.202084e-003
3.166542e+003, 9.211545e-003
3.168471e+003, 9.559380e-003
3.170399e+003, 9.839983e-003
3.172328e+003, 9.696771e-003
3.174256e+003, 9.425987e-003
3.176185e+003, 9.830347e-003
3.178113e+003, 1.010218e-002
3.180042e+003, 1.016865e-002
3.181970e+003, 1.044966e-002
3.183898e+003, 1.088373e-002
3.185827e+003, 1.068188e-002
3.187755e+003, 1.035986e-002
3.189684e+003, 1.068822e-002
3.191612e+003, 1.033672e-002
3.193541e+003, 1.014347e-002
3.195469e+003, 1.019543e-002
3.197398e+003, 1.054682e-002
3.199326e+003, 1.075919e-002
3.201255e+003, 1.110216e-002
3.203183e+003, 1.151904e-002
3.205112e+003, 1.131950e-002
3.207040e+003, 1.159185e-002
3.208969e+003, 1.209118e-002
3.210897e+003, 1.139942e-002
3.212825e+003, 1.078838e-002
3.214754e+003, 1.132196e-002
3.216682e+003, 1.181788e-002
3.218611e+003, 1.208070e-002
3.220539e+003, 1.171801e-002
3.222468e+003, 1.153604e-002
3.224396e+003, 1.207825e-002
3.226325e+003, 1.236742e-002
3.228253e+003, 1.234400e-002
3.230182e+003, 1.260013e-002
3.232110e+003, 1.283336e-002
3.234039e+003, 1.281187e-002
3.235967e+003, 1.306803e-002
3.237896e+003, 1.323766e-002
3.239824e+003, 1.315719e-002
3.241752e+003, 1.288256e-002
3.243681e+003, 1.303099e-002
3.245609e+003, 1.330572e-002
3.247538e+003, 1.367794e-002
3.249466e+003, 1.347360e-002
3.251395e+003, 1.347926e-002
3.253323e+003, 1.366407e-002
3.255252e+003, 1.387470e-002
3.257180e+003, 1.389563e-002
3.259109e+003, 1.372618e-002
3.261037e+003, 1.389376e-002
3.262966e+003, 1.403263e-002
3.264894e+003, 1.421722e-002
3.266823e+003, 1.422011e-002
3.268751e+003, 1.380287e-002
3.270679e+003, 1.371194e-002
3.272608e+003, 1.358794e-002
3.274536e+003, 1.345286e-002
3.276465e+003, 1.372367e-002
3.278393e+003, 1.368465e-002
3.280322e+003, 1.331938e-002
3.282250e+003, 1.304408e-002
3.284179e+003, 1.304599e-002
3.286107e+003, 1.309030e-002
3.288036e+003, 1.349468e-002
3.289964e+003, 1.340055e-002
3.291893e+003, 1.331863e-002
3.293821e+003, 1.362055e-002
3.295750e+003, 1.387985e-002
3.297678e+003, 1.415815e-002
3.299606e+003, 1.422015e-002
3.301535e+003, 1.418058e-002
3.303463e+003, 1.393073e-002
3.305392e+003, 1.373877e-002
3.307320e+003, 1.408799e-002
3.309249e+003, 1.465355e-002
3.311177e+003, 1.440149e-002
3.313106e+003, 1.444398e-002
3.315034e+003, 1.493027e-002
3.316963e+003, 1.539328e-002
3.318891e+003, 1.572788e-002
3.320820e+003, 1.592288e-002
3.322748e+003, 1.566394e-002
3.324677e+003, 1.588125e-002
3.326605e+003, 1.623781e-002
3.328533e+003, 1.645252e-002
3.330462e+003, 1.726775e-002
3.332390e+003, 1.755997e-002
3.334319e+003, 1.702404e-002
3.336247e+003, 1.710900e-002
3.338176e+003, 1.729759e-002
3.340104e+003, 1.714840e-002
3.342033e+003, 1.734416e-002
3.343961e+003, 1.760004e-002
3.345890e+003, 1.769824e-002
3.347818e+003, 1.845135e-002
3.349747e+003, 1.876433e-002
3.351675e+003, 1.874742e-002
3.353604e+003, 1.946799e-002
3.355532e+003, 2.006687e-002
3.357460e+003, 2.074926e-002
3.359389e+003, 2.156623e-002
3.361317e+003, 2.157518e-002
3.363246e+003, 2.138542e-002
3.365174e+003, 2.161840e-002
3.367103e+003, 2.235081e-002
3.369031e+003, 2.288279e-002
3.370960e+003, 2.345766e-002
3.372888e+003, 2.440354e-002
3.374817e+003, 2.466659e-002
3.376745e+003, 2.460383e-002
3.378674e+003, 2.498548e-002
3.380602e+003, 2.533800e-002
3.382531e+003, 2.578726e-002
3.384459e+003, 2.650051e-002
3.386387e+003, 2.735196e-002
3.388316e+003, 2.822670e-002
3.390244e+003, 2.911871e-002
3.392173e+003, 2.950877e-002
3.394101e+003, 2.946779e-002
3.396030e+003, 2.936282e-002
3.397958e+003, 2.957999e-002
3.399887e+003, 2.961800e-002
3.401815e+003, 2.966822e-002
3.403744e+003, 3.015304e-002
3.405672e+003, 3.026555e-002
3.407601e+003, 2.965184e-002
3.409529e+003, 2.908666e-002
3.411458e+003, 2.908451e-002
3.413386e+003, 2.887601e-002
3.415314e+003, 2.804086e-002
3.417243e+003, 2.746471e-002
3.419171e+003, 2.719204e-002
3.421100e+003, 2.656316e-002
3.423028e+003, 2.596085e-002
3.424957e+003, 2.529356e-002
3.426885e+003, 2.465365e-002
3.428814e+003, 2.436800e-002
3.430742e+003, 2.393814e-002
3.432671e+003, 2.367084e-002
3.434599e+003, 2.354211e-002
3.436528e+003, 2.337485e-002
3.438456e+003, 2.308093e-002
3.440385e+003, 2.325395e-002
3.442313e+003, 2.303075e-002
3.444241e+003, 2.283629e-002
3.446170e+003, 2.277972e-002
3.448098e+003, 2.296434e-002
3.450027e+003, 2.338034e-002
3.451955e+003, 2.355403e-002
3.453884e+003, 2.350624e-002
3.455812e+003, 2.418814e-002
3.457741e+003, 2.489706e-002
3.459669e+003, 2.544723e-002
3.461598e+003, 2.620067e-002
3.463526e+003, 2.708791e-002
3.465455e+003, 2.709815e-002
3.467383e+003, 2.727497e-002
3.469312e+003, 2.802384e-002
3.471240e+003, 2.814741e-002
3.473168e+003, 2.807790e-002
3.475097e+003, 2.866728e-002
3.477025e+003, 2.866918e-002
3.478954e+003, 2.800416e-002
3.480882e+003, 2.713214e-002
3.482811e+003, 2.611394e-002
3.484739e+003, 2.455881e-002
3.486668e+003, 2.363099e-002
3.488596e+003, 2.275304e-002
3.490525e+003, 2.149546e-002
3.492453e+003, 2.058047e-002
3.494382e+003, 1.974162e-002
3.496310e+003, 1.879699e-002
3.498239e+003, 1.803358e-002
3.500167e+003, 1.760592e-002
3.502095e+003, 1.709950e-002
3.504024e+003, 1.678427e-002
3.505952e+003, 1.661670e-002
3.507881e+003, 1.590062e-002
3.509809e+003, 1.574505e-002
3.511738e+003, 1.505631e-002
3.513666e+003, 1.476393e-002
3.515595e+003, 1.512134e-002
3.517523e+003, 1.496341e-002
3.519452e+003, 1.477515e-002
3.521380e+003, 1.441382e-002
3.523309e+003, 1.427790e-002
3.525237e+003, 1.420456e-002
3.527166e+003, 1.407854e-002
3.529094e+003, 1.418591e-002
3.531022e+003, 1.426129e-002
3.532951e+003, 1.390150e-002
3.534879e+003, 1.375872e-002
3.536808e+003, 1.427316e-002
3.538736e+003, 1.496544e-002
3.540665e+003, 1.568213e-002
3.542593e+003, 1.547340e-002
3.544522e+003, 1.487760e-002
3.546450e+003, 1.508428e-002
3.548379e+003, 1.605325e-002
3.550307e+003, 1.704253e-002
3.552236e+003, 1.759855e-002
3.554164e+003, 1.790386e-002
3.556093e+003, 1.899421e-002
3.558021e+003, 2.018850e-002
3.559949e+003, 2.213921e-002
3.561878e+003, 2.382251e-002
3.563806e+003, 2.555756e-002
3.565735e+003, 2.776663e-002
3.567663e+003, 2.997253e-002
3.569592e+003, 3.284104e-002
3.571520e+003, 3.567346e-002
3.573449e+003, 3.866990e-002
3.575377e+003, 4.313244e-002
3.577306e+003, 4.658218e-002
3.579234e+003, 4.754617e-002
3.581163e+003, 4.645408e-002
3.583091e+003, 4.347740e-002
3.585020e+003, 3.928754e-002
3.586948e+003, 3.436600e-002
3.588876e+003, 2.941553e-002
3.590805e+003, 2.620945e-002
3.592733e+003, 2.457979e-002
3.594662e+003, 2.269786e-002
3.596590e+003, 2.007150e-002
3.598519e+003, 1.858367e-002
3.600447e+003, 1.853504e-002
3.602376e+003, 1.719926e-002
3.604304e+003, 1.515243e-002
3.606233e+003, 1.428845e-002
3.608161e+003, 1.406840e-002
3.610090e+003, 1.340920e-002
3.612018e+003, 1.275668e-002
3.613947e+003, 1.224419e-002
3.615875e+003, 1.148101e-002
3.617803e+003, 1.142151e-002
3.619732e+003, 1.202786e-002
3.621660e+003, 1.148208e-002
3.623589e+003, 1.050147e-002
3.625517e+003, 1.011852e-002
3.627446e+003, 1.045533e-002
3.629374e+003, 1.026415e-002
3.631303e+003, 8.676035e-003
3.633231e+003, 8.061941e-003
3.635160e+003, 8.179129e-003
3.637088e+003, 7.797662e-003
3.639017e+003, 7.026704e-003
3.640945e+003, 6.570831e-003
3.642874e+003, 6.636211e-003
3.644802e+003, 6.213703e-003
3.646730e+003, 6.495129e-003
3.648659e+003, 7.170317e-003
3.650587e+003, 6.439984e-003
3.652516e+003, 4.921643e-003
3.654444e+003, 4.191955e-003
3.656373e+003, 4.287542e-003
3.658301e+003, 4.284651e-003
3.660230e+003, 3.718479e-003
3.662158e+003, 4.093090e-003
3.664087e+003, 4.200375e-003
3.666015e+003, 3.880572e-003
3.667944e+003, 3.908028e-003
3.669872e+003, 4.567070e-003
3.671801e+003, 4.145498e-003
3.673729e+003, 3.705682e-003
3.675657e+003, 4.126580e-003
3.677586e+003, 3.484532e-003
3.679514e+003, 2.409535e-003
3.681443e+003, 2.288837e-003
3.683371e+003, 2.883476e-003
3.685300e+003, 2.833072e-003
3.687228e+003, 3.700029e-003
3.689157e+003, 4.642269e-003
3.691085e+003, 3.760940e-003
3.693014e+003, 2.563312e-003
3.694942e+003, 2.246920e-003
3.696871e+003, 3.541188e-003
3.698799e+003, 3.927363e-003
3.700728e+003, 3.762706e-003
3.702656e+003, 2.982601e-003
3.704584e+003, 2.118371e-003
3.706513e+003, 1.311092e-003
3.708441e+003, 1.240046e-003
3.710370e+003, 1.607209e-003
3.712298e+003, 1.340471e-003
3.714227e+003, 1.115750e-003
3.716155e+003, 1.597506e-003
3.718084e+003, 1.820035e-003
3.720012e+003, 1.158936e-003
3.721941e+003, 1.231438e-003
3.723869e+003, 1.358128e-003
3.725798e+003, 1.344947e-003
3.727726e+003, 7.491497e-004
3.729655e+003, 1.318106e-004
3.731583e+003, 1.130481e-004
3.733511e+003, 7.383013e-004
3.735440e+003, 1.431593e-003
3.737368e+003, 1.211220e-003
3.739297e+003, 3.679241e-004
3.741225e+003, 1.393569e-004
3.743154e+003, 1.773138e-003
3.745082e+003, 1.987715e-003
3.747011e+003, 1.338239e-003
3.748939e+003, 1.962737e-003
3.750868e+003, 1.794145e-003
3.752796e+003, 1.384445e-003
3.754725e+003, 6.948654e-004
3.756653e+003, 6.578424e-004
3.758582e+003, 3.905808e-004
3.760510e+003, 5.934184e-004
3.762438e+003, 5.313588e-004
3.764367e+003, 6.470348e-004
3.766295e+003, 9.840745e-004
3.768224e+003, 8.236669e-004
3.770152e+003, 2.019023e-004
3.772081e+003, -3.395309e-004
3.774009e+003, -4.033586e-004
3.775938e+003, -4.132041e-004
3.777866e+003, 7.107708e-005
3.779795e+003, 2.094953e-004
3.781723e+003, 2.855399e-004
3.783652e+003, 8.170233e-004
3.785580e+003, 1.059789e-003
3.787509e+003, 6.099357e-004
3.789437e+003, -2.230819e-005
3.791365e+003, -2.201648e-004
3.793294e+003, -3.083843e-004
3.795222e+003, 1.573365e-004
3.797151e+003, 6.137092e-004
3.799079e+003, 6.661510e-004
3.801008e+003, 6.420328e-004
3.802936e+003, 2.646134e-004
3.804865e+003, 2.313318e-004
3.806793e+003, 2.504851e-004
3.808722e+003, -2.078706e-004
3.810650e+003, -5.590395e-004
3.812579e+003, -9.276983e-005
3.814507e+003, 1.205118e-003
3.816436e+003, 1.101838e-003
3.818364e+003, 2.133979e-004
3.820292e+003, 3.428828e-004
3.822221e+003, 5.242066e-004
3.824149e+003, 2.603381e-004
3.826078e+003, -6.712847e-005
3.828006e+003, -1.038250e-004
3.829935e+003, 5.262666e-004
3.831863e+003, 6.464315e-004
3.833792e+003, 8.766489e-004
3.835720e+003, 1.146693e-003
3.837649e+003, 5.953709e-004
3.839577e+003, 7.683849e-006
3.841506e+003, 7.175722e-004
3.843434e+003, 6.492692e-004
3.845363e+003, 6.017924e-004
3.847291e+003, 9.269301e-004
3.849219e+003, 7.460766e-004
3.851148e+003, 6.270990e-004
3.853076e+003, 1.510551e-003
3.855005e+003, 1.099432e-003
3.856933e+003, -1.895619e-004
3.858862e+003, 1.184754e-004
3.860790e+003, 4.876691e-004
3.862719e+003, -1.097182e-004
3.864647e+003, 3.354896e-004
3.866576e+003, 3.707779e-004
3.868504e+003, -3.369781e-004
3.870433e+003, -6.177798e-004
3.872361e+003, -2.400636e-004
3.874290e+003, 4.520476e-004
3.876218e+003, 5.443995e-004
3.878146e+003, 4.099668e-004
3.880075e+003, 5.475272e-004
3.882003e+003, 5.161493e-004
3.883932e+003, 4.306872e-004
3.885860e+003, 4.224149e-004
3.887789e+003, 2.620984e-004
3.889717e+003, 4.208002e-004
3.891646e+003, 7.543257e-004
3.893574e+003, 1.042095e-004
3.895503e+003, -4.585674e-004
3.897431e+003, 7.333858e-005
3.899360e+003, 4.274459e-004
3.901288e+003, 3.745332e-004
3.903217e+003, 3.627052e-004
3.905145e+003, 1.782167e-004
3.907073e+003, 1.853140e-004
3.909002e+003, -2.269788e-004
3.910930e+003, -6.023898e-004
3.912859e+003, -7.397939e-004
3.914787e+003, -3.853611e-004
3.916716e+003, 5.631759e-005
3.918644e+003, 1.229775e-004
3.920573e+003, -1.181757e-004
3.922501e+003, -3.218592e-004
3.924430e+003, -5.431263e-004
3.926358e+003, -6.392308e-004
3.928287e+003, 1.730902e-004
3.930215e+003, 2.407924e-004
3.932144e+003, 1.056689e-004
3.934072e+003, -4.820515e-005
3.936000e+003, -5.567509e-004
3.937929e+003, -6.060439e-004
3.939857e+003, -6.398653e-004
3.941786e+003, -3.794069e-004
3.943714e+003, 3.201701e-004
3.945643e+003, 3.675464e-004
3.947571e+003, -2.267591e-004
3.949500e+003, -1.967598e-004
3.951428e+003, 2.004173e-004
3.953357e+003, 6.651453e-004
3.955285e+003, 6.311476e-004
3.957214e+003, 2.372265e-004
3.959142e+003, -1.832316e-005
3.961071e+003, 1.529558e-005
3.962999e+003, -6.136418e-005
3.964927e+003, -1.040600e-004
3.966856e+003, -1.984255e-005
3.968784e+003, -6.804923e-004
3.970713e+003, -7.635250e-004
3.972641e+003, -5.124113e-004
3.974570e+003, -4.595711e-004
3.976498e+003, 8.662730e-004
3.978427e+003, 4.091305e-004
3.980355e+003, -5.601081e-004
3.982284e+003, -1.368705e-004
3.984212e+003, -3.274959e-005
3.986141e+003, 1.546939e-004
3.988069e+003, 4.758350e-004
3.989998e+003, 1.541067e-004
3.991926e+003, -2.488015e-004
3.993854e+003, -2.564401e-004
3.995783e+003, 4.227546e-005
3.997711e+003, 5.681551e-004
3.999640e+003, 4.455775e-004
##END=



