##NAMES=Cylindrite
##RRUFFID=R050329
##IDEAL CHEMISTRY=FePb_3_Sn_4_Sb_2_S_14_
##LOCALITY=Poop√≥ Province, Oruro Department, Bolivia
##OWNER=RRUFF
##SOURCE=Lloyd Twaites
##DESCRIPTION=Aggregate of silvery white metallic cylindrical tubes
##STATUS=The identification of this mineral has been confirmed only by chemical analysis
##URL=rruff.info/R050329
##MEASURED CHEMISTRY=Pb_2.76_Sn_4.60_Fe_0.84_Sb_1.80_S_14_
399.1926, 0.1057715
401.1211, 0.1068188
403.0496, 0.1073323
404.9780, 0.1120130
406.9065, 0.1186161
408.8350, 0.1257305
410.7634, 0.1293792
412.6919, 0.1305451
414.6204, 0.1358525
416.5488, 0.1405150
418.4773, 0.1451619
420.4058, 0.1499675
422.3342, 0.1523464
424.2627, 0.1535171
426.1912, 0.1594845
428.1196, 0.1659216
430.0481, 0.1688657
431.9766, 0.1713433
433.9050, 0.1765313
435.8335, 0.1795499
437.7620, 0.1816873
439.6904, 0.1862446
441.6189, 0.1912316
443.5474, 0.1927712
445.4758, 0.1952541
447.4043, 0.1998739
449.3328, 0.2044113
451.2612, 0.2059669
453.1897, 0.2078256
455.1182, 0.2111170
457.0466, 0.2156201
458.9751, 0.2176218
460.9036, 0.2170846
462.8320, 0.2182972
464.7605, 0.2220080
466.6890, 0.2243761
468.6174, 0.2237994
470.5459, 0.2247151
472.4744, 0.2272282
474.4028, 0.2290556
476.3313, 0.2297096
478.2598, 0.2282322
480.1882, 0.2291224
482.1167, 0.2322254
484.0452, 0.2353355
485.9736, 0.2353421
487.9021, 0.2362461
489.8306, 0.2388845
491.7590, 0.2415255
493.6875, 0.2445024
495.6160, 0.2458512
497.5444, 0.2460131
499.4729, 0.2468417
501.4014, 0.2480345
503.3298, 0.2498618
505.2583, 0.2511827
507.1868, 0.2533008
509.1152, 0.2561136
511.0437, 0.2572497
512.9722, 0.2587372
514.9006, 0.2606236
516.8291, 0.2612153
518.7576, 0.2619446
520.6860, 0.2639506
522.6145, 0.2653846
524.5430, 0.2663698
526.4714, 0.2672881
528.3999, 0.2682576
530.3284, 0.2698905
532.2568, 0.2705820
534.1853, 0.2711710
536.1138, 0.2741886
538.0422, 0.2769393
539.9707, 0.2767759
541.8992, 0.2778171
543.8276, 0.2787872
545.7561, 0.2798555
547.6846, 0.2812866
549.6130, 0.2830481
551.5415, 0.2856002
553.4700, 0.2877588
555.3984, 0.2881931
557.3269, 0.2894347
559.2554, 0.2913709
561.1838, 0.2906229
563.1123, 0.2912986
565.0408, 0.2938134
566.9692, 0.2961147
568.8977, 0.2973708
570.8262, 0.2984912
572.7546, 0.3000441
574.6831, 0.3020728
576.6116, 0.3037259
578.5400, 0.3041748
580.4685, 0.3048970
582.3970, 0.3067569
584.3254, 0.3085324
586.2539, 0.3097912
588.1824, 0.3117481
590.1108, 0.3134657
592.0393, 0.3148956
593.9678, 0.3167273
595.8962, 0.3175858
597.8247, 0.3173065
599.7532, 0.3171060
601.6816, 0.3168109
603.6101, 0.3162284
605.5386, 0.3162308
607.4670, 0.3165905
609.3955, 0.3172924
611.3240, 0.3180915
613.2524, 0.3194340
615.1809, 0.3204435
617.1094, 0.3212693
619.0378, 0.3213763
620.9663, 0.3219727
622.8948, 0.3233299
624.8232, 0.3246832
626.7517, 0.3251418
628.6802, 0.3246728
630.6086, 0.3250129
632.5371, 0.3253265
634.4656, 0.3248804
636.3940, 0.3247694
638.3225, 0.3256646
640.2510, 0.3261367
642.1794, 0.3259380
644.1079, 0.3261347
646.0364, 0.3266363
647.9648, 0.3277069
649.8933, 0.3283505
651.8218, 0.3286728
653.7502, 0.3290334
655.6787, 0.3303802
657.6072, 0.3310162
659.5356, 0.3311527
661.4641, 0.3319454
663.3926, 0.3327889
665.3210, 0.3339139
667.2495, 0.3336228
669.1780, 0.3337292
671.1064, 0.3352106
673.0349, 0.3366499
674.9634, 0.3372942
676.8918, 0.3383897
678.8203, 0.3397154
680.7488, 0.3401445
682.6772, 0.3409383
684.6057, 0.3421905
686.5342, 0.3437181
688.4626, 0.3451494
690.3911, 0.3462276
692.3196, 0.3474537
694.2480, 0.3484234
696.1765, 0.3486719
698.1050, 0.3485876
700.0334, 0.3491454
701.9619, 0.3498964
703.8904, 0.3510441
705.8188, 0.3523486
707.7473, 0.3534712
709.6758, 0.3536307
711.6042, 0.3541030
713.5327, 0.3553273
715.4612, 0.3568754
717.3896, 0.3586623
719.3181, 0.3593263
721.2466, 0.3593870
723.1750, 0.3603936
725.1035, 0.3616356
727.0320, 0.3631450
728.9604, 0.3644436
730.8889, 0.3660527
732.8174, 0.3667848
734.7458, 0.3667741
736.6743, 0.3676675
738.6028, 0.3694873
740.5313, 0.3712537
742.4597, 0.3718328
744.3882, 0.3727023
746.3167, 0.3747426
748.2451, 0.3760191
750.1736, 0.3772738
752.1021, 0.3788703
754.0305, 0.3806185
755.9590, 0.3818779
757.8875, 0.3836613
759.8159, 0.3850415
761.7444, 0.3862285
763.6729, 0.3872381
765.6013, 0.3883523
767.5298, 0.3894149
769.4583, 0.3904564
771.3867, 0.3912685
773.3152, 0.3927404
775.2437, 0.3944478
777.1721, 0.3958258
779.1006, 0.3958804
781.0291, 0.3958549
782.9575, 0.3968978
784.8860, 0.3974972
786.8145, 0.3985375
788.7429, 0.4004700
790.6714, 0.4024212
792.5999, 0.4035877
794.5283, 0.4048381
796.4568, 0.4054394
798.3853, 0.4061379
800.3137, 0.4067988
802.2422, 0.4065536
804.1707, 0.4063283
806.0991, 0.4066339
808.0276, 0.4074799
809.9561, 0.4086343
811.8845, 0.4097590
813.8130, 0.4114254
815.7415, 0.4131477
817.6699, 0.4145235
819.5984, 0.4155517
821.5269, 0.4167555
823.4553, 0.4186101
825.3838, 0.4203865
827.3123, 0.4214736
829.2407, 0.4230816
831.1692, 0.4254085
833.0977, 0.4274413
835.0261, 0.4286208
836.9546, 0.4302599
838.8831, 0.4325086
840.8115, 0.4338859
842.7400, 0.4357816
844.6685, 0.4381286
846.5969, 0.4403147
848.5254, 0.4417996
850.4539, 0.4431771
852.3823, 0.4446670
854.3108, 0.4462397
856.2393, 0.4480477
858.1677, 0.4497242
860.0962, 0.4511215
862.0247, 0.4528847
863.9531, 0.4543673
865.8816, 0.4551443
867.8101, 0.4569044
869.7385, 0.4593480
871.6670, 0.4604438
873.5955, 0.4607938
875.5239, 0.4619687
877.4524, 0.4633405
879.3809, 0.4652532
881.3093, 0.4674014
883.2378, 0.4687401
885.1663, 0.4696302
887.0947, 0.4711018
889.0232, 0.4726965
890.9517, 0.4743439
892.8801, 0.4760115
894.8085, 0.4768386
896.7370, 0.4778801
898.6655, 0.4793858
900.5939, 0.4803818
902.5224, 0.4808786
904.4509, 0.4823530
906.3793, 0.4845774
908.3078, 0.4857891
910.2363, 0.4866093
912.1647, 0.4878107
914.0932, 0.4894952
916.0217, 0.4912815
917.9501, 0.4921105
919.8786, 0.4928071
921.8071, 0.4944171
923.7355, 0.4962239
925.6640, 0.4977222
927.5925, 0.4991771
929.5209, 0.5011121
931.4494, 0.5027815
933.3779, 0.5038160
935.3063, 0.5050619
937.2348, 0.5070736
939.1633, 0.5078494
941.0917, 0.5083058
943.0202, 0.5089829
944.9487, 0.5102487
946.8771, 0.5114983
948.8056, 0.5127141
950.7341, 0.5143871
952.6625, 0.5156654
954.5910, 0.5164634
956.5195, 0.5174012
958.4479, 0.5184332
960.3764, 0.5197714
962.3049, 0.5208840
964.2333, 0.5216322
966.1618, 0.5223089
968.0903, 0.5230999
970.0187, 0.5233002
971.9472, 0.5233905
973.8757, 0.5244648
975.8041, 0.5259729
977.7326, 0.5273492
979.6611, 0.5283161
981.5895, 0.5289773
983.5180, 0.5304691
985.4465, 0.5316803
987.3749, 0.5327126
989.3034, 0.5340933
991.2319, 0.5356193
993.1603, 0.5369053
995.0888, 0.5379567
997.0173, 0.5393296
998.9457, 0.5406005
1000.874, 0.5424422
1002.803, 0.5443397
1004.731, 0.5454121
1006.660, 0.5467857
1008.588, 0.5480892
1010.517, 0.5494168
1012.445, 0.5508143
1014.373, 0.5518852
1016.302, 0.5531563
1018.230, 0.5543051
1020.159, 0.5549434
1022.087, 0.5557880
1024.016, 0.5574915
1025.944, 0.5590257
1027.873, 0.5600889
1029.801, 0.5611721
1031.730, 0.5619064
1033.658, 0.5627865
1035.587, 0.5636876
1037.515, 0.5643523
1039.444, 0.5651584
1041.372, 0.5654991
1043.301, 0.5659180
1045.229, 0.5665229
1047.157, 0.5670471
1049.086, 0.5673876
1051.014, 0.5679329
1052.943, 0.5690177
1054.871, 0.5695983
1056.800, 0.5694962
1058.728, 0.5702995
1060.657, 0.5715832
1062.585, 0.5713984
1064.514, 0.5713861
1066.442, 0.5728204
1068.371, 0.5735870
1070.299, 0.5732973
1072.228, 0.5734947
1074.156, 0.5740964
1076.084, 0.5740104
1078.013, 0.5733374
1079.941, 0.5732267
1081.870, 0.5734525
1083.798, 0.5733434
1085.727, 0.5737165
1087.655, 0.5738704
1089.584, 0.5741113
1091.512, 0.5745356
1093.441, 0.5740039
1095.369, 0.5738847
1097.298, 0.5747040
1099.226, 0.5747439
1101.155, 0.5748459
1103.083, 0.5748953
1105.011, 0.5746754
1106.940, 0.5745658
1108.868, 0.5750955
1110.797, 0.5757794
1112.725, 0.5762132
1114.654, 0.5766064
1116.582, 0.5769054
1118.511, 0.5769026
1120.439, 0.5773062
1122.368, 0.5783686
1124.296, 0.5790735
1126.225, 0.5793306
1128.153, 0.5797914
1130.082, 0.5814297
1132.010, 0.5827274
1133.938, 0.5833614
1135.867, 0.5844966
1137.795, 0.5865012
1139.724, 0.5876402
1141.652, 0.5880792
1143.581, 0.5890714
1145.509, 0.5897586
1147.438, 0.5906008
1149.366, 0.5918381
1151.295, 0.5925513
1153.223, 0.5927719
1155.152, 0.5934817
1157.080, 0.5945162
1159.009, 0.5948046
1160.937, 0.5949081
1162.865, 0.5947378
1164.794, 0.5943298
1166.722, 0.5937984
1168.651, 0.5935642
1170.579, 0.5940188
1172.508, 0.5939051
1174.436, 0.5931987
1176.365, 0.5928143
1178.293, 0.5931361
1180.222, 0.5933421
1182.150, 0.5934282
1184.079, 0.5930837
1186.007, 0.5938302
1187.936, 0.5951055
1189.864, 0.5958017
1191.792, 0.5963705
1193.721, 0.5971334
1195.649, 0.5979915
1197.578, 0.5987423
1199.506, 0.5991852
1201.435, 0.6000528
1203.363, 0.6011186
1205.292, 0.6024910
1207.220, 0.6030195
1209.149, 0.6033846
1211.077, 0.6040586
1213.006, 0.6043088
1214.934, 0.6055339
1216.863, 0.6070667
1218.791, 0.6078056
1220.719, 0.6084198
1222.648, 0.6090965
1224.576, 0.6100075
1226.505, 0.6116176
1228.433, 0.6133397
1230.362, 0.6138883
1232.290, 0.6140876
1234.219, 0.6146137
1236.147, 0.6151420
1238.076, 0.6162611
1240.004, 0.6172932
1241.933, 0.6178545
1243.861, 0.6194809
1245.790, 0.6203986
1247.718, 0.6211116
1249.646, 0.6222115
1251.575, 0.6229329
1253.503, 0.6240669
1255.432, 0.6250199
1257.360, 0.6264319
1259.289, 0.6276866
1261.217, 0.6289994
1263.146, 0.6300944
1265.074, 0.6307122
1267.003, 0.6312905
1268.931, 0.6321052
1270.860, 0.6331595
1272.788, 0.6334054
1274.717, 0.6336238
1276.645, 0.6346267
1278.573, 0.6356810
1280.502, 0.6365214
1282.430, 0.6376540
1284.359, 0.6386090
1286.287, 0.6392772
1288.216, 0.6401274
1290.144, 0.6409022
1292.073, 0.6415094
1294.001, 0.6427186
1295.930, 0.6442537
1297.858, 0.6455687
1299.787, 0.6471018
1301.715, 0.6487218
1303.644, 0.6494101
1305.572, 0.6498617
1307.500, 0.6509041
1309.429, 0.6517450
1311.357, 0.6530766
1313.286, 0.6537604
1315.214, 0.6547064
1317.143, 0.6562223
1319.071, 0.6567998
1321.000, 0.6574005
1322.928, 0.6579236
1324.857, 0.6582662
1326.785, 0.6592177
1328.714, 0.6599774
1330.642, 0.6606264
1332.571, 0.6618490
1334.499, 0.6626574
1336.427, 0.6628936
1338.356, 0.6631688
1340.284, 0.6636153
1342.213, 0.6647425
1344.141, 0.6663923
1346.070, 0.6671625
1347.998, 0.6674483
1349.927, 0.6689254
1351.855, 0.6704823
1353.784, 0.6715588
1355.712, 0.6727988
1357.641, 0.6741053
1359.569, 0.6749037
1361.498, 0.6753708
1363.426, 0.6759669
1365.354, 0.6766063
1367.283, 0.6770639
1369.211, 0.6773676
1371.140, 0.6775321
1373.068, 0.6780770
1374.997, 0.6782476
1376.925, 0.6781347
1378.854, 0.6779581
1380.782, 0.6786368
1382.711, 0.6796759
1384.639, 0.6799783
1386.568, 0.6801441
1388.496, 0.6803098
1390.424, 0.6808549
1392.353, 0.6813082
1394.281, 0.6818823
1396.210, 0.6827483
1398.138, 0.6838481
1400.067, 0.6850448
1401.995, 0.6853934
1403.924, 0.6858742
1405.852, 0.6866643
1407.781, 0.6876885
1409.709, 0.6887757
1411.638, 0.6894847
1413.566, 0.6904060
1415.495, 0.6914712
1417.423, 0.6918618
1419.351, 0.6923981
1421.280, 0.6933410
1423.208, 0.6945803
1425.137, 0.6954810
1427.065, 0.6962789
1428.994, 0.6971063
1430.922, 0.6972893
1432.851, 0.6982146
1434.779, 0.6997829
1436.708, 0.7007089
1438.636, 0.7010365
1440.565, 0.7017224
1442.493, 0.7027007
1444.422, 0.7034170
1446.350, 0.7045085
1448.278, 0.7059777
1450.207, 0.7064217
1452.135, 0.7071031
1454.064, 0.7087266
1455.992, 0.7094121
1457.921, 0.7093492
1459.849, 0.7097173
1461.778, 0.7103643
1463.706, 0.7110708
1465.635, 0.7110326
1467.563, 0.7106308
1469.492, 0.7109217
1471.420, 0.7116321
1473.349, 0.7125935
1475.277, 0.7135758
1477.205, 0.7146342
1479.134, 0.7159220
1481.062, 0.7169591
1482.991, 0.7181785
1484.919, 0.7189702
1486.848, 0.7201032
1488.776, 0.7211172
1490.705, 0.7219837
1492.633, 0.7234476
1494.562, 0.7250138
1496.490, 0.7254873
1498.419, 0.7261038
1500.347, 0.7270247
1502.276, 0.7283151
1504.204, 0.7301155
1506.132, 0.7317997
1508.061, 0.7330564
1509.989, 0.7341804
1511.918, 0.7346421
1513.846, 0.7348253
1515.775, 0.7360787
1517.703, 0.7373887
1519.632, 0.7379911
1521.560, 0.7397984
1523.489, 0.7412059
1525.417, 0.7422135
1527.346, 0.7433600
1529.274, 0.7442799
1531.203, 0.7453090
1533.131, 0.7462217
1535.059, 0.7469555
1536.988, 0.7475126
1538.916, 0.7491388
1540.845, 0.7504451
1542.773, 0.7514545
1544.702, 0.7526029
1546.630, 0.7535821
1548.559, 0.7546365
1550.487, 0.7555376
1552.416, 0.7563535
1554.344, 0.7569670
1556.273, 0.7589625
1558.201, 0.7602957
1560.130, 0.7603792
1562.058, 0.7611958
1563.986, 0.7625313
1565.915, 0.7634665
1567.843, 0.7640373
1569.772, 0.7655663
1571.700, 0.7669029
1573.629, 0.7678268
1575.557, 0.7687483
1577.486, 0.7692727
1579.414, 0.7695286
1581.343, 0.7702614
1583.271, 0.7718089
1585.200, 0.7728958
1587.128, 0.7735958
1589.057, 0.7740775
1590.985, 0.7745557
1592.913, 0.7755297
1594.842, 0.7771404
1596.770, 0.7779691
1598.699, 0.7781000
1600.627, 0.7787260
1602.556, 0.7795017
1604.484, 0.7798354
1606.413, 0.7801647
1608.341, 0.7810432
1610.270, 0.7821476
1612.198, 0.7827755
1614.127, 0.7824639
1616.055, 0.7823209
1617.984, 0.7829721
1619.912, 0.7835837
1621.840, 0.7839251
1623.769, 0.7845954
1625.697, 0.7851648
1627.626, 0.7860926
1629.554, 0.7868163
1631.483, 0.7872695
1633.411, 0.7878491
1635.340, 0.7886702
1637.268, 0.7889811
1639.197, 0.7890925
1641.125, 0.7899279
1643.054, 0.7915147
1644.982, 0.7926450
1646.911, 0.7919607
1648.839, 0.7919152
1650.767, 0.7927083
1652.696, 0.7935383
1654.624, 0.7938607
1656.553, 0.7942038
1658.481, 0.7947021
1660.410, 0.7956159
1662.338, 0.7965972
1664.267, 0.7973012
1666.195, 0.7983592
1668.124, 0.7993305
1670.052, 0.8000752
1671.981, 0.8012686
1673.909, 0.8021302
1675.838, 0.8024837
1677.766, 0.8030689
1679.694, 0.8036776
1681.623, 0.8033196
1683.551, 0.8037112
1685.480, 0.8040569
1687.408, 0.8050743
1689.337, 0.8065501
1691.265, 0.8060365
1693.194, 0.8065732
1695.122, 0.8075086
1697.051, 0.8085536
1698.979, 0.8103507
1700.908, 0.8108363
1702.836, 0.8115072
1704.765, 0.8127200
1706.693, 0.8125182
1708.621, 0.8115808
1710.550, 0.8120384
1712.478, 0.8137774
1714.407, 0.8155719
1716.335, 0.8170655
1718.264, 0.8173667
1720.192, 0.8175126
1722.121, 0.8184087
1724.049, 0.8199399
1725.978, 0.8205863
1727.906, 0.8214095
1729.835, 0.8223531
1731.763, 0.8227369
1733.692, 0.8229535
1735.620, 0.8222249
1737.548, 0.8223364
1739.477, 0.8227311
1741.405, 0.8220953
1743.334, 0.8222334
1745.262, 0.8232617
1747.191, 0.8236078
1749.119, 0.8236253
1751.048, 0.8237758
1752.976, 0.8241285
1754.905, 0.8257782
1756.833, 0.8272791
1758.762, 0.8288822
1760.690, 0.8298768
1762.619, 0.8299943
1764.547, 0.8300288
1766.475, 0.8310010
1768.404, 0.8323122
1770.332, 0.8337204
1772.261, 0.8353218
1774.189, 0.8366078
1776.118, 0.8365213
1778.046, 0.8365622
1779.975, 0.8371267
1781.903, 0.8382086
1783.832, 0.8395880
1785.760, 0.8402641
1787.689, 0.8406610
1789.617, 0.8405089
1791.546, 0.8409930
1793.474, 0.8422968
1795.402, 0.8435854
1797.331, 0.8443936
1799.259, 0.8446712
1801.188, 0.8452245
1803.116, 0.8452364
1805.045, 0.8452435
1806.973, 0.8469480
1808.902, 0.8480435
1810.830, 0.8474790
1812.759, 0.8481359
1814.687, 0.8494553
1816.616, 0.8492482
1818.544, 0.8500085
1820.473, 0.8510637
1822.401, 0.8513601
1824.329, 0.8517236
1826.258, 0.8524324
1828.186, 0.8533162
1830.115, 0.8536870
1832.043, 0.8539670
1833.972, 0.8559659
1835.900, 0.8581060
1837.829, 0.8581721
1839.757, 0.8575333
1841.686, 0.8589144
1843.614, 0.8609307
1845.543, 0.8607638
1847.471, 0.8618346
1849.400, 0.8626230
1851.328, 0.8609859
1853.256, 0.8603390
1855.185, 0.8606651
1857.113, 0.8612026
1859.042, 0.8642492
1860.970, 0.8650382
1862.899, 0.8631098
1864.827, 0.8639053
1866.756, 0.8663813
1868.684, 0.8674070
1870.613, 0.8676971
1872.541, 0.8681454
1874.470, 0.8690368
1876.398, 0.8688579
1878.327, 0.8689245
1880.255, 0.8704751
1882.183, 0.8722919
1884.112, 0.8739824
1886.040, 0.8730955
1887.969, 0.8715214
1889.897, 0.8721530
1891.826, 0.8730090
1893.754, 0.8727233
1895.683, 0.8724710
1897.611, 0.8728639
1899.540, 0.8745620
1901.468, 0.8768294
1903.397, 0.8752818
1905.325, 0.8738189
1907.254, 0.8750252
1909.182, 0.8769195
1911.110, 0.8771116
1913.039, 0.8775234
1914.967, 0.8779706
1916.896, 0.8792413
1918.824, 0.8792814
1920.753, 0.8767855
1922.681, 0.8768666
1924.610, 0.8773748
1926.538, 0.8771150
1928.467, 0.8782737
1930.395, 0.8782695
1932.324, 0.8759217
1934.252, 0.8755316
1936.181, 0.8789314
1938.109, 0.8838420
1940.037, 0.8848917
1941.966, 0.8815919
1943.894, 0.8744385
1945.823, 0.8745073
1947.751, 0.8776005
1949.680, 0.8777282
1951.608, 0.8760871
1953.537, 0.8738471
1955.465, 0.8736013
1957.394, 0.8742188
1959.322, 0.8703428
1961.251, 0.8674733
1963.179, 0.8650255
1965.108, 0.8655815
1967.036, 0.8678012
1968.964, 0.8709685
1970.893, 0.8723825
1972.821, 0.8653603
1974.750, 0.8621799
1976.678, 0.8627027
1978.607, 0.8646038
1980.535, 0.8691048
1982.464, 0.8756440
1984.392, 0.8802346
1986.321, 0.8820449
1988.249, 0.8810647
1990.178, 0.8802105
1992.106, 0.8808031
1994.035, 0.8805817
1995.963, 0.8798191
1997.891, 0.8800219
1999.820, 0.8805081
2001.748, 0.8761904
2003.677, 0.8744034
2005.605, 0.8781103
2007.534, 0.8753122
2009.462, 0.8688738
2011.391, 0.8680111
2013.319, 0.8748402
2015.248, 0.8836560
2017.176, 0.8824347
2019.105, 0.8789639
2021.033, 0.8765202
2022.962, 0.8769499
2024.890, 0.8784025
2026.818, 0.8815762
2028.747, 0.8808026
2030.675, 0.8782074
2032.604, 0.8804069
2034.532, 0.8828033
2036.461, 0.8859315
2038.389, 0.8891374
2040.318, 0.8901724
2042.246, 0.8906110
2044.175, 0.8969415
2046.103, 0.9049143
2048.032, 0.9077694
2049.960, 0.9115604
2051.889, 0.9121247
2053.817, 0.9114102
2055.746, 0.9146575
2057.674, 0.9183134
2059.603, 0.9215095
2061.531, 0.9226112
2063.459, 0.9243897
2065.388, 0.9272202
2067.316, 0.9271553
2069.245, 0.9272198
2071.173, 0.9268123
2073.102, 0.9273115
2075.030, 0.9305478
2076.959, 0.9340625
2078.887, 0.9358414
2080.816, 0.9376860
2082.744, 0.9380178
2084.673, 0.9390776
2086.601, 0.9416872
2088.530, 0.9428161
2090.458, 0.9425600
2092.386, 0.9406245
2094.315, 0.9430471
2096.243, 0.9442829
2098.172, 0.9404671
2100.100, 0.9410326
2102.029, 0.9464260
2103.957, 0.9477880
2105.886, 0.9468800
2107.814, 0.9469067
2109.743, 0.9490817
2111.671, 0.9517826
2113.600, 0.9529394
2115.528, 0.9511286
2117.457, 0.9514137
2119.385, 0.9524805
2121.313, 0.9553172
2123.242, 0.9567562
2125.170, 0.9568701
2127.099, 0.9550387
2129.027, 0.9542962
2130.956, 0.9550155
2132.884, 0.9529073
2134.813, 0.9462078
2136.741, 0.9415755
2138.670, 0.9390345
2140.598, 0.9381016
2142.527, 0.9376933
2144.455, 0.9357712
2146.384, 0.9331487
2148.312, 0.9326673
2150.240, 0.9335966
2152.169, 0.9329821
2154.097, 0.9274436
2156.026, 0.9203246
2157.954, 0.9174964
2159.883, 0.9202855
2161.811, 0.9262429
2163.740, 0.9328498
2165.668, 0.9390242
2167.597, 0.9454246
2169.525, 0.9411800
2171.454, 0.9374962
2173.382, 0.9473683
2175.311, 0.9513369
2177.239, 0.9465445
2179.167, 0.9496291
2181.096, 0.9533203
2183.024, 0.9486529
2184.953, 0.9500427
2186.881, 0.9544052
2188.810, 0.9543660
2190.738, 0.9553733
2192.667, 0.9609777
2194.595, 0.9608023
2196.524, 0.9596614
2198.452, 0.9633040
2200.381, 0.9680108
2202.309, 0.9646583
2204.238, 0.9688554
2206.166, 0.9735899
2208.094, 0.9737813
2210.023, 0.9733559
2211.951, 0.9730997
2213.880, 0.9740897
2215.808, 0.9744875
2217.737, 0.9728265
2219.665, 0.9733167
2221.594, 0.9762297
2223.522, 0.9817649
2225.451, 0.9855773
2227.379, 0.9863295
2229.308, 0.9882828
2231.236, 0.9899771
2233.165, 0.9919726
2235.093, 0.9900952
2237.021, 0.9873566
2238.950, 0.9903566
2240.878, 0.9947259
2242.807, 0.9951810
2244.735, 0.9952853
2246.664, 0.9971467
2248.592, 0.9980204
2250.521, 1.000885
2252.449, 1.002505
2254.378, 1.001975
2256.306, 1.002262
2258.235, 1.005824
2260.163, 1.007384
2262.092, 1.007558
2264.020, 1.010826
2265.948, 1.014506
2267.877, 1.014301
2269.805, 1.015491
2271.734, 1.020173
2273.662, 1.020478
2275.591, 1.018764
2277.519, 1.019246
2279.448, 1.022574
2281.376, 1.027140
2283.305, 1.028898
2285.233, 1.030899
2287.162, 1.031579
2289.090, 1.031747
2291.019, 1.033379
2292.947, 1.033285
2294.875, 1.033816
2296.804, 1.036262
2298.732, 1.037317
2300.661, 1.037645
2302.589, 1.038256
2304.518, 1.039598
2306.446, 1.041170
2308.375, 1.042887
2310.303, 1.045055
2312.232, 1.047504
2314.160, 1.047646
2316.089, 1.046628
2318.017, 1.049548
2319.946, 1.052441
2321.874, 1.054746
2323.802, 1.056289
2325.731, 1.055612
2327.659, 1.055951
2329.588, 1.057486
2331.516, 1.057809
2333.445, 1.057526
2335.373, 1.059196
2337.302, 1.059637
2339.230, 1.059876
2341.159, 1.061460
2343.087, 1.061810
2345.016, 1.060941
2346.944, 1.062312
2348.873, 1.063511
2350.801, 1.063061
2352.729, 1.063787
2354.658, 1.064498
2356.586, 1.065759
2358.515, 1.067515
2360.443, 1.069246
2362.372, 1.069249
2364.300, 1.067970
2366.229, 1.068653
2368.157, 1.070363
2370.086, 1.072100
2372.014, 1.072548
2373.942, 1.070074
2375.871, 1.069313
2377.799, 1.071681
2379.728, 1.073046
2381.656, 1.072827
2383.585, 1.072295
2385.513, 1.072574
2387.442, 1.072116
2389.370, 1.070788
2391.299, 1.071963
2393.227, 1.074065
2395.156, 1.076004
2397.084, 1.077903
2399.012, 1.079081
2400.941, 1.079013
2402.869, 1.077709
2404.798, 1.076524
2406.726, 1.077000
2408.655, 1.078020
2410.583, 1.077520
2412.512, 1.080362
2414.440, 1.082495
2416.369, 1.083254
2418.297, 1.084655
2420.226, 1.083809
2422.154, 1.083083
2424.083, 1.082920
2426.011, 1.082138
2427.939, 1.083591
2429.868, 1.087299
2431.796, 1.087012
2433.725, 1.085877
2435.653, 1.087222
2437.582, 1.089582
2439.510, 1.089426
2441.439, 1.089099
2443.367, 1.090099
2445.296, 1.091322
2447.224, 1.093288
2449.153, 1.093861
2451.081, 1.094870
2453.010, 1.096209
2454.938, 1.095455
2456.866, 1.095039
2458.795, 1.095952
2460.723, 1.097625
2462.652, 1.099785
2464.580, 1.099498
2466.509, 1.096885
2468.437, 1.099202
2470.366, 1.099827
2472.294, 1.099064
2474.223, 1.099199
2476.151, 1.099037
2478.080, 1.100179
2480.008, 1.103016
2481.937, 1.104495
2483.865, 1.105324
2485.793, 1.105629
2487.722, 1.105381
2489.650, 1.106238
2491.579, 1.107809
2493.507, 1.108596
2495.436, 1.108525
2497.364, 1.110304
2499.293, 1.109229
2501.221, 1.109162
2503.150, 1.111676
2505.078, 1.115689
2507.007, 1.116209
2508.935, 1.116173
2510.864, 1.117624
2512.792, 1.116794
2514.720, 1.113280
2516.649, 1.113303
2518.577, 1.113524
2520.506, 1.114355
2522.434, 1.115608
2524.363, 1.118084
2526.291, 1.118629
2528.220, 1.117985
2530.148, 1.117899
2532.077, 1.121093
2534.005, 1.124493
2535.934, 1.124178
2537.862, 1.123520
2539.791, 1.123544
2541.719, 1.125892
2543.647, 1.128248
2545.576, 1.128049
2547.504, 1.128103
2549.433, 1.128594
2551.361, 1.129469
2553.290, 1.131805
2555.218, 1.133039
2557.147, 1.130858
2559.075, 1.131982
2561.004, 1.131858
2562.932, 1.131536
2564.861, 1.134441
2566.789, 1.133341
2568.718, 1.133022
2570.646, 1.135874
2572.574, 1.137677
2574.503, 1.138854
2576.431, 1.138349
2578.360, 1.138332
2580.288, 1.142606
2582.217, 1.145063
2584.145, 1.142541
2586.074, 1.142891
2588.002, 1.144740
2589.931, 1.145799
2591.859, 1.147074
2593.788, 1.147543
2595.716, 1.149456
2597.645, 1.150414
2599.573, 1.149468
2601.501, 1.148284
2603.430, 1.150405
2605.358, 1.152335
2607.287, 1.155063
2609.215, 1.157611
2611.144, 1.157315
2613.072, 1.156160
2615.001, 1.156678
2616.929, 1.160584
2618.858, 1.161327
2620.786, 1.159982
2622.715, 1.159356
2624.643, 1.161291
2626.572, 1.163764
2628.500, 1.164591
2630.428, 1.166203
2632.357, 1.167067
2634.285, 1.168282
2636.214, 1.167912
2638.142, 1.166494
2640.071, 1.168850
2641.999, 1.171863
2643.928, 1.173535
2645.856, 1.174812
2647.785, 1.174657
2649.713, 1.175107
2651.642, 1.176693
2653.570, 1.178507
2655.499, 1.179630
2657.427, 1.179843
2659.355, 1.180932
2661.284, 1.181857
2663.212, 1.181972
2665.141, 1.183554
2667.069, 1.183744
2668.998, 1.183091
2670.926, 1.183567
2672.855, 1.184294
2674.783, 1.185456
2676.712, 1.187173
2678.640, 1.186810
2680.569, 1.187243
2682.497, 1.188410
2684.426, 1.189640
2686.354, 1.189572
2688.282, 1.189756
2690.211, 1.191606
2692.139, 1.192858
2694.068, 1.193497
2695.996, 1.194584
2697.925, 1.194718
2699.853, 1.195192
2701.782, 1.197950
2703.710, 1.199471
2705.639, 1.199502
2707.567, 1.199683
2709.496, 1.198976
2711.424, 1.198589
2713.353, 1.199726
2715.281, 1.202292
2717.209, 1.201709
2719.138, 1.201755
2721.066, 1.205265
2722.995, 1.207106
2724.923, 1.207389
2726.852, 1.206797
2728.780, 1.206226
2730.709, 1.206723
2732.637, 1.207232
2734.566, 1.207694
2736.494, 1.209190
2738.423, 1.211513
2740.351, 1.213200
2742.280, 1.213770
2744.208, 1.212232
2746.136, 1.212751
2748.065, 1.215379
2749.993, 1.214950
2751.922, 1.213703
2753.850, 1.213689
2755.779, 1.215609
2757.707, 1.219361
2759.636, 1.221313
2761.564, 1.220868
2763.493, 1.219955
2765.421, 1.220199
2767.350, 1.220645
2769.278, 1.219700
2771.207, 1.220205
2773.135, 1.221451
2775.063, 1.222127
2776.992, 1.222743
2778.920, 1.223344
2780.849, 1.225505
2782.777, 1.227146
2784.706, 1.228380
2786.634, 1.229629
2788.563, 1.228016
2790.491, 1.226427
2792.420, 1.229336
2794.348, 1.232249
2796.277, 1.231858
2798.205, 1.232125
2800.134, 1.234327
2802.062, 1.233320
2803.990, 1.232444
2805.919, 1.233948
2807.847, 1.234958
2809.776, 1.236988
2811.704, 1.237872
2813.633, 1.236679
2815.561, 1.236610
2817.490, 1.238402
2819.418, 1.239409
2821.347, 1.239231
2823.275, 1.240600
2825.204, 1.242190
2827.132, 1.240472
2829.061, 1.242375
2830.989, 1.245439
2832.917, 1.244190
2834.846, 1.244814
2836.774, 1.247476
2838.703, 1.248706
2840.631, 1.246693
2842.560, 1.247748
2844.488, 1.251511
2846.417, 1.252982
2848.345, 1.252975
2850.274, 1.253184
2852.202, 1.253487
2854.131, 1.251932
2856.059, 1.248732
2857.988, 1.248585
2859.916, 1.249318
2861.844, 1.248519
2863.773, 1.250853
2865.701, 1.253304
2867.630, 1.254015
2869.558, 1.256130
2871.487, 1.257091
2873.415, 1.257584
2875.344, 1.260512
2877.272, 1.262601
2879.201, 1.259721
2881.129, 1.259187
2883.058, 1.261670
2884.986, 1.264341
2886.915, 1.265867
2888.843, 1.264120
2890.771, 1.263766
2892.700, 1.264084
2894.628, 1.263999
2896.557, 1.265621
2898.485, 1.267161
2900.414, 1.268143
2902.342, 1.268408
2904.271, 1.268780
2906.199, 1.269639
2908.128, 1.270973
2910.056, 1.272398
2911.985, 1.272791
2913.913, 1.273098
2915.842, 1.274513
2917.770, 1.275463
2919.698, 1.275842
2921.627, 1.273553
2923.555, 1.270709
2925.484, 1.270173
2927.412, 1.269262
2929.341, 1.267623
2931.269, 1.267277
2933.198, 1.267188
2935.126, 1.267932
2937.055, 1.270266
2938.983, 1.269975
2940.912, 1.270409
2942.840, 1.270760
2944.769, 1.271803
2946.697, 1.272335
2948.625, 1.273370
2950.554, 1.276934
2952.482, 1.277258
2954.411, 1.276482
2956.339, 1.277904
2958.268, 1.279314
2960.196, 1.278293
2962.125, 1.277889
2964.053, 1.279391
2965.982, 1.279052
2967.910, 1.276965
2969.839, 1.279579
2971.767, 1.279990
2973.696, 1.280663
2975.624, 1.281589
2977.552, 1.285225
2979.481, 1.286753
2981.409, 1.283719
2983.338, 1.283971
2985.266, 1.287696
2987.195, 1.289037
2989.123, 1.287186
2991.052, 1.286352
2992.980, 1.286889
2994.909, 1.289986
2996.837, 1.291603
2998.766, 1.290930
3000.694, 1.291692
3002.623, 1.294481
3004.551, 1.297191
3006.479, 1.297190
3008.408, 1.296724
3010.336, 1.297332
3012.265, 1.298244
3014.193, 1.300424
3016.122, 1.299016
3018.050, 1.298126
3019.979, 1.299895
3021.907, 1.300889
3023.836, 1.299267
3025.764, 1.300930
3027.693, 1.303248
3029.621, 1.302757
3031.550, 1.301358
3033.478, 1.300314
3035.406, 1.303116
3037.335, 1.307422
3039.263, 1.309179
3041.192, 1.311589
3043.120, 1.311692
3045.049, 1.306783
3046.977, 1.305560
3048.906, 1.308945
3050.834, 1.309351
3052.763, 1.311339
3054.691, 1.314626
3056.620, 1.313463
3058.548, 1.311318
3060.477, 1.311523
3062.405, 1.312413
3064.333, 1.314017
3066.262, 1.318016
3068.190, 1.320973
3070.119, 1.320918
3072.047, 1.319196
3073.976, 1.318685
3075.904, 1.322676
3077.833, 1.323449
3079.761, 1.322208
3081.690, 1.325303
3083.618, 1.326669
3085.547, 1.324108
3087.475, 1.325243
3089.404, 1.327576
3091.332, 1.327023
3093.260, 1.325409
3095.189, 1.324330
3097.117, 1.323658
3099.046, 1.326954
3100.974, 1.331835
3102.903, 1.331052
3104.831, 1.328304
3106.760, 1.328009
3108.688, 1.329265
3110.617, 1.332027
3112.545, 1.334885
3114.474, 1.332915
3116.402, 1.331559
3118.331, 1.334301
3120.259, 1.334778
3122.188, 1.334957
3124.116, 1.334424
3126.044, 1.334331
3127.973, 1.336113
3129.901, 1.338244
3131.830, 1.337631
3133.758, 1.337549
3135.687, 1.337305
3137.615, 1.340763
3139.544, 1.342447
3141.472, 1.341173
3143.401, 1.341715
3145.329, 1.344514
3147.258, 1.346508
3149.186, 1.344512
3151.115, 1.342336
3153.043, 1.344021
3154.971, 1.345774
3156.900, 1.348918
3158.828, 1.351135
3160.757, 1.348742
3162.685, 1.347007
3164.614, 1.349569
3166.542, 1.350381
3168.471, 1.347623
3170.399, 1.348770
3172.328, 1.349984
3174.256, 1.350757
3176.185, 1.351889
3178.113, 1.350234
3180.042, 1.348843
3181.970, 1.348116
3183.898, 1.350165
3185.827, 1.355725
3187.755, 1.356144
3189.684, 1.356288
3191.612, 1.360013
3193.541, 1.363844
3195.469, 1.362765
3197.398, 1.358637
3199.326, 1.357185
3201.255, 1.361158
3203.183, 1.364198
3205.112, 1.363495
3207.040, 1.360663
3208.969, 1.360552
3210.897, 1.361801
3212.825, 1.360536
3214.754, 1.362482
3216.682, 1.365035
3218.611, 1.363457
3220.539, 1.362295
3222.468, 1.363323
3224.396, 1.364350
3226.325, 1.365823
3228.253, 1.369839
3230.182, 1.370904
3232.110, 1.369076
3234.039, 1.370567
3235.967, 1.369312
3237.896, 1.371166
3239.824, 1.371786
3241.752, 1.371295
3243.681, 1.374872
3245.609, 1.378733
3247.538, 1.377001
3249.466, 1.375986
3251.395, 1.373155
3253.323, 1.373945
3255.252, 1.378943
3257.180, 1.379035
3259.109, 1.376786
3261.037, 1.378733
3262.966, 1.381189
3264.894, 1.380745
3266.823, 1.381175
3268.751, 1.381918
3270.679, 1.379421
3272.608, 1.380225
3274.536, 1.382860
3276.465, 1.382248
3278.393, 1.385033
3280.322, 1.390071
3282.250, 1.388170
3284.179, 1.385595
3286.107, 1.385803
3288.036, 1.386443
3289.964, 1.387041
3291.893, 1.390810
3293.821, 1.393564
3295.750, 1.392741
3297.678, 1.387503
3299.606, 1.387274
3301.535, 1.391019
3303.463, 1.393382
3305.392, 1.391576
3307.320, 1.390684
3309.249, 1.391801
3311.177, 1.392806
3313.106, 1.390873
3315.034, 1.395409
3316.963, 1.396063
3318.891, 1.393765
3320.820, 1.396712
3322.748, 1.398252
3324.677, 1.394658
3326.605, 1.391973
3328.533, 1.395685
3330.462, 1.399281
3332.390, 1.400085
3334.319, 1.399534
3336.247, 1.399159
3338.176, 1.394791
3340.104, 1.395463
3342.033, 1.398521
3343.961, 1.400085
3345.890, 1.399238
3347.818, 1.398844
3349.747, 1.403302
3351.675, 1.407325
3353.604, 1.405535
3355.532, 1.404468
3357.460, 1.405838
3359.389, 1.407192
3361.317, 1.408051
3363.246, 1.405306
3365.174, 1.406185
3367.103, 1.407382
3369.031, 1.407083
3370.960, 1.403973
3372.888, 1.401927
3374.817, 1.405403
3376.745, 1.407488
3378.674, 1.407313
3380.602, 1.406605
3382.531, 1.407063
3384.459, 1.407879
3386.387, 1.407883
3388.316, 1.406619
3390.244, 1.405139
3392.173, 1.410590
3394.101, 1.415477
3396.030, 1.414016
3397.958, 1.410955
3399.887, 1.410718
3401.815, 1.414065
3403.744, 1.415818
3405.672, 1.412973
3407.601, 1.411270
3409.529, 1.413223
3411.458, 1.410198
3413.386, 1.410545
3415.314, 1.415989
3417.243, 1.418269
3419.171, 1.419415
3421.100, 1.418813
3423.028, 1.417846
3424.957, 1.418667
3426.885, 1.415328
3428.814, 1.415003
3430.742, 1.420640
3432.671, 1.422939
3434.599, 1.419904
3436.528, 1.419639
3438.456, 1.417014
3440.385, 1.417759
3442.313, 1.418678
3444.241, 1.418316
3446.170, 1.421811
3448.098, 1.419580
3450.027, 1.420564
3451.955, 1.421254
3453.884, 1.423136
3455.812, 1.425141
3457.741, 1.422468
3459.669, 1.421266
3461.598, 1.422272
3463.526, 1.425099
3465.455, 1.426249
3467.383, 1.421447
3469.312, 1.418380
3471.240, 1.421383
3473.168, 1.425242
3475.097, 1.429470
3477.025, 1.429812
3478.954, 1.426333
3480.882, 1.426306
3482.811, 1.427763
3484.739, 1.429059
3486.668, 1.432142
3488.596, 1.434562
3490.525, 1.433327
3492.453, 1.432760
3494.382, 1.431752
3496.310, 1.428463
3498.239, 1.426816
3500.167, 1.429108
3502.095, 1.431245
3504.024, 1.436183
3505.952, 1.434738
3507.881, 1.432213
3509.809, 1.430229
3511.738, 1.430165
3513.666, 1.431510
3515.595, 1.430793
3517.523, 1.429714
3519.452, 1.428143
3521.380, 1.426972
3523.309, 1.429483
3525.237, 1.430612
3527.166, 1.431952
3529.094, 1.437443
3531.022, 1.439270
3532.951, 1.437791
3534.879, 1.436757
3536.808, 1.432583
3538.736, 1.433209
3540.665, 1.436903
3542.593, 1.433550
3544.522, 1.432432
3546.450, 1.435274
3548.379, 1.434890
3550.307, 1.436623
3552.236, 1.440904
3554.164, 1.445809
3556.093, 1.446612
3558.021, 1.444523
3559.949, 1.442765
3561.878, 1.438348
3563.806, 1.438875
3565.735, 1.443493
3567.663, 1.446183
3569.592, 1.445564
3571.520, 1.445343
3573.449, 1.443814
3575.377, 1.440846
3577.306, 1.445565
3579.234, 1.444683
3581.163, 1.443781
3583.091, 1.444333
3585.020, 1.445210
3586.948, 1.446983
3588.876, 1.446088
3590.805, 1.447321
3592.733, 1.452084
3594.662, 1.452256
3596.590, 1.446899
3598.519, 1.449808
3600.447, 1.452832
3602.376, 1.453174
3604.304, 1.453268
3606.233, 1.448987
3608.161, 1.449969
3610.090, 1.453006
3612.018, 1.451927
3613.947, 1.451288
3615.875, 1.453155
3617.803, 1.458189
3619.732, 1.455990
3621.660, 1.458957
3623.589, 1.462441
3625.517, 1.457694
3627.446, 1.455963
3629.374, 1.456073
3631.303, 1.458295
3633.231, 1.464975
3635.160, 1.468652
3637.088, 1.466184
3639.017, 1.463820
3640.945, 1.463718
3642.874, 1.468897
3644.802, 1.471922
3646.730, 1.465971
3648.659, 1.461794
3650.587, 1.469311
3652.516, 1.471752
3654.444, 1.468189
3656.373, 1.470836
3658.301, 1.474617
3660.230, 1.470098
3662.158, 1.476342
3664.087, 1.483129
3666.015, 1.478732
3667.944, 1.473554
3669.872, 1.474547
3671.801, 1.478087
3673.729, 1.481421
3675.657, 1.484688
3677.586, 1.482382
3679.514, 1.478743
3681.443, 1.483989
3683.371, 1.487955
3685.300, 1.485591
3687.228, 1.489221
3689.157, 1.495473
3691.085, 1.491234
3693.014, 1.485109
3694.942, 1.482883
3696.871, 1.485690
3698.799, 1.484231
3700.728, 1.486358
3702.656, 1.485536
3704.584, 1.485432
3706.513, 1.495245
3708.441, 1.495662
3710.370, 1.490075
3712.298, 1.487555
3714.227, 1.492990
3716.155, 1.498724
3718.084, 1.499136
3720.012, 1.502896
3721.941, 1.505206
3723.869, 1.508185
3725.798, 1.509952
3727.726, 1.507193
3729.655, 1.503047
3731.583, 1.505419
3733.511, 1.506303
3735.440, 1.501638
3737.368, 1.501759
3739.297, 1.503496
3741.225, 1.502133
3743.154, 1.501885
3745.082, 1.503375
3747.011, 1.507221
3748.939, 1.515683
3750.868, 1.520428
3752.796, 1.512392
3754.725, 1.499793
3756.653, 1.498258
3758.582, 1.504206
3760.510, 1.508886
3762.438, 1.515667
3764.367, 1.517708
3766.295, 1.516802
3768.224, 1.515835
3770.152, 1.519616
3772.081, 1.522205
3774.009, 1.521228
3775.938, 1.519795
3777.866, 1.517453
3779.795, 1.518732
3781.723, 1.516812
3783.652, 1.511831
3785.580, 1.515363
3787.509, 1.522737
3789.437, 1.521394
3791.365, 1.517883
3793.294, 1.523396
3795.222, 1.523264
3797.151, 1.523437
3799.079, 1.530393
3801.008, 1.531338
3802.936, 1.529030
3804.865, 1.527951
3806.793, 1.530959
3808.722, 1.534905
3810.650, 1.536046
3812.579, 1.535926
3814.507, 1.531631
3816.436, 1.527838
3818.364, 1.532465
3820.292, 1.530028
3822.221, 1.529531
3824.149, 1.532570
3826.078, 1.532092
3828.006, 1.532993
3829.935, 1.534690
3831.863, 1.539250
3833.792, 1.542138
3835.720, 1.547196
3837.649, 1.546025
3839.577, 1.540379
3841.506, 1.529396
3843.434, 1.529914
3845.363, 1.541436
3847.291, 1.546132
3849.219, 1.544348
3851.148, 1.546652
3853.076, 1.548132
3855.005, 1.543202
3856.933, 1.537067
3858.862, 1.539157
3860.790, 1.545442
3862.719, 1.549491
3864.647, 1.556420
3866.576, 1.556854
3868.504, 1.550725
3870.433, 1.550082
3872.361, 1.557167
3874.290, 1.562304
3876.218, 1.557605
3878.146, 1.556134
3880.075, 1.559800
3882.003, 1.560230
3883.932, 1.554057
3885.860, 1.554195
3887.789, 1.561296
3889.717, 1.563602
3891.646, 1.564481
3893.574, 1.561148
3895.503, 1.558239
3897.431, 1.562983
3899.360, 1.568612
3901.288, 1.570034
3903.217, 1.565617
3905.145, 1.566371
3907.073, 1.570623
3909.002, 1.571483
3910.930, 1.568201
3912.859, 1.567944
3914.787, 1.568481
3916.716, 1.571945
3918.644, 1.576596
3920.573, 1.575368
3922.501, 1.572427
3924.430, 1.574587
3926.358, 1.577341
3928.287, 1.566271
3930.215, 1.563566
3932.144, 1.577234
3934.072, 1.582538
3936.000, 1.581519
3937.929, 1.578803
3939.857, 1.580917
3941.786, 1.581553
3943.714, 1.582942
3945.643, 1.580971
3947.571, 1.577757
3949.500, 1.578765
3951.428, 1.581227
3953.357, 1.582130
3955.285, 1.583081
3957.214, 1.587394
3959.142, 1.592507
3961.071, 1.590026
3962.999, 1.588565
3964.927, 1.590289
3966.856, 1.584879
3968.784, 1.578273
3970.713, 1.578530
3972.641, 1.582194
3974.570, 1.584817
3976.498, 1.588985
3978.427, 1.590054
3980.355, 1.591576
3982.284, 1.590397
3984.212, 1.593305
3986.141, 1.601768
3988.069, 1.600138
3989.998, 1.594644
3991.926, 1.592371
3993.854, 1.595152
3995.783, 1.592570
3997.711, 1.592440
3999.640, 1.593208
##END=



