##NAMES=Dawsonite
##RRUFFID=R050641
##IDEAL CHEMISTRY=NaAlCO_3_(OH)_2_
##LOCALITY=Francon Quarry, Montréal, Québec, Canada
##OWNER=RRUFF
##SOURCE=University of Arizona Mineral Museum
##DESCRIPTION=Colorless acicular crystals
##STATUS=The identification of this mineral has been confirmed by X-ray diffraction and chemical analysis
##URL=rruff.info/R050641
##MEASURED CHEMISTRY=Na_1.00_Al_1.00_(CO_3_)(OH)_2_ ; trace amounts of Ti ; H_2_O assumed ideal 12.5%; CO_2_ by difference
399.1926, 5.5401020E-02
401.1211, 5.2610919E-02
403.0496, 5.2863851E-02
404.9780, 5.0041821E-02
406.9065, 4.8172921E-02
408.8350, 4.6930801E-02
410.7634, 4.6725459E-02
412.6919, 4.6397660E-02
414.6204, 4.6142548E-02
416.5488, 4.7437910E-02
418.4773, 4.9485561E-02
420.4058, 5.1518042E-02
422.3342, 5.3135760E-02
424.2627, 5.4597039E-02
426.1912, 5.7287838E-02
428.1196, 6.2059540E-02
430.0481, 6.5781213E-02
431.9766, 6.7023329E-02
433.9050, 6.6263773E-02
435.8335, 6.7614198E-02
437.7620, 7.1138851E-02
439.6904, 7.3209830E-02
441.6189, 7.6817557E-02
443.5474, 8.1211343E-02
445.4758, 8.3924808E-02
447.4043, 8.6147919E-02
449.3328, 8.9655131E-02
451.2612, 9.4708674E-02
453.1897, 9.7681157E-02
455.1182, 0.1007368
457.0466, 0.1040346
458.9751, 0.1057155
460.9036, 0.1078779
462.8320, 0.1110260
464.7605, 0.1146774
466.6890, 0.1184114
468.6174, 0.1215913
470.5459, 0.1246586
472.4744, 0.1271342
474.4028, 0.1292145
476.3313, 0.1309553
478.2598, 0.1311597
480.1882, 0.1310513
482.1167, 0.1313754
484.0452, 0.1310918
485.9736, 0.1298538
487.9021, 0.1282780
489.8306, 0.1255589
491.7590, 0.1215462
493.6875, 0.1166336
495.6160, 0.1121509
497.5444, 0.1131316
499.4729, 0.1202013
501.4014, 0.1267368
503.3298, 0.1296177
505.2583, 0.1300111
507.1868, 0.1299279
509.1152, 0.1296929
511.0437, 0.1295014
512.9722, 0.1293931
514.9006, 0.1293688
516.8291, 0.1287891
518.7576, 0.1280749
520.6860, 0.1279673
522.6145, 0.1283393
524.5430, 0.1287476
526.4714, 0.1294859
528.3999, 0.1301227
530.3284, 0.1302230
532.2568, 0.1307150
534.1853, 0.1324460
536.1138, 0.1338732
538.0422, 0.1357806
539.9707, 0.1371116
541.8992, 0.1372619
543.8276, 0.1358661
545.7561, 0.1330688
547.6846, 0.1291752
549.6130, 0.1240828
551.5415, 0.1182587
553.4700, 0.1129414
555.3984, 0.1079062
557.3269, 0.1037761
559.2554, 9.9705480E-02
561.1838, 9.4676331E-02
563.1123, 9.0588734E-02
565.0408, 8.7151811E-02
566.9692, 8.3745793E-02
568.8977, 8.0085143E-02
570.8262, 7.7345341E-02
572.7546, 7.5129181E-02
574.6831, 7.2426192E-02
576.6116, 6.9827177E-02
578.5400, 6.7666411E-02
580.4685, 6.5767497E-02
582.3970, 6.4081483E-02
584.3254, 6.2488411E-02
586.2539, 6.1392359E-02
588.1824, 6.0121600E-02
590.1108, 5.8399979E-02
592.0393, 5.7320841E-02
593.9678, 5.6307580E-02
595.8962, 5.5542629E-02
597.8247, 5.4757912E-02
599.7532, 5.4084089E-02
601.6816, 5.3558450E-02
603.6101, 5.2920811E-02
605.5386, 5.2498709E-02
607.4670, 5.2491348E-02
609.3955, 5.2233022E-02
611.3240, 5.1819749E-02
613.2524, 5.1565312E-02
615.1809, 5.1475059E-02
617.1094, 5.1627722E-02
619.0378, 5.2196819E-02
620.9663, 5.2774228E-02
622.8948, 5.3645819E-02
624.8232, 5.4920752E-02
626.7517, 5.6580510E-02
628.6802, 5.8133058E-02
630.6086, 5.9521832E-02
632.5371, 6.1651301E-02
634.4656, 6.3736692E-02
636.3940, 6.5819390E-02
638.3225, 6.7945130E-02
640.2510, 7.0094600E-02
642.1794, 7.2073951E-02
644.1079, 7.3961377E-02
646.0364, 7.5531982E-02
647.9648, 7.7101722E-02
649.8933, 7.9197630E-02
651.8218, 8.0694057E-02
653.7502, 8.2337283E-02
655.6787, 8.4481701E-02
657.6072, 8.6288601E-02
659.5356, 8.8105068E-02
661.4641, 8.9812040E-02
663.3926, 9.1020338E-02
665.3210, 9.2539340E-02
667.2495, 9.3700863E-02
669.1780, 9.4595127E-02
671.1064, 9.5281340E-02
673.0349, 9.4811670E-02
674.9634, 9.3320109E-02
676.8918, 9.1888860E-02
678.8203, 9.0089381E-02
680.7488, 8.8076822E-02
682.6772, 8.6291179E-02
684.6057, 8.4945433E-02
686.5342, 8.3774179E-02
688.4626, 8.2182936E-02
690.3911, 8.0038108E-02
692.3196, 7.7678978E-02
694.2480, 7.5316258E-02
696.1765, 7.2855607E-02
698.1050, 7.0256948E-02
700.0334, 6.7376338E-02
701.9619, 6.4309217E-02
703.8904, 6.1192490E-02
705.8188, 5.7954051E-02
707.7473, 5.4743610E-02
709.6758, 5.1469501E-02
711.6042, 4.8442740E-02
713.5327, 4.5318119E-02
715.4612, 4.1539539E-02
717.3896, 3.7782710E-02
719.3181, 3.4811169E-02
721.2466, 3.3018399E-02
723.1750, 3.2132871E-02
725.1035, 3.2686159E-02
727.0320, 3.6113869E-02
728.9604, 4.1085519E-02
730.8889, 4.1860800E-02
732.8174, 3.5453979E-02
734.7458, 2.7699251E-02
736.6743, 2.2860629E-02
738.6028, 1.9952729E-02
740.5313, 1.8197689E-02
742.4597, 1.6915239E-02
744.3882, 1.5910320E-02
746.3167, 1.5345410E-02
748.2451, 1.5138310E-02
750.1736, 1.4886130E-02
752.1021, 1.4942470E-02
754.0305, 1.5609360E-02
755.9590, 1.5980650E-02
757.8875, 1.5995530E-02
759.8159, 1.6131710E-02
761.7444, 1.6298700E-02
763.6729, 1.6656140E-02
765.6013, 1.6689530E-02
767.5298, 1.6413640E-02
769.4583, 1.6641829E-02
771.3867, 1.6943390E-02
773.3152, 1.7033130E-02
775.2437, 1.7247031E-02
777.1721, 1.7227409E-02
779.1006, 1.7168431E-02
781.0291, 1.7339520E-02
782.9575, 1.7611859E-02
784.8860, 1.7950650E-02
786.8145, 1.7928859E-02
788.7429, 1.7982000E-02
790.6714, 1.8382020E-02
792.5999, 1.8383170E-02
794.5283, 1.8578360E-02
796.4568, 1.9163370E-02
798.3853, 1.9745240E-02
800.3137, 2.0113301E-02
802.2422, 2.0504510E-02
804.1707, 2.1150380E-02
806.0991, 2.2127800E-02
808.0276, 2.3216370E-02
809.9561, 2.4178930E-02
811.8845, 2.4923570E-02
813.8130, 2.6569691E-02
815.7415, 2.8968571E-02
817.6699, 3.0833090E-02
819.5984, 3.2532271E-02
821.5269, 3.4094010E-02
823.4553, 3.6149081E-02
825.3838, 3.9023980E-02
827.3123, 4.2568080E-02
829.2407, 4.7381591E-02
831.1692, 5.3893682E-02
833.0977, 6.2510230E-02
835.0261, 7.4563153E-02
836.9546, 8.9871749E-02
838.8831, 0.1060323
840.8115, 0.1210561
842.7400, 0.1323469
844.6685, 0.1344541
846.5969, 0.1234857
848.5254, 0.1029984
850.4539, 8.2196929E-02
852.3823, 6.9654010E-02
854.3108, 6.7019232E-02
856.2393, 7.1031302E-02
858.1677, 7.8415379E-02
860.0962, 8.5863084E-02
862.0247, 9.0110317E-02
863.9531, 8.9514062E-02
865.8816, 8.4832743E-02
867.8101, 7.8294054E-02
869.7385, 7.2757080E-02
871.6670, 6.9129281E-02
873.5955, 6.6910073E-02
875.5239, 6.6060387E-02
877.4524, 6.5994851E-02
879.3809, 6.6525780E-02
881.3093, 6.7987047E-02
883.2378, 6.9716610E-02
885.1663, 7.1732827E-02
887.0947, 7.4055336E-02
889.0232, 7.7199623E-02
890.9517, 8.0891542E-02
892.8801, 8.4458463E-02
894.8085, 8.8171162E-02
896.7370, 9.2104606E-02
898.6655, 9.6107222E-02
900.5939, 0.1002314
902.5224, 0.1046343
904.4509, 0.1091971
906.3793, 0.1138408
908.3078, 0.1189978
910.2363, 0.1243041
912.1647, 0.1291417
914.0932, 0.1340487
916.0217, 0.1394136
917.9501, 0.1442058
919.8786, 0.1485225
921.8071, 0.1519582
923.7355, 0.1545665
925.6640, 0.1565461
927.5925, 0.1571906
929.5209, 0.1569921
931.4494, 0.1561519
933.3779, 0.1544030
935.3063, 0.1526637
937.2348, 0.1508994
939.1633, 0.1495632
941.0917, 0.1489388
943.0202, 0.1490040
944.9487, 0.1501350
946.8771, 0.1526516
948.8056, 0.1560224
950.7341, 0.1589632
952.6625, 0.1586212
954.5910, 0.1523901
956.5195, 0.1409293
958.4479, 0.1270597
960.3764, 0.1131663
962.3049, 0.1002900
964.2333, 8.8257223E-02
966.1618, 7.7621877E-02
968.0903, 6.8297543E-02
970.0187, 5.9177332E-02
971.9472, 5.0689869E-02
973.8757, 4.3513890E-02
975.8041, 3.7666839E-02
977.7326, 3.3012129E-02
979.6611, 2.9766539E-02
981.5895, 2.7535841E-02
983.5180, 2.5808301E-02
985.4465, 2.4592580E-02
987.3749, 2.3995750E-02
989.3034, 2.3655981E-02
991.2319, 2.3230020E-02
993.1603, 2.2571079E-02
995.0888, 2.2061560E-02
997.0173, 2.1827020E-02
998.9457, 2.2022741E-02
1000.874, 2.1959450E-02
1002.803, 2.1709960E-02
1004.731, 2.1728929E-02
1006.660, 2.1786669E-02
1008.588, 2.1655681E-02
1010.517, 2.1551650E-02
1012.445, 2.1211211E-02
1014.373, 2.0917259E-02
1016.302, 2.0577060E-02
1018.230, 2.0102760E-02
1020.159, 2.0117240E-02
1022.087, 2.0293429E-02
1024.016, 2.0317551E-02
1025.944, 2.0188920E-02
1027.873, 2.0211229E-02
1029.801, 2.0283209E-02
1031.730, 2.0287320E-02
1033.658, 2.0075530E-02
1035.587, 1.9945160E-02
1037.515, 1.9887980E-02
1039.444, 1.9589379E-02
1041.372, 1.9427929E-02
1043.301, 1.9420359E-02
1045.229, 1.9438690E-02
1047.157, 1.9350030E-02
1049.086, 1.9291259E-02
1051.014, 1.9146480E-02
1052.943, 1.9005990E-02
1054.871, 1.8982179E-02
1056.800, 1.8996229E-02
1058.728, 1.9121720E-02
1060.657, 1.9257750E-02
1062.585, 1.9360021E-02
1064.514, 1.9529480E-02
1066.442, 1.9773090E-02
1068.371, 2.0540901E-02
1070.299, 2.1707119E-02
1072.228, 2.3096390E-02
1074.156, 2.4590420E-02
1076.084, 2.6375500E-02
1078.013, 2.9245880E-02
1079.941, 3.2888271E-02
1081.870, 3.7586629E-02
1083.798, 4.3587949E-02
1085.727, 5.0849158E-02
1087.655, 5.9416540E-02
1089.584, 6.8463899E-02
1091.512, 7.6546133E-02
1093.441, 8.2035057E-02
1095.369, 8.3581381E-02
1097.298, 8.0482423E-02
1099.226, 7.3227167E-02
1101.155, 6.3429587E-02
1103.083, 5.2914020E-02
1105.011, 4.3322168E-02
1106.940, 3.5328370E-02
1108.868, 2.9203890E-02
1110.797, 2.4714019E-02
1112.725, 2.1419190E-02
1114.654, 1.8890141E-02
1116.582, 1.7252151E-02
1118.511, 1.6095091E-02
1120.439, 1.5183820E-02
1122.368, 1.4609330E-02
1124.296, 1.4261050E-02
1126.225, 1.3986020E-02
1128.153, 1.3812730E-02
1130.082, 1.3716840E-02
1132.010, 1.3360080E-02
1133.938, 1.3143580E-02
1135.867, 1.3058870E-02
1137.795, 1.2908850E-02
1139.724, 1.2685220E-02
1141.652, 1.2627050E-02
1143.581, 1.2500120E-02
1145.509, 1.2129050E-02
1147.438, 1.1997760E-02
1149.366, 1.2247400E-02
1151.295, 1.2283470E-02
1153.223, 1.2275380E-02
1155.152, 1.2386130E-02
1157.080, 1.2462690E-02
1159.009, 1.2280250E-02
1160.937, 1.2238920E-02
1162.865, 1.2351320E-02
1164.794, 1.2475990E-02
1166.722, 1.2532980E-02
1168.651, 1.2709670E-02
1170.579, 1.2849530E-02
1172.508, 1.3028660E-02
1174.436, 1.3252900E-02
1176.365, 1.3463240E-02
1178.293, 1.3462380E-02
1180.222, 1.3291050E-02
1182.150, 1.3179330E-02
1184.079, 1.3531420E-02
1186.007, 1.3803450E-02
1187.936, 1.3821050E-02
1189.864, 1.4047340E-02
1191.792, 1.4346590E-02
1193.721, 1.4398470E-02
1195.649, 1.4507480E-02
1197.578, 1.4581560E-02
1199.506, 1.4787380E-02
1201.435, 1.5179950E-02
1203.363, 1.5288350E-02
1205.292, 1.5420360E-02
1207.220, 1.5760360E-02
1209.149, 1.6032159E-02
1211.077, 1.6377090E-02
1213.006, 1.6642541E-02
1214.934, 1.6676400E-02
1216.863, 1.7042680E-02
1218.791, 1.7427949E-02
1220.719, 1.7628770E-02
1222.648, 1.7421050E-02
1224.576, 1.7389329E-02
1226.505, 1.7721610E-02
1228.433, 1.8028740E-02
1230.362, 1.8345259E-02
1232.290, 1.8731920E-02
1234.219, 1.9095531E-02
1236.147, 1.9298870E-02
1238.076, 1.9740511E-02
1240.004, 2.0324999E-02
1241.933, 2.0508250E-02
1243.861, 2.0940909E-02
1245.790, 2.1650961E-02
1247.718, 2.2052340E-02
1249.646, 2.2537099E-02
1251.575, 2.3450639E-02
1253.503, 2.4256259E-02
1255.432, 2.4737030E-02
1257.360, 2.5409799E-02
1259.289, 2.6475281E-02
1261.217, 2.7608370E-02
1263.146, 2.8445181E-02
1265.074, 2.9334510E-02
1267.003, 3.0255189E-02
1268.931, 3.1449132E-02
1270.860, 3.2944061E-02
1272.788, 3.4585059E-02
1274.717, 3.6101200E-02
1276.645, 3.7620150E-02
1278.573, 3.9300609E-02
1280.502, 4.0708002E-02
1282.430, 4.1797921E-02
1284.359, 4.2737771E-02
1286.287, 4.3809600E-02
1288.216, 4.5164470E-02
1290.144, 4.6424560E-02
1292.073, 4.7805671E-02
1294.001, 4.9215298E-02
1295.930, 5.0567102E-02
1297.858, 5.2325949E-02
1299.787, 5.4310091E-02
1301.715, 5.6163762E-02
1303.644, 5.8138639E-02
1305.572, 6.0513929E-02
1307.500, 6.2908933E-02
1309.429, 6.5351821E-02
1311.357, 6.8234593E-02
1313.286, 7.1212418E-02
1315.214, 7.4314907E-02
1317.143, 7.7434309E-02
1319.071, 8.0576703E-02
1321.000, 8.3818711E-02
1322.928, 8.7183669E-02
1324.857, 9.0663910E-02
1326.785, 9.4259329E-02
1328.714, 9.7897187E-02
1330.642, 0.1017263
1332.571, 0.1057284
1334.499, 0.1098861
1336.427, 0.1141321
1338.356, 0.1181499
1340.284, 0.1224933
1342.213, 0.1270629
1344.141, 0.1318520
1346.070, 0.1365857
1347.998, 0.1409444
1349.927, 0.1443262
1351.855, 0.1460434
1353.784, 0.1477879
1355.712, 0.1510288
1357.641, 0.1555066
1359.569, 0.1607819
1361.498, 0.1660780
1363.426, 0.1710770
1365.354, 0.1762392
1367.283, 0.1816751
1369.211, 0.1869887
1371.140, 0.1920950
1373.068, 0.1970166
1374.997, 0.2021756
1376.925, 0.2074871
1378.854, 0.2123303
1380.782, 0.2166756
1382.711, 0.2208758
1384.639, 0.2240800
1386.568, 0.2257878
1388.496, 0.2253546
1390.424, 0.2218656
1392.353, 0.2148843
1394.281, 0.2051910
1396.210, 0.1937031
1398.138, 0.1816324
1400.067, 0.1699890
1401.995, 0.1586614
1403.924, 0.1482093
1405.852, 0.1387412
1407.781, 0.1299403
1409.709, 0.1218634
1411.638, 0.1146285
1413.566, 0.1082531
1415.495, 0.1025150
1417.423, 9.7283863E-02
1419.351, 9.2441313E-02
1421.280, 8.8470392E-02
1423.208, 8.4925957E-02
1425.137, 8.1737310E-02
1427.065, 7.8845046E-02
1428.994, 7.5934812E-02
1430.922, 7.3514514E-02
1432.851, 7.1697839E-02
1434.779, 6.9914304E-02
1436.708, 6.8082727E-02
1438.636, 6.6562898E-02
1440.565, 6.5247633E-02
1442.493, 6.4227901E-02
1444.422, 6.3497163E-02
1446.350, 6.2456310E-02
1448.278, 6.1807550E-02
1450.207, 6.1578151E-02
1452.135, 6.1408751E-02
1454.064, 6.0960419E-02
1455.992, 6.0879510E-02
1457.921, 6.1091270E-02
1459.849, 6.1317310E-02
1461.778, 6.2059481E-02
1463.706, 6.3147761E-02
1465.635, 6.3923597E-02
1467.563, 6.5103427E-02
1469.492, 6.6972181E-02
1471.420, 6.9038093E-02
1473.349, 7.1425013E-02
1475.277, 7.4175946E-02
1477.205, 7.7007830E-02
1479.134, 8.0182761E-02
1481.062, 8.3418228E-02
1482.991, 8.5694253E-02
1484.919, 8.6264417E-02
1486.848, 8.6407483E-02
1488.776, 8.7510727E-02
1490.705, 8.9193597E-02
1492.633, 9.1064461E-02
1494.562, 9.3200810E-02
1496.490, 9.5319293E-02
1498.419, 9.7594254E-02
1500.347, 9.9997327E-02
1502.276, 0.1024813
1504.204, 0.1051677
1506.132, 0.1084252
1508.061, 0.1118263
1509.989, 0.1153152
1511.918, 0.1186493
1513.846, 0.1218365
1515.775, 0.1251895
1517.703, 0.1289140
1519.632, 0.1328187
1521.560, 0.1368915
1523.489, 0.1414527
1525.417, 0.1462792
1527.346, 0.1513171
1529.274, 0.1560711
1531.203, 0.1602306
1533.131, 0.1637446
1535.059, 0.1662780
1536.988, 0.1679512
1538.916, 0.1685102
1540.845, 0.1683521
1542.773, 0.1673588
1544.702, 0.1657522
1546.630, 0.1639120
1548.559, 0.1616432
1550.487, 0.1590246
1552.416, 0.1563120
1554.344, 0.1535053
1556.273, 0.1509141
1558.201, 0.1479190
1560.130, 0.1446017
1562.058, 0.1413146
1563.986, 0.1379849
1565.915, 0.1345686
1567.843, 0.1312208
1569.772, 0.1279793
1571.700, 0.1241138
1573.629, 0.1202275
1575.557, 0.1165032
1577.486, 0.1124897
1579.414, 0.1083668
1581.343, 0.1047874
1583.271, 0.1009188
1585.200, 9.7002551E-02
1587.128, 9.3300357E-02
1589.057, 8.9763828E-02
1590.985, 8.6510457E-02
1592.913, 8.3174750E-02
1594.842, 7.9833537E-02
1596.770, 7.6630510E-02
1598.699, 7.3352009E-02
1600.627, 6.9982193E-02
1602.556, 6.6638783E-02
1604.484, 6.3397624E-02
1606.413, 6.0186472E-02
1608.341, 5.7110831E-02
1610.270, 5.4071520E-02
1612.198, 5.0964590E-02
1614.127, 4.8016161E-02
1616.055, 4.5156948E-02
1617.984, 4.2156670E-02
1619.912, 3.9094541E-02
1621.840, 3.5965070E-02
1623.769, 3.2984510E-02
1625.697, 3.0424030E-02
1627.626, 2.7996590E-02
1629.554, 2.5608379E-02
1631.483, 2.3193320E-02
1633.411, 2.1204190E-02
1635.340, 1.8953521E-02
1637.268, 1.6587481E-02
1639.197, 1.4657580E-02
1641.125, 1.2916770E-02
1643.054, 1.2059190E-02
1644.982, 1.1312190E-02
1646.911, 1.0409240E-02
1648.839, 9.7142197E-03
1650.767, 9.6704178E-03
1652.696, 9.4681652E-03
1654.624, 9.2745880E-03
1656.553, 9.3259318E-03
1658.481, 9.3843881E-03
1660.410, 9.1421288E-03
1662.338, 8.7100230E-03
1664.267, 8.5103558E-03
1666.195, 8.7094456E-03
1668.124, 8.7433578E-03
1670.052, 8.5149128E-03
1671.981, 8.6900657E-03
1673.909, 9.0452097E-03
1675.838, 8.9417882E-03
1677.766, 8.6078485E-03
1679.694, 8.6997440E-03
1681.623, 8.9593465E-03
1683.551, 9.0483446E-03
1685.480, 9.2159137E-03
1687.408, 9.1492906E-03
1689.337, 9.3810512E-03
1691.265, 9.4225248E-03
1693.194, 9.5545463E-03
1695.122, 9.5541617E-03
1697.051, 1.0041920E-02
1698.979, 1.1301400E-02
1700.908, 1.2115050E-02
1702.836, 1.3223700E-02
1704.765, 1.3964170E-02
1706.693, 1.4194770E-02
1708.621, 1.4554080E-02
1710.550, 1.5203280E-02
1712.478, 1.6248880E-02
1714.407, 1.7547511E-02
1716.335, 1.8442780E-02
1718.264, 1.9074950E-02
1720.192, 1.9468101E-02
1722.121, 1.8914660E-02
1724.049, 1.8485440E-02
1725.978, 1.8137969E-02
1727.906, 1.7590441E-02
1729.835, 1.7033041E-02
1731.763, 1.6086210E-02
1733.692, 1.5077760E-02
1735.620, 1.4288640E-02
1737.548, 1.3195640E-02
1739.477, 1.1903520E-02
1741.405, 1.1242640E-02
1743.334, 1.0964400E-02
1745.262, 1.0866590E-02
1747.191, 1.0812890E-02
1749.119, 1.0722950E-02
1751.048, 1.0699580E-02
1752.976, 1.0633560E-02
1754.905, 1.0402710E-02
1756.833, 1.1008970E-02
1758.762, 1.1806600E-02
1760.690, 1.2452570E-02
1762.619, 1.3207580E-02
1764.547, 1.3649600E-02
1766.475, 1.3926600E-02
1768.404, 1.4343650E-02
1770.332, 1.4654950E-02
1772.261, 1.4989030E-02
1774.189, 1.4890980E-02
1776.118, 1.4579880E-02
1778.046, 1.4095160E-02
1779.975, 1.3496360E-02
1781.903, 1.3391600E-02
1783.832, 1.3215550E-02
1785.760, 1.2330010E-02
1787.689, 1.1946340E-02
1789.617, 1.1909970E-02
1791.546, 1.1743140E-02
1793.474, 1.1332090E-02
1795.402, 1.1101780E-02
1797.331, 1.0776220E-02
1799.259, 1.0509000E-02
1801.188, 1.0942710E-02
1803.116, 1.1426480E-02
1805.045, 1.1411330E-02
1806.973, 1.1110530E-02
1808.902, 1.0808110E-02
1810.830, 1.1531560E-02
1812.759, 1.2105520E-02
1814.687, 1.2434630E-02
1816.616, 1.3285420E-02
1818.544, 1.3938670E-02
1820.473, 1.4449120E-02
1822.401, 1.4679690E-02
1824.329, 1.4134260E-02
1826.258, 1.3198780E-02
1828.186, 1.3258730E-02
1830.115, 1.3491580E-02
1832.043, 1.2519640E-02
1833.972, 1.1355440E-02
1835.900, 1.0882470E-02
1837.829, 1.0525200E-02
1839.757, 1.0077560E-02
1841.686, 9.9427942E-03
1843.614, 9.6842013E-03
1845.543, 9.3865274E-03
1847.471, 9.6444236E-03
1849.400, 9.7429352E-03
1851.328, 9.0909237E-03
1853.256, 8.6922869E-03
1855.185, 8.5945241E-03
1857.113, 8.6367326E-03
1859.042, 8.1791291E-03
1860.970, 8.1760911E-03
1862.899, 8.4274029E-03
1864.827, 8.9496393E-03
1866.756, 9.2313038E-03
1868.684, 8.7016840E-03
1870.613, 8.7987538E-03
1872.541, 9.5193228E-03
1874.470, 9.5406892E-03
1876.398, 9.2491796E-03
1878.327, 9.1188289E-03
1880.255, 1.0061140E-02
1882.183, 1.0768730E-02
1884.112, 1.0325080E-02
1886.040, 9.3345707E-03
1887.969, 8.8512395E-03
1889.897, 9.1878567E-03
1891.826, 8.8333953E-03
1893.754, 7.0822472E-03
1895.683, 6.2092980E-03
1897.611, 7.2055049E-03
1899.540, 7.8947609E-03
1901.468, 7.3267431E-03
1903.397, 6.8224338E-03
1905.325, 7.1946760E-03
1907.254, 7.1693189E-03
1909.182, 6.2452280E-03
1911.110, 6.3551571E-03
1913.039, 7.4482011E-03
1914.967, 7.9709236E-03
1916.896, 8.5895294E-03
1918.824, 8.6489841E-03
1920.753, 7.0636980E-03
1922.681, 5.6439699E-03
1924.610, 6.0833041E-03
1926.538, 6.5938579E-03
1928.467, 6.9501782E-03
1930.395, 6.7091179E-03
1932.324, 5.5892551E-03
1934.252, 6.1487718E-03
1936.181, 6.4596641E-03
1938.109, 6.9955480E-03
1940.037, 8.0073951E-03
1941.966, 7.1658511E-03
1943.894, 6.9854520E-03
1945.823, 7.5092940E-03
1947.751, 6.9050258E-03
1949.680, 7.4631739E-03
1951.608, 9.2573930E-03
1953.537, 1.0411980E-02
1955.465, 9.3216728E-03
1957.394, 7.3918141E-03
1959.322, 7.9259081E-03
1961.251, 7.9507641E-03
1963.179, 8.0739511E-03
1965.108, 9.4184605E-03
1967.036, 1.0522330E-02
1968.964, 1.0877160E-02
1970.893, 1.0060270E-02
1972.821, 9.3343584E-03
1974.750, 9.0973806E-03
1976.678, 1.0166480E-02
1978.607, 1.2714210E-02
1980.535, 1.3800950E-02
1982.464, 1.2032760E-02
1984.392, 1.0120000E-02
1986.321, 9.9396016E-03
1988.249, 9.4170095E-03
1990.178, 8.3305212E-03
1992.106, 1.0378490E-02
1994.035, 1.0475670E-02
1995.963, 9.5924912E-03
1997.891, 8.2691740E-03
1999.820, 7.1374490E-03
2001.748, 6.0036210E-03
2003.677, 6.3111512E-03
2005.605, 7.1420181E-03
2007.534, 8.4869266E-03
2009.462, 8.4153442E-03
2011.391, 9.7353738E-03
2013.319, 9.2093311E-03
2015.248, 5.5856109E-03
2017.176, 5.4460778E-03
2019.105, 5.6869979E-03
2021.033, 5.7309158E-03
2022.962, 5.4877340E-03
2024.890, 7.0284740E-03
2026.818, 7.7127218E-03
2028.747, 7.0816372E-03
2030.675, 7.8607192E-03
2032.604, 8.6750677E-03
2034.532, 8.5947337E-03
2036.461, 8.6841704E-03
2038.389, 8.2717948E-03
2040.318, 8.3348956E-03
2042.246, 6.7968229E-03
2044.175, 8.5773347E-03
2046.103, 1.1500790E-02
2048.032, 9.9628149E-03
2049.960, 8.8770818E-03
2051.889, 1.0607310E-02
2053.817, 1.1950560E-02
2055.746, 1.1311100E-02
2057.674, 9.2943376E-03
2059.603, 9.6665220E-03
2061.531, 1.2313470E-02
2063.459, 1.3065050E-02
2065.388, 9.8749399E-03
2067.316, 8.9992872E-03
2069.245, 1.0379940E-02
2071.173, 1.1769560E-02
2073.102, 1.2569450E-02
2075.030, 1.1853270E-02
2076.959, 1.1493400E-02
2078.887, 1.3084180E-02
2080.816, 1.3173820E-02
2082.744, 1.1428620E-02
2084.673, 1.1292740E-02
2086.601, 1.0962460E-02
2088.530, 1.1230530E-02
2090.458, 1.1039370E-02
2092.386, 1.0344270E-02
2094.315, 9.5683206E-03
2096.243, 1.0535400E-02
2098.172, 1.1717610E-02
2100.100, 1.2482610E-02
2102.029, 1.1861500E-02
2103.957, 1.0454420E-02
2105.886, 9.4794603E-03
2107.814, 8.7724384E-03
2109.743, 8.4667318E-03
2111.671, 8.5295541E-03
2113.600, 8.4820678E-03
2115.528, 7.4403132E-03
2117.457, 6.1776540E-03
2119.385, 6.4273612E-03
2121.313, 6.4307312E-03
2123.242, 6.7990180E-03
2125.170, 5.5955239E-03
2127.099, 3.1975380E-03
2129.027, 3.4851190E-03
2130.956, 4.4471291E-03
2132.884, 5.5244029E-03
2134.813, 5.9949602E-03
2136.741, 4.7561871E-03
2138.670, 4.5847800E-03
2140.598, 4.1049230E-03
2142.527, 4.5871991E-03
2144.455, 5.1873261E-03
2146.384, 4.8647928E-03
2148.312, 5.0120698E-03
2150.240, 5.6061270E-03
2152.169, 2.6447061E-03
2154.097, -1.1809220E-03
2156.026, -2.1116061E-03
2157.954, -8.0247788E-04
2159.883, 2.2447640E-03
2161.811, 3.5768929E-03
2163.740, 2.0582050E-03
2165.668, 2.8879261E-03
2167.597, 3.4582161E-03
2169.525, 6.0535148E-03
2171.454, 6.5183220E-03
2173.382, 3.1157350E-03
2175.311, 4.2722389E-04
2177.239, -5.0326402E-04
2179.167, -1.4589970E-03
2181.096, -8.8928023E-04
2183.024, 1.4777450E-03
2184.953, 3.5550841E-03
2186.881, 4.6951971E-03
2188.810, 4.5770472E-03
2190.738, 3.8857940E-03
2192.667, 3.4475359E-03
2194.595, 4.9130321E-03
2196.524, 6.3248081E-03
2198.452, 3.5181181E-03
2200.381, 1.0820490E-03
2202.309, 9.6115121E-04
2204.238, 1.1623320E-03
2206.166, 3.1598001E-03
2208.094, 5.4507479E-03
2210.023, 5.0718230E-03
2211.951, 5.3660739E-03
2213.880, 4.7064270E-03
2215.808, 2.8466841E-03
2217.737, 4.4487529E-03
2219.665, 6.2967562E-03
2221.594, 6.1922800E-03
2223.522, 4.4217971E-03
2225.451, 4.2456440E-03
2227.379, 4.9690669E-03
2229.308, 5.3928029E-03
2231.236, 5.7713361E-03
2233.165, 6.2740552E-03
2235.093, 5.8960500E-03
2237.021, 4.7520478E-03
2238.950, 4.7190189E-03
2240.878, 5.3351568E-03
2242.807, 4.2626332E-03
2244.735, 5.4670721E-03
2246.664, 6.9484441E-03
2248.592, 6.7314990E-03
2250.521, 6.5864380E-03
2252.449, 5.4009031E-03
2254.378, 5.1075360E-03
2256.306, 4.9444060E-03
2258.235, 5.8289021E-03
2260.163, 7.0828940E-03
2262.092, 8.4116710E-03
2264.020, 8.2160914E-03
2265.948, 8.8701686E-03
2267.877, 8.7551177E-03
2269.805, 6.9336700E-03
2271.734, 7.9787616E-03
2273.662, 9.0114335E-03
2275.591, 8.8460613E-03
2277.519, 8.1981169E-03
2279.448, 8.2134353E-03
2281.376, 8.9777000E-03
2283.305, 9.0458319E-03
2285.233, 9.5456168E-03
2287.162, 9.3975933E-03
2289.090, 9.7106863E-03
2291.019, 9.6217478E-03
2292.947, 8.3582243E-03
2294.875, 8.3592730E-03
2296.804, 8.8275550E-03
2298.732, 8.1976783E-03
2300.661, 7.5854189E-03
2302.589, 8.2790507E-03
2304.518, 8.9763086E-03
2306.446, 8.3605759E-03
2308.375, 8.1935842E-03
2310.303, 8.8037550E-03
2312.232, 8.7297997E-03
2314.160, 8.1378203E-03
2316.089, 8.9540137E-03
2318.017, 9.6131554E-03
2319.946, 9.3267560E-03
2321.874, 9.3567166E-03
2323.802, 9.8905982E-03
2325.731, 9.1455588E-03
2327.659, 7.6419520E-03
2329.588, 7.8228237E-03
2331.516, 8.2973000E-03
2333.445, 7.7505382E-03
2335.373, 7.8573022E-03
2337.302, 8.0007706E-03
2339.230, 7.7139912E-03
2341.159, 8.5203536E-03
2343.087, 8.9232009E-03
2345.016, 8.0434661E-03
2346.944, 8.3500072E-03
2348.873, 9.1619529E-03
2350.801, 8.3340453E-03
2352.729, 7.8838011E-03
2354.658, 8.4175710E-03
2356.586, 8.1138480E-03
2358.515, 7.6169628E-03
2360.443, 7.1209958E-03
2362.372, 6.9360081E-03
2364.300, 7.2168061E-03
2366.229, 7.8089479E-03
2368.157, 8.0685886E-03
2370.086, 8.4150815E-03
2372.014, 7.9974504E-03
2373.942, 7.3132529E-03
2375.871, 7.0750341E-03
2377.799, 7.3563978E-03
2379.728, 8.1105540E-03
2381.656, 7.7602328E-03
2383.585, 7.0855189E-03
2385.513, 7.8659793E-03
2387.442, 7.7364440E-03
2389.370, 7.8706397E-03
2391.299, 9.1166385E-03
2393.227, 8.6075002E-03
2395.156, 7.9815807E-03
2397.084, 7.3781461E-03
2399.012, 7.6397262E-03
2400.941, 9.0538068E-03
2402.869, 8.8315746E-03
2404.798, 8.3291568E-03
2406.726, 9.0031484E-03
2408.655, 8.7259188E-03
2410.583, 8.5952682E-03
2412.512, 9.2585571E-03
2414.440, 9.3256040E-03
2416.369, 9.1119027E-03
2418.297, 9.5176455E-03
2420.226, 9.7261025E-03
2422.154, 1.0538350E-02
2424.083, 1.0644180E-02
2426.011, 1.0453880E-02
2427.939, 1.0770820E-02
2429.868, 1.0513930E-02
2431.796, 9.3031405E-03
2433.725, 8.7847039E-03
2435.653, 8.9650908E-03
2437.582, 9.0473751E-03
2439.510, 9.5756846E-03
2441.439, 1.0633770E-02
2443.367, 1.1584630E-02
2445.296, 1.1490900E-02
2447.224, 1.1555290E-02
2449.153, 1.2640950E-02
2451.081, 1.3128670E-02
2453.010, 1.2802830E-02
2454.938, 1.1524120E-02
2456.866, 1.2131680E-02
2458.795, 1.2914570E-02
2460.723, 1.3403790E-02
2462.652, 1.4181020E-02
2464.580, 1.4052860E-02
2466.509, 1.3397650E-02
2468.437, 1.2993700E-02
2470.366, 1.4283340E-02
2472.294, 1.4289670E-02
2474.223, 1.3278270E-02
2476.151, 1.2731810E-02
2478.080, 1.2071670E-02
2480.008, 1.1514970E-02
2481.937, 1.1815140E-02
2483.865, 1.1896880E-02
2485.793, 1.1697110E-02
2487.722, 1.1755600E-02
2489.650, 1.1978060E-02
2491.579, 1.1920640E-02
2493.507, 1.1737750E-02
2495.436, 1.1597720E-02
2497.364, 1.1713080E-02
2499.293, 1.1619580E-02
2501.221, 1.1567150E-02
2503.150, 1.1062580E-02
2505.078, 1.0771790E-02
2507.007, 1.1032720E-02
2508.935, 1.1390860E-02
2510.864, 1.1157270E-02
2512.792, 1.1105190E-02
2514.720, 1.1696780E-02
2516.649, 1.2715860E-02
2518.577, 1.1931180E-02
2520.506, 1.0833570E-02
2522.434, 1.1045730E-02
2524.363, 1.1723030E-02
2526.291, 1.1109800E-02
2528.220, 1.0743130E-02
2530.148, 1.0179100E-02
2532.077, 1.0047060E-02
2534.005, 1.0683860E-02
2535.934, 1.0817400E-02
2537.862, 1.0629400E-02
2539.791, 9.7893002E-03
2541.719, 9.2072953E-03
2543.647, 9.5904144E-03
2545.576, 9.6790250E-03
2547.504, 9.3289502E-03
2549.433, 8.8882679E-03
2551.361, 8.9276303E-03
2553.290, 8.4098279E-03
2555.218, 9.5548742E-03
2557.147, 1.1473450E-02
2559.075, 1.1575830E-02
2561.004, 1.0544870E-02
2562.932, 1.0724110E-02
2564.861, 1.1323200E-02
2566.789, 1.1047450E-02
2568.718, 1.0462360E-02
2570.646, 1.0049000E-02
2572.574, 8.8746035E-03
2574.503, 9.7366087E-03
2576.431, 1.1481310E-02
2578.360, 1.2348100E-02
2580.288, 1.1834990E-02
2582.217, 1.0967310E-02
2584.145, 1.1179920E-02
2586.074, 1.1252920E-02
2588.002, 1.2037990E-02
2589.931, 1.2763820E-02
2591.859, 1.2855410E-02
2593.788, 1.3118410E-02
2595.716, 1.3115720E-02
2597.645, 1.3186850E-02
2599.573, 1.3134850E-02
2601.501, 1.2759470E-02
2603.430, 1.3556820E-02
2605.358, 1.4620130E-02
2607.287, 1.5003820E-02
2609.215, 1.4259130E-02
2611.144, 1.3593310E-02
2613.072, 1.3219350E-02
2615.001, 1.2836020E-02
2616.929, 1.2274740E-02
2618.858, 1.2846700E-02
2620.786, 1.3665840E-02
2622.715, 1.3223210E-02
2624.643, 1.2673690E-02
2626.572, 1.2611720E-02
2628.500, 1.3052560E-02
2630.428, 1.2914570E-02
2632.357, 1.2369760E-02
2634.285, 1.2146790E-02
2636.214, 1.1471710E-02
2638.142, 1.1344140E-02
2640.071, 1.1982870E-02
2641.999, 1.2669070E-02
2643.928, 1.2896590E-02
2645.856, 1.3117290E-02
2647.785, 1.2955240E-02
2649.713, 1.2210210E-02
2651.642, 1.1058660E-02
2653.570, 1.0818350E-02
2655.499, 1.2171860E-02
2657.427, 1.2839210E-02
2659.355, 1.2304160E-02
2661.284, 1.2493750E-02
2663.212, 1.2313080E-02
2665.141, 1.0972400E-02
2667.069, 1.0528840E-02
2668.998, 1.0993730E-02
2670.926, 1.1107280E-02
2672.855, 1.0483580E-02
2674.783, 1.0302820E-02
2676.712, 1.0753970E-02
2678.640, 1.0926920E-02
2680.569, 9.9924281E-03
2682.497, 9.2292558E-03
2684.426, 9.9648209E-03
2686.354, 1.1419850E-02
2688.282, 1.0987110E-02
2690.211, 9.8722167E-03
2692.139, 9.9751931E-03
2694.068, 1.0198790E-02
2695.996, 1.0191220E-02
2697.925, 1.0642620E-02
2699.853, 1.0525830E-02
2701.782, 1.0677620E-02
2703.710, 1.0714730E-02
2705.639, 1.0875380E-02
2707.567, 1.0830650E-02
2709.496, 1.0204320E-02
2711.424, 1.0095040E-02
2713.353, 1.0882270E-02
2715.281, 1.1115580E-02
2717.209, 1.1341970E-02
2719.138, 1.1345000E-02
2721.066, 1.1336050E-02
2722.995, 1.1639050E-02
2724.923, 1.1478300E-02
2726.852, 1.0933530E-02
2728.780, 1.0388680E-02
2730.709, 9.7235208E-03
2732.637, 1.0119450E-02
2734.566, 1.0417840E-02
2736.494, 1.1019990E-02
2738.423, 1.1425370E-02
2740.351, 1.1112270E-02
2742.280, 1.1648020E-02
2744.208, 1.2031600E-02
2746.136, 1.1723800E-02
2748.065, 1.1752090E-02
2749.993, 1.2293410E-02
2751.922, 1.2633630E-02
2753.850, 1.3056770E-02
2755.779, 1.3308190E-02
2757.707, 1.3966870E-02
2759.636, 1.3640810E-02
2761.564, 1.2609960E-02
2763.493, 1.2929450E-02
2765.421, 1.2892520E-02
2767.350, 1.2914670E-02
2769.278, 1.3304290E-02
2771.207, 1.3105280E-02
2773.135, 1.2676630E-02
2775.063, 1.2500080E-02
2776.992, 1.2754330E-02
2778.920, 1.3921610E-02
2780.849, 1.3837080E-02
2782.777, 1.3036990E-02
2784.706, 1.2380380E-02
2786.634, 1.3055090E-02
2788.563, 1.3958260E-02
2790.491, 1.3963540E-02
2792.420, 1.3780820E-02
2794.348, 1.4224820E-02
2796.277, 1.4085990E-02
2798.205, 1.3477350E-02
2800.134, 1.3028630E-02
2802.062, 1.3936480E-02
2803.990, 1.4670680E-02
2805.919, 1.4984150E-02
2807.847, 1.5148820E-02
2809.776, 1.4961490E-02
2811.704, 1.4339500E-02
2813.633, 1.5506330E-02
2815.561, 1.5856970E-02
2817.490, 1.5193910E-02
2819.418, 1.4960420E-02
2821.347, 1.5706111E-02
2823.275, 1.6881241E-02
2825.204, 1.8219439E-02
2827.132, 1.7008411E-02
2829.061, 1.6092001E-02
2830.989, 1.6234830E-02
2832.917, 1.6209580E-02
2834.846, 1.6351851E-02
2836.774, 1.6592739E-02
2838.703, 1.6823730E-02
2840.631, 1.6530519E-02
2842.560, 1.6278410E-02
2844.488, 1.5862821E-02
2846.417, 1.5570240E-02
2848.345, 1.5177450E-02
2850.274, 1.5952591E-02
2852.202, 1.6269671E-02
2854.131, 1.5752111E-02
2856.059, 1.5541750E-02
2857.988, 1.5903160E-02
2859.916, 1.6165869E-02
2861.844, 1.5981350E-02
2863.773, 1.6171901E-02
2865.701, 1.6316811E-02
2867.630, 1.6979530E-02
2869.558, 1.7544530E-02
2871.487, 1.7632820E-02
2873.415, 1.7199609E-02
2875.344, 1.7892459E-02
2877.272, 1.7821310E-02
2879.201, 1.8164800E-02
2881.129, 1.9907430E-02
2883.058, 2.0257119E-02
2884.986, 1.9526489E-02
2886.915, 1.7824590E-02
2888.843, 1.7271720E-02
2890.771, 1.8721130E-02
2892.700, 1.9135701E-02
2894.628, 1.8984269E-02
2896.557, 2.0149769E-02
2898.485, 2.0596780E-02
2900.414, 1.9938311E-02
2902.342, 1.9786861E-02
2904.271, 1.9460160E-02
2906.199, 1.9847959E-02
2908.128, 2.0885760E-02
2910.056, 2.1250959E-02
2911.985, 2.1772429E-02
2913.913, 2.2166850E-02
2915.842, 2.2252159E-02
2917.770, 2.2269391E-02
2919.698, 2.2500940E-02
2921.627, 2.2376860E-02
2923.555, 2.1098951E-02
2925.484, 2.0377200E-02
2927.412, 2.0028461E-02
2929.341, 2.0647241E-02
2931.269, 2.2697110E-02
2933.198, 2.3514170E-02
2935.126, 2.2944860E-02
2937.055, 2.3507331E-02
2938.983, 2.4368560E-02
2940.912, 2.4496160E-02
2942.840, 2.3500700E-02
2944.769, 2.3778120E-02
2946.697, 2.3129139E-02
2948.625, 2.2976840E-02
2950.554, 2.4621921E-02
2952.482, 2.4426600E-02
2954.411, 2.3449469E-02
2956.339, 2.2839921E-02
2958.268, 2.2959800E-02
2960.196, 2.3123490E-02
2962.125, 2.3518501E-02
2964.053, 2.5245139E-02
2965.982, 2.6355980E-02
2967.910, 2.5742350E-02
2969.839, 2.6256260E-02
2971.767, 2.8174520E-02
2973.696, 2.9804090E-02
2975.624, 3.0301630E-02
2977.552, 3.0507080E-02
2979.481, 3.1272009E-02
2981.409, 2.9916819E-02
2983.338, 2.8907100E-02
2985.266, 3.0203469E-02
2987.195, 3.1982690E-02
2989.123, 3.2720540E-02
2991.052, 3.2914650E-02
2992.980, 3.2801569E-02
2994.909, 3.3372462E-02
2996.837, 3.3577651E-02
2998.766, 3.3781759E-02
3000.694, 3.4764510E-02
3002.623, 3.5222709E-02
3004.551, 3.5033420E-02
3006.479, 3.4624349E-02
3008.408, 3.4955282E-02
3010.336, 3.6308050E-02
3012.265, 3.7046690E-02
3014.193, 3.6713298E-02
3016.122, 3.6696229E-02
3018.050, 3.7416760E-02
3019.979, 3.7233930E-02
3021.907, 3.6782779E-02
3023.836, 3.8690250E-02
3025.764, 4.0779680E-02
3027.693, 4.1497249E-02
3029.621, 4.3145001E-02
3031.550, 4.3753382E-02
3033.478, 4.2318519E-02
3035.406, 4.2178400E-02
3037.335, 4.3095101E-02
3039.263, 4.4135280E-02
3041.192, 4.5875501E-02
3043.120, 4.6653330E-02
3045.049, 4.6819471E-02
3046.977, 4.8847001E-02
3048.906, 5.0741632E-02
3050.834, 5.1334228E-02
3052.763, 5.2159231E-02
3054.691, 5.4722879E-02
3056.620, 5.7145931E-02
3058.548, 5.6403391E-02
3060.477, 5.6446280E-02
3062.405, 5.6800291E-02
3064.333, 5.7654429E-02
3066.262, 5.9367519E-02
3068.190, 6.0975179E-02
3070.119, 6.2074319E-02
3072.047, 6.2993973E-02
3073.976, 6.4407259E-02
3075.904, 6.4906552E-02
3077.833, 6.6177271E-02
3079.761, 6.7756407E-02
3081.690, 6.8972461E-02
3083.618, 7.0696108E-02
3085.547, 7.2169982E-02
3087.475, 7.3282093E-02
3089.404, 7.2895318E-02
3091.332, 7.1319453E-02
3093.260, 7.0536241E-02
3095.189, 7.2424598E-02
3097.117, 7.5099960E-02
3099.046, 7.5931229E-02
3100.974, 7.6635227E-02
3102.903, 7.7394210E-02
3104.831, 7.7101730E-02
3106.760, 7.7413328E-02
3108.688, 7.9806633E-02
3110.617, 8.1278898E-02
3112.545, 8.0719382E-02
3114.474, 8.0640808E-02
3116.402, 8.3136387E-02
3118.331, 8.5046627E-02
3120.259, 8.5874513E-02
3122.188, 8.6841121E-02
3124.116, 8.8595197E-02
3126.044, 9.1713123E-02
3127.973, 9.3190297E-02
3129.901, 9.2244819E-02
3131.830, 9.2044100E-02
3133.758, 9.3067721E-02
3135.687, 9.8737597E-02
3137.615, 0.1034562
3139.544, 0.1041019
3141.472, 0.1054641
3143.401, 0.1069107
3145.329, 0.1064525
3147.258, 0.1078666
3149.186, 0.1107245
3151.115, 0.1126059
3153.043, 0.1147847
3154.971, 0.1169693
3156.900, 0.1188570
3158.828, 0.1227464
3160.757, 0.1253324
3162.685, 0.1273711
3164.614, 0.1300090
3166.542, 0.1316930
3168.471, 0.1345388
3170.399, 0.1373501
3172.328, 0.1397428
3174.256, 0.1444394
3176.185, 0.1486883
3178.113, 0.1506300
3180.042, 0.1541460
3181.970, 0.1589230
3183.898, 0.1625492
3185.827, 0.1651397
3187.755, 0.1689954
3189.684, 0.1740448
3191.612, 0.1768581
3193.541, 0.1796933
3195.469, 0.1844687
3197.398, 0.1894109
3199.326, 0.1950090
3201.255, 0.1995606
3203.183, 0.2020988
3205.112, 0.2064984
3207.040, 0.2119950
3208.969, 0.2140251
3210.897, 0.2149395
3212.825, 0.2185869
3214.754, 0.2229759
3216.682, 0.2268893
3218.611, 0.2302103
3220.539, 0.2338106
3222.468, 0.2406025
3224.396, 0.2430907
3226.325, 0.2462822
3228.253, 0.2521118
3230.182, 0.2586454
3232.110, 0.2629985
3234.039, 0.2658933
3235.967, 0.2691176
3237.896, 0.2742649
3239.824, 0.2776031
3241.752, 0.2843670
3243.681, 0.2908842
3245.609, 0.2944779
3247.538, 0.2978544
3249.466, 0.3027947
3251.395, 0.3065954
3253.323, 0.3094735
3255.252, 0.3145769
3257.180, 0.3192726
3259.109, 0.3224455
3261.037, 0.3252273
3262.966, 0.3264298
3264.894, 0.3263568
3266.823, 0.3264626
3268.751, 0.3265167
3270.679, 0.3259802
3272.608, 0.3259411
3274.536, 0.3228159
3276.465, 0.3177254
3278.393, 0.3108610
3280.322, 0.3024949
3282.250, 0.2966244
3284.179, 0.2883824
3286.107, 0.2778573
3288.036, 0.2654749
3289.964, 0.2534734
3291.893, 0.2423584
3293.821, 0.2298174
3295.750, 0.2138938
3297.678, 0.2007327
3299.606, 0.1897941
3301.535, 0.1795126
3303.463, 0.1704034
3305.392, 0.1603669
3307.320, 0.1511749
3309.249, 0.1424238
3311.177, 0.1351852
3313.106, 0.1294948
3315.034, 0.1235370
3316.963, 0.1155768
3318.891, 0.1096324
3320.820, 0.1064317
3322.748, 0.1025388
3324.677, 9.9520624E-02
3326.605, 9.5165253E-02
3328.533, 9.1369107E-02
3330.462, 8.7506302E-02
3332.390, 8.2671508E-02
3334.319, 7.9454780E-02
3336.247, 7.7521987E-02
3338.176, 7.5526930E-02
3340.104, 7.3596299E-02
3342.033, 7.3463701E-02
3343.961, 7.0154682E-02
3345.890, 6.7830399E-02
3347.818, 6.7558378E-02
3349.747, 6.6462137E-02
3351.675, 6.4716883E-02
3353.604, 6.4294159E-02
3355.532, 6.4106770E-02
3357.460, 6.3301049E-02
3359.389, 6.1687961E-02
3361.317, 5.8846582E-02
3363.246, 5.6374561E-02
3365.174, 5.4617152E-02
3367.103, 5.5109110E-02
3369.031, 5.4140650E-02
3370.960, 5.2116022E-02
3372.888, 5.1550359E-02
3374.817, 5.1458679E-02
3376.745, 4.9355771E-02
3378.674, 4.7304150E-02
3380.602, 4.6235122E-02
3382.531, 4.5439821E-02
3384.459, 4.4585209E-02
3386.387, 4.2334449E-02
3388.316, 3.9705679E-02
3390.244, 3.8527749E-02
3392.173, 3.6321241E-02
3394.101, 3.6448050E-02
3396.030, 3.6773991E-02
3397.958, 3.5218470E-02
3399.887, 3.4133479E-02
3401.815, 3.4970570E-02
3403.744, 3.6684088E-02
3405.672, 3.5287790E-02
3407.601, 3.2855250E-02
3409.529, 3.1931709E-02
3411.458, 3.0050330E-02
3413.386, 2.8932169E-02
3415.314, 3.0995850E-02
3417.243, 3.1904921E-02
3419.171, 3.1277280E-02
3421.100, 3.0642141E-02
3423.028, 3.0065799E-02
3424.957, 2.9721711E-02
3426.885, 2.8725561E-02
3428.814, 2.7134020E-02
3430.742, 2.7347939E-02
3432.671, 2.6233910E-02
3434.599, 2.4670700E-02
3436.528, 2.6447080E-02
3438.456, 2.9337060E-02
3440.385, 2.8002201E-02
3442.313, 2.6151709E-02
3444.241, 2.4827220E-02
3446.170, 2.3915179E-02
3448.098, 2.3167791E-02
3450.027, 2.4902740E-02
3451.955, 2.7495719E-02
3453.884, 2.7605729E-02
3455.812, 2.6508190E-02
3457.741, 2.5660319E-02
3459.669, 2.6257200E-02
3461.598, 2.6567509E-02
3463.526, 2.4607940E-02
3465.455, 2.3422601E-02
3467.383, 2.3946481E-02
3469.312, 2.4981400E-02
3471.240, 2.3967739E-02
3473.168, 2.2096829E-02
3475.097, 2.1899151E-02
3477.025, 2.3077630E-02
3478.954, 2.5022229E-02
3480.882, 2.3481781E-02
3482.811, 2.0723060E-02
3484.739, 2.0459481E-02
3486.668, 2.2413800E-02
3488.596, 2.4355371E-02
3490.525, 2.5951261E-02
3492.453, 2.5836820E-02
3494.382, 2.2029011E-02
3496.310, 2.0225201E-02
3498.239, 2.1035090E-02
3500.167, 2.0378791E-02
3502.095, 1.8290700E-02
3504.024, 1.7198481E-02
3505.952, 1.6687330E-02
3507.881, 1.7005360E-02
3509.809, 1.3653430E-02
3511.738, 1.4151640E-02
3513.666, 1.6869539E-02
3515.595, 1.7298160E-02
3517.523, 1.5875749E-02
3519.452, 1.5035470E-02
3521.380, 1.3256200E-02
3523.309, 1.0309770E-02
3525.237, 1.0470650E-02
3527.166, 9.3319779E-03
3529.094, 5.8702799E-03
3531.022, 7.3396801E-03
3532.951, 1.1287110E-02
3534.879, 1.1911070E-02
3536.808, 1.0785630E-02
3538.736, 9.8429183E-03
3540.665, 7.7204760E-03
3542.593, 7.2389520E-03
3544.522, 7.5726151E-03
3546.450, 9.3177408E-03
3548.379, 9.9422745E-03
3550.307, 9.0037482E-03
3552.236, 1.1578170E-02
3554.164, 1.2686990E-02
3556.093, 9.3537429E-03
3558.021, 8.8671464E-03
3559.949, 8.0742240E-03
3561.878, 7.4992799E-03
3563.806, 9.9144336E-03
3565.735, 1.0545730E-02
3567.663, 8.0730626E-03
3569.592, 6.0992418E-03
3571.520, 6.3701100E-03
3573.449, 9.2235822E-03
3575.377, 7.9546468E-03
3577.306, 8.3280765E-03
3579.234, 1.0947730E-02
3581.163, 1.1597370E-02
3583.091, 9.9108508E-03
3585.020, 7.6215328E-03
3586.948, 6.4847469E-03
3588.876, 6.4959950E-03
3590.805, 7.1573318E-03
3592.733, 7.0768679E-03
3594.662, 7.7418569E-03
3596.590, 8.9485254E-03
3598.519, 8.3254362E-03
3600.447, 7.0563508E-03
3602.376, 7.0609688E-03
3604.304, 9.3127145E-03
3606.233, 8.8275904E-03
3608.161, 5.3043258E-03
3610.090, 4.9855351E-03
3612.018, 7.5738202E-03
3613.947, 8.5839760E-03
3615.875, 7.9344437E-03
3617.803, 5.7516862E-03
3619.732, 5.0090770E-03
3621.660, 4.7895340E-03
3623.589, 2.5252930E-03
3625.517, 4.0416052E-03
3627.446, 8.3338777E-03
3629.374, 7.5315498E-03
3631.303, 4.7753728E-03
3633.231, 4.9173799E-03
3635.160, 3.9329301E-03
3637.088, 6.0692732E-03
3639.017, 6.5497002E-03
3640.945, 5.0771609E-03
3642.874, 4.6873200E-03
3644.802, 3.4132930E-03
3646.730, 4.2153541E-03
3648.659, 6.0992609E-03
3650.587, 5.8719148E-03
3652.516, 6.4787241E-03
3654.444, 5.1630409E-03
3656.373, 2.2616710E-03
3658.301, 5.0229309E-03
3660.230, 7.7936142E-03
3662.158, 7.4694948E-03
3664.087, 6.7247851E-03
3666.015, 5.1614740E-03
3667.944, 3.4259520E-03
3669.872, 3.8630939E-03
3671.801, 7.6693450E-03
3673.729, 6.1602318E-03
3675.657, 2.9013441E-03
3677.586, 3.7099861E-03
3679.514, 7.0786830E-03
3681.443, 8.3702570E-03
3683.371, 6.9941650E-03
3685.300, 9.1930646E-03
3687.228, 9.3973158E-03
3689.157, 5.4064710E-03
3691.085, 3.5958751E-03
3693.014, 3.5888010E-03
3694.942, 6.7967828E-03
3696.871, 1.0409260E-02
3698.799, 8.9459717E-03
3700.728, 5.1888190E-03
3702.656, 6.2951972E-03
3704.584, 7.4044690E-03
3706.513, 7.5246729E-03
3708.441, 4.6626241E-03
3710.370, 4.8654168E-03
3712.298, 5.4888902E-03
3714.227, 3.6809570E-03
3716.155, 3.8615791E-03
3718.084, 5.0807912E-03
3720.012, 4.6166000E-03
3721.941, 2.6694310E-03
3723.869, 5.3804619E-03
3725.798, 7.9275174E-03
3727.726, 6.6442508E-03
3729.655, 6.6681630E-03
3731.583, 5.9720380E-03
3733.511, 3.2118740E-03
3735.440, -1.0389660E-03
3737.368, 9.5045741E-04
3739.297, 7.1067070E-03
3741.225, 9.2206169E-03
3743.154, 8.1657460E-03
3745.082, 7.8010890E-03
3747.011, 8.7549835E-03
3748.939, 7.1165478E-03
3750.868, 5.3977752E-03
3752.796, 7.0324531E-03
3754.725, 1.1797000E-02
3756.653, 1.1274810E-02
3758.582, 9.1029610E-03
3760.510, 7.2686700E-03
3762.438, 4.9805860E-03
3764.367, 3.8544161E-03
3766.295, 6.4948541E-03
3768.224, 9.0290112E-03
3770.152, 9.1906544E-03
3772.081, 6.5451111E-03
3774.009, 7.9094684E-03
3775.938, 7.7288421E-03
3777.866, 7.5088129E-03
3779.795, 7.5676269E-03
3781.723, 7.0489072E-03
3783.652, 7.8469133E-03
3785.580, 6.9602341E-03
3787.509, 9.7903674E-03
3789.437, 9.4038397E-03
3791.365, 5.6957998E-03
3793.294, 7.1335891E-03
3795.222, 9.1240508E-03
3797.151, 6.8085459E-03
3799.079, 6.2623839E-03
3801.008, 9.2429481E-03
3802.936, 9.0289433E-03
3804.865, 6.0042888E-03
3806.793, 6.5392372E-03
3808.722, 1.1163990E-02
3810.650, 1.1681630E-02
3812.579, 9.5563047E-03
3814.507, 9.7995084E-03
3816.436, 7.3131341E-03
3818.364, 5.4056719E-03
3820.292, 8.6786970E-03
3822.221, 9.1597941E-03
3824.149, 7.5159040E-03
3826.078, 8.3314832E-03
3828.006, 8.3893510E-03
3829.935, 8.3094006E-03
3831.863, 8.4792189E-03
3833.792, 8.3486643E-03
3835.720, 7.4820882E-03
3837.649, 5.6072460E-03
3839.577, 6.7780819E-03
3841.506, 9.2165042E-03
3843.434, 8.1325145E-03
3845.363, 7.2675948E-03
3847.291, 1.1062090E-02
3849.219, 1.1744250E-02
3851.148, 8.8414084E-03
3853.076, 7.6031508E-03
3855.005, 6.2714880E-03
3856.933, 7.1575209E-03
3858.862, 1.1459900E-02
3860.790, 1.1208820E-02
3862.719, 7.2370251E-03
3864.647, 6.5816669E-03
3866.576, 8.7945303E-03
3868.504, 1.1011990E-02
3870.433, 1.1272060E-02
3872.361, 7.6503558E-03
3874.290, 8.4505295E-03
3876.218, 1.3294370E-02
3878.146, 1.1582250E-02
3880.075, 8.3007393E-03
3882.003, 8.0865566E-03
3883.932, 9.0071065E-03
3885.860, 8.8884830E-03
3887.789, 8.4939571E-03
3889.717, 8.1515778E-03
3891.646, 9.4529800E-03
3893.574, 9.0979515E-03
3895.503, 8.8643460E-03
3897.431, 1.1026090E-02
3899.360, 1.1273450E-02
3901.288, 1.0153010E-02
3903.217, 8.6563500E-03
3905.145, 5.1813070E-03
3907.073, 6.0472200E-03
3909.002, 8.1797587E-03
3910.930, 1.1679640E-02
3912.859, 1.0708170E-02
3914.787, 7.9800766E-03
3916.716, 6.1031692E-03
3918.644, 6.0160039E-03
3920.573, 1.0786280E-02
3922.501, 1.0724750E-02
3924.430, 6.6051562E-03
3926.358, 7.1513969E-03
3928.287, 7.4873301E-03
3930.215, 5.9696031E-03
3932.144, 6.2005650E-03
3934.072, 7.5337072E-03
3936.000, 8.3391285E-03
3937.929, 8.0758845E-03
3939.857, 5.9808432E-03
3941.786, 1.0174580E-02
3943.714, 1.4016410E-02
3945.643, 1.2227770E-02
3947.571, 9.8111294E-03
3949.500, 9.9292463E-03
3951.428, 1.0454730E-02
3953.357, 7.9384139E-03
3955.285, 7.2989748E-03
3957.214, 8.0170287E-03
3959.142, 1.0176360E-02
3961.071, 1.1906960E-02
3962.999, 9.4679836E-03
3964.927, 9.5832935E-03
3966.856, 1.1652390E-02
3968.784, 1.2345850E-02
3970.713, 1.2840880E-02
3972.641, 1.3571340E-02
3974.570, 1.3037260E-02
3976.498, 1.1335450E-02
3978.427, 9.6673537E-03
3980.355, 9.8423390E-03
3982.284, 1.2957800E-02
3984.212, 1.5214660E-02
3986.141, 8.5776877E-03
3988.069, 6.3021490E-03
3989.998, 8.2486859E-03
3991.926, 1.0206470E-02
3993.854, 1.3502570E-02
3995.783, 1.2536780E-02
3997.711, 9.4586154E-03
3999.640, 9.4631780E-03
##END=



