##NAMES=Dolomite
##RRUFFID=R050129
##IDEAL CHEMISTRY=CaMg(CO_3_)_2_
##LOCALITY=Black Cloud mine, Leadville, Lake County, Colorado, USA
##OWNER=RRUFF
##SOURCE=Dave Bunk Minerals
##DESCRIPTION=Aggregate of colorless to white rhombohedra
##STATUS=The identification of this mineral has been confirmed by X-ray diffraction and chemical analysis
##URL=rruff.info/R050129
##MEASURED CHEMISTRY=Ca(Mg_0.62_Fe^2+^_0.33_Mn_0.05_)_Î£=1_(CO_3_)_2_ ; CO_2_ estimated by difference
3.741225e+002, 1.366249e-001
3.760510e+002, 1.345773e-001
3.779795e+002, 1.202001e-001
3.799079e+002, 1.153294e-001
3.818364e+002, 1.183865e-001
3.837649e+002, 1.225872e-001
3.856933e+002, 1.178848e-001
3.876218e+002, 1.107724e-001
3.895503e+002, 1.100773e-001
3.914787e+002, 1.061643e-001
3.934072e+002, 9.785797e-002
3.953357e+002, 9.243095e-002
3.972641e+002, 9.209346e-002
3.991926e+002, 8.884194e-002
4.011211e+002, 8.233551e-002
4.030495e+002, 7.402931e-002
4.049780e+002, 6.945542e-002
4.069065e+002, 6.457352e-002
4.088349e+002, 6.168000e-002
4.107634e+002, 5.738799e-002
4.126919e+002, 5.294742e-002
4.146203e+002, 5.057838e-002
4.165488e+002, 4.740578e-002
4.184773e+002, 4.385466e-002
4.204057e+002, 4.105181e-002
4.223342e+002, 3.805889e-002
4.242627e+002, 3.587165e-002
4.261911e+002, 3.268632e-002
4.281196e+002, 3.038036e-002
4.300481e+002, 2.880903e-002
4.319765e+002, 2.831476e-002
4.339050e+002, 2.633794e-002
4.358335e+002, 2.405978e-002
4.377619e+002, 2.337974e-002
4.396904e+002, 2.320357e-002
4.416189e+002, 2.207125e-002
4.435473e+002, 2.181415e-002
4.454758e+002, 2.054045e-002
4.474043e+002, 1.938505e-002
4.493327e+002, 1.952398e-002
4.512612e+002, 1.911353e-002
4.531897e+002, 1.769879e-002
4.551181e+002, 1.673443e-002
4.570466e+002, 1.605127e-002
4.589751e+002, 1.600298e-002
4.609035e+002, 1.538257e-002
4.628320e+002, 1.496804e-002
4.647605e+002, 1.558908e-002
4.666889e+002, 1.636851e-002
4.686174e+002, 1.679678e-002
4.705459e+002, 1.663702e-002
4.724743e+002, 1.575904e-002
4.744028e+002, 1.492318e-002
4.763313e+002, 1.450034e-002
4.782597e+002, 1.411377e-002
4.801882e+002, 1.348831e-002
4.821167e+002, 1.326192e-002
4.840451e+002, 1.326236e-002
4.859736e+002, 1.326286e-002
4.879021e+002, 1.307342e-002
4.898305e+002, 1.343723e-002
4.917590e+002, 1.352431e-002
4.936875e+002, 1.295712e-002
4.956159e+002, 1.267518e-002
4.975444e+002, 1.286966e-002
4.994729e+002, 1.281177e-002
5.014013e+002, 1.256957e-002
5.033298e+002, 1.240570e-002
5.052583e+002, 1.208295e-002
5.071867e+002, 1.158795e-002
5.091152e+002, 1.120121e-002
5.110437e+002, 1.135812e-002
5.129721e+002, 1.123905e-002
5.149006e+002, 1.056480e-002
5.168290e+002, 1.035702e-002
5.187575e+002, 1.055330e-002
5.206860e+002, 1.024162e-002
5.226144e+002, 1.032646e-002
5.245429e+002, 1.005700e-002
5.264714e+002, 9.706114e-003
5.283998e+002, 9.700953e-003
5.303283e+002, 9.964652e-003
5.322568e+002, 1.057238e-002
5.341852e+002, 1.041595e-002
5.361137e+002, 9.952819e-003
5.380422e+002, 9.707206e-003
5.399706e+002, 9.787621e-003
5.418991e+002, 1.007763e-002
5.438276e+002, 9.882558e-003
5.457560e+002, 9.985436e-003
5.476845e+002, 1.001438e-002
5.496130e+002, 9.458769e-003
5.515414e+002, 9.155408e-003
5.534699e+002, 9.523928e-003
5.553984e+002, 9.670294e-003
5.573268e+002, 9.623248e-003
5.592553e+002, 9.807648e-003
5.611838e+002, 9.803234e-003
5.631122e+002, 9.342867e-003
5.650407e+002, 9.244204e-003
5.669692e+002, 9.217026e-003
5.688976e+002, 9.370791e-003
5.708261e+002, 9.490935e-003
5.727546e+002, 9.236065e-003
5.746830e+002, 9.031456e-003
5.766115e+002, 9.264019e-003
5.785400e+002, 9.259439e-003
5.804684e+002, 9.143395e-003
5.823969e+002, 8.969513e-003
5.843254e+002, 8.796789e-003
5.862538e+002, 9.119638e-003
5.881823e+002, 9.621410e-003
5.901108e+002, 9.355891e-003
5.920392e+002, 8.854094e-003
5.939677e+002, 8.737228e-003
5.958962e+002, 8.885658e-003
5.978246e+002, 9.086181e-003
5.997531e+002, 9.135455e-003
6.016816e+002, 8.950800e-003
6.036100e+002, 9.084214e-003
6.055385e+002, 9.241324e-003
6.074670e+002, 9.335830e-003
6.093954e+002, 9.246025e-003
6.113239e+002, 9.217481e-003
6.132524e+002, 9.387461e-003
6.151808e+002, 9.526717e-003
6.171093e+002, 9.510328e-003
6.190378e+002, 9.658766e-003
6.209662e+002, 9.915218e-003
6.228947e+002, 1.011449e-002
6.248232e+002, 1.002337e-002
6.267516e+002, 1.000061e-002
6.286801e+002, 1.012962e-002
6.306086e+002, 1.045142e-002
6.325370e+002, 1.062881e-002
6.344655e+002, 1.074570e-002
6.363940e+002, 1.076036e-002
6.383224e+002, 1.075590e-002
6.402509e+002, 1.082335e-002
6.421794e+002, 1.093202e-002
6.441078e+002, 1.086598e-002
6.460363e+002, 1.097279e-002
6.479648e+002, 1.107344e-002
6.498932e+002, 1.100912e-002
6.518217e+002, 1.098121e-002
6.537502e+002, 1.101307e-002
6.556786e+002, 1.085426e-002
6.576071e+002, 1.081224e-002
6.595356e+002, 1.090033e-002
6.614641e+002, 1.133314e-002
6.633925e+002, 1.146994e-002
6.653210e+002, 1.145264e-002
6.672495e+002, 1.170175e-002
6.691779e+002, 1.193452e-002
6.711064e+002, 1.215087e-002
6.730349e+002, 1.242461e-002
6.749633e+002, 1.253686e-002
6.768918e+002, 1.281179e-002
6.788203e+002, 1.294165e-002
6.807487e+002, 1.293048e-002
6.826772e+002, 1.314934e-002
6.846057e+002, 1.355466e-002
6.865341e+002, 1.380977e-002
6.884626e+002, 1.415342e-002
6.903911e+002, 1.430601e-002
6.923195e+002, 1.450801e-002
6.942480e+002, 1.494156e-002
6.961765e+002, 1.525404e-002
6.981049e+002, 1.562989e-002
7.000334e+002, 1.645198e-002
7.019619e+002, 1.697146e-002
7.038903e+002, 1.753172e-002
7.058188e+002, 1.864838e-002
7.077473e+002, 1.984839e-002
7.096757e+002, 2.124928e-002
7.116042e+002, 2.343181e-002
7.135327e+002, 2.609594e-002
7.154611e+002, 2.959594e-002
7.173896e+002, 3.477010e-002
7.193181e+002, 4.287784e-002
7.212465e+002, 5.395214e-002
7.231750e+002, 6.708860e-002
7.251035e+002, 7.845580e-002
7.270319e+002, 7.982375e-002
7.289604e+002, 6.563122e-002
7.308889e+002, 4.494140e-002
7.328173e+002, 2.917381e-002
7.347458e+002, 2.047572e-002
7.366743e+002, 1.600259e-002
7.386027e+002, 1.372526e-002
7.405312e+002, 1.246853e-002
7.424597e+002, 1.180169e-002
7.443881e+002, 1.163530e-002
7.463166e+002, 1.167703e-002
7.482451e+002, 1.158602e-002
7.501735e+002, 1.164087e-002
7.521020e+002, 1.162929e-002
7.540305e+002, 1.165854e-002
7.559589e+002, 1.175024e-002
7.578874e+002, 1.191157e-002
7.598159e+002, 1.189187e-002
7.617443e+002, 1.207055e-002
7.636728e+002, 1.215019e-002
7.656013e+002, 1.232047e-002
7.675297e+002, 1.268653e-002
7.694582e+002, 1.299647e-002
7.713867e+002, 1.305897e-002
7.733151e+002, 1.291087e-002
7.752436e+002, 1.304922e-002
7.771721e+002, 1.341351e-002
7.791005e+002, 1.340959e-002
7.810290e+002, 1.349562e-002
7.829575e+002, 1.371410e-002
7.848859e+002, 1.406203e-002
7.868144e+002, 1.422063e-002
7.887429e+002, 1.449014e-002
7.906713e+002, 1.459587e-002
7.925998e+002, 1.492452e-002
7.945283e+002, 1.519457e-002
7.964567e+002, 1.544563e-002
7.983852e+002, 1.576037e-002
8.003137e+002, 1.583759e-002
8.022421e+002, 1.596221e-002
8.041706e+002, 1.626808e-002
8.060991e+002, 1.664893e-002
8.080275e+002, 1.702050e-002
8.099560e+002, 1.720612e-002
8.118845e+002, 1.734725e-002
8.138129e+002, 1.766943e-002
8.157414e+002, 1.817306e-002
8.176699e+002, 1.867061e-002
8.195983e+002, 1.916377e-002
8.215268e+002, 1.953709e-002
8.234553e+002, 2.014559e-002
8.253837e+002, 2.078969e-002
8.273122e+002, 2.126737e-002
8.292407e+002, 2.188950e-002
8.311691e+002, 2.276902e-002
8.330976e+002, 2.373505e-002
8.350261e+002, 2.501559e-002
8.369545e+002, 2.652752e-002
8.388830e+002, 2.818794e-002
8.408115e+002, 3.027979e-002
8.427399e+002, 3.325908e-002
8.446684e+002, 3.683467e-002
8.465969e+002, 4.090508e-002
8.485253e+002, 4.473791e-002
8.504538e+002, 4.743430e-002
8.523823e+002, 4.969705e-002
8.543107e+002, 5.299671e-002
8.562392e+002, 5.985554e-002
8.581677e+002, 7.010775e-002
8.600961e+002, 8.254284e-002
8.620246e+002, 9.821297e-002
8.639531e+002, 1.165071e-001
8.658815e+002, 1.359583e-001
8.678100e+002, 1.539029e-001
8.697385e+002, 1.671503e-001
8.716669e+002, 1.737321e-001
8.735954e+002, 1.735400e-001
8.755239e+002, 1.687157e-001
8.774523e+002, 1.610036e-001
8.793808e+002, 1.516142e-001
8.813093e+002, 1.375843e-001
8.832377e+002, 1.169071e-001
8.851662e+002, 9.335683e-002
8.870947e+002, 7.052595e-002
8.890231e+002, 5.069586e-002
8.909516e+002, 3.554199e-002
8.928801e+002, 2.629272e-002
8.948085e+002, 2.216817e-002
8.967370e+002, 2.074077e-002
8.986655e+002, 1.998389e-002
9.005939e+002, 1.971110e-002
9.025224e+002, 1.958295e-002
9.044509e+002, 1.952251e-002
9.063793e+002, 1.932443e-002
9.083078e+002, 1.939810e-002
9.102363e+002, 1.959677e-002
9.121647e+002, 1.964426e-002
9.140932e+002, 1.972052e-002
9.160217e+002, 1.997682e-002
9.179501e+002, 2.013140e-002
9.198786e+002, 2.029592e-002
9.218071e+002, 2.048422e-002
9.237355e+002, 2.051706e-002
9.256640e+002, 2.049301e-002
9.275925e+002, 2.088875e-002
9.295209e+002, 2.131130e-002
9.314494e+002, 2.152916e-002
9.333779e+002, 2.167554e-002
9.353063e+002, 2.197868e-002
9.372348e+002, 2.224248e-002
9.391633e+002, 2.246069e-002
9.410917e+002, 2.257654e-002
9.430202e+002, 2.299174e-002
9.449487e+002, 2.351424e-002
9.468771e+002, 2.383935e-002
9.488056e+002, 2.388903e-002
9.507341e+002, 2.406830e-002
9.526625e+002, 2.426728e-002
9.545910e+002, 2.444555e-002
9.565195e+002, 2.471193e-002
9.584479e+002, 2.499131e-002
9.603764e+002, 2.524719e-002
9.623049e+002, 2.569465e-002
9.642333e+002, 2.605883e-002
9.661618e+002, 2.646281e-002
9.680903e+002, 2.688532e-002
9.700187e+002, 2.728494e-002
9.719472e+002, 2.744991e-002
9.738757e+002, 2.760053e-002
9.758041e+002, 2.787329e-002
9.777326e+002, 2.817839e-002
9.796611e+002, 2.829360e-002
9.815895e+002, 2.851426e-002
9.835180e+002, 2.883098e-002
9.854465e+002, 2.917961e-002
9.873749e+002, 2.931027e-002
9.893034e+002, 2.955733e-002
9.912319e+002, 2.988362e-002
9.931603e+002, 3.035786e-002
9.950888e+002, 3.055713e-002
9.970173e+002, 3.057203e-002
9.989457e+002, 3.087757e-002
1.000874e+003, 3.113490e-002
1.002803e+003, 3.109984e-002
1.004731e+003, 3.112565e-002
1.006660e+003, 3.148105e-002
1.008588e+003, 3.193414e-002
1.010517e+003, 3.205784e-002
1.012445e+003, 3.222571e-002
1.014373e+003, 3.252249e-002
1.016302e+003, 3.282413e-002
1.018230e+003, 3.331161e-002
1.020159e+003, 3.381260e-002
1.022087e+003, 3.404473e-002
1.024016e+003, 3.438765e-002
1.025944e+003, 3.466934e-002
1.027873e+003, 3.519767e-002
1.029801e+003, 3.572154e-002
1.031730e+003, 3.608776e-002
1.033658e+003, 3.638085e-002
1.035587e+003, 3.669066e-002
1.037515e+003, 3.708058e-002
1.039443e+003, 3.760808e-002
1.041372e+003, 3.799250e-002
1.043300e+003, 3.848766e-002
1.045229e+003, 3.886758e-002
1.047157e+003, 3.949349e-002
1.049086e+003, 3.988671e-002
1.051014e+003, 4.023858e-002
1.052943e+003, 4.052851e-002
1.054871e+003, 4.076118e-002
1.056800e+003, 4.122745e-002
1.058728e+003, 4.168200e-002
1.060657e+003, 4.185329e-002
1.062585e+003, 4.200585e-002
1.064514e+003, 4.231239e-002
1.066442e+003, 4.283026e-002
1.068370e+003, 4.320419e-002
1.070299e+003, 4.367964e-002
1.072227e+003, 4.396758e-002
1.074156e+003, 4.441073e-002
1.076084e+003, 4.508634e-002
1.078013e+003, 4.569257e-002
1.079941e+003, 4.616331e-002
1.081870e+003, 4.663761e-002
1.083798e+003, 4.725640e-002
1.085727e+003, 4.796996e-002
1.087655e+003, 4.846818e-002
1.089584e+003, 4.894043e-002
1.091512e+003, 4.932810e-002
1.093441e+003, 4.993074e-002
1.095369e+003, 5.022286e-002
1.097297e+003, 5.031172e-002
1.099226e+003, 5.019577e-002
1.101154e+003, 4.998991e-002
1.103083e+003, 5.002025e-002
1.105011e+003, 5.035926e-002
1.106940e+003, 5.056040e-002
1.108868e+003, 5.098579e-002
1.110797e+003, 5.131502e-002
1.112725e+003, 5.165879e-002
1.114654e+003, 5.224411e-002
1.116582e+003, 5.291517e-002
1.118511e+003, 5.345085e-002
1.120439e+003, 5.389859e-002
1.122368e+003, 5.432995e-002
1.124296e+003, 5.514196e-002
1.126224e+003, 5.576728e-002
1.128153e+003, 5.623766e-002
1.130081e+003, 5.673980e-002
1.132010e+003, 5.729426e-002
1.133938e+003, 5.779143e-002
1.135867e+003, 5.837115e-002
1.137795e+003, 5.912067e-002
1.139724e+003, 5.990056e-002
1.141652e+003, 6.043202e-002
1.143581e+003, 6.104368e-002
1.145509e+003, 6.147365e-002
1.147438e+003, 6.187143e-002
1.149366e+003, 6.240838e-002
1.151295e+003, 6.301898e-002
1.153223e+003, 6.344950e-002
1.155151e+003, 6.406451e-002
1.157080e+003, 6.458855e-002
1.159008e+003, 6.497642e-002
1.160937e+003, 6.548750e-002
1.162865e+003, 6.622174e-002
1.164794e+003, 6.680176e-002
1.166722e+003, 6.730034e-002
1.168651e+003, 6.781367e-002
1.170579e+003, 6.842281e-002
1.172508e+003, 6.896302e-002
1.174436e+003, 6.947847e-002
1.176365e+003, 6.992136e-002
1.178293e+003, 7.049810e-002
1.180222e+003, 7.118060e-002
1.182150e+003, 7.201299e-002
1.184078e+003, 7.265740e-002
1.186007e+003, 7.325178e-002
1.187935e+003, 7.394876e-002
1.189864e+003, 7.455799e-002
1.191792e+003, 7.511239e-002
1.193721e+003, 7.599502e-002
1.195649e+003, 7.666711e-002
1.197578e+003, 7.729124e-002
1.199506e+003, 7.816008e-002
1.201435e+003, 7.905804e-002
1.203363e+003, 7.983445e-002
1.205292e+003, 8.076742e-002
1.207220e+003, 8.157630e-002
1.209149e+003, 8.241089e-002
1.211077e+003, 8.346126e-002
1.213005e+003, 8.446624e-002
1.214934e+003, 8.536465e-002
1.216862e+003, 8.625250e-002
1.218791e+003, 8.708153e-002
1.220719e+003, 8.815659e-002
1.222648e+003, 8.936788e-002
1.224576e+003, 9.055179e-002
1.226505e+003, 9.145467e-002
1.228433e+003, 9.226023e-002
1.230362e+003, 9.333671e-002
1.232290e+003, 9.454381e-002
1.234219e+003, 9.553871e-002
1.236147e+003, 9.653673e-002
1.238076e+003, 9.779926e-002
1.240004e+003, 9.896402e-002
1.241932e+003, 1.000346e-001
1.243861e+003, 1.013420e-001
1.245789e+003, 1.026421e-001
1.247718e+003, 1.039302e-001
1.249646e+003, 1.052912e-001
1.251575e+003, 1.067324e-001
1.253503e+003, 1.081182e-001
1.255432e+003, 1.094645e-001
1.257360e+003, 1.106903e-001
1.259289e+003, 1.121605e-001
1.261217e+003, 1.137196e-001
1.263146e+003, 1.152050e-001
1.265074e+003, 1.165545e-001
1.267003e+003, 1.181366e-001
1.268931e+003, 1.197309e-001
1.270859e+003, 1.212817e-001
1.272788e+003, 1.229069e-001
1.274716e+003, 1.246745e-001
1.276645e+003, 1.263917e-001
1.278573e+003, 1.281777e-001
1.280502e+003, 1.299867e-001
1.282430e+003, 1.318426e-001
1.284359e+003, 1.338240e-001
1.286287e+003, 1.359265e-001
1.288216e+003, 1.378267e-001
1.290144e+003, 1.396854e-001
1.292073e+003, 1.417539e-001
1.294001e+003, 1.438687e-001
1.295930e+003, 1.457191e-001
1.297858e+003, 1.476161e-001
1.299786e+003, 1.498269e-001
1.301715e+003, 1.520378e-001
1.303643e+003, 1.542041e-001
1.305572e+003, 1.565168e-001
1.307500e+003, 1.589483e-001
1.309429e+003, 1.614479e-001
1.311357e+003, 1.638664e-001
1.313286e+003, 1.664358e-001
1.315214e+003, 1.689991e-001
1.317143e+003, 1.716951e-001
1.319071e+003, 1.744951e-001
1.321000e+003, 1.771179e-001
1.322928e+003, 1.797921e-001
1.324857e+003, 1.826169e-001
1.326785e+003, 1.854408e-001
1.328714e+003, 1.884848e-001
1.330642e+003, 1.915116e-001
1.332570e+003, 1.947290e-001
1.334499e+003, 1.978484e-001
1.336427e+003, 2.010634e-001
1.338356e+003, 2.044079e-001
1.340284e+003, 2.077590e-001
1.342213e+003, 2.111960e-001
1.344141e+003, 2.149212e-001
1.346070e+003, 2.185585e-001
1.347998e+003, 2.222797e-001
1.349927e+003, 2.260909e-001
1.351855e+003, 2.298888e-001
1.353784e+003, 2.336692e-001
1.355712e+003, 2.376855e-001
1.357641e+003, 2.418749e-001
1.359569e+003, 2.461749e-001
1.361497e+003, 2.506777e-001
1.363426e+003, 2.551072e-001
1.365354e+003, 2.593900e-001
1.367283e+003, 2.638781e-001
1.369211e+003, 2.684418e-001
1.371140e+003, 2.731766e-001
1.373068e+003, 2.778573e-001
1.374997e+003, 2.825703e-001
1.376925e+003, 2.873096e-001
1.378854e+003, 2.922043e-001
1.380782e+003, 2.969094e-001
1.382711e+003, 3.018730e-001
1.384639e+003, 3.066648e-001
1.386568e+003, 3.116535e-001
1.388496e+003, 3.166811e-001
1.390424e+003, 3.215927e-001
1.392353e+003, 3.260423e-001
1.394281e+003, 3.298980e-001
1.396210e+003, 3.330607e-001
1.398138e+003, 3.359923e-001
1.400067e+003, 3.385235e-001
1.401995e+003, 3.409624e-001
1.403924e+003, 3.430046e-001
1.405852e+003, 3.445267e-001
1.407781e+003, 3.455641e-001
1.409709e+003, 3.461895e-001
1.411638e+003, 3.461538e-001
1.413566e+003, 3.457873e-001
1.415495e+003, 3.447086e-001
1.417423e+003, 3.429498e-001
1.419351e+003, 3.401590e-001
1.421280e+003, 3.364451e-001
1.423208e+003, 3.322333e-001
1.425137e+003, 3.277086e-001
1.427065e+003, 3.227365e-001
1.428994e+003, 3.175463e-001
1.430922e+003, 3.123131e-001
1.432851e+003, 3.073800e-001
1.434779e+003, 3.023469e-001
1.436708e+003, 2.976653e-001
1.438636e+003, 2.931790e-001
1.440565e+003, 2.888445e-001
1.442493e+003, 2.846194e-001
1.444422e+003, 2.807174e-001
1.446350e+003, 2.770230e-001
1.448278e+003, 2.730167e-001
1.450207e+003, 2.687215e-001
1.452135e+003, 2.645575e-001
1.454064e+003, 2.602848e-001
1.455992e+003, 2.560510e-001
1.457921e+003, 2.512806e-001
1.459849e+003, 2.461872e-001
1.461778e+003, 2.410087e-001
1.463706e+003, 2.359792e-001
1.465635e+003, 2.308425e-001
1.467563e+003, 2.254914e-001
1.469492e+003, 2.205839e-001
1.471420e+003, 2.164008e-001
1.473349e+003, 2.119027e-001
1.475277e+003, 2.073480e-001
1.477205e+003, 2.029063e-001
1.479134e+003, 1.984218e-001
1.481062e+003, 1.939730e-001
1.482991e+003, 1.897269e-001
1.484919e+003, 1.853524e-001
1.486848e+003, 1.811177e-001
1.488776e+003, 1.769525e-001
1.490705e+003, 1.726810e-001
1.492633e+003, 1.681389e-001
1.494562e+003, 1.638647e-001
1.496490e+003, 1.594372e-001
1.498419e+003, 1.546780e-001
1.500347e+003, 1.496464e-001
1.502276e+003, 1.448629e-001
1.504204e+003, 1.406294e-001
1.506132e+003, 1.366902e-001
1.508061e+003, 1.319497e-001
1.509989e+003, 1.272350e-001
1.511918e+003, 1.229344e-001
1.513846e+003, 1.187530e-001
1.515775e+003, 1.147932e-001
1.517703e+003, 1.110506e-001
1.519632e+003, 1.074517e-001
1.521560e+003, 1.038658e-001
1.523489e+003, 1.000299e-001
1.525417e+003, 9.657291e-002
1.527346e+003, 9.301901e-002
1.529274e+003, 8.948132e-002
1.531203e+003, 8.610782e-002
1.533131e+003, 8.299716e-002
1.535059e+003, 7.966856e-002
1.536988e+003, 7.663632e-002
1.538916e+003, 7.378149e-002
1.540845e+003, 7.074349e-002
1.542773e+003, 6.727817e-002
1.544702e+003, 6.381086e-002
1.546630e+003, 6.043588e-002
1.548559e+003, 5.704277e-002
1.550487e+003, 5.361341e-002
1.552416e+003, 5.027126e-002
1.554344e+003, 4.667440e-002
1.556273e+003, 4.291726e-002
1.558201e+003, 3.914700e-002
1.560130e+003, 3.475689e-002
1.562058e+003, 2.995087e-002
1.563986e+003, 2.572454e-002
1.565915e+003, 2.188608e-002
1.567843e+003, 1.874536e-002
1.569772e+003, 1.639178e-002
1.571700e+003, 1.470092e-002
1.573629e+003, 1.343999e-002
1.575557e+003, 1.282265e-002
1.577486e+003, 1.208943e-002
1.579414e+003, 1.136828e-002
1.581343e+003, 1.092716e-002
1.583271e+003, 1.061808e-002
1.585200e+003, 1.026919e-002
1.587128e+003, 1.000006e-002
1.589057e+003, 9.901266e-003
1.590985e+003, 9.990454e-003
1.592913e+003, 9.718227e-003
1.594842e+003, 9.429733e-003
1.596770e+003, 9.097221e-003
1.598699e+003, 8.845163e-003
1.600627e+003, 8.508973e-003
1.602556e+003, 8.103246e-003
1.604484e+003, 7.817347e-003
1.606413e+003, 7.579179e-003
1.608341e+003, 7.297103e-003
1.610270e+003, 6.971012e-003
1.612198e+003, 6.669087e-003
1.614127e+003, 6.408331e-003
1.616055e+003, 6.212456e-003
1.617984e+003, 5.857039e-003
1.619912e+003, 5.538164e-003
1.621840e+003, 5.686136e-003
1.623769e+003, 5.375892e-003
1.625697e+003, 5.045345e-003
1.627626e+003, 4.901323e-003
1.629554e+003, 4.699035e-003
1.631483e+003, 4.682067e-003
1.633411e+003, 4.935748e-003
1.635340e+003, 4.805834e-003
1.637268e+003, 4.318421e-003
1.639197e+003, 3.905602e-003
1.641125e+003, 3.662010e-003
1.643054e+003, 3.536636e-003
1.644982e+003, 3.760690e-003
1.646911e+003, 3.684793e-003
1.648839e+003, 3.342898e-003
1.650767e+003, 3.303837e-003
1.652696e+003, 3.692784e-003
1.654624e+003, 3.380296e-003
1.656553e+003, 2.997979e-003
1.658481e+003, 2.793354e-003
1.660410e+003, 2.793233e-003
1.662338e+003, 2.820033e-003
1.664267e+003, 2.642522e-003
1.666195e+003, 2.489234e-003
1.668124e+003, 2.578641e-003
1.670052e+003, 2.390392e-003
1.671981e+003, 2.086458e-003
1.673909e+003, 2.018727e-003
1.675838e+003, 2.073062e-003
1.677766e+003, 1.844624e-003
1.679694e+003, 1.869956e-003
1.681623e+003, 1.964225e-003
1.683551e+003, 2.252967e-003
1.685480e+003, 2.203004e-003
1.687408e+003, 1.987801e-003
1.689337e+003, 1.757746e-003
1.691265e+003, 1.557783e-003
1.693194e+003, 1.549383e-003
1.695122e+003, 2.097143e-003
1.697051e+003, 1.978863e-003
1.698979e+003, 1.869696e-003
1.700908e+003, 1.810687e-003
1.702836e+003, 1.515349e-003
1.704765e+003, 1.406701e-003
1.706693e+003, 1.443137e-003
1.708621e+003, 1.370406e-003
1.710550e+003, 1.130668e-003
1.712478e+003, 9.643196e-004
1.714407e+003, 1.236426e-003
1.716335e+003, 1.472487e-003
1.718264e+003, 1.370839e-003
1.720192e+003, 9.004668e-004
1.722121e+003, 8.840521e-004
1.724049e+003, 1.237143e-003
1.725978e+003, 1.337920e-003
1.727906e+003, 1.129010e-003
1.729835e+003, 1.203806e-003
1.731763e+003, 1.685080e-003
1.733692e+003, 2.078325e-003
1.735620e+003, 1.790166e-003
1.737548e+003, 1.275491e-003
1.739477e+003, 8.601866e-004
1.741405e+003, 6.228949e-004
1.743334e+003, 5.102253e-004
1.745262e+003, 3.231516e-004
1.747191e+003, 2.075694e-004
1.749119e+003, 3.816742e-004
1.751048e+003, 4.843251e-004
1.752976e+003, 4.325522e-004
1.754905e+003, 3.567577e-004
1.756833e+003, 4.430559e-004
1.758762e+003, 3.411591e-004
1.760690e+003, 5.134953e-004
1.762619e+003, 7.801315e-004
1.764547e+003, 9.655989e-004
1.766475e+003, 1.070098e-003
1.768404e+003, 1.218968e-003
1.770332e+003, 1.415083e-003
1.772261e+003, 2.045542e-003
1.774189e+003, 1.961245e-003
1.776118e+003, 1.546832e-003
1.778046e+003, 1.482398e-003
1.779975e+003, 1.804524e-003
1.781903e+003, 2.296878e-003
1.783832e+003, 2.687041e-003
1.785760e+003, 2.792019e-003
1.787689e+003, 2.966379e-003
1.789617e+003, 3.037797e-003
1.791546e+003, 3.578731e-003
1.793474e+003, 4.094730e-003
1.795402e+003, 4.448100e-003
1.797331e+003, 4.924262e-003
1.799259e+003, 5.483246e-003
1.801188e+003, 6.006462e-003
1.803116e+003, 6.774737e-003
1.805045e+003, 7.469421e-003
1.806973e+003, 8.055292e-003
1.808902e+003, 8.190580e-003
1.810830e+003, 8.290927e-003
1.812759e+003, 8.274990e-003
1.814687e+003, 8.035493e-003
1.816616e+003, 7.594480e-003
1.818544e+003, 7.291232e-003
1.820473e+003, 6.574531e-003
1.822401e+003, 5.647299e-003
1.824329e+003, 4.791253e-003
1.826258e+003, 4.017701e-003
1.828186e+003, 3.139086e-003
1.830115e+003, 2.796800e-003
1.832043e+003, 2.645642e-003
1.833972e+003, 2.258014e-003
1.835900e+003, 1.706060e-003
1.837829e+003, 1.289878e-003
1.839757e+003, 8.880505e-004
1.841686e+003, 1.355053e-003
1.843614e+003, 1.891022e-003
1.845543e+003, 1.951417e-003
1.847471e+003, 1.357286e-003
1.849400e+003, 1.261480e-003
1.851328e+003, 1.240187e-003
1.853256e+003, 1.164053e-003
1.855185e+003, 1.242093e-003
1.857113e+003, 1.107997e-003
1.859042e+003, 9.776523e-004
1.860970e+003, 9.573060e-004
1.862899e+003, 9.570002e-004
1.864827e+003, 1.195763e-003
1.866756e+003, 1.385209e-003
1.868684e+003, 1.519194e-003
1.870613e+003, 1.444013e-003
1.872541e+003, 1.004630e-003
1.874470e+003, 6.112554e-004
1.876398e+003, 5.981338e-004
1.878327e+003, 6.737399e-004
1.880255e+003, 9.485767e-004
1.882183e+003, 1.043273e-003
1.884112e+003, 1.500026e-003
1.886040e+003, 1.513144e-003
1.887969e+003, 1.358466e-003
1.889897e+003, 1.051686e-003
1.891826e+003, 8.818705e-004
1.893754e+003, 7.359207e-004
1.895683e+003, 1.129311e-003
1.897611e+003, 1.223081e-003
1.899540e+003, 9.466483e-004
1.901468e+003, 5.606047e-004
1.903397e+003, 9.483178e-004
1.905325e+003, 8.559955e-004
1.907254e+003, 8.729935e-004
1.909182e+003, 1.103210e-003
1.911110e+003, 7.777785e-004
1.913039e+003, 4.816251e-004
1.914967e+003, 1.013416e-003
1.916896e+003, 1.349633e-003
1.918824e+003, 1.240065e-003
1.920753e+003, 9.451779e-004
1.922681e+003, 1.392568e-003
1.924610e+003, 1.368989e-003
1.926538e+003, 9.891177e-004
1.928467e+003, 8.898673e-004
1.930395e+003, 1.221792e-003
1.932324e+003, 5.590664e-004
1.934252e+003, 7.883512e-004
1.936181e+003, 6.168052e-004
1.938109e+003, 6.967257e-004
1.940037e+003, 7.187783e-004
1.941966e+003, 6.275989e-004
1.943894e+003, 1.358836e-003
1.945823e+003, 1.445107e-003
1.947751e+003, 8.002950e-005
1.949680e+003, 4.043035e-004
1.951608e+003, 6.003007e-004
1.953537e+003, -1.060188e-004
1.955465e+003, -9.358649e-004
1.957394e+003, -6.612777e-004
1.959322e+003, 6.166412e-004
1.961251e+003, 1.402017e-003
1.963179e+003, 8.723502e-004
1.965108e+003, 1.049599e-003
1.967036e+003, 3.451107e-004
1.968964e+003, -1.059294e-003
1.970893e+003, -1.058179e-003
1.972821e+003, -7.739167e-005
1.974750e+003, -3.398490e-004
1.976678e+003, 6.403902e-004
1.978607e+003, 2.552008e-003
1.980535e+003, 3.384799e-003
1.982464e+003, 1.877279e-003
1.984392e+003, 1.337491e-003
1.986321e+003, 1.416510e-003
1.988249e+003, 2.500487e-003
1.990178e+003, 2.190354e-003
1.992106e+003, 8.002371e-004
1.994035e+003, 3.521625e-005
1.995963e+003, 3.644106e-004
1.997891e+003, 5.800240e-004
1.999820e+003, 3.902390e-004
2.001748e+003, 2.982529e-004
2.003677e+003, 3.068419e-004
2.005605e+003, 1.177027e-003
2.007534e+003, 2.689397e-003
2.009462e+003, 1.421676e-003
2.011391e+003, -1.347468e-004
2.013319e+003, -5.262455e-004
2.015248e+003, 1.218659e-003
2.017176e+003, 1.151693e-003
2.019105e+003, 4.065853e-004
2.021033e+003, -6.255649e-004
2.022962e+003, -1.748610e-004
2.024890e+003, 8.087728e-004
2.026818e+003, 1.647753e-003
2.028747e+003, 1.617669e-003
2.030675e+003, 1.743246e-003
2.032604e+003, 1.095899e-003
2.034532e+003, 5.165964e-004
2.036461e+003, 3.190174e-004
2.038389e+003, 1.830471e-003
2.040318e+003, 2.732231e-003
2.042246e+003, 2.584411e-003
2.044175e+003, 2.048742e-003
2.046103e+003, 2.599219e-003
2.048031e+003, 3.440134e-003
2.049960e+003, 3.825505e-003
2.051888e+003, 2.600295e-003
2.053817e+003, 1.469756e-003
2.055745e+003, 2.212940e-003
2.057674e+003, 2.975373e-003
2.059602e+003, 2.675572e-003
2.061531e+003, 2.089963e-003
2.063459e+003, 2.039768e-003
2.065388e+003, 3.054094e-003
2.067316e+003, 3.340097e-003
2.069245e+003, 3.274191e-003
2.071173e+003, 3.614389e-003
2.073102e+003, 4.110036e-003
2.075030e+003, 3.314122e-003
2.076958e+003, 3.323419e-003
2.078887e+003, 3.564434e-003
2.080815e+003, 3.742257e-003
2.082744e+003, 3.743993e-003
2.084672e+003, 3.752038e-003
2.086601e+003, 3.099475e-003
2.088529e+003, 2.839553e-003
2.090458e+003, 2.904155e-003
2.092386e+003, 3.151549e-003
2.094315e+003, 2.998626e-003
2.096243e+003, 2.572150e-003
2.098172e+003, 2.332977e-003
2.100100e+003, 2.822617e-003
2.102029e+003, 3.308870e-003
2.103957e+003, 3.303789e-003
2.105885e+003, 2.986070e-003
2.107814e+003, 2.835647e-003
2.109742e+003, 3.287688e-003
2.111671e+003, 4.019863e-003
2.113599e+003, 3.269662e-003
2.115528e+003, 2.870072e-003
2.117456e+003, 3.118416e-003
2.119385e+003, 3.028602e-003
2.121313e+003, 2.779427e-003
2.123242e+003, 3.052749e-003
2.125170e+003, 3.209902e-003
2.127099e+003, 2.607537e-003
2.129027e+003, 1.182143e-003
2.130956e+003, 5.467315e-004
2.132884e+003, 6.769934e-004
2.134813e+003, 2.150146e-003
2.136741e+003, 1.876934e-003
2.138669e+003, 1.174158e-003
2.140598e+003, 1.414218e-003
2.142526e+003, 1.510556e-003
2.144455e+003, 8.635697e-004
2.146383e+003, 1.449167e-003
2.148312e+003, 2.206695e-003
2.150240e+003, 1.864948e-003
2.152169e+003, 6.188908e-004
2.154097e+003, 3.683621e-004
2.156026e+003, 8.737255e-005
2.157954e+003, 6.287827e-004
2.159883e+003, 2.887389e-003
2.161811e+003, 4.298500e-003
2.163740e+003, 4.443222e-003
2.165668e+003, 3.940833e-003
2.167596e+003, 2.018472e-003
2.169525e+003, 7.017163e-004
2.171453e+003, 1.051329e-003
2.173382e+003, 1.773182e-003
2.175310e+003, 1.952487e-003
2.177239e+003, 2.302792e-003
2.179167e+003, 2.120062e-003
2.181096e+003, 1.805107e-003
2.183024e+003, 1.967166e-003
2.184953e+003, 2.540454e-003
2.186881e+003, 3.185179e-003
2.188810e+003, 1.992584e-003
2.190738e+003, 1.226584e-003
2.192667e+003, 2.717568e-003
2.194595e+003, 3.046857e-003
2.196523e+003, 2.673156e-003
2.198452e+003, 1.956689e-003
2.200380e+003, 2.032926e-003
2.202309e+003, 1.975038e-003
2.204237e+003, 2.186616e-003
2.206166e+003, 2.628374e-003
2.208094e+003, 2.644024e-003
2.210023e+003, 2.214447e-003
2.211951e+003, 2.044718e-003
2.213880e+003, 1.498044e-003
2.215808e+003, 1.337957e-003
2.217737e+003, 1.488510e-003
2.219665e+003, 3.073179e-003
2.221594e+003, 4.046888e-003
2.223522e+003, 3.620205e-003
2.225450e+003, 2.545694e-003
2.227379e+003, 2.805887e-003
2.229307e+003, 2.419324e-003
2.231236e+003, 2.924638e-003
2.233164e+003, 3.864243e-003
2.235093e+003, 4.299446e-003
2.237021e+003, 4.074544e-003
2.238950e+003, 3.546143e-003
2.240878e+003, 3.352781e-003
2.242807e+003, 3.435832e-003
2.244735e+003, 2.595048e-003
2.246664e+003, 2.059350e-003
2.248592e+003, 2.390434e-003
2.250521e+003, 2.925758e-003
2.252449e+003, 2.515818e-003
2.254377e+003, 2.972953e-003
2.256306e+003, 3.430929e-003
2.258234e+003, 3.623624e-003
2.260163e+003, 3.281920e-003
2.262091e+003, 3.389484e-003
2.264020e+003, 4.027375e-003
2.265948e+003, 4.258882e-003
2.267877e+003, 4.476486e-003
2.269805e+003, 4.406407e-003
2.271734e+003, 3.730887e-003
2.273662e+003, 3.656092e-003
2.275591e+003, 3.795956e-003
2.277519e+003, 3.905764e-003
2.279448e+003, 4.395160e-003
2.281376e+003, 4.851738e-003
2.283304e+003, 5.130104e-003
2.285233e+003, 5.093110e-003
2.287161e+003, 5.243898e-003
2.289090e+003, 5.597980e-003
2.291018e+003, 5.391182e-003
2.292947e+003, 5.657610e-003
2.294875e+003, 5.700223e-003
2.296804e+003, 5.277482e-003
2.298732e+003, 5.273643e-003
2.300661e+003, 5.636625e-003
2.302589e+003, 5.838478e-003
2.304518e+003, 6.094091e-003
2.306446e+003, 6.051290e-003
2.308375e+003, 5.740292e-003
2.310303e+003, 5.712213e-003
2.312231e+003, 5.934521e-003
2.314160e+003, 6.266794e-003
2.316088e+003, 6.732748e-003
2.318017e+003, 6.763947e-003
2.319945e+003, 7.077391e-003
2.321874e+003, 7.469330e-003
2.323802e+003, 8.015872e-003
2.325731e+003, 7.477934e-003
2.327659e+003, 6.841544e-003
2.329588e+003, 6.971017e-003
2.331516e+003, 7.123582e-003
2.333445e+003, 7.014399e-003
2.335373e+003, 7.227089e-003
2.337302e+003, 7.304350e-003
2.339230e+003, 7.132476e-003
2.341158e+003, 7.032198e-003
2.343087e+003, 6.892752e-003
2.345015e+003, 6.394136e-003
2.346944e+003, 6.081813e-003
2.348872e+003, 6.089943e-003
2.350801e+003, 6.250808e-003
2.352729e+003, 6.779383e-003
2.354658e+003, 7.227601e-003
2.356586e+003, 7.517125e-003
2.358515e+003, 7.594209e-003
2.360443e+003, 7.080437e-003
2.362372e+003, 7.037356e-003
2.364300e+003, 6.939618e-003
2.366229e+003, 6.759642e-003
2.368157e+003, 6.758675e-003
2.370085e+003, 6.702127e-003
2.372014e+003, 6.280486e-003
2.373942e+003, 5.703687e-003
2.375871e+003, 5.424338e-003
2.377799e+003, 5.277080e-003
2.379728e+003, 4.926443e-003
2.381656e+003, 4.840206e-003
2.383585e+003, 5.129739e-003
2.385513e+003, 5.399393e-003
2.387442e+003, 5.053933e-003
2.389370e+003, 4.909972e-003
2.391299e+003, 5.145942e-003
2.393227e+003, 5.163560e-003
2.395156e+003, 5.442837e-003
2.397084e+003, 6.108040e-003
2.399012e+003, 5.855445e-003
2.400941e+003, 5.758635e-003
2.402869e+003, 5.786318e-003
2.404798e+003, 5.092997e-003
2.406726e+003, 4.618548e-003
2.408655e+003, 4.793649e-003
2.410583e+003, 5.125074e-003
2.412512e+003, 5.049411e-003
2.414440e+003, 5.225971e-003
2.416369e+003, 5.485248e-003
2.418297e+003, 5.592087e-003
2.420226e+003, 5.531730e-003
2.422154e+003, 5.408107e-003
2.424083e+003, 5.458513e-003
2.426011e+003, 5.511984e-003
2.427939e+003, 5.609450e-003
2.429868e+003, 5.519129e-003
2.431796e+003, 5.649954e-003
2.433725e+003, 5.438400e-003
2.435653e+003, 5.329393e-003
2.437582e+003, 5.360075e-003
2.439510e+003, 5.541924e-003
2.441439e+003, 5.380834e-003
2.443367e+003, 5.676349e-003
2.445296e+003, 6.137494e-003
2.447224e+003, 6.500917e-003
2.449153e+003, 6.414027e-003
2.451081e+003, 6.626956e-003
2.453010e+003, 6.222911e-003
2.454938e+003, 5.882912e-003
2.456866e+003, 5.863222e-003
2.458795e+003, 6.217838e-003
2.460723e+003, 6.335239e-003
2.462652e+003, 6.718837e-003
2.464580e+003, 7.018000e-003
2.466509e+003, 6.713076e-003
2.468437e+003, 6.511104e-003
2.470366e+003, 6.651668e-003
2.472294e+003, 7.242249e-003
2.474223e+003, 7.299897e-003
2.476151e+003, 7.312856e-003
2.478080e+003, 7.837590e-003
2.480008e+003, 7.546160e-003
2.481937e+003, 7.188285e-003
2.483865e+003, 7.079210e-003
2.485793e+003, 7.418789e-003
2.487722e+003, 7.681699e-003
2.489650e+003, 8.718430e-003
2.491579e+003, 9.077528e-003
2.493507e+003, 9.141878e-003
2.495436e+003, 9.093582e-003
2.497364e+003, 9.189732e-003
2.499293e+003, 9.667045e-003
2.501221e+003, 1.060280e-002
2.503150e+003, 1.136786e-002
2.505078e+003, 1.187521e-002
2.507007e+003, 1.206551e-002
2.508935e+003, 1.240140e-002
2.510864e+003, 1.229759e-002
2.512792e+003, 1.249963e-002
2.514720e+003, 1.286714e-002
2.516649e+003, 1.266171e-002
2.518577e+003, 1.228085e-002
2.520506e+003, 1.296739e-002
2.522434e+003, 1.321330e-002
2.524363e+003, 1.262555e-002
2.526291e+003, 1.245502e-002
2.528220e+003, 1.293147e-002
2.530148e+003, 1.238450e-002
2.532077e+003, 1.212525e-002
2.534005e+003, 1.214085e-002
2.535934e+003, 1.172972e-002
2.537862e+003, 1.113155e-002
2.539791e+003, 1.061589e-002
2.541719e+003, 1.008515e-002
2.543647e+003, 9.854676e-003
2.545576e+003, 9.926314e-003
2.547504e+003, 1.000461e-002
2.549433e+003, 9.679118e-003
2.551361e+003, 9.709124e-003
2.553290e+003, 8.823940e-003
2.555218e+003, 8.479567e-003
2.557147e+003, 8.588595e-003
2.559075e+003, 8.218128e-003
2.561004e+003, 7.854483e-003
2.562932e+003, 8.482746e-003
2.564861e+003, 8.104183e-003
2.566789e+003, 7.519487e-003
2.568718e+003, 7.706724e-003
2.570646e+003, 8.097754e-003
2.572574e+003, 7.660534e-003
2.574503e+003, 7.422803e-003
2.576431e+003, 7.665228e-003
2.578360e+003, 8.344092e-003
2.580288e+003, 8.221827e-003
2.582217e+003, 8.096714e-003
2.584145e+003, 7.381823e-003
2.586074e+003, 7.118256e-003
2.588002e+003, 7.433583e-003
2.589931e+003, 6.627575e-003
2.591859e+003, 6.132100e-003
2.593788e+003, 6.870108e-003
2.595716e+003, 7.011773e-003
2.597645e+003, 7.351250e-003
2.599573e+003, 7.539567e-003
2.601501e+003, 7.338478e-003
2.603430e+003, 7.535556e-003
2.605358e+003, 7.571815e-003
2.607287e+003, 7.238027e-003
2.609215e+003, 7.180388e-003
2.611144e+003, 7.432646e-003
2.613072e+003, 7.713218e-003
2.615001e+003, 7.460806e-003
2.616929e+003, 7.647256e-003
2.618858e+003, 8.004304e-003
2.620786e+003, 8.146542e-003
2.622715e+003, 8.021606e-003
2.624643e+003, 8.063851e-003
2.626572e+003, 7.949794e-003
2.628500e+003, 7.697290e-003
2.630428e+003, 7.440167e-003
2.632357e+003, 7.545181e-003
2.634285e+003, 7.195008e-003
2.636214e+003, 7.002783e-003
2.638142e+003, 7.278643e-003
2.640071e+003, 7.465152e-003
2.641999e+003, 7.275277e-003
2.643928e+003, 7.437437e-003
2.645856e+003, 7.324276e-003
2.647785e+003, 7.205570e-003
2.649713e+003, 7.173271e-003
2.651642e+003, 7.136675e-003
2.653570e+003, 6.661661e-003
2.655499e+003, 6.363527e-003
2.657427e+003, 6.437830e-003
2.659355e+003, 6.435591e-003
2.661284e+003, 5.965961e-003
2.663212e+003, 5.686214e-003
2.665141e+003, 5.398673e-003
2.667069e+003, 5.680684e-003
2.668998e+003, 6.167453e-003
2.670926e+003, 6.222001e-003
2.672855e+003, 6.129356e-003
2.674783e+003, 5.894225e-003
2.676712e+003, 5.707015e-003
2.678640e+003, 5.710769e-003
2.680569e+003, 5.712382e-003
2.682497e+003, 5.700771e-003
2.684426e+003, 5.129659e-003
2.686354e+003, 5.183142e-003
2.688282e+003, 5.350605e-003
2.690211e+003, 5.582004e-003
2.692139e+003, 5.600077e-003
2.694068e+003, 5.791026e-003
2.695996e+003, 6.163835e-003
2.697925e+003, 5.810636e-003
2.699853e+003, 5.491367e-003
2.701782e+003, 5.682832e-003
2.703710e+003, 5.533325e-003
2.705639e+003, 5.776798e-003
2.707567e+003, 5.814273e-003
2.709496e+003, 5.637624e-003
2.711424e+003, 5.439986e-003
2.713353e+003, 5.577719e-003
2.715281e+003, 5.536757e-003
2.717209e+003, 5.418038e-003
2.719138e+003, 5.473747e-003
2.721066e+003, 5.490944e-003
2.722995e+003, 5.909695e-003
2.724923e+003, 5.711366e-003
2.726852e+003, 4.923451e-003
2.728780e+003, 5.095001e-003
2.730709e+003, 5.550763e-003
2.732637e+003, 5.545950e-003
2.734566e+003, 5.768450e-003
2.736494e+003, 5.781812e-003
2.738423e+003, 5.737016e-003
2.740351e+003, 5.861132e-003
2.742280e+003, 5.646677e-003
2.744208e+003, 5.230289e-003
2.746136e+003, 5.000392e-003
2.748065e+003, 5.307148e-003
2.749993e+003, 5.546113e-003
2.751922e+003, 5.771069e-003
2.753850e+003, 5.888904e-003
2.755779e+003, 5.560900e-003
2.757707e+003, 5.157454e-003
2.759636e+003, 5.612227e-003
2.761564e+003, 5.574872e-003
2.763493e+003, 5.598545e-003
2.765421e+003, 5.618377e-003
2.767350e+003, 5.628007e-003
2.769278e+003, 5.318162e-003
2.771207e+003, 5.376281e-003
2.773135e+003, 5.568783e-003
2.775063e+003, 5.598706e-003
2.776992e+003, 5.547225e-003
2.778920e+003, 5.632204e-003
2.780849e+003, 5.254129e-003
2.782777e+003, 5.234807e-003
2.784706e+003, 5.420821e-003
2.786634e+003, 5.947040e-003
2.788563e+003, 5.793040e-003
2.790491e+003, 5.406264e-003
2.792420e+003, 5.650919e-003
2.794348e+003, 6.010212e-003
2.796277e+003, 6.083079e-003
2.798205e+003, 6.096684e-003
2.800134e+003, 5.928486e-003
2.802062e+003, 5.506741e-003
2.803990e+003, 5.223765e-003
2.805919e+003, 5.652925e-003
2.807847e+003, 5.644939e-003
2.809776e+003, 5.823731e-003
2.811704e+003, 5.635752e-003
2.813633e+003, 5.474416e-003
2.815561e+003, 5.554544e-003
2.817490e+003, 5.542219e-003
2.819418e+003, 5.640703e-003
2.821347e+003, 5.774545e-003
2.823275e+003, 5.648983e-003
2.825204e+003, 6.036878e-003
2.827132e+003, 6.005134e-003
2.829061e+003, 5.924831e-003
2.830989e+003, 6.082328e-003
2.832917e+003, 6.468950e-003
2.834846e+003, 6.406597e-003
2.836774e+003, 6.623280e-003
2.838703e+003, 6.613031e-003
2.840631e+003, 6.774710e-003
2.842560e+003, 7.107218e-003
2.844488e+003, 7.276423e-003
2.846417e+003, 7.270826e-003
2.848345e+003, 7.542450e-003
2.850274e+003, 7.638017e-003
2.852202e+003, 7.652789e-003
2.854131e+003, 7.469572e-003
2.856059e+003, 7.823212e-003
2.857988e+003, 8.190004e-003
2.859916e+003, 7.971293e-003
2.861844e+003, 7.825223e-003
2.863773e+003, 8.358655e-003
2.865701e+003, 8.759430e-003
2.867630e+003, 8.749920e-003
2.869558e+003, 8.959960e-003
2.871487e+003, 9.174143e-003
2.873415e+003, 9.436892e-003
2.875344e+003, 9.506872e-003
2.877272e+003, 9.604896e-003
2.879201e+003, 9.570477e-003
2.881129e+003, 9.298717e-003
2.883058e+003, 9.388383e-003
2.884986e+003, 9.476819e-003
2.886915e+003, 9.343601e-003
2.888843e+003, 9.207995e-003
2.890771e+003, 9.538964e-003
2.892700e+003, 9.392454e-003
2.894628e+003, 9.359871e-003
2.896557e+003, 9.362722e-003
2.898485e+003, 9.191228e-003
2.900414e+003, 8.911215e-003
2.902342e+003, 9.028134e-003
2.904271e+003, 9.320764e-003
2.906199e+003, 8.965259e-003
2.908128e+003, 8.714746e-003
2.910056e+003, 9.178580e-003
2.911985e+003, 8.927137e-003
2.913913e+003, 8.356585e-003
2.915842e+003, 8.040343e-003
2.917770e+003, 7.876869e-003
2.919698e+003, 7.822208e-003
2.921627e+003, 8.252519e-003
2.923555e+003, 8.314030e-003
2.925484e+003, 8.003135e-003
2.927412e+003, 7.914026e-003
2.929341e+003, 8.160988e-003
2.931269e+003, 8.207612e-003
2.933198e+003, 8.197654e-003
2.935126e+003, 7.658553e-003
2.937055e+003, 7.670633e-003
2.938983e+003, 7.842815e-003
2.940912e+003, 7.983074e-003
2.942840e+003, 8.253553e-003
2.944769e+003, 8.291369e-003
2.946697e+003, 7.789429e-003
2.948625e+003, 7.809271e-003
2.950554e+003, 8.053617e-003
2.952482e+003, 8.476845e-003
2.954411e+003, 8.616897e-003
2.956339e+003, 8.567298e-003
2.958268e+003, 8.491483e-003
2.960196e+003, 8.195519e-003
2.962125e+003, 7.913259e-003
2.964053e+003, 8.333312e-003
2.965982e+003, 8.716737e-003
2.967910e+003, 8.946179e-003
2.969839e+003, 8.832992e-003
2.971767e+003, 8.239943e-003
2.973696e+003, 7.699817e-003
2.975624e+003, 7.985234e-003
2.977552e+003, 8.357958e-003
2.979481e+003, 8.378475e-003
2.981409e+003, 8.131873e-003
2.983338e+003, 8.009914e-003
2.985266e+003, 8.271200e-003
2.987195e+003, 8.633201e-003
2.989123e+003, 8.316175e-003
2.991052e+003, 8.697126e-003
2.992980e+003, 8.906313e-003
2.994909e+003, 8.818534e-003
2.996837e+003, 8.754834e-003
2.998766e+003, 8.783475e-003
3.000694e+003, 8.646992e-003
3.002623e+003, 9.033881e-003
3.004551e+003, 9.398711e-003
3.006479e+003, 9.150814e-003
3.008408e+003, 8.378857e-003
3.010336e+003, 8.200433e-003
3.012265e+003, 7.918471e-003
3.014193e+003, 7.718478e-003
3.016122e+003, 7.617767e-003
3.018050e+003, 7.680172e-003
3.019979e+003, 8.170112e-003
3.021907e+003, 8.180165e-003
3.023836e+003, 7.717571e-003
3.025764e+003, 7.437027e-003
3.027693e+003, 7.113111e-003
3.029621e+003, 7.725874e-003
3.031550e+003, 7.925306e-003
3.033478e+003, 8.120666e-003
3.035406e+003, 8.388765e-003
3.037335e+003, 7.932432e-003
3.039263e+003, 7.238916e-003
3.041192e+003, 7.247055e-003
3.043120e+003, 7.509093e-003
3.045049e+003, 7.683419e-003
3.046977e+003, 7.766174e-003
3.048906e+003, 8.032678e-003
3.050834e+003, 8.110477e-003
3.052763e+003, 7.877886e-003
3.054691e+003, 7.857408e-003
3.056620e+003, 8.175381e-003
3.058548e+003, 8.564301e-003
3.060477e+003, 8.806607e-003
3.062405e+003, 8.769971e-003
3.064333e+003, 8.573245e-003
3.066262e+003, 8.315975e-003
3.068190e+003, 8.463305e-003
3.070119e+003, 8.620658e-003
3.072047e+003, 9.132372e-003
3.073976e+003, 9.201382e-003
3.075904e+003, 8.481301e-003
3.077833e+003, 8.092370e-003
3.079761e+003, 8.321473e-003
3.081690e+003, 8.741843e-003
3.083618e+003, 9.218208e-003
3.085547e+003, 8.899434e-003
3.087475e+003, 9.410012e-003
3.089404e+003, 9.686517e-003
3.091332e+003, 9.237657e-003
3.093260e+003, 8.833161e-003
3.095189e+003, 9.033792e-003
3.097117e+003, 9.145939e-003
3.099046e+003, 9.381270e-003
3.100974e+003, 9.465229e-003
3.102903e+003, 9.777514e-003
3.104831e+003, 1.004973e-002
3.106760e+003, 1.047481e-002
3.108688e+003, 1.013994e-002
3.110617e+003, 9.869097e-003
3.112545e+003, 9.409880e-003
3.114474e+003, 9.107530e-003
3.116402e+003, 9.433394e-003
3.118331e+003, 9.937493e-003
3.120259e+003, 1.000238e-002
3.122188e+003, 1.004848e-002
3.124116e+003, 1.028809e-002
3.126044e+003, 1.021701e-002
3.127973e+003, 9.900986e-003
3.129901e+003, 1.076627e-002
3.131830e+003, 1.155917e-002
3.133758e+003, 1.125907e-002
3.135687e+003, 1.039435e-002
3.137615e+003, 9.845009e-003
3.139544e+003, 9.588088e-003
3.141472e+003, 9.991319e-003
3.143401e+003, 1.046789e-002
3.145329e+003, 1.103407e-002
3.147258e+003, 1.179039e-002
3.149186e+003, 1.155882e-002
3.151115e+003, 1.110868e-002
3.153043e+003, 1.183872e-002
3.154971e+003, 1.177595e-002
3.156900e+003, 1.110925e-002
3.158828e+003, 1.113376e-002
3.160757e+003, 1.126019e-002
3.162685e+003, 1.105989e-002
3.164614e+003, 1.138145e-002
3.166542e+003, 1.129667e-002
3.168471e+003, 1.156280e-002
3.170399e+003, 1.159113e-002
3.172328e+003, 1.113557e-002
3.174256e+003, 1.053005e-002
3.176185e+003, 1.144461e-002
3.178113e+003, 1.218727e-002
3.180042e+003, 1.200227e-002
3.181970e+003, 1.155731e-002
3.183898e+003, 1.174177e-002
3.185827e+003, 1.168703e-002
3.187755e+003, 1.133869e-002
3.189684e+003, 1.157936e-002
3.191612e+003, 1.209064e-002
3.193541e+003, 1.172515e-002
3.195469e+003, 1.149659e-002
3.197398e+003, 1.141882e-002
3.199326e+003, 1.209730e-002
3.201255e+003, 1.257364e-002
3.203183e+003, 1.236082e-002
3.205112e+003, 1.206218e-002
3.207040e+003, 1.189259e-002
3.208969e+003, 1.200742e-002
3.210897e+003, 1.203019e-002
3.212825e+003, 1.131893e-002
3.214754e+003, 1.132831e-002
3.216682e+003, 1.208348e-002
3.218611e+003, 1.212256e-002
3.220539e+003, 1.177391e-002
3.222468e+003, 1.253586e-002
3.224396e+003, 1.320594e-002
3.226325e+003, 1.218299e-002
3.228253e+003, 1.140219e-002
3.230182e+003, 1.147266e-002
3.232110e+003, 1.140987e-002
3.234039e+003, 1.188194e-002
3.235967e+003, 1.228170e-002
3.237896e+003, 1.295163e-002
3.239824e+003, 1.305718e-002
3.241752e+003, 1.325231e-002
3.243681e+003, 1.296924e-002
3.245609e+003, 1.252096e-002
3.247538e+003, 1.225268e-002
3.249466e+003, 1.237812e-002
3.251395e+003, 1.243948e-002
3.253323e+003, 1.275803e-002
3.255252e+003, 1.233466e-002
3.257180e+003, 1.243843e-002
3.259109e+003, 1.298374e-002
3.261037e+003, 1.255159e-002
3.262966e+003, 1.169582e-002
3.264894e+003, 1.158712e-002
3.266823e+003, 1.164995e-002
3.268751e+003, 1.184302e-002
3.270679e+003, 1.223144e-002
3.272608e+003, 1.216975e-002
3.274536e+003, 1.182930e-002
3.276465e+003, 1.242610e-002
3.278393e+003, 1.260809e-002
3.280322e+003, 1.239018e-002
3.282250e+003, 1.276118e-002
3.284179e+003, 1.256129e-002
3.286107e+003, 1.261249e-002
3.288036e+003, 1.326435e-002
3.289964e+003, 1.309060e-002
3.291893e+003, 1.318821e-002
3.293821e+003, 1.320915e-002
3.295750e+003, 1.281951e-002
3.297678e+003, 1.240339e-002
3.299606e+003, 1.279877e-002
3.301535e+003, 1.250683e-002
3.303463e+003, 1.268231e-002
3.305392e+003, 1.295990e-002
3.307320e+003, 1.318288e-002
3.309249e+003, 1.289768e-002
3.311177e+003, 1.223638e-002
3.313106e+003, 1.189967e-002
3.315034e+003, 1.198645e-002
3.316963e+003, 1.237881e-002
3.318891e+003, 1.197567e-002
3.320820e+003, 1.190585e-002
3.322748e+003, 1.320338e-002
3.324677e+003, 1.299849e-002
3.326605e+003, 1.286179e-002
3.328533e+003, 1.298241e-002
3.330462e+003, 1.195088e-002
3.332390e+003, 1.171212e-002
3.334319e+003, 1.237650e-002
3.336247e+003, 1.263599e-002
3.338176e+003, 1.270366e-002
3.340104e+003, 1.224384e-002
3.342033e+003, 1.204901e-002
3.343961e+003, 1.263022e-002
3.345890e+003, 1.257656e-002
3.347818e+003, 1.229292e-002
3.349747e+003, 1.248862e-002
3.351675e+003, 1.197975e-002
3.353604e+003, 1.208726e-002
3.355532e+003, 1.262536e-002
3.357460e+003, 1.337533e-002
3.359389e+003, 1.343795e-002
3.361317e+003, 1.354649e-002
3.363246e+003, 1.292992e-002
3.365174e+003, 1.292890e-002
3.367103e+003, 1.323000e-002
3.369031e+003, 1.347190e-002
3.370960e+003, 1.365525e-002
3.372888e+003, 1.303183e-002
3.374817e+003, 1.285517e-002
3.376745e+003, 1.301411e-002
3.378674e+003, 1.280289e-002
3.380602e+003, 1.319725e-002
3.382531e+003, 1.311556e-002
3.384459e+003, 1.215188e-002
3.386387e+003, 1.201954e-002
3.388316e+003, 1.233407e-002
3.390244e+003, 1.295575e-002
3.392173e+003, 1.335164e-002
3.394101e+003, 1.302733e-002
3.396030e+003, 1.216279e-002
3.397958e+003, 1.143064e-002
3.399887e+003, 1.262852e-002
3.401815e+003, 1.322923e-002
3.403744e+003, 1.260781e-002
3.405672e+003, 1.266446e-002
3.407601e+003, 1.363034e-002
3.409529e+003, 1.376029e-002
3.411458e+003, 1.363071e-002
3.413386e+003, 1.317118e-002
3.415314e+003, 1.326985e-002
3.417243e+003, 1.418758e-002
3.419171e+003, 1.382470e-002
3.421100e+003, 1.250473e-002
3.423028e+003, 1.199855e-002
3.424957e+003, 1.285968e-002
3.426885e+003, 1.423266e-002
3.428814e+003, 1.385956e-002
3.430742e+003, 1.290915e-002
3.432671e+003, 1.220090e-002
3.434599e+003, 1.218366e-002
3.436528e+003, 1.337341e-002
3.438456e+003, 1.358808e-002
3.440385e+003, 1.257074e-002
3.442313e+003, 1.272318e-002
3.444241e+003, 1.269417e-002
3.446170e+003, 1.301903e-002
3.448098e+003, 1.343262e-002
3.450027e+003, 1.312020e-002
3.451955e+003, 1.338383e-002
3.453884e+003, 1.320414e-002
3.455812e+003, 1.265390e-002
3.457741e+003, 1.340522e-002
3.459669e+003, 1.462473e-002
3.461598e+003, 1.453652e-002
3.463526e+003, 1.336883e-002
3.465455e+003, 1.372919e-002
3.467383e+003, 1.410638e-002
3.469312e+003, 1.378681e-002
3.471240e+003, 1.349712e-002
3.473168e+003, 1.290721e-002
3.475097e+003, 1.230376e-002
3.477025e+003, 1.215402e-002
3.478954e+003, 1.278176e-002
3.480882e+003, 1.377180e-002
3.482811e+003, 1.437895e-002
3.484739e+003, 1.405450e-002
3.486668e+003, 1.355595e-002
3.488596e+003, 1.404357e-002
3.490525e+003, 1.353325e-002
3.492453e+003, 1.361662e-002
3.494382e+003, 1.246449e-002
3.496310e+003, 1.215241e-002
3.498239e+003, 1.238814e-002
3.500167e+003, 1.238609e-002
3.502095e+003, 1.230318e-002
3.504024e+003, 1.271850e-002
3.505952e+003, 1.271437e-002
3.507881e+003, 1.258577e-002
3.509809e+003, 1.165561e-002
3.511738e+003, 1.163211e-002
3.513666e+003, 1.250628e-002
3.515595e+003, 1.319248e-002
3.517523e+003, 1.330340e-002
3.519452e+003, 1.333987e-002
3.521380e+003, 1.273161e-002
3.523309e+003, 1.236829e-002
3.525237e+003, 1.334224e-002
3.527166e+003, 1.370326e-002
3.529094e+003, 1.289169e-002
3.531022e+003, 1.258988e-002
3.532951e+003, 1.220154e-002
3.534879e+003, 1.140170e-002
3.536808e+003, 1.079613e-002
3.538736e+003, 1.087086e-002
3.540665e+003, 1.126223e-002
3.542593e+003, 1.049312e-002
3.544522e+003, 1.093464e-002
3.546450e+003, 1.206458e-002
3.548379e+003, 1.177658e-002
3.550307e+003, 1.146972e-002
3.552236e+003, 1.164991e-002
3.554164e+003, 1.118050e-002
3.556093e+003, 1.060999e-002
3.558021e+003, 1.127516e-002
3.559949e+003, 1.108654e-002
3.561878e+003, 1.136692e-002
3.563806e+003, 1.180934e-002
3.565735e+003, 1.081542e-002
3.567663e+003, 1.060071e-002
3.569592e+003, 1.125691e-002
3.571520e+003, 1.122949e-002
3.573449e+003, 1.114277e-002
3.575377e+003, 1.149748e-002
3.577306e+003, 1.220204e-002
3.579234e+003, 1.225595e-002
3.581163e+003, 1.136918e-002
3.583091e+003, 9.940960e-003
3.585020e+003, 9.326699e-003
3.586948e+003, 9.700616e-003
3.588876e+003, 1.002475e-002
3.590805e+003, 9.748041e-003
3.592733e+003, 1.163353e-002
3.594662e+003, 1.186166e-002
3.596590e+003, 1.142968e-002
3.598519e+003, 1.141923e-002
3.600447e+003, 1.146958e-002
3.602376e+003, 1.089399e-002
3.604304e+003, 1.047380e-002
3.606233e+003, 1.129266e-002
3.608161e+003, 1.213908e-002
3.610090e+003, 1.158320e-002
3.612018e+003, 9.999775e-003
3.613947e+003, 9.907745e-003
3.615875e+003, 1.009052e-002
3.617803e+003, 1.029835e-002
3.619732e+003, 1.122935e-002
3.621660e+003, 1.134496e-002
3.623589e+003, 1.127917e-002
3.625517e+003, 1.208937e-002
3.627446e+003, 1.222540e-002
3.629374e+003, 1.180063e-002
3.631303e+003, 1.152860e-002
3.633231e+003, 1.144923e-002
3.635160e+003, 1.187151e-002
3.637088e+003, 1.182389e-002
3.639017e+003, 1.110144e-002
3.640945e+003, 1.125312e-002
3.642874e+003, 1.133190e-002
3.644802e+003, 1.087198e-002
3.646730e+003, 1.126979e-002
3.648659e+003, 1.262491e-002
3.650587e+003, 1.230803e-002
3.652516e+003, 1.075560e-002
3.654444e+003, 1.089319e-002
3.656373e+003, 1.123540e-002
3.658301e+003, 1.042681e-002
3.660230e+003, 1.012202e-002
3.662158e+003, 1.164502e-002
3.664087e+003, 1.112706e-002
3.666015e+003, 1.015660e-002
3.667944e+003, 1.039802e-002
3.669872e+003, 1.161320e-002
3.671801e+003, 1.199680e-002
3.673729e+003, 1.247658e-002
3.675657e+003, 1.348567e-002
3.677586e+003, 1.201878e-002
3.679514e+003, 1.046580e-002
3.681443e+003, 1.107205e-002
3.683371e+003, 1.076769e-002
3.685300e+003, 1.081304e-002
3.687228e+003, 1.277093e-002
3.689157e+003, 1.329742e-002
3.691085e+003, 1.246416e-002
3.693014e+003, 1.140432e-002
3.694942e+003, 1.106272e-002
3.696871e+003, 1.162843e-002
3.698799e+003, 1.243982e-002
3.700728e+003, 1.220363e-002
3.702656e+003, 1.099169e-002
3.704584e+003, 1.103721e-002
3.706513e+003, 1.237418e-002
3.708441e+003, 1.301360e-002
3.710370e+003, 1.221820e-002
3.712298e+003, 1.193221e-002
3.714227e+003, 1.167794e-002
3.716155e+003, 1.142369e-002
3.718084e+003, 1.169888e-002
3.720012e+003, 1.235925e-002
3.721941e+003, 1.272298e-002
3.723869e+003, 1.271154e-002
3.725798e+003, 1.277784e-002
3.727726e+003, 1.188661e-002
3.729655e+003, 1.197417e-002
3.731583e+003, 1.262509e-002
3.733511e+003, 1.213674e-002
3.735440e+003, 1.169926e-002
3.737368e+003, 1.190201e-002
3.739297e+003, 1.152665e-002
3.741225e+003, 1.071881e-002
3.743154e+003, 1.186034e-002
3.745082e+003, 1.233689e-002
3.747011e+003, 1.191883e-002
3.748939e+003, 1.197928e-002
3.750868e+003, 1.260730e-002
3.752796e+003, 1.259586e-002
3.754725e+003, 1.122806e-002
3.756653e+003, 1.178099e-002
3.758582e+003, 1.186180e-002
3.760510e+003, 1.114110e-002
3.762438e+003, 1.240323e-002
3.764367e+003, 1.262426e-002
3.766295e+003, 1.236992e-002
3.768224e+003, 1.296953e-002
3.770152e+003, 1.324829e-002
3.772081e+003, 1.241839e-002
3.774009e+003, 1.217579e-002
3.775938e+003, 1.142377e-002
3.777866e+003, 1.115005e-002
3.779795e+003, 1.222663e-002
3.781723e+003, 1.262413e-002
3.783652e+003, 1.248112e-002
3.785580e+003, 1.259934e-002
3.787509e+003, 1.208811e-002
3.789437e+003, 1.209047e-002
3.791365e+003, 1.224241e-002
3.793294e+003, 1.261311e-002
3.795222e+003, 1.242540e-002
3.797151e+003, 1.169675e-002
3.799079e+003, 1.186320e-002
3.801008e+003, 1.306460e-002
3.802936e+003, 1.184364e-002
3.804865e+003, 1.169551e-002
3.806793e+003, 1.274646e-002
3.808722e+003, 1.240144e-002
3.810650e+003, 1.250250e-002
3.812579e+003, 1.168130e-002
3.814507e+003, 1.057804e-002
3.816436e+003, 1.100252e-002
3.818364e+003, 1.107329e-002
3.820292e+003, 1.169410e-002
3.822221e+003, 1.204708e-002
3.824149e+003, 1.183492e-002
3.826078e+003, 1.060503e-002
3.828006e+003, 1.083441e-002
3.829935e+003, 1.130398e-002
3.831863e+003, 1.116983e-002
3.833792e+003, 1.204491e-002
3.835720e+003, 1.238423e-002
3.837649e+003, 1.255636e-002
3.839577e+003, 1.240706e-002
3.841506e+003, 1.162047e-002
3.843434e+003, 1.127741e-002
3.845363e+003, 1.046474e-002
3.847291e+003, 1.078648e-002
3.849219e+003, 1.109639e-002
3.851148e+003, 1.218003e-002
3.853076e+003, 1.287017e-002
3.855005e+003, 1.222967e-002
3.856933e+003, 1.219240e-002
3.858862e+003, 1.179594e-002
3.860790e+003, 1.127244e-002
3.862719e+003, 1.132330e-002
3.864647e+003, 1.168184e-002
3.866576e+003, 1.201409e-002
3.868504e+003, 1.177456e-002
3.870433e+003, 1.107557e-002
3.872361e+003, 1.076882e-002
3.874290e+003, 1.221908e-002
3.876218e+003, 1.230486e-002
3.878146e+003, 1.174632e-002
3.880075e+003, 1.184227e-002
3.882003e+003, 1.138216e-002
3.883932e+003, 1.215189e-002
3.885860e+003, 1.316951e-002
3.887789e+003, 1.186140e-002
3.889717e+003, 1.168923e-002
3.891646e+003, 1.278175e-002
3.893574e+003, 1.331618e-002
3.895503e+003, 1.338353e-002
3.897431e+003, 1.290173e-002
3.899360e+003, 1.219859e-002
3.901288e+003, 1.229629e-002
3.903217e+003, 1.201241e-002
3.905145e+003, 1.194029e-002
3.907073e+003, 1.172835e-002
3.909002e+003, 1.185178e-002
3.910930e+003, 1.201187e-002
3.912859e+003, 1.173618e-002
3.914787e+003, 1.181250e-002
3.916716e+003, 1.194809e-002
3.918644e+003, 1.289855e-002
3.920573e+003, 1.281590e-002
3.922501e+003, 1.261060e-002
3.924430e+003, 1.327676e-002
3.926358e+003, 1.285460e-002
3.928287e+003, 1.213361e-002
3.930215e+003, 1.151119e-002
3.932144e+003, 1.146779e-002
3.934072e+003, 1.180099e-002
3.936000e+003, 1.224308e-002
3.937929e+003, 1.236985e-002
3.939857e+003, 1.199016e-002
3.941786e+003, 1.164173e-002
3.943714e+003, 1.269565e-002
3.945643e+003, 1.314445e-002
3.947571e+003, 1.197003e-002
3.949500e+003, 1.019501e-002
3.951428e+003, 1.061189e-002
3.953357e+003, 1.178577e-002
3.955285e+003, 1.222796e-002
3.957214e+003, 1.231381e-002
3.959142e+003, 1.227806e-002
3.961071e+003, 1.215318e-002
3.962999e+003, 1.209364e-002
3.964927e+003, 1.169791e-002
3.966856e+003, 1.244152e-002
3.968784e+003, 1.311024e-002
3.970713e+003, 1.294639e-002
3.972641e+003, 1.256454e-002
3.974570e+003, 1.225972e-002
3.976498e+003, 1.184056e-002
3.978427e+003, 1.247781e-002
3.980355e+003, 1.213001e-002
3.982284e+003, 1.167326e-002
3.984212e+003, 1.201188e-002
3.986141e+003, 1.247314e-002
3.988069e+003, 1.181182e-002
3.989998e+003, 1.104700e-002
3.991926e+003, 1.154427e-002
3.993854e+003, 1.186040e-002
3.995783e+003, 1.118681e-002
3.997711e+003, 1.069207e-002
3.999640e+003, 1.121014e-002
##END=



