##NAMES=Dolomite
##RRUFFID=R050370
##IDEAL CHEMISTRY=CaMg(CO_3_)_2_
##LOCALITY=Morro Velho mine, Nova Lima, Minas Gerais, Brazil
##OWNER=RRUFF
##SOURCE=Eugene Schlepp
##DESCRIPTION=Colorless bladed crystals associated with pyrrhotite and albite
##STATUS=The identification of this mineral has been confirmed by X-ray diffraction and chemical analysis
##URL=rruff.info/R050370
##MEASURED CHEMISTRY=(Ca_0.84_Fe_0.16_)_Σ=1_(Mg_0.98_Mn_0.02_)_Σ=1_(CO_3_)_2_ ; CO_2_ estimated by difference
399.1926, 9.3364887E-02
401.1211, 8.4263191E-02
403.0496, 8.4668294E-02
404.9780, 8.0754869E-02
406.9065, 7.7147529E-02
408.8350, 7.3338293E-02
410.7634, 7.0442908E-02
412.6919, 6.7705877E-02
414.6204, 6.1752189E-02
416.5488, 5.5916749E-02
418.4773, 5.2158911E-02
420.4058, 4.8948519E-02
422.3342, 4.7101669E-02
424.2627, 4.6620630E-02
426.1912, 4.4122480E-02
428.1196, 4.0969919E-02
430.0481, 3.6377579E-02
431.9766, 3.2994341E-02
433.9050, 3.3508141E-02
435.8335, 3.3712979E-02
437.7620, 3.1887829E-02
439.6904, 3.0900400E-02
441.6189, 2.9872170E-02
443.5474, 2.8902059E-02
445.4758, 2.6588030E-02
447.4043, 2.4598051E-02
449.3328, 2.5109479E-02
451.2612, 2.4961870E-02
453.1897, 2.5457559E-02
455.1182, 2.4764501E-02
457.0466, 2.3750279E-02
458.9751, 2.4180589E-02
460.9036, 2.4158761E-02
462.8320, 2.3230990E-02
464.7605, 2.1770701E-02
466.6890, 2.1792861E-02
468.6174, 2.2202510E-02
470.5459, 2.1692310E-02
472.4744, 2.1172291E-02
474.4028, 2.0858090E-02
476.3313, 2.0309730E-02
478.2598, 2.0544089E-02
480.1882, 2.0998850E-02
482.1167, 2.0335270E-02
484.0452, 2.0375730E-02
485.9736, 2.0742729E-02
487.9021, 2.0697819E-02
489.8306, 1.9992361E-02
491.7590, 1.9972449E-02
493.6875, 1.9923910E-02
495.6160, 1.9491671E-02
497.5444, 1.9559590E-02
499.4729, 1.9249570E-02
501.4014, 1.9122969E-02
503.3298, 1.9283110E-02
505.2583, 1.8645139E-02
507.1868, 1.8585620E-02
509.1152, 1.8836571E-02
511.0437, 1.8215669E-02
512.9722, 1.8559150E-02
514.9006, 1.9214660E-02
516.8291, 1.8881850E-02
518.7576, 1.8407140E-02
520.6860, 1.8262880E-02
522.6145, 1.8085290E-02
524.5430, 1.8078201E-02
526.4714, 1.8303899E-02
528.3999, 1.8382860E-02
530.3284, 1.8437080E-02
532.2568, 1.8230639E-02
534.1853, 1.7505560E-02
536.1138, 1.7379960E-02
538.0422, 1.7956311E-02
539.9707, 1.8160170E-02
541.8992, 1.7814850E-02
543.8276, 1.7279539E-02
545.7561, 1.7362021E-02
547.6846, 1.7607270E-02
549.6130, 1.7769299E-02
551.5415, 1.7941721E-02
553.4700, 1.7164409E-02
555.3984, 1.6868550E-02
557.3269, 1.7460961E-02
559.2554, 1.7530899E-02
561.1838, 1.7125420E-02
563.1123, 1.7019510E-02
565.0408, 1.6958620E-02
566.9692, 1.6793041E-02
568.8977, 1.7169600E-02
570.8262, 1.7365459E-02
572.7546, 1.6730150E-02
574.6831, 1.6453501E-02
576.6116, 1.6863391E-02
578.5400, 1.7031150E-02
580.4685, 1.6882179E-02
582.3970, 1.6447790E-02
584.3254, 1.6105190E-02
586.2539, 1.6103109E-02
588.1824, 1.6153710E-02
590.1108, 1.6357210E-02
592.0393, 1.5998559E-02
593.9678, 1.5685329E-02
595.8962, 1.5836630E-02
597.8247, 1.5622240E-02
599.7532, 1.5919991E-02
601.6816, 1.5951861E-02
603.6101, 1.5895501E-02
605.5386, 1.6243260E-02
607.4670, 1.6306240E-02
609.3955, 1.6108960E-02
611.3240, 1.5768049E-02
613.2524, 1.4823450E-02
615.1809, 1.4540610E-02
617.1094, 1.5254550E-02
619.0378, 1.5315760E-02
620.9663, 1.5064380E-02
622.8948, 1.5135410E-02
624.8232, 1.5354260E-02
626.7517, 1.5334010E-02
628.6802, 1.5344200E-02
630.6086, 1.5237720E-02
632.5371, 1.4825180E-02
634.4656, 1.5079130E-02
636.3940, 1.5558660E-02
638.3225, 1.5244800E-02
640.2510, 1.5393600E-02
642.1794, 1.5968621E-02
644.1079, 1.5862370E-02
646.0364, 1.5699301E-02
647.9648, 1.6068310E-02
649.8933, 1.6320489E-02
651.8218, 1.6302809E-02
653.7502, 1.6464351E-02
655.6787, 1.6638920E-02
657.6072, 1.6846601E-02
659.5356, 1.6747501E-02
661.4641, 1.6656831E-02
663.3926, 1.7178800E-02
665.3210, 1.7498560E-02
667.2495, 1.7940300E-02
669.1780, 1.8424859E-02
671.1064, 1.8323431E-02
673.0349, 1.8268671E-02
674.9634, 1.8632291E-02
676.8918, 1.9277571E-02
678.8203, 1.9550979E-02
680.7488, 1.9885160E-02
682.6772, 2.0342240E-02
684.6057, 2.0734990E-02
686.5342, 2.1189669E-02
688.4626, 2.1728760E-02
690.3911, 2.1789869E-02
692.3196, 2.2142969E-02
694.2480, 2.2537449E-02
696.1765, 2.2587650E-02
698.1050, 2.2779390E-02
700.0334, 2.3308439E-02
701.9619, 2.3594949E-02
703.8904, 2.4047330E-02
705.8188, 2.5060870E-02
707.7473, 2.6438180E-02
709.6758, 2.7945289E-02
711.6042, 3.0010810E-02
713.5327, 3.2169320E-02
715.4612, 3.5080250E-02
717.3896, 4.0480990E-02
719.3181, 4.9616858E-02
721.2466, 6.3788243E-02
723.1750, 8.4295027E-02
725.1035, 0.1080748
727.0320, 0.1201833
728.9604, 0.1057374
730.8889, 7.5114951E-02
732.8174, 4.9487419E-02
734.7458, 3.4880470E-02
736.6743, 2.7574699E-02
738.6028, 2.3733569E-02
740.5313, 2.1551890E-02
742.4597, 2.0440551E-02
744.3882, 1.9482881E-02
746.3167, 1.8312279E-02
748.2451, 1.7442200E-02
750.1736, 1.7458180E-02
752.1021, 1.7243000E-02
754.0305, 1.7012861E-02
755.9590, 1.6632130E-02
757.8875, 1.6396850E-02
759.8159, 1.6355420E-02
761.7444, 1.6411539E-02
763.6729, 1.6565001E-02
765.6013, 1.6554890E-02
767.5298, 1.6525470E-02
769.4583, 1.6582720E-02
771.3867, 1.6376941E-02
773.3152, 1.6374350E-02
775.2437, 1.6512319E-02
777.1721, 1.6804270E-02
779.1006, 1.6944120E-02
781.0291, 1.6957469E-02
782.9575, 1.7127249E-02
784.8860, 1.7412631E-02
786.8145, 1.7394669E-02
788.7429, 1.6988900E-02
790.6714, 1.6954711E-02
792.5999, 1.7316220E-02
794.5283, 1.7452771E-02
796.4568, 1.7231740E-02
798.3853, 1.7237451E-02
800.3137, 1.7421011E-02
802.2422, 1.7514940E-02
804.1707, 1.7169030E-02
806.0991, 1.7136760E-02
808.0276, 1.7718060E-02
809.9561, 1.8165080E-02
811.8845, 1.8132299E-02
813.8130, 1.8293289E-02
815.7415, 1.8488839E-02
817.6699, 1.8808790E-02
819.5984, 1.9181250E-02
821.5269, 1.9383330E-02
823.4553, 1.9445971E-02
825.3838, 1.9704159E-02
827.3123, 2.0551370E-02
829.2407, 2.1354171E-02
831.1692, 2.1857221E-02
833.0977, 2.2390001E-02
835.0261, 2.3469120E-02
836.9546, 2.4883160E-02
838.8831, 2.6286900E-02
840.8115, 2.8211569E-02
842.7400, 3.1066131E-02
844.6685, 3.5276331E-02
846.5969, 4.0347070E-02
848.5254, 4.6406060E-02
850.4539, 5.1324852E-02
852.3823, 5.4082070E-02
854.3108, 5.4670300E-02
856.2393, 5.9467211E-02
858.1677, 7.1140520E-02
860.0962, 8.8171117E-02
862.0247, 0.1123805
863.9531, 0.1466183
865.8816, 0.1911553
867.8101, 0.2395027
869.7385, 0.2804187
871.6670, 0.3018828
873.5955, 0.3031244
875.5239, 0.2909511
877.4524, 0.2731545
879.3809, 0.2527632
881.3093, 0.2229120
883.2378, 0.1835934
885.1663, 0.1422035
887.0947, 0.1035420
889.0232, 7.0919357E-02
890.9517, 4.7035258E-02
892.8801, 3.2529950E-02
894.8085, 2.5115291E-02
896.7370, 2.1753170E-02
898.6655, 2.0405650E-02
900.5939, 1.9534079E-02
902.5224, 1.8826719E-02
904.4509, 1.8418049E-02
906.3793, 1.8336890E-02
908.3078, 1.8454490E-02
910.2363, 1.8812049E-02
912.1647, 1.8552929E-02
914.0932, 1.8230870E-02
916.0217, 1.8191380E-02
917.9501, 1.8257059E-02
919.8786, 1.8215749E-02
921.8071, 1.8300969E-02
923.7355, 1.8425571E-02
925.6640, 1.8421020E-02
927.5925, 1.8590210E-02
929.5209, 1.8804099E-02
931.4494, 1.8993519E-02
933.3779, 1.8987890E-02
935.3063, 1.8913729E-02
937.2348, 1.8888449E-02
939.1633, 1.9099060E-02
941.0917, 1.9310489E-02
943.0202, 1.9156311E-02
944.9487, 1.9168001E-02
946.8771, 1.9493680E-02
948.8056, 1.9674420E-02
950.7341, 1.9903891E-02
952.6625, 1.9925941E-02
954.5910, 1.9726319E-02
956.5195, 2.0039881E-02
958.4479, 2.0412240E-02
960.3764, 2.0435231E-02
962.3049, 2.0653039E-02
964.2333, 2.0986810E-02
966.1618, 2.1225531E-02
968.0903, 2.1487640E-02
970.0187, 2.1695580E-02
971.9472, 2.1759430E-02
973.8757, 2.1899750E-02
975.8041, 2.2110920E-02
977.7326, 2.2316430E-02
979.6611, 2.2694690E-02
981.5895, 2.3385040E-02
983.5180, 2.3760671E-02
985.4465, 2.3990810E-02
987.3749, 2.4330931E-02
989.3034, 2.4809560E-02
991.2319, 2.5367880E-02
993.1603, 2.5712799E-02
995.0888, 2.5727911E-02
997.0173, 2.5714180E-02
998.9457, 2.6090059E-02
1000.874, 2.6538890E-02
1002.803, 2.6737399E-02
1004.731, 2.6675271E-02
1006.660, 2.6569860E-02
1008.588, 2.7001509E-02
1010.517, 2.7590340E-02
1012.445, 2.7980139E-02
1014.373, 2.8260220E-02
1016.302, 2.8723970E-02
1018.230, 2.9574821E-02
1020.159, 2.9993290E-02
1022.087, 2.9776080E-02
1024.016, 3.0385500E-02
1025.944, 3.1320620E-02
1027.873, 3.1908318E-02
1029.801, 3.2469321E-02
1031.730, 3.2952290E-02
1033.658, 3.3510081E-02
1035.587, 3.4227751E-02
1037.515, 3.4923371E-02
1039.444, 3.5565540E-02
1041.372, 3.6105119E-02
1043.301, 3.6673151E-02
1045.229, 3.7035380E-02
1047.157, 3.7205849E-02
1049.086, 3.7465181E-02
1051.014, 3.7924550E-02
1052.943, 3.8284741E-02
1054.871, 3.8439851E-02
1056.800, 3.8444899E-02
1058.728, 3.8727950E-02
1060.657, 3.9045449E-02
1062.585, 3.9260600E-02
1064.514, 3.9414279E-02
1066.442, 3.9683931E-02
1068.371, 3.9669540E-02
1070.299, 3.9931592E-02
1072.228, 4.0452842E-02
1074.156, 4.0692989E-02
1076.084, 4.1041922E-02
1078.013, 4.1346900E-02
1079.941, 4.1446708E-02
1081.870, 4.1525058E-02
1083.798, 4.1775338E-02
1085.727, 4.1855250E-02
1087.655, 4.2003371E-02
1089.584, 4.2408820E-02
1091.512, 4.3049611E-02
1093.441, 4.3673608E-02
1095.369, 4.4003699E-02
1097.298, 4.4147812E-02
1099.226, 4.4066679E-02
1101.155, 4.3662541E-02
1103.083, 4.3302879E-02
1105.011, 4.2936549E-02
1106.940, 4.3020912E-02
1108.868, 4.3364260E-02
1110.797, 4.3282591E-02
1112.725, 4.3408029E-02
1114.654, 4.3767709E-02
1116.582, 4.3884460E-02
1118.511, 4.4032391E-02
1120.439, 4.4265881E-02
1122.368, 4.4274379E-02
1124.296, 4.4373799E-02
1126.225, 4.4664949E-02
1128.153, 4.5219030E-02
1130.082, 4.5881022E-02
1132.010, 4.6284571E-02
1133.938, 4.6702821E-02
1135.867, 4.7112700E-02
1137.795, 4.7633540E-02
1139.724, 4.8112031E-02
1141.652, 4.8599441E-02
1143.581, 4.9378861E-02
1145.509, 4.9906079E-02
1147.438, 5.0264511E-02
1149.366, 5.0887130E-02
1151.295, 5.1604070E-02
1153.223, 5.2044809E-02
1155.152, 5.2402299E-02
1157.080, 5.2969791E-02
1159.009, 5.3807691E-02
1160.937, 5.4475430E-02
1162.865, 5.4843560E-02
1164.794, 5.5390589E-02
1166.722, 5.6520239E-02
1168.651, 5.7488721E-02
1170.579, 5.8233220E-02
1172.508, 5.9041768E-02
1174.436, 5.9782911E-02
1176.365, 6.0738619E-02
1178.293, 6.1612040E-02
1180.222, 6.2072799E-02
1182.150, 6.2623881E-02
1184.079, 6.3528202E-02
1186.007, 6.4455591E-02
1187.936, 6.5218337E-02
1189.864, 6.5970667E-02
1191.792, 6.6637918E-02
1193.721, 6.7605853E-02
1195.649, 6.8582252E-02
1197.578, 6.9222450E-02
1199.506, 6.9779053E-02
1201.435, 7.0544459E-02
1203.363, 7.1574993E-02
1205.292, 7.2546132E-02
1207.220, 7.3459662E-02
1209.149, 7.4587941E-02
1211.077, 7.5489193E-02
1213.006, 7.6652683E-02
1214.934, 7.7923149E-02
1216.863, 7.9217717E-02
1218.791, 8.0708720E-02
1220.719, 8.2357973E-02
1222.648, 8.3930463E-02
1224.576, 8.5116908E-02
1226.505, 8.6347729E-02
1228.433, 8.7764718E-02
1230.362, 8.9308463E-02
1232.290, 9.0828732E-02
1234.219, 9.2267640E-02
1236.147, 9.3710274E-02
1238.076, 9.5320903E-02
1240.004, 9.6946061E-02
1241.933, 9.8608077E-02
1243.861, 0.1005323
1245.790, 0.1024372
1247.718, 0.1041011
1249.646, 0.1059328
1251.575, 0.1079888
1253.503, 0.1100884
1255.432, 0.1121740
1257.360, 0.1143830
1259.289, 0.1165526
1261.217, 0.1188364
1263.146, 0.1210832
1265.074, 0.1236338
1267.003, 0.1265260
1268.931, 0.1299076
1270.860, 0.1330837
1272.788, 0.1360842
1274.717, 0.1391842
1276.645, 0.1424062
1278.573, 0.1455425
1280.502, 0.1484807
1282.430, 0.1509541
1284.359, 0.1537350
1286.287, 0.1565768
1288.216, 0.1595758
1290.144, 0.1630275
1292.073, 0.1666135
1294.001, 0.1704438
1295.930, 0.1745162
1297.858, 0.1786025
1299.787, 0.1828989
1301.715, 0.1873500
1303.644, 0.1916363
1305.572, 0.1964161
1307.500, 0.2016694
1309.429, 0.2067228
1311.357, 0.2120075
1313.286, 0.2177003
1315.214, 0.2237975
1317.143, 0.2292497
1319.071, 0.2349306
1321.000, 0.2412658
1322.928, 0.2479582
1324.857, 0.2548265
1326.785, 0.2615965
1328.714, 0.2687629
1330.642, 0.2765896
1332.571, 0.2842430
1334.499, 0.2921086
1336.427, 0.3005720
1338.356, 0.3089586
1340.284, 0.3179922
1342.213, 0.3272600
1344.141, 0.3363927
1346.070, 0.3459415
1347.998, 0.3561206
1349.927, 0.3665787
1351.855, 0.3775763
1353.784, 0.3889375
1355.712, 0.3996969
1357.641, 0.4109796
1359.569, 0.4223717
1361.498, 0.4342503
1363.426, 0.4470013
1365.354, 0.4591268
1367.283, 0.4711746
1369.211, 0.4836493
1371.140, 0.4961695
1373.068, 0.5086783
1374.997, 0.5210056
1376.925, 0.5327122
1378.854, 0.5447763
1380.782, 0.5572202
1382.711, 0.5690728
1384.639, 0.5811787
1386.568, 0.5946013
1388.496, 0.6073503
1390.424, 0.6194792
1392.353, 0.6311883
1394.281, 0.6415903
1396.210, 0.6507199
1398.138, 0.6594543
1400.067, 0.6670116
1401.995, 0.6740242
1403.924, 0.6793123
1405.852, 0.6821529
1407.781, 0.6836959
1409.709, 0.6836173
1411.638, 0.6813378
1413.566, 0.6774978
1415.495, 0.6714284
1417.423, 0.6628741
1419.351, 0.6528406
1421.280, 0.6418567
1423.208, 0.6292099
1425.137, 0.6164045
1427.065, 0.6030772
1428.994, 0.5896437
1430.922, 0.5764547
1432.851, 0.5630603
1434.779, 0.5507114
1436.708, 0.5396325
1438.636, 0.5291219
1440.565, 0.5193859
1442.493, 0.5100868
1444.422, 0.5011004
1446.350, 0.4922635
1448.278, 0.4834669
1450.207, 0.4740964
1452.135, 0.4646614
1454.064, 0.4550244
1455.992, 0.4452494
1457.921, 0.4356834
1459.849, 0.4257883
1461.778, 0.4156347
1463.706, 0.4056293
1465.635, 0.3951432
1467.563, 0.3853186
1469.492, 0.3763513
1471.420, 0.3666624
1473.349, 0.3571087
1475.277, 0.3483422
1477.205, 0.3399388
1479.134, 0.3316532
1481.062, 0.3234867
1482.991, 0.3152342
1484.919, 0.3070601
1486.848, 0.2992058
1488.776, 0.2911901
1490.705, 0.2836606
1492.633, 0.2762121
1494.562, 0.2680987
1496.490, 0.2595906
1498.419, 0.2513835
1500.347, 0.2433276
1502.276, 0.2352670
1504.204, 0.2274673
1506.132, 0.2200641
1508.061, 0.2125677
1509.989, 0.2051452
1511.918, 0.1978502
1513.846, 0.1907349
1515.775, 0.1838871
1517.703, 0.1772115
1519.632, 0.1702416
1521.560, 0.1635720
1523.489, 0.1575692
1525.417, 0.1513076
1527.346, 0.1450541
1529.274, 0.1390635
1531.203, 0.1330852
1533.131, 0.1270786
1535.059, 0.1212215
1536.988, 0.1161016
1538.916, 0.1111408
1540.845, 0.1055482
1542.773, 9.9976778E-02
1544.702, 9.4914891E-02
1546.630, 9.0014420E-02
1548.559, 8.4980033E-02
1550.487, 7.9905123E-02
1552.416, 7.4871019E-02
1554.344, 6.9741867E-02
1556.273, 6.4192504E-02
1558.201, 5.8618490E-02
1560.130, 5.3194791E-02
1562.058, 4.8129920E-02
1563.986, 4.3225911E-02
1565.915, 3.8660269E-02
1567.843, 3.4846559E-02
1569.772, 3.1931289E-02
1571.700, 3.0141201E-02
1573.629, 2.8903160E-02
1575.557, 2.7559090E-02
1577.486, 2.6672710E-02
1579.414, 2.6100170E-02
1581.343, 2.5493940E-02
1583.271, 2.5065791E-02
1585.200, 2.4844039E-02
1587.128, 2.4724459E-02
1589.057, 2.4321200E-02
1590.985, 2.3817910E-02
1592.913, 2.3865240E-02
1594.842, 2.4049111E-02
1596.770, 2.3456160E-02
1598.699, 2.3066809E-02
1600.627, 2.2900460E-02
1602.556, 2.2749010E-02
1604.484, 2.2260729E-02
1606.413, 2.1625871E-02
1608.341, 2.1153010E-02
1610.270, 2.0615229E-02
1612.198, 2.0106889E-02
1614.127, 1.9577950E-02
1616.055, 1.9101709E-02
1617.984, 1.8730730E-02
1619.912, 1.8634990E-02
1621.840, 1.8556749E-02
1623.769, 1.8222230E-02
1625.697, 1.7884450E-02
1627.626, 1.7550310E-02
1629.554, 1.7161289E-02
1631.483, 1.7103510E-02
1633.411, 1.7121131E-02
1635.340, 1.6669329E-02
1637.268, 1.6382940E-02
1639.197, 1.6182169E-02
1641.125, 1.5991310E-02
1643.054, 1.6199701E-02
1644.982, 1.6270120E-02
1646.911, 1.6072350E-02
1648.839, 1.5969990E-02
1650.767, 1.5669759E-02
1652.696, 1.5349140E-02
1654.624, 1.5179830E-02
1656.553, 1.5102840E-02
1658.481, 1.4628380E-02
1660.410, 1.4039620E-02
1662.338, 1.3616810E-02
1664.267, 1.3402580E-02
1666.195, 1.2962590E-02
1668.124, 1.2940910E-02
1670.052, 1.3040490E-02
1671.981, 1.2447980E-02
1673.909, 1.1941020E-02
1675.838, 1.1772750E-02
1677.766, 1.1569780E-02
1679.694, 1.1072590E-02
1681.623, 1.0439090E-02
1683.551, 1.0423910E-02
1685.480, 1.0023500E-02
1687.408, 9.6210856E-03
1689.337, 9.2867734E-03
1691.265, 9.0462323E-03
1693.194, 8.9347260E-03
1695.122, 8.6713769E-03
1697.051, 8.1799841E-03
1698.979, 7.4789482E-03
1700.908, 7.2366372E-03
1702.836, 7.5606201E-03
1704.765, 7.3318239E-03
1706.693, 6.8274830E-03
1708.621, 6.6024000E-03
1710.550, 6.5801172E-03
1712.478, 6.5308628E-03
1714.407, 6.7693698E-03
1716.335, 7.1176058E-03
1718.264, 6.8382630E-03
1720.192, 6.7444760E-03
1722.121, 6.6740219E-03
1724.049, 6.6896230E-03
1725.978, 6.8574762E-03
1727.906, 6.6500590E-03
1729.835, 6.3773640E-03
1731.763, 5.9369858E-03
1733.692, 5.3947368E-03
1735.620, 5.0601200E-03
1737.548, 5.3295619E-03
1739.477, 5.5404608E-03
1741.405, 5.3064711E-03
1743.334, 5.3177569E-03
1745.262, 5.7048262E-03
1747.191, 5.4572672E-03
1749.119, 5.2281981E-03
1751.048, 5.0440631E-03
1752.976, 4.7755609E-03
1754.905, 4.5714839E-03
1756.833, 4.3206960E-03
1758.762, 3.8209520E-03
1760.690, 3.7755989E-03
1762.619, 4.4139861E-03
1764.547, 4.3955869E-03
1766.475, 4.0190271E-03
1768.404, 4.5937402E-03
1770.332, 5.2786702E-03
1772.261, 5.4266918E-03
1774.189, 5.0087678E-03
1776.118, 4.7677211E-03
1778.046, 5.1633492E-03
1779.975, 5.3919880E-03
1781.903, 5.5969711E-03
1783.832, 5.7808179E-03
1785.760, 6.0004508E-03
1787.689, 6.2448462E-03
1789.617, 6.6052992E-03
1791.546, 7.0972568E-03
1793.474, 7.2809872E-03
1795.402, 8.0248062E-03
1797.331, 8.9729866E-03
1799.259, 9.9467197E-03
1801.188, 1.0751370E-02
1803.116, 1.1597570E-02
1805.045, 1.2448820E-02
1806.973, 1.3564720E-02
1808.902, 1.4238990E-02
1810.830, 1.4382120E-02
1812.759, 1.4570570E-02
1814.687, 1.4320780E-02
1816.616, 1.3838250E-02
1818.544, 1.3514450E-02
1820.473, 1.2735240E-02
1822.401, 1.1315220E-02
1824.329, 9.6698478E-03
1826.258, 8.5317073E-03
1828.186, 7.9409471E-03
1830.115, 6.9853649E-03
1832.043, 5.9039709E-03
1833.972, 5.3011621E-03
1835.900, 4.5342380E-03
1837.829, 4.3916060E-03
1839.757, 4.4731428E-03
1841.686, 4.7623711E-03
1843.614, 4.8673451E-03
1845.543, 4.0279222E-03
1847.471, 3.5546729E-03
1849.400, 3.5777111E-03
1851.328, 3.5064591E-03
1853.256, 3.4925961E-03
1855.185, 3.0351861E-03
1857.113, 2.5914649E-03
1859.042, 2.9059141E-03
1860.970, 3.5574839E-03
1862.899, 3.9043999E-03
1864.827, 4.0721232E-03
1866.756, 3.4231809E-03
1868.684, 3.0355810E-03
1870.613, 2.7431310E-03
1872.541, 3.1468531E-03
1874.470, 3.0782081E-03
1876.398, 3.6800271E-03
1878.327, 3.8734491E-03
1880.255, 4.0159021E-03
1882.183, 4.7480278E-03
1884.112, 3.9862478E-03
1886.040, 3.4347600E-03
1887.969, 3.3894009E-03
1889.897, 2.8821270E-03
1891.826, 3.6809421E-03
1893.754, 4.1564158E-03
1895.683, 4.2364709E-03
1897.611, 3.0045700E-03
1899.540, 2.7247360E-03
1901.468, 3.7108420E-03
1903.397, 4.8092790E-03
1905.325, 3.8866270E-03
1907.254, 3.6493870E-03
1909.182, 4.6306811E-03
1911.110, 3.6893960E-03
1913.039, 2.1092060E-03
1914.967, 2.3193050E-03
1916.896, 3.2028379E-03
1918.824, 3.8729000E-03
1920.753, 3.9104251E-03
1922.681, 4.0553031E-03
1924.610, 4.0875659E-03
1926.538, 4.9857702E-03
1928.467, 4.7703739E-03
1930.395, 3.5270341E-03
1932.324, 3.1016229E-03
1934.252, 3.5833181E-03
1936.181, 3.9065131E-03
1938.109, 3.7304219E-03
1940.037, 3.5943580E-03
1941.966, 2.0743350E-03
1943.894, 1.3365800E-03
1945.823, 2.2239529E-03
1947.751, 2.3604350E-03
1949.680, 2.7811029E-03
1951.608, 4.1161850E-03
1953.537, 4.5391070E-03
1955.465, 3.9637792E-03
1957.394, 3.4505420E-03
1959.322, 2.2747270E-03
1961.251, 1.2070260E-03
1963.179, 1.4599520E-03
1965.108, 2.7579060E-03
1967.036, 3.9945669E-03
1968.964, 5.3200489E-03
1970.893, 6.3630091E-03
1972.821, 5.4968339E-03
1974.750, 5.7568960E-03
1976.678, 6.9806352E-03
1978.607, 7.8386357E-03
1980.535, 6.4427988E-03
1982.464, 6.2897238E-03
1984.392, 6.2472289E-03
1986.321, 5.0640171E-03
1988.249, 4.8704869E-03
1990.178, 6.0040429E-03
1992.106, 5.3769979E-03
1994.035, 5.5365888E-03
1995.963, 7.3472909E-03
1997.891, 7.3896409E-03
1999.820, 6.3088802E-03
2001.748, 5.6014638E-03
2003.677, 3.8881011E-03
2005.605, 3.9362339E-03
2007.534, 3.4832971E-03
2009.462, 3.6708959E-03
2011.391, 4.3927012E-03
2013.319, 3.7500940E-03
2015.248, 4.9054669E-03
2017.176, 4.3035732E-03
2019.105, 3.7575110E-03
2021.033, 4.1045579E-03
2022.962, 4.4447840E-03
2024.890, 5.1083588E-03
2026.818, 8.0173686E-03
2028.747, 8.0140065E-03
2030.675, 5.6500402E-03
2032.604, 6.8485518E-03
2034.532, 8.0824420E-03
2036.461, 6.6164350E-03
2038.389, 4.6194801E-03
2040.318, 4.6734610E-03
2042.246, 5.7598059E-03
2044.175, 6.5690982E-03
2046.103, 7.7589559E-03
2048.032, 8.9721624E-03
2049.960, 8.3853258E-03
2051.889, 5.9669232E-03
2053.817, 4.5993091E-03
2055.746, 5.3551672E-03
2057.674, 5.3480510E-03
2059.603, 4.9281358E-03
2061.531, 6.9516618E-03
2063.459, 7.5386590E-03
2065.388, 6.7299311E-03
2067.316, 4.7486629E-03
2069.245, 5.9572780E-03
2071.173, 6.9945510E-03
2073.102, 4.7700312E-03
2075.030, 3.4794109E-03
2076.959, 4.7562821E-03
2078.887, 5.6681400E-03
2080.816, 4.3447758E-03
2082.744, 5.1359031E-03
2084.673, 6.4130751E-03
2086.601, 6.1436668E-03
2088.530, 5.5527301E-03
2090.458, 5.0340742E-03
2092.386, 4.2545558E-03
2094.315, 4.4254698E-03
2096.243, 6.0187150E-03
2098.172, 7.2807362E-03
2100.100, 6.7166430E-03
2102.029, 5.6790928E-03
2103.957, 5.8341501E-03
2105.886, 6.5493109E-03
2107.814, 7.6757739E-03
2109.743, 7.7398978E-03
2111.671, 5.9041302E-03
2113.600, 7.8159170E-03
2115.528, 8.5188840E-03
2117.457, 6.5835998E-03
2119.385, 4.9868738E-03
2121.313, 3.3186991E-03
2123.242, 3.2124959E-03
2125.170, 4.3577231E-03
2127.099, 7.0087002E-03
2129.027, 7.6619722E-03
2130.956, 4.1450141E-03
2132.884, 2.5052819E-03
2134.813, 6.1150719E-03
2136.741, 6.1114021E-03
2138.670, 2.8224960E-03
2140.598, 2.8115960E-03
2142.527, 4.5024478E-03
2144.455, 7.0282300E-03
2146.384, 7.4051628E-03
2148.312, 6.4877761E-03
2150.240, 6.1613438E-03
2152.169, 5.4281652E-03
2154.097, 5.5651311E-03
2156.026, 4.9726102E-03
2157.954, 6.6398801E-03
2159.883, 7.4697710E-03
2161.811, 1.0637570E-02
2163.740, 1.2075870E-02
2165.668, 9.7086169E-03
2167.597, 8.6013442E-03
2169.525, 1.1166560E-02
2171.454, 1.0469280E-02
2173.382, 7.7547231E-03
2175.311, 6.6739032E-03
2177.239, 7.6071690E-03
2179.167, 6.7362031E-03
2181.096, 8.0131097E-03
2183.024, 1.1759300E-02
2184.953, 1.0596590E-02
2186.881, 8.0507332E-03
2188.810, 6.6175992E-03
2190.738, 6.2930970E-03
2192.667, 6.4375279E-03
2194.595, 6.7974408E-03
2196.524, 7.1559092E-03
2198.452, 9.6097216E-03
2200.381, 1.1393980E-02
2202.309, 1.0298980E-02
2204.238, 5.9016589E-03
2206.166, 5.7480382E-03
2208.094, 8.1328852E-03
2210.023, 8.8033229E-03
2211.951, 8.4705241E-03
2213.880, 8.2149329E-03
2215.808, 6.1826571E-03
2217.737, 5.2601132E-03
2219.665, 6.5485602E-03
2221.594, 8.6393487E-03
2223.522, 8.6490773E-03
2225.451, 8.9430679E-03
2227.379, 7.6228608E-03
2229.308, 5.9523559E-03
2231.236, 7.0315609E-03
2233.165, 9.3154954E-03
2235.093, 9.3764812E-03
2237.021, 7.6343450E-03
2238.950, 8.3641531E-03
2240.878, 9.2894258E-03
2242.807, 9.8744677E-03
2244.735, 8.8079926E-03
2246.664, 8.3210422E-03
2248.592, 9.0803551E-03
2250.521, 9.5228218E-03
2252.449, 9.2613688E-03
2254.378, 9.9812504E-03
2256.306, 9.2547378E-03
2258.235, 9.6352547E-03
2260.163, 1.0302720E-02
2262.092, 1.0227440E-02
2264.020, 1.1108640E-02
2265.948, 1.1040500E-02
2267.877, 9.7631374E-03
2269.805, 9.0142861E-03
2271.734, 8.5323323E-03
2273.662, 8.4238481E-03
2275.591, 8.6234836E-03
2277.519, 9.9836923E-03
2279.448, 1.0217920E-02
2281.376, 1.0180210E-02
2283.305, 1.1097300E-02
2285.233, 1.0933020E-02
2287.162, 1.0473660E-02
2289.090, 1.0093790E-02
2291.019, 1.0071470E-02
2292.947, 9.0284469E-03
2294.875, 8.7906858E-03
2296.804, 1.0234140E-02
2298.732, 1.0704240E-02
2300.661, 1.1267680E-02
2302.589, 1.1597860E-02
2304.518, 1.1683740E-02
2306.446, 1.1531930E-02
2308.375, 1.0950710E-02
2310.303, 1.0582800E-02
2312.232, 1.1115100E-02
2314.160, 1.2011630E-02
2316.089, 1.1458810E-02
2318.017, 1.0588950E-02
2319.946, 1.0262620E-02
2321.874, 1.0972510E-02
2323.802, 1.2229310E-02
2325.731, 1.1959010E-02
2327.659, 1.1798260E-02
2329.588, 1.1144600E-02
2331.516, 1.0877590E-02
2333.445, 1.1532560E-02
2335.373, 1.1638050E-02
2337.302, 1.1442120E-02
2339.230, 1.1788680E-02
2341.159, 1.2327480E-02
2343.087, 1.1696050E-02
2345.016, 1.0976620E-02
2346.944, 1.1183050E-02
2348.873, 1.0793690E-02
2350.801, 1.0325230E-02
2352.729, 1.0026080E-02
2354.658, 1.0771080E-02
2356.586, 1.1793450E-02
2358.515, 1.2839210E-02
2360.443, 1.2950620E-02
2362.372, 1.2575060E-02
2364.300, 1.1868430E-02
2366.229, 1.1602760E-02
2368.157, 1.1834840E-02
2370.086, 1.1729620E-02
2372.014, 1.0864610E-02
2373.942, 9.7692488E-03
2375.871, 9.6378010E-03
2377.799, 9.6644722E-03
2379.728, 9.7208619E-03
2381.656, 9.4247237E-03
2383.585, 9.1361487E-03
2385.513, 8.9493869E-03
2387.442, 9.4957557E-03
2389.370, 9.4186580E-03
2391.299, 9.4109084E-03
2393.227, 8.8465177E-03
2395.156, 8.6550070E-03
2397.084, 9.2001511E-03
2399.012, 9.1164559E-03
2400.941, 9.2984270E-03
2402.869, 9.9238958E-03
2404.798, 1.0011500E-02
2406.726, 8.9910040E-03
2408.655, 9.1819204E-03
2410.583, 9.2877401E-03
2412.512, 9.1184853E-03
2414.440, 1.0631090E-02
2416.369, 1.1113320E-02
2418.297, 1.0994410E-02
2420.226, 1.0388540E-02
2422.154, 1.0762750E-02
2424.083, 1.0845490E-02
2426.011, 9.8455781E-03
2427.939, 9.1582127E-03
2429.868, 9.8161278E-03
2431.796, 1.0559140E-02
2433.725, 1.0401610E-02
2435.653, 1.0225030E-02
2437.582, 1.0178240E-02
2439.510, 1.0757320E-02
2441.439, 1.0904270E-02
2443.367, 1.0316190E-02
2445.296, 1.0447060E-02
2447.224, 1.0465610E-02
2449.153, 1.0589170E-02
2451.081, 1.0439290E-02
2453.010, 1.0358460E-02
2454.938, 1.1290050E-02
2456.866, 1.1081580E-02
2458.795, 1.0628150E-02
2460.723, 1.1631970E-02
2462.652, 1.1077910E-02
2464.580, 9.5962230E-03
2466.509, 1.0481230E-02
2468.437, 1.2136870E-02
2470.366, 1.2610370E-02
2472.294, 1.2046470E-02
2474.223, 1.1393900E-02
2476.151, 1.1139050E-02
2478.080, 1.0903260E-02
2480.008, 1.1500360E-02
2481.937, 1.1972210E-02
2483.865, 1.2181840E-02
2485.793, 1.1577390E-02
2487.722, 1.1244320E-02
2489.650, 1.2434080E-02
2491.579, 1.4139390E-02
2493.507, 1.5516360E-02
2495.436, 1.6198920E-02
2497.364, 1.5237970E-02
2499.293, 1.4238880E-02
2501.221, 1.5465250E-02
2503.150, 1.6375450E-02
2505.078, 1.7430140E-02
2507.007, 1.8276570E-02
2508.935, 1.7908590E-02
2510.864, 1.8118160E-02
2512.792, 1.8861439E-02
2514.720, 1.9535670E-02
2516.649, 2.0107850E-02
2518.577, 2.2006020E-02
2520.506, 2.2280410E-02
2522.434, 2.1507891E-02
2524.363, 2.0573210E-02
2526.291, 2.1190150E-02
2528.220, 2.1461019E-02
2530.148, 2.0875471E-02
2532.077, 2.0494860E-02
2534.005, 2.0113030E-02
2535.934, 1.9916311E-02
2537.862, 1.9643620E-02
2539.791, 1.8877370E-02
2541.719, 1.8477220E-02
2543.647, 1.8260380E-02
2545.576, 1.7142970E-02
2547.504, 1.7095610E-02
2549.433, 1.7172471E-02
2551.361, 1.6636269E-02
2553.290, 1.6196771E-02
2555.218, 1.5479010E-02
2557.147, 1.5007250E-02
2559.075, 1.5484230E-02
2561.004, 1.6274899E-02
2562.932, 1.5641401E-02
2564.861, 1.4475100E-02
2566.789, 1.3606710E-02
2568.718, 1.3887420E-02
2570.646, 1.3541370E-02
2572.574, 1.2980420E-02
2574.503, 1.4191150E-02
2576.431, 1.3891180E-02
2578.360, 1.2721490E-02
2580.288, 1.3797280E-02
2582.217, 1.3987950E-02
2584.145, 1.1846020E-02
2586.074, 1.2039930E-02
2588.002, 1.2282520E-02
2589.931, 1.1695110E-02
2591.859, 1.2247870E-02
2593.788, 1.2048390E-02
2595.716, 1.1260730E-02
2597.645, 1.1518280E-02
2599.573, 1.2268820E-02
2601.501, 1.2492910E-02
2603.430, 1.2185430E-02
2605.358, 1.2632070E-02
2607.287, 1.2518600E-02
2609.215, 1.3014950E-02
2611.144, 1.4486610E-02
2613.072, 1.4630620E-02
2615.001, 1.3892280E-02
2616.929, 1.3614390E-02
2618.858, 1.4119400E-02
2620.786, 1.3858150E-02
2622.715, 1.3301370E-02
2624.643, 1.3329360E-02
2626.572, 1.3140180E-02
2628.500, 1.3396800E-02
2630.428, 1.3116890E-02
2632.357, 1.2115590E-02
2634.285, 1.2498120E-02
2636.214, 1.3165880E-02
2638.142, 1.3199300E-02
2640.071, 1.3119310E-02
2641.999, 1.3285190E-02
2643.928, 1.3141490E-02
2645.856, 1.2727810E-02
2647.785, 1.2840170E-02
2649.713, 1.3051960E-02
2651.642, 1.2289780E-02
2653.570, 1.1604960E-02
2655.499, 1.1563090E-02
2657.427, 1.1776600E-02
2659.355, 1.1869270E-02
2661.284, 1.1791110E-02
2663.212, 1.2024150E-02
2665.141, 1.1542110E-02
2667.069, 1.0600810E-02
2668.998, 1.0511730E-02
2670.926, 1.0662220E-02
2672.855, 1.0788980E-02
2674.783, 1.0852670E-02
2676.712, 1.0570570E-02
2678.640, 1.0770410E-02
2680.569, 1.0550490E-02
2682.497, 1.0436460E-02
2684.426, 9.1963550E-03
2686.354, 9.0313507E-03
2688.282, 9.6910633E-03
2690.211, 1.0200200E-02
2692.139, 1.0213360E-02
2694.068, 1.0271190E-02
2695.996, 1.0303690E-02
2697.925, 1.0215110E-02
2699.853, 1.0259590E-02
2701.782, 1.0424510E-02
2703.710, 1.1242530E-02
2705.639, 1.0927650E-02
2707.567, 1.0177140E-02
2709.496, 9.9350177E-03
2711.424, 1.0805570E-02
2713.353, 1.1286800E-02
2715.281, 1.1255760E-02
2717.209, 1.0971840E-02
2719.138, 9.5085315E-03
2721.066, 9.4481111E-03
2722.995, 1.0209010E-02
2724.923, 1.0483830E-02
2726.852, 1.0741040E-02
2728.780, 1.0553590E-02
2730.709, 1.0059700E-02
2732.637, 1.0384990E-02
2734.566, 1.0454930E-02
2736.494, 1.0545000E-02
2738.423, 1.0612120E-02
2740.351, 1.0656880E-02
2742.280, 1.0816580E-02
2744.208, 1.0963290E-02
2746.136, 1.1512650E-02
2748.065, 1.1521840E-02
2749.993, 1.0738870E-02
2751.922, 1.0751740E-02
2753.850, 1.0976770E-02
2755.779, 1.1204720E-02
2757.707, 1.1639580E-02
2759.636, 1.0897770E-02
2761.564, 1.0606060E-02
2763.493, 1.0902650E-02
2765.421, 1.1047120E-02
2767.350, 1.0734490E-02
2769.278, 1.1097530E-02
2771.207, 1.1632030E-02
2773.135, 1.0700380E-02
2775.063, 1.0125370E-02
2776.992, 1.0243200E-02
2778.920, 1.0176580E-02
2780.849, 1.0711740E-02
2782.777, 1.0812840E-02
2784.706, 9.5669599E-03
2786.634, 9.5120706E-03
2788.563, 1.0707980E-02
2790.491, 1.1239650E-02
2792.420, 1.2175470E-02
2794.348, 1.1835470E-02
2796.277, 1.0678160E-02
2798.205, 1.1152720E-02
2800.134, 1.1940450E-02
2802.062, 1.2512300E-02
2803.990, 1.3397480E-02
2805.919, 1.2755260E-02
2807.847, 1.1390690E-02
2809.776, 1.1709230E-02
2811.704, 1.2052640E-02
2813.633, 1.1624400E-02
2815.561, 1.2127310E-02
2817.490, 1.3438200E-02
2819.418, 1.2865630E-02
2821.347, 1.2158270E-02
2823.275, 1.2188970E-02
2825.204, 1.2684870E-02
2827.132, 1.3754330E-02
2829.061, 1.4065290E-02
2830.989, 1.4704200E-02
2832.917, 1.5496460E-02
2834.846, 1.5542400E-02
2836.774, 1.5295900E-02
2838.703, 1.5870489E-02
2840.631, 1.7034961E-02
2842.560, 1.8432271E-02
2844.488, 1.9882910E-02
2846.417, 2.1993309E-02
2848.345, 2.3736110E-02
2850.274, 2.4853330E-02
2852.202, 2.5140150E-02
2854.131, 2.4890341E-02
2856.059, 2.4339650E-02
2857.988, 2.2898110E-02
2859.916, 2.1670841E-02
2861.844, 2.1452740E-02
2863.773, 2.0250700E-02
2865.701, 1.9148400E-02
2867.630, 1.9180780E-02
2869.558, 2.0261461E-02
2871.487, 2.2125321E-02
2873.415, 2.2157051E-02
2875.344, 2.0583840E-02
2877.272, 1.9718209E-02
2879.201, 2.0482751E-02
2881.129, 2.1930380E-02
2883.058, 2.2644540E-02
2884.986, 2.2310980E-02
2886.915, 2.2801749E-02
2888.843, 2.2870891E-02
2890.771, 2.2230919E-02
2892.700, 2.3324341E-02
2894.628, 2.3821980E-02
2896.557, 2.3632361E-02
2898.485, 2.4751950E-02
2900.414, 2.4742840E-02
2902.342, 2.5035011E-02
2904.271, 2.6547220E-02
2906.199, 2.6402790E-02
2908.128, 2.5876790E-02
2910.056, 2.7700130E-02
2911.985, 3.0029381E-02
2913.913, 3.1596631E-02
2915.842, 3.3706680E-02
2917.770, 3.4544270E-02
2919.698, 3.4279920E-02
2921.627, 3.4937460E-02
2923.555, 3.5075542E-02
2925.484, 3.4179650E-02
2927.412, 3.2716289E-02
2929.341, 2.9935850E-02
2931.269, 2.7995270E-02
2933.198, 2.6731640E-02
2935.126, 2.5829891E-02
2937.055, 2.5105931E-02
2938.983, 2.3742570E-02
2940.912, 2.2464771E-02
2942.840, 2.2299690E-02
2944.769, 2.2451730E-02
2946.697, 2.2491870E-02
2948.625, 2.2377631E-02
2950.554, 2.2125570E-02
2952.482, 2.2249321E-02
2954.411, 2.2264751E-02
2956.339, 2.2270611E-02
2958.268, 2.1934720E-02
2960.196, 2.1541910E-02
2962.125, 2.1277320E-02
2964.053, 2.0575160E-02
2965.982, 2.0588540E-02
2967.910, 2.0388110E-02
2969.839, 1.9372961E-02
2971.767, 1.8506721E-02
2973.696, 1.8963899E-02
2975.624, 1.9842049E-02
2977.552, 2.0327659E-02
2979.481, 1.9810321E-02
2981.409, 1.9722641E-02
2983.338, 1.9950200E-02
2985.266, 2.0411780E-02
2987.195, 2.0694360E-02
2989.123, 1.9758379E-02
2991.052, 1.9425729E-02
2992.980, 2.0204430E-02
2994.909, 2.0357750E-02
2996.837, 2.0139500E-02
2998.766, 1.9566599E-02
3000.694, 1.9351101E-02
3002.623, 1.9300129E-02
3004.551, 1.8767240E-02
3006.479, 1.8822839E-02
3008.408, 1.9915611E-02
3010.336, 2.0352591E-02
3012.265, 2.0337449E-02
3014.193, 2.0360110E-02
3016.122, 2.0288071E-02
3018.050, 1.9954160E-02
3019.979, 2.0728011E-02
3021.907, 2.1225231E-02
3023.836, 1.9920900E-02
3025.764, 1.9037150E-02
3027.693, 1.8953821E-02
3029.621, 1.9954320E-02
3031.550, 2.0725690E-02
3033.478, 2.0322241E-02
3035.406, 2.0444561E-02
3037.335, 1.9284770E-02
3039.263, 1.8858710E-02
3041.192, 2.0485571E-02
3043.120, 2.0769451E-02
3045.049, 1.9134231E-02
3046.977, 1.9540250E-02
3048.906, 2.0203710E-02
3050.834, 2.0522499E-02
3052.763, 2.0549750E-02
3054.691, 1.9451980E-02
3056.620, 1.8810671E-02
3058.548, 2.0620599E-02
3060.477, 2.1484179E-02
3062.405, 2.1644879E-02
3064.333, 2.0859061E-02
3066.262, 2.0062800E-02
3068.190, 2.1163650E-02
3070.119, 2.1568920E-02
3072.047, 2.2911940E-02
3073.976, 2.3548590E-02
3075.904, 2.3531619E-02
3077.833, 2.3151189E-02
3079.761, 2.2008929E-02
3081.690, 2.2446809E-02
3083.618, 2.3911480E-02
3085.547, 2.4282740E-02
3087.475, 2.3802049E-02
3089.404, 2.3271240E-02
3091.332, 2.2056529E-02
3093.260, 2.3615370E-02
3095.189, 2.6006410E-02
3097.117, 2.4964750E-02
3099.046, 2.2898439E-02
3100.974, 2.3836359E-02
3102.903, 2.5672860E-02
3104.831, 2.6061101E-02
3106.760, 2.5433371E-02
3108.688, 2.5675170E-02
3110.617, 2.6753210E-02
3112.545, 2.7779300E-02
3114.474, 2.7905861E-02
3116.402, 2.7695680E-02
3118.331, 2.7564660E-02
3120.259, 2.6928309E-02
3122.188, 2.7177559E-02
3124.116, 2.7705809E-02
3126.044, 2.7634220E-02
3127.973, 2.7846539E-02
3129.901, 2.7625229E-02
3131.830, 2.7496230E-02
3133.758, 2.6960719E-02
3135.687, 2.7215570E-02
3137.615, 2.8336100E-02
3139.544, 2.8774070E-02
3141.472, 2.9294470E-02
3143.401, 2.9134860E-02
3145.329, 3.0130969E-02
3147.258, 2.9175291E-02
3149.186, 2.8744150E-02
3151.115, 3.0230690E-02
3153.043, 3.0783650E-02
3154.971, 3.0733621E-02
3156.900, 3.1018579E-02
3158.828, 3.0575329E-02
3160.757, 3.1331930E-02
3162.685, 3.2486670E-02
3164.614, 3.2683440E-02
3166.542, 3.1912670E-02
3168.471, 3.1242140E-02
3170.399, 3.1662039E-02
3172.328, 3.1269629E-02
3174.256, 3.2485459E-02
3176.185, 3.2909740E-02
3178.113, 3.3198401E-02
3180.042, 3.4279920E-02
3181.970, 3.4490090E-02
3183.898, 3.3938181E-02
3185.827, 3.3460319E-02
3187.755, 3.5577081E-02
3189.684, 3.6476579E-02
3191.612, 3.6347289E-02
3193.541, 3.4569070E-02
3195.469, 3.3099469E-02
3197.398, 3.5037529E-02
3199.326, 3.6464632E-02
3201.255, 3.6792520E-02
3203.183, 3.6824059E-02
3205.112, 3.6189809E-02
3207.040, 3.3764109E-02
3208.969, 3.3868078E-02
3210.897, 3.6204468E-02
3212.825, 3.5188690E-02
3214.754, 3.4053341E-02
3216.682, 3.5907030E-02
3218.611, 3.6657061E-02
3220.539, 3.6590621E-02
3222.468, 3.6135182E-02
3224.396, 3.5604808E-02
3226.325, 3.4873419E-02
3228.253, 3.5401542E-02
3230.182, 3.6828510E-02
3232.110, 3.7349060E-02
3234.039, 3.6883369E-02
3235.967, 3.8680099E-02
3237.896, 3.9496388E-02
3239.824, 3.9106719E-02
3241.752, 3.9647952E-02
3243.681, 3.8346380E-02
3245.609, 3.7226219E-02
3247.538, 3.7631098E-02
3249.466, 3.8856179E-02
3251.395, 3.9569870E-02
3253.323, 3.9393138E-02
3255.252, 3.8967378E-02
3257.180, 3.9103739E-02
3259.109, 3.7306540E-02
3261.037, 3.5379130E-02
3262.966, 3.7481900E-02
3264.894, 4.0248901E-02
3266.823, 4.0621061E-02
3268.751, 3.9543759E-02
3270.679, 3.9778039E-02
3272.608, 3.8479660E-02
3274.536, 3.8093269E-02
3276.465, 3.9024919E-02
3278.393, 4.0879961E-02
3280.322, 4.2477131E-02
3282.250, 4.2550620E-02
3284.179, 4.1223250E-02
3286.107, 4.1469269E-02
3288.036, 4.2276122E-02
3289.964, 4.1900449E-02
3291.893, 4.1644581E-02
3293.821, 4.2051170E-02
3295.750, 4.1067731E-02
3297.678, 4.2113692E-02
3299.606, 4.2217590E-02
3301.535, 4.1142520E-02
3303.463, 4.0620562E-02
3305.392, 4.1637771E-02
3307.320, 4.2720608E-02
3309.249, 4.2641260E-02
3311.177, 4.3386210E-02
3313.106, 4.3878030E-02
3315.034, 4.1529711E-02
3316.963, 4.0808938E-02
3318.891, 4.0842619E-02
3320.820, 4.0932681E-02
3322.748, 4.1327789E-02
3324.677, 4.1908249E-02
3326.605, 4.2147040E-02
3328.533, 4.2909749E-02
3330.462, 4.3055572E-02
3332.390, 4.2925350E-02
3334.319, 4.2596869E-02
3336.247, 4.2861279E-02
3338.176, 4.3383092E-02
3340.104, 4.2588599E-02
3342.033, 4.1773919E-02
3343.961, 4.2065680E-02
3345.890, 4.2500041E-02
3347.818, 4.4648271E-02
3349.747, 4.5297660E-02
3351.675, 4.2997479E-02
3353.604, 4.1524161E-02
3355.532, 4.1599981E-02
3357.460, 4.3054290E-02
3359.389, 4.2161681E-02
3361.317, 4.2493269E-02
3363.246, 4.4756468E-02
3365.174, 4.6203751E-02
3367.103, 4.3530520E-02
3369.031, 4.0861011E-02
3370.960, 4.0162470E-02
3372.888, 4.0258162E-02
3374.817, 4.2164251E-02
3376.745, 4.4063158E-02
3378.674, 4.3058831E-02
3380.602, 4.1510548E-02
3382.531, 4.2724740E-02
3384.459, 4.2562660E-02
3386.387, 4.0633582E-02
3388.316, 4.0895760E-02
3390.244, 4.1795589E-02
3392.173, 4.1855901E-02
3394.101, 4.0779330E-02
3396.030, 4.0461741E-02
3397.958, 4.0342271E-02
3399.887, 4.1374601E-02
3401.815, 3.9956510E-02
3403.744, 3.8733140E-02
3405.672, 3.8844630E-02
3407.601, 3.9940011E-02
3409.529, 4.1247401E-02
3411.458, 3.9989982E-02
3413.386, 3.8901150E-02
3415.314, 4.0353078E-02
3417.243, 4.1492540E-02
3419.171, 4.2734381E-02
3421.100, 4.2140879E-02
3423.028, 3.9814539E-02
3424.957, 3.9077289E-02
3426.885, 3.8734589E-02
3428.814, 3.8818661E-02
3430.742, 3.8203340E-02
3432.671, 3.8250599E-02
3434.599, 3.9905291E-02
3436.528, 3.9725490E-02
3438.456, 4.0325079E-02
3440.385, 4.0947322E-02
3442.313, 4.0619101E-02
3444.241, 4.0561531E-02
3446.170, 3.9450850E-02
3448.098, 3.7278891E-02
3450.027, 3.5640251E-02
3451.955, 3.7229490E-02
3453.884, 3.8981259E-02
3455.812, 3.7289038E-02
3457.741, 3.4210458E-02
3459.669, 3.3879869E-02
3461.598, 3.5687070E-02
3463.526, 3.5516240E-02
3465.455, 3.3579070E-02
3467.383, 3.4871671E-02
3469.312, 3.5746820E-02
3471.240, 3.4269661E-02
3473.168, 3.3776678E-02
3475.097, 3.4230709E-02
3477.025, 3.5255421E-02
3478.954, 3.6993012E-02
3480.882, 3.5605419E-02
3482.811, 3.4529932E-02
3484.739, 3.3681870E-02
3486.668, 3.2161620E-02
3488.596, 3.1988971E-02
3490.525, 3.3933640E-02
3492.453, 3.4767490E-02
3494.382, 3.1533379E-02
3496.310, 3.0681560E-02
3498.239, 3.1588539E-02
3500.167, 3.0154690E-02
3502.095, 3.0024890E-02
3504.024, 3.2674339E-02
3505.952, 3.2884728E-02
3507.881, 2.9779579E-02
3509.809, 2.8385270E-02
3511.738, 3.0987810E-02
3513.666, 2.9894819E-02
3515.595, 3.1033380E-02
3517.523, 3.5627391E-02
3519.452, 3.3387579E-02
3521.380, 3.1349052E-02
3523.309, 3.1477999E-02
3525.237, 3.1086899E-02
3527.166, 3.1218410E-02
3529.094, 2.8979810E-02
3531.022, 2.7807141E-02
3532.951, 2.8817760E-02
3534.879, 3.1010341E-02
3536.808, 3.1897210E-02
3538.736, 2.8020371E-02
3540.665, 2.4907980E-02
3542.593, 2.6153900E-02
3544.522, 2.7215900E-02
3546.450, 2.7135029E-02
3548.379, 2.6232490E-02
3550.307, 2.7926670E-02
3552.236, 2.9733820E-02
3554.164, 2.9837960E-02
3556.093, 2.8548190E-02
3558.021, 2.7357230E-02
3559.949, 2.7912561E-02
3561.878, 2.7855581E-02
3563.806, 2.7948691E-02
3565.735, 2.7658399E-02
3567.663, 2.6148779E-02
3569.592, 2.6619241E-02
3571.520, 2.8566940E-02
3573.449, 2.9735880E-02
3575.377, 2.8099140E-02
3577.306, 2.4504760E-02
3579.234, 2.4585079E-02
3581.163, 2.5689090E-02
3583.091, 2.2079401E-02
3585.020, 2.1464650E-02
3586.948, 2.3747830E-02
3588.876, 2.3917450E-02
3590.805, 2.4050400E-02
3592.733, 2.5939470E-02
3594.662, 2.3543511E-02
3596.590, 2.2378961E-02
3598.519, 2.3535840E-02
3600.447, 2.6218729E-02
3602.376, 2.3746351E-02
3604.304, 2.0996241E-02
3606.233, 2.4234300E-02
3608.161, 2.5915699E-02
3610.090, 2.4947841E-02
3612.018, 2.3483690E-02
3613.947, 2.4947239E-02
3615.875, 2.5157040E-02
3617.803, 2.3569610E-02
3619.732, 2.1455079E-02
3621.660, 2.1712260E-02
3623.589, 2.2056190E-02
3625.517, 2.2810860E-02
3627.446, 2.4727590E-02
3629.374, 2.5350180E-02
3631.303, 2.3578290E-02
3633.231, 2.4926750E-02
3635.160, 2.5354240E-02
3637.088, 2.3341380E-02
3639.017, 2.1485411E-02
3640.945, 2.0791700E-02
3642.874, 1.8962670E-02
3644.802, 2.1091031E-02
3646.730, 2.5430650E-02
3648.659, 2.6561581E-02
3650.587, 2.3789950E-02
3652.516, 2.3232950E-02
3654.444, 2.3212411E-02
3656.373, 2.1122510E-02
3658.301, 1.8386800E-02
3660.230, 1.8924151E-02
3662.158, 2.0792481E-02
3664.087, 1.9800160E-02
3666.015, 2.0537499E-02
3667.944, 2.1642519E-02
3669.872, 2.4398450E-02
3671.801, 2.6108850E-02
3673.729, 2.4043441E-02
3675.657, 2.2864260E-02
3677.586, 1.9419881E-02
3679.514, 2.1412609E-02
3681.443, 2.6022431E-02
3683.371, 2.5298400E-02
3685.300, 2.1630811E-02
3687.228, 2.0808689E-02
3689.157, 2.3242760E-02
3691.085, 2.5022401E-02
3693.014, 2.2625189E-02
3694.942, 2.2819050E-02
3696.871, 2.3786830E-02
3698.799, 2.2410819E-02
3700.728, 2.0524669E-02
3702.656, 2.0410109E-02
3704.584, 2.2383140E-02
3706.513, 2.3145650E-02
3708.441, 2.2613170E-02
3710.370, 2.3102639E-02
3712.298, 2.2771910E-02
3714.227, 2.3395341E-02
3716.155, 2.4232989E-02
3718.084, 2.3280401E-02
3720.012, 2.5596259E-02
3721.941, 2.4859831E-02
3723.869, 2.3041250E-02
3725.798, 2.2541231E-02
3727.726, 2.4886690E-02
3729.655, 2.6176579E-02
3731.583, 2.2695471E-02
3733.511, 2.2641839E-02
3735.440, 2.1214319E-02
3737.368, 2.1462791E-02
3739.297, 2.3968389E-02
3741.225, 2.4396470E-02
3743.154, 2.5286190E-02
3745.082, 2.5306400E-02
3747.011, 2.0787019E-02
3748.939, 1.9423019E-02
3750.868, 2.3892850E-02
3752.796, 2.7471419E-02
3754.725, 2.3984339E-02
3756.653, 2.0490941E-02
3758.582, 1.9355901E-02
3760.510, 1.9940510E-02
3762.438, 2.0892680E-02
3764.367, 2.3709141E-02
3766.295, 2.3398070E-02
3768.224, 2.1413660E-02
3770.152, 1.9976331E-02
3772.081, 1.9607039E-02
3774.009, 2.1136800E-02
3775.938, 2.2768211E-02
3777.866, 2.0381290E-02
3779.795, 1.9675151E-02
3781.723, 2.1031370E-02
3783.652, 2.2474069E-02
3785.580, 2.5325790E-02
3787.509, 2.6592961E-02
3789.437, 2.3295781E-02
3791.365, 2.0563381E-02
3793.294, 1.9927960E-02
3795.222, 2.0452389E-02
3797.151, 2.1453509E-02
3799.079, 2.1434311E-02
3801.008, 2.3820570E-02
3802.936, 2.5713719E-02
3804.865, 2.2475470E-02
3806.793, 2.0577200E-02
3808.722, 2.3325380E-02
3810.650, 2.3425549E-02
3812.579, 2.4617869E-02
3814.507, 2.6748350E-02
3816.436, 2.7045010E-02
3818.364, 2.7556689E-02
3820.292, 2.6739260E-02
3822.221, 2.7797390E-02
3824.149, 2.7876230E-02
3826.078, 2.6488241E-02
3828.006, 2.4342259E-02
3829.935, 2.1943200E-02
3831.863, 2.3317860E-02
3833.792, 2.5648581E-02
3835.720, 2.3957649E-02
3837.649, 2.4112379E-02
3839.577, 2.8216140E-02
3841.506, 2.9117590E-02
3843.434, 2.9466189E-02
3845.363, 2.9223450E-02
3847.291, 2.5268011E-02
3849.219, 2.5497699E-02
3851.148, 2.8076280E-02
3853.076, 2.7203189E-02
3855.005, 2.4184501E-02
3856.933, 2.5857260E-02
3858.862, 2.6027190E-02
3860.790, 2.2174940E-02
3862.719, 2.3719801E-02
3864.647, 2.7699331E-02
3866.576, 2.6429139E-02
3868.504, 2.5201600E-02
3870.433, 2.6782800E-02
3872.361, 2.7467931E-02
3874.290, 2.6510820E-02
3876.218, 2.3588169E-02
3878.146, 2.2529989E-02
3880.075, 2.1335620E-02
3882.003, 2.2833990E-02
3883.932, 2.4751831E-02
3885.860, 2.4359260E-02
3887.789, 2.5770061E-02
3889.717, 2.5869999E-02
3891.646, 2.4785681E-02
3893.574, 2.3515079E-02
3895.503, 2.3665600E-02
3897.431, 2.5250440E-02
3899.360, 2.5206281E-02
3901.288, 2.8063539E-02
3903.217, 2.8726559E-02
3905.145, 2.6798330E-02
3907.073, 2.6850360E-02
3909.002, 2.6070461E-02
3910.930, 2.3622790E-02
3912.859, 2.1305829E-02
3914.787, 2.5466381E-02
3916.716, 2.9571321E-02
3918.644, 2.7229870E-02
3920.573, 2.3788260E-02
3922.501, 2.7774321E-02
3924.430, 2.8833620E-02
3926.358, 2.6040900E-02
3928.287, 2.3499710E-02
3930.215, 2.4312850E-02
3932.144, 2.5522020E-02
3934.072, 2.8769240E-02
3936.000, 2.6978670E-02
3937.929, 2.2591820E-02
3939.857, 2.1870211E-02
3941.786, 2.5211981E-02
3943.714, 2.7987881E-02
3945.643, 2.7958110E-02
3947.571, 2.2821300E-02
3949.500, 2.2698781E-02
3951.428, 2.6276579E-02
3953.357, 2.7834229E-02
3955.285, 3.0849610E-02
3957.214, 3.1490460E-02
3959.142, 3.0501099E-02
3961.071, 2.8378820E-02
3962.999, 2.6308719E-02
3964.927, 2.6997579E-02
3966.856, 2.6454980E-02
3968.784, 2.3895970E-02
3970.713, 2.1404371E-02
3972.641, 2.3651609E-02
3974.570, 2.7937939E-02
3976.498, 2.6675560E-02
3978.427, 2.5827641E-02
3980.355, 2.8087990E-02
3982.284, 2.6713571E-02
3984.212, 2.3952590E-02
3986.141, 2.6596870E-02
3988.069, 2.8625591E-02
3989.998, 2.8245790E-02
3991.926, 3.1302121E-02
3993.854, 3.1702381E-02
3995.783, 3.0699691E-02
3997.711, 2.7903130E-02
3999.640, 2.7916590E-02
##END=



