##NAMES=Dravite
##RRUFFID=R050059
##IDEAL CHEMISTRY=NaMg_3_Al_6_(Si_6_O_18_)(BO_3_)_3_(OH)_3_OH
##LOCALITY=Nepal
##OWNER=RRUFF
##SOURCE=Rock Currier
##DESCRIPTION=Dark brown single crystal
##STATUS=The identification of this mineral has been confirmed by X-ray diffraction and chemical analysis
##URL=rruff.info/R050059
##MEASURED CHEMISTRY=(Na_0.79_[box]_0.16_Ca_0.05_)_Σ=1_(Mg_2.44_Al_0.29_[box]_0.14_Fe^2+^_0.08_Ti_0.05_)_Σ=3_Al_6.00_(BO_3_)_3_Si_6.00_O_18_(OH)_4_ ; H_2_O assumed ideal from stoichiometry; B_2_O_3_ estimated by difference
3.991926e+002, 0.000000e+000
4.011211e+002, 2.154308e-001
4.030496e+002, 2.164496e-001
4.049780e+002, 2.207074e-001
4.069065e+002, 2.216316e-001
4.088350e+002, 2.200470e-001
4.107634e+002, 2.211245e-001
4.126919e+002, 2.261414e-001
4.146204e+002, 2.289121e-001
4.165488e+002, 2.302514e-001
4.184773e+002, 2.332320e-001
4.204058e+002, 2.337179e-001
4.223342e+002, 2.328111e-001
4.242627e+002, 2.320265e-001
4.261912e+002, 2.283379e-001
4.281196e+002, 2.234504e-001
4.300481e+002, 2.205781e-001
4.319766e+002, 2.177912e-001
4.339050e+002, 2.176885e-001
4.358335e+002, 2.194330e-001
4.377620e+002, 2.209436e-001
4.396904e+002, 2.234307e-001
4.416189e+002, 2.260727e-001
4.435474e+002, 2.309720e-001
4.454758e+002, 2.341603e-001
4.474043e+002, 2.345921e-001
4.493328e+002, 2.363253e-001
4.512612e+002, 2.369954e-001
4.531897e+002, 2.369838e-001
4.551182e+002, 2.384114e-001
4.570466e+002, 2.386494e-001
4.589751e+002, 2.379664e-001
4.609036e+002, 2.396770e-001
4.628320e+002, 2.400902e-001
4.647605e+002, 2.402461e-001
4.666890e+002, 2.416661e-001
4.686174e+002, 2.428470e-001
4.705459e+002, 2.444760e-001
4.724744e+002, 2.463458e-001
4.744028e+002, 2.474086e-001
4.763313e+002, 2.495409e-001
4.782598e+002, 2.522582e-001
4.801882e+002, 2.538181e-001
4.821167e+002, 2.540555e-001
4.840452e+002, 2.543060e-001
4.859736e+002, 2.557868e-001
4.879021e+002, 2.561775e-001
4.898306e+002, 2.541251e-001
4.917590e+002, 2.515981e-001
4.936875e+002, 2.495905e-001
4.956160e+002, 2.469607e-001
4.975444e+002, 2.433730e-001
4.994729e+002, 2.400589e-001
5.014014e+002, 2.371453e-001
5.033298e+002, 2.331113e-001
5.052583e+002, 2.293277e-001
5.071868e+002, 2.260259e-001
5.091152e+002, 2.219082e-001
5.110437e+002, 2.171204e-001
5.129722e+002, 2.118922e-001
5.149006e+002, 2.061242e-001
5.168291e+002, 2.004666e-001
5.187576e+002, 1.945940e-001
5.206860e+002, 1.891103e-001
5.226145e+002, 1.835462e-001
5.245430e+002, 1.788887e-001
5.264714e+002, 1.748452e-001
5.283999e+002, 1.706857e-001
5.303284e+002, 1.659960e-001
5.322568e+002, 1.614057e-001
5.341853e+002, 1.578901e-001
5.361138e+002, 1.539441e-001
5.380422e+002, 1.512208e-001
5.399707e+002, 1.483059e-001
5.418992e+002, 1.453171e-001
5.438276e+002, 1.423282e-001
5.457561e+002, 1.400820e-001
5.476846e+002, 1.381399e-001
5.496130e+002, 1.363106e-001
5.515415e+002, 1.355002e-001
5.534700e+002, 1.351878e-001
5.553984e+002, 1.341266e-001
5.573269e+002, 1.335972e-001
5.592554e+002, 1.352016e-001
5.611838e+002, 1.364483e-001
5.631123e+002, 1.366211e-001
5.650408e+002, 1.370758e-001
5.669692e+002, 1.373178e-001
5.688977e+002, 1.371275e-001
5.708262e+002, 1.374821e-001
5.727546e+002, 1.379137e-001
5.746831e+002, 1.378144e-001
5.766116e+002, 1.370137e-001
5.785400e+002, 1.356967e-001
5.804685e+002, 1.340761e-001
5.823970e+002, 1.322406e-001
5.843254e+002, 1.295905e-001
5.862539e+002, 1.265211e-001
5.881824e+002, 1.239474e-001
5.901108e+002, 1.212497e-001
5.920393e+002, 1.184355e-001
5.939678e+002, 1.154431e-001
5.958962e+002, 1.129112e-001
5.978247e+002, 1.106439e-001
5.997532e+002, 1.088614e-001
6.016816e+002, 1.081100e-001
6.036101e+002, 1.081035e-001
6.055386e+002, 1.081619e-001
6.074670e+002, 1.079817e-001
6.093955e+002, 1.072858e-001
6.113240e+002, 1.056595e-001
6.132524e+002, 1.029858e-001
6.151809e+002, 1.000911e-001
6.171094e+002, 9.674377e-002
6.190378e+002, 9.345508e-002
6.209663e+002, 8.985546e-002
6.228948e+002, 8.627112e-002
6.248232e+002, 8.311461e-002
6.267517e+002, 8.044626e-002
6.286802e+002, 7.801867e-002
6.306086e+002, 7.591920e-002
6.325371e+002, 7.421955e-002
6.344656e+002, 7.235204e-002
6.363940e+002, 6.998843e-002
6.383225e+002, 6.767418e-002
6.402510e+002, 6.565612e-002
6.421794e+002, 6.446026e-002
6.441079e+002, 6.502881e-002
6.460364e+002, 6.690358e-002
6.479648e+002, 6.903531e-002
6.498933e+002, 7.127835e-002
6.518218e+002, 7.305437e-002
6.537502e+002, 7.439591e-002
6.556787e+002, 7.489769e-002
6.576072e+002, 7.416944e-002
6.595356e+002, 7.324889e-002
6.614641e+002, 7.259695e-002
6.633926e+002, 7.164908e-002
6.653210e+002, 7.061272e-002
6.672495e+002, 7.032504e-002
6.691780e+002, 7.037313e-002
6.711064e+002, 7.076761e-002
6.730349e+002, 7.154969e-002
6.749634e+002, 7.274743e-002
6.768918e+002, 7.422008e-002
6.788203e+002, 7.549160e-002
6.807488e+002, 7.680924e-002
6.826772e+002, 7.773575e-002
6.846057e+002, 7.830883e-002
6.865342e+002, 7.872417e-002
6.884626e+002, 7.910290e-002
6.903911e+002, 8.004341e-002
6.923196e+002, 8.148226e-002
6.942480e+002, 8.351058e-002
6.961765e+002, 8.626606e-002
6.981050e+002, 8.953521e-002
7.000334e+002, 9.297204e-002
7.019619e+002, 9.622040e-002
7.038904e+002, 9.925773e-002
7.058188e+002, 1.016885e-001
7.077473e+002, 1.033061e-001
7.096758e+002, 1.042314e-001
7.116042e+002, 1.041338e-001
7.135327e+002, 1.034066e-001
7.154612e+002, 1.019178e-001
7.173896e+002, 9.947764e-002
7.193181e+002, 9.597749e-002
7.212466e+002, 9.112523e-002
7.231750e+002, 8.547357e-002
7.251035e+002, 7.962255e-002
7.270320e+002, 7.425891e-002
7.289604e+002, 6.983622e-002
7.308889e+002, 6.649860e-002
7.328174e+002, 6.433825e-002
7.347458e+002, 6.285846e-002
7.366743e+002, 6.260557e-002
7.386028e+002, 6.330681e-002
7.405313e+002, 6.349578e-002
7.424597e+002, 6.354021e-002
7.443882e+002, 6.388978e-002
7.463167e+002, 6.468008e-002
7.482451e+002, 6.620634e-002
7.501736e+002, 6.819248e-002
7.521021e+002, 7.097041e-002
7.540305e+002, 7.449725e-002
7.559590e+002, 7.784445e-002
7.578875e+002, 8.023391e-002
7.598159e+002, 8.097899e-002
7.617444e+002, 7.999164e-002
7.636729e+002, 7.771996e-002
7.656013e+002, 7.529277e-002
7.675298e+002, 7.354389e-002
7.694583e+002, 7.328027e-002
7.713867e+002, 7.466473e-002
7.733152e+002, 7.692702e-002
7.752437e+002, 7.874448e-002
7.771721e+002, 7.956952e-002
7.791006e+002, 7.977819e-002
7.810291e+002, 7.937896e-002
7.829575e+002, 7.832725e-002
7.848860e+002, 7.631478e-002
7.868145e+002, 7.353833e-002
7.887429e+002, 6.984460e-002
7.906714e+002, 6.523030e-002
7.925999e+002, 6.000469e-002
7.945283e+002, 5.396545e-002
7.964568e+002, 4.767653e-002
7.983853e+002, 4.215099e-002
8.003137e+002, 3.783551e-002
8.022422e+002, 3.470761e-002
8.041707e+002, 3.286172e-002
8.060991e+002, 3.230238e-002
8.080276e+002, 3.241028e-002
8.099561e+002, 3.278707e-002
8.118845e+002, 3.329407e-002
8.138130e+002, 3.403446e-002
8.157415e+002, 3.440833e-002
8.176699e+002, 3.463860e-002
8.195984e+002, 3.479980e-002
8.215269e+002, 3.474332e-002
8.234553e+002, 3.452043e-002
8.253838e+002, 3.435232e-002
8.273123e+002, 3.377454e-002
8.292407e+002, 3.320542e-002
8.311692e+002, 3.291912e-002
8.330977e+002, 3.226094e-002
8.350261e+002, 3.193013e-002
8.369546e+002, 3.171754e-002
8.388831e+002, 3.155040e-002
8.408115e+002, 3.126565e-002
8.427400e+002, 3.100835e-002
8.446685e+002, 3.087183e-002
8.465969e+002, 3.110127e-002
8.485254e+002, 3.146483e-002
8.504539e+002, 3.194411e-002
8.523823e+002, 3.254121e-002
8.543108e+002, 3.312871e-002
8.562393e+002, 3.371553e-002
8.581677e+002, 3.434793e-002
8.600962e+002, 3.505933e-002
8.620247e+002, 3.541553e-002
8.639531e+002, 3.556244e-002
8.658816e+002, 3.591578e-002
8.678101e+002, 3.642434e-002
8.697385e+002, 3.698180e-002
8.716670e+002, 3.747608e-002
8.735955e+002, 3.754467e-002
8.755239e+002, 3.792870e-002
8.774524e+002, 3.872953e-002
8.793809e+002, 3.979878e-002
8.813093e+002, 4.101830e-002
8.832378e+002, 4.265071e-002
8.851663e+002, 4.472813e-002
8.870947e+002, 4.693107e-002
8.890232e+002, 4.932811e-002
8.909517e+002, 5.208412e-002
8.928801e+002, 5.500268e-002
8.948085e+002, 5.801833e-002
8.967370e+002, 6.136308e-002
8.986655e+002, 6.513017e-002
9.005939e+002, 6.892277e-002
9.025224e+002, 7.250360e-002
9.044509e+002, 7.607149e-002
9.063793e+002, 7.986025e-002
9.083078e+002, 8.366744e-002
9.102363e+002, 8.752616e-002
9.121647e+002, 9.138633e-002
9.140932e+002, 9.522601e-002
9.160217e+002, 9.933737e-002
9.179501e+002, 1.035402e-001
9.198786e+002, 1.076818e-001
9.218071e+002, 1.118275e-001
9.237355e+002, 1.164755e-001
9.256640e+002, 1.217437e-001
9.275925e+002, 1.273392e-001
9.295209e+002, 1.331424e-001
9.314494e+002, 1.391275e-001
9.333779e+002, 1.454903e-001
9.353063e+002, 1.522166e-001
9.372348e+002, 1.590016e-001
9.391633e+002, 1.658887e-001
9.410917e+002, 1.730107e-001
9.430202e+002, 1.799431e-001
9.449487e+002, 1.866408e-001
9.468771e+002, 1.932390e-001
9.488056e+002, 1.996115e-001
9.507341e+002, 2.057807e-001
9.526625e+002, 2.117416e-001
9.545910e+002, 2.177816e-001
9.565195e+002, 2.233994e-001
9.584479e+002, 2.282961e-001
9.603764e+002, 2.327567e-001
9.623049e+002, 2.366780e-001
9.642333e+002, 2.400255e-001
9.661618e+002, 2.429302e-001
9.680903e+002, 2.450876e-001
9.700187e+002, 2.464139e-001
9.719472e+002, 2.474693e-001
9.738757e+002, 2.480735e-001
9.758041e+002, 2.479517e-001
9.777326e+002, 2.474151e-001
9.796611e+002, 2.466181e-001
9.815895e+002, 2.452755e-001
9.835180e+002, 2.432538e-001
9.854465e+002, 2.410071e-001
9.873749e+002, 2.382988e-001
9.893034e+002, 2.345123e-001
9.912319e+002, 2.299069e-001
9.931603e+002, 2.249077e-001
9.950888e+002, 2.194610e-001
9.970173e+002, 2.138675e-001
9.989457e+002, 2.084865e-001
1.000874e+003, 2.031478e-001
1.002803e+003, 1.979277e-001
1.004731e+003, 1.930538e-001
1.006660e+003, 1.886471e-001
1.008588e+003, 1.847168e-001
1.010517e+003, 1.814278e-001
1.012445e+003, 1.793720e-001
1.014373e+003, 1.782703e-001
1.016302e+003, 1.782197e-001
1.018230e+003, 1.790237e-001
1.020159e+003, 1.803028e-001
1.022087e+003, 1.819178e-001
1.024016e+003, 1.837060e-001
1.025944e+003, 1.853627e-001
1.027873e+003, 1.866685e-001
1.029801e+003, 1.874263e-001
1.031730e+003, 1.878092e-001
1.033658e+003, 1.877902e-001
1.035587e+003, 1.869838e-001
1.037515e+003, 1.856238e-001
1.039444e+003, 1.839873e-001
1.041372e+003, 1.817430e-001
1.043301e+003, 1.786817e-001
1.045229e+003, 1.745829e-001
1.047157e+003, 1.692036e-001
1.049086e+003, 1.632730e-001
1.051014e+003, 1.568963e-001
1.052943e+003, 1.505077e-001
1.054871e+003, 1.442228e-001
1.056800e+003, 1.378291e-001
1.058728e+003, 1.321172e-001
1.060657e+003, 1.271195e-001
1.062585e+003, 1.230349e-001
1.064514e+003, 1.199390e-001
1.066442e+003, 1.172918e-001
1.068371e+003, 1.150585e-001
1.070299e+003, 1.132519e-001
1.072228e+003, 1.117195e-001
1.074156e+003, 1.101814e-001
1.076084e+003, 1.088126e-001
1.078013e+003, 1.078581e-001
1.079941e+003, 1.069667e-001
1.081870e+003, 1.061258e-001
1.083798e+003, 1.056753e-001
1.085727e+003, 1.054030e-001
1.087655e+003, 1.048662e-001
1.089584e+003, 1.041181e-001
1.091512e+003, 1.031777e-001
1.093441e+003, 1.021658e-001
1.095369e+003, 1.008089e-001
1.097298e+003, 9.894548e-002
1.099226e+003, 9.627640e-002
1.101155e+003, 9.285533e-002
1.103083e+003, 8.921464e-002
1.105011e+003, 8.489123e-002
1.106940e+003, 8.008868e-002
1.108868e+003, 7.531587e-002
1.110797e+003, 7.040783e-002
1.112725e+003, 6.558999e-002
1.114654e+003, 6.098797e-002
1.116582e+003, 5.629833e-002
1.118511e+003, 5.198517e-002
1.120439e+003, 4.792934e-002
1.122368e+003, 4.386258e-002
1.124296e+003, 4.015945e-002
1.126225e+003, 3.656010e-002
1.128153e+003, 3.320634e-002
1.130082e+003, 2.998692e-002
1.132010e+003, 2.698747e-002
1.133938e+003, 2.426944e-002
1.135867e+003, 2.188743e-002
1.137795e+003, 1.973059e-002
1.139724e+003, 1.781073e-002
1.141652e+003, 1.634027e-002
1.143581e+003, 1.504389e-002
1.145509e+003, 1.376921e-002
1.147438e+003, 1.268319e-002
1.149366e+003, 1.201286e-002
1.151295e+003, 1.156151e-002
1.153223e+003, 1.112848e-002
1.155152e+003, 1.071227e-002
1.157080e+003, 1.031069e-002
1.159009e+003, 1.001008e-002
1.160937e+003, 9.753089e-003
1.162865e+003, 9.713499e-003
1.164794e+003, 9.771165e-003
1.166722e+003, 9.867447e-003
1.168651e+003, 9.719924e-003
1.170579e+003, 9.275790e-003
1.172508e+003, 9.154413e-003
1.174436e+003, 9.305432e-003
1.176365e+003, 9.356414e-003
1.178293e+003, 9.454235e-003
1.180222e+003, 9.608016e-003
1.182150e+003, 9.811241e-003
1.184079e+003, 9.940187e-003
1.186007e+003, 1.002705e-002
1.187936e+003, 1.032374e-002
1.189864e+003, 1.091813e-002
1.191792e+003, 1.133826e-002
1.193721e+003, 1.158446e-002
1.195649e+003, 1.209247e-002
1.197578e+003, 1.272349e-002
1.199506e+003, 1.343960e-002
1.201435e+003, 1.429222e-002
1.203363e+003, 1.521730e-002
1.205292e+003, 1.625337e-002
1.207220e+003, 1.758747e-002
1.209149e+003, 1.908135e-002
1.211077e+003, 2.079963e-002
1.213006e+003, 2.294339e-002
1.214934e+003, 2.551314e-002
1.216863e+003, 2.840694e-002
1.218791e+003, 3.200749e-002
1.220719e+003, 3.635195e-002
1.222648e+003, 4.106464e-002
1.224576e+003, 4.637310e-002
1.226505e+003, 5.246998e-002
1.228433e+003, 5.918977e-002
1.230362e+003, 6.614397e-002
1.232290e+003, 7.315975e-002
1.234219e+003, 8.032885e-002
1.236147e+003, 8.696877e-002
1.238076e+003, 9.292926e-002
1.240004e+003, 9.839017e-002
1.241933e+003, 1.032317e-001
1.243861e+003, 1.070283e-001
1.245790e+003, 1.099238e-001
1.247718e+003, 1.122988e-001
1.249646e+003, 1.142443e-001
1.251575e+003, 1.152531e-001
1.253503e+003, 1.153535e-001
1.255432e+003, 1.152764e-001
1.257360e+003, 1.149155e-001
1.259289e+003, 1.137805e-001
1.261217e+003, 1.126328e-001
1.263146e+003, 1.115513e-001
1.265074e+003, 1.101227e-001
1.267003e+003, 1.085494e-001
1.268931e+003, 1.069537e-001
1.270860e+003, 1.051966e-001
1.272788e+003, 1.031533e-001
1.274717e+003, 1.010719e-001
1.276645e+003, 9.910379e-002
1.278573e+003, 9.711432e-002
1.280502e+003, 9.509472e-002
1.282430e+003, 9.308221e-002
1.284359e+003, 9.113641e-002
1.286287e+003, 8.925286e-002
1.288216e+003, 8.760555e-002
1.290144e+003, 8.623061e-002
1.292073e+003, 8.496254e-002
1.294001e+003, 8.366325e-002
1.295930e+003, 8.262136e-002
1.297858e+003, 8.153467e-002
1.299787e+003, 8.044849e-002
1.301715e+003, 7.936797e-002
1.303644e+003, 7.828235e-002
1.305572e+003, 7.725879e-002
1.307500e+003, 7.637415e-002
1.309429e+003, 7.530633e-002
1.311357e+003, 7.414643e-002
1.313286e+003, 7.323216e-002
1.315214e+003, 7.237522e-002
1.317143e+003, 7.118830e-002
1.319071e+003, 7.015077e-002
1.321000e+003, 6.932764e-002
1.322928e+003, 6.847581e-002
1.324857e+003, 6.769297e-002
1.326785e+003, 6.706253e-002
1.328714e+003, 6.639925e-002
1.330642e+003, 6.630836e-002
1.332571e+003, 6.701224e-002
1.334499e+003, 6.815809e-002
1.336427e+003, 6.984928e-002
1.338356e+003, 7.215397e-002
1.340284e+003, 7.476248e-002
1.342213e+003, 7.761272e-002
1.344141e+003, 8.031164e-002
1.346070e+003, 8.260765e-002
1.347998e+003, 8.422406e-002
1.349927e+003, 8.487315e-002
1.351855e+003, 8.469719e-002
1.353784e+003, 8.417001e-002
1.355712e+003, 8.321581e-002
1.357641e+003, 8.150182e-002
1.359569e+003, 7.930861e-002
1.361498e+003, 7.691011e-002
1.363426e+003, 7.455888e-002
1.365354e+003, 7.196974e-002
1.367283e+003, 6.908564e-002
1.369211e+003, 6.654897e-002
1.371140e+003, 6.404101e-002
1.373068e+003, 6.100176e-002
1.374997e+003, 5.816121e-002
1.376925e+003, 5.557800e-002
1.378854e+003, 5.298714e-002
1.380782e+003, 5.039756e-002
1.382711e+003, 4.775301e-002
1.384639e+003, 4.522466e-002
1.386568e+003, 4.282106e-002
1.388496e+003, 4.077031e-002
1.390424e+003, 3.899007e-002
1.392353e+003, 3.738365e-002
1.394281e+003, 3.582979e-002
1.396210e+003, 3.438304e-002
1.398138e+003, 3.290879e-002
1.400067e+003, 3.145566e-002
1.401995e+003, 3.009731e-002
1.403924e+003, 2.887728e-002
1.405852e+003, 2.767779e-002
1.407781e+003, 2.645806e-002
1.409709e+003, 2.516521e-002
1.411638e+003, 2.413601e-002
1.413566e+003, 2.298614e-002
1.415495e+003, 2.192807e-002
1.417423e+003, 2.140190e-002
1.419351e+003, 2.077914e-002
1.421280e+003, 1.980702e-002
1.423208e+003, 1.913588e-002
1.425137e+003, 1.848315e-002
1.427065e+003, 1.742276e-002
1.428994e+003, 1.651864e-002
1.430922e+003, 1.570003e-002
1.432851e+003, 1.477383e-002
1.434779e+003, 1.389895e-002
1.436708e+003, 1.313335e-002
1.438636e+003, 1.239480e-002
1.440565e+003, 1.157240e-002
1.442493e+003, 1.054154e-002
1.444422e+003, 9.582656e-003
1.446350e+003, 9.058681e-003
1.448278e+003, 8.790345e-003
1.450207e+003, 8.329480e-003
1.452135e+003, 7.859698e-003
1.454064e+003, 7.243471e-003
1.455992e+003, 6.679279e-003
1.457921e+003, 6.812077e-003
1.459849e+003, 6.755820e-003
1.461778e+003, 6.388531e-003
1.463706e+003, 6.036207e-003
1.465635e+003, 5.839237e-003
1.467563e+003, 5.761854e-003
1.469492e+003, 5.671719e-003
1.471420e+003, 5.456094e-003
1.473349e+003, 5.234338e-003
1.475277e+003, 5.067233e-003
1.477205e+003, 4.926314e-003
1.479134e+003, 5.102826e-003
1.481062e+003, 5.306595e-003
1.482991e+003, 5.130870e-003
1.484919e+003, 5.021994e-003
1.486848e+003, 4.944011e-003
1.488776e+003, 4.915603e-003
1.490705e+003, 4.962122e-003
1.492633e+003, 5.043312e-003
1.494562e+003, 4.965350e-003
1.496490e+003, 4.732100e-003
1.498419e+003, 4.423769e-003
1.500347e+003, 4.281142e-003
1.502276e+003, 4.063680e-003
1.504204e+003, 3.735510e-003
1.506132e+003, 3.616643e-003
1.508061e+003, 3.650894e-003
1.509989e+003, 3.429075e-003
1.511918e+003, 3.282283e-003
1.513846e+003, 3.520792e-003
1.515775e+003, 3.667737e-003
1.517703e+003, 3.591475e-003
1.519632e+003, 3.550919e-003
1.521560e+003, 3.682120e-003
1.523489e+003, 3.866048e-003
1.525417e+003, 3.909438e-003
1.527346e+003, 3.847551e-003
1.529274e+003, 3.613152e-003
1.531203e+003, 3.389837e-003
1.533131e+003, 3.322331e-003
1.535059e+003, 3.342610e-003
1.536988e+003, 3.308278e-003
1.538916e+003, 3.120364e-003
1.540845e+003, 2.984390e-003
1.542773e+003, 3.033351e-003
1.544702e+003, 3.155390e-003
1.546630e+003, 3.345316e-003
1.548559e+003, 3.391226e-003
1.550487e+003, 3.225519e-003
1.552416e+003, 3.163240e-003
1.554344e+003, 3.510631e-003
1.556273e+003, 3.643123e-003
1.558201e+003, 3.531311e-003
1.560130e+003, 3.634528e-003
1.562058e+003, 3.864425e-003
1.563986e+003, 4.003360e-003
1.565915e+003, 4.130104e-003
1.567843e+003, 4.099130e-003
1.569772e+003, 3.941687e-003
1.571700e+003, 3.931488e-003
1.573629e+003, 3.692118e-003
1.575557e+003, 3.719798e-003
1.577486e+003, 4.054325e-003
1.579414e+003, 4.103898e-003
1.581343e+003, 4.012623e-003
1.583271e+003, 4.089961e-003
1.585200e+003, 4.304173e-003
1.587128e+003, 4.343270e-003
1.589057e+003, 4.318075e-003
1.590985e+003, 4.387910e-003
1.592913e+003, 4.397078e-003
1.594842e+003, 4.285027e-003
1.596770e+003, 4.149216e-003
1.598699e+003, 4.059365e-003
1.600627e+003, 3.952472e-003
1.602556e+003, 4.117982e-003
1.604484e+003, 4.404513e-003
1.606413e+003, 4.526502e-003
1.608341e+003, 4.608450e-003
1.610270e+003, 4.656333e-003
1.612198e+003, 4.701312e-003
1.614127e+003, 4.722279e-003
1.616055e+003, 4.701126e-003
1.617984e+003, 4.623537e-003
1.619912e+003, 4.295995e-003
1.621840e+003, 4.457656e-003
1.623769e+003, 4.589217e-003
1.625697e+003, 4.481351e-003
1.627626e+003, 4.811179e-003
1.629554e+003, 4.654354e-003
1.631483e+003, 4.434958e-003
1.633411e+003, 4.363439e-003
1.635340e+003, 4.120641e-003
1.637268e+003, 4.076615e-003
1.639197e+003, 4.371653e-003
1.641125e+003, 4.371778e-003
1.643054e+003, 4.389498e-003
1.644982e+003, 4.429310e-003
1.646911e+003, 4.393474e-003
1.648839e+003, 4.304705e-003
1.650767e+003, 4.197724e-003
1.652696e+003, 4.245420e-003
1.654624e+003, 4.556443e-003
1.656553e+003, 4.763147e-003
1.658481e+003, 4.684946e-003
1.660410e+003, 4.516400e-003
1.662338e+003, 4.576824e-003
1.664267e+003, 4.591295e-003
1.666195e+003, 4.554474e-003
1.668124e+003, 4.464049e-003
1.670052e+003, 4.575352e-003
1.671981e+003, 4.629878e-003
1.673909e+003, 4.415668e-003
1.675838e+003, 4.254482e-003
1.677766e+003, 4.044557e-003
1.679694e+003, 3.961705e-003
1.681623e+003, 4.057089e-003
1.683551e+003, 3.924422e-003
1.685480e+003, 3.988957e-003
1.687408e+003, 4.130814e-003
1.689337e+003, 4.202729e-003
1.691265e+003, 4.134076e-003
1.693194e+003, 4.018204e-003
1.695122e+003, 4.016835e-003
1.697051e+003, 4.165722e-003
1.698979e+003, 3.912816e-003
1.700908e+003, 3.730603e-003
1.702836e+003, 3.861577e-003
1.704765e+003, 4.065508e-003
1.706693e+003, 4.221517e-003
1.708621e+003, 4.398555e-003
1.710550e+003, 4.347928e-003
1.712478e+003, 3.791468e-003
1.714407e+003, 3.653930e-003
1.716335e+003, 3.700400e-003
1.718264e+003, 3.429753e-003
1.720192e+003, 3.222406e-003
1.722121e+003, 3.330872e-003
1.724049e+003, 3.789922e-003
1.725978e+003, 3.988213e-003
1.727906e+003, 3.577751e-003
1.729835e+003, 3.237982e-003
1.731763e+003, 2.987433e-003
1.733692e+003, 2.770465e-003
1.735620e+003, 2.654750e-003
1.737548e+003, 2.483943e-003
1.739477e+003, 2.123644e-003
1.741405e+003, 1.734020e-003
1.743334e+003, 1.645665e-003
1.745262e+003, 2.040575e-003
1.747191e+003, 2.370050e-003
1.749119e+003, 2.165324e-003
1.751048e+003, 2.043492e-003
1.752976e+003, 2.145340e-003
1.754905e+003, 2.537020e-003
1.756833e+003, 2.811860e-003
1.758762e+003, 2.822899e-003
1.760690e+003, 2.705952e-003
1.762619e+003, 2.527966e-003
1.764547e+003, 2.698727e-003
1.766475e+003, 2.788465e-003
1.768404e+003, 2.558720e-003
1.770332e+003, 2.538449e-003
1.772261e+003, 2.600982e-003
1.774189e+003, 2.870204e-003
1.776118e+003, 2.887022e-003
1.778046e+003, 2.827052e-003
1.779975e+003, 2.540261e-003
1.781903e+003, 2.861497e-003
1.783832e+003, 3.422633e-003
1.785760e+003, 3.252593e-003
1.787689e+003, 2.796152e-003
1.789617e+003, 2.714047e-003
1.791546e+003, 2.647534e-003
1.793474e+003, 2.582127e-003
1.795402e+003, 2.650854e-003
1.797331e+003, 2.724539e-003
1.799259e+003, 2.857057e-003
1.801188e+003, 2.941014e-003
1.803116e+003, 3.072363e-003
1.805045e+003, 3.042086e-003
1.806973e+003, 2.528437e-003
1.808902e+003, 2.271791e-003
1.810830e+003, 2.393891e-003
1.812759e+003, 2.585614e-003
1.814687e+003, 2.262443e-003
1.816616e+003, 2.181840e-003
1.818544e+003, 2.813618e-003
1.820473e+003, 2.734043e-003
1.822401e+003, 2.295224e-003
1.824329e+003, 2.456645e-003
1.826258e+003, 2.712584e-003
1.828186e+003, 2.624781e-003
1.830115e+003, 2.505369e-003
1.832043e+003, 2.221376e-003
1.833972e+003, 2.191051e-003
1.835900e+003, 2.529093e-003
1.837829e+003, 2.339221e-003
1.839757e+003, 2.447244e-003
1.841686e+003, 2.588814e-003
1.843614e+003, 1.811096e-003
1.845543e+003, 1.715907e-003
1.847471e+003, 2.136535e-003
1.849400e+003, 1.919457e-003
1.851328e+003, 1.721577e-003
1.853256e+003, 1.875644e-003
1.855185e+003, 2.037244e-003
1.857113e+003, 1.965346e-003
1.859042e+003, 1.762343e-003
1.860970e+003, 1.793268e-003
1.862899e+003, 2.040426e-003
1.864827e+003, 2.164477e-003
1.866756e+003, 2.057731e-003
1.868684e+003, 1.853299e-003
1.870613e+003, 1.941909e-003
1.872541e+003, 2.189402e-003
1.874470e+003, 2.096706e-003
1.876398e+003, 1.445549e-003
1.878327e+003, 1.436001e-003
1.880255e+003, 1.304439e-003
1.882183e+003, 1.002953e-003
1.884112e+003, 5.901265e-004
1.886040e+003, 6.767574e-004
1.887969e+003, 8.402698e-004
1.889897e+003, 9.723081e-004
1.891826e+003, 8.972465e-004
1.893754e+003, 1.190802e-003
1.895683e+003, 5.323161e-004
1.897611e+003, 2.638714e-005
1.899540e+003, 9.900372e-004
1.901468e+003, 1.511390e-003
1.903397e+003, 1.557563e-003
1.905325e+003, 1.321797e-003
1.907254e+003, 1.371820e-003
1.909182e+003, 1.367580e-003
1.911110e+003, 7.930200e-004
1.913039e+003, 8.449058e-004
1.914967e+003, 8.614025e-004
1.916896e+003, 1.546009e-003
1.918824e+003, 1.531012e-003
1.920753e+003, 2.781010e-004
1.922681e+003, -3.654420e-004
1.924610e+003, -4.700256e-004
1.926538e+003, -3.839018e-004
1.928467e+003, -6.191062e-004
1.930395e+003, -1.220018e-003
1.932324e+003, -1.921008e-003
1.934252e+003, -1.673309e-003
1.936181e+003, -9.812843e-004
1.938109e+003, -1.026371e-003
1.940037e+003, -6.907068e-004
1.941966e+003, -1.572590e-003
1.943894e+003, -1.604229e-003
1.945823e+003, -1.557273e-003
1.947751e+003, -1.939417e-003
1.949680e+003, -2.155882e-003
1.951608e+003, -2.150958e-003
1.953537e+003, -2.545639e-003
1.955465e+003, -3.279631e-003
1.957394e+003, -4.137918e-003
1.959322e+003, -3.732293e-003
1.961251e+003, -4.020767e-003
1.963179e+003, -5.055863e-003
1.965108e+003, -4.322821e-003
1.967036e+003, -3.493351e-003
1.968964e+003, -3.954764e-003
1.970893e+003, -3.890878e-003
1.972821e+003, -3.842102e-003
1.974750e+003, -5.147682e-003
1.976678e+003, -5.730997e-003
1.978607e+003, -1.587313e-003
1.980535e+003, 4.970682e-004
1.982464e+003, -6.847313e-004
1.984392e+003, -1.690900e-003
1.986321e+003, -1.506370e-003
1.988249e+003, -2.638845e-003
1.990178e+003, -2.511705e-003
1.992106e+003, -2.149157e-003
1.994035e+003, -3.229164e-003
1.995963e+003, -3.943251e-003
1.997891e+003, -2.785676e-003
1.999820e+003, -3.073069e-003
2.001748e+003, -4.089789e-003
2.003677e+003, -4.106357e-003
2.005605e+003, -3.800838e-003
2.007534e+003, -3.908738e-003
2.009462e+003, -4.287287e-003
2.011391e+003, -4.029175e-003
2.013319e+003, -3.766269e-003
2.015248e+003, -3.175543e-003
2.017176e+003, -2.966759e-003
2.019105e+003, -3.148679e-003
2.021033e+003, -2.176369e-003
2.022962e+003, -1.471095e-003
2.024890e+003, -1.115687e-003
2.026818e+003, -1.832409e-003
2.028747e+003, -4.010149e-003
2.030675e+003, -4.133303e-003
2.032604e+003, -3.398899e-003
2.034532e+003, -2.058708e-003
2.036461e+003, -1.066740e-003
2.038389e+003, -4.069938e-004
2.040318e+003, -8.313248e-005
2.042246e+003, 4.087957e-004
2.044175e+003, 1.850591e-003
2.046103e+003, 2.311617e-003
2.048032e+003, 2.037038e-003
2.049960e+003, 2.548452e-003
2.051889e+003, 2.326906e-003
2.053817e+003, 4.383441e-004
2.055746e+003, -5.358867e-004
2.057674e+003, -1.705234e-004
2.059603e+003, 7.339239e-004
2.061531e+003, 8.533518e-004
2.063459e+003, -4.161535e-004
2.065388e+003, -8.371928e-004
2.067316e+003, -6.000443e-005
2.069245e+003, 7.594474e-005
2.071173e+003, -2.894698e-004
2.073102e+003, 8.269935e-004
2.075030e+003, 2.563589e-003
2.076959e+003, 2.981808e-003
2.078887e+003, 3.126371e-003
2.080816e+003, 2.950903e-003
2.082744e+003, 1.299574e-003
2.084673e+003, 9.041023e-004
2.086601e+003, 1.281181e-003
2.088530e+003, 1.483023e-003
2.090458e+003, 1.332257e-003
2.092386e+003, 4.722385e-004
2.094315e+003, 8.657310e-004
2.096243e+003, 2.175583e-003
2.098172e+003, 2.071312e-003
2.100100e+003, 1.043074e-003
2.102029e+003, 9.861750e-004
2.103957e+003, 1.555179e-003
2.105886e+003, 1.826262e-003
2.107814e+003, 9.157820e-004
2.109743e+003, 1.133123e-003
2.111671e+003, 1.234649e-003
2.113600e+003, 1.618471e-003
2.115528e+003, 1.892788e-003
2.117457e+003, 1.894919e-003
2.119385e+003, 2.440145e-003
2.121313e+003, 1.546371e-003
2.123242e+003, -2.141821e-004
2.125170e+003, -4.852656e-004
2.127099e+003, -2.449299e-004
2.129027e+003, -1.496769e-003
2.130956e+003, -3.135242e-003
2.132884e+003, -2.372968e-003
2.134813e+003, -1.297448e-003
2.136741e+003, -1.156652e-003
2.138670e+003, -1.096299e-003
2.140598e+003, -1.449217e-004
2.142527e+003, 1.466582e-003
2.144455e+003, -3.369678e-004
2.146384e+003, -2.703566e-003
2.148312e+003, -2.265855e-003
2.150240e+003, -2.597259e-003
2.152169e+003, -2.945530e-003
2.154097e+003, -2.187532e-003
2.156026e+003, -3.192086e-003
2.157954e+003, -1.730478e-003
2.159883e+003, 2.351799e-003
2.161811e+003, 2.368710e-003
2.163740e+003, 3.806772e-003
2.165668e+003, 4.362660e-003
2.167597e+003, 3.323947e-003
2.169525e+003, 2.140323e-003
2.171454e+003, 1.262230e-003
2.173382e+003, 2.356666e-003
2.175311e+003, 3.087425e-003
2.177239e+003, 2.491727e-003
2.179167e+003, 3.265554e-004
2.181096e+003, -2.305472e-003
2.183024e+003, -2.217158e-003
2.184953e+003, -1.807698e-004
2.186881e+003, 1.828355e-003
2.188810e+003, 1.913444e-003
2.190738e+003, 2.195195e-003
2.192667e+003, 3.240138e-003
2.194595e+003, 2.733325e-003
2.196524e+003, 2.608454e-003
2.198452e+003, 2.389848e-003
2.200381e+003, 1.857565e-003
2.202309e+003, 2.843715e-003
2.204238e+003, 3.012974e-003
2.206166e+003, 2.733268e-003
2.208094e+003, 3.355426e-003
2.210023e+003, 3.021718e-003
2.211951e+003, 1.962084e-003
2.213880e+003, 2.864994e-003
2.215808e+003, 3.836171e-003
2.217737e+003, 3.799188e-003
2.219665e+003, 4.569009e-003
2.221594e+003, 4.964309e-003
2.223522e+003, 5.892096e-003
2.225451e+003, 6.673489e-003
2.227379e+003, 6.009574e-003
2.229308e+003, 4.149324e-003
2.231236e+003, 4.172616e-003
2.233165e+003, 6.555878e-003
2.235093e+003, 7.458679e-003
2.237021e+003, 5.310715e-003
2.238950e+003, 5.898133e-003
2.240878e+003, 7.264697e-003
2.242807e+003, 5.815781e-003
2.244735e+003, 5.688346e-003
2.246664e+003, 6.303808e-003
2.248592e+003, 6.605807e-003
2.250521e+003, 6.752063e-003
2.252449e+003, 5.497935e-003
2.254378e+003, 4.808992e-003
2.256306e+003, 5.590213e-003
2.258235e+003, 6.265637e-003
2.260163e+003, 5.835078e-003
2.262092e+003, 5.959843e-003
2.264020e+003, 6.515046e-003
2.265948e+003, 6.485006e-003
2.267877e+003, 7.399557e-003
2.269805e+003, 7.809124e-003
2.271734e+003, 7.698898e-003
2.273662e+003, 7.375593e-003
2.275591e+003, 7.869635e-003
2.277519e+003, 8.465118e-003
2.279448e+003, 8.527688e-003
2.281376e+003, 9.013479e-003
2.283305e+003, 8.794415e-003
2.285233e+003, 8.533407e-003
2.287162e+003, 8.456952e-003
2.289090e+003, 8.131598e-003
2.291019e+003, 7.885640e-003
2.292947e+003, 8.268209e-003
2.294875e+003, 8.654871e-003
2.296804e+003, 8.747622e-003
2.298732e+003, 8.492256e-003
2.300661e+003, 8.444578e-003
2.302589e+003, 8.391823e-003
2.304518e+003, 7.828320e-003
2.306446e+003, 7.794381e-003
2.308375e+003, 8.601665e-003
2.310303e+003, 8.484398e-003
2.312232e+003, 8.865843e-003
2.314160e+003, 9.645917e-003
2.316089e+003, 9.289134e-003
2.318017e+003, 9.151117e-003
2.319946e+003, 9.218294e-003
2.321874e+003, 9.405447e-003
2.323802e+003, 9.329559e-003
2.325731e+003, 8.409371e-003
2.327659e+003, 7.786398e-003
2.329588e+003, 7.697600e-003
2.331516e+003, 7.677243e-003
2.333445e+003, 7.744935e-003
2.335373e+003, 7.783393e-003
2.337302e+003, 7.925315e-003
2.339230e+003, 8.354083e-003
2.341159e+003, 8.461554e-003
2.343087e+003, 8.179254e-003
2.345016e+003, 7.815247e-003
2.346944e+003, 7.204573e-003
2.348873e+003, 7.237477e-003
2.350801e+003, 7.350158e-003
2.352729e+003, 7.153352e-003
2.354658e+003, 6.879538e-003
2.356586e+003, 7.094868e-003
2.358515e+003, 7.673292e-003
2.360443e+003, 7.932721e-003
2.362372e+003, 7.654169e-003
2.364300e+003, 6.814518e-003
2.366229e+003, 6.381589e-003
2.368157e+003, 6.602212e-003
2.370086e+003, 6.914361e-003
2.372014e+003, 6.898617e-003
2.373942e+003, 7.070657e-003
2.375871e+003, 6.884960e-003
2.377799e+003, 6.747882e-003
2.379728e+003, 6.567894e-003
2.381656e+003, 6.866459e-003
2.383585e+003, 7.104186e-003
2.385513e+003, 6.910817e-003
2.387442e+003, 6.538208e-003
2.389370e+003, 6.095263e-003
2.391299e+003, 6.551443e-003
2.393227e+003, 6.357060e-003
2.395156e+003, 6.444852e-003
2.397084e+003, 6.702912e-003
2.399012e+003, 6.979484e-003
2.400941e+003, 6.648838e-003
2.402869e+003, 6.115180e-003
2.404798e+003, 6.625271e-003
2.406726e+003, 7.344034e-003
2.408655e+003, 7.571694e-003
2.410583e+003, 7.574095e-003
2.412512e+003, 7.320283e-003
2.414440e+003, 7.206199e-003
2.416369e+003, 7.679377e-003
2.418297e+003, 7.052205e-003
2.420226e+003, 6.307281e-003
2.422154e+003, 6.454531e-003
2.424083e+003, 6.295997e-003
2.426011e+003, 6.540862e-003
2.427939e+003, 7.322758e-003
2.429868e+003, 7.176094e-003
2.431796e+003, 6.787878e-003
2.433725e+003, 6.389451e-003
2.435653e+003, 6.542857e-003
2.437582e+003, 7.506984e-003
2.439510e+003, 7.914826e-003
2.441439e+003, 7.515676e-003
2.443367e+003, 7.093779e-003
2.445296e+003, 7.110239e-003
2.447224e+003, 6.787931e-003
2.449153e+003, 6.712122e-003
2.451081e+003, 6.475540e-003
2.453010e+003, 6.164717e-003
2.454938e+003, 5.971407e-003
2.456866e+003, 5.930962e-003
2.458795e+003, 5.574697e-003
2.460723e+003, 5.816353e-003
2.462652e+003, 5.874992e-003
2.464580e+003, 5.288945e-003
2.466509e+003, 5.139500e-003
2.468437e+003, 5.516446e-003
2.470366e+003, 5.421064e-003
2.472294e+003, 5.158081e-003
2.474223e+003, 4.839045e-003
2.476151e+003, 5.434460e-003
2.478080e+003, 5.227722e-003
2.480008e+003, 5.785744e-003
2.481937e+003, 6.156385e-003
2.483865e+003, 5.439400e-003
2.485793e+003, 5.170210e-003
2.487722e+003, 5.427472e-003
2.489650e+003, 5.552877e-003
2.491579e+003, 5.433845e-003
2.493507e+003, 4.690273e-003
2.495436e+003, 3.989757e-003
2.497364e+003, 4.744615e-003
2.499293e+003, 5.516645e-003
2.501221e+003, 5.038040e-003
2.503150e+003, 4.250731e-003
2.505078e+003, 4.565391e-003
2.507007e+003, 4.916551e-003
2.508935e+003, 5.044706e-003
2.510864e+003, 4.859401e-003
2.512792e+003, 4.438341e-003
2.514720e+003, 4.845115e-003
2.516649e+003, 5.541634e-003
2.518577e+003, 5.652414e-003
2.520506e+003, 5.131015e-003
2.522434e+003, 4.832928e-003
2.524363e+003, 5.732945e-003
2.526291e+003, 5.988923e-003
2.528220e+003, 5.564758e-003
2.530148e+003, 5.586192e-003
2.532077e+003, 5.549065e-003
2.534005e+003, 5.296851e-003
2.535934e+003, 4.958159e-003
2.537862e+003, 4.640389e-003
2.539791e+003, 4.519890e-003
2.541719e+003, 5.580334e-003
2.543647e+003, 5.805046e-003
2.545576e+003, 5.656957e-003
2.547504e+003, 5.951557e-003
2.549433e+003, 5.946230e-003
2.551361e+003, 6.062631e-003
2.553290e+003, 5.627185e-003
2.555218e+003, 5.418938e-003
2.557147e+003, 6.194826e-003
2.559075e+003, 6.483980e-003
2.561004e+003, 6.065337e-003
2.562932e+003, 5.967598e-003
2.564861e+003, 5.545485e-003
2.566789e+003, 6.286772e-003
2.568718e+003, 7.072521e-003
2.570646e+003, 6.168395e-003
2.572574e+003, 5.287869e-003
2.574503e+003, 5.663123e-003
2.576431e+003, 6.085112e-003
2.578360e+003, 6.269018e-003
2.580288e+003, 6.149953e-003
2.582217e+003, 5.578119e-003
2.584145e+003, 5.503731e-003
2.586074e+003, 6.595234e-003
2.588002e+003, 6.983587e-003
2.589931e+003, 6.981597e-003
2.591859e+003, 6.647791e-003
2.593788e+003, 6.695827e-003
2.595716e+003, 6.885184e-003
2.597645e+003, 7.237002e-003
2.599573e+003, 7.314176e-003
2.601501e+003, 7.336980e-003
2.603430e+003, 7.453712e-003
2.605358e+003, 7.536730e-003
2.607287e+003, 8.071141e-003
2.609215e+003, 8.528420e-003
2.611144e+003, 7.940536e-003
2.613072e+003, 7.476756e-003
2.615001e+003, 7.752588e-003
2.616929e+003, 7.987746e-003
2.618858e+003, 8.197756e-003
2.620786e+003, 8.602098e-003
2.622715e+003, 7.914306e-003
2.624643e+003, 7.743753e-003
2.626572e+003, 8.269593e-003
2.628500e+003, 8.344539e-003
2.630428e+003, 8.101238e-003
2.632357e+003, 8.185852e-003
2.634285e+003, 8.686245e-003
2.636214e+003, 8.658642e-003
2.638142e+003, 8.628635e-003
2.640071e+003, 9.365385e-003
2.641999e+003, 9.700912e-003
2.643928e+003, 9.126696e-003
2.645856e+003, 8.063073e-003
2.647785e+003, 7.683792e-003
2.649713e+003, 8.014622e-003
2.651642e+003, 8.720569e-003
2.653570e+003, 9.141892e-003
2.655499e+003, 8.695172e-003
2.657427e+003, 8.024991e-003
2.659355e+003, 7.846583e-003
2.661284e+003, 7.892644e-003
2.663212e+003, 7.905245e-003
2.665141e+003, 7.433813e-003
2.667069e+003, 7.291591e-003
2.668998e+003, 7.062235e-003
2.670926e+003, 6.669781e-003
2.672855e+003, 6.451825e-003
2.674783e+003, 6.971302e-003
2.676712e+003, 7.872466e-003
2.678640e+003, 7.911965e-003
2.680569e+003, 7.556034e-003
2.682497e+003, 6.990693e-003
2.684426e+003, 6.709623e-003
2.686354e+003, 6.792211e-003
2.688282e+003, 7.321857e-003
2.690211e+003, 7.572123e-003
2.692139e+003, 7.269895e-003
2.694068e+003, 6.960510e-003
2.695996e+003, 7.333879e-003
2.697925e+003, 7.642013e-003
2.699853e+003, 7.628885e-003
2.701782e+003, 7.641979e-003
2.703710e+003, 7.562716e-003
2.705639e+003, 7.172812e-003
2.707567e+003, 7.157650e-003
2.709496e+003, 7.522891e-003
2.711424e+003, 7.365033e-003
2.713353e+003, 6.746798e-003
2.715281e+003, 6.984283e-003
2.717209e+003, 7.609137e-003
2.719138e+003, 7.721421e-003
2.721066e+003, 7.456882e-003
2.722995e+003, 7.405468e-003
2.724923e+003, 7.569667e-003
2.726852e+003, 7.834895e-003
2.728780e+003, 7.431359e-003
2.730709e+003, 7.356162e-003
2.732637e+003, 7.602288e-003
2.734566e+003, 7.616787e-003
2.736494e+003, 7.695071e-003
2.738423e+003, 7.836247e-003
2.740351e+003, 7.694608e-003
2.742280e+003, 7.223544e-003
2.744208e+003, 7.410748e-003
2.746136e+003, 7.900660e-003
2.748065e+003, 7.641085e-003
2.749993e+003, 7.240288e-003
2.751922e+003, 7.461777e-003
2.753850e+003, 8.103310e-003
2.755779e+003, 8.074911e-003
2.757707e+003, 8.113137e-003
2.759636e+003, 8.360141e-003
2.761564e+003, 8.410658e-003
2.763493e+003, 8.231276e-003
2.765421e+003, 7.793907e-003
2.767350e+003, 7.894014e-003
2.769278e+003, 8.227702e-003
2.771207e+003, 8.592864e-003
2.773135e+003, 8.446609e-003
2.775063e+003, 7.794814e-003
2.776992e+003, 7.811645e-003
2.778920e+003, 7.771518e-003
2.780849e+003, 7.624881e-003
2.782777e+003, 7.377595e-003
2.784706e+003, 8.057899e-003
2.786634e+003, 8.682688e-003
2.788563e+003, 8.130867e-003
2.790491e+003, 7.644503e-003
2.792420e+003, 7.705776e-003
2.794348e+003, 7.713750e-003
2.796277e+003, 8.258240e-003
2.798205e+003, 9.028410e-003
2.800134e+003, 9.026032e-003
2.802062e+003, 8.681537e-003
2.803990e+003, 8.087361e-003
2.805919e+003, 8.417278e-003
2.807847e+003, 8.689445e-003
2.809776e+003, 8.744175e-003
2.811704e+003, 8.632809e-003
2.813633e+003, 8.226578e-003
2.815561e+003, 8.713810e-003
2.817490e+003, 8.997357e-003
2.819418e+003, 8.602214e-003
2.821347e+003, 8.806071e-003
2.823275e+003, 9.324058e-003
2.825204e+003, 9.108364e-003
2.827132e+003, 8.819900e-003
2.829061e+003, 9.101609e-003
2.830989e+003, 9.450345e-003
2.832917e+003, 9.111733e-003
2.834846e+003, 8.495696e-003
2.836774e+003, 8.290539e-003
2.838703e+003, 8.811994e-003
2.840631e+003, 9.588306e-003
2.842560e+003, 9.858768e-003
2.844488e+003, 9.736023e-003
2.846417e+003, 8.935084e-003
2.848345e+003, 9.034991e-003
2.850274e+003, 9.641082e-003
2.852202e+003, 8.892558e-003
2.854131e+003, 8.178891e-003
2.856059e+003, 8.516141e-003
2.857988e+003, 8.932158e-003
2.859916e+003, 8.458332e-003
2.861844e+003, 8.138762e-003
2.863773e+003, 8.757341e-003
2.865701e+003, 9.401685e-003
2.867630e+003, 9.032456e-003
2.869558e+003, 8.801610e-003
2.871487e+003, 8.490411e-003
2.873415e+003, 8.379613e-003
2.875344e+003, 8.721169e-003
2.877272e+003, 9.385069e-003
2.879201e+003, 1.029940e-002
2.881129e+003, 1.051948e-002
2.883058e+003, 1.028786e-002
2.884986e+003, 1.029722e-002
2.886915e+003, 9.479209e-003
2.888843e+003, 8.668608e-003
2.890771e+003, 9.391109e-003
2.892700e+003, 9.762157e-003
2.894628e+003, 9.819060e-003
2.896557e+003, 9.755595e-003
2.898485e+003, 9.507489e-003
2.900414e+003, 8.909836e-003
2.902342e+003, 9.582181e-003
2.904271e+003, 1.009121e-002
2.906199e+003, 9.730713e-003
2.908128e+003, 9.156693e-003
2.910056e+003, 8.994857e-003
2.911985e+003, 1.008845e-002
2.913913e+003, 1.064036e-002
2.915842e+003, 9.783663e-003
2.917770e+003, 9.199001e-003
2.919698e+003, 9.508253e-003
2.921627e+003, 9.229028e-003
2.923555e+003, 8.998139e-003
2.925484e+003, 9.141440e-003
2.927412e+003, 9.404820e-003
2.929341e+003, 9.547551e-003
2.931269e+003, 9.860201e-003
2.933198e+003, 9.750253e-003
2.935126e+003, 8.906736e-003
2.937055e+003, 8.969111e-003
2.938983e+003, 9.690857e-003
2.940912e+003, 1.005641e-002
2.942840e+003, 9.829440e-003
2.944769e+003, 9.621589e-003
2.946697e+003, 9.790287e-003
2.948625e+003, 9.814944e-003
2.950554e+003, 9.152952e-003
2.952482e+003, 8.397734e-003
2.954411e+003, 8.268081e-003
2.956339e+003, 8.970991e-003
2.958268e+003, 8.594949e-003
2.960196e+003, 8.509730e-003
2.962125e+003, 9.046067e-003
2.964053e+003, 9.447864e-003
2.965982e+003, 9.847691e-003
2.967910e+003, 9.648747e-003
2.969839e+003, 9.664684e-003
2.971767e+003, 9.884410e-003
2.973696e+003, 9.849545e-003
2.975624e+003, 9.539134e-003
2.977552e+003, 9.430359e-003
2.979481e+003, 9.418100e-003
2.981409e+003, 9.662989e-003
2.983338e+003, 9.662025e-003
2.985266e+003, 9.681675e-003
2.987195e+003, 1.048621e-002
2.989123e+003, 1.126466e-002
2.991052e+003, 1.061628e-002
2.992980e+003, 1.028230e-002
2.994909e+003, 1.011791e-002
2.996837e+003, 1.009241e-002
2.998766e+003, 1.031947e-002
3.000694e+003, 1.056545e-002
3.002623e+003, 1.046739e-002
3.004551e+003, 1.016808e-002
3.006479e+003, 9.880342e-003
3.008408e+003, 1.044014e-002
3.010336e+003, 1.089338e-002
3.012265e+003, 1.046177e-002
3.014193e+003, 9.567635e-003
3.016122e+003, 9.494425e-003
3.018050e+003, 1.050340e-002
3.019979e+003, 1.130581e-002
3.021907e+003, 1.055510e-002
3.023836e+003, 9.804908e-003
3.025764e+003, 1.019691e-002
3.027693e+003, 1.051795e-002
3.029621e+003, 1.094564e-002
3.031550e+003, 1.163326e-002
3.033478e+003, 1.143505e-002
3.035406e+003, 9.932459e-003
3.037335e+003, 9.578494e-003
3.039263e+003, 9.900066e-003
3.041192e+003, 1.026546e-002
3.043120e+003, 1.009591e-002
3.045049e+003, 9.284152e-003
3.046977e+003, 9.600953e-003
3.048906e+003, 1.043127e-002
3.050834e+003, 1.048812e-002
3.052763e+003, 9.795289e-003
3.054691e+003, 1.040365e-002
3.056620e+003, 1.117166e-002
3.058548e+003, 1.165506e-002
3.060477e+003, 1.196788e-002
3.062405e+003, 1.116730e-002
3.064333e+003, 1.069202e-002
3.066262e+003, 1.113920e-002
3.068190e+003, 1.120387e-002
3.070119e+003, 1.092619e-002
3.072047e+003, 1.048390e-002
3.073976e+003, 1.050822e-002
3.075904e+003, 1.097107e-002
3.077833e+003, 1.093298e-002
3.079761e+003, 1.104598e-002
3.081690e+003, 1.083521e-002
3.083618e+003, 1.082992e-002
3.085547e+003, 1.124264e-002
3.087475e+003, 1.098714e-002
3.089404e+003, 1.137524e-002
3.091332e+003, 1.161975e-002
3.093260e+003, 1.152825e-002
3.095189e+003, 1.126257e-002
3.097117e+003, 1.160706e-002
3.099046e+003, 1.263249e-002
3.100974e+003, 1.273806e-002
3.102903e+003, 1.152429e-002
3.104831e+003, 1.102228e-002
3.106760e+003, 1.130413e-002
3.108688e+003, 1.132034e-002
3.110617e+003, 1.077805e-002
3.112545e+003, 1.045028e-002
3.114474e+003, 1.172396e-002
3.116402e+003, 1.200524e-002
3.118331e+003, 1.126793e-002
3.120259e+003, 1.201128e-002
3.122188e+003, 1.185855e-002
3.124116e+003, 1.174418e-002
3.126044e+003, 1.154761e-002
3.127973e+003, 1.113021e-002
3.129901e+003, 1.082169e-002
3.131830e+003, 1.147040e-002
3.133758e+003, 1.168295e-002
3.135687e+003, 1.115547e-002
3.137615e+003, 1.182647e-002
3.139544e+003, 1.229684e-002
3.141472e+003, 1.189617e-002
3.143401e+003, 1.270718e-002
3.145329e+003, 1.317885e-002
3.147258e+003, 1.268058e-002
3.149186e+003, 1.137071e-002
3.151115e+003, 1.141261e-002
3.153043e+003, 1.242831e-002
3.154971e+003, 1.215476e-002
3.156900e+003, 1.162021e-002
3.158828e+003, 1.150585e-002
3.160757e+003, 1.176560e-002
3.162685e+003, 1.208399e-002
3.164614e+003, 1.182812e-002
3.166542e+003, 1.121114e-002
3.168471e+003, 1.147517e-002
3.170399e+003, 1.221262e-002
3.172328e+003, 1.173713e-002
3.174256e+003, 1.167160e-002
3.176185e+003, 1.204515e-002
3.178113e+003, 1.172905e-002
3.180042e+003, 1.209755e-002
3.181970e+003, 1.266215e-002
3.183898e+003, 1.202771e-002
3.185827e+003, 1.154830e-002
3.187755e+003, 1.240966e-002
3.189684e+003, 1.356510e-002
3.191612e+003, 1.384740e-002
3.193541e+003, 1.364485e-002
3.195469e+003, 1.339829e-002
3.197398e+003, 1.296064e-002
3.199326e+003, 1.248271e-002
3.201255e+003, 1.268829e-002
3.203183e+003, 1.339740e-002
3.205112e+003, 1.373996e-002
3.207040e+003, 1.350664e-002
3.208969e+003, 1.266387e-002
3.210897e+003, 1.201991e-002
3.212825e+003, 1.330186e-002
3.214754e+003, 1.464812e-002
3.216682e+003, 1.397925e-002
3.218611e+003, 1.322943e-002
3.220539e+003, 1.410401e-002
3.222468e+003, 1.419794e-002
3.224396e+003, 1.265994e-002
3.226325e+003, 1.282177e-002
3.228253e+003, 1.472453e-002
3.230182e+003, 1.517713e-002
3.232110e+003, 1.418995e-002
3.234039e+003, 1.374805e-002
3.235967e+003, 1.396720e-002
3.237896e+003, 1.430187e-002
3.239824e+003, 1.369594e-002
3.241752e+003, 1.272405e-002
3.243681e+003, 1.245124e-002
3.245609e+003, 1.211490e-002
3.247538e+003, 1.222465e-002
3.249466e+003, 1.376865e-002
3.251395e+003, 1.491705e-002
3.253323e+003, 1.407132e-002
3.255252e+003, 1.338717e-002
3.257180e+003, 1.337455e-002
3.259109e+003, 1.277376e-002
3.261037e+003, 1.257227e-002
3.262966e+003, 1.392673e-002
3.264894e+003, 1.393121e-002
3.266823e+003, 1.253323e-002
3.268751e+003, 1.261670e-002
3.270679e+003, 1.365326e-002
3.272608e+003, 1.448900e-002
3.274536e+003, 1.420342e-002
3.276465e+003, 1.412106e-002
3.278393e+003, 1.451543e-002
3.280322e+003, 1.416687e-002
3.282250e+003, 1.399892e-002
3.284179e+003, 1.394997e-002
3.286107e+003, 1.420565e-002
3.288036e+003, 1.424885e-002
3.289964e+003, 1.394957e-002
3.291893e+003, 1.469897e-002
3.293821e+003, 1.465672e-002
3.295750e+003, 1.445430e-002
3.297678e+003, 1.464877e-002
3.299606e+003, 1.466570e-002
3.301535e+003, 1.407172e-002
3.303463e+003, 1.403159e-002
3.305392e+003, 1.345496e-002
3.307320e+003, 1.382207e-002
3.309249e+003, 1.435753e-002
3.311177e+003, 1.472960e-002
3.313106e+003, 1.492118e-002
3.315034e+003, 1.416364e-002
3.316963e+003, 1.387227e-002
3.318891e+003, 1.378854e-002
3.320820e+003, 1.402815e-002
3.322748e+003, 1.487751e-002
3.324677e+003, 1.508642e-002
3.326605e+003, 1.396846e-002
3.328533e+003, 1.344415e-002
3.330462e+003, 1.360502e-002
3.332390e+003, 1.335880e-002
3.334319e+003, 1.345563e-002
3.336247e+003, 1.378797e-002
3.338176e+003, 1.373709e-002
3.340104e+003, 1.405014e-002
3.342033e+003, 1.449559e-002
3.343961e+003, 1.460108e-002
3.345890e+003, 1.496137e-002
3.347818e+003, 1.502061e-002
3.349747e+003, 1.442890e-002
3.351675e+003, 1.485158e-002
3.353604e+003, 1.512532e-002
3.355532e+003, 1.366221e-002
3.357460e+003, 1.381459e-002
3.359389e+003, 1.521488e-002
3.361317e+003, 1.541243e-002
3.363246e+003, 1.566144e-002
3.365174e+003, 1.606570e-002
3.367103e+003, 1.633093e-002
3.369031e+003, 1.594516e-002
3.370960e+003, 1.505933e-002
3.372888e+003, 1.459217e-002
3.374817e+003, 1.543441e-002
3.376745e+003, 1.558835e-002
3.378674e+003, 1.537908e-002
3.380602e+003, 1.449984e-002
3.382531e+003, 1.399919e-002
3.384459e+003, 1.500373e-002
3.386387e+003, 1.563985e-002
3.388316e+003, 1.574401e-002
3.390244e+003, 1.526409e-002
3.392173e+003, 1.590181e-002
3.394101e+003, 1.709558e-002
3.396030e+003, 1.698334e-002
3.397958e+003, 1.633367e-002
3.399887e+003, 1.661807e-002
3.401815e+003, 1.587431e-002
3.403744e+003, 1.618811e-002
3.405672e+003, 1.646826e-002
3.407601e+003, 1.593925e-002
3.409529e+003, 1.618158e-002
3.411458e+003, 1.688146e-002
3.413386e+003, 1.679529e-002
3.415314e+003, 1.595447e-002
3.417243e+003, 1.570236e-002
3.419171e+003, 1.595099e-002
3.421100e+003, 1.527284e-002
3.423028e+003, 1.529967e-002
3.424957e+003, 1.606117e-002
3.426885e+003, 1.634576e-002
3.428814e+003, 1.592602e-002
3.430742e+003, 1.531957e-002
3.432671e+003, 1.613226e-002
3.434599e+003, 1.694701e-002
3.436528e+003, 1.704273e-002
3.438456e+003, 1.797203e-002
3.440385e+003, 1.719137e-002
3.442313e+003, 1.637710e-002
3.444241e+003, 1.665565e-002
3.446170e+003, 1.753302e-002
3.448098e+003, 1.774359e-002
3.450027e+003, 1.765662e-002
3.451955e+003, 1.824334e-002
3.453884e+003, 1.844510e-002
3.455812e+003, 1.783298e-002
3.457741e+003, 1.756857e-002
3.459669e+003, 1.809265e-002
3.461598e+003, 1.967571e-002
3.463526e+003, 2.031007e-002
3.465455e+003, 1.963333e-002
3.467383e+003, 1.894743e-002
3.469312e+003, 1.969785e-002
3.471240e+003, 2.087262e-002
3.473168e+003, 2.044198e-002
3.475097e+003, 1.923636e-002
3.477025e+003, 1.975065e-002
3.478954e+003, 2.042472e-002
3.480882e+003, 2.014088e-002
3.482811e+003, 2.076068e-002
3.484739e+003, 2.106139e-002
3.486668e+003, 2.146981e-002
3.488596e+003, 2.212914e-002
3.490525e+003, 2.208170e-002
3.492453e+003, 2.130709e-002
3.494382e+003, 2.195424e-002
3.496310e+003, 2.305324e-002
3.498239e+003, 2.378356e-002
3.500167e+003, 2.428800e-002
3.502095e+003, 2.383657e-002
3.504024e+003, 2.278778e-002
3.505952e+003, 2.339864e-002
3.507881e+003, 2.429458e-002
3.509809e+003, 2.497688e-002
3.511738e+003, 2.514869e-002
3.513666e+003, 2.490273e-002
3.515595e+003, 2.544082e-002
3.517523e+003, 2.592124e-002
3.519452e+003, 2.589642e-002
3.521380e+003, 2.590351e-002
3.523309e+003, 2.618449e-002
3.525237e+003, 2.763078e-002
3.527166e+003, 2.710541e-002
3.529094e+003, 2.617915e-002
3.531022e+003, 2.683917e-002
3.532951e+003, 2.691661e-002
3.534879e+003, 2.727930e-002
3.536808e+003, 2.776151e-002
3.538736e+003, 2.809046e-002
3.540665e+003, 2.864202e-002
3.542593e+003, 2.768864e-002
3.544522e+003, 2.731232e-002
3.546450e+003, 2.883917e-002
3.548379e+003, 3.061719e-002
3.550307e+003, 3.047882e-002
3.552236e+003, 2.881401e-002
3.554164e+003, 2.833804e-002
3.556093e+003, 2.852463e-002
3.558021e+003, 2.939920e-002
3.559949e+003, 3.008724e-002
3.561878e+003, 2.992124e-002
3.563806e+003, 2.965989e-002
3.565735e+003, 2.837417e-002
3.567663e+003, 2.648475e-002
3.569592e+003, 2.772321e-002
3.571520e+003, 2.777140e-002
3.573449e+003, 2.630360e-002
3.575377e+003, 2.563279e-002
3.577306e+003, 2.592730e-002
3.579234e+003, 2.568132e-002
3.581163e+003, 2.317107e-002
3.583091e+003, 2.048256e-002
3.585020e+003, 1.886397e-002
3.586948e+003, 1.920928e-002
3.588876e+003, 1.773739e-002
3.590805e+003, 1.630287e-002
3.592733e+003, 1.642994e-002
3.594662e+003, 1.493583e-002
3.596590e+003, 1.391400e-002
3.598519e+003, 1.329558e-002
3.600447e+003, 1.279882e-002
3.602376e+003, 1.276342e-002
3.604304e+003, 1.288186e-002
3.606233e+003, 1.240580e-002
3.608161e+003, 1.188379e-002
3.610090e+003, 1.232951e-002
3.612018e+003, 1.100949e-002
3.613947e+003, 9.122327e-003
3.615875e+003, 8.514998e-003
3.617803e+003, 8.513809e-003
3.619732e+003, 8.260312e-003
3.621660e+003, 8.862809e-003
3.623589e+003, 9.509318e-003
3.625517e+003, 9.833548e-003
3.627446e+003, 1.065009e-002
3.629374e+003, 1.201959e-002
3.631303e+003, 1.269266e-002
3.633231e+003, 1.113994e-002
3.635160e+003, 1.073577e-002
3.637088e+003, 9.754036e-003
3.639017e+003, 9.054063e-003
3.640945e+003, 9.291911e-003
3.642874e+003, 9.905086e-003
3.644802e+003, 9.659685e-003
3.646730e+003, 9.253920e-003
3.648659e+003, 1.007982e-002
3.650587e+003, 9.430004e-003
3.652516e+003, 7.786424e-003
3.654444e+003, 9.096413e-003
3.656373e+003, 1.107749e-002
3.658301e+003, 1.017417e-002
3.660230e+003, 8.726363e-003
3.662158e+003, 7.626922e-003
3.664087e+003, 6.950212e-003
3.666015e+003, 8.959508e-003
3.667944e+003, 1.034149e-002
3.669872e+003, 1.078049e-002
3.671801e+003, 1.022653e-002
3.673729e+003, 9.944139e-003
3.675657e+003, 9.961722e-003
3.677586e+003, 9.684983e-003
3.679514e+003, 8.639270e-003
3.681443e+003, 8.624232e-003
3.683371e+003, 9.633205e-003
3.685300e+003, 1.010512e-002
3.687228e+003, 9.549028e-003
3.689157e+003, 7.321155e-003
3.691085e+003, 6.237128e-003
3.693014e+003, 7.982356e-003
3.694942e+003, 8.743040e-003
3.696871e+003, 8.730548e-003
3.698799e+003, 8.970907e-003
3.700728e+003, 8.590885e-003
3.702656e+003, 7.442521e-003
3.704584e+003, 9.329577e-003
3.706513e+003, 1.118891e-002
3.708441e+003, 1.100768e-002
3.710370e+003, 1.056196e-002
3.712298e+003, 9.139824e-003
3.714227e+003, 8.216286e-003
3.716155e+003, 9.742359e-003
3.718084e+003, 1.097171e-002
3.720012e+003, 1.044507e-002
3.721941e+003, 1.009697e-002
3.723869e+003, 1.051310e-002
3.725798e+003, 1.032404e-002
3.727726e+003, 1.059079e-002
3.729655e+003, 1.078552e-002
3.731583e+003, 1.016430e-002
3.733511e+003, 9.398854e-003
3.735440e+003, 9.202191e-003
3.737368e+003, 9.686286e-003
3.739297e+003, 1.133967e-002
3.741225e+003, 1.133388e-002
3.743154e+003, 1.057522e-002
3.745082e+003, 1.051744e-002
3.747011e+003, 1.093345e-002
3.748939e+003, 1.114885e-002
3.750868e+003, 1.113716e-002
3.752796e+003, 1.070644e-002
3.754725e+003, 1.015319e-002
3.756653e+003, 1.165171e-002
3.758582e+003, 1.148400e-002
3.760510e+003, 9.731137e-003
3.762438e+003, 8.637303e-003
3.764367e+003, 9.170409e-003
3.766295e+003, 9.636013e-003
3.768224e+003, 8.601157e-003
3.770152e+003, 8.402469e-003
3.772081e+003, 7.898101e-003
3.774009e+003, 9.478698e-003
3.775938e+003, 1.029096e-002
3.777866e+003, 1.055086e-002
3.779795e+003, 1.191097e-002
3.781723e+003, 1.255378e-002
3.783652e+003, 1.116192e-002
3.785580e+003, 1.059341e-002
3.787509e+003, 1.009040e-002
3.789437e+003, 9.719661e-003
3.791365e+003, 1.077669e-002
3.793294e+003, 1.085656e-002
3.795222e+003, 1.061197e-002
3.797151e+003, 1.116021e-002
3.799079e+003, 1.174135e-002
3.801008e+003, 1.227762e-002
3.802936e+003, 1.280582e-002
3.804865e+003, 1.165580e-002
3.806793e+003, 9.553806e-003
3.808722e+003, 8.446365e-003
3.810650e+003, 1.013271e-002
3.812579e+003, 1.086735e-002
3.814507e+003, 1.031045e-002
3.816436e+003, 1.118048e-002
3.818364e+003, 1.176278e-002
3.820292e+003, 1.126848e-002
3.822221e+003, 1.058611e-002
3.824149e+003, 1.106791e-002
3.826078e+003, 9.856488e-003
3.828006e+003, 9.902294e-003
3.829935e+003, 9.133680e-003
3.831863e+003, 8.096687e-003
3.833792e+003, 9.927369e-003
3.835720e+003, 1.130770e-002
3.837649e+003, 1.074746e-002
3.839577e+003, 9.037766e-003
3.841506e+003, 8.578948e-003
3.843434e+003, 9.556371e-003
3.845363e+003, 1.059869e-002
3.847291e+003, 1.077852e-002
3.849219e+003, 1.123838e-002
3.851148e+003, 1.049580e-002
3.853076e+003, 8.758064e-003
3.855005e+003, 9.940130e-003
3.856933e+003, 1.033227e-002
3.858862e+003, 9.187101e-003
3.860790e+003, 8.488419e-003
3.862719e+003, 8.655912e-003
3.864647e+003, 8.309176e-003
3.866576e+003, 7.681399e-003
3.868504e+003, 8.040118e-003
3.870433e+003, 8.659719e-003
3.872361e+003, 9.170110e-003
3.874290e+003, 1.037457e-002
3.876218e+003, 1.004307e-002
3.878146e+003, 1.052920e-002
3.880075e+003, 1.045062e-002
3.882003e+003, 1.025137e-002
3.883932e+003, 1.046533e-002
3.885860e+003, 1.072341e-002
3.887789e+003, 1.144709e-002
3.889717e+003, 1.168579e-002
3.891646e+003, 1.088827e-002
3.893574e+003, 1.060756e-002
3.895503e+003, 1.058540e-002
3.897431e+003, 1.037707e-002
3.899360e+003, 9.805793e-003
3.901288e+003, 9.751364e-003
3.903217e+003, 1.049857e-002
3.905145e+003, 1.050477e-002
3.907073e+003, 1.012660e-002
3.909002e+003, 9.453033e-003
3.910930e+003, 9.775316e-003
3.912859e+003, 1.002344e-002
3.914787e+003, 1.031469e-002
3.916716e+003, 1.095454e-002
3.918644e+003, 1.105103e-002
3.920573e+003, 1.025200e-002
3.922501e+003, 9.246278e-003
3.924430e+003, 9.799991e-003
3.926358e+003, 1.029417e-002
3.928287e+003, 1.002320e-002
3.930215e+003, 1.024255e-002
3.932144e+003, 8.932187e-003
3.934072e+003, 8.616317e-003
3.936000e+003, 7.699500e-003
3.937929e+003, 7.660448e-003
3.939857e+003, 8.673053e-003
3.941786e+003, 9.832321e-003
3.943714e+003, 1.130838e-002
3.945643e+003, 1.086210e-002
3.947571e+003, 8.576802e-003
3.949500e+003, 8.041704e-003
3.951428e+003, 9.940195e-003
3.953357e+003, 1.069818e-002
3.955285e+003, 9.973221e-003
3.957214e+003, 9.975540e-003
3.959142e+003, 1.226581e-002
3.961071e+003, 1.235871e-002
3.962999e+003, 1.024262e-002
3.964927e+003, 9.137842e-003
3.966856e+003, 9.311166e-003
3.968784e+003, 9.848740e-003
3.970713e+003, 1.072466e-002
3.972641e+003, 1.213763e-002
3.974570e+003, 1.142760e-002
3.976498e+003, 1.023296e-002
3.978427e+003, 9.292460e-003
3.980355e+003, 1.016159e-002
3.982284e+003, 1.140028e-002
3.984212e+003, 1.228079e-002
3.986141e+003, 1.333050e-002
3.988069e+003, 1.315148e-002
3.989998e+003, 1.102508e-002
3.991926e+003, 1.018683e-002
3.993854e+003, 1.069947e-002
3.995783e+003, 1.065244e-002
3.997711e+003, 1.042661e-002
3.999640e+003, 1.043140e-002
4.001568e+003, 0.000000e+000
##END=



