##NAMES=Elbaite
##RRUFFID=R050487
##IDEAL CHEMISTRY=Na(Al_1.5_Li_1.5_)Al_6_(Si_6_O_18_)(BO_3_)_3_(OH)_3_OH
##LOCALITY=White Queen mine, Pala, San Diego County, California, USA
##OWNER=RRUFF
##SOURCE=California Institute of Technology
##DESCRIPTION=Mass of blue acicular crystals
##STATUS=The identification of this mineral has been confirmed by X-ray diffraction and chemical analysis
##URL=rruff.info/R050487
##MEASURED CHEMISTRY=(Na_0.86_[box]_0.13_Ca_0.01_)(Al_0.42_Li_0.38_Fe^2+^_0.18_Mn_0.02_)_3_Al_6_(BO_3_)_3_Si_6_O_18_((OH)_0.85_F_0.15_)_4_
3.953357e+002, 3.197544e-001
3.972641e+002, 3.254908e-001
3.991926e+002, 3.276261e-001
4.011211e+002, 3.202043e-001
4.030495e+002, 3.174377e-001
4.049780e+002, 3.244577e-001
4.069065e+002, 3.212754e-001
4.088349e+002, 3.268957e-001
4.107634e+002, 3.346934e-001
4.126919e+002, 3.393288e-001
4.146203e+002, 3.434245e-001
4.165488e+002, 3.549029e-001
4.184773e+002, 3.607448e-001
4.204057e+002, 3.672414e-001
4.223342e+002, 3.682200e-001
4.242627e+002, 3.667018e-001
4.261911e+002, 3.633056e-001
4.281196e+002, 3.572898e-001
4.300481e+002, 3.518657e-001
4.319765e+002, 3.508470e-001
4.339050e+002, 3.561969e-001
4.358335e+002, 3.641177e-001
4.377619e+002, 3.668956e-001
4.396904e+002, 3.685150e-001
4.416189e+002, 3.679973e-001
4.435473e+002, 3.690846e-001
4.454758e+002, 3.707556e-001
4.474043e+002, 3.680731e-001
4.493327e+002, 3.618177e-001
4.512612e+002, 3.548267e-001
4.531897e+002, 3.462871e-001
4.551181e+002, 3.381281e-001
4.570466e+002, 3.308061e-001
4.589751e+002, 3.262556e-001
4.609035e+002, 3.246584e-001
4.628320e+002, 3.259584e-001
4.647605e+002, 3.274823e-001
4.666889e+002, 3.280028e-001
4.686174e+002, 3.286208e-001
4.705459e+002, 3.299507e-001
4.724743e+002, 3.289596e-001
4.744028e+002, 3.296221e-001
4.763313e+002, 3.319405e-001
4.782597e+002, 3.331990e-001
4.801882e+002, 3.336524e-001
4.821167e+002, 3.359560e-001
4.840451e+002, 3.393231e-001
4.859736e+002, 3.420939e-001
4.879021e+002, 3.441062e-001
4.898305e+002, 3.458639e-001
4.917590e+002, 3.471784e-001
4.936875e+002, 3.485283e-001
4.956159e+002, 3.471599e-001
4.975444e+002, 3.436758e-001
4.994729e+002, 3.392583e-001
5.014013e+002, 3.346850e-001
5.033298e+002, 3.289798e-001
5.052583e+002, 3.215392e-001
5.071867e+002, 3.124226e-001
5.091152e+002, 3.034728e-001
5.110437e+002, 2.964001e-001
5.129721e+002, 2.901229e-001
5.149006e+002, 2.825480e-001
5.168290e+002, 2.750821e-001
5.187575e+002, 2.684532e-001
5.206860e+002, 2.620334e-001
5.226144e+002, 2.554718e-001
5.245429e+002, 2.498731e-001
5.264714e+002, 2.438740e-001
5.283998e+002, 2.379600e-001
5.303283e+002, 2.330948e-001
5.322568e+002, 2.279445e-001
5.341852e+002, 2.237917e-001
5.361137e+002, 2.208377e-001
5.380422e+002, 2.182679e-001
5.399706e+002, 2.168050e-001
5.418991e+002, 2.163063e-001
5.438276e+002, 2.161893e-001
5.457560e+002, 2.157120e-001
5.476845e+002, 2.157090e-001
5.496130e+002, 2.152240e-001
5.515414e+002, 2.137856e-001
5.534699e+002, 2.123329e-001
5.553984e+002, 2.095304e-001
5.573268e+002, 2.051458e-001
5.592553e+002, 2.003369e-001
5.611838e+002, 1.958821e-001
5.631122e+002, 1.919001e-001
5.650407e+002, 1.884541e-001
5.669692e+002, 1.855175e-001
5.688976e+002, 1.829100e-001
5.708261e+002, 1.808544e-001
5.727546e+002, 1.798453e-001
5.746830e+002, 1.797320e-001
5.766115e+002, 1.796158e-001
5.785400e+002, 1.797500e-001
5.804684e+002, 1.802377e-001
5.823969e+002, 1.803218e-001
5.843254e+002, 1.793005e-001
5.862538e+002, 1.770891e-001
5.881823e+002, 1.737186e-001
5.901108e+002, 1.694687e-001
5.920392e+002, 1.649355e-001
5.939677e+002, 1.604830e-001
5.958962e+002, 1.566217e-001
5.978246e+002, 1.538331e-001
5.997531e+002, 1.518089e-001
6.016816e+002, 1.506388e-001
6.036100e+002, 1.500965e-001
6.055385e+002, 1.497885e-001
6.074670e+002, 1.493787e-001
6.093954e+002, 1.488055e-001
6.113239e+002, 1.491378e-001
6.132524e+002, 1.505982e-001
6.151808e+002, 1.530820e-001
6.171093e+002, 1.563507e-001
6.190378e+002, 1.593595e-001
6.209662e+002, 1.603478e-001
6.228947e+002, 1.587799e-001
6.248232e+002, 1.553767e-001
6.267516e+002, 1.511663e-001
6.286801e+002, 1.469592e-001
6.306086e+002, 1.434158e-001
6.325370e+002, 1.398659e-001
6.344655e+002, 1.359879e-001
6.363940e+002, 1.318793e-001
6.383224e+002, 1.278517e-001
6.402509e+002, 1.238556e-001
6.421794e+002, 1.209030e-001
6.441078e+002, 1.194261e-001
6.460363e+002, 1.186614e-001
6.479648e+002, 1.186343e-001
6.498932e+002, 1.189934e-001
6.518217e+002, 1.195193e-001
6.537502e+002, 1.199842e-001
6.556786e+002, 1.201304e-001
6.576071e+002, 1.198007e-001
6.595356e+002, 1.188515e-001
6.614641e+002, 1.169987e-001
6.633925e+002, 1.141917e-001
6.653210e+002, 1.105915e-001
6.672495e+002, 1.065716e-001
6.691779e+002, 1.027973e-001
6.711064e+002, 9.970196e-002
6.730349e+002, 9.722417e-002
6.749633e+002, 9.526222e-002
6.768918e+002, 9.330420e-002
6.788203e+002, 9.138735e-002
6.807487e+002, 8.989043e-002
6.826772e+002, 8.918400e-002
6.846057e+002, 8.953764e-002
6.865341e+002, 9.130154e-002
6.884626e+002, 9.447899e-002
6.903911e+002, 9.901591e-002
6.923195e+002, 1.047339e-001
6.942480e+002, 1.111528e-001
6.961765e+002, 1.184532e-001
6.981049e+002, 1.258893e-001
7.000334e+002, 1.334778e-001
7.019619e+002, 1.407832e-001
7.038903e+002, 1.472437e-001
7.058188e+002, 1.524973e-001
7.077473e+002, 1.565258e-001
7.096757e+002, 1.591047e-001
7.116042e+002, 1.599617e-001
7.135327e+002, 1.584314e-001
7.154611e+002, 1.546548e-001
7.173896e+002, 1.484685e-001
7.193181e+002, 1.403008e-001
7.212465e+002, 1.312416e-001
7.231750e+002, 1.218634e-001
7.251035e+002, 1.127114e-001
7.270319e+002, 1.037580e-001
7.289604e+002, 9.557827e-002
7.308889e+002, 8.858837e-002
7.328173e+002, 8.283210e-002
7.347458e+002, 7.862393e-002
7.366743e+002, 7.549124e-002
7.386027e+002, 7.333344e-002
7.405312e+002, 7.203802e-002
7.424597e+002, 7.187440e-002
7.443881e+002, 7.340579e-002
7.463166e+002, 7.685174e-002
7.482451e+002, 8.198315e-002
7.501735e+002, 8.749935e-002
7.521020e+002, 9.077398e-002
7.540305e+002, 9.129518e-002
7.559589e+002, 9.022865e-002
7.578874e+002, 8.897505e-002
7.598159e+002, 8.861724e-002
7.617443e+002, 8.915272e-002
7.636728e+002, 9.073420e-002
7.656013e+002, 9.349395e-002
7.675297e+002, 9.778656e-002
7.694582e+002, 1.037643e-001
7.713867e+002, 1.116015e-001
7.733151e+002, 1.211233e-001
7.752436e+002, 1.311102e-001
7.771721e+002, 1.391851e-001
7.791005e+002, 1.430237e-001
7.810290e+002, 1.420211e-001
7.829575e+002, 1.378178e-001
7.848859e+002, 1.317120e-001
7.868144e+002, 1.242160e-001
7.887429e+002, 1.156842e-001
7.906713e+002, 1.064158e-001
7.925998e+002, 9.634019e-002
7.945283e+002, 8.549713e-002
7.964567e+002, 7.477272e-002
7.983852e+002, 6.461287e-002
8.003137e+002, 5.582980e-002
8.022421e+002, 4.908603e-002
8.041706e+002, 4.463548e-002
8.060991e+002, 4.178924e-002
8.080275e+002, 3.985865e-002
8.099560e+002, 3.891805e-002
8.118845e+002, 3.839500e-002
8.138129e+002, 3.803806e-002
8.157414e+002, 3.819696e-002
8.176699e+002, 3.867124e-002
8.195983e+002, 3.930657e-002
8.215268e+002, 3.998519e-002
8.234553e+002, 4.091860e-002
8.253837e+002, 4.201878e-002
8.273122e+002, 4.352774e-002
8.292407e+002, 4.522087e-002
8.311691e+002, 4.682932e-002
8.330976e+002, 4.856459e-002
8.350261e+002, 5.080617e-002
8.369545e+002, 5.317362e-002
8.388830e+002, 5.578734e-002
8.408115e+002, 5.859215e-002
8.427399e+002, 6.155608e-002
8.446684e+002, 6.447649e-002
8.465969e+002, 6.678006e-002
8.485253e+002, 6.778733e-002
8.504538e+002, 6.773662e-002
8.523823e+002, 6.688499e-002
8.543107e+002, 6.531609e-002
8.562392e+002, 6.340675e-002
8.581677e+002, 6.163193e-002
8.600961e+002, 5.957633e-002
8.620246e+002, 5.740969e-002
8.639531e+002, 5.531525e-002
8.658815e+002, 5.356356e-002
8.678100e+002, 5.237064e-002
8.697385e+002, 5.157677e-002
8.716669e+002, 5.113462e-002
8.735954e+002, 5.129181e-002
8.755239e+002, 5.201611e-002
8.774523e+002, 5.296210e-002
8.793808e+002, 5.405803e-002
8.813093e+002, 5.554397e-002
8.832377e+002, 5.745576e-002
8.851662e+002, 5.971456e-002
8.870947e+002, 6.216634e-002
8.890231e+002, 6.469937e-002
8.909516e+002, 6.745895e-002
8.928801e+002, 7.033118e-002
8.948085e+002, 7.344387e-002
8.967370e+002, 7.678462e-002
8.986655e+002, 8.056418e-002
9.005939e+002, 8.471685e-002
9.025224e+002, 8.889115e-002
9.044509e+002, 9.339228e-002
9.063793e+002, 9.864344e-002
9.083078e+002, 1.046719e-001
9.102363e+002, 1.113151e-001
9.121647e+002, 1.184788e-001
9.140932e+002, 1.263560e-001
9.160217e+002, 1.352935e-001
9.179501e+002, 1.449334e-001
9.198786e+002, 1.551753e-001
9.218071e+002, 1.661087e-001
9.237355e+002, 1.775469e-001
9.256640e+002, 1.889341e-001
9.275925e+002, 2.003416e-001
9.295209e+002, 2.117060e-001
9.314494e+002, 2.229396e-001
9.333779e+002, 2.343449e-001
9.353063e+002, 2.462475e-001
9.372348e+002, 2.584745e-001
9.391633e+002, 2.705395e-001
9.410917e+002, 2.826164e-001
9.430202e+002, 2.951670e-001
9.449487e+002, 3.076097e-001
9.468771e+002, 3.200800e-001
9.488056e+002, 3.322903e-001
9.507341e+002, 3.439208e-001
9.526625e+002, 3.544562e-001
9.545910e+002, 3.635156e-001
9.565195e+002, 3.711166e-001
9.584479e+002, 3.777681e-001
9.603764e+002, 3.831683e-001
9.623049e+002, 3.876186e-001
9.642333e+002, 3.913503e-001
9.661618e+002, 3.941262e-001
9.680903e+002, 3.960008e-001
9.700187e+002, 3.976663e-001
9.719472e+002, 3.985242e-001
9.738757e+002, 3.988268e-001
9.758041e+002, 3.983384e-001
9.777326e+002, 3.966682e-001
9.796611e+002, 3.939366e-001
9.815895e+002, 3.897448e-001
9.835180e+002, 3.835655e-001
9.854465e+002, 3.760748e-001
9.873749e+002, 3.675512e-001
9.893034e+002, 3.582168e-001
9.912319e+002, 3.483151e-001
9.931603e+002, 3.385942e-001
9.950888e+002, 3.294121e-001
9.970173e+002, 3.209060e-001
9.989457e+002, 3.132614e-001
1.000874e+003, 3.068938e-001
1.002803e+003, 3.014998e-001
1.004731e+003, 2.973697e-001
1.006660e+003, 2.941660e-001
1.008588e+003, 2.922102e-001
1.010517e+003, 2.913464e-001
1.012445e+003, 2.911413e-001
1.014373e+003, 2.911223e-001
1.016302e+003, 2.908349e-001
1.018230e+003, 2.898920e-001
1.020159e+003, 2.875750e-001
1.022087e+003, 2.831334e-001
1.024016e+003, 2.769437e-001
1.025944e+003, 2.691234e-001
1.027873e+003, 2.599138e-001
1.029801e+003, 2.499249e-001
1.031730e+003, 2.398838e-001
1.033658e+003, 2.302699e-001
1.035587e+003, 2.215636e-001
1.037515e+003, 2.141406e-001
1.039443e+003, 2.082900e-001
1.041372e+003, 2.039672e-001
1.043300e+003, 2.007524e-001
1.045229e+003, 1.982410e-001
1.047157e+003, 1.960420e-001
1.049086e+003, 1.933885e-001
1.051014e+003, 1.899078e-001
1.052943e+003, 1.855364e-001
1.054871e+003, 1.800220e-001
1.056800e+003, 1.732009e-001
1.058728e+003, 1.651307e-001
1.060657e+003, 1.560214e-001
1.062585e+003, 1.468050e-001
1.064514e+003, 1.377356e-001
1.066442e+003, 1.293378e-001
1.068370e+003, 1.219905e-001
1.070299e+003, 1.159881e-001
1.072227e+003, 1.116485e-001
1.074156e+003, 1.094998e-001
1.076084e+003, 1.095964e-001
1.078013e+003, 1.123467e-001
1.079941e+003, 1.181759e-001
1.081870e+003, 1.266890e-001
1.083798e+003, 1.369194e-001
1.085727e+003, 1.474465e-001
1.087655e+003, 1.572429e-001
1.089584e+003, 1.658256e-001
1.091512e+003, 1.726084e-001
1.093441e+003, 1.774461e-001
1.095369e+003, 1.803464e-001
1.097297e+003, 1.812852e-001
1.099226e+003, 1.803305e-001
1.101154e+003, 1.776505e-001
1.103083e+003, 1.730155e-001
1.105011e+003, 1.668274e-001
1.106940e+003, 1.591725e-001
1.108868e+003, 1.506031e-001
1.110797e+003, 1.416126e-001
1.112725e+003, 1.322191e-001
1.114654e+003, 1.225540e-001
1.116582e+003, 1.130199e-001
1.118511e+003, 1.035987e-001
1.120439e+003, 9.440024e-002
1.122368e+003, 8.543696e-002
1.124296e+003, 7.718222e-002
1.126224e+003, 6.953923e-002
1.128153e+003, 6.243662e-002
1.130081e+003, 5.616850e-002
1.132010e+003, 5.059454e-002
1.133938e+003, 4.537685e-002
1.135867e+003, 4.095161e-002
1.137795e+003, 3.728692e-002
1.139724e+003, 3.406212e-002
1.141652e+003, 3.128535e-002
1.143581e+003, 2.890789e-002
1.145509e+003, 2.681841e-002
1.147438e+003, 2.510371e-002
1.149366e+003, 2.379253e-002
1.151295e+003, 2.279700e-002
1.153223e+003, 2.181603e-002
1.155151e+003, 2.099202e-002
1.157080e+003, 2.028617e-002
1.159008e+003, 1.969283e-002
1.160937e+003, 1.933916e-002
1.162865e+003, 1.907308e-002
1.164794e+003, 1.869097e-002
1.166722e+003, 1.838282e-002
1.168651e+003, 1.814483e-002
1.170579e+003, 1.797163e-002
1.172508e+003, 1.792390e-002
1.174436e+003, 1.798945e-002
1.176365e+003, 1.810616e-002
1.178293e+003, 1.831061e-002
1.180222e+003, 1.840547e-002
1.182150e+003, 1.850340e-002
1.184078e+003, 1.850202e-002
1.186007e+003, 1.857159e-002
1.187935e+003, 1.882613e-002
1.189864e+003, 1.898126e-002
1.191792e+003, 1.918894e-002
1.193721e+003, 1.952553e-002
1.195649e+003, 1.971663e-002
1.197578e+003, 2.013586e-002
1.199506e+003, 2.082070e-002
1.201435e+003, 2.161790e-002
1.203363e+003, 2.242304e-002
1.205292e+003, 2.348901e-002
1.207220e+003, 2.496880e-002
1.209149e+003, 2.676463e-002
1.211077e+003, 2.871610e-002
1.213005e+003, 3.098640e-002
1.214934e+003, 3.379203e-002
1.216862e+003, 3.713729e-002
1.218791e+003, 4.106115e-002
1.220719e+003, 4.562857e-002
1.222648e+003, 5.093930e-002
1.224576e+003, 5.699978e-002
1.226505e+003, 6.360738e-002
1.228433e+003, 7.048649e-002
1.230362e+003, 7.724702e-002
1.232290e+003, 8.364286e-002
1.234219e+003, 8.942088e-002
1.236147e+003, 9.446624e-002
1.238076e+003, 9.851907e-002
1.240004e+003, 1.016554e-001
1.241932e+003, 1.037700e-001
1.243861e+003, 1.052738e-001
1.245789e+003, 1.064561e-001
1.247718e+003, 1.074304e-001
1.249646e+003, 1.084880e-001
1.251575e+003, 1.096672e-001
1.253503e+003, 1.109571e-001
1.255432e+003, 1.124691e-001
1.257360e+003, 1.141458e-001
1.259289e+003, 1.159941e-001
1.261217e+003, 1.180480e-001
1.263146e+003, 1.202799e-001
1.265074e+003, 1.226315e-001
1.267003e+003, 1.250012e-001
1.268931e+003, 1.275021e-001
1.270859e+003, 1.303708e-001
1.272788e+003, 1.336398e-001
1.274716e+003, 1.373017e-001
1.276645e+003, 1.415622e-001
1.278573e+003, 1.463572e-001
1.280502e+003, 1.516698e-001
1.282430e+003, 1.572787e-001
1.284359e+003, 1.627099e-001
1.286287e+003, 1.678404e-001
1.288216e+003, 1.724518e-001
1.290144e+003, 1.758485e-001
1.292073e+003, 1.777537e-001
1.294001e+003, 1.783362e-001
1.295930e+003, 1.773284e-001
1.297858e+003, 1.750969e-001
1.299786e+003, 1.719048e-001
1.301715e+003, 1.681251e-001
1.303643e+003, 1.640191e-001
1.305572e+003, 1.597110e-001
1.307500e+003, 1.550627e-001
1.309429e+003, 1.503077e-001
1.311357e+003, 1.455388e-001
1.313286e+003, 1.406124e-001
1.315214e+003, 1.355656e-001
1.317143e+003, 1.306322e-001
1.319071e+003, 1.258420e-001
1.321000e+003, 1.213502e-001
1.322928e+003, 1.173446e-001
1.324857e+003, 1.141222e-001
1.326785e+003, 1.120192e-001
1.328714e+003, 1.110609e-001
1.330642e+003, 1.111778e-001
1.332570e+003, 1.125134e-001
1.334499e+003, 1.144704e-001
1.336427e+003, 1.165180e-001
1.338356e+003, 1.181131e-001
1.340284e+003, 1.187234e-001
1.342213e+003, 1.181269e-001
1.344141e+003, 1.165074e-001
1.346070e+003, 1.137855e-001
1.347998e+003, 1.101575e-001
1.349927e+003, 1.061677e-001
1.351855e+003, 1.017959e-001
1.353784e+003, 9.701700e-002
1.355712e+003, 9.217326e-002
1.357641e+003, 8.742796e-002
1.359569e+003, 8.291156e-002
1.361497e+003, 7.852625e-002
1.363426e+003, 7.422780e-002
1.365354e+003, 6.997583e-002
1.367283e+003, 6.627928e-002
1.369211e+003, 6.339131e-002
1.371140e+003, 6.147444e-002
1.373068e+003, 6.035887e-002
1.374997e+003, 5.955237e-002
1.376925e+003, 5.862338e-002
1.378854e+003, 5.743902e-002
1.380782e+003, 5.546617e-002
1.382711e+003, 5.288458e-002
1.384639e+003, 5.009886e-002
1.386568e+003, 4.751524e-002
1.388496e+003, 4.469503e-002
1.390424e+003, 4.170870e-002
1.392353e+003, 3.899638e-002
1.394281e+003, 3.672793e-002
1.396210e+003, 3.476144e-002
1.398138e+003, 3.324059e-002
1.400067e+003, 3.222570e-002
1.401995e+003, 3.154299e-002
1.403924e+003, 3.121252e-002
1.405852e+003, 3.101161e-002
1.407781e+003, 3.078662e-002
1.409709e+003, 3.030277e-002
1.411638e+003, 2.950744e-002
1.413566e+003, 2.847303e-002
1.415495e+003, 2.736133e-002
1.417423e+003, 2.616900e-002
1.419351e+003, 2.474175e-002
1.421280e+003, 2.297235e-002
1.423208e+003, 2.146816e-002
1.425137e+003, 2.014286e-002
1.427065e+003, 1.879502e-002
1.428994e+003, 1.763738e-002
1.430922e+003, 1.652904e-002
1.432851e+003, 1.545617e-002
1.434779e+003, 1.479962e-002
1.436708e+003, 1.422097e-002
1.438636e+003, 1.304789e-002
1.440565e+003, 1.189185e-002
1.442493e+003, 1.099610e-002
1.444422e+003, 1.026359e-002
1.446350e+003, 9.527396e-003
1.448278e+003, 8.857794e-003
1.450207e+003, 8.320939e-003
1.452135e+003, 7.956250e-003
1.454064e+003, 7.764199e-003
1.455992e+003, 8.086959e-003
1.457921e+003, 7.657645e-003
1.459849e+003, 6.634173e-003
1.461778e+003, 5.996126e-003
1.463706e+003, 5.817063e-003
1.465635e+003, 5.561930e-003
1.467563e+003, 5.150168e-003
1.469492e+003, 4.845305e-003
1.471420e+003, 4.857575e-003
1.473349e+003, 4.744096e-003
1.475277e+003, 4.381260e-003
1.477205e+003, 4.014749e-003
1.479134e+003, 3.688798e-003
1.481062e+003, 3.537344e-003
1.482991e+003, 3.439661e-003
1.484919e+003, 3.219679e-003
1.486848e+003, 3.194179e-003
1.488776e+003, 3.170934e-003
1.490705e+003, 2.922224e-003
1.492633e+003, 2.695611e-003
1.494562e+003, 2.942620e-003
1.496490e+003, 3.170718e-003
1.498419e+003, 2.856307e-003
1.500347e+003, 2.532955e-003
1.502276e+003, 2.398089e-003
1.504204e+003, 2.631887e-003
1.506132e+003, 3.129198e-003
1.508061e+003, 2.717097e-003
1.509989e+003, 2.039522e-003
1.511918e+003, 1.777892e-003
1.513846e+003, 1.604887e-003
1.515775e+003, 1.648396e-003
1.517703e+003, 1.691055e-003
1.519632e+003, 1.851656e-003
1.521560e+003, 1.991397e-003
1.523489e+003, 1.680829e-003
1.525417e+003, 1.464534e-003
1.527346e+003, 1.328936e-003
1.529274e+003, 1.223782e-003
1.531203e+003, 1.160759e-003
1.533131e+003, 1.254719e-003
1.535059e+003, 1.173773e-003
1.536988e+003, 1.316504e-003
1.538916e+003, 1.934152e-003
1.540845e+003, 1.978032e-003
1.542773e+003, 1.549300e-003
1.544702e+003, 1.268582e-003
1.546630e+003, 1.057618e-003
1.548559e+003, 1.059217e-003
1.550487e+003, 1.122112e-003
1.552416e+003, 1.136372e-003
1.554344e+003, 1.264116e-003
1.556273e+003, 1.679132e-003
1.558201e+003, 2.387987e-003
1.560130e+003, 2.156329e-003
1.562058e+003, 1.308949e-003
1.563986e+003, 1.168358e-003
1.565915e+003, 1.260171e-003
1.567843e+003, 1.384751e-003
1.569772e+003, 1.617463e-003
1.571700e+003, 1.493128e-003
1.573629e+003, 1.535538e-003
1.575557e+003, 2.037511e-003
1.577486e+003, 1.867491e-003
1.579414e+003, 1.485133e-003
1.581343e+003, 1.579408e-003
1.583271e+003, 1.614921e-003
1.585200e+003, 1.555652e-003
1.587128e+003, 1.520377e-003
1.589057e+003, 1.537030e-003
1.590985e+003, 1.674148e-003
1.592913e+003, 1.785850e-003
1.594842e+003, 1.778837e-003
1.596770e+003, 1.703806e-003
1.598699e+003, 1.743504e-003
1.600627e+003, 1.895971e-003
1.602556e+003, 1.924430e-003
1.604484e+003, 2.101132e-003
1.606413e+003, 2.227143e-003
1.608341e+003, 2.172716e-003
1.610270e+003, 2.223536e-003
1.612198e+003, 2.300575e-003
1.614127e+003, 2.615083e-003
1.616055e+003, 3.212593e-003
1.617984e+003, 2.984505e-003
1.619912e+003, 2.505967e-003
1.621840e+003, 2.557536e-003
1.623769e+003, 2.607225e-003
1.625697e+003, 2.610208e-003
1.627626e+003, 2.766054e-003
1.629554e+003, 2.883109e-003
1.631483e+003, 2.796260e-003
1.633411e+003, 3.016551e-003
1.635340e+003, 3.518778e-003
1.637268e+003, 3.264559e-003
1.639197e+003, 2.917709e-003
1.641125e+003, 2.950993e-003
1.643054e+003, 3.201194e-003
1.644982e+003, 3.581335e-003
1.646911e+003, 3.642569e-003
1.648839e+003, 3.331826e-003
1.650767e+003, 3.686500e-003
1.652696e+003, 4.591739e-003
1.654624e+003, 3.943007e-003
1.656553e+003, 3.038827e-003
1.658481e+003, 3.038887e-003
1.660410e+003, 3.277867e-003
1.662338e+003, 3.236803e-003
1.664267e+003, 2.962662e-003
1.666195e+003, 2.893758e-003
1.668124e+003, 3.239396e-003
1.670052e+003, 3.260316e-003
1.671981e+003, 3.006312e-003
1.673909e+003, 3.045591e-003
1.675838e+003, 3.135422e-003
1.677766e+003, 2.866186e-003
1.679694e+003, 2.873225e-003
1.681623e+003, 3.005854e-003
1.683551e+003, 3.517283e-003
1.685480e+003, 3.402529e-003
1.687408e+003, 2.988639e-003
1.689337e+003, 2.944456e-003
1.691265e+003, 2.688215e-003
1.693194e+003, 2.584308e-003
1.695122e+003, 3.071447e-003
1.697051e+003, 2.953671e-003
1.698979e+003, 3.076635e-003
1.700908e+003, 3.266401e-003
1.702836e+003, 2.704298e-003
1.704765e+003, 2.641323e-003
1.706693e+003, 2.531789e-003
1.708621e+003, 2.343118e-003
1.710550e+003, 2.142026e-003
1.712478e+003, 2.166071e-003
1.714407e+003, 2.318533e-003
1.716335e+003, 2.750481e-003
1.718264e+003, 2.593482e-003
1.720192e+003, 1.997758e-003
1.722121e+003, 1.821627e-003
1.724049e+003, 1.694385e-003
1.725978e+003, 1.522867e-003
1.727906e+003, 1.501916e-003
1.729835e+003, 1.400635e-003
1.731763e+003, 1.526903e-003
1.733692e+003, 1.968844e-003
1.735620e+003, 1.454078e-003
1.737548e+003, 8.542478e-004
1.739477e+003, 7.560251e-004
1.741405e+003, 7.164443e-004
1.743334e+003, 7.153396e-004
1.745262e+003, 5.702942e-004
1.747191e+003, 4.334694e-004
1.749119e+003, 4.552866e-004
1.751048e+003, 6.756202e-004
1.752976e+003, 4.683427e-004
1.754905e+003, 3.708970e-004
1.756833e+003, 5.595658e-004
1.758762e+003, 5.641574e-004
1.760690e+003, 7.626668e-004
1.762619e+003, 8.452929e-004
1.764547e+003, 7.163626e-004
1.766475e+003, 8.609376e-004
1.768404e+003, 9.724126e-004
1.770332e+003, 9.205709e-004
1.772261e+003, 9.670344e-004
1.774189e+003, 7.568841e-004
1.776118e+003, 6.722400e-004
1.778046e+003, 7.423884e-004
1.779975e+003, 8.376086e-004
1.781903e+003, 8.510019e-004
1.783832e+003, 8.334180e-004
1.785760e+003, 7.181291e-004
1.787689e+003, 5.317015e-004
1.789617e+003, 5.960807e-004
1.791546e+003, 9.482636e-004
1.793474e+003, 1.057651e-003
1.795402e+003, 1.021576e-003
1.797331e+003, 7.670374e-004
1.799259e+003, 6.240748e-004
1.801188e+003, 8.776767e-004
1.803116e+003, 8.796506e-004
1.805045e+003, 7.527266e-004
1.806973e+003, 6.862511e-004
1.808902e+003, 6.459709e-004
1.810830e+003, 7.640819e-004
1.812759e+003, 5.931051e-004
1.814687e+003, 2.542028e-004
1.816616e+003, 8.471637e-005
1.818544e+003, 3.581586e-004
1.820473e+003, 5.037644e-004
1.822401e+003, 4.658302e-004
1.824329e+003, 6.351068e-004
1.826258e+003, 5.207442e-004
1.828186e+003, 3.457228e-004
1.830115e+003, 6.023978e-004
1.832043e+003, 6.800861e-004
1.833972e+003, 3.741645e-004
1.835900e+003, 3.147053e-005
1.837829e+003, 7.957388e-005
1.839757e+003, 1.550343e-004
1.841686e+003, -1.859786e-005
1.843614e+003, 4.255268e-005
1.845543e+003, 1.645679e-004
1.847471e+003, -3.358570e-005
1.849400e+003, -9.499299e-005
1.851328e+003, -1.263157e-005
1.853256e+003, -1.279305e-004
1.855185e+003, -2.222018e-004
1.857113e+003, -1.261304e-004
1.859042e+003, -1.184773e-004
1.860970e+003, -3.777805e-004
1.862899e+003, -4.094884e-004
1.864827e+003, -3.439280e-004
1.866756e+003, -2.602323e-004
1.868684e+003, 5.747627e-005
1.870613e+003, 1.139693e-004
1.872541e+003, 6.643656e-006
1.874470e+003, -1.680789e-004
1.876398e+003, -3.535714e-004
1.878327e+003, -4.106727e-004
1.880255e+003, -2.662549e-004
1.882183e+003, -5.454603e-004
1.884112e+003, -9.913151e-004
1.886040e+003, -1.152426e-003
1.887969e+003, -8.487310e-004
1.889897e+003, -7.541601e-004
1.891826e+003, -9.989800e-004
1.893754e+003, -1.016769e-003
1.895683e+003, -8.655518e-004
1.897611e+003, -8.564738e-004
1.899540e+003, -1.015250e-003
1.901468e+003, -9.747825e-004
1.903397e+003, -1.157073e-003
1.905325e+003, -1.143606e-003
1.907254e+003, -1.198336e-003
1.909182e+003, -1.516641e-003
1.911110e+003, -1.726871e-003
1.913039e+003, -1.321840e-003
1.914967e+003, -7.106630e-004
1.916896e+003, -7.370895e-004
1.918824e+003, -9.444100e-004
1.920753e+003, -1.613019e-003
1.922681e+003, -2.191041e-003
1.924610e+003, -2.400600e-003
1.926538e+003, -2.204422e-003
1.928467e+003, -2.038790e-003
1.930395e+003, -1.917843e-003
1.932324e+003, -1.584779e-003
1.934252e+003, -1.752106e-003
1.936181e+003, -2.524580e-003
1.938109e+003, -2.525056e-003
1.940037e+003, -2.175734e-003
1.941966e+003, -2.080662e-003
1.943894e+003, -2.612758e-003
1.945823e+003, -2.735879e-003
1.947751e+003, -2.979656e-003
1.949680e+003, -3.064664e-003
1.951608e+003, -2.385677e-003
1.953537e+003, -2.467456e-003
1.955465e+003, -3.325468e-003
1.957394e+003, -3.632365e-003
1.959322e+003, -3.316423e-003
1.961251e+003, -2.809339e-003
1.963179e+003, -3.168589e-003
1.965108e+003, -3.645182e-003
1.967036e+003, -3.890434e-003
1.968964e+003, -3.530835e-003
1.970893e+003, -2.853760e-003
1.972821e+003, -2.779426e-003
1.974750e+003, -2.613547e-003
1.976678e+003, -2.540293e-003
1.978607e+003, -1.460747e-003
1.980535e+003, -5.844552e-004
1.982464e+003, -1.303721e-003
1.984392e+003, -7.944752e-004
1.986321e+003, -4.943025e-004
1.988249e+003, -1.277762e-003
1.990178e+003, -2.190716e-003
1.992106e+003, -1.247611e-003
1.994035e+003, -3.678747e-004
1.995963e+003, -1.127225e-003
1.997891e+003, -2.257331e-003
1.999820e+003, -3.033170e-003
2.001748e+003, -3.087457e-003
2.003677e+003, -3.596557e-003
2.005605e+003, -3.805828e-003
2.007534e+003, -2.846199e-003
2.009462e+003, -2.385148e-003
2.011391e+003, -2.384615e-003
2.013319e+003, -1.421774e-003
2.015248e+003, -4.722103e-004
2.017176e+003, -3.506374e-004
2.019105e+003, -7.806281e-004
2.021033e+003, -1.394379e-003
2.022962e+003, -1.859965e-003
2.024890e+003, -1.851133e-003
2.026818e+003, -2.042890e-003
2.028747e+003, -1.306502e-003
2.030675e+003, -1.234621e-003
2.032604e+003, -1.278026e-003
2.034532e+003, -8.034543e-004
2.036461e+003, -1.313078e-003
2.038389e+003, -9.133604e-004
2.040318e+003, 4.493678e-005
2.042246e+003, -6.986642e-004
2.044175e+003, -2.030686e-003
2.046103e+003, -1.834464e-003
2.048031e+003, -1.028037e-003
2.049960e+003, 1.266217e-004
2.051888e+003, 2.352779e-004
2.053817e+003, 1.016306e-006
2.055745e+003, -8.062064e-005
2.057674e+003, -2.631871e-005
2.059602e+003, -8.909940e-005
2.061531e+003, -5.811212e-004
2.063459e+003, -3.829622e-004
2.065388e+003, -5.169484e-004
2.067316e+003, -1.280947e-003
2.069245e+003, -1.113039e-003
2.071173e+003, -6.793486e-005
2.073102e+003, 3.105666e-004
2.075030e+003, 8.735739e-004
2.076958e+003, 1.124531e-003
2.078887e+003, 5.785180e-004
2.080815e+003, 2.139184e-004
2.082744e+003, 2.241875e-004
2.084672e+003, 5.433826e-004
2.086601e+003, 2.272661e-004
2.088529e+003, -1.533206e-004
2.090458e+003, -2.243102e-004
2.092386e+003, -4.338942e-004
2.094315e+003, -1.951911e-004
2.096243e+003, 2.686254e-004
2.098172e+003, 7.188199e-004
2.100100e+003, 1.219341e-003
2.102029e+003, 1.172245e-003
2.103957e+003, 1.021121e-003
2.105885e+003, 1.271107e-003
2.107814e+003, 1.095424e-003
2.109742e+003, 1.136147e-004
2.111671e+003, -1.830435e-004
2.113599e+003, -8.765457e-005
2.115528e+003, -1.727379e-004
2.117456e+003, -1.808611e-004
2.119385e+003, -2.906374e-004
2.121313e+003, -4.438435e-004
2.123242e+003, -2.393511e-004
2.125170e+003, -4.438940e-004
2.127099e+003, -1.186423e-003
2.129027e+003, -8.533935e-004
2.130956e+003, -5.776552e-004
2.132884e+003, -8.279611e-004
2.134813e+003, -9.155916e-004
2.136741e+003, -6.669411e-004
2.138669e+003, -1.782211e-004
2.140598e+003, 4.240996e-004
2.142526e+003, 9.923170e-004
2.144455e+003, 8.419300e-004
2.146383e+003, 5.613775e-004
2.148312e+003, 6.148685e-005
2.150240e+003, -1.027222e-003
2.152169e+003, -6.937352e-004
2.154097e+003, -3.137630e-004
2.156026e+003, -5.473853e-004
2.157954e+003, 1.084047e-003
2.159883e+003, 4.112524e-003
2.161811e+003, 3.642344e-003
2.163740e+003, 2.057686e-003
2.165668e+003, 2.654089e-003
2.167596e+003, 2.445338e-003
2.169525e+003, 1.825123e-003
2.171453e+003, 2.693650e-004
2.173382e+003, -5.723289e-004
2.175310e+003, -6.175283e-004
2.177239e+003, -9.979866e-005
2.179167e+003, -3.055949e-005
2.181096e+003, 8.354478e-004
2.183024e+003, 1.948057e-003
2.184953e+003, 1.257373e-003
2.186881e+003, 5.684332e-004
2.188810e+003, 1.234189e-003
2.190738e+003, 8.285844e-004
2.192667e+003, 1.244904e-004
2.194595e+003, 4.284061e-004
2.196523e+003, 9.298266e-004
2.198452e+003, 6.576737e-004
2.200380e+003, 4.264272e-004
2.202309e+003, 4.659896e-004
2.204237e+003, 7.978247e-004
2.206166e+003, 7.650864e-004
2.208094e+003, 3.783421e-004
2.210023e+003, 8.791864e-004
2.211951e+003, 1.416964e-003
2.213880e+003, 8.998880e-004
2.215808e+003, 6.096277e-004
2.217737e+003, 1.373612e-003
2.219665e+003, 2.258586e-003
2.221594e+003, 2.255963e-003
2.223522e+003, 1.791593e-003
2.225450e+003, 2.018993e-003
2.227379e+003, 1.757378e-003
2.229307e+003, 1.096357e-003
2.231236e+003, 1.120002e-003
2.233164e+003, 2.255420e-003
2.235093e+003, 3.074197e-003
2.237021e+003, 3.275380e-003
2.238950e+003, 3.361362e-003
2.240878e+003, 3.146175e-003
2.242807e+003, 3.277673e-003
2.244735e+003, 3.177326e-003
2.246664e+003, 2.673014e-003
2.248592e+003, 2.967102e-003
2.250521e+003, 3.232090e-003
2.252449e+003, 2.829210e-003
2.254377e+003, 3.444435e-003
2.256306e+003, 3.844774e-003
2.258234e+003, 3.920828e-003
2.260163e+003, 4.031820e-003
2.262091e+003, 3.573442e-003
2.264020e+003, 3.543094e-003
2.265948e+003, 3.878007e-003
2.267877e+003, 4.130647e-003
2.269805e+003, 4.119298e-003
2.271734e+003, 3.761639e-003
2.273662e+003, 4.260719e-003
2.275591e+003, 4.805832e-003
2.277519e+003, 4.825321e-003
2.279448e+003, 4.665253e-003
2.281376e+003, 4.838934e-003
2.283304e+003, 5.024545e-003
2.285233e+003, 5.352729e-003
2.287161e+003, 5.238432e-003
2.289090e+003, 4.920023e-003
2.291018e+003, 5.122727e-003
2.292947e+003, 5.218032e-003
2.294875e+003, 4.906006e-003
2.296804e+003, 4.387049e-003
2.298732e+003, 4.149762e-003
2.300661e+003, 4.557796e-003
2.302589e+003, 4.990617e-003
2.304518e+003, 4.883483e-003
2.306446e+003, 4.462749e-003
2.308375e+003, 4.320669e-003
2.310303e+003, 4.555351e-003
2.312231e+003, 4.614922e-003
2.314160e+003, 4.890128e-003
2.316088e+003, 5.203914e-003
2.318017e+003, 5.350252e-003
2.319945e+003, 5.461036e-003
2.321874e+003, 5.861083e-003
2.323802e+003, 5.982719e-003
2.325731e+003, 5.282179e-003
2.327659e+003, 4.669662e-003
2.329588e+003, 4.485829e-003
2.331516e+003, 4.304964e-003
2.333445e+003, 4.165340e-003
2.335373e+003, 4.356938e-003
2.337302e+003, 4.677626e-003
2.339230e+003, 4.957513e-003
2.341158e+003, 4.957172e-003
2.343087e+003, 4.909088e-003
2.345015e+003, 4.705688e-003
2.346944e+003, 4.484329e-003
2.348872e+003, 4.071403e-003
2.350801e+003, 4.002097e-003
2.352729e+003, 4.359004e-003
2.354658e+003, 4.640544e-003
2.356586e+003, 4.659938e-003
2.358515e+003, 4.727515e-003
2.360443e+003, 4.718669e-003
2.362372e+003, 4.598736e-003
2.364300e+003, 4.479034e-003
2.366229e+003, 4.510748e-003
2.368157e+003, 4.521790e-003
2.370085e+003, 4.315924e-003
2.372014e+003, 3.852923e-003
2.373942e+003, 3.592835e-003
2.375871e+003, 3.647843e-003
2.377799e+003, 3.671876e-003
2.379728e+003, 3.770138e-003
2.381656e+003, 3.793184e-003
2.383585e+003, 3.551745e-003
2.385513e+003, 3.429008e-003
2.387442e+003, 3.517654e-003
2.389370e+003, 3.616899e-003
2.391299e+003, 3.709731e-003
2.393227e+003, 3.747456e-003
2.395156e+003, 3.587061e-003
2.397084e+003, 3.376246e-003
2.399012e+003, 3.222489e-003
2.400941e+003, 3.326237e-003
2.402869e+003, 3.462518e-003
2.404798e+003, 3.695350e-003
2.406726e+003, 3.555278e-003
2.408655e+003, 3.491396e-003
2.410583e+003, 3.865783e-003
2.412512e+003, 3.928875e-003
2.414440e+003, 3.999303e-003
2.416369e+003, 4.003148e-003
2.418297e+003, 3.609500e-003
2.420226e+003, 3.397352e-003
2.422154e+003, 3.664041e-003
2.424083e+003, 4.312553e-003
2.426011e+003, 3.904744e-003
2.427939e+003, 3.588177e-003
2.429868e+003, 4.069118e-003
2.431796e+003, 4.353967e-003
2.433725e+003, 3.658167e-003
2.435653e+003, 3.081018e-003
2.437582e+003, 3.275232e-003
2.439510e+003, 3.828831e-003
2.441439e+003, 3.637937e-003
2.443367e+003, 3.411129e-003
2.445296e+003, 3.656399e-003
2.447224e+003, 3.503832e-003
2.449153e+003, 3.585835e-003
2.451081e+003, 4.018425e-003
2.453010e+003, 3.905035e-003
2.454938e+003, 3.177795e-003
2.456866e+003, 3.017199e-003
2.458795e+003, 3.412450e-003
2.460723e+003, 3.538824e-003
2.462652e+003, 3.032637e-003
2.464580e+003, 2.689258e-003
2.466509e+003, 3.139950e-003
2.468437e+003, 3.513730e-003
2.470366e+003, 3.263358e-003
2.472294e+003, 2.475306e-003
2.474223e+003, 1.980595e-003
2.476151e+003, 2.114419e-003
2.478080e+003, 2.448405e-003
2.480008e+003, 2.570829e-003
2.481937e+003, 2.626668e-003
2.483865e+003, 2.531390e-003
2.485793e+003, 2.271455e-003
2.487722e+003, 2.388224e-003
2.489650e+003, 3.080058e-003
2.491579e+003, 3.005715e-003
2.493507e+003, 2.535780e-003
2.495436e+003, 2.509826e-003
2.497364e+003, 2.314337e-003
2.499293e+003, 2.412488e-003
2.501221e+003, 2.616719e-003
2.503150e+003, 2.639214e-003
2.505078e+003, 2.950066e-003
2.507007e+003, 2.564969e-003
2.508935e+003, 1.911812e-003
2.510864e+003, 2.032236e-003
2.512792e+003, 2.450361e-003
2.514720e+003, 2.505808e-003
2.516649e+003, 2.532483e-003
2.518577e+003, 2.255627e-003
2.520506e+003, 1.930059e-003
2.522434e+003, 1.983125e-003
2.524363e+003, 2.085891e-003
2.526291e+003, 2.110478e-003
2.528220e+003, 2.148625e-003
2.530148e+003, 2.316097e-003
2.532077e+003, 2.406505e-003
2.534005e+003, 2.151087e-003
2.535934e+003, 1.716571e-003
2.537862e+003, 1.732136e-003
2.539791e+003, 2.140471e-003
2.541719e+003, 2.250807e-003
2.543647e+003, 2.254727e-003
2.545576e+003, 2.241251e-003
2.547504e+003, 2.163393e-003
2.549433e+003, 1.905417e-003
2.551361e+003, 1.984286e-003
2.553290e+003, 2.328750e-003
2.555218e+003, 2.364049e-003
2.557147e+003, 2.023732e-003
2.559075e+003, 1.683526e-003
2.561004e+003, 1.954672e-003
2.562932e+003, 1.866760e-003
2.564861e+003, 1.716088e-003
2.566789e+003, 1.835297e-003
2.568718e+003, 2.044049e-003
2.570646e+003, 2.222758e-003
2.572574e+003, 2.211217e-003
2.574503e+003, 2.184688e-003
2.576431e+003, 2.286600e-003
2.578360e+003, 2.395093e-003
2.580288e+003, 2.435886e-003
2.582217e+003, 2.394694e-003
2.584145e+003, 2.299891e-003
2.586074e+003, 2.597977e-003
2.588002e+003, 2.860478e-003
2.589931e+003, 2.764742e-003
2.591859e+003, 2.531064e-003
2.593788e+003, 2.411009e-003
2.595716e+003, 2.728667e-003
2.597645e+003, 3.090972e-003
2.599573e+003, 2.906587e-003
2.601501e+003, 2.929848e-003
2.603430e+003, 2.890886e-003
2.605358e+003, 2.968181e-003
2.607287e+003, 2.768346e-003
2.609215e+003, 2.788278e-003
2.611144e+003, 3.514169e-003
2.613072e+003, 3.888388e-003
2.615001e+003, 3.738535e-003
2.616929e+003, 3.872429e-003
2.618858e+003, 4.181392e-003
2.620786e+003, 4.329875e-003
2.622715e+003, 4.157513e-003
2.624643e+003, 3.863356e-003
2.626572e+003, 3.912595e-003
2.628500e+003, 4.132770e-003
2.630428e+003, 4.353205e-003
2.632357e+003, 4.230539e-003
2.634285e+003, 4.332745e-003
2.636214e+003, 4.676186e-003
2.638142e+003, 4.786193e-003
2.640071e+003, 4.748529e-003
2.641999e+003, 4.576507e-003
2.643928e+003, 4.655070e-003
2.645856e+003, 4.741406e-003
2.647785e+003, 4.526098e-003
2.649713e+003, 4.693730e-003
2.651642e+003, 4.897876e-003
2.653570e+003, 4.761710e-003
2.655499e+003, 4.802830e-003
2.657427e+003, 5.085867e-003
2.659355e+003, 5.075343e-003
2.661284e+003, 4.826489e-003
2.663212e+003, 4.558301e-003
2.665141e+003, 4.313868e-003
2.667069e+003, 4.242077e-003
2.668998e+003, 4.042201e-003
2.670926e+003, 3.969853e-003
2.672855e+003, 4.210220e-003
2.674783e+003, 4.338434e-003
2.676712e+003, 4.202113e-003
2.678640e+003, 4.139519e-003
2.680569e+003, 4.367881e-003
2.682497e+003, 4.427074e-003
2.684426e+003, 4.304234e-003
2.686354e+003, 4.293604e-003
2.688282e+003, 4.256940e-003
2.690211e+003, 4.193026e-003
2.692139e+003, 4.144047e-003
2.694068e+003, 4.310904e-003
2.695996e+003, 4.545797e-003
2.697925e+003, 4.432073e-003
2.699853e+003, 4.201749e-003
2.701782e+003, 4.489600e-003
2.703710e+003, 4.862941e-003
2.705639e+003, 4.811076e-003
2.707567e+003, 4.757884e-003
2.709496e+003, 4.757603e-003
2.711424e+003, 4.872340e-003
2.713353e+003, 5.070579e-003
2.715281e+003, 4.939331e-003
2.717209e+003, 4.888453e-003
2.719138e+003, 4.927502e-003
2.721066e+003, 4.939545e-003
2.722995e+003, 4.994895e-003
2.724923e+003, 5.132302e-003
2.726852e+003, 5.512052e-003
2.728780e+003, 5.422796e-003
2.730709e+003, 5.353773e-003
2.732637e+003, 5.601079e-003
2.734566e+003, 5.651589e-003
2.736494e+003, 5.454013e-003
2.738423e+003, 5.662998e-003
2.740351e+003, 5.718936e-003
2.742280e+003, 5.725829e-003
2.744208e+003, 5.874803e-003
2.746136e+003, 6.048587e-003
2.748065e+003, 6.113916e-003
2.749993e+003, 5.960813e-003
2.751922e+003, 5.946339e-003
2.753850e+003, 6.014632e-003
2.755779e+003, 5.977956e-003
2.757707e+003, 5.605925e-003
2.759636e+003, 5.644507e-003
2.761564e+003, 6.036685e-003
2.763493e+003, 6.160843e-003
2.765421e+003, 6.167313e-003
2.767350e+003, 6.133856e-003
2.769278e+003, 6.244786e-003
2.771207e+003, 6.446151e-003
2.773135e+003, 6.430713e-003
2.775063e+003, 6.557158e-003
2.776992e+003, 6.485978e-003
2.778920e+003, 6.356212e-003
2.780849e+003, 6.257658e-003
2.782777e+003, 6.211622e-003
2.784706e+003, 6.630683e-003
2.786634e+003, 7.060666e-003
2.788563e+003, 7.004630e-003
2.790491e+003, 6.973807e-003
2.792420e+003, 6.880033e-003
2.794348e+003, 6.880811e-003
2.796277e+003, 7.048578e-003
2.798205e+003, 7.182630e-003
2.800134e+003, 7.326313e-003
2.802062e+003, 7.134059e-003
2.803990e+003, 7.246847e-003
2.805919e+003, 7.472234e-003
2.807847e+003, 7.317161e-003
2.809776e+003, 7.177631e-003
2.811704e+003, 7.206766e-003
2.813633e+003, 7.261923e-003
2.815561e+003, 7.463092e-003
2.817490e+003, 7.774569e-003
2.819418e+003, 7.746466e-003
2.821347e+003, 7.829503e-003
2.823275e+003, 7.746500e-003
2.825204e+003, 7.639365e-003
2.827132e+003, 8.009343e-003
2.829061e+003, 8.316991e-003
2.830989e+003, 8.246391e-003
2.832917e+003, 8.128837e-003
2.834846e+003, 8.130621e-003
2.836774e+003, 8.476758e-003
2.838703e+003, 8.527739e-003
2.840631e+003, 8.573180e-003
2.842560e+003, 8.795688e-003
2.844488e+003, 8.829596e-003
2.846417e+003, 9.043379e-003
2.848345e+003, 9.311763e-003
2.850274e+003, 9.258167e-003
2.852202e+003, 9.356929e-003
2.854131e+003, 9.664134e-003
2.856059e+003, 9.585165e-003
2.857988e+003, 9.137229e-003
2.859916e+003, 9.033191e-003
2.861844e+003, 9.338883e-003
2.863773e+003, 9.584917e-003
2.865701e+003, 9.433154e-003
2.867630e+003, 9.255378e-003
2.869558e+003, 9.050552e-003
2.871487e+003, 9.272506e-003
2.873415e+003, 9.611267e-003
2.875344e+003, 9.534038e-003
2.877272e+003, 9.306972e-003
2.879201e+003, 9.037440e-003
2.881129e+003, 9.278847e-003
2.883058e+003, 9.479707e-003
2.884986e+003, 9.692696e-003
2.886915e+003, 9.748865e-003
2.888843e+003, 9.720108e-003
2.890771e+003, 9.703189e-003
2.892700e+003, 9.585299e-003
2.894628e+003, 9.643742e-003
2.896557e+003, 1.003934e-002
2.898485e+003, 1.051178e-002
2.900414e+003, 1.053568e-002
2.902342e+003, 1.046757e-002
2.904271e+003, 1.048971e-002
2.906199e+003, 1.084815e-002
2.908128e+003, 1.111958e-002
2.910056e+003, 1.134306e-002
2.911985e+003, 1.147835e-002
2.913913e+003, 1.156462e-002
2.915842e+003, 1.175435e-002
2.917770e+003, 1.230971e-002
2.919698e+003, 1.237073e-002
2.921627e+003, 1.247876e-002
2.923555e+003, 1.243353e-002
2.925484e+003, 1.252223e-002
2.927412e+003, 1.254768e-002
2.929341e+003, 1.246346e-002
2.931269e+003, 1.226988e-002
2.933198e+003, 1.198217e-002
2.935126e+003, 1.175089e-002
2.937055e+003, 1.149123e-002
2.938983e+003, 1.119054e-002
2.940912e+003, 1.097521e-002
2.942840e+003, 1.067023e-002
2.944769e+003, 1.072440e-002
2.946697e+003, 1.082244e-002
2.948625e+003, 1.094564e-002
2.950554e+003, 1.115429e-002
2.952482e+003, 1.126417e-002
2.954411e+003, 1.083872e-002
2.956339e+003, 1.086904e-002
2.958268e+003, 1.135194e-002
2.960196e+003, 1.154938e-002
2.962125e+003, 1.141951e-002
2.964053e+003, 1.108618e-002
2.965982e+003, 1.122509e-002
2.967910e+003, 1.144712e-002
2.969839e+003, 1.076203e-002
2.971767e+003, 1.013963e-002
2.973696e+003, 1.050986e-002
2.975624e+003, 1.047587e-002
2.977552e+003, 1.030080e-002
2.979481e+003, 1.036395e-002
2.981409e+003, 1.041542e-002
2.983338e+003, 1.049733e-002
2.985266e+003, 1.039040e-002
2.987195e+003, 1.018057e-002
2.989123e+003, 1.052392e-002
2.991052e+003, 1.052877e-002
2.992980e+003, 1.010489e-002
2.994909e+003, 1.036039e-002
2.996837e+003, 1.048671e-002
2.998766e+003, 1.054921e-002
3.000694e+003, 1.047755e-002
3.002623e+003, 1.025801e-002
3.004551e+003, 1.045410e-002
3.006479e+003, 1.074033e-002
3.008408e+003, 1.041806e-002
3.010336e+003, 1.033250e-002
3.012265e+003, 1.039873e-002
3.014193e+003, 1.115218e-002
3.016122e+003, 1.188930e-002
3.018050e+003, 1.137988e-002
3.019979e+003, 1.046752e-002
3.021907e+003, 1.047152e-002
3.023836e+003, 1.086643e-002
3.025764e+003, 1.097319e-002
3.027693e+003, 1.096818e-002
3.029621e+003, 1.113162e-002
3.031550e+003, 1.140134e-002
3.033478e+003, 1.155120e-002
3.035406e+003, 1.167061e-002
3.037335e+003, 1.188054e-002
3.039263e+003, 1.172221e-002
3.041192e+003, 1.143440e-002
3.043120e+003, 1.132425e-002
3.045049e+003, 1.145868e-002
3.046977e+003, 1.155316e-002
3.048906e+003, 1.127981e-002
3.050834e+003, 1.118596e-002
3.052763e+003, 1.151465e-002
3.054691e+003, 1.159200e-002
3.056620e+003, 1.163636e-002
3.058548e+003, 1.172022e-002
3.060477e+003, 1.168797e-002
3.062405e+003, 1.163162e-002
3.064333e+003, 1.170669e-002
3.066262e+003, 1.203291e-002
3.068190e+003, 1.207264e-002
3.070119e+003, 1.203409e-002
3.072047e+003, 1.221087e-002
3.073976e+003, 1.224028e-002
3.075904e+003, 1.189209e-002
3.077833e+003, 1.177602e-002
3.079761e+003, 1.208234e-002
3.081690e+003, 1.225296e-002
3.083618e+003, 1.231152e-002
3.085547e+003, 1.229987e-002
3.087475e+003, 1.244389e-002
3.089404e+003, 1.277451e-002
3.091332e+003, 1.329616e-002
3.093260e+003, 1.337987e-002
3.095189e+003, 1.322927e-002
3.097117e+003, 1.309105e-002
3.099046e+003, 1.303786e-002
3.100974e+003, 1.315393e-002
3.102903e+003, 1.333991e-002
3.104831e+003, 1.338711e-002
3.106760e+003, 1.356829e-002
3.108688e+003, 1.356042e-002
3.110617e+003, 1.343502e-002
3.112545e+003, 1.346392e-002
3.114474e+003, 1.317280e-002
3.116402e+003, 1.302232e-002
3.118331e+003, 1.331496e-002
3.120259e+003, 1.353605e-002
3.122188e+003, 1.376369e-002
3.124116e+003, 1.402031e-002
3.126044e+003, 1.402409e-002
3.127973e+003, 1.374277e-002
3.129901e+003, 1.367922e-002
3.131830e+003, 1.365689e-002
3.133758e+003, 1.389056e-002
3.135687e+003, 1.394817e-002
3.137615e+003, 1.368880e-002
3.139544e+003, 1.385015e-002
3.141472e+003, 1.441223e-002
3.143401e+003, 1.476843e-002
3.145329e+003, 1.474447e-002
3.147258e+003, 1.468915e-002
3.149186e+003, 1.443140e-002
3.151115e+003, 1.421082e-002
3.153043e+003, 1.422274e-002
3.154971e+003, 1.447636e-002
3.156900e+003, 1.500153e-002
3.158828e+003, 1.499108e-002
3.160757e+003, 1.529486e-002
3.162685e+003, 1.546480e-002
3.164614e+003, 1.526116e-002
3.166542e+003, 1.529353e-002
3.168471e+003, 1.511801e-002
3.170399e+003, 1.515477e-002
3.172328e+003, 1.492038e-002
3.174256e+003, 1.485413e-002
3.176185e+003, 1.495183e-002
3.178113e+003, 1.528791e-002
3.180042e+003, 1.542211e-002
3.181970e+003, 1.547513e-002
3.183898e+003, 1.572141e-002
3.185827e+003, 1.584182e-002
3.187755e+003, 1.605425e-002
3.189684e+003, 1.608273e-002
3.191612e+003, 1.562562e-002
3.193541e+003, 1.546026e-002
3.195469e+003, 1.590870e-002
3.197398e+003, 1.601158e-002
3.199326e+003, 1.593048e-002
3.201255e+003, 1.576022e-002
3.203183e+003, 1.554545e-002
3.205112e+003, 1.610062e-002
3.207040e+003, 1.633376e-002
3.208969e+003, 1.639173e-002
3.210897e+003, 1.659164e-002
3.212825e+003, 1.650752e-002
3.214754e+003, 1.616358e-002
3.216682e+003, 1.652001e-002
3.218611e+003, 1.700854e-002
3.220539e+003, 1.681370e-002
3.222468e+003, 1.661409e-002
3.224396e+003, 1.670215e-002
3.226325e+003, 1.659732e-002
3.228253e+003, 1.645382e-002
3.230182e+003, 1.620460e-002
3.232110e+003, 1.617252e-002
3.234039e+003, 1.638516e-002
3.235967e+003, 1.670104e-002
3.237896e+003, 1.673873e-002
3.239824e+003, 1.639717e-002
3.241752e+003, 1.627061e-002
3.243681e+003, 1.619665e-002
3.245609e+003, 1.645319e-002
3.247538e+003, 1.710688e-002
3.249466e+003, 1.729148e-002
3.251395e+003, 1.711805e-002
3.253323e+003, 1.721818e-002
3.255252e+003, 1.745708e-002
3.257180e+003, 1.727126e-002
3.259109e+003, 1.705027e-002
3.261037e+003, 1.695543e-002
3.262966e+003, 1.723384e-002
3.264894e+003, 1.765148e-002
3.266823e+003, 1.772170e-002
3.268751e+003, 1.754943e-002
3.270679e+003, 1.751168e-002
3.272608e+003, 1.718816e-002
3.274536e+003, 1.685083e-002
3.276465e+003, 1.714087e-002
3.278393e+003, 1.749879e-002
3.280322e+003, 1.734158e-002
3.282250e+003, 1.737782e-002
3.284179e+003, 1.764950e-002
3.286107e+003, 1.782738e-002
3.288036e+003, 1.750778e-002
3.289964e+003, 1.741671e-002
3.291893e+003, 1.735410e-002
3.293821e+003, 1.726460e-002
3.295750e+003, 1.744067e-002
3.297678e+003, 1.755137e-002
3.299606e+003, 1.771654e-002
3.301535e+003, 1.816161e-002
3.303463e+003, 1.824390e-002
3.305392e+003, 1.810909e-002
3.307320e+003, 1.829263e-002
3.309249e+003, 1.835766e-002
3.311177e+003, 1.831120e-002
3.313106e+003, 1.841498e-002
3.315034e+003, 1.837615e-002
3.316963e+003, 1.806013e-002
3.318891e+003, 1.828896e-002
3.320820e+003, 1.858853e-002
3.322748e+003, 1.875106e-002
3.324677e+003, 1.861047e-002
3.326605e+003, 1.820079e-002
3.328533e+003, 1.815256e-002
3.330462e+003, 1.797051e-002
3.332390e+003, 1.799159e-002
3.334319e+003, 1.822849e-002
3.336247e+003, 1.804478e-002
3.338176e+003, 1.810467e-002
3.340104e+003, 1.815822e-002
3.342033e+003, 1.784991e-002
3.343961e+003, 1.799512e-002
3.345890e+003, 1.833504e-002
3.347818e+003, 1.871529e-002
3.349747e+003, 1.849343e-002
3.351675e+003, 1.870537e-002
3.353604e+003, 1.900672e-002
3.355532e+003, 1.878413e-002
3.357460e+003, 1.856907e-002
3.359389e+003, 1.816590e-002
3.361317e+003, 1.787218e-002
3.363246e+003, 1.836077e-002
3.365174e+003, 1.877688e-002
3.367103e+003, 1.875120e-002
3.369031e+003, 1.867156e-002
3.370960e+003, 1.878980e-002
3.372888e+003, 1.917172e-002
3.374817e+003, 1.998440e-002
3.376745e+003, 1.975194e-002
3.378674e+003, 1.906576e-002
3.380602e+003, 1.913208e-002
3.382531e+003, 1.894415e-002
3.384459e+003, 1.921198e-002
3.386387e+003, 1.954429e-002
3.388316e+003, 1.962001e-002
3.390244e+003, 1.956020e-002
3.392173e+003, 1.948427e-002
3.394101e+003, 1.957153e-002
3.396030e+003, 1.948010e-002
3.397958e+003, 1.939279e-002
3.399887e+003, 1.946539e-002
3.401815e+003, 1.941346e-002
3.403744e+003, 1.948806e-002
3.405672e+003, 1.953062e-002
3.407601e+003, 1.950879e-002
3.409529e+003, 1.950285e-002
3.411458e+003, 1.947238e-002
3.413386e+003, 1.973557e-002
3.415314e+003, 2.047690e-002
3.417243e+003, 2.071722e-002
3.419171e+003, 2.026574e-002
3.421100e+003, 1.985743e-002
3.423028e+003, 2.025610e-002
3.424957e+003, 2.090444e-002
3.426885e+003, 2.144596e-002
3.428814e+003, 2.145637e-002
3.430742e+003, 2.121078e-002
3.432671e+003, 2.131703e-002
3.434599e+003, 2.172750e-002
3.436528e+003, 2.249903e-002
3.438456e+003, 2.276850e-002
3.440385e+003, 2.322193e-002
3.442313e+003, 2.315892e-002
3.444241e+003, 2.295790e-002
3.446170e+003, 2.283078e-002
3.448098e+003, 2.337002e-002
3.450027e+003, 2.418976e-002
3.451955e+003, 2.459895e-002
3.453884e+003, 2.464662e-002
3.455812e+003, 2.546231e-002
3.457741e+003, 2.659158e-002
3.459669e+003, 2.676763e-002
3.461598e+003, 2.765375e-002
3.463526e+003, 2.848148e-002
3.465455e+003, 2.943710e-002
3.467383e+003, 3.031584e-002
3.469312e+003, 3.105133e-002
3.471240e+003, 3.224803e-002
3.473168e+003, 3.322002e-002
3.475097e+003, 3.423559e-002
3.477025e+003, 3.531225e-002
3.478954e+003, 3.525804e-002
3.480882e+003, 3.520235e-002
3.482811e+003, 3.651430e-002
3.484739e+003, 3.791960e-002
3.486668e+003, 3.768648e-002
3.488596e+003, 3.744718e-002
3.490525e+003, 3.816020e-002
3.492453e+003, 3.828234e-002
3.494382e+003, 3.743308e-002
3.496310e+003, 3.608872e-002
3.498239e+003, 3.568181e-002
3.500167e+003, 3.484031e-002
3.502095e+003, 3.275091e-002
3.504024e+003, 3.093461e-002
3.505952e+003, 2.894042e-002
3.507881e+003, 2.730269e-002
3.509809e+003, 2.604072e-002
3.511738e+003, 2.444316e-002
3.513666e+003, 2.336703e-002
3.515595e+003, 2.189043e-002
3.517523e+003, 2.089103e-002
3.519452e+003, 2.013445e-002
3.521380e+003, 1.933030e-002
3.523309e+003, 1.965522e-002
3.525237e+003, 1.915172e-002
3.527166e+003, 1.889994e-002
3.529094e+003, 2.008526e-002
3.531022e+003, 2.059177e-002
3.532951e+003, 2.037045e-002
3.534879e+003, 2.035624e-002
3.536808e+003, 2.109090e-002
3.538736e+003, 2.173084e-002
3.540665e+003, 2.272327e-002
3.542593e+003, 2.405893e-002
3.544522e+003, 2.523458e-002
3.546450e+003, 2.654147e-002
3.548379e+003, 2.831304e-002
3.550307e+003, 2.975879e-002
3.552236e+003, 3.094083e-002
3.554164e+003, 3.189442e-002
3.556093e+003, 3.166234e-002
3.558021e+003, 3.151872e-002
3.559949e+003, 3.175679e-002
3.561878e+003, 3.198201e-002
3.563806e+003, 3.161165e-002
3.565735e+003, 3.064290e-002
3.567663e+003, 2.867333e-002
3.569592e+003, 2.618599e-002
3.571520e+003, 2.515061e-002
3.573449e+003, 2.442980e-002
3.575377e+003, 2.376592e-002
3.577306e+003, 2.349371e-002
3.579234e+003, 2.327639e-002
3.581163e+003, 2.431266e-002
3.583091e+003, 2.570176e-002
3.585020e+003, 2.723983e-002
3.586948e+003, 2.818467e-002
3.588876e+003, 2.821709e-002
3.590805e+003, 2.819756e-002
3.592733e+003, 2.856979e-002
3.594662e+003, 2.904938e-002
3.596590e+003, 2.836821e-002
3.598519e+003, 2.650318e-002
3.600447e+003, 2.468672e-002
3.602376e+003, 2.253888e-002
3.604304e+003, 1.901097e-002
3.606233e+003, 1.673881e-002
3.608161e+003, 1.619402e-002
3.610090e+003, 1.358766e-002
3.612018e+003, 1.121560e-002
3.613947e+003, 1.059526e-002
3.615875e+003, 1.039680e-002
3.617803e+003, 1.073995e-002
3.619732e+003, 1.074806e-002
3.621660e+003, 9.295008e-003
3.623589e+003, 8.891166e-003
3.625517e+003, 8.790277e-003
3.627446e+003, 9.489170e-003
3.629374e+003, 9.634397e-003
3.631303e+003, 8.795938e-003
3.633231e+003, 8.331191e-003
3.635160e+003, 8.248748e-003
3.637088e+003, 7.899032e-003
3.639017e+003, 7.851076e-003
3.640945e+003, 8.188626e-003
3.642874e+003, 8.549789e-003
3.644802e+003, 8.666339e-003
3.646730e+003, 8.743783e-003
3.648659e+003, 8.832734e-003
3.650587e+003, 8.576727e-003
3.652516e+003, 7.955438e-003
3.654444e+003, 7.633484e-003
3.656373e+003, 7.674238e-003
3.658301e+003, 7.016638e-003
3.660230e+003, 6.622629e-003
3.662158e+003, 7.076721e-003
3.664087e+003, 7.649263e-003
3.666015e+003, 7.334480e-003
3.667944e+003, 7.085943e-003
3.669872e+003, 8.457547e-003
3.671801e+003, 8.600032e-003
3.673729e+003, 8.354518e-003
3.675657e+003, 8.634335e-003
3.677586e+003, 7.178296e-003
3.679514e+003, 6.669959e-003
3.681443e+003, 6.972429e-003
3.683371e+003, 6.859845e-003
3.685300e+003, 6.365214e-003
3.687228e+003, 7.332026e-003
3.689157e+003, 7.705467e-003
3.691085e+003, 6.478347e-003
3.693014e+003, 5.993408e-003
3.694942e+003, 6.318847e-003
3.696871e+003, 6.422580e-003
3.698799e+003, 6.278614e-003
3.700728e+003, 5.997887e-003
3.702656e+003, 6.224849e-003
3.704584e+003, 6.130095e-003
3.706513e+003, 6.053724e-003
3.708441e+003, 6.749643e-003
3.710370e+003, 7.077954e-003
3.712298e+003, 6.883186e-003
3.714227e+003, 6.108161e-003
3.716155e+003, 5.889567e-003
3.718084e+003, 6.471463e-003
3.720012e+003, 6.544580e-003
3.721941e+003, 6.475985e-003
3.723869e+003, 7.053848e-003
3.725798e+003, 7.204508e-003
3.727726e+003, 6.901172e-003
3.729655e+003, 6.592724e-003
3.731583e+003, 6.999119e-003
3.733511e+003, 7.523086e-003
3.735440e+003, 7.479561e-003
3.737368e+003, 7.024155e-003
3.739297e+003, 6.849186e-003
3.741225e+003, 7.692424e-003
3.743154e+003, 8.222421e-003
3.745082e+003, 8.307322e-003
3.747011e+003, 7.867752e-003
3.748939e+003, 8.307694e-003
3.750868e+003, 8.545048e-003
3.752796e+003, 7.838958e-003
3.754725e+003, 6.932786e-003
3.756653e+003, 7.234089e-003
3.758582e+003, 7.021512e-003
3.760510e+003, 6.583657e-003
3.762438e+003, 6.185271e-003
3.764367e+003, 6.140465e-003
3.766295e+003, 6.451869e-003
3.768224e+003, 6.883770e-003
3.770152e+003, 6.900052e-003
3.772081e+003, 6.780562e-003
3.774009e+003, 6.866367e-003
3.775938e+003, 6.958428e-003
3.777866e+003, 7.137957e-003
3.779795e+003, 6.813429e-003
3.781723e+003, 5.747857e-003
3.783652e+003, 5.848006e-003
3.785580e+003, 6.508314e-003
3.787509e+003, 5.729877e-003
3.789437e+003, 5.172438e-003
3.791365e+003, 5.816982e-003
3.793294e+003, 6.263823e-003
3.795222e+003, 6.686501e-003
3.797151e+003, 6.969322e-003
3.799079e+003, 7.176631e-003
3.801008e+003, 7.908358e-003
3.802936e+003, 7.899313e-003
3.804865e+003, 7.125327e-003
3.806793e+003, 6.775768e-003
3.808722e+003, 6.443929e-003
3.810650e+003, 6.345384e-003
3.812579e+003, 6.287331e-003
3.814507e+003, 6.382341e-003
3.816436e+003, 6.502089e-003
3.818364e+003, 6.249330e-003
3.820292e+003, 7.096982e-003
3.822221e+003, 7.187931e-003
3.824149e+003, 6.412766e-003
3.826078e+003, 7.095583e-003
3.828006e+003, 7.379267e-003
3.829935e+003, 6.885423e-003
3.831863e+003, 6.545325e-003
3.833792e+003, 6.870893e-003
3.835720e+003, 7.743516e-003
3.837649e+003, 7.580429e-003
3.839577e+003, 6.538894e-003
3.841506e+003, 6.074150e-003
3.843434e+003, 6.299598e-003
3.845363e+003, 6.582977e-003
3.847291e+003, 6.210948e-003
3.849219e+003, 6.814551e-003
3.851148e+003, 8.527121e-003
3.853076e+003, 1.057562e-002
3.855005e+003, 9.168177e-003
3.856933e+003, 7.161697e-003
3.858862e+003, 6.511410e-003
3.860790e+003, 6.971644e-003
3.862719e+003, 7.502652e-003
3.864647e+003, 7.346123e-003
3.866576e+003, 6.393855e-003
3.868504e+003, 7.093396e-003
3.870433e+003, 7.126936e-003
3.872361e+003, 5.871414e-003
3.874290e+003, 6.216773e-003
3.876218e+003, 6.416721e-003
3.878146e+003, 7.171948e-003
3.880075e+003, 7.784511e-003
3.882003e+003, 7.305921e-003
3.883932e+003, 7.756553e-003
3.885860e+003, 7.429952e-003
3.887789e+003, 6.265681e-003
3.889717e+003, 7.022487e-003
3.891646e+003, 7.968342e-003
3.893574e+003, 6.655737e-003
3.895503e+003, 5.912012e-003
3.897431e+003, 6.514011e-003
3.899360e+003, 6.851365e-003
3.901288e+003, 7.082553e-003
3.903217e+003, 7.169825e-003
3.905145e+003, 6.602750e-003
3.907073e+003, 6.295431e-003
3.909002e+003, 7.091605e-003
3.910930e+003, 7.480981e-003
3.912859e+003, 7.047565e-003
3.914787e+003, 6.516572e-003
3.916716e+003, 6.595479e-003
3.918644e+003, 6.293620e-003
3.920573e+003, 6.092811e-003
3.922501e+003, 5.966677e-003
3.924430e+003, 6.776363e-003
3.926358e+003, 7.033362e-003
3.928287e+003, 6.823929e-003
3.930215e+003, 7.047349e-003
3.932144e+003, 6.649733e-003
3.934072e+003, 6.097194e-003
3.936000e+003, 6.545895e-003
3.937929e+003, 6.817775e-003
3.939857e+003, 6.541440e-003
3.941786e+003, 6.263972e-003
3.943714e+003, 6.728107e-003
3.945643e+003, 6.852939e-003
3.947571e+003, 6.879413e-003
3.949500e+003, 6.558533e-003
3.951428e+003, 6.457277e-003
3.953357e+003, 7.063397e-003
3.955285e+003, 7.051590e-003
3.957214e+003, 6.478065e-003
3.959142e+003, 6.639522e-003
3.961071e+003, 6.950314e-003
3.962999e+003, 6.881980e-003
3.964927e+003, 6.829551e-003
3.966856e+003, 7.074515e-003
3.968784e+003, 6.955570e-003
3.970713e+003, 6.816293e-003
3.972641e+003, 7.249830e-003
3.974570e+003, 7.148098e-003
3.976498e+003, 6.536460e-003
3.978427e+003, 6.197891e-003
3.980355e+003, 6.408059e-003
3.982284e+003, 6.143010e-003
3.984212e+003, 5.828070e-003
3.986141e+003, 5.699318e-003
3.988069e+003, 6.589669e-003
3.989998e+003, 6.916044e-003
3.991926e+003, 6.169651e-003
3.993854e+003, 6.427115e-003
3.995783e+003, 6.864313e-003
3.997711e+003, 6.640906e-003
##END=



