##NAMES=Enstatite
##RRUFFID=R040094
##IDEAL CHEMISTRY=MgSiO_3_
##LOCALITY=unknown
##OWNER=RRUFF
##SOURCE=University of Arizona Mineral Museum
##DESCRIPTION=Dark green massive, associated with anthophyllite
##STATUS=The identification of this mineral has been confirmed by X-ray diffraction and chemical analysis
##URL=rruff.info/R040094
##MEASURED CHEMISTRY=(Mg_0.84_Fe_0.15_)(Si_0.99_Al_0.01_)O_3_; = Enstatite :  [box](Mg_0.83_Fe_0.14_Na_0.01_Ca_0.01_)_7_(Si_0.99_Al_0.01_)_8_O_22_(OH)_2_ = Anthophyllite
3.991926e+002, 0.000000e+000
4.011211e+002, 4.568583e-001
4.030496e+002, 4.590497e-001
4.049780e+002, 4.853348e-001
4.069065e+002, 4.965133e-001
4.088350e+002, 4.714317e-001
4.107634e+002, 4.614675e-001
4.126919e+002, 4.561004e-001
4.146204e+002, 4.436935e-001
4.165488e+002, 4.431556e-001
4.184773e+002, 4.474042e-001
4.204058e+002, 4.377111e-001
4.223342e+002, 4.402697e-001
4.242627e+002, 4.507705e-001
4.261912e+002, 4.501441e-001
4.281196e+002, 4.407164e-001
4.300481e+002, 4.426064e-001
4.319766e+002, 4.422701e-001
4.339050e+002, 4.344874e-001
4.358335e+002, 4.329348e-001
4.377620e+002, 4.224641e-001
4.396904e+002, 4.124143e-001
4.416189e+002, 4.062815e-001
4.435474e+002, 3.956439e-001
4.454758e+002, 3.920255e-001
4.474043e+002, 3.846726e-001
4.493328e+002, 3.713404e-001
4.512612e+002, 3.621243e-001
4.531897e+002, 3.505781e-001
4.551182e+002, 3.361340e-001
4.570466e+002, 3.236144e-001
4.589751e+002, 3.123196e-001
4.609036e+002, 2.979937e-001
4.628320e+002, 2.880149e-001
4.647605e+002, 2.778191e-001
4.666890e+002, 2.643158e-001
4.686174e+002, 2.519068e-001
4.705459e+002, 2.423268e-001
4.724744e+002, 2.364707e-001
4.744028e+002, 2.310994e-001
4.763313e+002, 2.294589e-001
4.782598e+002, 2.325370e-001
4.801882e+002, 2.363340e-001
4.821167e+002, 2.425781e-001
4.840452e+002, 2.493871e-001
4.859736e+002, 2.545488e-001
4.879021e+002, 2.572889e-001
4.898306e+002, 2.595074e-001
4.917590e+002, 2.611486e-001
4.936875e+002, 2.601779e-001
4.956160e+002, 2.584283e-001
4.975444e+002, 2.570085e-001
4.994729e+002, 2.558038e-001
5.014014e+002, 2.561078e-001
5.033298e+002, 2.574638e-001
5.052583e+002, 2.587466e-001
5.071868e+002, 2.606827e-001
5.091152e+002, 2.614963e-001
5.110437e+002, 2.638731e-001
5.129722e+002, 2.671370e-001
5.149006e+002, 2.696277e-001
5.168291e+002, 2.712938e-001
5.187576e+002, 2.736232e-001
5.206860e+002, 2.763021e-001
5.226145e+002, 2.805437e-001
5.245430e+002, 2.842197e-001
5.264714e+002, 2.889842e-001
5.283999e+002, 2.993494e-001
5.303284e+002, 3.149096e-001
5.322568e+002, 3.310415e-001
5.341853e+002, 3.439474e-001
5.361138e+002, 3.546873e-001
5.380422e+002, 3.616306e-001
5.399707e+002, 3.704490e-001
5.418992e+002, 3.796211e-001
5.438276e+002, 3.875784e-001
5.457561e+002, 3.963607e-001
5.476846e+002, 4.042541e-001
5.496130e+002, 4.103249e-001
5.515415e+002, 4.156045e-001
5.534700e+002, 4.211816e-001
5.553984e+002, 4.250081e-001
5.573269e+002, 4.266109e-001
5.592554e+002, 4.299681e-001
5.611838e+002, 4.318528e-001
5.631123e+002, 4.310123e-001
5.650408e+002, 4.297738e-001
5.669692e+002, 4.286738e-001
5.688977e+002, 4.281130e-001
5.708262e+002, 4.261639e-001
5.727546e+002, 4.262072e-001
5.746831e+002, 4.280014e-001
5.766116e+002, 4.280443e-001
5.785400e+002, 4.271468e-001
5.804685e+002, 4.275122e-001
5.823970e+002, 4.283345e-001
5.843254e+002, 4.256879e-001
5.862539e+002, 4.216279e-001
5.881824e+002, 4.191248e-001
5.901108e+002, 4.160221e-001
5.920393e+002, 4.111262e-001
5.939678e+002, 4.062645e-001
5.958962e+002, 4.010808e-001
5.978247e+002, 3.962329e-001
5.997532e+002, 3.926721e-001
6.016816e+002, 3.891769e-001
6.036101e+002, 3.847192e-001
6.055386e+002, 3.808473e-001
6.074670e+002, 3.764445e-001
6.093955e+002, 3.710809e-001
6.113240e+002, 3.660467e-001
6.132524e+002, 3.604174e-001
6.151809e+002, 3.530208e-001
6.171094e+002, 3.461196e-001
6.190378e+002, 3.412821e-001
6.209663e+002, 3.366997e-001
6.228948e+002, 3.332575e-001
6.248232e+002, 3.310141e-001
6.267517e+002, 3.316053e-001
6.286802e+002, 3.361236e-001
6.306086e+002, 3.431601e-001
6.325371e+002, 3.506748e-001
6.344656e+002, 3.558774e-001
6.363940e+002, 3.570886e-001
6.383225e+002, 3.554995e-001
6.402510e+002, 3.513012e-001
6.421794e+002, 3.452065e-001
6.441079e+002, 3.383535e-001
6.460364e+002, 3.312103e-001
6.479648e+002, 3.247306e-001
6.498933e+002, 3.191438e-001
6.518218e+002, 3.137645e-001
6.537502e+002, 3.086267e-001
6.556787e+002, 3.038955e-001
6.576072e+002, 3.001409e-001
6.595356e+002, 2.966056e-001
6.614641e+002, 2.924245e-001
6.633926e+002, 2.884856e-001
6.653210e+002, 2.854570e-001
6.672495e+002, 2.825189e-001
6.691780e+002, 2.792749e-001
6.711064e+002, 2.762770e-001
6.730349e+002, 2.732563e-001
6.749634e+002, 2.705795e-001
6.768918e+002, 2.678947e-001
6.788203e+002, 2.645866e-001
6.807488e+002, 2.612852e-001
6.826772e+002, 2.588700e-001
6.846057e+002, 2.567416e-001
6.865342e+002, 2.537508e-001
6.884626e+002, 2.503054e-001
6.903911e+002, 2.469049e-001
6.923196e+002, 2.428821e-001
6.942480e+002, 2.386437e-001
6.961765e+002, 2.348701e-001
6.981050e+002, 2.318625e-001
7.000334e+002, 2.290837e-001
7.019619e+002, 2.266022e-001
7.038904e+002, 2.252122e-001
7.058188e+002, 2.243124e-001
7.077473e+002, 2.227906e-001
7.096758e+002, 2.210885e-001
7.116042e+002, 2.194505e-001
7.135327e+002, 2.171772e-001
7.154612e+002, 2.145916e-001
7.173896e+002, 2.125037e-001
7.193181e+002, 2.107977e-001
7.212466e+002, 2.086433e-001
7.231750e+002, 2.058013e-001
7.251035e+002, 2.025613e-001
7.270320e+002, 1.991194e-001
7.289604e+002, 1.959811e-001
7.308889e+002, 1.936836e-001
7.328174e+002, 1.915720e-001
7.347458e+002, 1.892679e-001
7.366743e+002, 1.870778e-001
7.386028e+002, 1.853919e-001
7.405313e+002, 1.839710e-001
7.424597e+002, 1.820696e-001
7.443882e+002, 1.798716e-001
7.463167e+002, 1.773885e-001
7.482451e+002, 1.754168e-001
7.501736e+002, 1.739937e-001
7.521021e+002, 1.726220e-001
7.540305e+002, 1.710735e-001
7.559590e+002, 1.696726e-001
7.578875e+002, 1.683602e-001
7.598159e+002, 1.673630e-001
7.617444e+002, 1.665025e-001
7.636729e+002, 1.656819e-001
7.656013e+002, 1.647112e-001
7.675298e+002, 1.639703e-001
7.694583e+002, 1.633504e-001
7.713867e+002, 1.624245e-001
7.733152e+002, 1.615369e-001
7.752437e+002, 1.606992e-001
7.771721e+002, 1.593394e-001
7.791006e+002, 1.575843e-001
7.810291e+002, 1.556192e-001
7.829575e+002, 1.537345e-001
7.848860e+002, 1.522893e-001
7.868145e+002, 1.507181e-001
7.887429e+002, 1.490682e-001
7.906714e+002, 1.478014e-001
7.925999e+002, 1.465960e-001
7.945283e+002, 1.454730e-001
7.964568e+002, 1.440923e-001
7.983853e+002, 1.426748e-001
8.003137e+002, 1.417621e-001
8.022422e+002, 1.408257e-001
8.041707e+002, 1.400232e-001
8.060991e+002, 1.390698e-001
8.080276e+002, 1.381499e-001
8.099561e+002, 1.371552e-001
8.118845e+002, 1.360485e-001
8.138130e+002, 1.353008e-001
8.157415e+002, 1.345145e-001
8.176699e+002, 1.337584e-001
8.195984e+002, 1.329606e-001
8.215269e+002, 1.319692e-001
8.234553e+002, 1.310051e-001
8.253838e+002, 1.303987e-001
8.273123e+002, 1.298121e-001
8.292407e+002, 1.289562e-001
8.311692e+002, 1.283171e-001
8.330977e+002, 1.277274e-001
8.350261e+002, 1.270700e-001
8.369546e+002, 1.266104e-001
8.388831e+002, 1.262246e-001
8.408115e+002, 1.257832e-001
8.427400e+002, 1.257293e-001
8.446685e+002, 1.259382e-001
8.465969e+002, 1.257121e-001
8.485254e+002, 1.254569e-001
8.504539e+002, 1.252524e-001
8.523823e+002, 1.247070e-001
8.543108e+002, 1.238849e-001
8.562393e+002, 1.231297e-001
8.581677e+002, 1.221592e-001
8.600962e+002, 1.209129e-001
8.620247e+002, 1.193438e-001
8.639531e+002, 1.174564e-001
8.658816e+002, 1.155136e-001
8.678101e+002, 1.136958e-001
8.697385e+002, 1.118654e-001
8.716670e+002, 1.095131e-001
8.735955e+002, 1.065892e-001
8.755239e+002, 1.036234e-001
8.774524e+002, 1.007057e-001
8.793809e+002, 9.773876e-002
8.813093e+002, 9.492587e-002
8.832378e+002, 9.239177e-002
8.851663e+002, 9.016515e-002
8.870947e+002, 8.851545e-002
8.890232e+002, 8.766370e-002
8.909517e+002, 8.708713e-002
8.928801e+002, 8.703216e-002
8.948085e+002, 8.738487e-002
8.967370e+002, 8.758239e-002
8.986655e+002, 8.753842e-002
9.005939e+002, 8.751836e-002
9.025224e+002, 8.712737e-002
9.044509e+002, 8.609596e-002
9.063793e+002, 8.491333e-002
9.083078e+002, 8.433494e-002
9.102363e+002, 8.475705e-002
9.121647e+002, 8.630420e-002
9.140932e+002, 8.861423e-002
9.160217e+002, 9.137264e-002
9.179501e+002, 9.475414e-002
9.198786e+002, 9.844047e-002
9.218071e+002, 1.021605e-001
9.237355e+002, 1.059236e-001
9.256640e+002, 1.092183e-001
9.275925e+002, 1.119041e-001
9.295209e+002, 1.142101e-001
9.314494e+002, 1.164213e-001
9.333779e+002, 1.184501e-001
9.353063e+002, 1.203062e-001
9.372348e+002, 1.222581e-001
9.391633e+002, 1.238090e-001
9.410917e+002, 1.245090e-001
9.430202e+002, 1.249278e-001
9.449487e+002, 1.250521e-001
9.468771e+002, 1.244504e-001
9.488056e+002, 1.235355e-001
9.507341e+002, 1.220988e-001
9.526625e+002, 1.200028e-001
9.545910e+002, 1.176166e-001
9.565195e+002, 1.152088e-001
9.584479e+002, 1.130220e-001
9.603764e+002, 1.111896e-001
9.623049e+002, 1.097106e-001
9.642333e+002, 1.086486e-001
9.661618e+002, 1.085348e-001
9.680903e+002, 1.089140e-001
9.700187e+002, 1.093179e-001
9.719472e+002, 1.090003e-001
9.738757e+002, 1.073252e-001
9.758041e+002, 1.045791e-001
9.777326e+002, 1.011933e-001
9.796611e+002, 9.778257e-002
9.815895e+002, 9.467918e-002
9.835180e+002, 9.175090e-002
9.854465e+002, 8.928946e-002
9.873749e+002, 8.768570e-002
9.893034e+002, 8.659186e-002
9.912319e+002, 8.594536e-002
9.931603e+002, 8.640608e-002
9.950888e+002, 8.777814e-002
9.970173e+002, 8.951147e-002
9.989457e+002, 9.137265e-002
1.000874e+003, 9.296899e-002
1.002803e+003, 9.457508e-002
1.004731e+003, 9.591413e-002
1.006660e+003, 9.667990e-002
1.008588e+003, 9.703452e-002
1.010517e+003, 9.717247e-002
1.012445e+003, 9.700099e-002
1.014373e+003, 9.647972e-002
1.016302e+003, 9.594243e-002
1.018230e+003, 9.566259e-002
1.020159e+003, 9.526849e-002
1.022087e+003, 9.500346e-002
1.024016e+003, 9.502304e-002
1.025944e+003, 9.498993e-002
1.027873e+003, 9.477121e-002
1.029801e+003, 9.441914e-002
1.031730e+003, 9.383553e-002
1.033658e+003, 9.319997e-002
1.035587e+003, 9.271175e-002
1.037515e+003, 9.260536e-002
1.039444e+003, 9.292129e-002
1.041372e+003, 9.397535e-002
1.043301e+003, 9.561548e-002
1.045229e+003, 9.777473e-002
1.047157e+003, 1.003286e-001
1.049086e+003, 1.031794e-001
1.051014e+003, 1.062746e-001
1.052943e+003, 1.090455e-001
1.054871e+003, 1.115784e-001
1.056800e+003, 1.138121e-001
1.058728e+003, 1.155484e-001
1.060657e+003, 1.166135e-001
1.062585e+003, 1.169670e-001
1.064514e+003, 1.168149e-001
1.066442e+003, 1.162956e-001
1.068371e+003, 1.151319e-001
1.070299e+003, 1.131823e-001
1.072228e+003, 1.113302e-001
1.074156e+003, 1.094710e-001
1.076084e+003, 1.072987e-001
1.078013e+003, 1.048803e-001
1.079941e+003, 1.022327e-001
1.081870e+003, 9.973443e-002
1.083798e+003, 9.746747e-002
1.085727e+003, 9.493717e-002
1.087655e+003, 9.249776e-002
1.089584e+003, 9.023533e-002
1.091512e+003, 8.798140e-002
1.093441e+003, 8.572283e-002
1.095369e+003, 8.360372e-002
1.097298e+003, 8.125107e-002
1.099226e+003, 7.861061e-002
1.101155e+003, 7.579540e-002
1.103083e+003, 7.277799e-002
1.105011e+003, 6.988345e-002
1.106940e+003, 6.714365e-002
1.108868e+003, 6.421834e-002
1.110797e+003, 6.136371e-002
1.112725e+003, 5.878208e-002
1.114654e+003, 5.646202e-002
1.116582e+003, 5.452020e-002
1.118511e+003, 5.299130e-002
1.120439e+003, 5.183773e-002
1.122368e+003, 5.024166e-002
1.124296e+003, 4.845258e-002
1.126225e+003, 4.653580e-002
1.128153e+003, 4.401883e-002
1.130082e+003, 4.154450e-002
1.132010e+003, 3.936026e-002
1.133938e+003, 3.754514e-002
1.135867e+003, 3.624419e-002
1.137795e+003, 3.523614e-002
1.139724e+003, 3.450162e-002
1.141652e+003, 3.372548e-002
1.143581e+003, 3.286498e-002
1.145509e+003, 3.170673e-002
1.147438e+003, 3.060216e-002
1.149366e+003, 2.955345e-002
1.151295e+003, 2.858536e-002
1.153223e+003, 2.791903e-002
1.155152e+003, 2.718640e-002
1.157080e+003, 2.651673e-002
1.159009e+003, 2.600971e-002
1.160937e+003, 2.565230e-002
1.162865e+003, 2.525512e-002
1.164794e+003, 2.470060e-002
1.166722e+003, 2.414266e-002
1.168651e+003, 2.364232e-002
1.170579e+003, 2.308548e-002
1.172508e+003, 2.251573e-002
1.174436e+003, 2.203452e-002
1.176365e+003, 2.191480e-002
1.178293e+003, 2.145452e-002
1.180222e+003, 2.070183e-002
1.182150e+003, 2.006803e-002
1.184079e+003, 1.983848e-002
1.186007e+003, 1.961466e-002
1.187936e+003, 1.923743e-002
1.189864e+003, 1.894032e-002
1.191792e+003, 1.858936e-002
1.193721e+003, 1.811600e-002
1.195649e+003, 1.782181e-002
1.197578e+003, 1.742396e-002
1.199506e+003, 1.715046e-002
1.201435e+003, 1.681391e-002
1.203363e+003, 1.631144e-002
1.205292e+003, 1.589429e-002
1.207220e+003, 1.550298e-002
1.209149e+003, 1.496926e-002
1.211077e+003, 1.452318e-002
1.213006e+003, 1.411578e-002
1.214934e+003, 1.380430e-002
1.216863e+003, 1.332414e-002
1.218791e+003, 1.290076e-002
1.220719e+003, 1.260315e-002
1.222648e+003, 1.213823e-002
1.224576e+003, 1.186041e-002
1.226505e+003, 1.164933e-002
1.228433e+003, 1.116561e-002
1.230362e+003, 1.089163e-002
1.232290e+003, 1.059851e-002
1.234219e+003, 1.017238e-002
1.236147e+003, 9.887986e-003
1.238076e+003, 9.680318e-003
1.240004e+003, 9.497814e-003
1.241933e+003, 9.207393e-003
1.243861e+003, 8.869307e-003
1.245790e+003, 8.641981e-003
1.247718e+003, 8.462307e-003
1.249646e+003, 8.253261e-003
1.251575e+003, 8.103275e-003
1.253503e+003, 8.039793e-003
1.255432e+003, 7.816723e-003
1.257360e+003, 7.645090e-003
1.259289e+003, 7.501324e-003
1.261217e+003, 7.409677e-003
1.263146e+003, 7.344913e-003
1.265074e+003, 7.316418e-003
1.267003e+003, 7.129272e-003
1.268931e+003, 7.048097e-003
1.270860e+003, 7.013160e-003
1.272788e+003, 6.964129e-003
1.274717e+003, 7.022460e-003
1.276645e+003, 7.083647e-003
1.278573e+003, 7.091108e-003
1.280502e+003, 7.098479e-003
1.282430e+003, 6.831155e-003
1.284359e+003, 6.739377e-003
1.286287e+003, 6.848037e-003
1.288216e+003, 6.861158e-003
1.290144e+003, 6.715121e-003
1.292073e+003, 6.634957e-003
1.294001e+003, 6.621616e-003
1.295930e+003, 6.685199e-003
1.297858e+003, 6.698144e-003
1.299787e+003, 6.569809e-003
1.301715e+003, 6.399615e-003
1.303644e+003, 6.295595e-003
1.305572e+003, 6.262666e-003
1.307500e+003, 6.261369e-003
1.309429e+003, 6.367241e-003
1.311357e+003, 6.273225e-003
1.313286e+003, 5.991280e-003
1.315214e+003, 5.931612e-003
1.317143e+003, 5.966367e-003
1.319071e+003, 6.107125e-003
1.321000e+003, 6.131968e-003
1.322928e+003, 6.033787e-003
1.324857e+003, 5.982567e-003
1.326785e+003, 5.974215e-003
1.328714e+003, 6.047039e-003
1.330642e+003, 6.071992e-003
1.332571e+003, 6.025060e-003
1.334499e+003, 6.056923e-003
1.336427e+003, 6.131409e-003
1.338356e+003, 6.186917e-003
1.340284e+003, 6.113898e-003
1.342213e+003, 6.039497e-003
1.344141e+003, 5.965994e-003
1.346070e+003, 5.901346e-003
1.347998e+003, 6.132395e-003
1.349927e+003, 6.296969e-003
1.351855e+003, 6.207874e-003
1.353784e+003, 6.201978e-003
1.355712e+003, 6.282855e-003
1.357641e+003, 6.328464e-003
1.359569e+003, 6.339579e-003
1.361498e+003, 6.344095e-003
1.363426e+003, 6.207082e-003
1.365354e+003, 6.206743e-003
1.367283e+003, 6.328796e-003
1.369211e+003, 6.609396e-003
1.371140e+003, 6.765978e-003
1.373068e+003, 7.095879e-003
1.374997e+003, 7.590302e-003
1.376925e+003, 7.899054e-003
1.378854e+003, 7.657287e-003
1.380782e+003, 7.219079e-003
1.382711e+003, 7.098821e-003
1.384639e+003, 7.078530e-003
1.386568e+003, 7.112204e-003
1.388496e+003, 7.208980e-003
1.390424e+003, 7.375087e-003
1.392353e+003, 7.397758e-003
1.394281e+003, 7.421011e-003
1.396210e+003, 7.551468e-003
1.398138e+003, 7.880064e-003
1.400067e+003, 7.779518e-003
1.401995e+003, 7.829456e-003
1.403924e+003, 7.901560e-003
1.405852e+003, 7.843969e-003
1.407781e+003, 7.779387e-003
1.409709e+003, 7.889315e-003
1.411638e+003, 8.088014e-003
1.413566e+003, 8.277813e-003
1.415495e+003, 8.460273e-003
1.417423e+003, 8.413141e-003
1.419351e+003, 8.350006e-003
1.421280e+003, 8.427466e-003
1.423208e+003, 8.421498e-003
1.425137e+003, 8.467786e-003
1.427065e+003, 8.463077e-003
1.428994e+003, 8.393328e-003
1.430922e+003, 8.312078e-003
1.432851e+003, 8.433538e-003
1.434779e+003, 8.620149e-003
1.436708e+003, 8.595408e-003
1.438636e+003, 8.480644e-003
1.440565e+003, 8.754130e-003
1.442493e+003, 8.947764e-003
1.444422e+003, 8.812809e-003
1.446350e+003, 8.644274e-003
1.448278e+003, 8.705395e-003
1.450207e+003, 8.952233e-003
1.452135e+003, 9.140839e-003
1.454064e+003, 9.067587e-003
1.455992e+003, 8.953971e-003
1.457921e+003, 8.741953e-003
1.459849e+003, 8.938371e-003
1.461778e+003, 9.003888e-003
1.463706e+003, 8.661047e-003
1.465635e+003, 8.548091e-003
1.467563e+003, 8.598977e-003
1.469492e+003, 8.333235e-003
1.471420e+003, 8.109795e-003
1.473349e+003, 8.005223e-003
1.475277e+003, 8.013964e-003
1.477205e+003, 7.909697e-003
1.479134e+003, 7.650945e-003
1.481062e+003, 7.537066e-003
1.482991e+003, 7.627857e-003
1.484919e+003, 7.669340e-003
1.486848e+003, 7.620838e-003
1.488776e+003, 7.562498e-003
1.490705e+003, 7.495211e-003
1.492633e+003, 7.444601e-003
1.494562e+003, 7.368990e-003
1.496490e+003, 7.321198e-003
1.498419e+003, 7.354631e-003
1.500347e+003, 7.466233e-003
1.502276e+003, 7.643842e-003
1.504204e+003, 7.692724e-003
1.506132e+003, 7.335945e-003
1.508061e+003, 7.272801e-003
1.509989e+003, 7.328930e-003
1.511918e+003, 7.429218e-003
1.513846e+003, 7.567391e-003
1.515775e+003, 7.521036e-003
1.517703e+003, 7.422983e-003
1.519632e+003, 7.471181e-003
1.521560e+003, 7.285427e-003
1.523489e+003, 7.332545e-003
1.525417e+003, 7.095556e-003
1.527346e+003, 6.911535e-003
1.529274e+003, 7.034298e-003
1.531203e+003, 7.031824e-003
1.533131e+003, 6.968684e-003
1.535059e+003, 7.143122e-003
1.536988e+003, 7.165346e-003
1.538916e+003, 6.978023e-003
1.540845e+003, 6.956643e-003
1.542773e+003, 7.135224e-003
1.544702e+003, 7.273888e-003
1.546630e+003, 7.219460e-003
1.548559e+003, 7.214262e-003
1.550487e+003, 7.014512e-003
1.552416e+003, 7.101036e-003
1.554344e+003, 7.129942e-003
1.556273e+003, 7.178284e-003
1.558201e+003, 7.078036e-003
1.560130e+003, 6.782270e-003
1.562058e+003, 6.856586e-003
1.563986e+003, 6.897830e-003
1.565915e+003, 6.866927e-003
1.567843e+003, 6.980451e-003
1.569772e+003, 6.965907e-003
1.571700e+003, 6.923784e-003
1.573629e+003, 6.976378e-003
1.575557e+003, 7.156764e-003
1.577486e+003, 7.228409e-003
1.579414e+003, 7.254382e-003
1.581343e+003, 7.082127e-003
1.583271e+003, 6.968778e-003
1.585200e+003, 7.149187e-003
1.587128e+003, 7.375064e-003
1.589057e+003, 7.489344e-003
1.590985e+003, 7.502244e-003
1.592913e+003, 7.418349e-003
1.594842e+003, 7.413627e-003
1.596770e+003, 7.641710e-003
1.598699e+003, 7.673011e-003
1.600627e+003, 7.456821e-003
1.602556e+003, 7.437400e-003
1.604484e+003, 7.484026e-003
1.606413e+003, 7.493694e-003
1.608341e+003, 7.628533e-003
1.610270e+003, 7.742623e-003
1.612198e+003, 7.445761e-003
1.614127e+003, 7.232388e-003
1.616055e+003, 7.491234e-003
1.617984e+003, 7.578820e-003
1.619912e+003, 7.583186e-003
1.621840e+003, 7.669740e-003
1.623769e+003, 7.998682e-003
1.625697e+003, 8.258504e-003
1.627626e+003, 8.294198e-003
1.629554e+003, 8.272147e-003
1.631483e+003, 8.154436e-003
1.633411e+003, 8.126614e-003
1.635340e+003, 8.108133e-003
1.637268e+003, 8.036694e-003
1.639197e+003, 8.014821e-003
1.641125e+003, 8.148118e-003
1.643054e+003, 8.283632e-003
1.644982e+003, 8.135214e-003
1.646911e+003, 7.734562e-003
1.648839e+003, 7.765742e-003
1.650767e+003, 7.785094e-003
1.652696e+003, 7.697260e-003
1.654624e+003, 7.610274e-003
1.656553e+003, 7.668245e-003
1.658481e+003, 7.624599e-003
1.660410e+003, 7.548606e-003
1.662338e+003, 7.447742e-003
1.664267e+003, 7.290625e-003
1.666195e+003, 6.998620e-003
1.668124e+003, 6.871313e-003
1.670052e+003, 6.758641e-003
1.671981e+003, 6.635202e-003
1.673909e+003, 6.656482e-003
1.675838e+003, 6.460746e-003
1.677766e+003, 6.351942e-003
1.679694e+003, 6.228319e-003
1.681623e+003, 6.025355e-003
1.683551e+003, 5.885971e-003
1.685480e+003, 5.524348e-003
1.687408e+003, 5.497417e-003
1.689337e+003, 5.363774e-003
1.691265e+003, 5.367989e-003
1.693194e+003, 5.260191e-003
1.695122e+003, 5.051085e-003
1.697051e+003, 4.805601e-003
1.698979e+003, 5.020100e-003
1.700908e+003, 4.826709e-003
1.702836e+003, 4.980798e-003
1.704765e+003, 4.686617e-003
1.706693e+003, 4.346055e-003
1.708621e+003, 4.378670e-003
1.710550e+003, 4.440818e-003
1.712478e+003, 4.406703e-003
1.714407e+003, 4.470537e-003
1.716335e+003, 4.547832e-003
1.718264e+003, 4.244953e-003
1.720192e+003, 3.902715e-003
1.722121e+003, 3.872244e-003
1.724049e+003, 3.999658e-003
1.725978e+003, 4.102837e-003
1.727906e+003, 3.910220e-003
1.729835e+003, 3.656645e-003
1.731763e+003, 3.464615e-003
1.733692e+003, 3.075616e-003
1.735620e+003, 2.863070e-003
1.737548e+003, 2.845275e-003
1.739477e+003, 2.665358e-003
1.741405e+003, 2.705964e-003
1.743334e+003, 2.722811e-003
1.745262e+003, 2.751092e-003
1.747191e+003, 2.567188e-003
1.749119e+003, 2.374547e-003
1.751048e+003, 2.373966e-003
1.752976e+003, 2.657713e-003
1.754905e+003, 3.207222e-003
1.756833e+003, 3.160311e-003
1.758762e+003, 2.946146e-003
1.760690e+003, 3.364589e-003
1.762619e+003, 3.513371e-003
1.764547e+003, 3.457853e-003
1.766475e+003, 3.370930e-003
1.768404e+003, 3.276300e-003
1.770332e+003, 3.640844e-003
1.772261e+003, 3.702690e-003
1.774189e+003, 3.366970e-003
1.776118e+003, 3.070046e-003
1.778046e+003, 3.270561e-003
1.779975e+003, 3.447970e-003
1.781903e+003, 3.334573e-003
1.783832e+003, 3.331580e-003
1.785760e+003, 3.177463e-003
1.787689e+003, 3.168945e-003
1.789617e+003, 3.277857e-003
1.791546e+003, 3.362572e-003
1.793474e+003, 3.400910e-003
1.795402e+003, 3.414006e-003
1.797331e+003, 3.182740e-003
1.799259e+003, 3.147381e-003
1.801188e+003, 3.250018e-003
1.803116e+003, 3.363000e-003
1.805045e+003, 3.278045e-003
1.806973e+003, 2.872169e-003
1.808902e+003, 2.826120e-003
1.810830e+003, 3.265851e-003
1.812759e+003, 3.249749e-003
1.814687e+003, 3.033681e-003
1.816616e+003, 2.716722e-003
1.818544e+003, 2.726984e-003
1.820473e+003, 3.113908e-003
1.822401e+003, 3.113511e-003
1.824329e+003, 3.150201e-003
1.826258e+003, 3.306657e-003
1.828186e+003, 2.958192e-003
1.830115e+003, 2.593117e-003
1.832043e+003, 2.530540e-003
1.833972e+003, 2.663064e-003
1.835900e+003, 2.991875e-003
1.837829e+003, 3.056292e-003
1.839757e+003, 3.020951e-003
1.841686e+003, 2.991979e-003
1.843614e+003, 2.834768e-003
1.845543e+003, 2.514791e-003
1.847471e+003, 2.712005e-003
1.849400e+003, 3.089792e-003
1.851328e+003, 3.179005e-003
1.853256e+003, 2.848567e-003
1.855185e+003, 2.830815e-003
1.857113e+003, 2.596506e-003
1.859042e+003, 2.103763e-003
1.860970e+003, 2.014244e-003
1.862899e+003, 2.292492e-003
1.864827e+003, 2.748404e-003
1.866756e+003, 2.836063e-003
1.868684e+003, 2.509684e-003
1.870613e+003, 2.537843e-003
1.872541e+003, 2.700023e-003
1.874470e+003, 2.569216e-003
1.876398e+003, 2.433506e-003
1.878327e+003, 2.509929e-003
1.880255e+003, 2.072721e-003
1.882183e+003, 1.788987e-003
1.884112e+003, 1.814627e-003
1.886040e+003, 2.298473e-003
1.887969e+003, 3.177977e-003
1.889897e+003, 3.086223e-003
1.891826e+003, 2.617287e-003
1.893754e+003, 2.439544e-003
1.895683e+003, 2.747458e-003
1.897611e+003, 3.041068e-003
1.899540e+003, 2.819655e-003
1.901468e+003, 2.486659e-003
1.903397e+003, 2.044646e-003
1.905325e+003, 2.081335e-003
1.907254e+003, 1.957754e-003
1.909182e+003, 2.425947e-003
1.911110e+003, 2.522121e-003
1.913039e+003, 1.883895e-003
1.914967e+003, 1.376589e-003
1.916896e+003, 1.442640e-003
1.918824e+003, 1.385830e-003
1.920753e+003, 1.054751e-003
1.922681e+003, 1.494294e-003
1.924610e+003, 2.393519e-003
1.926538e+003, 2.179290e-003
1.928467e+003, 1.019714e-003
1.930395e+003, 2.207731e-004
1.932324e+003, 4.238989e-004
1.934252e+003, 1.147361e-003
1.936181e+003, 1.319017e-003
1.938109e+003, 5.104247e-004
1.940037e+003, 3.657819e-004
1.941966e+003, 5.754636e-005
1.943894e+003, 2.649328e-004
1.945823e+003, 6.778054e-004
1.947751e+003, 8.549069e-004
1.949680e+003, 1.546414e-003
1.951608e+003, 1.399101e-003
1.953537e+003, -2.338991e-004
1.955465e+003, -5.512441e-004
1.957394e+003, -7.471052e-004
1.959322e+003, -1.335294e-003
1.961251e+003, -1.152741e-003
1.963179e+003, -6.291926e-004
1.965108e+003, 3.989228e-004
1.967036e+003, 1.794736e-003
1.968964e+003, 1.810900e-003
1.970893e+003, 1.101932e-003
1.972821e+003, 1.380752e-003
1.974750e+003, 1.825165e-003
1.976678e+003, 1.048193e-003
1.978607e+003, 1.140490e-003
1.980535e+003, 2.122672e-003
1.982464e+003, 2.650352e-003
1.984392e+003, 2.813225e-003
1.986321e+003, 3.177309e-003
1.988249e+003, 3.499462e-003
1.990178e+003, 2.590523e-003
1.992106e+003, 2.635253e-003
1.994035e+003, 2.611710e-003
1.995963e+003, 2.506123e-003
1.997891e+003, 1.480816e-003
1.999820e+003, 3.767083e-004
2.001748e+003, -1.614851e-003
2.003677e+003, -3.170602e-003
2.005605e+003, -1.265613e-003
2.007534e+003, 3.743576e-004
2.009462e+003, 1.061262e-004
2.011391e+003, -5.763945e-004
2.013319e+003, -6.331849e-004
2.015248e+003, 6.712572e-005
2.017176e+003, -1.054021e-003
2.019105e+003, -1.133604e-003
2.021033e+003, 2.845557e-004
2.022962e+003, 9.169439e-004
2.024890e+003, 5.172779e-004
2.026818e+003, -6.310428e-004
2.028747e+003, -3.472555e-004
2.030675e+003, 1.792414e-003
2.032604e+003, 1.124861e-003
2.034532e+003, 5.115739e-004
2.036461e+003, 2.343123e-003
2.038389e+003, 2.070353e-003
2.040318e+003, 1.627055e-003
2.042246e+003, 2.210911e-003
2.044175e+003, 1.869530e-003
2.046103e+003, 4.983905e-004
2.048032e+003, 3.314334e-004
2.049960e+003, 1.029016e-003
2.051889e+003, 2.035510e-003
2.053817e+003, 2.016979e-003
2.055746e+003, 9.563619e-004
2.057674e+003, 2.188983e-003
2.059603e+003, 3.411836e-003
2.061531e+003, 3.935579e-003
2.063459e+003, 2.822265e-003
2.065388e+003, 2.056361e-003
2.067316e+003, 2.185903e-003
2.069245e+003, 3.137362e-003
2.071173e+003, 3.112218e-003
2.073102e+003, 1.986538e-003
2.075030e+003, 2.193303e-003
2.076959e+003, 3.032353e-003
2.078887e+003, 3.139470e-003
2.080816e+003, 3.599181e-003
2.082744e+003, 4.214124e-003
2.084673e+003, 2.816227e-003
2.086601e+003, 1.667056e-003
2.088530e+003, 2.229163e-003
2.090458e+003, 2.273523e-003
2.092386e+003, 2.402478e-003
2.094315e+003, 2.913743e-003
2.096243e+003, 3.397461e-003
2.098172e+003, 2.847455e-003
2.100100e+003, 2.489126e-003
2.102029e+003, 2.462611e-003
2.103957e+003, 3.032796e-003
2.105886e+003, 3.528115e-003
2.107814e+003, 3.537456e-003
2.109743e+003, 3.469359e-003
2.111671e+003, 4.031673e-003
2.113600e+003, 4.136483e-003
2.115528e+003, 4.028501e-003
2.117457e+003, 4.029880e-003
2.119385e+003, 3.677500e-003
2.121313e+003, 3.092878e-003
2.123242e+003, 2.267273e-003
2.125170e+003, 1.290675e-003
2.127099e+003, 9.491683e-004
2.129027e+003, 4.048026e-005
2.130956e+003, -1.404842e-003
2.132884e+003, -2.029992e-003
2.134813e+003, -5.003819e-004
2.136741e+003, 6.092021e-005
2.138670e+003, -1.255918e-003
2.140598e+003, -2.914074e-003
2.142527e+003, -1.897648e-003
2.144455e+003, -8.257484e-004
2.146384e+003, -2.651090e-003
2.148312e+003, -3.937665e-003
2.150240e+003, -2.872752e-003
2.152169e+003, -2.357458e-003
2.154097e+003, -3.403641e-003
2.156026e+003, -4.252197e-003
2.157954e+003, -2.508016e-003
2.159883e+003, 1.357209e-003
2.161811e+003, 2.217474e-003
2.163740e+003, 2.539242e-003
2.165668e+003, 3.965770e-003
2.167597e+003, 5.039463e-003
2.169525e+003, 4.730058e-003
2.171454e+003, 2.505105e-003
2.173382e+003, -7.509093e-005
2.175311e+003, 1.295663e-003
2.177239e+003, 3.190406e-003
2.179167e+003, 3.745995e-003
2.181096e+003, 3.166004e-003
2.183024e+003, 2.524623e-003
2.184953e+003, 2.238908e-003
2.186881e+003, 1.476187e-003
2.188810e+003, 1.469927e-003
2.190738e+003, 2.464353e-003
2.192667e+003, 2.499764e-003
2.194595e+003, 2.535205e-003
2.196524e+003, 2.349599e-003
2.198452e+003, 2.682121e-003
2.200381e+003, 2.500729e-003
2.202309e+003, 1.263695e-003
2.204238e+003, 1.471685e-003
2.206166e+003, 2.255045e-003
2.208094e+003, 1.856956e-003
2.210023e+003, 2.982972e-003
2.211951e+003, 4.248774e-003
2.213880e+003, 4.034618e-003
2.215808e+003, 3.372028e-003
2.217737e+003, 2.873267e-003
2.219665e+003, 3.959039e-003
2.221594e+003, 3.621137e-003
2.223522e+003, 3.299969e-003
2.225451e+003, 4.206946e-003
2.227379e+003, 4.468882e-003
2.229308e+003, 4.723305e-003
2.231236e+003, 5.251612e-003
2.233165e+003, 4.876335e-003
2.235093e+003, 4.014143e-003
2.237021e+003, 4.349683e-003
2.238950e+003, 5.080542e-003
2.240878e+003, 5.023785e-003
2.242807e+003, 5.046610e-003
2.244735e+003, 4.501290e-003
2.246664e+003, 4.869121e-003
2.248592e+003, 5.709194e-003
2.250521e+003, 5.276768e-003
2.252449e+003, 5.556950e-003
2.254378e+003, 6.135636e-003
2.256306e+003, 5.659802e-003
2.258235e+003, 5.030701e-003
2.260163e+003, 4.853728e-003
2.262092e+003, 4.887080e-003
2.264020e+003, 5.294292e-003
2.265948e+003, 6.061305e-003
2.267877e+003, 6.524830e-003
2.269805e+003, 6.017733e-003
2.271734e+003, 6.298791e-003
2.273662e+003, 6.317686e-003
2.275591e+003, 6.821818e-003
2.277519e+003, 8.160244e-003
2.279448e+003, 9.107647e-003
2.281376e+003, 7.909728e-003
2.283305e+003, 7.681558e-003
2.285233e+003, 8.081668e-003
2.287162e+003, 7.656662e-003
2.289090e+003, 7.670066e-003
2.291019e+003, 7.523279e-003
2.292947e+003, 7.223343e-003
2.294875e+003, 6.951170e-003
2.296804e+003, 6.869494e-003
2.298732e+003, 7.115075e-003
2.300661e+003, 7.786725e-003
2.302589e+003, 7.864346e-003
2.304518e+003, 7.319356e-003
2.306446e+003, 6.623155e-003
2.308375e+003, 6.473849e-003
2.310303e+003, 7.196146e-003
2.312232e+003, 7.152800e-003
2.314160e+003, 7.667273e-003
2.316089e+003, 8.520871e-003
2.318017e+003, 8.479864e-003
2.319946e+003, 8.459426e-003
2.321874e+003, 8.964818e-003
2.323802e+003, 8.793654e-003
2.325731e+003, 8.098614e-003
2.327659e+003, 7.276895e-003
2.329588e+003, 6.641429e-003
2.331516e+003, 6.832526e-003
2.333445e+003, 6.636558e-003
2.335373e+003, 6.206481e-003
2.337302e+003, 6.342341e-003
2.339230e+003, 6.320238e-003
2.341159e+003, 6.246959e-003
2.343087e+003, 6.554168e-003
2.345016e+003, 7.110478e-003
2.346944e+003, 7.534071e-003
2.348873e+003, 7.240539e-003
2.350801e+003, 6.545317e-003
2.352729e+003, 6.653121e-003
2.354658e+003, 6.335007e-003
2.356586e+003, 6.291222e-003
2.358515e+003, 6.658257e-003
2.360443e+003, 6.362448e-003
2.362372e+003, 6.094126e-003
2.364300e+003, 6.116548e-003
2.366229e+003, 6.310505e-003
2.368157e+003, 6.198307e-003
2.370086e+003, 6.442631e-003
2.372014e+003, 6.576596e-003
2.373942e+003, 6.455439e-003
2.375871e+003, 6.726541e-003
2.377799e+003, 6.858180e-003
2.379728e+003, 6.578165e-003
2.381656e+003, 6.329426e-003
2.383585e+003, 6.163469e-003
2.385513e+003, 5.675865e-003
2.387442e+003, 5.416594e-003
2.389370e+003, 5.770602e-003
2.391299e+003, 6.622163e-003
2.393227e+003, 6.526536e-003
2.395156e+003, 6.164555e-003
2.397084e+003, 5.768999e-003
2.399012e+003, 5.552073e-003
2.400941e+003, 6.119831e-003
2.402869e+003, 6.129552e-003
2.404798e+003, 5.885466e-003
2.406726e+003, 5.883988e-003
2.408655e+003, 6.089049e-003
2.410583e+003, 6.072890e-003
2.412512e+003, 6.274158e-003
2.414440e+003, 6.544070e-003
2.416369e+003, 6.317033e-003
2.418297e+003, 6.131374e-003
2.420226e+003, 6.356675e-003
2.422154e+003, 6.951668e-003
2.424083e+003, 6.493902e-003
2.426011e+003, 6.664100e-003
2.427939e+003, 7.292053e-003
2.429868e+003, 6.763249e-003
2.431796e+003, 6.440577e-003
2.433725e+003, 6.697400e-003
2.435653e+003, 7.590666e-003
2.437582e+003, 7.272118e-003
2.439510e+003, 7.630392e-003
2.441439e+003, 8.070866e-003
2.443367e+003, 7.678872e-003
2.445296e+003, 7.861074e-003
2.447224e+003, 8.058229e-003
2.449153e+003, 8.192184e-003
2.451081e+003, 8.362008e-003
2.453010e+003, 8.276176e-003
2.454938e+003, 8.292719e-003
2.456866e+003, 7.907073e-003
2.458795e+003, 7.020239e-003
2.460723e+003, 6.668841e-003
2.462652e+003, 6.980418e-003
2.464580e+003, 7.326512e-003
2.466509e+003, 7.433813e-003
2.468437e+003, 7.125044e-003
2.470366e+003, 7.291103e-003
2.472294e+003, 7.691812e-003
2.474223e+003, 7.792201e-003
2.476151e+003, 8.024939e-003
2.478080e+003, 8.307002e-003
2.480008e+003, 8.055585e-003
2.481937e+003, 7.810192e-003
2.483865e+003, 8.086846e-003
2.485793e+003, 7.961808e-003
2.487722e+003, 7.393398e-003
2.489650e+003, 7.199165e-003
2.491579e+003, 7.666201e-003
2.493507e+003, 7.591313e-003
2.495436e+003, 7.869021e-003
2.497364e+003, 7.989132e-003
2.499293e+003, 8.251556e-003
2.501221e+003, 8.392158e-003
2.503150e+003, 8.052727e-003
2.505078e+003, 7.608430e-003
2.507007e+003, 7.099794e-003
2.508935e+003, 6.848204e-003
2.510864e+003, 6.683243e-003
2.512792e+003, 6.985440e-003
2.514720e+003, 7.428848e-003
2.516649e+003, 8.102888e-003
2.518577e+003, 8.470213e-003
2.520506e+003, 8.614163e-003
2.522434e+003, 7.873672e-003
2.524363e+003, 6.737235e-003
2.526291e+003, 7.439328e-003
2.528220e+003, 8.395702e-003
2.530148e+003, 8.548385e-003
2.532077e+003, 8.252687e-003
2.534005e+003, 7.827562e-003
2.535934e+003, 7.836707e-003
2.537862e+003, 8.242405e-003
2.539791e+003, 8.027832e-003
2.541719e+003, 7.745922e-003
2.543647e+003, 8.027671e-003
2.545576e+003, 8.442994e-003
2.547504e+003, 8.700496e-003
2.549433e+003, 8.138518e-003
2.551361e+003, 8.139096e-003
2.553290e+003, 8.913281e-003
2.555218e+003, 8.429751e-003
2.557147e+003, 7.022689e-003
2.559075e+003, 7.356332e-003
2.561004e+003, 7.734372e-003
2.562932e+003, 7.278888e-003
2.564861e+003, 8.211489e-003
2.566789e+003, 8.729001e-003
2.568718e+003, 8.467883e-003
2.570646e+003, 8.786467e-003
2.572574e+003, 9.341673e-003
2.574503e+003, 9.333747e-003
2.576431e+003, 9.136314e-003
2.578360e+003, 9.228875e-003
2.580288e+003, 9.361310e-003
2.582217e+003, 9.631556e-003
2.584145e+003, 9.762852e-003
2.586074e+003, 9.804882e-003
2.588002e+003, 8.920588e-003
2.589931e+003, 8.255736e-003
2.591859e+003, 8.562888e-003
2.593788e+003, 8.148323e-003
2.595716e+003, 7.785224e-003
2.597645e+003, 8.817471e-003
2.599573e+003, 8.975174e-003
2.601501e+003, 8.722807e-003
2.603430e+003, 9.182574e-003
2.605358e+003, 9.304796e-003
2.607287e+003, 8.412710e-003
2.609215e+003, 8.627154e-003
2.611144e+003, 9.324372e-003
2.613072e+003, 9.796510e-003
2.615001e+003, 1.057883e-002
2.616929e+003, 1.035220e-002
2.618858e+003, 9.573858e-003
2.620786e+003, 8.910355e-003
2.622715e+003, 9.281434e-003
2.624643e+003, 9.709682e-003
2.626572e+003, 9.947839e-003
2.628500e+003, 1.002973e-002
2.630428e+003, 9.772545e-003
2.632357e+003, 9.710881e-003
2.634285e+003, 9.907829e-003
2.636214e+003, 9.487730e-003
2.638142e+003, 9.608875e-003
2.640071e+003, 9.846932e-003
2.641999e+003, 9.513189e-003
2.643928e+003, 9.388799e-003
2.645856e+003, 9.588915e-003
2.647785e+003, 9.519471e-003
2.649713e+003, 9.592327e-003
2.651642e+003, 9.457714e-003
2.653570e+003, 9.748902e-003
2.655499e+003, 1.011073e-002
2.657427e+003, 9.966855e-003
2.659355e+003, 9.568076e-003
2.661284e+003, 9.542411e-003
2.663212e+003, 9.419951e-003
2.665141e+003, 9.282084e-003
2.667069e+003, 9.131920e-003
2.668998e+003, 9.195585e-003
2.670926e+003, 9.326193e-003
2.672855e+003, 9.408553e-003
2.674783e+003, 9.109748e-003
2.676712e+003, 8.560715e-003
2.678640e+003, 8.640829e-003
2.680569e+003, 9.211251e-003
2.682497e+003, 9.570830e-003
2.684426e+003, 9.720800e-003
2.686354e+003, 9.405251e-003
2.688282e+003, 8.966073e-003
2.690211e+003, 8.916318e-003
2.692139e+003, 8.929259e-003
2.694068e+003, 8.952335e-003
2.695996e+003, 9.272379e-003
2.697925e+003, 9.522510e-003
2.699853e+003, 9.726179e-003
2.701782e+003, 9.845704e-003
2.703710e+003, 9.600905e-003
2.705639e+003, 9.362890e-003
2.707567e+003, 9.457501e-003
2.709496e+003, 9.766924e-003
2.711424e+003, 9.860728e-003
2.713353e+003, 1.004437e-002
2.715281e+003, 1.009179e-002
2.717209e+003, 9.678731e-003
2.719138e+003, 9.642061e-003
2.721066e+003, 9.976596e-003
2.722995e+003, 9.873915e-003
2.724923e+003, 9.723005e-003
2.726852e+003, 9.844541e-003
2.728780e+003, 9.666574e-003
2.730709e+003, 9.864569e-003
2.732637e+003, 1.065422e-002
2.734566e+003, 1.070877e-002
2.736494e+003, 1.020040e-002
2.738423e+003, 9.965278e-003
2.740351e+003, 9.950299e-003
2.742280e+003, 9.771478e-003
2.744208e+003, 9.785444e-003
2.746136e+003, 9.613142e-003
2.748065e+003, 9.896365e-003
2.749993e+003, 1.022212e-002
2.751922e+003, 1.013143e-002
2.753850e+003, 1.035684e-002
2.755779e+003, 1.038840e-002
2.757707e+003, 1.005769e-002
2.759636e+003, 1.029831e-002
2.761564e+003, 1.067633e-002
2.763493e+003, 1.059553e-002
2.765421e+003, 1.032138e-002
2.767350e+003, 1.041353e-002
2.769278e+003, 1.114859e-002
2.771207e+003, 1.138641e-002
2.773135e+003, 1.127688e-002
2.775063e+003, 1.129172e-002
2.776992e+003, 1.147662e-002
2.778920e+003, 1.133713e-002
2.780849e+003, 1.089119e-002
2.782777e+003, 1.080194e-002
2.784706e+003, 1.053400e-002
2.786634e+003, 1.083268e-002
2.788563e+003, 1.090449e-002
2.790491e+003, 1.030345e-002
2.792420e+003, 9.992423e-003
2.794348e+003, 1.020675e-002
2.796277e+003, 1.107653e-002
2.798205e+003, 1.168147e-002
2.800134e+003, 1.169313e-002
2.802062e+003, 1.205162e-002
2.803990e+003, 1.222887e-002
2.805919e+003, 1.163742e-002
2.807847e+003, 1.157691e-002
2.809776e+003, 1.149802e-002
2.811704e+003, 1.137004e-002
2.813633e+003, 1.162203e-002
2.815561e+003, 1.189689e-002
2.817490e+003, 1.172832e-002
2.819418e+003, 1.144705e-002
2.821347e+003, 1.156268e-002
2.823275e+003, 1.142667e-002
2.825204e+003, 1.131623e-002
2.827132e+003, 1.220518e-002
2.829061e+003, 1.247536e-002
2.830989e+003, 1.197773e-002
2.832917e+003, 1.206876e-002
2.834846e+003, 1.235969e-002
2.836774e+003, 1.279177e-002
2.838703e+003, 1.278193e-002
2.840631e+003, 1.252190e-002
2.842560e+003, 1.311148e-002
2.844488e+003, 1.333250e-002
2.846417e+003, 1.299481e-002
2.848345e+003, 1.260657e-002
2.850274e+003, 1.257855e-002
2.852202e+003, 1.276901e-002
2.854131e+003, 1.223552e-002
2.856059e+003, 1.212892e-002
2.857988e+003, 1.259850e-002
2.859916e+003, 1.273383e-002
2.861844e+003, 1.290249e-002
2.863773e+003, 1.269098e-002
2.865701e+003, 1.299233e-002
2.867630e+003, 1.319803e-002
2.869558e+003, 1.322227e-002
2.871487e+003, 1.349328e-002
2.873415e+003, 1.375094e-002
2.875344e+003, 1.372780e-002
2.877272e+003, 1.375044e-002
2.879201e+003, 1.430328e-002
2.881129e+003, 1.431077e-002
2.883058e+003, 1.409226e-002
2.884986e+003, 1.463950e-002
2.886915e+003, 1.460362e-002
2.888843e+003, 1.384486e-002
2.890771e+003, 1.431471e-002
2.892700e+003, 1.477429e-002
2.894628e+003, 1.400674e-002
2.896557e+003, 1.367718e-002
2.898485e+003, 1.440506e-002
2.900414e+003, 1.544480e-002
2.902342e+003, 1.562227e-002
2.904271e+003, 1.545347e-002
2.906199e+003, 1.508140e-002
2.908128e+003, 1.505063e-002
2.910056e+003, 1.619442e-002
2.911985e+003, 1.681877e-002
2.913913e+003, 1.711742e-002
2.915842e+003, 1.680470e-002
2.917770e+003, 1.665220e-002
2.919698e+003, 1.661260e-002
2.921627e+003, 1.575701e-002
2.923555e+003, 1.547980e-002
2.925484e+003, 1.514279e-002
2.927412e+003, 1.457763e-002
2.929341e+003, 1.447948e-002
2.931269e+003, 1.440320e-002
2.933198e+003, 1.464126e-002
2.935126e+003, 1.486725e-002
2.937055e+003, 1.459385e-002
2.938983e+003, 1.472729e-002
2.940912e+003, 1.477587e-002
2.942840e+003, 1.522139e-002
2.944769e+003, 1.554874e-002
2.946697e+003, 1.641716e-002
2.948625e+003, 1.666599e-002
2.950554e+003, 1.592370e-002
2.952482e+003, 1.531339e-002
2.954411e+003, 1.605668e-002
2.956339e+003, 1.631438e-002
2.958268e+003, 1.579234e-002
2.960196e+003, 1.559274e-002
2.962125e+003, 1.554413e-002
2.964053e+003, 1.569113e-002
2.965982e+003, 1.579709e-002
2.967910e+003, 1.582831e-002
2.969839e+003, 1.635992e-002
2.971767e+003, 1.657155e-002
2.973696e+003, 1.638007e-002
2.975624e+003, 1.610474e-002
2.977552e+003, 1.572601e-002
2.979481e+003, 1.548047e-002
2.981409e+003, 1.591762e-002
2.983338e+003, 1.624754e-002
2.985266e+003, 1.615203e-002
2.987195e+003, 1.555799e-002
2.989123e+003, 1.591795e-002
2.991052e+003, 1.607059e-002
2.992980e+003, 1.523655e-002
2.994909e+003, 1.513205e-002
2.996837e+003, 1.553778e-002
2.998766e+003, 1.620729e-002
3.000694e+003, 1.604419e-002
3.002623e+003, 1.605890e-002
3.004551e+003, 1.651609e-002
3.006479e+003, 1.611179e-002
3.008408e+003, 1.613935e-002
3.010336e+003, 1.628635e-002
3.012265e+003, 1.649479e-002
3.014193e+003, 1.742214e-002
3.016122e+003, 1.768445e-002
3.018050e+003, 1.825281e-002
3.019979e+003, 1.793122e-002
3.021907e+003, 1.719452e-002
3.023836e+003, 1.713998e-002
3.025764e+003, 1.705744e-002
3.027693e+003, 1.723993e-002
3.029621e+003, 1.746759e-002
3.031550e+003, 1.767843e-002
3.033478e+003, 1.788998e-002
3.035406e+003, 1.831727e-002
3.037335e+003, 1.852790e-002
3.039263e+003, 1.878893e-002
3.041192e+003, 1.854846e-002
3.043120e+003, 1.836984e-002
3.045049e+003, 1.872973e-002
3.046977e+003, 1.831135e-002
3.048906e+003, 1.733262e-002
3.050834e+003, 1.778432e-002
3.052763e+003, 1.892454e-002
3.054691e+003, 1.889832e-002
3.056620e+003, 1.824950e-002
3.058548e+003, 1.876605e-002
3.060477e+003, 1.903183e-002
3.062405e+003, 1.914859e-002
3.064333e+003, 1.877558e-002
3.066262e+003, 1.777525e-002
3.068190e+003, 1.804291e-002
3.070119e+003, 1.883558e-002
3.072047e+003, 1.939666e-002
3.073976e+003, 1.967734e-002
3.075904e+003, 2.044796e-002
3.077833e+003, 2.097450e-002
3.079761e+003, 2.133446e-002
3.081690e+003, 2.104365e-002
3.083618e+003, 1.998785e-002
3.085547e+003, 1.992738e-002
3.087475e+003, 2.052239e-002
3.089404e+003, 2.034762e-002
3.091332e+003, 2.045488e-002
3.093260e+003, 2.095959e-002
3.095189e+003, 2.086435e-002
3.097117e+003, 2.115453e-002
3.099046e+003, 2.203256e-002
3.100974e+003, 2.269279e-002
3.102903e+003, 2.215649e-002
3.104831e+003, 2.121581e-002
3.106760e+003, 2.038171e-002
3.108688e+003, 2.135761e-002
3.110617e+003, 2.169642e-002
3.112545e+003, 2.133563e-002
3.114474e+003, 2.065424e-002
3.116402e+003, 2.072651e-002
3.118331e+003, 2.135093e-002
3.120259e+003, 2.203986e-002
3.122188e+003, 2.160171e-002
3.124116e+003, 2.185038e-002
3.126044e+003, 2.251998e-002
3.127973e+003, 2.292189e-002
3.129901e+003, 2.285646e-002
3.131830e+003, 2.271352e-002
3.133758e+003, 2.225293e-002
3.135687e+003, 2.195831e-002
3.137615e+003, 2.238431e-002
3.139544e+003, 2.266991e-002
3.141472e+003, 2.299944e-002
3.143401e+003, 2.270434e-002
3.145329e+003, 2.339251e-002
3.147258e+003, 2.394496e-002
3.149186e+003, 2.370021e-002
3.151115e+003, 2.335850e-002
3.153043e+003, 2.348657e-002
3.154971e+003, 2.370803e-002
3.156900e+003, 2.290307e-002
3.158828e+003, 2.313906e-002
3.160757e+003, 2.489324e-002
3.162685e+003, 2.580678e-002
3.164614e+003, 2.496338e-002
3.166542e+003, 2.482968e-002
3.168471e+003, 2.488745e-002
3.170399e+003, 2.379776e-002
3.172328e+003, 2.361300e-002
3.174256e+003, 2.479090e-002
3.176185e+003, 2.525227e-002
3.178113e+003, 2.419678e-002
3.180042e+003, 2.474135e-002
3.181970e+003, 2.588996e-002
3.183898e+003, 2.638245e-002
3.185827e+003, 2.615058e-002
3.187755e+003, 2.560871e-002
3.189684e+003, 2.472075e-002
3.191612e+003, 2.407647e-002
3.193541e+003, 2.494713e-002
3.195469e+003, 2.545036e-002
3.197398e+003, 2.626036e-002
3.199326e+003, 2.687258e-002
3.201255e+003, 2.715155e-002
3.203183e+003, 2.680255e-002
3.205112e+003, 2.607790e-002
3.207040e+003, 2.568643e-002
3.208969e+003, 2.746429e-002
3.210897e+003, 2.875672e-002
3.212825e+003, 2.777446e-002
3.214754e+003, 2.783054e-002
3.216682e+003, 2.815124e-002
3.218611e+003, 2.678041e-002
3.220539e+003, 2.731348e-002
3.222468e+003, 2.802604e-002
3.224396e+003, 2.784429e-002
3.226325e+003, 2.711597e-002
3.228253e+003, 2.649551e-002
3.230182e+003, 2.696606e-002
3.232110e+003, 2.784566e-002
3.234039e+003, 2.741974e-002
3.235967e+003, 2.669883e-002
3.237896e+003, 2.672302e-002
3.239824e+003, 2.771608e-002
3.241752e+003, 2.926702e-002
3.243681e+003, 2.989267e-002
3.245609e+003, 2.964968e-002
3.247538e+003, 2.982892e-002
3.249466e+003, 2.919811e-002
3.251395e+003, 2.754168e-002
3.253323e+003, 2.745850e-002
3.255252e+003, 2.791026e-002
3.257180e+003, 2.885219e-002
3.259109e+003, 2.981853e-002
3.261037e+003, 2.982726e-002
3.262966e+003, 2.982165e-002
3.264894e+003, 2.893706e-002
3.266823e+003, 2.927933e-002
3.268751e+003, 3.057032e-002
3.270679e+003, 3.158459e-002
3.272608e+003, 3.141832e-002
3.274536e+003, 2.967164e-002
3.276465e+003, 2.940513e-002
3.278393e+003, 3.039577e-002
3.280322e+003, 2.980427e-002
3.282250e+003, 3.064231e-002
3.284179e+003, 3.123598e-002
3.286107e+003, 3.023070e-002
3.288036e+003, 3.007800e-002
3.289964e+003, 3.013429e-002
3.291893e+003, 3.009976e-002
3.293821e+003, 2.949133e-002
3.295750e+003, 2.846555e-002
3.297678e+003, 3.045547e-002
3.299606e+003, 3.156504e-002
3.301535e+003, 3.059950e-002
3.303463e+003, 3.077600e-002
3.305392e+003, 3.229045e-002
3.307320e+003, 3.147210e-002
3.309249e+003, 3.129365e-002
3.311177e+003, 3.153486e-002
3.313106e+003, 3.155400e-002
3.315034e+003, 3.197483e-002
3.316963e+003, 3.134048e-002
3.318891e+003, 3.068442e-002
3.320820e+003, 3.186379e-002
3.322748e+003, 3.270626e-002
3.324677e+003, 3.283632e-002
3.326605e+003, 3.251044e-002
3.328533e+003, 3.218440e-002
3.330462e+003, 3.289652e-002
3.332390e+003, 3.348710e-002
3.334319e+003, 3.218542e-002
3.336247e+003, 3.146690e-002
3.338176e+003, 3.211499e-002
3.340104e+003, 3.284023e-002
3.342033e+003, 3.279361e-002
3.343961e+003, 3.299668e-002
3.345890e+003, 3.269903e-002
3.347818e+003, 3.321483e-002
3.349747e+003, 3.327311e-002
3.351675e+003, 3.360391e-002
3.353604e+003, 3.393323e-002
3.355532e+003, 3.373829e-002
3.357460e+003, 3.357136e-002
3.359389e+003, 3.372548e-002
3.361317e+003, 3.405026e-002
3.363246e+003, 3.480001e-002
3.365174e+003, 3.458216e-002
3.367103e+003, 3.290802e-002
3.369031e+003, 3.351644e-002
3.370960e+003, 3.481185e-002
3.372888e+003, 3.442015e-002
3.374817e+003, 3.547553e-002
3.376745e+003, 3.615990e-002
3.378674e+003, 3.528494e-002
3.380602e+003, 3.478986e-002
3.382531e+003, 3.469694e-002
3.384459e+003, 3.422272e-002
3.386387e+003, 3.442391e-002
3.388316e+003, 3.390524e-002
3.390244e+003, 3.272787e-002
3.392173e+003, 3.227093e-002
3.394101e+003, 3.351920e-002
3.396030e+003, 3.463910e-002
3.397958e+003, 3.462799e-002
3.399887e+003, 3.572769e-002
3.401815e+003, 3.445533e-002
3.403744e+003, 3.353864e-002
3.405672e+003, 3.481588e-002
3.407601e+003, 3.588888e-002
3.409529e+003, 3.618938e-002
3.411458e+003, 3.610957e-002
3.413386e+003, 3.603466e-002
3.415314e+003, 3.635913e-002
3.417243e+003, 3.677876e-002
3.419171e+003, 3.567992e-002
3.421100e+003, 3.464512e-002
3.423028e+003, 3.570104e-002
3.424957e+003, 3.602806e-002
3.426885e+003, 3.501466e-002
3.428814e+003, 3.441156e-002
3.430742e+003, 3.288238e-002
3.432671e+003, 3.268404e-002
3.434599e+003, 3.337741e-002
3.436528e+003, 3.459801e-002
3.438456e+003, 3.506616e-002
3.440385e+003, 3.580398e-002
3.442313e+003, 3.606713e-002
3.444241e+003, 3.562592e-002
3.446170e+003, 3.537570e-002
3.448098e+003, 3.446735e-002
3.450027e+003, 3.387831e-002
3.451955e+003, 3.445099e-002
3.453884e+003, 3.504726e-002
3.455812e+003, 3.592729e-002
3.457741e+003, 3.562867e-002
3.459669e+003, 3.387216e-002
3.461598e+003, 3.407319e-002
3.463526e+003, 3.427725e-002
3.465455e+003, 3.371598e-002
3.467383e+003, 3.412082e-002
3.469312e+003, 3.430093e-002
3.471240e+003, 3.309286e-002
3.473168e+003, 3.301332e-002
3.475097e+003, 3.375177e-002
3.477025e+003, 3.431956e-002
3.478954e+003, 3.365665e-002
3.480882e+003, 3.429681e-002
3.482811e+003, 3.540481e-002
3.484739e+003, 3.398427e-002
3.486668e+003, 3.298044e-002
3.488596e+003, 3.235893e-002
3.490525e+003, 3.210189e-002
3.492453e+003, 3.375705e-002
3.494382e+003, 3.485925e-002
3.496310e+003, 3.457845e-002
3.498239e+003, 3.394227e-002
3.500167e+003, 3.317611e-002
3.502095e+003, 3.399001e-002
3.504024e+003, 3.327960e-002
3.505952e+003, 3.180274e-002
3.507881e+003, 3.192025e-002
3.509809e+003, 3.266221e-002
3.511738e+003, 3.365378e-002
3.513666e+003, 3.365407e-002
3.515595e+003, 3.303098e-002
3.517523e+003, 3.208953e-002
3.519452e+003, 3.075816e-002
3.521380e+003, 3.005717e-002
3.523309e+003, 3.056359e-002
3.525237e+003, 3.193959e-002
3.527166e+003, 3.112723e-002
3.529094e+003, 3.018594e-002
3.531022e+003, 3.104591e-002
3.532951e+003, 3.185833e-002
3.534879e+003, 3.055372e-002
3.536808e+003, 2.964512e-002
3.538736e+003, 2.948865e-002
3.540665e+003, 3.065930e-002
3.542593e+003, 3.108534e-002
3.544522e+003, 3.092642e-002
3.546450e+003, 3.102748e-002
3.548379e+003, 3.094712e-002
3.550307e+003, 3.029925e-002
3.552236e+003, 3.011348e-002
3.554164e+003, 3.033620e-002
3.556093e+003, 2.866150e-002
3.558021e+003, 2.803565e-002
3.559949e+003, 2.781335e-002
3.561878e+003, 2.649377e-002
3.563806e+003, 2.824120e-002
3.565735e+003, 2.834627e-002
3.567663e+003, 2.727235e-002
3.569592e+003, 2.708780e-002
3.571520e+003, 2.716453e-002
3.573449e+003, 2.774818e-002
3.575377e+003, 2.709728e-002
3.577306e+003, 2.599012e-002
3.579234e+003, 2.677256e-002
3.581163e+003, 2.863321e-002
3.583091e+003, 2.804920e-002
3.585020e+003, 2.617161e-002
3.586948e+003, 2.525936e-002
3.588876e+003, 2.578461e-002
3.590805e+003, 2.633985e-002
3.592733e+003, 2.700673e-002
3.594662e+003, 2.615798e-002
3.596590e+003, 2.528421e-002
3.598519e+003, 2.608875e-002
3.600447e+003, 2.624159e-002
3.602376e+003, 2.572988e-002
3.604304e+003, 2.638967e-002
3.606233e+003, 2.581971e-002
3.608161e+003, 2.518521e-002
3.610090e+003, 2.517482e-002
3.612018e+003, 2.468362e-002
3.613947e+003, 2.576419e-002
3.615875e+003, 2.576283e-002
3.617803e+003, 2.514658e-002
3.619732e+003, 2.579386e-002
3.621660e+003, 2.510600e-002
3.623589e+003, 2.356338e-002
3.625517e+003, 2.320450e-002
3.627446e+003, 2.264385e-002
3.629374e+003, 2.020173e-002
3.631303e+003, 2.083686e-002
3.633231e+003, 2.323155e-002
3.635160e+003, 2.341418e-002
3.637088e+003, 2.315637e-002
3.639017e+003, 2.313429e-002
3.640945e+003, 2.233679e-002
3.642874e+003, 2.017769e-002
3.644802e+003, 2.106853e-002
3.646730e+003, 2.235656e-002
3.648659e+003, 2.274883e-002
3.650587e+003, 2.115723e-002
3.652516e+003, 2.046962e-002
3.654444e+003, 2.152142e-002
3.656373e+003, 2.145334e-002
3.658301e+003, 2.023579e-002
3.660230e+003, 1.987099e-002
3.662158e+003, 1.802495e-002
3.664087e+003, 1.679355e-002
3.666015e+003, 1.656815e-002
3.667944e+003, 1.823163e-002
3.669872e+003, 1.881796e-002
3.671801e+003, 1.889853e-002
3.673729e+003, 1.859026e-002
3.675657e+003, 1.793389e-002
3.677586e+003, 1.702128e-002
3.679514e+003, 1.707824e-002
3.681443e+003, 1.828932e-002
3.683371e+003, 1.878043e-002
3.685300e+003, 1.670196e-002
3.687228e+003, 1.759865e-002
3.689157e+003, 1.686226e-002
3.691085e+003, 1.450976e-002
3.693014e+003, 1.308165e-002
3.694942e+003, 1.480930e-002
3.696871e+003, 1.792161e-002
3.698799e+003, 1.909290e-002
3.700728e+003, 1.744160e-002
3.702656e+003, 1.644294e-002
3.704584e+003, 1.647591e-002
3.706513e+003, 1.701288e-002
3.708441e+003, 1.545536e-002
3.710370e+003, 1.396009e-002
3.712298e+003, 1.368556e-002
3.714227e+003, 1.514998e-002
3.716155e+003, 1.720219e-002
3.718084e+003, 1.570229e-002
3.720012e+003, 1.388578e-002
3.721941e+003, 1.475402e-002
3.723869e+003, 1.567403e-002
3.725798e+003, 1.749204e-002
3.727726e+003, 1.743827e-002
3.729655e+003, 1.577494e-002
3.731583e+003, 1.618131e-002
3.733511e+003, 1.678262e-002
3.735440e+003, 1.541183e-002
3.737368e+003, 1.465231e-002
3.739297e+003, 1.359252e-002
3.741225e+003, 1.544414e-002
3.743154e+003, 1.691883e-002
3.745082e+003, 1.765787e-002
3.747011e+003, 1.706125e-002
3.748939e+003, 1.597948e-002
3.750868e+003, 1.621594e-002
3.752796e+003, 1.708545e-002
3.754725e+003, 1.714957e-002
3.756653e+003, 1.645722e-002
3.758582e+003, 1.456891e-002
3.760510e+003, 1.438366e-002
3.762438e+003, 1.539221e-002
3.764367e+003, 1.623921e-002
3.766295e+003, 1.726402e-002
3.768224e+003, 1.750510e-002
3.770152e+003, 1.699867e-002
3.772081e+003, 1.600687e-002
3.774009e+003, 1.546719e-002
3.775938e+003, 1.460715e-002
3.777866e+003, 1.642779e-002
3.779795e+003, 1.827777e-002
3.781723e+003, 1.838462e-002
3.783652e+003, 1.667429e-002
3.785580e+003, 1.726544e-002
3.787509e+003, 1.747907e-002
3.789437e+003, 1.645854e-002
3.791365e+003, 1.650768e-002
3.793294e+003, 1.614298e-002
3.795222e+003, 1.696472e-002
3.797151e+003, 1.691747e-002
3.799079e+003, 1.637590e-002
3.801008e+003, 1.527504e-002
3.802936e+003, 1.447364e-002
3.804865e+003, 1.438932e-002
3.806793e+003, 1.532297e-002
3.808722e+003, 1.514965e-002
3.810650e+003, 1.501835e-002
3.812579e+003, 1.472085e-002
3.814507e+003, 1.594221e-002
3.816436e+003, 1.695417e-002
3.818364e+003, 1.797828e-002
3.820292e+003, 1.796470e-002
3.822221e+003, 1.656965e-002
3.824149e+003, 1.660453e-002
3.826078e+003, 1.532283e-002
3.828006e+003, 1.530900e-002
3.829935e+003, 1.623287e-002
3.831863e+003, 1.591152e-002
3.833792e+003, 1.625849e-002
3.835720e+003, 1.495486e-002
3.837649e+003, 1.516790e-002
3.839577e+003, 1.657838e-002
3.841506e+003, 1.631097e-002
3.843434e+003, 1.511254e-002
3.845363e+003, 1.565598e-002
3.847291e+003, 1.665100e-002
3.849219e+003, 1.717621e-002
3.851148e+003, 1.604457e-002
3.853076e+003, 1.573866e-002
3.855005e+003, 1.680216e-002
3.856933e+003, 1.822394e-002
3.858862e+003, 1.777371e-002
3.860790e+003, 1.691478e-002
3.862719e+003, 1.786909e-002
3.864647e+003, 1.619465e-002
3.866576e+003, 1.436455e-002
3.868504e+003, 1.562805e-002
3.870433e+003, 1.699876e-002
3.872361e+003, 1.754206e-002
3.874290e+003, 1.688780e-002
3.876218e+003, 1.646313e-002
3.878146e+003, 1.635969e-002
3.880075e+003, 1.699736e-002
3.882003e+003, 1.741638e-002
3.883932e+003, 1.705477e-002
3.885860e+003, 1.680375e-002
3.887789e+003, 1.621016e-002
3.889717e+003, 1.591209e-002
3.891646e+003, 1.747384e-002
3.893574e+003, 2.008101e-002
3.895503e+003, 2.021499e-002
3.897431e+003, 1.958176e-002
3.899360e+003, 1.884937e-002
3.901288e+003, 1.730864e-002
3.903217e+003, 1.810762e-002
3.905145e+003, 1.881681e-002
3.907073e+003, 1.976126e-002
3.909002e+003, 2.015894e-002
3.910930e+003, 1.960940e-002
3.912859e+003, 1.692362e-002
3.914787e+003, 1.655303e-002
3.916716e+003, 1.803177e-002
3.918644e+003, 1.760006e-002
3.920573e+003, 1.818834e-002
3.922501e+003, 1.927330e-002
3.924430e+003, 2.059908e-002
3.926358e+003, 2.081506e-002
3.928287e+003, 1.944024e-002
3.930215e+003, 1.898247e-002
3.932144e+003, 1.799600e-002
3.934072e+003, 1.888168e-002
3.936000e+003, 1.920156e-002
3.937929e+003, 1.750505e-002
3.939857e+003, 1.639427e-002
3.941786e+003, 1.850452e-002
3.943714e+003, 2.014227e-002
3.945643e+003, 1.899091e-002
3.947571e+003, 1.776176e-002
3.949500e+003, 1.788611e-002
3.951428e+003, 1.730902e-002
3.953357e+003, 1.734092e-002
3.955285e+003, 1.885502e-002
3.957214e+003, 1.941485e-002
3.959142e+003, 1.791075e-002
3.961071e+003, 1.541122e-002
3.962999e+003, 1.502978e-002
3.964927e+003, 1.488724e-002
3.966856e+003, 1.403410e-002
3.968784e+003, 1.411398e-002
3.970713e+003, 1.541461e-002
3.972641e+003, 1.685346e-002
3.974570e+003, 1.684234e-002
3.976498e+003, 1.741274e-002
3.978427e+003, 1.792664e-002
3.980355e+003, 1.829774e-002
3.982284e+003, 1.815502e-002
3.984212e+003, 1.894554e-002
3.986141e+003, 1.912997e-002
3.988069e+003, 1.919582e-002
3.989998e+003, 1.949964e-002
3.991926e+003, 1.861862e-002
3.993854e+003, 1.735803e-002
3.995783e+003, 1.634756e-002
3.997711e+003, 1.795113e-002
3.999640e+003, 1.795980e-002
##END=



