##NAMES=Erythrite
##RRUFFID=R050073
##IDEAL CHEMISTRY=Co^2+^_3_(As^5+^O_4_)_2_&#183;8H_2_O
##LOCALITY=Bou Azzer, Morocco
##OWNER=RRUFF
##SOURCE=Rock Currier
##DESCRIPTION=Crimson flattened crystals
##STATUS=The identification of this mineral has been confirmed by X-ray diffraction and chemical analysis
##URL=rruff.info/R050073
##MEASURED CHEMISTRY=(Co_0.65_Mg_0.35_)_3_(As_1.00_O_4_)_2_Â·8H_2_O
3.991926e+002, 0.000000e+000
4.011211e+002, 2.430046e-001
4.030496e+002, 2.441534e-001
4.049780e+002, 2.498772e-001
4.069065e+002, 2.533364e-001
4.088350e+002, 2.501287e-001
4.107634e+002, 2.484632e-001
4.126919e+002, 2.511875e-001
4.146204e+002, 2.525395e-001
4.165488e+002, 2.474498e-001
4.184773e+002, 2.419597e-001
4.204058e+002, 2.388028e-001
4.223342e+002, 2.353131e-001
4.242627e+002, 2.309772e-001
4.261912e+002, 2.273834e-001
4.281196e+002, 2.306194e-001
4.300481e+002, 2.338334e-001
4.319766e+002, 2.356240e-001
4.339050e+002, 2.377978e-001
4.358335e+002, 2.410350e-001
4.377620e+002, 2.451157e-001
4.396904e+002, 2.485230e-001
4.416189e+002, 2.512469e-001
4.435474e+002, 2.525712e-001
4.454758e+002, 2.513326e-001
4.474043e+002, 2.490425e-001
4.493328e+002, 2.466727e-001
4.512612e+002, 2.437030e-001
4.531897e+002, 2.397992e-001
4.551182e+002, 2.329177e-001
4.570466e+002, 2.242413e-001
4.589751e+002, 2.165886e-001
4.609036e+002, 2.096920e-001
4.628320e+002, 2.024903e-001
4.647605e+002, 1.965444e-001
4.666890e+002, 1.892470e-001
4.686174e+002, 1.818505e-001
4.705459e+002, 1.758680e-001
4.724744e+002, 1.704288e-001
4.744028e+002, 1.663991e-001
4.763313e+002, 1.642997e-001
4.782598e+002, 1.628856e-001
4.801882e+002, 1.634050e-001
4.821167e+002, 1.650403e-001
4.840452e+002, 1.652624e-001
4.859736e+002, 1.653190e-001
4.879021e+002, 1.654843e-001
4.898306e+002, 1.638048e-001
4.917590e+002, 1.617391e-001
4.936875e+002, 1.593168e-001
4.956160e+002, 1.552559e-001
4.975444e+002, 1.515359e-001
4.994729e+002, 1.482116e-001
5.014014e+002, 1.451766e-001
5.033298e+002, 1.428711e-001
5.052583e+002, 1.425021e-001
5.071868e+002, 1.431059e-001
5.091152e+002, 1.451004e-001
5.110437e+002, 1.478395e-001
5.129722e+002, 1.512562e-001
5.149006e+002, 1.553421e-001
5.168291e+002, 1.592883e-001
5.187576e+002, 1.637413e-001
5.206860e+002, 1.682511e-001
5.226145e+002, 1.727964e-001
5.245430e+002, 1.784076e-001
5.264714e+002, 1.839291e-001
5.283999e+002, 1.894479e-001
5.303284e+002, 1.950382e-001
5.322568e+002, 2.001806e-001
5.341853e+002, 2.053877e-001
5.361138e+002, 2.107862e-001
5.380422e+002, 2.165190e-001
5.399707e+002, 2.220199e-001
5.418992e+002, 2.271408e-001
5.438276e+002, 2.316965e-001
5.457561e+002, 2.368242e-001
5.476846e+002, 2.421191e-001
5.496130e+002, 2.465403e-001
5.515415e+002, 2.501472e-001
5.534700e+002, 2.529020e-001
5.553984e+002, 2.556701e-001
5.573269e+002, 2.574855e-001
5.592554e+002, 2.576264e-001
5.611838e+002, 2.583368e-001
5.631123e+002, 2.597660e-001
5.650408e+002, 2.604798e-001
5.669692e+002, 2.602258e-001
5.688977e+002, 2.597812e-001
5.708262e+002, 2.591373e-001
5.727546e+002, 2.590844e-001
5.746831e+002, 2.578718e-001
5.766116e+002, 2.565427e-001
5.785400e+002, 2.558570e-001
5.804685e+002, 2.550880e-001
5.823970e+002, 2.543719e-001
5.843254e+002, 2.538739e-001
5.862539e+002, 2.534813e-001
5.881824e+002, 2.537352e-001
5.901108e+002, 2.529506e-001
5.920393e+002, 2.525793e-001
5.939678e+002, 2.531332e-001
5.958962e+002, 2.530746e-001
5.978247e+002, 2.525027e-001
5.997532e+002, 2.518573e-001
6.016816e+002, 2.510915e-001
6.036101e+002, 2.502761e-001
6.055386e+002, 2.496253e-001
6.074670e+002, 2.482593e-001
6.093955e+002, 2.469545e-001
6.113240e+002, 2.448158e-001
6.132524e+002, 2.420022e-001
6.151809e+002, 2.395353e-001
6.171094e+002, 2.370669e-001
6.190378e+002, 2.338006e-001
6.209663e+002, 2.305118e-001
6.228948e+002, 2.277833e-001
6.248232e+002, 2.260901e-001
6.267517e+002, 2.260019e-001
6.286802e+002, 2.273409e-001
6.306086e+002, 2.305252e-001
6.325371e+002, 2.345789e-001
6.344656e+002, 2.387656e-001
6.363940e+002, 2.421355e-001
6.383225e+002, 2.437126e-001
6.402510e+002, 2.439411e-001
6.421794e+002, 2.436195e-001
6.441079e+002, 2.426627e-001
6.460364e+002, 2.410237e-001
6.479648e+002, 2.391220e-001
6.498933e+002, 2.375853e-001
6.518218e+002, 2.358166e-001
6.537502e+002, 2.339158e-001
6.556787e+002, 2.320823e-001
6.576072e+002, 2.294514e-001
6.595356e+002, 2.270476e-001
6.614641e+002, 2.252242e-001
6.633926e+002, 2.230835e-001
6.653210e+002, 2.207917e-001
6.672495e+002, 2.187533e-001
6.691780e+002, 2.170787e-001
6.711064e+002, 2.152570e-001
6.730349e+002, 2.134610e-001
6.749634e+002, 2.119379e-001
6.768918e+002, 2.103381e-001
6.788203e+002, 2.084018e-001
6.807488e+002, 2.064504e-001
6.826772e+002, 2.048691e-001
6.846057e+002, 2.034009e-001
6.865342e+002, 2.018858e-001
6.884626e+002, 2.000301e-001
6.903911e+002, 1.982238e-001
6.923196e+002, 1.968022e-001
6.942480e+002, 1.955691e-001
6.961765e+002, 1.943090e-001
6.981050e+002, 1.930142e-001
7.000334e+002, 1.914656e-001
7.019619e+002, 1.900907e-001
7.038904e+002, 1.887470e-001
7.058188e+002, 1.872822e-001
7.077473e+002, 1.856088e-001
7.096758e+002, 1.841353e-001
7.116042e+002, 1.832122e-001
7.135327e+002, 1.823349e-001
7.154612e+002, 1.811876e-001
7.173896e+002, 1.800338e-001
7.193181e+002, 1.790757e-001
7.212466e+002, 1.781807e-001
7.231750e+002, 1.774966e-001
7.251035e+002, 1.770623e-001
7.270320e+002, 1.765249e-001
7.289604e+002, 1.760417e-001
7.308889e+002, 1.758049e-001
7.328174e+002, 1.757718e-001
7.347458e+002, 1.758288e-001
7.366743e+002, 1.757333e-001
7.386028e+002, 1.759855e-001
7.405313e+002, 1.765665e-001
7.424597e+002, 1.776343e-001
7.443882e+002, 1.792340e-001
7.463167e+002, 1.804900e-001
7.482451e+002, 1.815053e-001
7.501736e+002, 1.828729e-001
7.521021e+002, 1.853607e-001
7.540305e+002, 1.883688e-001
7.559590e+002, 1.913671e-001
7.578875e+002, 1.950965e-001
7.598159e+002, 1.994091e-001
7.617444e+002, 2.038280e-001
7.636729e+002, 2.084020e-001
7.656013e+002, 2.137522e-001
7.675298e+002, 2.191716e-001
7.694583e+002, 2.241414e-001
7.713867e+002, 2.287211e-001
7.733152e+002, 2.325168e-001
7.752437e+002, 2.352779e-001
7.771721e+002, 2.358843e-001
7.791006e+002, 2.339045e-001
7.810291e+002, 2.303021e-001
7.829575e+002, 2.256482e-001
7.848860e+002, 2.197849e-001
7.868145e+002, 2.133895e-001
7.887429e+002, 2.066926e-001
7.906714e+002, 1.998050e-001
7.925999e+002, 1.928233e-001
7.945283e+002, 1.852492e-001
7.964568e+002, 1.771754e-001
7.983853e+002, 1.692434e-001
8.003137e+002, 1.624240e-001
8.022422e+002, 1.572683e-001
8.041707e+002, 1.540364e-001
8.060991e+002, 1.520046e-001
8.080276e+002, 1.509991e-001
8.099561e+002, 1.510353e-001
8.118845e+002, 1.509247e-001
8.138130e+002, 1.507498e-001
8.157415e+002, 1.506428e-001
8.176699e+002, 1.505318e-001
8.195984e+002, 1.504098e-001
8.215269e+002, 1.504547e-001
8.234553e+002, 1.501116e-001
8.253838e+002, 1.491483e-001
8.273123e+002, 1.476075e-001
8.292407e+002, 1.458571e-001
8.311692e+002, 1.438692e-001
8.330977e+002, 1.412329e-001
8.350261e+002, 1.384442e-001
8.369546e+002, 1.357017e-001
8.388831e+002, 1.324466e-001
8.408115e+002, 1.286688e-001
8.427400e+002, 1.241868e-001
8.446685e+002, 1.197426e-001
8.465969e+002, 1.153082e-001
8.485254e+002, 1.106726e-001
8.504539e+002, 1.062553e-001
8.523823e+002, 1.024918e-001
8.543108e+002, 9.914368e-002
8.562393e+002, 9.611174e-002
8.581677e+002, 9.349710e-002
8.600962e+002, 9.108446e-002
8.620247e+002, 8.897401e-002
8.639531e+002, 8.740272e-002
8.658816e+002, 8.579838e-002
8.678101e+002, 8.449827e-002
8.697385e+002, 8.350180e-002
8.716670e+002, 8.233601e-002
8.735955e+002, 8.123036e-002
8.755239e+002, 8.055749e-002
8.774524e+002, 8.019130e-002
8.793809e+002, 7.959332e-002
8.813093e+002, 7.869970e-002
8.832378e+002, 7.797778e-002
8.851663e+002, 7.762746e-002
8.870947e+002, 7.685892e-002
8.890232e+002, 7.575749e-002
8.909517e+002, 7.473420e-002
8.928801e+002, 7.338061e-002
8.948085e+002, 7.181171e-002
8.967370e+002, 7.013211e-002
8.986655e+002, 6.833524e-002
9.005939e+002, 6.656948e-002
9.025224e+002, 6.424807e-002
9.044509e+002, 6.181910e-002
9.063793e+002, 5.989258e-002
9.083078e+002, 5.767222e-002
9.102363e+002, 5.533975e-002
9.121647e+002, 5.333607e-002
9.140932e+002, 5.155923e-002
9.160217e+002, 4.970058e-002
9.179501e+002, 4.789642e-002
9.198786e+002, 4.640005e-002
9.218071e+002, 4.494453e-002
9.237355e+002, 4.361392e-002
9.256640e+002, 4.251130e-002
9.275925e+002, 4.137363e-002
9.295209e+002, 4.047945e-002
9.314494e+002, 3.975203e-002
9.333779e+002, 3.888705e-002
9.353063e+002, 3.793048e-002
9.372348e+002, 3.710569e-002
9.391633e+002, 3.658145e-002
9.410917e+002, 3.622307e-002
9.430202e+002, 3.548993e-002
9.449487e+002, 3.492979e-002
9.468771e+002, 3.416448e-002
9.488056e+002, 3.351151e-002
9.507341e+002, 3.311126e-002
9.526625e+002, 3.260110e-002
9.545910e+002, 3.209012e-002
9.565195e+002, 3.155266e-002
9.584479e+002, 3.095695e-002
9.603764e+002, 3.033152e-002
9.623049e+002, 2.994960e-002
9.642333e+002, 2.977069e-002
9.661618e+002, 2.946823e-002
9.680903e+002, 2.929628e-002
9.700187e+002, 2.908231e-002
9.719472e+002, 2.891814e-002
9.738757e+002, 2.878035e-002
9.758041e+002, 2.847441e-002
9.777326e+002, 2.834224e-002
9.796611e+002, 2.822835e-002
9.815895e+002, 2.797921e-002
9.835180e+002, 2.797716e-002
9.854465e+002, 2.794290e-002
9.873749e+002, 2.787126e-002
9.893034e+002, 2.785697e-002
9.912319e+002, 2.792081e-002
9.931603e+002, 2.797188e-002
9.950888e+002, 2.808566e-002
9.970173e+002, 2.817846e-002
9.989457e+002, 2.831473e-002
1.000874e+003, 2.855774e-002
1.002803e+003, 2.873772e-002
1.004731e+003, 2.870904e-002
1.006660e+003, 2.868540e-002
1.008588e+003, 2.878320e-002
1.010517e+003, 2.883257e-002
1.012445e+003, 2.889129e-002
1.014373e+003, 2.909824e-002
1.016302e+003, 2.908337e-002
1.018230e+003, 2.886950e-002
1.020159e+003, 2.877775e-002
1.022087e+003, 2.884728e-002
1.024016e+003, 2.877342e-002
1.025944e+003, 2.876329e-002
1.027873e+003, 2.884850e-002
1.029801e+003, 2.898634e-002
1.031730e+003, 2.914059e-002
1.033658e+003, 2.925464e-002
1.035587e+003, 2.924600e-002
1.037515e+003, 2.924842e-002
1.039444e+003, 2.920967e-002
1.041372e+003, 2.926905e-002
1.043301e+003, 2.940900e-002
1.045229e+003, 2.956520e-002
1.047157e+003, 2.958380e-002
1.049086e+003, 2.957864e-002
1.051014e+003, 2.932316e-002
1.052943e+003, 2.940252e-002
1.054871e+003, 2.941382e-002
1.056800e+003, 2.936575e-002
1.058728e+003, 2.916846e-002
1.060657e+003, 2.927816e-002
1.062585e+003, 2.949362e-002
1.064514e+003, 2.960092e-002
1.066442e+003, 2.987833e-002
1.068371e+003, 2.994942e-002
1.070299e+003, 2.976033e-002
1.072228e+003, 2.977740e-002
1.074156e+003, 2.977558e-002
1.076084e+003, 2.960559e-002
1.078013e+003, 2.951381e-002
1.079941e+003, 2.939094e-002
1.081870e+003, 2.919979e-002
1.083798e+003, 2.885632e-002
1.085727e+003, 2.843406e-002
1.087655e+003, 2.815279e-002
1.089584e+003, 2.815169e-002
1.091512e+003, 2.816208e-002
1.093441e+003, 2.788495e-002
1.095369e+003, 2.763039e-002
1.097298e+003, 2.761097e-002
1.099226e+003, 2.746460e-002
1.101155e+003, 2.702379e-002
1.103083e+003, 2.706309e-002
1.105011e+003, 2.729727e-002
1.106940e+003, 2.719416e-002
1.108868e+003, 2.692380e-002
1.110797e+003, 2.692262e-002
1.112725e+003, 2.670459e-002
1.114654e+003, 2.646333e-002
1.116582e+003, 2.621887e-002
1.118511e+003, 2.599069e-002
1.120439e+003, 2.598668e-002
1.122368e+003, 2.576494e-002
1.124296e+003, 2.557599e-002
1.126225e+003, 2.540153e-002
1.128153e+003, 2.484231e-002
1.130082e+003, 2.444836e-002
1.132010e+003, 2.435658e-002
1.133938e+003, 2.415436e-002
1.135867e+003, 2.383430e-002
1.137795e+003, 2.372785e-002
1.139724e+003, 2.365859e-002
1.141652e+003, 2.356214e-002
1.143581e+003, 2.337897e-002
1.145509e+003, 2.307131e-002
1.147438e+003, 2.272100e-002
1.149366e+003, 2.262058e-002
1.151295e+003, 2.236154e-002
1.153223e+003, 2.212967e-002
1.155152e+003, 2.202500e-002
1.157080e+003, 2.173827e-002
1.159009e+003, 2.151514e-002
1.160937e+003, 2.135652e-002
1.162865e+003, 2.114392e-002
1.164794e+003, 2.095947e-002
1.166722e+003, 2.069520e-002
1.168651e+003, 2.033709e-002
1.170579e+003, 1.988372e-002
1.172508e+003, 1.982328e-002
1.174436e+003, 1.977188e-002
1.176365e+003, 1.960670e-002
1.178293e+003, 1.952885e-002
1.180222e+003, 1.953992e-002
1.182150e+003, 1.954161e-002
1.184079e+003, 1.933337e-002
1.186007e+003, 1.910621e-002
1.187936e+003, 1.919678e-002
1.189864e+003, 1.909906e-002
1.191792e+003, 1.879174e-002
1.193721e+003, 1.861599e-002
1.195649e+003, 1.842285e-002
1.197578e+003, 1.813057e-002
1.199506e+003, 1.776751e-002
1.201435e+003, 1.750020e-002
1.203363e+003, 1.711058e-002
1.205292e+003, 1.693643e-002
1.207220e+003, 1.714213e-002
1.209149e+003, 1.700041e-002
1.211077e+003, 1.676409e-002
1.213006e+003, 1.668757e-002
1.214934e+003, 1.664302e-002
1.216863e+003, 1.658401e-002
1.218791e+003, 1.636028e-002
1.220719e+003, 1.600750e-002
1.222648e+003, 1.575631e-002
1.224576e+003, 1.555900e-002
1.226505e+003, 1.516254e-002
1.228433e+003, 1.466000e-002
1.230362e+003, 1.432046e-002
1.232290e+003, 1.417433e-002
1.234219e+003, 1.396864e-002
1.236147e+003, 1.366779e-002
1.238076e+003, 1.338239e-002
1.240004e+003, 1.312666e-002
1.241933e+003, 1.289608e-002
1.243861e+003, 1.263083e-002
1.245790e+003, 1.248737e-002
1.247718e+003, 1.226025e-002
1.249646e+003, 1.201606e-002
1.251575e+003, 1.193047e-002
1.253503e+003, 1.190753e-002
1.255432e+003, 1.178225e-002
1.257360e+003, 1.161639e-002
1.259289e+003, 1.136558e-002
1.261217e+003, 1.097381e-002
1.263146e+003, 1.081028e-002
1.265074e+003, 1.090234e-002
1.267003e+003, 1.088529e-002
1.268931e+003, 1.074405e-002
1.270860e+003, 1.043910e-002
1.272788e+003, 1.035373e-002
1.274717e+003, 1.025932e-002
1.276645e+003, 1.020076e-002
1.278573e+003, 1.026268e-002
1.280502e+003, 1.036862e-002
1.282430e+003, 1.058535e-002
1.284359e+003, 1.056108e-002
1.286287e+003, 1.018864e-002
1.288216e+003, 1.009306e-002
1.290144e+003, 1.022425e-002
1.292073e+003, 1.033451e-002
1.294001e+003, 1.015040e-002
1.295930e+003, 9.850709e-003
1.297858e+003, 9.841403e-003
1.299787e+003, 1.001622e-002
1.301715e+003, 1.007849e-002
1.303644e+003, 9.864385e-003
1.305572e+003, 9.779528e-003
1.307500e+003, 9.996048e-003
1.309429e+003, 1.004269e-002
1.311357e+003, 9.938414e-003
1.313286e+003, 9.948680e-003
1.315214e+003, 1.002591e-002
1.317143e+003, 9.938908e-003
1.319071e+003, 9.725774e-003
1.321000e+003, 9.554326e-003
1.322928e+003, 9.733319e-003
1.324857e+003, 9.818493e-003
1.326785e+003, 9.759437e-003
1.328714e+003, 9.678433e-003
1.330642e+003, 9.773267e-003
1.332571e+003, 9.861137e-003
1.334499e+003, 9.964611e-003
1.336427e+003, 9.882469e-003
1.338356e+003, 9.683731e-003
1.340284e+003, 9.852430e-003
1.342213e+003, 1.000686e-002
1.344141e+003, 1.002037e-002
1.346070e+003, 9.967006e-003
1.347998e+003, 1.005236e-002
1.349927e+003, 1.016374e-002
1.351855e+003, 1.024278e-002
1.353784e+003, 1.033103e-002
1.355712e+003, 1.021898e-002
1.357641e+003, 1.037762e-002
1.359569e+003, 1.052767e-002
1.361498e+003, 1.063869e-002
1.363426e+003, 1.090907e-002
1.365354e+003, 1.095917e-002
1.367283e+003, 1.077810e-002
1.369211e+003, 1.084738e-002
1.371140e+003, 1.115081e-002
1.373068e+003, 1.173552e-002
1.374997e+003, 1.227611e-002
1.376925e+003, 1.242603e-002
1.378854e+003, 1.208335e-002
1.380782e+003, 1.131052e-002
1.382711e+003, 1.084297e-002
1.384639e+003, 1.101994e-002
1.386568e+003, 1.116397e-002
1.388496e+003, 1.121619e-002
1.390424e+003, 1.098820e-002
1.392353e+003, 1.108436e-002
1.394281e+003, 1.114776e-002
1.396210e+003, 1.115960e-002
1.398138e+003, 1.122338e-002
1.400067e+003, 1.146547e-002
1.401995e+003, 1.146465e-002
1.403924e+003, 1.163448e-002
1.405852e+003, 1.200069e-002
1.407781e+003, 1.194291e-002
1.409709e+003, 1.174031e-002
1.411638e+003, 1.179638e-002
1.413566e+003, 1.183798e-002
1.415495e+003, 1.187234e-002
1.417423e+003, 1.200588e-002
1.419351e+003, 1.229464e-002
1.421280e+003, 1.219607e-002
1.423208e+003, 1.201437e-002
1.425137e+003, 1.213486e-002
1.427065e+003, 1.218038e-002
1.428994e+003, 1.227505e-002
1.430922e+003, 1.252246e-002
1.432851e+003, 1.242953e-002
1.434779e+003, 1.241025e-002
1.436708e+003, 1.269105e-002
1.438636e+003, 1.272263e-002
1.440565e+003, 1.274593e-002
1.442493e+003, 1.291560e-002
1.444422e+003, 1.305171e-002
1.446350e+003, 1.330453e-002
1.448278e+003, 1.357321e-002
1.450207e+003, 1.379581e-002
1.452135e+003, 1.400568e-002
1.454064e+003, 1.385667e-002
1.455992e+003, 1.373654e-002
1.457921e+003, 1.429525e-002
1.459849e+003, 1.413301e-002
1.461778e+003, 1.404243e-002
1.463706e+003, 1.409379e-002
1.465635e+003, 1.432655e-002
1.467563e+003, 1.404247e-002
1.469492e+003, 1.399294e-002
1.471420e+003, 1.402392e-002
1.473349e+003, 1.395985e-002
1.475277e+003, 1.364087e-002
1.477205e+003, 1.363262e-002
1.479134e+003, 1.368423e-002
1.481062e+003, 1.401236e-002
1.482991e+003, 1.401787e-002
1.484919e+003, 1.405719e-002
1.486848e+003, 1.428762e-002
1.488776e+003, 1.458287e-002
1.490705e+003, 1.513501e-002
1.492633e+003, 1.538738e-002
1.494562e+003, 1.538910e-002
1.496490e+003, 1.589048e-002
1.498419e+003, 1.622715e-002
1.500347e+003, 1.650299e-002
1.502276e+003, 1.666736e-002
1.504204e+003, 1.670561e-002
1.506132e+003, 1.697269e-002
1.508061e+003, 1.725655e-002
1.509989e+003, 1.723411e-002
1.511918e+003, 1.749964e-002
1.513846e+003, 1.788047e-002
1.515775e+003, 1.830128e-002
1.517703e+003, 1.871669e-002
1.519632e+003, 1.896936e-002
1.521560e+003, 1.969398e-002
1.523489e+003, 2.026177e-002
1.525417e+003, 2.073186e-002
1.527346e+003, 2.121482e-002
1.529274e+003, 2.163886e-002
1.531203e+003, 2.238339e-002
1.533131e+003, 2.339462e-002
1.535059e+003, 2.416872e-002
1.536988e+003, 2.475688e-002
1.538916e+003, 2.595525e-002
1.540845e+003, 2.706734e-002
1.542773e+003, 2.792621e-002
1.544702e+003, 2.896163e-002
1.546630e+003, 3.015807e-002
1.548559e+003, 3.147905e-002
1.550487e+003, 3.287901e-002
1.552416e+003, 3.378424e-002
1.554344e+003, 3.494770e-002
1.556273e+003, 3.611735e-002
1.558201e+003, 3.766448e-002
1.560130e+003, 3.900211e-002
1.562058e+003, 3.963482e-002
1.563986e+003, 4.050831e-002
1.565915e+003, 4.170337e-002
1.567843e+003, 4.228295e-002
1.569772e+003, 4.290650e-002
1.571700e+003, 4.327670e-002
1.573629e+003, 4.327009e-002
1.575557e+003, 4.324083e-002
1.577486e+003, 4.347939e-002
1.579414e+003, 4.290931e-002
1.581343e+003, 4.234491e-002
1.583271e+003, 4.182328e-002
1.585200e+003, 4.133652e-002
1.587128e+003, 4.067653e-002
1.589057e+003, 4.014551e-002
1.590985e+003, 3.943043e-002
1.592913e+003, 3.864273e-002
1.594842e+003, 3.780703e-002
1.596770e+003, 3.703186e-002
1.598699e+003, 3.652486e-002
1.600627e+003, 3.606915e-002
1.602556e+003, 3.538652e-002
1.604484e+003, 3.504047e-002
1.606413e+003, 3.471133e-002
1.608341e+003, 3.445279e-002
1.610270e+003, 3.434905e-002
1.612198e+003, 3.390945e-002
1.614127e+003, 3.366579e-002
1.616055e+003, 3.399548e-002
1.617984e+003, 3.425476e-002
1.619912e+003, 3.397232e-002
1.621840e+003, 3.367646e-002
1.623769e+003, 3.353766e-002
1.625697e+003, 3.352625e-002
1.627626e+003, 3.393883e-002
1.629554e+003, 3.396343e-002
1.631483e+003, 3.358962e-002
1.633411e+003, 3.302656e-002
1.635340e+003, 3.272251e-002
1.637268e+003, 3.248395e-002
1.639197e+003, 3.205875e-002
1.641125e+003, 3.168953e-002
1.643054e+003, 3.140862e-002
1.644982e+003, 3.102402e-002
1.646911e+003, 3.079965e-002
1.648839e+003, 3.033639e-002
1.650767e+003, 2.985507e-002
1.652696e+003, 2.965504e-002
1.654624e+003, 2.946466e-002
1.656553e+003, 2.894959e-002
1.658481e+003, 2.880912e-002
1.660410e+003, 2.862618e-002
1.662338e+003, 2.880068e-002
1.664267e+003, 2.877198e-002
1.666195e+003, 2.848896e-002
1.668124e+003, 2.843862e-002
1.670052e+003, 2.882969e-002
1.671981e+003, 2.877515e-002
1.673909e+003, 2.855892e-002
1.675838e+003, 2.863406e-002
1.677766e+003, 2.869652e-002
1.679694e+003, 2.893296e-002
1.681623e+003, 2.891270e-002
1.683551e+003, 2.892057e-002
1.685480e+003, 2.908117e-002
1.687408e+003, 2.806848e-002
1.689337e+003, 2.747128e-002
1.691265e+003, 2.701859e-002
1.693194e+003, 2.637108e-002
1.695122e+003, 2.517470e-002
1.697051e+003, 2.413607e-002
1.698979e+003, 2.301927e-002
1.700908e+003, 2.292668e-002
1.702836e+003, 2.153879e-002
1.704765e+003, 2.077100e-002
1.706693e+003, 2.026375e-002
1.708621e+003, 1.954141e-002
1.710550e+003, 1.900121e-002
1.712478e+003, 1.821269e-002
1.714407e+003, 1.774768e-002
1.716335e+003, 1.753509e-002
1.718264e+003, 1.740971e-002
1.720192e+003, 1.676036e-002
1.722121e+003, 1.624554e-002
1.724049e+003, 1.590228e-002
1.725978e+003, 1.562375e-002
1.727906e+003, 1.517861e-002
1.729835e+003, 1.447435e-002
1.731763e+003, 1.361916e-002
1.733692e+003, 1.320499e-002
1.735620e+003, 1.287430e-002
1.737548e+003, 1.218344e-002
1.739477e+003, 1.161151e-002
1.741405e+003, 1.098532e-002
1.743334e+003, 1.075537e-002
1.745262e+003, 1.038303e-002
1.747191e+003, 1.011442e-002
1.749119e+003, 1.034871e-002
1.751048e+003, 1.053490e-002
1.752976e+003, 1.051245e-002
1.754905e+003, 1.061549e-002
1.756833e+003, 1.096964e-002
1.758762e+003, 1.105187e-002
1.760690e+003, 1.125916e-002
1.762619e+003, 1.158899e-002
1.764547e+003, 1.167133e-002
1.766475e+003, 1.171105e-002
1.768404e+003, 1.170925e-002
1.770332e+003, 1.155811e-002
1.772261e+003, 1.153547e-002
1.774189e+003, 1.164011e-002
1.776118e+003, 1.139116e-002
1.778046e+003, 1.095783e-002
1.779975e+003, 1.087290e-002
1.781903e+003, 1.071424e-002
1.783832e+003, 1.061193e-002
1.785760e+003, 1.048814e-002
1.787689e+003, 1.018145e-002
1.789617e+003, 1.008206e-002
1.791546e+003, 1.006126e-002
1.793474e+003, 9.754349e-003
1.795402e+003, 9.457313e-003
1.797331e+003, 9.379163e-003
1.799259e+003, 9.434571e-003
1.801188e+003, 9.676415e-003
1.803116e+003, 9.831066e-003
1.805045e+003, 9.818444e-003
1.806973e+003, 9.538029e-003
1.808902e+003, 9.034260e-003
1.810830e+003, 9.062574e-003
1.812759e+003, 9.445065e-003
1.814687e+003, 9.420674e-003
1.816616e+003, 9.134226e-003
1.818544e+003, 9.753726e-003
1.820473e+003, 1.048555e-002
1.822401e+003, 1.017218e-002
1.824329e+003, 9.585014e-003
1.826258e+003, 9.465364e-003
1.828186e+003, 9.450718e-003
1.830115e+003, 9.742072e-003
1.832043e+003, 9.852742e-003
1.833972e+003, 9.870769e-003
1.835900e+003, 9.976787e-003
1.837829e+003, 9.750512e-003
1.839757e+003, 9.584366e-003
1.841686e+003, 9.634223e-003
1.843614e+003, 9.770880e-003
1.845543e+003, 1.001949e-002
1.847471e+003, 1.014168e-002
1.849400e+003, 1.072423e-002
1.851328e+003, 1.057651e-002
1.853256e+003, 1.015094e-002
1.855185e+003, 1.032383e-002
1.857113e+003, 1.030791e-002
1.859042e+003, 9.938406e-003
1.860970e+003, 9.833918e-003
1.862899e+003, 1.025143e-002
1.864827e+003, 1.094360e-002
1.866756e+003, 1.083026e-002
1.868684e+003, 1.028267e-002
1.870613e+003, 9.817848e-003
1.872541e+003, 1.009077e-002
1.874470e+003, 1.067695e-002
1.876398e+003, 1.075435e-002
1.878327e+003, 1.072556e-002
1.880255e+003, 1.072298e-002
1.882183e+003, 1.079061e-002
1.884112e+003, 1.031139e-002
1.886040e+003, 1.059868e-002
1.887969e+003, 1.122199e-002
1.889897e+003, 1.101010e-002
1.891826e+003, 1.078202e-002
1.893754e+003, 1.123280e-002
1.895683e+003, 1.127374e-002
1.897611e+003, 1.079040e-002
1.899540e+003, 1.005340e-002
1.901468e+003, 9.998726e-003
1.903397e+003, 1.080977e-002
1.905325e+003, 1.185962e-002
1.907254e+003, 1.208924e-002
1.909182e+003, 1.174316e-002
1.911110e+003, 1.188386e-002
1.913039e+003, 1.199384e-002
1.914967e+003, 1.135362e-002
1.916896e+003, 1.104576e-002
1.918824e+003, 1.145864e-002
1.920753e+003, 1.151353e-002
1.922681e+003, 1.017083e-002
1.924610e+003, 9.301092e-003
1.926538e+003, 9.834176e-003
1.928467e+003, 9.955221e-003
1.930395e+003, 1.029635e-002
1.932324e+003, 1.120298e-002
1.934252e+003, 1.095843e-002
1.936181e+003, 1.082575e-002
1.938109e+003, 9.929183e-003
1.940037e+003, 9.444976e-003
1.941966e+003, 9.602273e-003
1.943894e+003, 1.003301e-002
1.945823e+003, 9.952181e-003
1.947751e+003, 1.025669e-002
1.949680e+003, 9.959009e-003
1.951608e+003, 1.024129e-002
1.953537e+003, 1.020374e-002
1.955465e+003, 9.690687e-003
1.957394e+003, 8.805914e-003
1.959322e+003, 9.574446e-003
1.961251e+003, 1.022726e-002
1.963179e+003, 9.666172e-003
1.965108e+003, 9.439205e-003
1.967036e+003, 9.474462e-003
1.968964e+003, 8.549234e-003
1.970893e+003, 7.346138e-003
1.972821e+003, 8.472544e-003
1.974750e+003, 9.848118e-003
1.976678e+003, 1.036972e-002
1.978607e+003, 1.151887e-002
1.980535e+003, 1.183735e-002
1.982464e+003, 1.157491e-002
1.984392e+003, 1.145131e-002
1.986321e+003, 1.129220e-002
1.988249e+003, 1.129893e-002
1.990178e+003, 1.099683e-002
1.992106e+003, 9.769218e-003
1.994035e+003, 9.427175e-003
1.995963e+003, 1.029158e-002
1.997891e+003, 1.014952e-002
1.999820e+003, 8.896019e-003
2.001748e+003, 8.790673e-003
2.003677e+003, 9.197128e-003
2.005605e+003, 1.004719e-002
2.007534e+003, 1.022312e-002
2.009462e+003, 9.964402e-003
2.011391e+003, 1.092198e-002
2.013319e+003, 1.134585e-002
2.015248e+003, 1.038936e-002
2.017176e+003, 8.694177e-003
2.019105e+003, 8.753750e-003
2.021033e+003, 8.841348e-003
2.022962e+003, 8.405976e-003
2.024890e+003, 7.710948e-003
2.026818e+003, 9.137899e-003
2.028747e+003, 8.888804e-003
2.030675e+003, 9.618197e-003
2.032604e+003, 1.156488e-002
2.034532e+003, 1.103074e-002
2.036461e+003, 1.104240e-002
2.038389e+003, 1.201201e-002
2.040318e+003, 1.145707e-002
2.042246e+003, 1.206054e-002
2.044175e+003, 1.306990e-002
2.046103e+003, 1.209518e-002
2.048032e+003, 1.149638e-002
2.049960e+003, 1.331699e-002
2.051889e+003, 1.326882e-002
2.053817e+003, 1.198329e-002
2.055746e+003, 1.156981e-002
2.057674e+003, 1.166437e-002
2.059603e+003, 1.339705e-002
2.061531e+003, 1.349407e-002
2.063459e+003, 1.357852e-002
2.065388e+003, 1.305917e-002
2.067316e+003, 1.242284e-002
2.069245e+003, 1.244734e-002
2.071173e+003, 1.302772e-002
2.073102e+003, 1.317325e-002
2.075030e+003, 1.351027e-002
2.076959e+003, 1.342608e-002
2.078887e+003, 1.273973e-002
2.080816e+003, 1.286545e-002
2.082744e+003, 1.400338e-002
2.084673e+003, 1.421779e-002
2.086601e+003, 1.331459e-002
2.088530e+003, 1.259386e-002
2.090458e+003, 1.339721e-002
2.092386e+003, 1.288768e-002
2.094315e+003, 1.160935e-002
2.096243e+003, 1.220082e-002
2.098172e+003, 1.352928e-002
2.100100e+003, 1.387717e-002
2.102029e+003, 1.459919e-002
2.103957e+003, 1.443002e-002
2.105886e+003, 1.373920e-002
2.107814e+003, 1.411453e-002
2.109743e+003, 1.533549e-002
2.111671e+003, 1.463605e-002
2.113600e+003, 1.367170e-002
2.115528e+003, 1.384439e-002
2.117457e+003, 1.317801e-002
2.119385e+003, 1.279072e-002
2.121313e+003, 1.390525e-002
2.123242e+003, 1.423357e-002
2.125170e+003, 1.386127e-002
2.127099e+003, 1.433726e-002
2.129027e+003, 1.422059e-002
2.130956e+003, 1.339952e-002
2.132884e+003, 1.309865e-002
2.134813e+003, 1.323199e-002
2.136741e+003, 1.398297e-002
2.138670e+003, 1.476737e-002
2.140598e+003, 1.484478e-002
2.142527e+003, 1.518782e-002
2.144455e+003, 1.644033e-002
2.146384e+003, 1.505184e-002
2.148312e+003, 1.294989e-002
2.150240e+003, 1.297806e-002
2.152169e+003, 1.228165e-002
2.154097e+003, 1.252990e-002
2.156026e+003, 1.144196e-002
2.157954e+003, 1.319605e-002
2.159883e+003, 1.881543e-002
2.161811e+003, 1.987030e-002
2.163740e+003, 1.938010e-002
2.165668e+003, 1.895422e-002
2.167597e+003, 1.890890e-002
2.169525e+003, 1.820871e-002
2.171454e+003, 1.750182e-002
2.173382e+003, 1.680058e-002
2.175311e+003, 1.844116e-002
2.177239e+003, 1.992445e-002
2.179167e+003, 1.769209e-002
2.181096e+003, 1.680125e-002
2.183024e+003, 1.816850e-002
2.184953e+003, 1.872476e-002
2.186881e+003, 2.014191e-002
2.188810e+003, 1.978752e-002
2.190738e+003, 1.893922e-002
2.192667e+003, 1.982496e-002
2.194595e+003, 2.003994e-002
2.196524e+003, 1.929936e-002
2.198452e+003, 2.047433e-002
2.200381e+003, 2.171733e-002
2.202309e+003, 2.050772e-002
2.204238e+003, 1.886526e-002
2.206166e+003, 1.973089e-002
2.208094e+003, 1.973412e-002
2.210023e+003, 2.012076e-002
2.211951e+003, 2.134485e-002
2.213880e+003, 2.075828e-002
2.215808e+003, 1.933665e-002
2.217737e+003, 1.923941e-002
2.219665e+003, 2.026112e-002
2.221594e+003, 2.001547e-002
2.223522e+003, 2.012997e-002
2.225451e+003, 2.097539e-002
2.227379e+003, 2.087492e-002
2.229308e+003, 2.017685e-002
2.231236e+003, 2.106439e-002
2.233165e+003, 2.324836e-002
2.235093e+003, 2.298121e-002
2.237021e+003, 2.083204e-002
2.238950e+003, 2.069789e-002
2.240878e+003, 2.106373e-002
2.242807e+003, 2.093063e-002
2.244735e+003, 2.073546e-002
2.246664e+003, 2.055663e-002
2.248592e+003, 2.045420e-002
2.250521e+003, 2.063174e-002
2.252449e+003, 2.091637e-002
2.254378e+003, 2.040849e-002
2.256306e+003, 2.058565e-002
2.258235e+003, 2.135524e-002
2.260163e+003, 2.110488e-002
2.262092e+003, 2.041524e-002
2.264020e+003, 2.087769e-002
2.265948e+003, 2.188961e-002
2.267877e+003, 2.189685e-002
2.269805e+003, 2.176981e-002
2.271734e+003, 2.278183e-002
2.273662e+003, 2.309691e-002
2.275591e+003, 2.236169e-002
2.277519e+003, 2.130779e-002
2.279448e+003, 2.159749e-002
2.281376e+003, 2.259909e-002
2.283305e+003, 2.267758e-002
2.285233e+003, 2.316111e-002
2.287162e+003, 2.315024e-002
2.289090e+003, 2.283848e-002
2.291019e+003, 2.317659e-002
2.292947e+003, 2.301815e-002
2.294875e+003, 2.234702e-002
2.296804e+003, 2.307869e-002
2.298732e+003, 2.326261e-002
2.300661e+003, 2.271236e-002
2.302589e+003, 2.280713e-002
2.304518e+003, 2.276151e-002
2.306446e+003, 2.295885e-002
2.308375e+003, 2.305424e-002
2.310303e+003, 2.271384e-002
2.312232e+003, 2.281469e-002
2.314160e+003, 2.324163e-002
2.316089e+003, 2.377698e-002
2.318017e+003, 2.374241e-002
2.319946e+003, 2.394443e-002
2.321874e+003, 2.424243e-002
2.323802e+003, 2.391532e-002
2.325731e+003, 2.232104e-002
2.327659e+003, 2.150642e-002
2.329588e+003, 2.190088e-002
2.331516e+003, 2.201675e-002
2.333445e+003, 2.215839e-002
2.335373e+003, 2.261377e-002
2.337302e+003, 2.231975e-002
2.339230e+003, 2.195786e-002
2.341159e+003, 2.172219e-002
2.343087e+003, 2.202374e-002
2.345016e+003, 2.237156e-002
2.346944e+003, 2.212580e-002
2.348873e+003, 2.172113e-002
2.350801e+003, 2.139559e-002
2.352729e+003, 2.144553e-002
2.354658e+003, 2.160785e-002
2.356586e+003, 2.184592e-002
2.358515e+003, 2.188696e-002
2.360443e+003, 2.226380e-002
2.362372e+003, 2.221208e-002
2.364300e+003, 2.170937e-002
2.366229e+003, 2.157879e-002
2.368157e+003, 2.166968e-002
2.370086e+003, 2.113932e-002
2.372014e+003, 2.145603e-002
2.373942e+003, 2.183424e-002
2.375871e+003, 2.138064e-002
2.377799e+003, 2.107253e-002
2.379728e+003, 2.107184e-002
2.381656e+003, 2.154664e-002
2.383585e+003, 2.225531e-002
2.385513e+003, 2.199593e-002
2.387442e+003, 2.167148e-002
2.389370e+003, 2.132403e-002
2.391299e+003, 2.128637e-002
2.393227e+003, 2.166348e-002
2.395156e+003, 2.181929e-002
2.397084e+003, 2.176414e-002
2.399012e+003, 2.156455e-002
2.400941e+003, 2.189269e-002
2.402869e+003, 2.208158e-002
2.404798e+003, 2.214577e-002
2.406726e+003, 2.226332e-002
2.408655e+003, 2.197562e-002
2.410583e+003, 2.185961e-002
2.412512e+003, 2.211522e-002
2.414440e+003, 2.219368e-002
2.416369e+003, 2.224672e-002
2.418297e+003, 2.189848e-002
2.420226e+003, 2.128223e-002
2.422154e+003, 2.054932e-002
2.424083e+003, 2.055715e-002
2.426011e+003, 2.149842e-002
2.427939e+003, 2.267363e-002
2.429868e+003, 2.327740e-002
2.431796e+003, 2.305770e-002
2.433725e+003, 2.279008e-002
2.435653e+003, 2.262956e-002
2.437582e+003, 2.223942e-002
2.439510e+003, 2.218504e-002
2.441439e+003, 2.328091e-002
2.443367e+003, 2.361627e-002
2.445296e+003, 2.354601e-002
2.447224e+003, 2.293552e-002
2.449153e+003, 2.167235e-002
2.451081e+003, 2.163954e-002
2.453010e+003, 2.271001e-002
2.454938e+003, 2.316170e-002
2.456866e+003, 2.373254e-002
2.458795e+003, 2.330012e-002
2.460723e+003, 2.305443e-002
2.462652e+003, 2.294459e-002
2.464580e+003, 2.271465e-002
2.466509e+003, 2.253509e-002
2.468437e+003, 2.244251e-002
2.470366e+003, 2.233629e-002
2.472294e+003, 2.217037e-002
2.474223e+003, 2.247125e-002
2.476151e+003, 2.272338e-002
2.478080e+003, 2.216706e-002
2.480008e+003, 2.228696e-002
2.481937e+003, 2.247368e-002
2.483865e+003, 2.308825e-002
2.485793e+003, 2.347004e-002
2.487722e+003, 2.310656e-002
2.489650e+003, 2.325311e-002
2.491579e+003, 2.375233e-002
2.493507e+003, 2.311877e-002
2.495436e+003, 2.255395e-002
2.497364e+003, 2.348567e-002
2.499293e+003, 2.427886e-002
2.501221e+003, 2.367720e-002
2.503150e+003, 2.296049e-002
2.505078e+003, 2.277431e-002
2.507007e+003, 2.347333e-002
2.508935e+003, 2.451711e-002
2.510864e+003, 2.504289e-002
2.512792e+003, 2.422480e-002
2.514720e+003, 2.349612e-002
2.516649e+003, 2.413002e-002
2.518577e+003, 2.440265e-002
2.520506e+003, 2.352482e-002
2.522434e+003, 2.390863e-002
2.524363e+003, 2.476259e-002
2.526291e+003, 2.464706e-002
2.528220e+003, 2.451894e-002
2.530148e+003, 2.478908e-002
2.532077e+003, 2.523666e-002
2.534005e+003, 2.510846e-002
2.535934e+003, 2.506323e-002
2.537862e+003, 2.514647e-002
2.539791e+003, 2.515454e-002
2.541719e+003, 2.571639e-002
2.543647e+003, 2.610626e-002
2.545576e+003, 2.610034e-002
2.547504e+003, 2.577685e-002
2.549433e+003, 2.560767e-002
2.551361e+003, 2.570790e-002
2.553290e+003, 2.557257e-002
2.555218e+003, 2.600548e-002
2.557147e+003, 2.600395e-002
2.559075e+003, 2.618247e-002
2.561004e+003, 2.673606e-002
2.562932e+003, 2.724684e-002
2.564861e+003, 2.806730e-002
2.566789e+003, 2.825832e-002
2.568718e+003, 2.748666e-002
2.570646e+003, 2.666949e-002
2.572574e+003, 2.637888e-002
2.574503e+003, 2.660401e-002
2.576431e+003, 2.742709e-002
2.578360e+003, 2.824554e-002
2.580288e+003, 2.852697e-002
2.582217e+003, 2.775771e-002
2.584145e+003, 2.706968e-002
2.586074e+003, 2.767283e-002
2.588002e+003, 2.835659e-002
2.589931e+003, 2.781599e-002
2.591859e+003, 2.794277e-002
2.593788e+003, 2.828547e-002
2.595716e+003, 2.824656e-002
2.597645e+003, 2.877121e-002
2.599573e+003, 2.994018e-002
2.601501e+003, 3.061969e-002
2.603430e+003, 3.042785e-002
2.605358e+003, 3.022975e-002
2.607287e+003, 3.041496e-002
2.609215e+003, 3.034037e-002
2.611144e+003, 3.048713e-002
2.613072e+003, 3.075303e-002
2.615001e+003, 3.111190e-002
2.616929e+003, 3.098720e-002
2.618858e+003, 3.114312e-002
2.620786e+003, 3.178845e-002
2.622715e+003, 3.102301e-002
2.624643e+003, 3.091133e-002
2.626572e+003, 3.169841e-002
2.628500e+003, 3.223132e-002
2.630428e+003, 3.201036e-002
2.632357e+003, 3.200373e-002
2.634285e+003, 3.267372e-002
2.636214e+003, 3.301476e-002
2.638142e+003, 3.296407e-002
2.640071e+003, 3.331469e-002
2.641999e+003, 3.409212e-002
2.643928e+003, 3.452249e-002
2.645856e+003, 3.408530e-002
2.647785e+003, 3.391331e-002
2.649713e+003, 3.382154e-002
2.651642e+003, 3.415324e-002
2.653570e+003, 3.466293e-002
2.655499e+003, 3.450844e-002
2.657427e+003, 3.443628e-002
2.659355e+003, 3.457522e-002
2.661284e+003, 3.471410e-002
2.663212e+003, 3.500220e-002
2.665141e+003, 3.528861e-002
2.667069e+003, 3.562099e-002
2.668998e+003, 3.579700e-002
2.670926e+003, 3.570423e-002
2.672855e+003, 3.567167e-002
2.674783e+003, 3.586345e-002
2.676712e+003, 3.627041e-002
2.678640e+003, 3.673491e-002
2.680569e+003, 3.686119e-002
2.682497e+003, 3.669675e-002
2.684426e+003, 3.704317e-002
2.686354e+003, 3.780143e-002
2.688282e+003, 3.834993e-002
2.690211e+003, 3.890574e-002
2.692139e+003, 3.913344e-002
2.694068e+003, 3.900731e-002
2.695996e+003, 3.904164e-002
2.697925e+003, 3.911682e-002
2.699853e+003, 3.997720e-002
2.701782e+003, 4.069131e-002
2.703710e+003, 4.086825e-002
2.705639e+003, 4.116647e-002
2.707567e+003, 4.138922e-002
2.709496e+003, 4.166389e-002
2.711424e+003, 4.154537e-002
2.713353e+003, 4.095366e-002
2.715281e+003, 4.171589e-002
2.717209e+003, 4.278997e-002
2.719138e+003, 4.296323e-002
2.721066e+003, 4.315191e-002
2.722995e+003, 4.371911e-002
2.724923e+003, 4.453284e-002
2.726852e+003, 4.489377e-002
2.728780e+003, 4.496650e-002
2.730709e+003, 4.519523e-002
2.732637e+003, 4.557527e-002
2.734566e+003, 4.585696e-002
2.736494e+003, 4.611295e-002
2.738423e+003, 4.651669e-002
2.740351e+003, 4.686579e-002
2.742280e+003, 4.694132e-002
2.744208e+003, 4.715126e-002
2.746136e+003, 4.812831e-002
2.748065e+003, 4.886404e-002
2.749993e+003, 4.898645e-002
2.751922e+003, 4.909439e-002
2.753850e+003, 4.939141e-002
2.755779e+003, 5.012416e-002
2.757707e+003, 5.080954e-002
2.759636e+003, 5.083422e-002
2.761564e+003, 5.098981e-002
2.763493e+003, 5.159679e-002
2.765421e+003, 5.215861e-002
2.767350e+003, 5.281682e-002
2.769278e+003, 5.366290e-002
2.771207e+003, 5.380823e-002
2.773135e+003, 5.377541e-002
2.775063e+003, 5.443551e-002
2.776992e+003, 5.510237e-002
2.778920e+003, 5.556066e-002
2.780849e+003, 5.625870e-002
2.782777e+003, 5.639574e-002
2.784706e+003, 5.656327e-002
2.786634e+003, 5.676363e-002
2.788563e+003, 5.768650e-002
2.790491e+003, 5.861471e-002
2.792420e+003, 5.913587e-002
2.794348e+003, 5.937989e-002
2.796277e+003, 5.947073e-002
2.798205e+003, 5.977030e-002
2.800134e+003, 6.035103e-002
2.802062e+003, 6.147486e-002
2.803990e+003, 6.231198e-002
2.805919e+003, 6.238359e-002
2.807847e+003, 6.311380e-002
2.809776e+003, 6.398641e-002
2.811704e+003, 6.415600e-002
2.813633e+003, 6.485880e-002
2.815561e+003, 6.629604e-002
2.817490e+003, 6.662178e-002
2.819418e+003, 6.607729e-002
2.821347e+003, 6.619378e-002
2.823275e+003, 6.713179e-002
2.825204e+003, 6.771171e-002
2.827132e+003, 6.818565e-002
2.829061e+003, 6.874266e-002
2.830989e+003, 6.977720e-002
2.832917e+003, 7.099520e-002
2.834846e+003, 7.142829e-002
2.836774e+003, 7.173112e-002
2.838703e+003, 7.321982e-002
2.840631e+003, 7.392395e-002
2.842560e+003, 7.388996e-002
2.844488e+003, 7.419685e-002
2.846417e+003, 7.423481e-002
2.848345e+003, 7.444954e-002
2.850274e+003, 7.554284e-002
2.852202e+003, 7.652493e-002
2.854131e+003, 7.693585e-002
2.856059e+003, 7.733193e-002
2.857988e+003, 7.745229e-002
2.859916e+003, 7.809813e-002
2.861844e+003, 7.951146e-002
2.863773e+003, 8.078542e-002
2.865701e+003, 8.172525e-002
2.867630e+003, 8.217999e-002
2.869558e+003, 8.317149e-002
2.871487e+003, 8.428290e-002
2.873415e+003, 8.536878e-002
2.875344e+003, 8.610348e-002
2.877272e+003, 8.713963e-002
2.879201e+003, 8.846185e-002
2.881129e+003, 8.896820e-002
2.883058e+003, 8.990532e-002
2.884986e+003, 9.065384e-002
2.886915e+003, 9.044579e-002
2.888843e+003, 9.121387e-002
2.890771e+003, 9.270660e-002
2.892700e+003, 9.387722e-002
2.894628e+003, 9.426019e-002
2.896557e+003, 9.525745e-002
2.898485e+003, 9.667061e-002
2.900414e+003, 9.759768e-002
2.902342e+003, 9.816134e-002
2.904271e+003, 9.965344e-002
2.906199e+003, 1.013435e-001
2.908128e+003, 1.031561e-001
2.910056e+003, 1.039448e-001
2.911985e+003, 1.047178e-001
2.913913e+003, 1.060672e-001
2.915842e+003, 1.074088e-001
2.917770e+003, 1.077417e-001
2.919698e+003, 1.088001e-001
2.921627e+003, 1.100778e-001
2.923555e+003, 1.110200e-001
2.925484e+003, 1.118223e-001
2.927412e+003, 1.129010e-001
2.929341e+003, 1.134801e-001
2.931269e+003, 1.143593e-001
2.933198e+003, 1.150346e-001
2.935126e+003, 1.162902e-001
2.937055e+003, 1.180052e-001
2.938983e+003, 1.190292e-001
2.940912e+003, 1.202448e-001
2.942840e+003, 1.214770e-001
2.944769e+003, 1.233111e-001
2.946697e+003, 1.258205e-001
2.948625e+003, 1.276316e-001
2.950554e+003, 1.289699e-001
2.952482e+003, 1.298459e-001
2.954411e+003, 1.309400e-001
2.956339e+003, 1.320587e-001
2.958268e+003, 1.334580e-001
2.960196e+003, 1.349388e-001
2.962125e+003, 1.361684e-001
2.964053e+003, 1.378849e-001
2.965982e+003, 1.398007e-001
2.967910e+003, 1.404947e-001
2.969839e+003, 1.414765e-001
2.971767e+003, 1.426841e-001
2.973696e+003, 1.434464e-001
2.975624e+003, 1.439300e-001
2.977552e+003, 1.449397e-001
2.979481e+003, 1.465718e-001
2.981409e+003, 1.484974e-001
2.983338e+003, 1.497044e-001
2.985266e+003, 1.509752e-001
2.987195e+003, 1.522835e-001
2.989123e+003, 1.544051e-001
2.991052e+003, 1.558219e-001
2.992980e+003, 1.567712e-001
2.994909e+003, 1.576832e-001
2.996837e+003, 1.585455e-001
2.998766e+003, 1.594726e-001
3.000694e+003, 1.610495e-001
3.002623e+003, 1.624927e-001
3.004551e+003, 1.634612e-001
3.006479e+003, 1.645035e-001
3.008408e+003, 1.660658e-001
3.010336e+003, 1.668626e-001
3.012265e+003, 1.675667e-001
3.014193e+003, 1.693093e-001
3.016122e+003, 1.700007e-001
3.018050e+003, 1.702729e-001
3.019979e+003, 1.710597e-001
3.021907e+003, 1.718711e-001
3.023836e+003, 1.731548e-001
3.025764e+003, 1.737788e-001
3.027693e+003, 1.732935e-001
3.029621e+003, 1.732247e-001
3.031550e+003, 1.738543e-001
3.033478e+003, 1.742378e-001
3.035406e+003, 1.742056e-001
3.037335e+003, 1.748111e-001
3.039263e+003, 1.745218e-001
3.041192e+003, 1.737351e-001
3.043120e+003, 1.730166e-001
3.045049e+003, 1.725038e-001
3.046977e+003, 1.725821e-001
3.048906e+003, 1.720780e-001
3.050834e+003, 1.714915e-001
3.052763e+003, 1.710624e-001
3.054691e+003, 1.713424e-001
3.056620e+003, 1.711203e-001
3.058548e+003, 1.703998e-001
3.060477e+003, 1.692735e-001
3.062405e+003, 1.685117e-001
3.064333e+003, 1.686735e-001
3.066262e+003, 1.683899e-001
3.068190e+003, 1.674385e-001
3.070119e+003, 1.654058e-001
3.072047e+003, 1.643123e-001
3.073976e+003, 1.648692e-001
3.075904e+003, 1.641281e-001
3.077833e+003, 1.638995e-001
3.079761e+003, 1.627420e-001
3.081690e+003, 1.613005e-001
3.083618e+003, 1.601214e-001
3.085547e+003, 1.593373e-001
3.087475e+003, 1.589760e-001
3.089404e+003, 1.571967e-001
3.091332e+003, 1.562713e-001
3.093260e+003, 1.562006e-001
3.095189e+003, 1.549366e-001
3.097117e+003, 1.531895e-001
3.099046e+003, 1.528910e-001
3.100974e+003, 1.526090e-001
3.102903e+003, 1.520173e-001
3.104831e+003, 1.509877e-001
3.106760e+003, 1.504485e-001
3.108688e+003, 1.501457e-001
3.110617e+003, 1.489506e-001
3.112545e+003, 1.482994e-001
3.114474e+003, 1.483352e-001
3.116402e+003, 1.471151e-001
3.118331e+003, 1.467587e-001
3.120259e+003, 1.474205e-001
3.122188e+003, 1.468290e-001
3.124116e+003, 1.452560e-001
3.126044e+003, 1.440863e-001
3.127973e+003, 1.435532e-001
3.129901e+003, 1.435502e-001
3.131830e+003, 1.432291e-001
3.133758e+003, 1.431021e-001
3.135687e+003, 1.431050e-001
3.137615e+003, 1.432610e-001
3.139544e+003, 1.435982e-001
3.141472e+003, 1.427524e-001
3.143401e+003, 1.428172e-001
3.145329e+003, 1.429048e-001
3.147258e+003, 1.423432e-001
3.149186e+003, 1.421411e-001
3.151115e+003, 1.421476e-001
3.153043e+003, 1.422151e-001
3.154971e+003, 1.423709e-001
3.156900e+003, 1.419188e-001
3.158828e+003, 1.414534e-001
3.160757e+003, 1.421401e-001
3.162685e+003, 1.433250e-001
3.164614e+003, 1.431478e-001
3.166542e+003, 1.422507e-001
3.168471e+003, 1.412084e-001
3.170399e+003, 1.415481e-001
3.172328e+003, 1.428111e-001
3.174256e+003, 1.434928e-001
3.176185e+003, 1.431464e-001
3.178113e+003, 1.423985e-001
3.180042e+003, 1.421972e-001
3.181970e+003, 1.427053e-001
3.183898e+003, 1.422953e-001
3.185827e+003, 1.410317e-001
3.187755e+003, 1.398904e-001
3.189684e+003, 1.397882e-001
3.191612e+003, 1.400253e-001
3.193541e+003, 1.401942e-001
3.195469e+003, 1.403347e-001
3.197398e+003, 1.394904e-001
3.199326e+003, 1.384573e-001
3.201255e+003, 1.376999e-001
3.203183e+003, 1.370944e-001
3.205112e+003, 1.361931e-001
3.207040e+003, 1.357574e-001
3.208969e+003, 1.347405e-001
3.210897e+003, 1.331476e-001
3.212825e+003, 1.325153e-001
3.214754e+003, 1.324757e-001
3.216682e+003, 1.316501e-001
3.218611e+003, 1.306387e-001
3.220539e+003, 1.296581e-001
3.222468e+003, 1.288353e-001
3.224396e+003, 1.279130e-001
3.226325e+003, 1.279614e-001
3.228253e+003, 1.269480e-001
3.230182e+003, 1.248875e-001
3.232110e+003, 1.241995e-001
3.234039e+003, 1.229371e-001
3.235967e+003, 1.229765e-001
3.237896e+003, 1.226747e-001
3.239824e+003, 1.213356e-001
3.241752e+003, 1.195575e-001
3.243681e+003, 1.175109e-001
3.245609e+003, 1.164895e-001
3.247538e+003, 1.159817e-001
3.249466e+003, 1.155889e-001
3.251395e+003, 1.148657e-001
3.253323e+003, 1.132919e-001
3.255252e+003, 1.120505e-001
3.257180e+003, 1.114701e-001
3.259109e+003, 1.111026e-001
3.261037e+003, 1.107203e-001
3.262966e+003, 1.103685e-001
3.264894e+003, 1.083631e-001
3.266823e+003, 1.057366e-001
3.268751e+003, 1.053888e-001
3.270679e+003, 1.065279e-001
3.272608e+003, 1.056108e-001
3.274536e+003, 1.053117e-001
3.276465e+003, 1.055061e-001
3.278393e+003, 1.047768e-001
3.280322e+003, 1.032981e-001
3.282250e+003, 1.030875e-001
3.284179e+003, 1.031042e-001
3.286107e+003, 1.018996e-001
3.288036e+003, 9.936385e-002
3.289964e+003, 9.815972e-002
3.291893e+003, 9.832334e-002
3.293821e+003, 9.886001e-002
3.295750e+003, 9.953515e-002
3.297678e+003, 9.877766e-002
3.299606e+003, 9.747481e-002
3.301535e+003, 9.722721e-002
3.303463e+003, 9.662548e-002
3.305392e+003, 9.573758e-002
3.307320e+003, 9.495558e-002
3.309249e+003, 9.407312e-002
3.311177e+003, 9.360395e-002
3.313106e+003, 9.359698e-002
3.315034e+003, 9.253811e-002
3.316963e+003, 9.144959e-002
3.318891e+003, 9.131452e-002
3.320820e+003, 9.100489e-002
3.322748e+003, 8.984007e-002
3.324677e+003, 8.902515e-002
3.326605e+003, 8.817358e-002
3.328533e+003, 8.878736e-002
3.330462e+003, 8.907393e-002
3.332390e+003, 8.786824e-002
3.334319e+003, 8.665264e-002
3.336247e+003, 8.629639e-002
3.338176e+003, 8.730806e-002
3.340104e+003, 8.771475e-002
3.342033e+003, 8.772816e-002
3.343961e+003, 8.734087e-002
3.345890e+003, 8.756083e-002
3.347818e+003, 8.758205e-002
3.349747e+003, 8.696602e-002
3.351675e+003, 8.637060e-002
3.353604e+003, 8.506361e-002
3.355532e+003, 8.428243e-002
3.357460e+003, 8.474889e-002
3.359389e+003, 8.503816e-002
3.361317e+003, 8.537553e-002
3.363246e+003, 8.593246e-002
3.365174e+003, 8.573209e-002
3.367103e+003, 8.539750e-002
3.369031e+003, 8.538764e-002
3.370960e+003, 8.526778e-002
3.372888e+003, 8.450424e-002
3.374817e+003, 8.505744e-002
3.376745e+003, 8.601809e-002
3.378674e+003, 8.522037e-002
3.380602e+003, 8.493225e-002
3.382531e+003, 8.521740e-002
3.384459e+003, 8.628060e-002
3.386387e+003, 8.662812e-002
3.388316e+003, 8.599644e-002
3.390244e+003, 8.762997e-002
3.392173e+003, 8.948389e-002
3.394101e+003, 8.986025e-002
3.396030e+003, 8.950422e-002
3.397958e+003, 9.030691e-002
3.399887e+003, 9.109498e-002
3.401815e+003, 9.278806e-002
3.403744e+003, 9.437740e-002
3.405672e+003, 9.497309e-002
3.407601e+003, 9.609891e-002
3.409529e+003, 9.771206e-002
3.411458e+003, 1.002373e-001
3.413386e+003, 1.034710e-001
3.415314e+003, 1.047715e-001
3.417243e+003, 1.056104e-001
3.419171e+003, 1.071765e-001
3.421100e+003, 1.096511e-001
3.423028e+003, 1.123443e-001
3.424957e+003, 1.148962e-001
3.426885e+003, 1.168084e-001
3.428814e+003, 1.189776e-001
3.430742e+003, 1.211250e-001
3.432671e+003, 1.230504e-001
3.434599e+003, 1.245003e-001
3.436528e+003, 1.262913e-001
3.438456e+003, 1.271221e-001
3.440385e+003, 1.268953e-001
3.442313e+003, 1.267168e-001
3.444241e+003, 1.257912e-001
3.446170e+003, 1.252167e-001
3.448098e+003, 1.261550e-001
3.450027e+003, 1.245984e-001
3.451955e+003, 1.220807e-001
3.453884e+003, 1.210686e-001
3.455812e+003, 1.197714e-001
3.457741e+003, 1.167601e-001
3.459669e+003, 1.142331e-001
3.461598e+003, 1.125373e-001
3.463526e+003, 1.104143e-001
3.465455e+003, 1.061763e-001
3.467383e+003, 1.023810e-001
3.469312e+003, 1.007742e-001
3.471240e+003, 9.853678e-002
3.473168e+003, 9.422767e-002
3.475097e+003, 9.134327e-002
3.477025e+003, 8.963224e-002
3.478954e+003, 8.568516e-002
3.480882e+003, 8.138224e-002
3.482811e+003, 7.844520e-002
3.484739e+003, 7.684492e-002
3.486668e+003, 7.583730e-002
3.488596e+003, 7.326061e-002
3.490525e+003, 6.960430e-002
3.492453e+003, 6.790526e-002
3.494382e+003, 6.616894e-002
3.496310e+003, 6.424486e-002
3.498239e+003, 6.269539e-002
3.500167e+003, 6.006438e-002
3.502095e+003, 5.779750e-002
3.504024e+003, 5.660662e-002
3.505952e+003, 5.507025e-002
3.507881e+003, 5.540684e-002
3.509809e+003, 5.439127e-002
3.511738e+003, 5.201798e-002
3.513666e+003, 5.110870e-002
3.515595e+003, 5.043096e-002
3.517523e+003, 4.842466e-002
3.519452e+003, 4.694168e-002
3.521380e+003, 4.592786e-002
3.523309e+003, 4.464431e-002
3.525237e+003, 4.409140e-002
3.527166e+003, 4.373447e-002
3.529094e+003, 4.290748e-002
3.531022e+003, 4.239335e-002
3.532951e+003, 4.038790e-002
3.534879e+003, 3.931508e-002
3.536808e+003, 3.928778e-002
3.538736e+003, 3.887572e-002
3.540665e+003, 3.841895e-002
3.542593e+003, 3.631304e-002
3.544522e+003, 3.444276e-002
3.546450e+003, 3.392613e-002
3.548379e+003, 3.415598e-002
3.550307e+003, 3.301881e-002
3.552236e+003, 3.178755e-002
3.554164e+003, 3.214115e-002
3.556093e+003, 3.209055e-002
3.558021e+003, 3.235688e-002
3.559949e+003, 3.165960e-002
3.561878e+003, 3.073062e-002
3.563806e+003, 3.016444e-002
3.565735e+003, 2.864289e-002
3.567663e+003, 2.754454e-002
3.569592e+003, 2.772383e-002
3.571520e+003, 2.737341e-002
3.573449e+003, 2.770892e-002
3.575377e+003, 2.787063e-002
3.577306e+003, 2.675522e-002
3.579234e+003, 2.582022e-002
3.581163e+003, 2.495773e-002
3.583091e+003, 2.364380e-002
3.585020e+003, 2.379175e-002
3.586948e+003, 2.425005e-002
3.588876e+003, 2.406710e-002
3.590805e+003, 2.235199e-002
3.592733e+003, 2.182692e-002
3.594662e+003, 2.273466e-002
3.596590e+003, 2.206488e-002
3.598519e+003, 2.170225e-002
3.600447e+003, 2.036761e-002
3.602376e+003, 2.082897e-002
3.604304e+003, 2.151487e-002
3.606233e+003, 2.073661e-002
3.608161e+003, 2.029155e-002
3.610090e+003, 1.930449e-002
3.612018e+003, 1.952112e-002
3.613947e+003, 1.872035e-002
3.615875e+003, 1.806401e-002
3.617803e+003, 1.747848e-002
3.619732e+003, 1.716240e-002
3.621660e+003, 1.775214e-002
3.623589e+003, 1.792383e-002
3.625517e+003, 1.751593e-002
3.627446e+003, 1.697964e-002
3.629374e+003, 1.658730e-002
3.631303e+003, 1.651615e-002
3.633231e+003, 1.602130e-002
3.635160e+003, 1.510676e-002
3.637088e+003, 1.385165e-002
3.639017e+003, 1.287139e-002
3.640945e+003, 1.332237e-002
3.642874e+003, 1.458359e-002
3.644802e+003, 1.658233e-002
3.646730e+003, 1.652064e-002
3.648659e+003, 1.388460e-002
3.650587e+003, 1.117152e-002
3.652516e+003, 1.139328e-002
3.654444e+003, 1.245481e-002
3.656373e+003, 1.177839e-002
3.658301e+003, 1.058817e-002
3.660230e+003, 9.177183e-003
3.662158e+003, 8.539239e-003
3.664087e+003, 9.316741e-003
3.666015e+003, 1.012507e-002
3.667944e+003, 9.815256e-003
3.669872e+003, 9.424324e-003
3.671801e+003, 8.651525e-003
3.673729e+003, 8.422606e-003
3.675657e+003, 8.366935e-003
3.677586e+003, 8.028630e-003
3.679514e+003, 8.477787e-003
3.681443e+003, 8.225875e-003
3.683371e+003, 7.069527e-003
3.685300e+003, 7.418790e-003
3.687228e+003, 7.251047e-003
3.689157e+003, 6.233936e-003
3.691085e+003, 7.778829e-003
3.693014e+003, 9.059162e-003
3.694942e+003, 8.589051e-003
3.696871e+003, 7.944711e-003
3.698799e+003, 8.528927e-003
3.700728e+003, 9.173932e-003
3.702656e+003, 9.617432e-003
3.704584e+003, 8.304778e-003
3.706513e+003, 7.133347e-003
3.708441e+003, 7.783013e-003
3.710370e+003, 8.669681e-003
3.712298e+003, 9.298529e-003
3.714227e+003, 1.074756e-002
3.716155e+003, 9.963146e-003
3.718084e+003, 8.352775e-003
3.720012e+003, 8.292343e-003
3.721941e+003, 7.528579e-003
3.723869e+003, 6.478148e-003
3.725798e+003, 6.696502e-003
3.727726e+003, 7.342204e-003
3.729655e+003, 6.550537e-003
3.731583e+003, 7.334840e-003
3.733511e+003, 1.080830e-002
3.735440e+003, 1.020296e-002
3.737368e+003, 8.834008e-003
3.739297e+003, 9.680222e-003
3.741225e+003, 8.847247e-003
3.743154e+003, 7.518673e-003
3.745082e+003, 6.907374e-003
3.747011e+003, 6.988207e-003
3.748939e+003, 7.568277e-003
3.750868e+003, 7.837769e-003
3.752796e+003, 7.595721e-003
3.754725e+003, 9.360554e-003
3.756653e+003, 1.000815e-002
3.758582e+003, 9.622972e-003
3.760510e+003, 8.583985e-003
3.762438e+003, 8.828457e-003
3.764367e+003, 9.342292e-003
3.766295e+003, 9.595684e-003
3.768224e+003, 9.215022e-003
3.770152e+003, 9.312543e-003
3.772081e+003, 1.020171e-002
3.774009e+003, 9.673315e-003
3.775938e+003, 8.853620e-003
3.777866e+003, 7.421985e-003
3.779795e+003, 7.886653e-003
3.781723e+003, 9.142942e-003
3.783652e+003, 9.706983e-003
3.785580e+003, 9.039314e-003
3.787509e+003, 9.164200e-003
3.789437e+003, 1.013010e-002
3.791365e+003, 1.021526e-002
3.793294e+003, 7.597171e-003
3.795222e+003, 5.738429e-003
3.797151e+003, 7.290252e-003
3.799079e+003, 8.838034e-003
3.801008e+003, 8.696715e-003
3.802936e+003, 7.698174e-003
3.804865e+003, 8.135808e-003
3.806793e+003, 7.647904e-003
3.808722e+003, 8.311068e-003
3.810650e+003, 9.898711e-003
3.812579e+003, 1.109135e-002
3.814507e+003, 1.026782e-002
3.816436e+003, 8.630515e-003
3.818364e+003, 9.459782e-003
3.820292e+003, 9.196306e-003
3.822221e+003, 8.989609e-003
3.824149e+003, 1.057152e-002
3.826078e+003, 9.657711e-003
3.828006e+003, 7.624784e-003
3.829935e+003, 6.999663e-003
3.831863e+003, 8.100668e-003
3.833792e+003, 8.863668e-003
3.835720e+003, 9.246672e-003
3.837649e+003, 8.854186e-003
3.839577e+003, 8.825663e-003
3.841506e+003, 8.620071e-003
3.843434e+003, 8.614530e-003
3.845363e+003, 7.857191e-003
3.847291e+003, 7.992702e-003
3.849219e+003, 8.536513e-003
3.851148e+003, 8.556854e-003
3.853076e+003, 7.197912e-003
3.855005e+003, 6.852658e-003
3.856933e+003, 7.456685e-003
3.858862e+003, 8.689695e-003
3.860790e+003, 8.946965e-003
3.862719e+003, 8.714275e-003
3.864647e+003, 8.462138e-003
3.866576e+003, 8.276594e-003
3.868504e+003, 7.020394e-003
3.870433e+003, 5.249645e-003
3.872361e+003, 6.241302e-003
3.874290e+003, 8.059208e-003
3.876218e+003, 8.603350e-003
3.878146e+003, 8.377350e-003
3.880075e+003, 7.875038e-003
3.882003e+003, 7.798698e-003
3.883932e+003, 7.962495e-003
3.885860e+003, 8.383345e-003
3.887789e+003, 1.026339e-002
3.889717e+003, 1.163992e-002
3.891646e+003, 1.089692e-002
3.893574e+003, 8.808077e-003
3.895503e+003, 9.084345e-003
3.897431e+003, 8.610556e-003
3.899360e+003, 7.303127e-003
3.901288e+003, 6.899204e-003
3.903217e+003, 7.499023e-003
3.905145e+003, 8.035137e-003
3.907073e+003, 8.425907e-003
3.909002e+003, 8.794554e-003
3.910930e+003, 9.294639e-003
3.912859e+003, 1.033422e-002
3.914787e+003, 9.762675e-003
3.916716e+003, 1.001236e-002
3.918644e+003, 9.794308e-003
3.920573e+003, 8.130852e-003
3.922501e+003, 7.732319e-003
3.924430e+003, 8.903065e-003
3.926358e+003, 9.792662e-003
3.928287e+003, 8.762097e-003
3.930215e+003, 7.881069e-003
3.932144e+003, 8.851587e-003
3.934072e+003, 8.733426e-003
3.936000e+003, 8.052987e-003
3.937929e+003, 8.827991e-003
3.939857e+003, 8.930228e-003
3.941786e+003, 8.818771e-003
3.943714e+003, 9.160959e-003
3.945643e+003, 8.987083e-003
3.947571e+003, 8.058324e-003
3.949500e+003, 8.227887e-003
3.951428e+003, 8.242450e-003
3.953357e+003, 8.774566e-003
3.955285e+003, 1.030842e-002
3.957214e+003, 1.056934e-002
3.959142e+003, 1.042492e-002
3.961071e+003, 8.785130e-003
3.962999e+003, 7.914942e-003
3.964927e+003, 9.290101e-003
3.966856e+003, 1.065441e-002
3.968784e+003, 1.062402e-002
3.970713e+003, 9.560619e-003
3.972641e+003, 1.086919e-002
3.974570e+003, 1.071671e-002
3.976498e+003, 9.678089e-003
3.978427e+003, 9.748045e-003
3.980355e+003, 1.063776e-002
3.982284e+003, 1.086724e-002
3.984212e+003, 1.055346e-002
3.986141e+003, 1.082115e-002
3.988069e+003, 1.101308e-002
3.989998e+003, 9.948254e-003
3.991926e+003, 9.562360e-003
3.993854e+003, 9.914245e-003
3.995783e+003, 9.608680e-003
3.997711e+003, 9.970739e-003
3.999640e+003, 9.976081e-003
4.001568e+003, 0.000000e+000
##END=



