##NAMES=Fayalite
##RRUFFID=R070293
##IDEAL CHEMISTRY=Fe^2+^_2_SiO_4_
##LOCALITY=Pike's Peak, Teller County, Colorado, USA
##OWNER=RRUFF
##SOURCE=Michael Scott
##DESCRIPTION=Black single crystal fragment with internal hints of red and green
##STATUS=The identification of this mineral has been confirmed by X-ray diffraction and chemical analysis
##URL=rruff.info/R070293
##MEASURED CHEMISTRY=(Fe^2+^_1.87_Mn^2+^_0.13_)_Î£=2_Si_1.00_O_4_ ; trace amounts of Mg
3.991926e+002, 4.181489e-002
4.011211e+002, 4.187331e-002
4.030495e+002, 4.394244e-002
4.049780e+002, 4.395163e-002
4.069065e+002, 4.629355e-002
4.088349e+002, 5.088817e-002
4.107634e+002, 5.285553e-002
4.126919e+002, 5.491212e-002
4.146203e+002, 5.859977e-002
4.165488e+002, 6.184272e-002
4.184773e+002, 6.554583e-002
4.204057e+002, 7.033599e-002
4.223342e+002, 7.551134e-002
4.242627e+002, 8.114466e-002
4.261911e+002, 8.619306e-002
4.281196e+002, 9.208972e-002
4.300481e+002, 9.928477e-002
4.319765e+002, 1.066454e-001
4.339050e+002, 1.142594e-001
4.358335e+002, 1.216951e-001
4.377619e+002, 1.300831e-001
4.396904e+002, 1.375905e-001
4.416189e+002, 1.448043e-001
4.435473e+002, 1.513168e-001
4.454758e+002, 1.568358e-001
4.474043e+002, 1.624390e-001
4.493327e+002, 1.677286e-001
4.512612e+002, 1.727392e-001
4.531897e+002, 1.788505e-001
4.551181e+002, 1.865945e-001
4.570466e+002, 1.934207e-001
4.589751e+002, 1.991403e-001
4.609035e+002, 2.037677e-001
4.628320e+002, 2.059314e-001
4.647605e+002, 2.075058e-001
4.666889e+002, 2.074074e-001
4.686174e+002, 2.047226e-001
4.705459e+002, 2.001888e-001
4.724743e+002, 1.947532e-001
4.744028e+002, 1.892849e-001
4.763313e+002, 1.836897e-001
4.782597e+002, 1.776122e-001
4.801882e+002, 1.728319e-001
4.821167e+002, 1.687819e-001
4.840451e+002, 1.655859e-001
4.859736e+002, 1.631929e-001
4.879021e+002, 1.622161e-001
4.898305e+002, 1.612989e-001
4.917590e+002, 1.598249e-001
4.936875e+002, 1.589799e-001
4.956159e+002, 1.580923e-001
4.975444e+002, 1.563057e-001
4.994729e+002, 1.542349e-001
5.014013e+002, 1.513347e-001
5.033298e+002, 1.480619e-001
5.052583e+002, 1.442225e-001
5.071867e+002, 1.399453e-001
5.091152e+002, 1.354710e-001
5.110437e+002, 1.308691e-001
5.129721e+002, 1.255152e-001
5.149006e+002, 1.196184e-001
5.168290e+002, 1.142403e-001
5.187575e+002, 1.093623e-001
5.206860e+002, 1.040907e-001
5.226144e+002, 9.873983e-002
5.245429e+002, 9.403896e-002
5.264714e+002, 9.032261e-002
5.283998e+002, 8.689815e-002
5.303283e+002, 8.400353e-002
5.322568e+002, 8.193679e-002
5.341852e+002, 8.120595e-002
5.361137e+002, 8.189442e-002
5.380422e+002, 8.373157e-002
5.399706e+002, 8.623216e-002
5.418991e+002, 8.926439e-002
5.438276e+002, 9.302206e-002
5.457560e+002, 9.692023e-002
5.476845e+002, 1.002169e-001
5.496130e+002, 1.027792e-001
5.515414e+002, 1.053053e-001
5.534699e+002, 1.072733e-001
5.553984e+002, 1.080974e-001
5.573268e+002, 1.083789e-001
5.592553e+002, 1.078184e-001
5.611838e+002, 1.066773e-001
5.631122e+002, 1.056814e-001
5.650407e+002, 1.040386e-001
5.669692e+002, 1.016928e-001
5.688976e+002, 9.862984e-002
5.708261e+002, 9.457494e-002
5.727546e+002, 9.036443e-002
5.746830e+002, 8.638170e-002
5.766115e+002, 8.194229e-002
5.785400e+002, 7.762485e-002
5.804684e+002, 7.313383e-002
5.823969e+002, 6.818889e-002
5.843254e+002, 6.333534e-002
5.862538e+002, 5.888164e-002
5.881823e+002, 5.508312e-002
5.901108e+002, 5.095399e-002
5.920392e+002, 4.695669e-002
5.939677e+002, 4.355716e-002
5.958962e+002, 4.034568e-002
5.978246e+002, 3.762196e-002
5.997531e+002, 3.537454e-002
6.016816e+002, 3.346074e-002
6.036100e+002, 3.223791e-002
6.055385e+002, 3.148559e-002
6.074670e+002, 3.084567e-002
6.093954e+002, 3.009344e-002
6.113239e+002, 2.956018e-002
6.132524e+002, 2.920145e-002
6.151808e+002, 2.897814e-002
6.171093e+002, 2.848276e-002
6.190378e+002, 2.807934e-002
6.209662e+002, 2.775479e-002
6.228947e+002, 2.731489e-002
6.248232e+002, 2.709321e-002
6.267516e+002, 2.701387e-002
6.286801e+002, 2.683820e-002
6.306086e+002, 2.663971e-002
6.325370e+002, 2.676144e-002
6.344655e+002, 2.701062e-002
6.363940e+002, 2.719494e-002
6.383224e+002, 2.734227e-002
6.402509e+002, 2.755869e-002
6.421794e+002, 2.776513e-002
6.441078e+002, 2.809316e-002
6.460363e+002, 2.827129e-002
6.479648e+002, 2.836960e-002
6.498932e+002, 2.868345e-002
6.518217e+002, 2.921496e-002
6.537502e+002, 2.969515e-002
6.556786e+002, 2.995883e-002
6.576071e+002, 3.008309e-002
6.595356e+002, 3.059887e-002
6.614641e+002, 3.120165e-002
6.633925e+002, 3.151509e-002
6.653210e+002, 3.179543e-002
6.672495e+002, 3.239613e-002
6.691779e+002, 3.283519e-002
6.711064e+002, 3.309572e-002
6.730349e+002, 3.344097e-002
6.749633e+002, 3.416286e-002
6.768918e+002, 3.465391e-002
6.788203e+002, 3.484757e-002
6.807487e+002, 3.515112e-002
6.826772e+002, 3.562025e-002
6.846057e+002, 3.620605e-002
6.865341e+002, 3.663028e-002
6.884626e+002, 3.711163e-002
6.903911e+002, 3.780079e-002
6.923195e+002, 3.823557e-002
6.942480e+002, 3.886205e-002
6.961765e+002, 3.952770e-002
6.981049e+002, 4.028876e-002
7.000334e+002, 4.113133e-002
7.019619e+002, 4.196145e-002
7.038903e+002, 4.275260e-002
7.058188e+002, 4.353708e-002
7.077473e+002, 4.430123e-002
7.096757e+002, 4.521780e-002
7.116042e+002, 4.618235e-002
7.135327e+002, 4.709971e-002
7.154611e+002, 4.805171e-002
7.173896e+002, 4.929849e-002
7.193181e+002, 5.032629e-002
7.212465e+002, 5.132546e-002
7.231750e+002, 5.263201e-002
7.251035e+002, 5.402884e-002
7.270319e+002, 5.547670e-002
7.289604e+002, 5.689429e-002
7.308889e+002, 5.826849e-002
7.328173e+002, 5.972245e-002
7.347458e+002, 6.123434e-002
7.366743e+002, 6.267159e-002
7.386027e+002, 6.418038e-002
7.405312e+002, 6.579574e-002
7.424597e+002, 6.742180e-002
7.443881e+002, 6.938103e-002
7.463166e+002, 7.133050e-002
7.482451e+002, 7.329969e-002
7.501735e+002, 7.547937e-002
7.521020e+002, 7.743932e-002
7.540305e+002, 7.961644e-002
7.559589e+002, 8.208169e-002
7.578874e+002, 8.469273e-002
7.598159e+002, 8.735058e-002
7.617443e+002, 8.991471e-002
7.636728e+002, 9.264244e-002
7.656013e+002, 9.565923e-002
7.675297e+002, 9.890963e-002
7.694582e+002, 1.020941e-001
7.713867e+002, 1.053483e-001
7.733151e+002, 1.086779e-001
7.752436e+002, 1.122867e-001
7.771721e+002, 1.160270e-001
7.791005e+002, 1.197119e-001
7.810290e+002, 1.236071e-001
7.829575e+002, 1.277339e-001
7.848859e+002, 1.319368e-001
7.868144e+002, 1.362299e-001
7.887429e+002, 1.407829e-001
7.906713e+002, 1.456034e-001
7.925998e+002, 1.503160e-001
7.945283e+002, 1.551694e-001
7.964567e+002, 1.602601e-001
7.983852e+002, 1.655151e-001
8.003137e+002, 1.709305e-001
8.022421e+002, 1.763357e-001
8.041706e+002, 1.819431e-001
8.060991e+002, 1.879062e-001
8.080275e+002, 1.941754e-001
8.099560e+002, 2.003670e-001
8.118845e+002, 2.067594e-001
8.138129e+002, 2.134921e-001
8.157414e+002, 2.203353e-001
8.176699e+002, 2.273898e-001
8.195983e+002, 2.344345e-001
8.215268e+002, 2.411429e-001
8.234553e+002, 2.462121e-001
8.253837e+002, 2.475614e-001
8.273122e+002, 2.421100e-001
8.292407e+002, 2.279762e-001
8.311691e+002, 2.083436e-001
8.330976e+002, 1.931932e-001
8.350261e+002, 1.901132e-001
8.369545e+002, 1.976855e-001
8.388830e+002, 2.099971e-001
8.408115e+002, 2.229464e-001
8.427399e+002, 2.350552e-001
8.446684e+002, 2.458845e-001
8.465969e+002, 2.550634e-001
8.485253e+002, 2.628355e-001
8.504538e+002, 2.694310e-001
8.523823e+002, 2.745493e-001
8.543107e+002, 2.777695e-001
8.562392e+002, 2.801199e-001
8.581677e+002, 2.816615e-001
8.600961e+002, 2.820892e-001
8.620246e+002, 2.812267e-001
8.639531e+002, 2.791517e-001
8.658815e+002, 2.761350e-001
8.678100e+002, 2.721789e-001
8.697385e+002, 2.673237e-001
8.716669e+002, 2.618406e-001
8.735954e+002, 2.558310e-001
8.755239e+002, 2.495222e-001
8.774523e+002, 2.429794e-001
8.793808e+002, 2.361531e-001
8.813093e+002, 2.293546e-001
8.832377e+002, 2.227194e-001
8.851662e+002, 2.163803e-001
8.870947e+002, 2.105428e-001
8.890231e+002, 2.050365e-001
8.909516e+002, 1.994235e-001
8.928801e+002, 1.938663e-001
8.948085e+002, 1.891484e-001
8.967370e+002, 1.850971e-001
8.986655e+002, 1.810491e-001
9.005939e+002, 1.771162e-001
9.025224e+002, 1.736271e-001
9.044509e+002, 1.706267e-001
9.063793e+002, 1.677841e-001
9.083078e+002, 1.649496e-001
9.102363e+002, 1.622184e-001
9.121647e+002, 1.588971e-001
9.140932e+002, 1.543952e-001
9.160217e+002, 1.487602e-001
9.179501e+002, 1.417527e-001
9.198786e+002, 1.329082e-001
9.218071e+002, 1.225160e-001
9.237355e+002, 1.122651e-001
9.256640e+002, 1.051817e-001
9.275925e+002, 1.032568e-001
9.295209e+002, 1.061490e-001
9.314494e+002, 1.126043e-001
9.333779e+002, 1.221017e-001
9.353063e+002, 1.339023e-001
9.372348e+002, 1.472203e-001
9.391633e+002, 1.596091e-001
9.410917e+002, 1.669227e-001
9.430202e+002, 1.663591e-001
9.449487e+002, 1.593210e-001
9.468771e+002, 1.488180e-001
9.488056e+002, 1.375662e-001
9.507341e+002, 1.272006e-001
9.526625e+002, 1.186264e-001
9.545910e+002, 1.120230e-001
9.565195e+002, 1.076050e-001
9.584479e+002, 1.046107e-001
9.603764e+002, 1.025126e-001
9.623049e+002, 1.008155e-001
9.642333e+002, 9.911207e-002
9.661618e+002, 9.718972e-002
9.680903e+002, 9.522541e-002
9.700187e+002, 9.293689e-002
9.719472e+002, 9.040023e-002
9.738757e+002, 8.783536e-002
9.758041e+002, 8.520564e-002
9.777326e+002, 8.230042e-002
9.796611e+002, 7.922849e-002
9.815895e+002, 7.630930e-002
9.835180e+002, 7.349546e-002
9.854465e+002, 7.049439e-002
9.873749e+002, 6.749687e-002
9.893034e+002, 6.461978e-002
9.912319e+002, 6.176507e-002
9.931603e+002, 5.886260e-002
9.950888e+002, 5.602304e-002
9.970173e+002, 5.340908e-002
9.989457e+002, 5.073120e-002
1.000874e+003, 4.796278e-002
1.002803e+003, 4.531538e-002
1.004731e+003, 4.273397e-002
1.006660e+003, 4.050386e-002
1.008588e+003, 3.829265e-002
1.010517e+003, 3.608385e-002
1.012445e+003, 3.393437e-002
1.014373e+003, 3.212130e-002
1.016302e+003, 3.048941e-002
1.018230e+003, 2.893527e-002
1.020159e+003, 2.753222e-002
1.022087e+003, 2.639760e-002
1.024016e+003, 2.549096e-002
1.025944e+003, 2.484418e-002
1.027873e+003, 2.427294e-002
1.029801e+003, 2.373373e-002
1.031730e+003, 2.316699e-002
1.033658e+003, 2.261570e-002
1.035587e+003, 2.210701e-002
1.037515e+003, 2.165469e-002
1.039443e+003, 2.114174e-002
1.041372e+003, 2.055386e-002
1.043300e+003, 2.012198e-002
1.045229e+003, 1.986250e-002
1.047157e+003, 1.952649e-002
1.049086e+003, 1.910791e-002
1.051014e+003, 1.872207e-002
1.052943e+003, 1.829020e-002
1.054871e+003, 1.771977e-002
1.056800e+003, 1.738903e-002
1.058728e+003, 1.701328e-002
1.060657e+003, 1.664205e-002
1.062585e+003, 1.618773e-002
1.064514e+003, 1.566345e-002
1.066442e+003, 1.517992e-002
1.068370e+003, 1.498675e-002
1.070299e+003, 1.490884e-002
1.072227e+003, 1.462134e-002
1.074156e+003, 1.430360e-002
1.076084e+003, 1.403852e-002
1.078013e+003, 1.383361e-002
1.079941e+003, 1.377076e-002
1.081870e+003, 1.354307e-002
1.083798e+003, 1.335052e-002
1.085727e+003, 1.304767e-002
1.087655e+003, 1.271331e-002
1.089584e+003, 1.252806e-002
1.091512e+003, 1.235070e-002
1.093441e+003, 1.205104e-002
1.095369e+003, 1.184597e-002
1.097297e+003, 1.169983e-002
1.099226e+003, 1.161208e-002
1.101154e+003, 1.146665e-002
1.103083e+003, 1.131724e-002
1.105011e+003, 1.110975e-002
1.106940e+003, 1.096119e-002
1.108868e+003, 1.080700e-002
1.110797e+003, 1.069599e-002
1.112725e+003, 1.059365e-002
1.114654e+003, 1.064195e-002
1.116582e+003, 1.061093e-002
1.118511e+003, 1.057429e-002
1.120439e+003, 1.054882e-002
1.122368e+003, 1.046559e-002
1.124296e+003, 1.035731e-002
1.126224e+003, 1.047361e-002
1.128153e+003, 1.048994e-002
1.130081e+003, 1.057903e-002
1.132010e+003, 1.055290e-002
1.133938e+003, 1.033209e-002
1.135867e+003, 1.024728e-002
1.137795e+003, 1.023531e-002
1.139724e+003, 1.013000e-002
1.141652e+003, 1.003433e-002
1.143581e+003, 1.002708e-002
1.145509e+003, 1.001657e-002
1.147438e+003, 9.861648e-003
1.149366e+003, 9.660082e-003
1.151295e+003, 9.511607e-003
1.153223e+003, 9.406163e-003
1.155151e+003, 9.305801e-003
1.157080e+003, 9.169001e-003
1.159008e+003, 8.974111e-003
1.160937e+003, 9.002632e-003
1.162865e+003, 8.907065e-003
1.164794e+003, 8.776163e-003
1.166722e+003, 8.713800e-003
1.168651e+003, 8.717409e-003
1.170579e+003, 8.541683e-003
1.172508e+003, 8.349563e-003
1.174436e+003, 8.223401e-003
1.176365e+003, 8.186482e-003
1.178293e+003, 8.139445e-003
1.180222e+003, 8.131709e-003
1.182150e+003, 8.126093e-003
1.184078e+003, 8.024129e-003
1.186007e+003, 7.913116e-003
1.187935e+003, 7.897564e-003
1.189864e+003, 7.857024e-003
1.191792e+003, 7.879541e-003
1.193721e+003, 7.880725e-003
1.195649e+003, 7.791258e-003
1.197578e+003, 7.639265e-003
1.199506e+003, 7.649027e-003
1.201435e+003, 7.610507e-003
1.203363e+003, 7.513336e-003
1.205292e+003, 7.453185e-003
1.207220e+003, 7.464583e-003
1.209149e+003, 7.519870e-003
1.211077e+003, 7.622240e-003
1.213005e+003, 7.608850e-003
1.214934e+003, 7.550296e-003
1.216862e+003, 7.505636e-003
1.218791e+003, 7.490252e-003
1.220719e+003, 7.508297e-003
1.222648e+003, 7.481290e-003
1.224576e+003, 7.447291e-003
1.226505e+003, 7.533453e-003
1.228433e+003, 7.492913e-003
1.230362e+003, 7.514723e-003
1.232290e+003, 7.593753e-003
1.234219e+003, 7.580501e-003
1.236147e+003, 7.555002e-003
1.238076e+003, 7.688535e-003
1.240004e+003, 7.755612e-003
1.241932e+003, 7.834097e-003
1.243861e+003, 7.750343e-003
1.245789e+003, 7.799377e-003
1.247718e+003, 8.047342e-003
1.249646e+003, 8.093024e-003
1.251575e+003, 8.107533e-003
1.253503e+003, 8.192204e-003
1.255432e+003, 8.235508e-003
1.257360e+003, 8.225489e-003
1.259289e+003, 8.300671e-003
1.261217e+003, 8.448279e-003
1.263146e+003, 8.616612e-003
1.265074e+003, 8.724092e-003
1.267003e+003, 8.653669e-003
1.268931e+003, 8.713441e-003
1.270859e+003, 8.827695e-003
1.272788e+003, 8.886518e-003
1.274716e+003, 9.001671e-003
1.276645e+003, 9.123558e-003
1.278573e+003, 9.224429e-003
1.280502e+003, 9.284287e-003
1.282430e+003, 9.243096e-003
1.284359e+003, 9.306108e-003
1.286287e+003, 9.384396e-003
1.288216e+003, 9.509685e-003
1.290144e+003, 9.551315e-003
1.292073e+003, 9.633050e-003
1.294001e+003, 9.703306e-003
1.295930e+003, 9.783607e-003
1.297858e+003, 9.904156e-003
1.299786e+003, 9.943901e-003
1.301715e+003, 9.976082e-003
1.303643e+003, 1.002740e-002
1.305572e+003, 9.931983e-003
1.307500e+003, 9.843761e-003
1.309429e+003, 9.950330e-003
1.311357e+003, 1.014051e-002
1.313286e+003, 1.023220e-002
1.315214e+003, 1.029035e-002
1.317143e+003, 1.027420e-002
1.319071e+003, 1.033730e-002
1.321000e+003, 1.036757e-002
1.322928e+003, 1.037101e-002
1.324857e+003, 1.045246e-002
1.326785e+003, 1.057213e-002
1.328714e+003, 1.056382e-002
1.330642e+003, 1.053007e-002
1.332570e+003, 1.071312e-002
1.334499e+003, 1.076714e-002
1.336427e+003, 1.082407e-002
1.338356e+003, 1.101339e-002
1.340284e+003, 1.110489e-002
1.342213e+003, 1.100520e-002
1.344141e+003, 1.101828e-002
1.346070e+003, 1.117092e-002
1.347998e+003, 1.115665e-002
1.349927e+003, 1.119563e-002
1.351855e+003, 1.120783e-002
1.353784e+003, 1.120261e-002
1.355712e+003, 1.126751e-002
1.357641e+003, 1.143671e-002
1.359569e+003, 1.152787e-002
1.361497e+003, 1.155388e-002
1.363426e+003, 1.157177e-002
1.365354e+003, 1.171972e-002
1.367283e+003, 1.190329e-002
1.369211e+003, 1.204993e-002
1.371140e+003, 1.208915e-002
1.373068e+003, 1.220724e-002
1.374997e+003, 1.226168e-002
1.376925e+003, 1.221033e-002
1.378854e+003, 1.230065e-002
1.380782e+003, 1.246348e-002
1.382711e+003, 1.247953e-002
1.384639e+003, 1.258547e-002
1.386568e+003, 1.284992e-002
1.388496e+003, 1.297284e-002
1.390424e+003, 1.305869e-002
1.392353e+003, 1.326474e-002
1.394281e+003, 1.348078e-002
1.396210e+003, 1.355728e-002
1.398138e+003, 1.360405e-002
1.400067e+003, 1.369535e-002
1.401995e+003, 1.367706e-002
1.403924e+003, 1.381992e-002
1.405852e+003, 1.404163e-002
1.407781e+003, 1.414314e-002
1.409709e+003, 1.414119e-002
1.411638e+003, 1.429535e-002
1.413566e+003, 1.441129e-002
1.415495e+003, 1.448123e-002
1.417423e+003, 1.473445e-002
1.419351e+003, 1.498252e-002
1.421280e+003, 1.489003e-002
1.423208e+003, 1.494729e-002
1.425137e+003, 1.506348e-002
1.427065e+003, 1.519773e-002
1.428994e+003, 1.526645e-002
1.430922e+003, 1.529731e-002
1.432851e+003, 1.534712e-002
1.434779e+003, 1.559917e-002
1.436708e+003, 1.588226e-002
1.438636e+003, 1.577964e-002
1.440565e+003, 1.569741e-002
1.442493e+003, 1.580028e-002
1.444422e+003, 1.589714e-002
1.446350e+003, 1.597371e-002
1.448278e+003, 1.599048e-002
1.450207e+003, 1.596357e-002
1.452135e+003, 1.598894e-002
1.454064e+003, 1.615592e-002
1.455992e+003, 1.655618e-002
1.457921e+003, 1.658104e-002
1.459849e+003, 1.614890e-002
1.461778e+003, 1.594441e-002
1.463706e+003, 1.607183e-002
1.465635e+003, 1.614321e-002
1.467563e+003, 1.611149e-002
1.469492e+003, 1.619283e-002
1.471420e+003, 1.624299e-002
1.473349e+003, 1.633168e-002
1.475277e+003, 1.622735e-002
1.477205e+003, 1.606917e-002
1.479134e+003, 1.601789e-002
1.481062e+003, 1.600009e-002
1.482991e+003, 1.600817e-002
1.484919e+003, 1.612059e-002
1.486848e+003, 1.620882e-002
1.488776e+003, 1.628862e-002
1.490705e+003, 1.614243e-002
1.492633e+003, 1.600929e-002
1.494562e+003, 1.624294e-002
1.496490e+003, 1.643282e-002
1.498419e+003, 1.631042e-002
1.500347e+003, 1.625776e-002
1.502276e+003, 1.616435e-002
1.504204e+003, 1.642716e-002
1.506132e+003, 1.692119e-002
1.508061e+003, 1.675583e-002
1.509989e+003, 1.640328e-002
1.511918e+003, 1.639490e-002
1.513846e+003, 1.636408e-002
1.515775e+003, 1.652262e-002
1.517703e+003, 1.671981e-002
1.519632e+003, 1.692954e-002
1.521560e+003, 1.704207e-002
1.523489e+003, 1.680757e-002
1.525417e+003, 1.676275e-002
1.527346e+003, 1.682583e-002
1.529274e+003, 1.676205e-002
1.531203e+003, 1.693717e-002
1.533131e+003, 1.719162e-002
1.535059e+003, 1.723867e-002
1.536988e+003, 1.744630e-002
1.538916e+003, 1.793130e-002
1.540845e+003, 1.796248e-002
1.542773e+003, 1.773958e-002
1.544702e+003, 1.748920e-002
1.546630e+003, 1.743156e-002
1.548559e+003, 1.747378e-002
1.550487e+003, 1.750377e-002
1.552416e+003, 1.746668e-002
1.554344e+003, 1.766001e-002
1.556273e+003, 1.790978e-002
1.558201e+003, 1.847131e-002
1.560130e+003, 1.852944e-002
1.562058e+003, 1.810084e-002
1.563986e+003, 1.796945e-002
1.565915e+003, 1.796912e-002
1.567843e+003, 1.796069e-002
1.569772e+003, 1.815818e-002
1.571700e+003, 1.818038e-002
1.573629e+003, 1.826539e-002
1.575557e+003, 1.870130e-002
1.577486e+003, 1.861054e-002
1.579414e+003, 1.823134e-002
1.581343e+003, 1.830531e-002
1.583271e+003, 1.828955e-002
1.585200e+003, 1.814307e-002
1.587128e+003, 1.816924e-002
1.589057e+003, 1.847324e-002
1.590985e+003, 1.857688e-002
1.592913e+003, 1.845140e-002
1.594842e+003, 1.840492e-002
1.596770e+003, 1.857014e-002
1.598699e+003, 1.867391e-002
1.600627e+003, 1.872918e-002
1.602556e+003, 1.884236e-002
1.604484e+003, 1.890917e-002
1.606413e+003, 1.881984e-002
1.608341e+003, 1.890825e-002
1.610270e+003, 1.897248e-002
1.612198e+003, 1.912930e-002
1.614127e+003, 1.932243e-002
1.616055e+003, 1.965718e-002
1.617984e+003, 1.949740e-002
1.619912e+003, 1.922921e-002
1.621840e+003, 1.943929e-002
1.623769e+003, 1.964550e-002
1.625697e+003, 1.963366e-002
1.627626e+003, 1.969471e-002
1.629554e+003, 1.965826e-002
1.631483e+003, 1.978491e-002
1.633411e+003, 2.009698e-002
1.635340e+003, 2.046399e-002
1.637268e+003, 2.034057e-002
1.639197e+003, 2.019470e-002
1.641125e+003, 2.015323e-002
1.643054e+003, 2.023079e-002
1.644982e+003, 2.056642e-002
1.646911e+003, 2.072550e-002
1.648839e+003, 2.041444e-002
1.650767e+003, 2.049280e-002
1.652696e+003, 2.109386e-002
1.654624e+003, 2.072286e-002
1.656553e+003, 2.011755e-002
1.658481e+003, 1.997146e-002
1.660410e+003, 1.994157e-002
1.662338e+003, 2.013077e-002
1.664267e+003, 2.017896e-002
1.666195e+003, 2.020507e-002
1.668124e+003, 2.030115e-002
1.670052e+003, 2.041522e-002
1.671981e+003, 2.040951e-002
1.673909e+003, 2.054875e-002
1.675838e+003, 2.066045e-002
1.677766e+003, 2.039855e-002
1.679694e+003, 2.014755e-002
1.681623e+003, 2.024503e-002
1.683551e+003, 2.090811e-002
1.685480e+003, 2.091286e-002
1.687408e+003, 2.035141e-002
1.689337e+003, 2.035810e-002
1.691265e+003, 2.030080e-002
1.693194e+003, 2.046745e-002
1.695122e+003, 2.099493e-002
1.697051e+003, 2.086864e-002
1.698979e+003, 2.085789e-002
1.700908e+003, 2.106421e-002
1.702836e+003, 2.070132e-002
1.704765e+003, 2.074434e-002
1.706693e+003, 2.081969e-002
1.708621e+003, 2.083960e-002
1.710550e+003, 2.065132e-002
1.712478e+003, 2.062169e-002
1.714407e+003, 2.090754e-002
1.716335e+003, 2.130624e-002
1.718264e+003, 2.136521e-002
1.720192e+003, 2.126128e-002
1.722121e+003, 2.118767e-002
1.724049e+003, 2.104657e-002
1.725978e+003, 2.101571e-002
1.727906e+003, 2.125991e-002
1.729835e+003, 2.146662e-002
1.731763e+003, 2.158030e-002
1.733692e+003, 2.184746e-002
1.735620e+003, 2.157285e-002
1.737548e+003, 2.117098e-002
1.739477e+003, 2.122441e-002
1.741405e+003, 2.114802e-002
1.743334e+003, 2.104753e-002
1.745262e+003, 2.084235e-002
1.747191e+003, 2.081504e-002
1.749119e+003, 2.086405e-002
1.751048e+003, 2.109593e-002
1.752976e+003, 2.117906e-002
1.754905e+003, 2.101016e-002
1.756833e+003, 2.102290e-002
1.758762e+003, 2.100495e-002
1.760690e+003, 2.108813e-002
1.762619e+003, 2.111459e-002
1.764547e+003, 2.096473e-002
1.766475e+003, 2.101784e-002
1.768404e+003, 2.109963e-002
1.770332e+003, 2.121754e-002
1.772261e+003, 2.140420e-002
1.774189e+003, 2.144424e-002
1.776118e+003, 2.129952e-002
1.778046e+003, 2.119306e-002
1.779975e+003, 2.112597e-002
1.781903e+003, 2.114527e-002
1.783832e+003, 2.118547e-002
1.785760e+003, 2.121677e-002
1.787689e+003, 2.123840e-002
1.789617e+003, 2.132963e-002
1.791546e+003, 2.151169e-002
1.793474e+003, 2.156454e-002
1.795402e+003, 2.139461e-002
1.797331e+003, 2.136263e-002
1.799259e+003, 2.149156e-002
1.801188e+003, 2.158655e-002
1.803116e+003, 2.129626e-002
1.805045e+003, 2.135314e-002
1.806973e+003, 2.147034e-002
1.808902e+003, 2.132289e-002
1.810830e+003, 2.126653e-002
1.812759e+003, 2.137737e-002
1.814687e+003, 2.127007e-002
1.816616e+003, 2.116696e-002
1.818544e+003, 2.111758e-002
1.820473e+003, 2.111661e-002
1.822401e+003, 2.124951e-002
1.824329e+003, 2.146401e-002
1.826258e+003, 2.150516e-002
1.828186e+003, 2.148026e-002
1.830115e+003, 2.142510e-002
1.832043e+003, 2.142610e-002
1.833972e+003, 2.115519e-002
1.835900e+003, 2.104720e-002
1.837829e+003, 2.125484e-002
1.839757e+003, 2.150912e-002
1.841686e+003, 2.159216e-002
1.843614e+003, 2.168450e-002
1.845543e+003, 2.188645e-002
1.847471e+003, 2.191008e-002
1.849400e+003, 2.167529e-002
1.851328e+003, 2.159714e-002
1.853256e+003, 2.139908e-002
1.855185e+003, 2.152993e-002
1.857113e+003, 2.178264e-002
1.859042e+003, 2.174654e-002
1.860970e+003, 2.158643e-002
1.862899e+003, 2.152855e-002
1.864827e+003, 2.145553e-002
1.866756e+003, 2.129151e-002
1.868684e+003, 2.114521e-002
1.870613e+003, 2.114559e-002
1.872541e+003, 2.079959e-002
1.874470e+003, 2.062192e-002
1.876398e+003, 2.118470e-002
1.878327e+003, 2.140649e-002
1.880255e+003, 2.120670e-002
1.882183e+003, 2.134194e-002
1.884112e+003, 2.121016e-002
1.886040e+003, 2.118794e-002
1.887969e+003, 2.111299e-002
1.889897e+003, 2.107063e-002
1.891826e+003, 2.121215e-002
1.893754e+003, 2.113152e-002
1.895683e+003, 2.092970e-002
1.897611e+003, 2.101285e-002
1.899540e+003, 2.080096e-002
1.901468e+003, 2.101238e-002
1.903397e+003, 2.140900e-002
1.905325e+003, 2.138327e-002
1.907254e+003, 2.107172e-002
1.909182e+003, 2.124922e-002
1.911110e+003, 2.107458e-002
1.913039e+003, 2.101289e-002
1.914967e+003, 2.139454e-002
1.916896e+003, 2.158280e-002
1.918824e+003, 2.147768e-002
1.920753e+003, 2.139387e-002
1.922681e+003, 2.122531e-002
1.924610e+003, 2.077609e-002
1.926538e+003, 2.078526e-002
1.928467e+003, 2.108352e-002
1.930395e+003, 2.084300e-002
1.932324e+003, 2.092047e-002
1.934252e+003, 2.126245e-002
1.936181e+003, 2.107023e-002
1.938109e+003, 2.036195e-002
1.940037e+003, 2.059574e-002
1.941966e+003, 2.092763e-002
1.943894e+003, 2.065834e-002
1.945823e+003, 2.010699e-002
1.947751e+003, 2.046015e-002
1.949680e+003, 2.078768e-002
1.951608e+003, 2.051981e-002
1.953537e+003, 1.998799e-002
1.955465e+003, 1.946254e-002
1.957394e+003, 1.894877e-002
1.959322e+003, 1.942641e-002
1.961251e+003, 2.018529e-002
1.963179e+003, 2.029833e-002
1.965108e+003, 1.996187e-002
1.967036e+003, 1.935153e-002
1.968964e+003, 1.822238e-002
1.970893e+003, 1.846400e-002
1.972821e+003, 1.979556e-002
1.974750e+003, 1.997522e-002
1.976678e+003, 2.010106e-002
1.978607e+003, 2.188176e-002
1.980535e+003, 2.234762e-002
1.982464e+003, 2.299523e-002
1.984392e+003, 2.296729e-002
1.986321e+003, 2.273861e-002
1.988249e+003, 2.322129e-002
1.990178e+003, 2.277444e-002
1.992106e+003, 2.203356e-002
1.994035e+003, 2.153203e-002
1.995963e+003, 2.108096e-002
1.997891e+003, 2.185801e-002
1.999820e+003, 2.322650e-002
2.001748e+003, 2.284576e-002
2.003677e+003, 2.107326e-002
2.005605e+003, 2.016675e-002
2.007534e+003, 2.117243e-002
2.009462e+003, 2.182559e-002
2.011391e+003, 2.152420e-002
2.013319e+003, 2.154784e-002
2.015248e+003, 2.187918e-002
2.017176e+003, 2.200943e-002
2.019105e+003, 2.137158e-002
2.021033e+003, 2.139440e-002
2.022962e+003, 2.201187e-002
2.024890e+003, 2.224112e-002
2.026818e+003, 2.196143e-002
2.028747e+003, 2.175079e-002
2.030675e+003, 2.198397e-002
2.032604e+003, 2.238014e-002
2.034532e+003, 2.308325e-002
2.036461e+003, 2.359211e-002
2.038389e+003, 2.397876e-002
2.040318e+003, 2.487096e-002
2.042246e+003, 2.404103e-002
2.044175e+003, 2.339666e-002
2.046103e+003, 2.367519e-002
2.048031e+003, 2.438124e-002
2.049960e+003, 2.571901e-002
2.051888e+003, 2.574706e-002
2.053817e+003, 2.484370e-002
2.055745e+003, 2.474285e-002
2.057674e+003, 2.454536e-002
2.059602e+003, 2.434604e-002
2.061531e+003, 2.446465e-002
2.063459e+003, 2.448655e-002
2.065388e+003, 2.435894e-002
2.067316e+003, 2.503713e-002
2.069245e+003, 2.515003e-002
2.071173e+003, 2.548454e-002
2.073102e+003, 2.538447e-002
2.075030e+003, 2.505463e-002
2.076958e+003, 2.538534e-002
2.078887e+003, 2.574869e-002
2.080815e+003, 2.512229e-002
2.082744e+003, 2.489052e-002
2.084672e+003, 2.559351e-002
2.086601e+003, 2.611979e-002
2.088529e+003, 2.537118e-002
2.090458e+003, 2.459391e-002
2.092386e+003, 2.422846e-002
2.094315e+003, 2.485941e-002
2.096243e+003, 2.535390e-002
2.098172e+003, 2.547016e-002
2.100100e+003, 2.577898e-002
2.102029e+003, 2.620145e-002
2.103957e+003, 2.594229e-002
2.105885e+003, 2.538952e-002
2.107814e+003, 2.530334e-002
2.109742e+003, 2.593797e-002
2.111671e+003, 2.619578e-002
2.113599e+003, 2.620752e-002
2.115528e+003, 2.598653e-002
2.117456e+003, 2.535779e-002
2.119385e+003, 2.510885e-002
2.121313e+003, 2.502972e-002
2.123242e+003, 2.470230e-002
2.125170e+003, 2.409678e-002
2.127099e+003, 2.375990e-002
2.129027e+003, 2.339413e-002
2.130956e+003, 2.288358e-002
2.132884e+003, 2.315953e-002
2.134813e+003, 2.379119e-002
2.136741e+003, 2.464448e-002
2.138669e+003, 2.473557e-002
2.140598e+003, 2.398368e-002
2.142526e+003, 2.347432e-002
2.144455e+003, 2.352270e-002
2.146383e+003, 2.290427e-002
2.148312e+003, 2.231625e-002
2.150240e+003, 2.182213e-002
2.152169e+003, 2.221507e-002
2.154097e+003, 2.123673e-002
2.156026e+003, 2.016277e-002
2.157954e+003, 2.161684e-002
2.159883e+003, 2.595497e-002
2.161811e+003, 2.841567e-002
2.163740e+003, 2.891784e-002
2.165668e+003, 2.814845e-002
2.167596e+003, 2.719822e-002
2.169525e+003, 2.620919e-002
2.171453e+003, 2.602944e-002
2.173382e+003, 2.554760e-002
2.175310e+003, 2.565973e-002
2.177239e+003, 2.609834e-002
2.179167e+003, 2.658340e-002
2.181096e+003, 2.718515e-002
2.183024e+003, 2.770470e-002
2.184953e+003, 2.780379e-002
2.186881e+003, 2.810624e-002
2.188810e+003, 2.779380e-002
2.190738e+003, 2.813375e-002
2.192667e+003, 2.864820e-002
2.194595e+003, 2.888556e-002
2.196523e+003, 2.817072e-002
2.198452e+003, 2.712407e-002
2.200380e+003, 2.670632e-002
2.202309e+003, 2.740915e-002
2.204237e+003, 2.748591e-002
2.206166e+003, 2.816768e-002
2.208094e+003, 2.826961e-002
2.210023e+003, 2.739318e-002
2.211951e+003, 2.727683e-002
2.213880e+003, 2.850779e-002
2.215808e+003, 2.796633e-002
2.217737e+003, 2.770052e-002
2.219665e+003, 2.890894e-002
2.221594e+003, 2.872973e-002
2.223522e+003, 2.775459e-002
2.225450e+003, 2.827487e-002
2.227379e+003, 2.890576e-002
2.229307e+003, 2.946367e-002
2.231236e+003, 2.976159e-002
2.233164e+003, 2.964266e-002
2.235093e+003, 2.903669e-002
2.237021e+003, 2.914744e-002
2.238950e+003, 2.981308e-002
2.240878e+003, 2.986042e-002
2.242807e+003, 2.911784e-002
2.244735e+003, 2.857618e-002
2.246664e+003, 2.898347e-002
2.248592e+003, 2.929797e-002
2.250521e+003, 2.910651e-002
2.252449e+003, 2.936499e-002
2.254377e+003, 2.936534e-002
2.256306e+003, 2.987622e-002
2.258234e+003, 2.992830e-002
2.260163e+003, 2.943847e-002
2.262091e+003, 2.951750e-002
2.264020e+003, 3.003807e-002
2.265948e+003, 2.988184e-002
2.267877e+003, 2.985762e-002
2.269805e+003, 2.990604e-002
2.271734e+003, 3.003170e-002
2.273662e+003, 3.063922e-002
2.275591e+003, 3.099745e-002
2.277519e+003, 3.071222e-002
2.279448e+003, 3.055304e-002
2.281376e+003, 3.020437e-002
2.283304e+003, 3.067434e-002
2.285233e+003, 3.133133e-002
2.287161e+003, 3.145257e-002
2.289090e+003, 3.115425e-002
2.291018e+003, 3.091351e-002
2.292947e+003, 3.027939e-002
2.294875e+003, 3.033927e-002
2.296804e+003, 3.069551e-002
2.298732e+003, 3.060197e-002
2.300661e+003, 3.041701e-002
2.302589e+003, 3.025856e-002
2.304518e+003, 3.039102e-002
2.306446e+003, 3.087662e-002
2.308375e+003, 3.108956e-002
2.310303e+003, 3.103642e-002
2.312231e+003, 3.098054e-002
2.314160e+003, 3.118709e-002
2.316088e+003, 3.159138e-002
2.318017e+003, 3.207105e-002
2.319945e+003, 3.232297e-002
2.321874e+003, 3.299034e-002
2.323802e+003, 3.345445e-002
2.325731e+003, 3.266581e-002
2.327659e+003, 3.160763e-002
2.329588e+003, 3.132423e-002
2.331516e+003, 3.137678e-002
2.333445e+003, 3.151167e-002
2.335373e+003, 3.166967e-002
2.337302e+003, 3.147907e-002
2.339230e+003, 3.128761e-002
2.341158e+003, 3.137276e-002
2.343087e+003, 3.118124e-002
2.345015e+003, 3.096185e-002
2.346944e+003, 3.077106e-002
2.348872e+003, 3.059166e-002
2.350801e+003, 3.069126e-002
2.352729e+003, 3.103646e-002
2.354658e+003, 3.146894e-002
2.356586e+003, 3.184126e-002
2.358515e+003, 3.190110e-002
2.360443e+003, 3.191879e-002
2.362372e+003, 3.193929e-002
2.364300e+003, 3.178500e-002
2.366229e+003, 3.150092e-002
2.368157e+003, 3.123367e-002
2.370085e+003, 3.081097e-002
2.372014e+003, 3.069231e-002
2.373942e+003, 3.087270e-002
2.375871e+003, 3.068804e-002
2.377799e+003, 3.023540e-002
2.379728e+003, 3.018580e-002
2.381656e+003, 3.041877e-002
2.383585e+003, 3.067320e-002
2.385513e+003, 3.050719e-002
2.387442e+003, 3.021604e-002
2.389370e+003, 3.039109e-002
2.391299e+003, 3.066033e-002
2.393227e+003, 3.052099e-002
2.395156e+003, 3.014953e-002
2.397084e+003, 3.001414e-002
2.399012e+003, 3.042943e-002
2.400941e+003, 3.060331e-002
2.402869e+003, 3.062043e-002
2.404798e+003, 3.029355e-002
2.406726e+003, 3.080969e-002
2.408655e+003, 3.095512e-002
2.410583e+003, 3.088333e-002
2.412512e+003, 3.111635e-002
2.414440e+003, 3.136005e-002
2.416369e+003, 3.135589e-002
2.418297e+003, 3.144589e-002
2.420226e+003, 3.115364e-002
2.422154e+003, 3.103421e-002
2.424083e+003, 3.130928e-002
2.426011e+003, 3.134876e-002
2.427939e+003, 3.117703e-002
2.429868e+003, 3.119200e-002
2.431796e+003, 3.116381e-002
2.433725e+003, 3.139751e-002
2.435653e+003, 3.138016e-002
2.437582e+003, 3.101579e-002
2.439510e+003, 3.087712e-002
2.441439e+003, 3.095891e-002
2.443367e+003, 3.148746e-002
2.445296e+003, 3.192854e-002
2.447224e+003, 3.168995e-002
2.449153e+003, 3.157314e-002
2.451081e+003, 3.157650e-002
2.453010e+003, 3.149560e-002
2.454938e+003, 3.170437e-002
2.456866e+003, 3.181901e-002
2.458795e+003, 3.155831e-002
2.460723e+003, 3.112211e-002
2.462652e+003, 3.089165e-002
2.464580e+003, 3.101805e-002
2.466509e+003, 3.107059e-002
2.468437e+003, 3.134607e-002
2.470366e+003, 3.156780e-002
2.472294e+003, 3.156081e-002
2.474223e+003, 3.123545e-002
2.476151e+003, 3.140525e-002
2.478080e+003, 3.164269e-002
2.480008e+003, 3.145705e-002
2.481937e+003, 3.120280e-002
2.483865e+003, 3.121586e-002
2.485793e+003, 3.161354e-002
2.487722e+003, 3.209065e-002
2.489650e+003, 3.214289e-002
2.491579e+003, 3.192160e-002
2.493507e+003, 3.156116e-002
2.495436e+003, 3.160778e-002
2.497364e+003, 3.165624e-002
2.499293e+003, 3.157002e-002
2.501221e+003, 3.158337e-002
2.503150e+003, 3.169636e-002
2.505078e+003, 3.186154e-002
2.507007e+003, 3.178548e-002
2.508935e+003, 3.177997e-002
2.510864e+003, 3.177399e-002
2.512792e+003, 3.191087e-002
2.514720e+003, 3.226117e-002
2.516649e+003, 3.221007e-002
2.518577e+003, 3.206932e-002
2.520506e+003, 3.237677e-002
2.522434e+003, 3.263064e-002
2.524363e+003, 3.220328e-002
2.526291e+003, 3.195044e-002
2.528220e+003, 3.215112e-002
2.530148e+003, 3.264397e-002
2.532077e+003, 3.323182e-002
2.534005e+003, 3.332472e-002
2.535934e+003, 3.309253e-002
2.537862e+003, 3.306241e-002
2.539791e+003, 3.268499e-002
2.541719e+003, 3.237690e-002
2.543647e+003, 3.286511e-002
2.545576e+003, 3.316534e-002
2.547504e+003, 3.317803e-002
2.549433e+003, 3.316633e-002
2.551361e+003, 3.283712e-002
2.553290e+003, 3.279710e-002
2.555218e+003, 3.326689e-002
2.557147e+003, 3.339790e-002
2.559075e+003, 3.318736e-002
2.561004e+003, 3.341811e-002
2.562932e+003, 3.344240e-002
2.564861e+003, 3.331151e-002
2.566789e+003, 3.340535e-002
2.568718e+003, 3.346912e-002
2.570646e+003, 3.341017e-002
2.572574e+003, 3.347696e-002
2.574503e+003, 3.339895e-002
2.576431e+003, 3.363921e-002
2.578360e+003, 3.383203e-002
2.580288e+003, 3.376878e-002
2.582217e+003, 3.392268e-002
2.584145e+003, 3.423275e-002
2.586074e+003, 3.430680e-002
2.588002e+003, 3.431187e-002
2.589931e+003, 3.397219e-002
2.591859e+003, 3.400297e-002
2.593788e+003, 3.406388e-002
2.595716e+003, 3.404763e-002
2.597645e+003, 3.382235e-002
2.599573e+003, 3.402339e-002
2.601501e+003, 3.433693e-002
2.603430e+003, 3.442010e-002
2.605358e+003, 3.462805e-002
2.607287e+003, 3.470650e-002
2.609215e+003, 3.432173e-002
2.611144e+003, 3.420808e-002
2.613072e+003, 3.414769e-002
2.615001e+003, 3.443115e-002
2.616929e+003, 3.501145e-002
2.618858e+003, 3.544145e-002
2.620786e+003, 3.535916e-002
2.622715e+003, 3.533721e-002
2.624643e+003, 3.505286e-002
2.626572e+003, 3.466181e-002
2.628500e+003, 3.455593e-002
2.630428e+003, 3.485262e-002
2.632357e+003, 3.471551e-002
2.634285e+003, 3.465781e-002
2.636214e+003, 3.481977e-002
2.638142e+003, 3.496239e-002
2.640071e+003, 3.534262e-002
2.641999e+003, 3.548617e-002
2.643928e+003, 3.521583e-002
2.645856e+003, 3.514678e-002
2.647785e+003, 3.525273e-002
2.649713e+003, 3.520173e-002
2.651642e+003, 3.513287e-002
2.653570e+003, 3.527917e-002
2.655499e+003, 3.536314e-002
2.657427e+003, 3.528161e-002
2.659355e+003, 3.511135e-002
2.661284e+003, 3.510127e-002
2.663212e+003, 3.503847e-002
2.665141e+003, 3.483158e-002
2.667069e+003, 3.457486e-002
2.668998e+003, 3.485838e-002
2.670926e+003, 3.489497e-002
2.672855e+003, 3.480079e-002
2.674783e+003, 3.482225e-002
2.676712e+003, 3.491956e-002
2.678640e+003, 3.489514e-002
2.680569e+003, 3.494626e-002
2.682497e+003, 3.533947e-002
2.684426e+003, 3.548957e-002
2.686354e+003, 3.527340e-002
2.688282e+003, 3.509621e-002
2.690211e+003, 3.523860e-002
2.692139e+003, 3.555339e-002
2.694068e+003, 3.555714e-002
2.695996e+003, 3.538748e-002
2.697925e+003, 3.526465e-002
2.699853e+003, 3.522477e-002
2.701782e+003, 3.535298e-002
2.703710e+003, 3.569863e-002
2.705639e+003, 3.572668e-002
2.707567e+003, 3.578035e-002
2.709496e+003, 3.573744e-002
2.711424e+003, 3.546221e-002
2.713353e+003, 3.535745e-002
2.715281e+003, 3.553193e-002
2.717209e+003, 3.573404e-002
2.719138e+003, 3.564081e-002
2.721066e+003, 3.565150e-002
2.722995e+003, 3.591140e-002
2.724923e+003, 3.603875e-002
2.726852e+003, 3.597968e-002
2.728780e+003, 3.569172e-002
2.730709e+003, 3.560953e-002
2.732637e+003, 3.588821e-002
2.734566e+003, 3.610453e-002
2.736494e+003, 3.626114e-002
2.738423e+003, 3.644817e-002
2.740351e+003, 3.640390e-002
2.742280e+003, 3.611103e-002
2.744208e+003, 3.591638e-002
2.746136e+003, 3.624755e-002
2.748065e+003, 3.649135e-002
2.749993e+003, 3.657446e-002
2.751922e+003, 3.646905e-002
2.753850e+003, 3.603252e-002
2.755779e+003, 3.609755e-002
2.757707e+003, 3.665237e-002
2.759636e+003, 3.690401e-002
2.761564e+003, 3.689130e-002
2.763493e+003, 3.657397e-002
2.765421e+003, 3.646091e-002
2.767350e+003, 3.652651e-002
2.769278e+003, 3.672848e-002
2.771207e+003, 3.676845e-002
2.773135e+003, 3.678058e-002
2.775063e+003, 3.668577e-002
2.776992e+003, 3.659061e-002
2.778920e+003, 3.655604e-002
2.780849e+003, 3.650543e-002
2.782777e+003, 3.671151e-002
2.784706e+003, 3.700844e-002
2.786634e+003, 3.723735e-002
2.788563e+003, 3.707409e-002
2.790491e+003, 3.677792e-002
2.792420e+003, 3.681754e-002
2.794348e+003, 3.693737e-002
2.796277e+003, 3.716623e-002
2.798205e+003, 3.711978e-002
2.800134e+003, 3.675630e-002
2.802062e+003, 3.674821e-002
2.803990e+003, 3.698658e-002
2.805919e+003, 3.706645e-002
2.807847e+003, 3.702163e-002
2.809776e+003, 3.692556e-002
2.811704e+003, 3.717957e-002
2.813633e+003, 3.751111e-002
2.815561e+003, 3.779226e-002
2.817490e+003, 3.761654e-002
2.819418e+003, 3.728638e-002
2.821347e+003, 3.732220e-002
2.823275e+003, 3.760995e-002
2.825204e+003, 3.762030e-002
2.827132e+003, 3.755847e-002
2.829061e+003, 3.781385e-002
2.830989e+003, 3.786333e-002
2.832917e+003, 3.794982e-002
2.834846e+003, 3.839285e-002
2.836774e+003, 3.835361e-002
2.838703e+003, 3.823085e-002
2.840631e+003, 3.841246e-002
2.842560e+003, 3.860781e-002
2.844488e+003, 3.855776e-002
2.846417e+003, 3.820681e-002
2.848345e+003, 3.832264e-002
2.850274e+003, 3.855376e-002
2.852202e+003, 3.843556e-002
2.854131e+003, 3.853783e-002
2.856059e+003, 3.865486e-002
2.857988e+003, 3.872033e-002
2.859916e+003, 3.849445e-002
2.861844e+003, 3.809628e-002
2.863773e+003, 3.810395e-002
2.865701e+003, 3.845744e-002
2.867630e+003, 3.871168e-002
2.869558e+003, 3.884305e-002
2.871487e+003, 3.848346e-002
2.873415e+003, 3.839483e-002
2.875344e+003, 3.834111e-002
2.877272e+003, 3.832249e-002
2.879201e+003, 3.845954e-002
2.881129e+003, 3.865828e-002
2.883058e+003, 3.851638e-002
2.884986e+003, 3.856461e-002
2.886915e+003, 3.893096e-002
2.888843e+003, 3.919683e-002
2.890771e+003, 3.919799e-002
2.892700e+003, 3.920990e-002
2.894628e+003, 3.919745e-002
2.896557e+003, 3.920960e-002
2.898485e+003, 3.946054e-002
2.900414e+003, 3.981705e-002
2.902342e+003, 3.980094e-002
2.904271e+003, 3.990088e-002
2.906199e+003, 4.024934e-002
2.908128e+003, 4.030172e-002
2.910056e+003, 4.002735e-002
2.911985e+003, 3.969191e-002
2.913913e+003, 3.954545e-002
2.915842e+003, 3.998656e-002
2.917770e+003, 4.046010e-002
2.919698e+003, 4.070440e-002
2.921627e+003, 4.051898e-002
2.923555e+003, 4.045251e-002
2.925484e+003, 4.051903e-002
2.927412e+003, 4.029341e-002
2.929341e+003, 4.028739e-002
2.931269e+003, 4.025697e-002
2.933198e+003, 4.020211e-002
2.935126e+003, 4.020666e-002
2.937055e+003, 3.997950e-002
2.938983e+003, 3.948979e-002
2.940912e+003, 3.942475e-002
2.942840e+003, 3.954221e-002
2.944769e+003, 3.943881e-002
2.946697e+003, 3.925089e-002
2.948625e+003, 3.944946e-002
2.950554e+003, 3.970768e-002
2.952482e+003, 3.983565e-002
2.954411e+003, 3.980169e-002
2.956339e+003, 3.964945e-002
2.958268e+003, 4.003171e-002
2.960196e+003, 4.039612e-002
2.962125e+003, 4.025494e-002
2.964053e+003, 3.979818e-002
2.965982e+003, 3.970822e-002
2.967910e+003, 3.996043e-002
2.969839e+003, 3.994589e-002
2.971767e+003, 3.963113e-002
2.973696e+003, 3.981332e-002
2.975624e+003, 4.020820e-002
2.977552e+003, 4.025105e-002
2.979481e+003, 3.988834e-002
2.981409e+003, 3.968200e-002
2.983338e+003, 3.965038e-002
2.985266e+003, 3.962349e-002
2.987195e+003, 3.966184e-002
2.989123e+003, 3.958105e-002
2.991052e+003, 3.942452e-002
2.992980e+003, 3.931143e-002
2.994909e+003, 3.921741e-002
2.996837e+003, 3.941849e-002
2.998766e+003, 3.936151e-002
3.000694e+003, 3.944195e-002
3.002623e+003, 3.940711e-002
3.004551e+003, 3.942934e-002
3.006479e+003, 3.959409e-002
3.008408e+003, 4.009150e-002
3.010336e+003, 3.999789e-002
3.012265e+003, 3.948912e-002
3.014193e+003, 3.957029e-002
3.016122e+003, 4.012000e-002
3.018050e+003, 4.062263e-002
3.019979e+003, 4.026324e-002
3.021907e+003, 3.983525e-002
3.023836e+003, 4.014813e-002
3.025764e+003, 3.997611e-002
3.027693e+003, 3.960524e-002
3.029621e+003, 3.985105e-002
3.031550e+003, 3.997229e-002
3.033478e+003, 4.023200e-002
3.035406e+003, 4.022782e-002
3.037335e+003, 4.023626e-002
3.039263e+003, 4.069627e-002
3.041192e+003, 4.080523e-002
3.043120e+003, 4.054588e-002
3.045049e+003, 4.044081e-002
3.046977e+003, 4.038595e-002
3.048906e+003, 4.014356e-002
3.050834e+003, 4.007694e-002
3.052763e+003, 4.008706e-002
3.054691e+003, 4.066404e-002
3.056620e+003, 4.072637e-002
3.058548e+003, 4.064318e-002
3.060477e+003, 4.084050e-002
3.062405e+003, 4.058437e-002
3.064333e+003, 4.057078e-002
3.066262e+003, 4.070211e-002
3.068190e+003, 4.103695e-002
3.070119e+003, 4.123533e-002
3.072047e+003, 4.102555e-002
3.073976e+003, 4.116632e-002
3.075904e+003, 4.122452e-002
3.077833e+003, 4.107285e-002
3.079761e+003, 4.099725e-002
3.081690e+003, 4.115833e-002
3.083618e+003, 4.130894e-002
3.085547e+003, 4.115596e-002
3.087475e+003, 4.094477e-002
3.089404e+003, 4.131287e-002
3.091332e+003, 4.161723e-002
3.093260e+003, 4.164626e-002
3.095189e+003, 4.169507e-002
3.097117e+003, 4.134289e-002
3.099046e+003, 4.138812e-002
3.100974e+003, 4.211400e-002
3.102903e+003, 4.208206e-002
3.104831e+003, 4.168097e-002
3.106760e+003, 4.133775e-002
3.108688e+003, 4.120135e-002
3.110617e+003, 4.143318e-002
3.112545e+003, 4.166955e-002
3.114474e+003, 4.181127e-002
3.116402e+003, 4.188902e-002
3.118331e+003, 4.243436e-002
3.120259e+003, 4.279743e-002
3.122188e+003, 4.248930e-002
3.124116e+003, 4.231999e-002
3.126044e+003, 4.181064e-002
3.127973e+003, 4.166201e-002
3.129901e+003, 4.211476e-002
3.131830e+003, 4.230073e-002
3.133758e+003, 4.239619e-002
3.135687e+003, 4.273809e-002
3.137615e+003, 4.267898e-002
3.139544e+003, 4.249700e-002
3.141472e+003, 4.259022e-002
3.143401e+003, 4.230467e-002
3.145329e+003, 4.245899e-002
3.147258e+003, 4.251126e-002
3.149186e+003, 4.215190e-002
3.151115e+003, 4.220291e-002
3.153043e+003, 4.232959e-002
3.154971e+003, 4.213167e-002
3.156900e+003, 4.232408e-002
3.158828e+003, 4.266540e-002
3.160757e+003, 4.312798e-002
3.162685e+003, 4.323161e-002
3.164614e+003, 4.309708e-002
3.166542e+003, 4.318419e-002
3.168471e+003, 4.357789e-002
3.170399e+003, 4.384558e-002
3.172328e+003, 4.373564e-002
3.174256e+003, 4.308753e-002
3.176185e+003, 4.257286e-002
3.178113e+003, 4.303266e-002
3.180042e+003, 4.363752e-002
3.181970e+003, 4.391004e-002
3.183898e+003, 4.382133e-002
3.185827e+003, 4.373380e-002
3.187755e+003, 4.398595e-002
3.189684e+003, 4.393358e-002
3.191612e+003, 4.407367e-002
3.193541e+003, 4.405901e-002
3.195469e+003, 4.355661e-002
3.197398e+003, 4.399149e-002
3.199326e+003, 4.415097e-002
3.201255e+003, 4.368976e-002
3.203183e+003, 4.404524e-002
3.205112e+003, 4.446620e-002
3.207040e+003, 4.420466e-002
3.208969e+003, 4.406114e-002
3.210897e+003, 4.386527e-002
3.212825e+003, 4.378517e-002
3.214754e+003, 4.340450e-002
3.216682e+003, 4.372996e-002
3.218611e+003, 4.419529e-002
3.220539e+003, 4.461876e-002
3.222468e+003, 4.442779e-002
3.224396e+003, 4.354207e-002
3.226325e+003, 4.337944e-002
3.228253e+003, 4.391077e-002
3.230182e+003, 4.420682e-002
3.232110e+003, 4.413386e-002
3.234039e+003, 4.419115e-002
3.235967e+003, 4.444712e-002
3.237896e+003, 4.435999e-002
3.239824e+003, 4.466718e-002
3.241752e+003, 4.436052e-002
3.243681e+003, 4.411385e-002
3.245609e+003, 4.430209e-002
3.247538e+003, 4.428267e-002
3.249466e+003, 4.391694e-002
3.251395e+003, 4.356063e-002
3.253323e+003, 4.403879e-002
3.255252e+003, 4.442759e-002
3.257180e+003, 4.475564e-002
3.259109e+003, 4.496539e-002
3.261037e+003, 4.481053e-002
3.262966e+003, 4.479574e-002
3.264894e+003, 4.477878e-002
3.266823e+003, 4.478982e-002
3.268751e+003, 4.473611e-002
3.270679e+003, 4.470088e-002
3.272608e+003, 4.438688e-002
3.274536e+003, 4.449318e-002
3.276465e+003, 4.479508e-002
3.278393e+003, 4.497694e-002
3.280322e+003, 4.472667e-002
3.282250e+003, 4.448366e-002
3.284179e+003, 4.476197e-002
3.286107e+003, 4.459120e-002
3.288036e+003, 4.472348e-002
3.289964e+003, 4.524571e-002
3.291893e+003, 4.534474e-002
3.293821e+003, 4.513565e-002
3.295750e+003, 4.437518e-002
3.297678e+003, 4.424698e-002
3.299606e+003, 4.411815e-002
3.301535e+003, 4.430504e-002
3.303463e+003, 4.476099e-002
3.305392e+003, 4.531139e-002
3.307320e+003, 4.543600e-002
3.309249e+003, 4.501791e-002
3.311177e+003, 4.475108e-002
3.313106e+003, 4.506573e-002
3.315034e+003, 4.511486e-002
3.316963e+003, 4.502124e-002
3.318891e+003, 4.497661e-002
3.320820e+003, 4.453501e-002
3.322748e+003, 4.430711e-002
3.324677e+003, 4.495944e-002
3.326605e+003, 4.494140e-002
3.328533e+003, 4.488167e-002
3.330462e+003, 4.536068e-002
3.332390e+003, 4.562212e-002
3.334319e+003, 4.540147e-002
3.336247e+003, 4.546971e-002
3.338176e+003, 4.525131e-002
3.340104e+003, 4.505641e-002
3.342033e+003, 4.497289e-002
3.343961e+003, 4.519656e-002
3.345890e+003, 4.536697e-002
3.347818e+003, 4.523599e-002
3.349747e+003, 4.500147e-002
3.351675e+003, 4.549239e-002
3.353604e+003, 4.537286e-002
3.355532e+003, 4.478497e-002
3.357460e+003, 4.465826e-002
3.359389e+003, 4.511024e-002
3.361317e+003, 4.524905e-002
3.363246e+003, 4.469591e-002
3.365174e+003, 4.488147e-002
3.367103e+003, 4.555147e-002
3.369031e+003, 4.553840e-002
3.370960e+003, 4.535985e-002
3.372888e+003, 4.543029e-002
3.374817e+003, 4.527669e-002
3.376745e+003, 4.541681e-002
3.378674e+003, 4.532358e-002
3.380602e+003, 4.530729e-002
3.382531e+003, 4.518414e-002
3.384459e+003, 4.505426e-002
3.386387e+003, 4.539813e-002
3.388316e+003, 4.537477e-002
3.390244e+003, 4.492534e-002
3.392173e+003, 4.503700e-002
3.394101e+003, 4.525428e-002
3.396030e+003, 4.490340e-002
3.397958e+003, 4.438638e-002
3.399887e+003, 4.441110e-002
3.401815e+003, 4.526031e-002
3.403744e+003, 4.559080e-002
3.405672e+003, 4.532385e-002
3.407601e+003, 4.534439e-002
3.409529e+003, 4.503647e-002
3.411458e+003, 4.504796e-002
3.413386e+003, 4.499660e-002
3.415314e+003, 4.490012e-002
3.417243e+003, 4.484110e-002
3.419171e+003, 4.506609e-002
3.421100e+003, 4.553431e-002
3.423028e+003, 4.534878e-002
3.424957e+003, 4.480700e-002
3.426885e+003, 4.502614e-002
3.428814e+003, 4.496577e-002
3.430742e+003, 4.459956e-002
3.432671e+003, 4.547653e-002
3.434599e+003, 4.560051e-002
3.436528e+003, 4.471513e-002
3.438456e+003, 4.446120e-002
3.440385e+003, 4.471599e-002
3.442313e+003, 4.558039e-002
3.444241e+003, 4.605132e-002
3.446170e+003, 4.533402e-002
3.448098e+003, 4.506724e-002
3.450027e+003, 4.475474e-002
3.451955e+003, 4.506049e-002
3.453884e+003, 4.587449e-002
3.455812e+003, 4.608760e-002
3.457741e+003, 4.567070e-002
3.459669e+003, 4.501684e-002
3.461598e+003, 4.434314e-002
3.463526e+003, 4.421432e-002
3.465455e+003, 4.507294e-002
3.467383e+003, 4.587244e-002
3.469312e+003, 4.585091e-002
3.471240e+003, 4.551753e-002
3.473168e+003, 4.566949e-002
3.475097e+003, 4.589710e-002
3.477025e+003, 4.569468e-002
3.478954e+003, 4.509697e-002
3.480882e+003, 4.494350e-002
3.482811e+003, 4.551785e-002
3.484739e+003, 4.461652e-002
3.486668e+003, 4.442717e-002
3.488596e+003, 4.545588e-002
3.490525e+003, 4.586195e-002
3.492453e+003, 4.570517e-002
3.494382e+003, 4.569795e-002
3.496310e+003, 4.549778e-002
3.498239e+003, 4.534158e-002
3.500167e+003, 4.525235e-002
3.502095e+003, 4.521070e-002
3.504024e+003, 4.547399e-002
3.505952e+003, 4.498240e-002
3.507881e+003, 4.457814e-002
3.509809e+003, 4.530956e-002
3.511738e+003, 4.527225e-002
3.513666e+003, 4.518810e-002
3.515595e+003, 4.530745e-002
3.517523e+003, 4.461223e-002
3.519452e+003, 4.471498e-002
3.521380e+003, 4.560222e-002
3.523309e+003, 4.559760e-002
3.525237e+003, 4.498117e-002
3.527166e+003, 4.539625e-002
3.529094e+003, 4.575307e-002
3.531022e+003, 4.526947e-002
3.532951e+003, 4.491879e-002
3.534879e+003, 4.524738e-002
3.536808e+003, 4.533109e-002
3.538736e+003, 4.539989e-002
3.540665e+003, 4.556698e-002
3.542593e+003, 4.519332e-002
3.544522e+003, 4.456351e-002
3.546450e+003, 4.447986e-002
3.548379e+003, 4.494413e-002
3.550307e+003, 4.516902e-002
3.552236e+003, 4.562678e-002
3.554164e+003, 4.607749e-002
3.556093e+003, 4.590232e-002
3.558021e+003, 4.558149e-002
3.559949e+003, 4.542506e-002
3.561878e+003, 4.464457e-002
3.563806e+003, 4.417245e-002
3.565735e+003, 4.459660e-002
3.567663e+003, 4.510393e-002
3.569592e+003, 4.526944e-002
3.571520e+003, 4.547558e-002
3.573449e+003, 4.541552e-002
3.575377e+003, 4.553336e-002
3.577306e+003, 4.506256e-002
3.579234e+003, 4.487969e-002
3.581163e+003, 4.497495e-002
3.583091e+003, 4.518261e-002
3.585020e+003, 4.542535e-002
3.586948e+003, 4.561964e-002
3.588876e+003, 4.471274e-002
3.590805e+003, 4.414561e-002
3.592733e+003, 4.446582e-002
3.594662e+003, 4.468578e-002
3.596590e+003, 4.454532e-002
3.598519e+003, 4.410994e-002
3.600447e+003, 4.374010e-002
3.602376e+003, 4.357143e-002
3.604304e+003, 4.350623e-002
3.606233e+003, 4.379674e-002
3.608161e+003, 4.412534e-002
3.610090e+003, 4.465159e-002
3.612018e+003, 4.442414e-002
3.613947e+003, 4.423526e-002
3.615875e+003, 4.404950e-002
3.617803e+003, 4.382152e-002
3.619732e+003, 4.374153e-002
3.621660e+003, 4.294243e-002
3.623589e+003, 4.349460e-002
3.625517e+003, 4.420069e-002
3.627446e+003, 4.491598e-002
3.629374e+003, 4.518957e-002
3.631303e+003, 4.368849e-002
3.633231e+003, 4.319593e-002
3.635160e+003, 4.365800e-002
3.637088e+003, 4.369417e-002
3.639017e+003, 4.324030e-002
3.640945e+003, 4.299853e-002
3.642874e+003, 4.320091e-002
3.644802e+003, 4.336316e-002
3.646730e+003, 4.378578e-002
3.648659e+003, 4.508200e-002
3.650587e+003, 4.480891e-002
3.652516e+003, 4.314873e-002
3.654444e+003, 4.267886e-002
3.656373e+003, 4.383679e-002
3.658301e+003, 4.471932e-002
3.660230e+003, 4.406532e-002
3.662158e+003, 4.315853e-002
3.664087e+003, 4.271552e-002
3.666015e+003, 4.294527e-002
3.667944e+003, 4.383885e-002
3.669872e+003, 4.411615e-002
3.671801e+003, 4.337505e-002
3.673729e+003, 4.364226e-002
3.675657e+003, 4.319261e-002
3.677586e+003, 4.263522e-002
3.679514e+003, 4.290690e-002
3.681443e+003, 4.254451e-002
3.683371e+003, 4.280257e-002
3.685300e+003, 4.338131e-002
3.687228e+003, 4.477149e-002
3.689157e+003, 4.536985e-002
3.691085e+003, 4.452493e-002
3.693014e+003, 4.363268e-002
3.694942e+003, 4.339821e-002
3.696871e+003, 4.388129e-002
3.698799e+003, 4.433865e-002
3.700728e+003, 4.420093e-002
3.702656e+003, 4.419395e-002
3.704584e+003, 4.394434e-002
3.706513e+003, 4.399675e-002
3.708441e+003, 4.388832e-002
3.710370e+003, 4.444614e-002
3.712298e+003, 4.456243e-002
3.714227e+003, 4.425780e-002
3.716155e+003, 4.479279e-002
3.718084e+003, 4.484833e-002
3.720012e+003, 4.437476e-002
3.721941e+003, 4.414985e-002
3.723869e+003, 4.416410e-002
3.725798e+003, 4.415360e-002
3.727726e+003, 4.394165e-002
3.729655e+003, 4.361066e-002
3.731583e+003, 4.462767e-002
3.733511e+003, 4.561553e-002
3.735440e+003, 4.632362e-002
3.737368e+003, 4.550346e-002
3.739297e+003, 4.481023e-002
3.741225e+003, 4.507611e-002
3.743154e+003, 4.584267e-002
3.745082e+003, 4.597172e-002
3.747011e+003, 4.525713e-002
3.748939e+003, 4.605318e-002
3.750868e+003, 4.641212e-002
3.752796e+003, 4.491473e-002
3.754725e+003, 4.372821e-002
3.756653e+003, 4.456775e-002
3.758582e+003, 4.496234e-002
3.760510e+003, 4.530257e-002
3.762438e+003, 4.495953e-002
3.764367e+003, 4.444765e-002
3.766295e+003, 4.409397e-002
3.768224e+003, 4.448882e-002
3.770152e+003, 4.447873e-002
3.772081e+003, 4.378425e-002
3.774009e+003, 4.371853e-002
3.775938e+003, 4.407962e-002
3.777866e+003, 4.453154e-002
3.779795e+003, 4.453097e-002
3.781723e+003, 4.456644e-002
3.783652e+003, 4.474659e-002
3.785580e+003, 4.410972e-002
3.787509e+003, 4.391757e-002
3.789437e+003, 4.457736e-002
3.791365e+003, 4.452932e-002
3.793294e+003, 4.427474e-002
3.795222e+003, 4.459231e-002
3.797151e+003, 4.547792e-002
3.799079e+003, 4.571298e-002
3.801008e+003, 4.612973e-002
3.802936e+003, 4.594245e-002
3.804865e+003, 4.548749e-002
3.806793e+003, 4.574757e-002
3.808722e+003, 4.537691e-002
3.810650e+003, 4.490046e-002
3.812579e+003, 4.532029e-002
3.814507e+003, 4.584846e-002
3.816436e+003, 4.569484e-002
3.818364e+003, 4.500565e-002
3.820292e+003, 4.523676e-002
3.822221e+003, 4.554763e-002
3.824149e+003, 4.488767e-002
3.826078e+003, 4.503835e-002
3.828006e+003, 4.539562e-002
3.829935e+003, 4.553430e-002
3.831863e+003, 4.527683e-002
3.833792e+003, 4.536945e-002
3.835720e+003, 4.565089e-002
3.837649e+003, 4.558942e-002
3.839577e+003, 4.536196e-002
3.841506e+003, 4.570575e-002
3.843434e+003, 4.576037e-002
3.845363e+003, 4.586622e-002
3.847291e+003, 4.583799e-002
3.849219e+003, 4.531285e-002
3.851148e+003, 4.600448e-002
3.853076e+003, 4.746298e-002
3.855005e+003, 4.704974e-002
3.856933e+003, 4.596299e-002
3.858862e+003, 4.549678e-002
3.860790e+003, 4.512996e-002
3.862719e+003, 4.510859e-002
3.864647e+003, 4.536001e-002
3.866576e+003, 4.540120e-002
3.868504e+003, 4.532956e-002
3.870433e+003, 4.520275e-002
3.872361e+003, 4.508320e-002
3.874290e+003, 4.528882e-002
3.876218e+003, 4.511135e-002
3.878146e+003, 4.522949e-002
3.880075e+003, 4.632810e-002
3.882003e+003, 4.618574e-002
3.883932e+003, 4.580810e-002
3.885860e+003, 4.611994e-002
3.887789e+003, 4.578410e-002
3.889717e+003, 4.590268e-002
3.891646e+003, 4.550375e-002
3.893574e+003, 4.442030e-002
3.895503e+003, 4.444893e-002
3.897431e+003, 4.549565e-002
3.899360e+003, 4.598010e-002
3.901288e+003, 4.584213e-002
3.903217e+003, 4.589415e-002
3.905145e+003, 4.645627e-002
3.907073e+003, 4.668492e-002
3.909002e+003, 4.617126e-002
3.910930e+003, 4.603918e-002
3.912859e+003, 4.604057e-002
3.914787e+003, 4.566082e-002
3.916716e+003, 4.549735e-002
3.918644e+003, 4.556136e-002
3.920573e+003, 4.538618e-002
3.922501e+003, 4.441731e-002
3.924430e+003, 4.433679e-002
3.926358e+003, 4.501671e-002
3.928287e+003, 4.562160e-002
3.930215e+003, 4.586229e-002
3.932144e+003, 4.549016e-002
3.934072e+003, 4.546562e-002
3.936000e+003, 4.545657e-002
3.937929e+003, 4.553887e-002
3.939857e+003, 4.634322e-002
3.941786e+003, 4.606749e-002
3.943714e+003, 4.589834e-002
3.945643e+003, 4.580450e-002
3.947571e+003, 4.553458e-002
3.949500e+003, 4.534640e-002
3.951428e+003, 4.590233e-002
3.953357e+003, 4.680391e-002
3.955285e+003, 4.567901e-002
3.957214e+003, 4.553123e-002
3.959142e+003, 4.595771e-002
3.961071e+003, 4.515975e-002
3.962999e+003, 4.590309e-002
3.964927e+003, 4.638194e-002
3.966856e+003, 4.606859e-002
3.968784e+003, 4.628792e-002
3.970713e+003, 4.652328e-002
3.972641e+003, 4.699449e-002
3.974570e+003, 4.676831e-002
3.976498e+003, 4.584552e-002
3.978427e+003, 4.593856e-002
3.980355e+003, 4.522582e-002
3.982284e+003, 4.453015e-002
3.984212e+003, 4.477387e-002
3.986141e+003, 4.489883e-002
3.988069e+003, 4.497141e-002
3.989998e+003, 4.502979e-002
3.991926e+003, 4.504042e-002
3.993854e+003, 4.603054e-002
3.995783e+003, 4.646109e-002
3.997711e+003, 4.643549e-002
3.999640e+003, 4.696908e-002
4.001568e+003, 0.000000e+000
##END=



