##NAMES=Fluoro-edenite
##RRUFFID=R070003
##IDEAL CHEMISTRY=NaCa_2_Mg_5_(Si_7_Al)O_22_F_2_
##LOCALITY=Cobden, Ontario, Canada
##OWNER=RRUFF
##SOURCE=Michael Scott
##DESCRIPTION=Black to very dark green single crystal fragment
##STATUS=The identification of this mineral has been confirmed by X-ray diffraction and chemical analysis
##URL=rruff.info/R070003
##MEASURED CHEMISTRY=(Na_0.55_K_0.35_[box]_0.10_)_Σ=1_(Ca_1.65_Na_0.35_)_Σ=2_(Mg_2.42_Fe^2+^_1.81_Fe^3+^_0.52_Al_0.14_Ti_0.07_Mn_0.04_)_Σ=5_(Si_6.65_Al_1.35_)O_22_(F_1.03_(OH)_0.94_Cl_0.03_)_Σ=2_; (OH) estimated by difference
3.741225e+002, 2.421680e-001
3.760510e+002, 2.440526e-001
3.779795e+002, 2.395720e-001
3.799079e+002, 2.409598e-001
3.818364e+002, 2.449030e-001
3.837649e+002, 2.427660e-001
3.856933e+002, 2.414486e-001
3.876218e+002, 2.389876e-001
3.895503e+002, 2.459549e-001
3.914787e+002, 2.450877e-001
3.934072e+002, 2.374418e-001
3.953357e+002, 2.404680e-001
3.972641e+002, 2.356979e-001
3.991926e+002, 2.310261e-001
4.011211e+002, 2.368270e-001
4.030495e+002, 2.369165e-001
4.049780e+002, 2.330009e-001
4.069065e+002, 2.292360e-001
4.088349e+002, 2.236098e-001
4.107634e+002, 2.225582e-001
4.126919e+002, 2.252523e-001
4.146203e+002, 2.260520e-001
4.165488e+002, 2.300588e-001
4.184773e+002, 2.329584e-001
4.204057e+002, 2.344366e-001
4.223342e+002, 2.370250e-001
4.242627e+002, 2.380400e-001
4.261911e+002, 2.389790e-001
4.281196e+002, 2.376064e-001
4.300481e+002, 2.344103e-001
4.319765e+002, 2.352799e-001
4.339050e+002, 2.370398e-001
4.358335e+002, 2.351544e-001
4.377619e+002, 2.336556e-001
4.396904e+002, 2.348094e-001
4.416189e+002, 2.347531e-001
4.435473e+002, 2.354807e-001
4.454758e+002, 2.372822e-001
4.474043e+002, 2.380515e-001
4.493327e+002, 2.402984e-001
4.512612e+002, 2.419875e-001
4.531897e+002, 2.411029e-001
4.551181e+002, 2.391679e-001
4.570466e+002, 2.364291e-001
4.589751e+002, 2.325738e-001
4.609035e+002, 2.295646e-001
4.628320e+002, 2.258299e-001
4.647605e+002, 2.193124e-001
4.666889e+002, 2.118393e-001
4.686174e+002, 2.045116e-001
4.705459e+002, 1.984137e-001
4.724743e+002, 1.927960e-001
4.744028e+002, 1.867632e-001
4.763313e+002, 1.796342e-001
4.782597e+002, 1.738651e-001
4.801882e+002, 1.699581e-001
4.821167e+002, 1.669263e-001
4.840451e+002, 1.648496e-001
4.859736e+002, 1.652555e-001
4.879021e+002, 1.676149e-001
4.898305e+002, 1.699681e-001
4.917590e+002, 1.714189e-001
4.936875e+002, 1.732001e-001
4.956159e+002, 1.736382e-001
4.975444e+002, 1.741662e-001
4.994729e+002, 1.751200e-001
5.014013e+002, 1.751319e-001
5.033298e+002, 1.747450e-001
5.052583e+002, 1.739900e-001
5.071867e+002, 1.726790e-001
5.091152e+002, 1.701860e-001
5.110437e+002, 1.671197e-001
5.129721e+002, 1.643301e-001
5.149006e+002, 1.608455e-001
5.168290e+002, 1.570216e-001
5.187575e+002, 1.537214e-001
5.206860e+002, 1.501548e-001
5.226144e+002, 1.465777e-001
5.245429e+002, 1.435038e-001
5.264714e+002, 1.405500e-001
5.283998e+002, 1.369324e-001
5.303283e+002, 1.325619e-001
5.322568e+002, 1.280863e-001
5.341852e+002, 1.240162e-001
5.361137e+002, 1.191696e-001
5.380422e+002, 1.137125e-001
5.399706e+002, 1.081032e-001
5.418991e+002, 1.030061e-001
5.438276e+002, 9.812750e-002
5.457560e+002, 9.295852e-002
5.476845e+002, 8.829337e-002
5.496130e+002, 8.329881e-002
5.515414e+002, 7.817908e-002
5.534699e+002, 7.362883e-002
5.553984e+002, 6.939758e-002
5.573268e+002, 6.516211e-002
5.592553e+002, 6.125145e-002
5.611838e+002, 5.785900e-002
5.631122e+002, 5.440177e-002
5.650407e+002, 5.109048e-002
5.669692e+002, 4.840843e-002
5.688976e+002, 4.589343e-002
5.708261e+002, 4.338016e-002
5.727546e+002, 4.099512e-002
5.746830e+002, 3.910412e-002
5.766115e+002, 3.763609e-002
5.785400e+002, 3.651958e-002
5.804684e+002, 3.534181e-002
5.823969e+002, 3.504059e-002
5.843254e+002, 3.513627e-002
5.862538e+002, 3.578772e-002
5.881823e+002, 3.637557e-002
5.901108e+002, 3.693208e-002
5.920392e+002, 3.830408e-002
5.939677e+002, 4.029792e-002
5.958962e+002, 4.256278e-002
5.978246e+002, 4.463650e-002
5.997531e+002, 4.665232e-002
6.016816e+002, 4.904053e-002
6.036100e+002, 5.142030e-002
6.055385e+002, 5.350132e-002
6.074670e+002, 5.528526e-002
6.093954e+002, 5.639574e-002
6.113239e+002, 5.739087e-002
6.132524e+002, 5.834975e-002
6.151808e+002, 5.884964e-002
6.171093e+002, 5.932273e-002
6.190378e+002, 5.968847e-002
6.209662e+002, 5.979347e-002
6.228947e+002, 6.004122e-002
6.248232e+002, 6.010600e-002
6.267516e+002, 6.020205e-002
6.286801e+002, 6.084337e-002
6.306086e+002, 6.165231e-002
6.325370e+002, 6.245579e-002
6.344655e+002, 6.354046e-002
6.363940e+002, 6.465962e-002
6.383224e+002, 6.551122e-002
6.402509e+002, 6.606600e-002
6.421794e+002, 6.655498e-002
6.441078e+002, 6.715602e-002
6.460363e+002, 6.796427e-002
6.479648e+002, 6.885836e-002
6.498932e+002, 6.987485e-002
6.518217e+002, 7.113363e-002
6.537502e+002, 7.231463e-002
6.556786e+002, 7.341421e-002
6.576071e+002, 7.425343e-002
6.595356e+002, 7.469427e-002
6.614641e+002, 7.492608e-002
6.633925e+002, 7.484850e-002
6.653210e+002, 7.428481e-002
6.672495e+002, 7.357354e-002
6.691779e+002, 7.289954e-002
6.711064e+002, 7.248826e-002
6.730349e+002, 7.217112e-002
6.749633e+002, 7.196427e-002
6.768918e+002, 7.174978e-002
6.788203e+002, 7.113648e-002
6.807487e+002, 7.025617e-002
6.826772e+002, 6.923620e-002
6.846057e+002, 6.835397e-002
6.865341e+002, 6.735748e-002
6.884626e+002, 6.644931e-002
6.903911e+002, 6.584531e-002
6.923195e+002, 6.544504e-002
6.942480e+002, 6.498279e-002
6.961765e+002, 6.449265e-002
6.981049e+002, 6.401852e-002
7.000334e+002, 6.329859e-002
7.019619e+002, 6.219587e-002
7.038903e+002, 6.131448e-002
7.058188e+002, 6.050995e-002
7.077473e+002, 5.998360e-002
7.096757e+002, 5.990016e-002
7.116042e+002, 6.039386e-002
7.135327e+002, 6.103708e-002
7.154611e+002, 6.192579e-002
7.173896e+002, 6.324770e-002
7.193181e+002, 6.471272e-002
7.212465e+002, 6.621508e-002
7.231750e+002, 6.793375e-002
7.251035e+002, 6.987327e-002
7.270319e+002, 7.158990e-002
7.289604e+002, 7.315453e-002
7.308889e+002, 7.405443e-002
7.328173e+002, 7.433145e-002
7.347458e+002, 7.461999e-002
7.366743e+002, 7.461558e-002
7.386027e+002, 7.432775e-002
7.405312e+002, 7.436950e-002
7.424597e+002, 7.448193e-002
7.443881e+002, 7.437853e-002
7.463166e+002, 7.449722e-002
7.482451e+002, 7.473037e-002
7.501735e+002, 7.498793e-002
7.521020e+002, 7.533857e-002
7.540305e+002, 7.566774e-002
7.559589e+002, 7.612389e-002
7.578874e+002, 7.669872e-002
7.598159e+002, 7.741782e-002
7.617443e+002, 7.836072e-002
7.636728e+002, 7.963328e-002
7.656013e+002, 8.101103e-002
7.675297e+002, 8.245581e-002
7.694582e+002, 8.391415e-002
7.713867e+002, 8.539225e-002
7.733151e+002, 8.683982e-002
7.752436e+002, 8.828233e-002
7.771721e+002, 8.960439e-002
7.791005e+002, 9.065875e-002
7.810290e+002, 9.137785e-002
7.829575e+002, 9.183347e-002
7.848859e+002, 9.206437e-002
7.868144e+002, 9.211765e-002
7.887429e+002, 9.221767e-002
7.906713e+002, 9.229830e-002
7.925998e+002, 9.198629e-002
7.945283e+002, 9.131339e-002
7.964567e+002, 9.092421e-002
7.983852e+002, 9.071369e-002
8.003137e+002, 9.060238e-002
8.022421e+002, 9.063064e-002
8.041706e+002, 9.094550e-002
8.060991e+002, 9.155584e-002
8.080275e+002, 9.257665e-002
8.099560e+002, 9.435164e-002
8.118845e+002, 9.647831e-002
8.138129e+002, 9.883182e-002
8.157414e+002, 1.017956e-001
8.176699e+002, 1.052823e-001
8.195983e+002, 1.092281e-001
8.215268e+002, 1.133613e-001
8.234553e+002, 1.178520e-001
8.253837e+002, 1.228094e-001
8.273122e+002, 1.280953e-001
8.292407e+002, 1.335071e-001
8.311691e+002, 1.391162e-001
8.330976e+002, 1.450905e-001
8.350261e+002, 1.514245e-001
8.369545e+002, 1.577738e-001
8.388830e+002, 1.643627e-001
8.408115e+002, 1.710888e-001
8.427399e+002, 1.779291e-001
8.446684e+002, 1.847109e-001
8.465969e+002, 1.909298e-001
8.485253e+002, 1.966256e-001
8.504538e+002, 2.019804e-001
8.523823e+002, 2.069887e-001
8.543107e+002, 2.116031e-001
8.562392e+002, 2.157276e-001
8.581677e+002, 2.195951e-001
8.600961e+002, 2.230911e-001
8.620246e+002, 2.264718e-001
8.639531e+002, 2.295316e-001
8.658815e+002, 2.325718e-001
8.678100e+002, 2.354096e-001
8.697385e+002, 2.379322e-001
8.716669e+002, 2.404346e-001
8.735954e+002, 2.433509e-001
8.755239e+002, 2.463865e-001
8.774523e+002, 2.492824e-001
8.793808e+002, 2.524043e-001
8.813093e+002, 2.559472e-001
8.832377e+002, 2.595341e-001
8.851662e+002, 2.633821e-001
8.870947e+002, 2.674174e-001
8.890231e+002, 2.713069e-001
8.909516e+002, 2.750375e-001
8.928801e+002, 2.791458e-001
8.948085e+002, 2.835474e-001
8.967370e+002, 2.878582e-001
8.986655e+002, 2.925569e-001
9.005939e+002, 2.972893e-001
9.025224e+002, 3.017226e-001
9.044509e+002, 3.055725e-001
9.063793e+002, 3.090288e-001
9.083078e+002, 3.119688e-001
9.102363e+002, 3.141782e-001
9.121647e+002, 3.156819e-001
9.140932e+002, 3.166036e-001
9.160217e+002, 3.168960e-001
9.179501e+002, 3.170216e-001
9.198786e+002, 3.172528e-001
9.218071e+002, 3.174658e-001
9.237355e+002, 3.176794e-001
9.256640e+002, 3.181133e-001
9.275925e+002, 3.187604e-001
9.295209e+002, 3.192193e-001
9.314494e+002, 3.193868e-001
9.333779e+002, 3.193451e-001
9.353063e+002, 3.190975e-001
9.372348e+002, 3.183490e-001
9.391633e+002, 3.170225e-001
9.410917e+002, 3.152903e-001
9.430202e+002, 3.130913e-001
9.449487e+002, 3.104065e-001
9.468771e+002, 3.073884e-001
9.488056e+002, 3.043339e-001
9.507341e+002, 3.010637e-001
9.526625e+002, 2.974596e-001
9.545910e+002, 2.940293e-001
9.565195e+002, 2.906949e-001
9.584479e+002, 2.873653e-001
9.603764e+002, 2.839689e-001
9.623049e+002, 2.803866e-001
9.642333e+002, 2.766491e-001
9.661618e+002, 2.729893e-001
9.680903e+002, 2.691264e-001
9.700187e+002, 2.651175e-001
9.719472e+002, 2.608685e-001
9.738757e+002, 2.563926e-001
9.758041e+002, 2.519464e-001
9.777326e+002, 2.471708e-001
9.796611e+002, 2.419114e-001
9.815895e+002, 2.365689e-001
9.835180e+002, 2.308426e-001
9.854465e+002, 2.248238e-001
9.873749e+002, 2.187064e-001
9.893034e+002, 2.124072e-001
9.912319e+002, 2.058585e-001
9.931603e+002, 1.993400e-001
9.950888e+002, 1.929440e-001
9.970173e+002, 1.867451e-001
9.989457e+002, 1.807547e-001
1.000874e+003, 1.749253e-001
1.002803e+003, 1.694079e-001
1.004731e+003, 1.642432e-001
1.006660e+003, 1.594684e-001
1.008588e+003, 1.551242e-001
1.010517e+003, 1.513659e-001
1.012445e+003, 1.481406e-001
1.014373e+003, 1.454401e-001
1.016302e+003, 1.431753e-001
1.018230e+003, 1.412794e-001
1.020159e+003, 1.397638e-001
1.022087e+003, 1.386292e-001
1.024016e+003, 1.377974e-001
1.025944e+003, 1.370855e-001
1.027873e+003, 1.366693e-001
1.029801e+003, 1.365418e-001
1.031730e+003, 1.364664e-001
1.033658e+003, 1.362943e-001
1.035587e+003, 1.360373e-001
1.037515e+003, 1.360002e-001
1.039443e+003, 1.359266e-001
1.041372e+003, 1.356077e-001
1.043300e+003, 1.352862e-001
1.045229e+003, 1.348800e-001
1.047157e+003, 1.341853e-001
1.049086e+003, 1.329723e-001
1.051014e+003, 1.314948e-001
1.052943e+003, 1.297283e-001
1.054871e+003, 1.275009e-001
1.056800e+003, 1.246426e-001
1.058728e+003, 1.214039e-001
1.060657e+003, 1.181793e-001
1.062585e+003, 1.148337e-001
1.064514e+003, 1.112923e-001
1.066442e+003, 1.076924e-001
1.068370e+003, 1.040717e-001
1.070299e+003, 1.007276e-001
1.072227e+003, 9.734855e-002
1.074156e+003, 9.391063e-002
1.076084e+003, 9.053744e-002
1.078013e+003, 8.730649e-002
1.079941e+003, 8.431987e-002
1.081870e+003, 8.147001e-002
1.083798e+003, 7.868157e-002
1.085727e+003, 7.605933e-002
1.087655e+003, 7.355075e-002
1.089584e+003, 7.132490e-002
1.091512e+003, 6.928304e-002
1.093441e+003, 6.723776e-002
1.095369e+003, 6.520733e-002
1.097297e+003, 6.339402e-002
1.099226e+003, 6.168413e-002
1.101154e+003, 5.993970e-002
1.103083e+003, 5.816970e-002
1.105011e+003, 5.638465e-002
1.106940e+003, 5.446745e-002
1.108868e+003, 5.240814e-002
1.110797e+003, 5.019810e-002
1.112725e+003, 4.780197e-002
1.114654e+003, 4.526031e-002
1.116582e+003, 4.236845e-002
1.118511e+003, 3.934587e-002
1.120439e+003, 3.631626e-002
1.122368e+003, 3.333113e-002
1.124296e+003, 3.051013e-002
1.126224e+003, 2.763886e-002
1.128153e+003, 2.474574e-002
1.130081e+003, 2.194774e-002
1.132010e+003, 1.940130e-002
1.133938e+003, 1.709675e-002
1.135867e+003, 1.490597e-002
1.137795e+003, 1.291472e-002
1.139724e+003, 1.133807e-002
1.141652e+003, 9.919396e-003
1.143581e+003, 8.721119e-003
1.145509e+003, 7.889750e-003
1.147438e+003, 7.347240e-003
1.149366e+003, 6.806569e-003
1.151295e+003, 6.294712e-003
1.153223e+003, 6.002439e-003
1.155151e+003, 5.730862e-003
1.157080e+003, 5.382194e-003
1.159008e+003, 4.982408e-003
1.160937e+003, 4.735596e-003
1.162865e+003, 4.569309e-003
1.164794e+003, 4.462698e-003
1.166722e+003, 4.248292e-003
1.168651e+003, 4.014010e-003
1.170579e+003, 3.757668e-003
1.172508e+003, 3.515505e-003
1.174436e+003, 3.368210e-003
1.176365e+003, 3.226886e-003
1.178293e+003, 3.136974e-003
1.180222e+003, 3.108647e-003
1.182150e+003, 3.016780e-003
1.184078e+003, 2.917548e-003
1.186007e+003, 2.875489e-003
1.187935e+003, 2.792803e-003
1.189864e+003, 2.718919e-003
1.191792e+003, 2.699895e-003
1.193721e+003, 2.508117e-003
1.195649e+003, 2.346824e-003
1.197578e+003, 2.335841e-003
1.199506e+003, 2.348289e-003
1.201435e+003, 2.306987e-003
1.203363e+003, 2.249763e-003
1.205292e+003, 2.170582e-003
1.207220e+003, 2.015739e-003
1.209149e+003, 1.889421e-003
1.211077e+003, 1.892985e-003
1.213005e+003, 1.883886e-003
1.214934e+003, 1.932721e-003
1.216862e+003, 2.057950e-003
1.218791e+003, 2.025364e-003
1.220719e+003, 1.929706e-003
1.222648e+003, 1.798345e-003
1.224576e+003, 1.831745e-003
1.226505e+003, 1.870545e-003
1.228433e+003, 1.844478e-003
1.230362e+003, 1.849364e-003
1.232290e+003, 1.850737e-003
1.234219e+003, 1.838725e-003
1.236147e+003, 1.799051e-003
1.238076e+003, 1.696378e-003
1.240004e+003, 1.656276e-003
1.241932e+003, 1.736648e-003
1.243861e+003, 1.731607e-003
1.245789e+003, 1.716806e-003
1.247718e+003, 1.734056e-003
1.249646e+003, 1.734773e-003
1.251575e+003, 1.675756e-003
1.253503e+003, 1.640799e-003
1.255432e+003, 1.756101e-003
1.257360e+003, 1.881472e-003
1.259289e+003, 1.907712e-003
1.261217e+003, 1.879475e-003
1.263146e+003, 1.741383e-003
1.265074e+003, 1.580708e-003
1.267003e+003, 1.592167e-003
1.268931e+003, 1.703720e-003
1.270859e+003, 1.821072e-003
1.272788e+003, 1.856245e-003
1.274716e+003, 1.698856e-003
1.276645e+003, 1.639654e-003
1.278573e+003, 1.657847e-003
1.280502e+003, 1.746987e-003
1.282430e+003, 1.829416e-003
1.284359e+003, 1.922943e-003
1.286287e+003, 1.876398e-003
1.288216e+003, 1.865633e-003
1.290144e+003, 1.925216e-003
1.292073e+003, 1.935179e-003
1.294001e+003, 1.976017e-003
1.295930e+003, 1.945137e-003
1.297858e+003, 1.998998e-003
1.299786e+003, 2.005517e-003
1.301715e+003, 1.975474e-003
1.303643e+003, 1.994920e-003
1.305572e+003, 2.111182e-003
1.307500e+003, 2.204626e-003
1.309429e+003, 2.267942e-003
1.311357e+003, 2.229632e-003
1.313286e+003, 2.136780e-003
1.315214e+003, 2.172644e-003
1.317143e+003, 2.186789e-003
1.319071e+003, 2.192407e-003
1.321000e+003, 2.295452e-003
1.322928e+003, 2.437012e-003
1.324857e+003, 2.437572e-003
1.326785e+003, 2.399364e-003
1.328714e+003, 2.430585e-003
1.330642e+003, 2.370727e-003
1.332570e+003, 2.305591e-003
1.334499e+003, 2.340674e-003
1.336427e+003, 2.380748e-003
1.338356e+003, 2.328804e-003
1.340284e+003, 2.308587e-003
1.342213e+003, 2.414039e-003
1.344141e+003, 2.555939e-003
1.346070e+003, 2.684833e-003
1.347998e+003, 2.751692e-003
1.349927e+003, 2.779416e-003
1.351855e+003, 2.773450e-003
1.353784e+003, 2.753177e-003
1.355712e+003, 2.683689e-003
1.357641e+003, 2.867260e-003
1.359569e+003, 3.020201e-003
1.361497e+003, 2.872810e-003
1.363426e+003, 2.724529e-003
1.365354e+003, 2.961035e-003
1.367283e+003, 3.125653e-003
1.369211e+003, 3.170350e-003
1.371140e+003, 3.177158e-003
1.373068e+003, 3.064845e-003
1.374997e+003, 3.051494e-003
1.376925e+003, 3.241396e-003
1.378854e+003, 3.443956e-003
1.380782e+003, 3.476949e-003
1.382711e+003, 3.492424e-003
1.384639e+003, 3.280795e-003
1.386568e+003, 3.032446e-003
1.388496e+003, 3.243306e-003
1.390424e+003, 3.600309e-003
1.392353e+003, 3.538687e-003
1.394281e+003, 3.239048e-003
1.396210e+003, 3.453433e-003
1.398138e+003, 3.640503e-003
1.400067e+003, 3.836353e-003
1.401995e+003, 4.030590e-003
1.403924e+003, 3.978937e-003
1.405852e+003, 4.037082e-003
1.407781e+003, 4.235746e-003
1.409709e+003, 4.322475e-003
1.411638e+003, 4.343906e-003
1.413566e+003, 4.428596e-003
1.415495e+003, 4.422194e-003
1.417423e+003, 4.011272e-003
1.419351e+003, 3.784106e-003
1.421280e+003, 4.239509e-003
1.423208e+003, 4.432722e-003
1.425137e+003, 4.535493e-003
1.427065e+003, 4.727203e-003
1.428994e+003, 4.712247e-003
1.430922e+003, 4.691211e-003
1.432851e+003, 4.740233e-003
1.434779e+003, 4.527771e-003
1.436708e+003, 4.191001e-003
1.438636e+003, 4.608519e-003
1.440565e+003, 4.904209e-003
1.442493e+003, 4.947078e-003
1.444422e+003, 4.947497e-003
1.446350e+003, 4.848462e-003
1.448278e+003, 4.762700e-003
1.450207e+003, 4.988329e-003
1.452135e+003, 5.071916e-003
1.454064e+003, 4.766239e-003
1.455992e+003, 3.781845e-003
1.457921e+003, 3.843791e-003
1.459849e+003, 4.708110e-003
1.461778e+003, 4.959114e-003
1.463706e+003, 4.675716e-003
1.465635e+003, 4.756861e-003
1.467563e+003, 5.106174e-003
1.469492e+003, 4.809923e-003
1.471420e+003, 4.036306e-003
1.473349e+003, 3.688366e-003
1.475277e+003, 4.011152e-003
1.477205e+003, 4.302736e-003
1.479134e+003, 4.465108e-003
1.481062e+003, 4.388550e-003
1.482991e+003, 4.463915e-003
1.484919e+003, 4.396337e-003
1.486848e+003, 4.245268e-003
1.488776e+003, 4.138162e-003
1.490705e+003, 4.205597e-003
1.492633e+003, 4.573311e-003
1.494562e+003, 4.443579e-003
1.496490e+003, 4.046246e-003
1.498419e+003, 4.200586e-003
1.500347e+003, 4.452492e-003
1.502276e+003, 4.522811e-003
1.504204e+003, 3.922901e-003
1.506132e+003, 2.984031e-003
1.508061e+003, 3.553224e-003
1.509989e+003, 4.507861e-003
1.511918e+003, 4.631348e-003
1.513846e+003, 4.651191e-003
1.515775e+003, 4.574825e-003
1.517703e+003, 4.574968e-003
1.519632e+003, 4.164300e-003
1.521560e+003, 3.782032e-003
1.523489e+003, 4.461561e-003
1.525417e+003, 4.717395e-003
1.527346e+003, 4.969062e-003
1.529274e+003, 5.279765e-003
1.531203e+003, 5.216312e-003
1.533131e+003, 4.880302e-003
1.535059e+003, 5.176587e-003
1.536988e+003, 5.053563e-003
1.538916e+003, 4.078919e-003
1.540845e+003, 4.210141e-003
1.542773e+003, 5.058507e-003
1.544702e+003, 5.623403e-003
1.546630e+003, 6.283087e-003
1.548559e+003, 6.551934e-003
1.550487e+003, 6.607872e-003
1.552416e+003, 6.658893e-003
1.554344e+003, 6.480054e-003
1.556273e+003, 6.081823e-003
1.558201e+003, 4.892865e-003
1.560130e+003, 5.249517e-003
1.562058e+003, 6.704582e-003
1.563986e+003, 7.143867e-003
1.565915e+003, 7.178631e-003
1.567843e+003, 6.977353e-003
1.569772e+003, 6.811608e-003
1.571700e+003, 7.218580e-003
1.573629e+003, 7.032754e-003
1.575557e+003, 6.253583e-003
1.577486e+003, 6.656798e-003
1.579414e+003, 7.455222e-003
1.581343e+003, 7.675436e-003
1.583271e+003, 7.654722e-003
1.585200e+003, 7.598408e-003
1.587128e+003, 7.668380e-003
1.589057e+003, 7.661560e-003
1.590985e+003, 7.824392e-003
1.592913e+003, 7.943051e-003
1.594842e+003, 7.934178e-003
1.596770e+003, 7.907549e-003
1.598699e+003, 7.887585e-003
1.600627e+003, 7.880691e-003
1.602556e+003, 7.934005e-003
1.604484e+003, 7.918502e-003
1.606413e+003, 7.834255e-003
1.608341e+003, 7.727056e-003
1.610270e+003, 7.690367e-003
1.612198e+003, 7.777684e-003
1.614127e+003, 7.575526e-003
1.616055e+003, 6.685452e-003
1.617984e+003, 6.974443e-003
1.619912e+003, 7.694120e-003
1.621840e+003, 7.467220e-003
1.623769e+003, 7.416788e-003
1.625697e+003, 7.601559e-003
1.627626e+003, 7.483410e-003
1.629554e+003, 7.623259e-003
1.631483e+003, 7.802356e-003
1.633411e+003, 7.381570e-003
1.635340e+003, 6.674950e-003
1.637268e+003, 7.054314e-003
1.639197e+003, 7.662381e-003
1.641125e+003, 7.694372e-003
1.643054e+003, 7.587970e-003
1.644982e+003, 7.036548e-003
1.646911e+003, 6.787062e-003
1.648839e+003, 7.186987e-003
1.650767e+003, 6.458786e-003
1.652696e+003, 4.857082e-003
1.654624e+003, 5.869892e-003
1.656553e+003, 7.256245e-003
1.658481e+003, 7.493102e-003
1.660410e+003, 7.262108e-003
1.662338e+003, 6.959338e-003
1.664267e+003, 7.129575e-003
1.666195e+003, 7.274962e-003
1.668124e+003, 6.810446e-003
1.670052e+003, 6.617108e-003
1.671981e+003, 6.979688e-003
1.673909e+003, 6.622515e-003
1.675838e+003, 6.287870e-003
1.677766e+003, 6.712083e-003
1.679694e+003, 6.654942e-003
1.681623e+003, 6.096699e-003
1.683551e+003, 4.891245e-003
1.685480e+003, 5.167897e-003
1.687408e+003, 6.315413e-003
1.689337e+003, 6.440598e-003
1.691265e+003, 6.565054e-003
1.693194e+003, 6.366431e-003
1.695122e+003, 5.115525e-003
1.697051e+003, 5.031793e-003
1.698979e+003, 4.782916e-003
1.700908e+003, 4.654451e-003
1.702836e+003, 5.693024e-003
1.704765e+003, 5.750095e-003
1.706693e+003, 6.016138e-003
1.708621e+003, 6.270287e-003
1.710550e+003, 6.305164e-003
1.712478e+003, 5.974232e-003
1.714407e+003, 5.570922e-003
1.716335e+003, 4.803036e-003
1.718264e+003, 4.800431e-003
1.720192e+003, 5.804063e-003
1.722121e+003, 6.144011e-003
1.724049e+003, 6.150395e-003
1.725978e+003, 6.452916e-003
1.727906e+003, 6.475104e-003
1.729835e+003, 6.126314e-003
1.731763e+003, 5.466980e-003
1.733692e+003, 4.610741e-003
1.735620e+003, 5.336473e-003
1.737548e+003, 5.965495e-003
1.739477e+003, 5.375707e-003
1.741405e+003, 5.331135e-003
1.743334e+003, 5.385521e-003
1.745262e+003, 5.262804e-003
1.747191e+003, 5.062019e-003
1.749119e+003, 4.787921e-003
1.751048e+003, 4.505380e-003
1.752976e+003, 4.951446e-003
1.754905e+003, 5.314535e-003
1.756833e+003, 5.215365e-003
1.758762e+003, 5.163795e-003
1.760690e+003, 4.781586e-003
1.762619e+003, 4.862065e-003
1.764547e+003, 5.309650e-003
1.766475e+003, 5.180584e-003
1.768404e+003, 4.877513e-003
1.770332e+003, 4.679641e-003
1.772261e+003, 4.330663e-003
1.774189e+003, 4.759329e-003
1.776118e+003, 5.338337e-003
1.778046e+003, 5.243794e-003
1.779975e+003, 5.053584e-003
1.781903e+003, 5.177894e-003
1.783832e+003, 5.393893e-003
1.785760e+003, 5.384320e-003
1.787689e+003, 5.415981e-003
1.789617e+003, 5.191877e-003
1.791546e+003, 4.635916e-003
1.793474e+003, 4.708908e-003
1.795402e+003, 5.080423e-003
1.797331e+003, 4.812805e-003
1.799259e+003, 4.736484e-003
1.801188e+003, 4.965152e-003
1.803116e+003, 5.232986e-003
1.805045e+003, 5.206462e-003
1.806973e+003, 5.317656e-003
1.808902e+003, 5.279495e-003
1.810830e+003, 5.073829e-003
1.812759e+003, 5.040334e-003
1.814687e+003, 4.950899e-003
1.816616e+003, 4.967580e-003
1.818544e+003, 5.144625e-003
1.820473e+003, 5.141006e-003
1.822401e+003, 5.171100e-003
1.824329e+003, 5.064358e-003
1.826258e+003, 5.155372e-003
1.828186e+003, 4.731852e-003
1.830115e+003, 4.401443e-003
1.832043e+003, 4.756436e-003
1.833972e+003, 5.032689e-003
1.835900e+003, 5.402394e-003
1.837829e+003, 5.289848e-003
1.839757e+003, 5.116887e-003
1.841686e+003, 4.818580e-003
1.843614e+003, 4.226909e-003
1.845543e+003, 4.412549e-003
1.847471e+003, 4.983054e-003
1.849400e+003, 5.045451e-003
1.851328e+003, 4.883606e-003
1.853256e+003, 4.950945e-003
1.855185e+003, 5.004057e-003
1.857113e+003, 5.072948e-003
1.859042e+003, 5.207751e-003
1.860970e+003, 5.183217e-003
1.862899e+003, 5.041907e-003
1.864827e+003, 5.168227e-003
1.866756e+003, 5.040471e-003
1.868684e+003, 4.830479e-003
1.870613e+003, 4.832946e-003
1.872541e+003, 4.901882e-003
1.874470e+003, 4.955209e-003
1.876398e+003, 5.021404e-003
1.878327e+003, 4.742854e-003
1.880255e+003, 4.939193e-003
1.882183e+003, 5.016423e-003
1.884112e+003, 4.579544e-003
1.886040e+003, 4.503076e-003
1.887969e+003, 5.112234e-003
1.889897e+003, 5.186089e-003
1.891826e+003, 4.834155e-003
1.893754e+003, 5.020855e-003
1.895683e+003, 5.192601e-003
1.897611e+003, 5.142452e-003
1.899540e+003, 4.993742e-003
1.901468e+003, 4.510887e-003
1.903397e+003, 4.638887e-003
1.905325e+003, 4.670351e-003
1.907254e+003, 4.508908e-003
1.909182e+003, 4.135326e-003
1.911110e+003, 4.178544e-003
1.913039e+003, 4.482922e-003
1.914967e+003, 4.702239e-003
1.916896e+003, 4.768791e-003
1.918824e+003, 4.779301e-003
1.920753e+003, 4.977126e-003
1.922681e+003, 5.047301e-003
1.924610e+003, 4.619457e-003
1.926538e+003, 4.344672e-003
1.928467e+003, 4.385456e-003
1.930395e+003, 4.645058e-003
1.932324e+003, 4.639515e-003
1.934252e+003, 4.499907e-003
1.936181e+003, 4.134520e-003
1.938109e+003, 4.501601e-003
1.940037e+003, 4.710190e-003
1.941966e+003, 4.813447e-003
1.943894e+003, 4.999714e-003
1.945823e+003, 4.220705e-003
1.947751e+003, 4.048034e-003
1.949680e+003, 4.386251e-003
1.951608e+003, 4.479200e-003
1.953537e+003, 4.299243e-003
1.955465e+003, 3.173063e-003
1.957394e+003, 2.865393e-003
1.959322e+003, 3.248865e-003
1.961251e+003, 3.852303e-003
1.963179e+003, 4.484985e-003
1.965108e+003, 4.811473e-003
1.967036e+003, 4.030151e-003
1.968964e+003, 3.311321e-003
1.970893e+003, 3.559720e-003
1.972821e+003, 3.830514e-003
1.974750e+003, 3.583103e-003
1.976678e+003, 4.530618e-003
1.978607e+003, 6.526357e-003
1.980535e+003, 7.563291e-003
1.982464e+003, 6.604261e-003
1.984392e+003, 6.304120e-003
1.986321e+003, 6.360901e-003
1.988249e+003, 5.605308e-003
1.990178e+003, 5.867206e-003
1.992106e+003, 6.907678e-003
1.994035e+003, 6.046528e-003
1.995963e+003, 5.605757e-003
1.997891e+003, 6.543676e-003
1.999820e+003, 6.229899e-003
2.001748e+003, 5.004124e-003
2.003677e+003, 4.689348e-003
2.005605e+003, 4.584291e-003
2.007534e+003, 5.075176e-003
2.009462e+003, 5.899016e-003
2.011391e+003, 6.087441e-003
2.013319e+003, 6.077753e-003
2.015248e+003, 6.189065e-003
2.017176e+003, 6.758511e-003
2.019105e+003, 6.876114e-003
2.021033e+003, 5.611899e-003
2.022962e+003, 4.866828e-003
2.024890e+003, 5.479426e-003
2.026818e+003, 5.152645e-003
2.028747e+003, 5.074897e-003
2.030675e+003, 6.185143e-003
2.032604e+003, 6.380485e-003
2.034532e+003, 6.358273e-003
2.036461e+003, 6.698396e-003
2.038389e+003, 6.149380e-003
2.040318e+003, 5.806327e-003
2.042246e+003, 5.671742e-003
2.044175e+003, 5.259994e-003
2.046103e+003, 5.528185e-003
2.048031e+003, 6.901902e-003
2.049960e+003, 7.920718e-003
2.051888e+003, 6.738856e-003
2.053817e+003, 5.899679e-003
2.055745e+003, 6.402452e-003
2.057674e+003, 6.693942e-003
2.059602e+003, 5.813883e-003
2.061531e+003, 5.617546e-003
2.063459e+003, 5.740767e-003
2.065388e+003, 6.166334e-003
2.067316e+003, 6.391691e-003
2.069245e+003, 6.196364e-003
2.071173e+003, 6.817895e-003
2.073102e+003, 6.911685e-003
2.075030e+003, 6.470657e-003
2.076958e+003, 6.413112e-003
2.078887e+003, 5.755637e-003
2.080815e+003, 5.949608e-003
2.082744e+003, 6.112244e-003
2.084672e+003, 6.127324e-003
2.086601e+003, 5.957696e-003
2.088529e+003, 5.611981e-003
2.090458e+003, 5.506276e-003
2.092386e+003, 5.436209e-003
2.094315e+003, 5.133758e-003
2.096243e+003, 5.717163e-003
2.098172e+003, 6.222686e-003
2.100100e+003, 6.684572e-003
2.102029e+003, 6.935711e-003
2.103957e+003, 6.954270e-003
2.105885e+003, 6.717836e-003
2.107814e+003, 6.520381e-003
2.109742e+003, 6.533894e-003
2.111671e+003, 6.753871e-003
2.113599e+003, 7.087757e-003
2.115528e+003, 7.102855e-003
2.117456e+003, 6.668764e-003
2.119385e+003, 5.980322e-003
2.121313e+003, 5.438056e-003
2.123242e+003, 5.635378e-003
2.125170e+003, 6.233066e-003
2.127099e+003, 6.077429e-003
2.129027e+003, 4.785263e-003
2.130956e+003, 4.619877e-003
2.132884e+003, 4.799106e-003
2.134813e+003, 5.397443e-003
2.136741e+003, 6.204009e-003
2.138669e+003, 5.486257e-003
2.140598e+003, 5.410015e-003
2.142526e+003, 6.211308e-003
2.144455e+003, 5.916711e-003
2.146383e+003, 6.115724e-003
2.148312e+003, 6.315131e-003
2.150240e+003, 6.342470e-003
2.152169e+003, 6.335687e-003
2.154097e+003, 5.556260e-003
2.156026e+003, 4.501113e-003
2.157954e+003, 6.250489e-003
2.159883e+003, 9.603135e-003
2.161811e+003, 9.765286e-003
2.163740e+003, 9.847037e-003
2.165668e+003, 1.065180e-002
2.167596e+003, 1.010066e-002
2.169525e+003, 1.013702e-002
2.171453e+003, 9.461525e-003
2.173382e+003, 8.580040e-003
2.175310e+003, 8.910626e-003
2.177239e+003, 9.355759e-003
2.179167e+003, 8.200765e-003
2.181096e+003, 8.225232e-003
2.183024e+003, 9.284033e-003
2.184953e+003, 9.888146e-003
2.186881e+003, 9.019217e-003
2.188810e+003, 8.738343e-003
2.190738e+003, 8.323330e-003
2.192667e+003, 8.152348e-003
2.194595e+003, 9.023066e-003
2.196523e+003, 9.224461e-003
2.198452e+003, 8.587552e-003
2.200380e+003, 8.911165e-003
2.202309e+003, 9.400425e-003
2.204237e+003, 9.109245e-003
2.206166e+003, 8.570234e-003
2.208094e+003, 8.877316e-003
2.210023e+003, 9.122386e-003
2.211951e+003, 8.477332e-003
2.213880e+003, 8.392496e-003
2.215808e+003, 8.929224e-003
2.217737e+003, 9.757184e-003
2.219665e+003, 9.607764e-003
2.221594e+003, 8.700743e-003
2.223522e+003, 8.090744e-003
2.225450e+003, 8.927055e-003
2.227379e+003, 9.438509e-003
2.229307e+003, 9.084320e-003
2.231236e+003, 8.797938e-003
2.233164e+003, 8.503388e-003
2.235093e+003, 8.457035e-003
2.237021e+003, 9.089933e-003
2.238950e+003, 9.520985e-003
2.240878e+003, 9.618280e-003
2.242807e+003, 9.905484e-003
2.244735e+003, 9.631038e-003
2.246664e+003, 9.210138e-003
2.248592e+003, 9.658881e-003
2.250521e+003, 1.037094e-002
2.252449e+003, 9.774655e-003
2.254377e+003, 9.406695e-003
2.256306e+003, 9.358069e-003
2.258234e+003, 9.300750e-003
2.260163e+003, 9.308243e-003
2.262091e+003, 9.498251e-003
2.264020e+003, 9.779591e-003
2.265948e+003, 9.977048e-003
2.267877e+003, 9.757715e-003
2.269805e+003, 1.019758e-002
2.271734e+003, 1.065936e-002
2.273662e+003, 1.052177e-002
2.275591e+003, 1.063436e-002
2.277519e+003, 1.076922e-002
2.279448e+003, 1.070025e-002
2.281376e+003, 1.061414e-002
2.283304e+003, 1.042463e-002
2.285233e+003, 1.028403e-002
2.287161e+003, 9.860137e-003
2.289090e+003, 9.646003e-003
2.291018e+003, 1.009948e-002
2.292947e+003, 1.041889e-002
2.294875e+003, 9.886524e-003
2.296804e+003, 9.789153e-003
2.298732e+003, 1.012173e-002
2.300661e+003, 1.037226e-002
2.302589e+003, 1.041647e-002
2.304518e+003, 1.005836e-002
2.306446e+003, 9.763328e-003
2.308375e+003, 9.800872e-003
2.310303e+003, 9.812091e-003
2.312231e+003, 9.832757e-003
2.314160e+003, 1.022140e-002
2.316088e+003, 1.022420e-002
2.318017e+003, 1.019419e-002
2.319945e+003, 1.050523e-002
2.321874e+003, 1.076853e-002
2.323802e+003, 1.077567e-002
2.325731e+003, 9.764373e-003
2.327659e+003, 9.180277e-003
2.329588e+003, 9.120150e-003
2.331516e+003, 9.093344e-003
2.333445e+003, 9.036756e-003
2.335373e+003, 8.976724e-003
2.337302e+003, 8.832617e-003
2.339230e+003, 8.834285e-003
2.341158e+003, 8.933337e-003
2.343087e+003, 9.032471e-003
2.345015e+003, 9.223825e-003
2.346944e+003, 9.661285e-003
2.348872e+003, 9.911976e-003
2.350801e+003, 9.857863e-003
2.352729e+003, 9.624164e-003
2.354658e+003, 9.469640e-003
2.356586e+003, 9.444666e-003
2.358515e+003, 9.011026e-003
2.360443e+003, 8.764694e-003
2.362372e+003, 8.668056e-003
2.364300e+003, 8.692211e-003
2.366229e+003, 8.808601e-003
2.368157e+003, 8.934777e-003
2.370085e+003, 9.086645e-003
2.372014e+003, 9.166677e-003
2.373942e+003, 9.230996e-003
2.375871e+003, 9.324391e-003
2.377799e+003, 9.374308e-003
2.379728e+003, 9.318710e-003
2.381656e+003, 9.558400e-003
2.383585e+003, 9.837228e-003
2.385513e+003, 9.866301e-003
2.387442e+003, 9.782643e-003
2.389370e+003, 9.813502e-003
2.391299e+003, 9.616962e-003
2.393227e+003, 9.506707e-003
2.395156e+003, 9.939536e-003
2.397084e+003, 9.979090e-003
2.399012e+003, 1.000123e-002
2.400941e+003, 1.009351e-002
2.402869e+003, 9.533037e-003
2.404798e+003, 9.483162e-003
2.406726e+003, 1.005795e-002
2.408655e+003, 9.953381e-003
2.410583e+003, 9.808601e-003
2.412512e+003, 1.002682e-002
2.414440e+003, 1.038174e-002
2.416369e+003, 1.065412e-002
2.418297e+003, 1.059142e-002
2.420226e+003, 1.044972e-002
2.422154e+003, 1.012782e-002
2.424083e+003, 1.010300e-002
2.426011e+003, 1.012817e-002
2.427939e+003, 1.001528e-002
2.429868e+003, 9.844330e-003
2.431796e+003, 9.946313e-003
2.433725e+003, 9.927166e-003
2.435653e+003, 9.950611e-003
2.437582e+003, 1.006134e-002
2.439510e+003, 1.031154e-002
2.441439e+003, 1.021647e-002
2.443367e+003, 9.987065e-003
2.445296e+003, 9.888487e-003
2.447224e+003, 1.018910e-002
2.449153e+003, 1.045568e-002
2.451081e+003, 1.046926e-002
2.453010e+003, 1.064901e-002
2.454938e+003, 1.057615e-002
2.456866e+003, 1.064714e-002
2.458795e+003, 1.081038e-002
2.460723e+003, 1.043870e-002
2.462652e+003, 1.044701e-002
2.464580e+003, 1.053817e-002
2.466509e+003, 1.052903e-002
2.468437e+003, 1.032074e-002
2.470366e+003, 1.037165e-002
2.472294e+003, 1.065845e-002
2.474223e+003, 1.081592e-002
2.476151e+003, 1.018439e-002
2.478080e+003, 9.519759e-003
2.480008e+003, 9.875765e-003
2.481937e+003, 1.044887e-002
2.483865e+003, 1.046508e-002
2.485793e+003, 1.033842e-002
2.487722e+003, 1.066525e-002
2.489650e+003, 1.070997e-002
2.491579e+003, 1.042860e-002
2.493507e+003, 1.032518e-002
2.495436e+003, 1.036065e-002
2.497364e+003, 1.035081e-002
2.499293e+003, 1.006308e-002
2.501221e+003, 1.012207e-002
2.503150e+003, 1.068758e-002
2.505078e+003, 1.096896e-002
2.507007e+003, 1.060781e-002
2.508935e+003, 1.045559e-002
2.510864e+003, 1.063107e-002
2.512792e+003, 1.088528e-002
2.514720e+003, 1.074852e-002
2.516649e+003, 1.082306e-002
2.518577e+003, 1.072883e-002
2.520506e+003, 1.069019e-002
2.522434e+003, 1.124870e-002
2.524363e+003, 1.108032e-002
2.526291e+003, 1.059825e-002
2.528220e+003, 1.078756e-002
2.530148e+003, 1.084907e-002
2.532077e+003, 1.071250e-002
2.534005e+003, 1.104664e-002
2.535934e+003, 1.098089e-002
2.537862e+003, 1.087939e-002
2.539791e+003, 1.099970e-002
2.541719e+003, 1.115534e-002
2.543647e+003, 1.125245e-002
2.545576e+003, 1.145369e-002
2.547504e+003, 1.126413e-002
2.549433e+003, 1.098327e-002
2.551361e+003, 1.103916e-002
2.553290e+003, 1.124809e-002
2.555218e+003, 1.124200e-002
2.557147e+003, 1.135579e-002
2.559075e+003, 1.150968e-002
2.561004e+003, 1.135396e-002
2.562932e+003, 1.135936e-002
2.564861e+003, 1.128784e-002
2.566789e+003, 1.102432e-002
2.568718e+003, 1.131598e-002
2.570646e+003, 1.150977e-002
2.572574e+003, 1.138401e-002
2.574503e+003, 1.121404e-002
2.576431e+003, 1.101435e-002
2.578360e+003, 1.110442e-002
2.580288e+003, 1.125186e-002
2.582217e+003, 1.138182e-002
2.584145e+003, 1.154431e-002
2.586074e+003, 1.170889e-002
2.588002e+003, 1.198448e-002
2.589931e+003, 1.184029e-002
2.591859e+003, 1.123843e-002
2.593788e+003, 1.127998e-002
2.595716e+003, 1.170632e-002
2.597645e+003, 1.180323e-002
2.599573e+003, 1.178462e-002
2.601501e+003, 1.173329e-002
2.603430e+003, 1.194400e-002
2.605358e+003, 1.204972e-002
2.607287e+003, 1.157410e-002
2.609215e+003, 1.157248e-002
2.611144e+003, 1.175598e-002
2.613072e+003, 1.204249e-002
2.615001e+003, 1.242582e-002
2.616929e+003, 1.231704e-002
2.618858e+003, 1.189941e-002
2.620786e+003, 1.196357e-002
2.622715e+003, 1.216580e-002
2.624643e+003, 1.197316e-002
2.626572e+003, 1.187040e-002
2.628500e+003, 1.196170e-002
2.630428e+003, 1.215530e-002
2.632357e+003, 1.233184e-002
2.634285e+003, 1.235131e-002
2.636214e+003, 1.252066e-002
2.638142e+003, 1.252491e-002
2.640071e+003, 1.259159e-002
2.641999e+003, 1.286487e-002
2.643928e+003, 1.282707e-002
2.645856e+003, 1.268877e-002
2.647785e+003, 1.255136e-002
2.649713e+003, 1.253356e-002
2.651642e+003, 1.254564e-002
2.653570e+003, 1.237617e-002
2.655499e+003, 1.240058e-002
2.657427e+003, 1.266010e-002
2.659355e+003, 1.273115e-002
2.661284e+003, 1.261525e-002
2.663212e+003, 1.243026e-002
2.665141e+003, 1.222098e-002
2.667069e+003, 1.216950e-002
2.668998e+003, 1.232115e-002
2.670926e+003, 1.228555e-002
2.672855e+003, 1.217355e-002
2.674783e+003, 1.214260e-002
2.676712e+003, 1.217183e-002
2.678640e+003, 1.227086e-002
2.680569e+003, 1.247417e-002
2.682497e+003, 1.239972e-002
2.684426e+003, 1.241003e-002
2.686354e+003, 1.249320e-002
2.688282e+003, 1.246269e-002
2.690211e+003, 1.259781e-002
2.692139e+003, 1.274925e-002
2.694068e+003, 1.281944e-002
2.695996e+003, 1.264415e-002
2.697925e+003, 1.246748e-002
2.699853e+003, 1.256404e-002
2.701782e+003, 1.251650e-002
2.703710e+003, 1.250520e-002
2.705639e+003, 1.249884e-002
2.707567e+003, 1.265205e-002
2.709496e+003, 1.255729e-002
2.711424e+003, 1.257753e-002
2.713353e+003, 1.275300e-002
2.715281e+003, 1.283460e-002
2.717209e+003, 1.255273e-002
2.719138e+003, 1.233842e-002
2.721066e+003, 1.251240e-002
2.722995e+003, 1.274335e-002
2.724923e+003, 1.303847e-002
2.726852e+003, 1.319317e-002
2.728780e+003, 1.307913e-002
2.730709e+003, 1.305914e-002
2.732637e+003, 1.298107e-002
2.734566e+003, 1.298341e-002
2.736494e+003, 1.293330e-002
2.738423e+003, 1.284422e-002
2.740351e+003, 1.292858e-002
2.742280e+003, 1.299137e-002
2.744208e+003, 1.305579e-002
2.746136e+003, 1.327439e-002
2.748065e+003, 1.332703e-002
2.749993e+003, 1.303544e-002
2.751922e+003, 1.306260e-002
2.753850e+003, 1.307124e-002
2.755779e+003, 1.316999e-002
2.757707e+003, 1.332966e-002
2.759636e+003, 1.323889e-002
2.761564e+003, 1.288687e-002
2.763493e+003, 1.300096e-002
2.765421e+003, 1.311912e-002
2.767350e+003, 1.321618e-002
2.769278e+003, 1.327758e-002
2.771207e+003, 1.347813e-002
2.773135e+003, 1.355529e-002
2.775063e+003, 1.347633e-002
2.776992e+003, 1.339465e-002
2.778920e+003, 1.334302e-002
2.780849e+003, 1.344045e-002
2.782777e+003, 1.354977e-002
2.784706e+003, 1.364533e-002
2.786634e+003, 1.366005e-002
2.788563e+003, 1.351108e-002
2.790491e+003, 1.352450e-002
2.792420e+003, 1.366741e-002
2.794348e+003, 1.381276e-002
2.796277e+003, 1.380547e-002
2.798205e+003, 1.368788e-002
2.800134e+003, 1.361658e-002
2.802062e+003, 1.366150e-002
2.803990e+003, 1.368963e-002
2.805919e+003, 1.374159e-002
2.807847e+003, 1.387537e-002
2.809776e+003, 1.394785e-002
2.811704e+003, 1.403295e-002
2.813633e+003, 1.409704e-002
2.815561e+003, 1.418055e-002
2.817490e+003, 1.414026e-002
2.819418e+003, 1.396525e-002
2.821347e+003, 1.422515e-002
2.823275e+003, 1.432861e-002
2.825204e+003, 1.448791e-002
2.827132e+003, 1.470325e-002
2.829061e+003, 1.478420e-002
2.830989e+003, 1.467186e-002
2.832917e+003, 1.440684e-002
2.834846e+003, 1.457987e-002
2.836774e+003, 1.486560e-002
2.838703e+003, 1.502865e-002
2.840631e+003, 1.541710e-002
2.842560e+003, 1.585390e-002
2.844488e+003, 1.592627e-002
2.846417e+003, 1.636844e-002
2.848345e+003, 1.685275e-002
2.850274e+003, 1.696072e-002
2.852202e+003, 1.712382e-002
2.854131e+003, 1.721320e-002
2.856059e+003, 1.710974e-002
2.857988e+003, 1.673698e-002
2.859916e+003, 1.612400e-002
2.861844e+003, 1.585551e-002
2.863773e+003, 1.585529e-002
2.865701e+003, 1.577638e-002
2.867630e+003, 1.560126e-002
2.869558e+003, 1.564647e-002
2.871487e+003, 1.570375e-002
2.873415e+003, 1.567569e-002
2.875344e+003, 1.599423e-002
2.877272e+003, 1.601110e-002
2.879201e+003, 1.596071e-002
2.881129e+003, 1.585959e-002
2.883058e+003, 1.600096e-002
2.884986e+003, 1.626201e-002
2.886915e+003, 1.621780e-002
2.888843e+003, 1.642504e-002
2.890771e+003, 1.679284e-002
2.892700e+003, 1.696009e-002
2.894628e+003, 1.681088e-002
2.896557e+003, 1.679859e-002
2.898485e+003, 1.674101e-002
2.900414e+003, 1.672727e-002
2.902342e+003, 1.701367e-002
2.904271e+003, 1.748802e-002
2.906199e+003, 1.761948e-002
2.908128e+003, 1.755687e-002
2.910056e+003, 1.763036e-002
2.911985e+003, 1.803624e-002
2.913913e+003, 1.870888e-002
2.915842e+003, 1.939234e-002
2.917770e+003, 1.975632e-002
2.919698e+003, 1.998984e-002
2.921627e+003, 2.008521e-002
2.923555e+003, 2.006054e-002
2.925484e+003, 1.977026e-002
2.927412e+003, 1.942776e-002
2.929341e+003, 1.900734e-002
2.931269e+003, 1.863223e-002
2.933198e+003, 1.863034e-002
2.935126e+003, 1.816935e-002
2.937055e+003, 1.752478e-002
2.938983e+003, 1.734592e-002
2.940912e+003, 1.695995e-002
2.942840e+003, 1.650414e-002
2.944769e+003, 1.647251e-002
2.946697e+003, 1.646663e-002
2.948625e+003, 1.666590e-002
2.950554e+003, 1.680947e-002
2.952482e+003, 1.658602e-002
2.954411e+003, 1.682828e-002
2.956339e+003, 1.746650e-002
2.958268e+003, 1.767142e-002
2.960196e+003, 1.725309e-002
2.962125e+003, 1.649670e-002
2.964053e+003, 1.657175e-002
2.965982e+003, 1.662680e-002
2.967910e+003, 1.631237e-002
2.969839e+003, 1.539607e-002
2.971767e+003, 1.520615e-002
2.973696e+003, 1.555977e-002
2.975624e+003, 1.555016e-002
2.977552e+003, 1.515805e-002
2.979481e+003, 1.537870e-002
2.981409e+003, 1.512803e-002
2.983338e+003, 1.524137e-002
2.985266e+003, 1.569402e-002
2.987195e+003, 1.563408e-002
2.989123e+003, 1.521528e-002
2.991052e+003, 1.505129e-002
2.992980e+003, 1.514493e-002
2.994909e+003, 1.542744e-002
2.996837e+003, 1.553952e-002
2.998766e+003, 1.540167e-002
3.000694e+003, 1.515169e-002
3.002623e+003, 1.516329e-002
3.004551e+003, 1.499897e-002
3.006479e+003, 1.485670e-002
3.008408e+003, 1.513317e-002
3.010336e+003, 1.533931e-002
3.012265e+003, 1.532132e-002
3.014193e+003, 1.578324e-002
3.016122e+003, 1.590670e-002
3.018050e+003, 1.567573e-002
3.019979e+003, 1.575862e-002
3.021907e+003, 1.594882e-002
3.023836e+003, 1.590146e-002
3.025764e+003, 1.576787e-002
3.027693e+003, 1.585047e-002
3.029621e+003, 1.566973e-002
3.031550e+003, 1.522110e-002
3.033478e+003, 1.512042e-002
3.035406e+003, 1.557638e-002
3.037335e+003, 1.562919e-002
3.039263e+003, 1.553086e-002
3.041192e+003, 1.568331e-002
3.043120e+003, 1.611459e-002
3.045049e+003, 1.611780e-002
3.046977e+003, 1.567768e-002
3.048906e+003, 1.573489e-002
3.050834e+003, 1.561305e-002
3.052763e+003, 1.557538e-002
3.054691e+003, 1.550827e-002
3.056620e+003, 1.558339e-002
3.058548e+003, 1.597405e-002
3.060477e+003, 1.598654e-002
3.062405e+003, 1.577652e-002
3.064333e+003, 1.569065e-002
3.066262e+003, 1.593807e-002
3.068190e+003, 1.624933e-002
3.070119e+003, 1.615149e-002
3.072047e+003, 1.602333e-002
3.073976e+003, 1.625613e-002
3.075904e+003, 1.649182e-002
3.077833e+003, 1.627664e-002
3.079761e+003, 1.611968e-002
3.081690e+003, 1.646212e-002
3.083618e+003, 1.629893e-002
3.085547e+003, 1.631166e-002
3.087475e+003, 1.665001e-002
3.089404e+003, 1.664315e-002
3.091332e+003, 1.660042e-002
3.093260e+003, 1.638652e-002
3.095189e+003, 1.616188e-002
3.097117e+003, 1.609879e-002
3.099046e+003, 1.649831e-002
3.100974e+003, 1.680750e-002
3.102903e+003, 1.651781e-002
3.104831e+003, 1.659521e-002
3.106760e+003, 1.638821e-002
3.108688e+003, 1.617024e-002
3.110617e+003, 1.629497e-002
3.112545e+003, 1.668753e-002
3.114474e+003, 1.686301e-002
3.116402e+003, 1.690267e-002
3.118331e+003, 1.727157e-002
3.120259e+003, 1.732243e-002
3.122188e+003, 1.682961e-002
3.124116e+003, 1.674449e-002
3.126044e+003, 1.730961e-002
3.127973e+003, 1.684335e-002
3.129901e+003, 1.642200e-002
3.131830e+003, 1.656232e-002
3.133758e+003, 1.691684e-002
3.135687e+003, 1.733532e-002
3.137615e+003, 1.730540e-002
3.139544e+003, 1.732505e-002
3.141472e+003, 1.727177e-002
3.143401e+003, 1.726408e-002
3.145329e+003, 1.742420e-002
3.147258e+003, 1.770650e-002
3.149186e+003, 1.746333e-002
3.151115e+003, 1.725278e-002
3.153043e+003, 1.744294e-002
3.154971e+003, 1.758973e-002
3.156900e+003, 1.778756e-002
3.158828e+003, 1.793411e-002
3.160757e+003, 1.803689e-002
3.162685e+003, 1.816784e-002
3.164614e+003, 1.793007e-002
3.166542e+003, 1.766216e-002
3.168471e+003, 1.775987e-002
3.170399e+003, 1.753081e-002
3.172328e+003, 1.698244e-002
3.174256e+003, 1.714892e-002
3.176185e+003, 1.756928e-002
3.178113e+003, 1.746708e-002
3.180042e+003, 1.729378e-002
3.181970e+003, 1.762934e-002
3.183898e+003, 1.794966e-002
3.185827e+003, 1.795461e-002
3.187755e+003, 1.786496e-002
3.189684e+003, 1.762802e-002
3.191612e+003, 1.750434e-002
3.193541e+003, 1.748079e-002
3.195469e+003, 1.777365e-002
3.197398e+003, 1.807215e-002
3.199326e+003, 1.825496e-002
3.201255e+003, 1.831524e-002
3.203183e+003, 1.813182e-002
3.205112e+003, 1.780276e-002
3.207040e+003, 1.752480e-002
3.208969e+003, 1.736766e-002
3.210897e+003, 1.766322e-002
3.212825e+003, 1.832241e-002
3.214754e+003, 1.840740e-002
3.216682e+003, 1.797202e-002
3.218611e+003, 1.787787e-002
3.220539e+003, 1.839651e-002
3.222468e+003, 1.846904e-002
3.224396e+003, 1.810045e-002
3.226325e+003, 1.800501e-002
3.228253e+003, 1.818129e-002
3.230182e+003, 1.879052e-002
3.232110e+003, 1.890817e-002
3.234039e+003, 1.851490e-002
3.235967e+003, 1.835024e-002
3.237896e+003, 1.834765e-002
3.239824e+003, 1.826306e-002
3.241752e+003, 1.861135e-002
3.243681e+003, 1.857437e-002
3.245609e+003, 1.812485e-002
3.247538e+003, 1.841321e-002
3.249466e+003, 1.849643e-002
3.251395e+003, 1.801015e-002
3.253323e+003, 1.784558e-002
3.255252e+003, 1.875698e-002
3.257180e+003, 1.942635e-002
3.259109e+003, 1.855559e-002
3.261037e+003, 1.831639e-002
3.262966e+003, 1.829291e-002
3.264894e+003, 1.784317e-002
3.266823e+003, 1.802084e-002
3.268751e+003, 1.900636e-002
3.270679e+003, 1.941638e-002
3.272608e+003, 1.925400e-002
3.274536e+003, 1.902635e-002
3.276465e+003, 1.877888e-002
3.278393e+003, 1.822051e-002
3.280322e+003, 1.820785e-002
3.282250e+003, 1.844158e-002
3.284179e+003, 1.831338e-002
3.286107e+003, 1.840879e-002
3.288036e+003, 1.872782e-002
3.289964e+003, 1.853048e-002
3.291893e+003, 1.869135e-002
3.293821e+003, 1.929871e-002
3.295750e+003, 1.953289e-002
3.297678e+003, 1.950995e-002
3.299606e+003, 1.956254e-002
3.301535e+003, 1.916834e-002
3.303463e+003, 1.864060e-002
3.305392e+003, 1.897057e-002
3.307320e+003, 1.932164e-002
3.309249e+003, 1.877542e-002
3.311177e+003, 1.863239e-002
3.313106e+003, 1.888420e-002
3.315034e+003, 1.900221e-002
3.316963e+003, 1.907649e-002
3.318891e+003, 1.897766e-002
3.320820e+003, 1.900672e-002
3.322748e+003, 1.891007e-002
3.324677e+003, 1.914502e-002
3.326605e+003, 1.924756e-002
3.328533e+003, 1.903629e-002
3.330462e+003, 1.864749e-002
3.332390e+003, 1.879336e-002
3.334319e+003, 1.967689e-002
3.336247e+003, 1.945674e-002
3.338176e+003, 1.888458e-002
3.340104e+003, 1.908427e-002
3.342033e+003, 1.966702e-002
3.343961e+003, 1.913609e-002
3.345890e+003, 1.859049e-002
3.347818e+003, 1.896759e-002
3.349747e+003, 1.928345e-002
3.351675e+003, 1.959400e-002
3.353604e+003, 1.935534e-002
3.355532e+003, 1.942142e-002
3.357460e+003, 1.957888e-002
3.359389e+003, 1.909684e-002
3.361317e+003, 1.900847e-002
3.363246e+003, 1.899054e-002
3.365174e+003, 1.858712e-002
3.367103e+003, 1.847705e-002
3.369031e+003, 1.889236e-002
3.370960e+003, 1.869543e-002
3.372888e+003, 1.848741e-002
3.374817e+003, 1.840396e-002
3.376745e+003, 1.884944e-002
3.378674e+003, 1.906066e-002
3.380602e+003, 1.874677e-002
3.382531e+003, 1.902591e-002
3.384459e+003, 1.948619e-002
3.386387e+003, 1.937673e-002
3.388316e+003, 1.948079e-002
3.390244e+003, 1.984234e-002
3.392173e+003, 1.968876e-002
3.394101e+003, 1.958321e-002
3.396030e+003, 1.903966e-002
3.397958e+003, 1.886409e-002
3.399887e+003, 1.957493e-002
3.401815e+003, 1.974408e-002
3.403744e+003, 1.905956e-002
3.405672e+003, 1.871236e-002
3.407601e+003, 1.889238e-002
3.409529e+003, 1.925400e-002
3.411458e+003, 1.923187e-002
3.413386e+003, 1.910201e-002
3.415314e+003, 1.953856e-002
3.417243e+003, 1.921309e-002
3.419171e+003, 1.885761e-002
3.421100e+003, 1.940546e-002
3.423028e+003, 1.909661e-002
3.424957e+003, 1.863864e-002
3.426885e+003, 1.834330e-002
3.428814e+003, 1.855879e-002
3.430742e+003, 1.870558e-002
3.432671e+003, 1.908926e-002
3.434599e+003, 1.923308e-002
3.436528e+003, 1.890674e-002
3.438456e+003, 1.859808e-002
3.440385e+003, 1.840973e-002
3.442313e+003, 1.862164e-002
3.444241e+003, 1.937508e-002
3.446170e+003, 1.945080e-002
3.448098e+003, 1.919950e-002
3.450027e+003, 1.951313e-002
3.451955e+003, 1.943651e-002
3.453884e+003, 1.933442e-002
3.455812e+003, 1.967080e-002
3.457741e+003, 1.936313e-002
3.459669e+003, 1.882684e-002
3.461598e+003, 1.880500e-002
3.463526e+003, 1.812431e-002
3.465455e+003, 1.789683e-002
3.467383e+003, 1.822243e-002
3.469312e+003, 1.887701e-002
3.471240e+003, 1.836709e-002
3.473168e+003, 1.835232e-002
3.475097e+003, 1.877348e-002
3.477025e+003, 1.851560e-002
3.478954e+003, 1.901531e-002
3.480882e+003, 1.924085e-002
3.482811e+003, 1.832492e-002
3.484739e+003, 1.831856e-002
3.486668e+003, 1.834328e-002
3.488596e+003, 1.843984e-002
3.490525e+003, 1.914426e-002
3.492453e+003, 1.874856e-002
3.494382e+003, 1.878091e-002
3.496310e+003, 1.923418e-002
3.498239e+003, 1.892045e-002
3.500167e+003, 1.879112e-002
3.502095e+003, 1.852819e-002
3.504024e+003, 1.840991e-002
3.505952e+003, 1.861825e-002
3.507881e+003, 1.871541e-002
3.509809e+003, 1.880996e-002
3.511738e+003, 1.892981e-002
3.513666e+003, 1.873685e-002
3.515595e+003, 1.916199e-002
3.517523e+003, 1.907286e-002
3.519452e+003, 1.881775e-002
3.521380e+003, 1.907658e-002
3.523309e+003, 1.861908e-002
3.525237e+003, 1.881132e-002
3.527166e+003, 1.881815e-002
3.529094e+003, 1.806683e-002
3.531022e+003, 1.817647e-002
3.532951e+003, 1.872257e-002
3.534879e+003, 1.847550e-002
3.536808e+003, 1.876843e-002
3.538736e+003, 1.887394e-002
3.540665e+003, 1.869038e-002
3.542593e+003, 1.852860e-002
3.544522e+003, 1.830843e-002
3.546450e+003, 1.832905e-002
3.548379e+003, 1.857530e-002
3.550307e+003, 1.896723e-002
3.552236e+003, 1.902182e-002
3.554164e+003, 1.835185e-002
3.556093e+003, 1.835485e-002
3.558021e+003, 1.823749e-002
3.559949e+003, 1.746743e-002
3.561878e+003, 1.767405e-002
3.563806e+003, 1.788341e-002
3.565735e+003, 1.735698e-002
3.567663e+003, 1.738498e-002
3.569592e+003, 1.772628e-002
3.571520e+003, 1.823612e-002
3.573449e+003, 1.811643e-002
3.575377e+003, 1.729041e-002
3.577306e+003, 1.754422e-002
3.579234e+003, 1.769817e-002
3.581163e+003, 1.802634e-002
3.583091e+003, 1.804213e-002
3.585020e+003, 1.703695e-002
3.586948e+003, 1.597441e-002
3.588876e+003, 1.619117e-002
3.590805e+003, 1.708320e-002
3.592733e+003, 1.736906e-002
3.594662e+003, 1.695843e-002
3.596590e+003, 1.714724e-002
3.598519e+003, 1.758490e-002
3.600447e+003, 1.760634e-002
3.602376e+003, 1.778752e-002
3.604304e+003, 1.778250e-002
3.606233e+003, 1.739672e-002
3.608161e+003, 1.651156e-002
3.610090e+003, 1.635439e-002
3.612018e+003, 1.602415e-002
3.613947e+003, 1.616005e-002
3.615875e+003, 1.707033e-002
3.617803e+003, 1.669663e-002
3.619732e+003, 1.623464e-002
3.621660e+003, 1.681477e-002
3.623589e+003, 1.786647e-002
3.625517e+003, 1.807424e-002
3.627446e+003, 1.614135e-002
3.629374e+003, 1.517959e-002
3.631303e+003, 1.722411e-002
3.633231e+003, 1.799613e-002
3.635160e+003, 1.794497e-002
3.637088e+003, 1.815680e-002
3.639017e+003, 1.866532e-002
3.640945e+003, 1.841676e-002
3.642874e+003, 1.797594e-002
3.644802e+003, 1.752695e-002
3.646730e+003, 1.676765e-002
3.648659e+003, 1.535703e-002
3.650587e+003, 1.550997e-002
3.652516e+003, 1.739395e-002
3.654444e+003, 1.808879e-002
3.656373e+003, 1.727102e-002
3.658301e+003, 1.812644e-002
3.660230e+003, 1.876144e-002
3.662158e+003, 1.810607e-002
3.664087e+003, 1.755352e-002
3.666015e+003, 1.720636e-002
3.667944e+003, 1.631376e-002
3.669872e+003, 1.506779e-002
3.671801e+003, 1.506191e-002
3.673729e+003, 1.433675e-002
3.675657e+003, 1.287236e-002
3.677586e+003, 1.465864e-002
3.679514e+003, 1.614221e-002
3.681443e+003, 1.644047e-002
3.683371e+003, 1.606315e-002
3.685300e+003, 1.567009e-002
3.687228e+003, 1.424987e-002
3.689157e+003, 1.371005e-002
3.691085e+003, 1.417475e-002
3.693014e+003, 1.475120e-002
3.694942e+003, 1.579436e-002
3.696871e+003, 1.567999e-002
3.698799e+003, 1.528276e-002
3.700728e+003, 1.469116e-002
3.702656e+003, 1.423951e-002
3.704584e+003, 1.495701e-002
3.706513e+003, 1.488233e-002
3.708441e+003, 1.423773e-002
3.710370e+003, 1.343291e-002
3.712298e+003, 1.384002e-002
3.714227e+003, 1.476784e-002
3.716155e+003, 1.498821e-002
3.718084e+003, 1.482811e-002
3.720012e+003, 1.477829e-002
3.721941e+003, 1.452918e-002
3.723869e+003, 1.450444e-002
3.725798e+003, 1.508337e-002
3.727726e+003, 1.544936e-002
3.729655e+003, 1.466016e-002
3.731583e+003, 1.384085e-002
3.733511e+003, 1.420433e-002
3.735440e+003, 1.376608e-002
3.737368e+003, 1.396055e-002
3.739297e+003, 1.452958e-002
3.741225e+003, 1.439865e-002
3.743154e+003, 1.229142e-002
3.745082e+003, 1.179261e-002
3.747011e+003, 1.368512e-002
3.748939e+003, 1.288793e-002
3.750868e+003, 1.216281e-002
3.752796e+003, 1.223699e-002
3.754725e+003, 1.426499e-002
3.756653e+003, 1.470546e-002
3.758582e+003, 1.463839e-002
3.760510e+003, 1.460217e-002
3.762438e+003, 1.527244e-002
3.764367e+003, 1.547167e-002
3.766295e+003, 1.568925e-002
3.768224e+003, 1.527696e-002
3.770152e+003, 1.479980e-002
3.772081e+003, 1.539143e-002
3.774009e+003, 1.616304e-002
3.775938e+003, 1.601757e-002
3.777866e+003, 1.524744e-002
3.779795e+003, 1.484459e-002
3.781723e+003, 1.601397e-002
3.783652e+003, 1.642136e-002
3.785580e+003, 1.568550e-002
3.787509e+003, 1.531790e-002
3.789437e+003, 1.537934e-002
3.791365e+003, 1.548649e-002
3.793294e+003, 1.552788e-002
3.795222e+003, 1.502190e-002
3.797151e+003, 1.480040e-002
3.799079e+003, 1.499136e-002
3.801008e+003, 1.352552e-002
3.802936e+003, 1.440645e-002
3.804865e+003, 1.514036e-002
3.806793e+003, 1.441590e-002
3.808722e+003, 1.443635e-002
3.810650e+003, 1.466494e-002
3.812579e+003, 1.627776e-002
3.814507e+003, 1.496945e-002
3.816436e+003, 1.385391e-002
3.818364e+003, 1.495313e-002
3.820292e+003, 1.483044e-002
3.822221e+003, 1.489444e-002
3.824149e+003, 1.545337e-002
3.826078e+003, 1.514862e-002
3.828006e+003, 1.593393e-002
3.829935e+003, 1.618442e-002
3.831863e+003, 1.519560e-002
3.833792e+003, 1.430962e-002
3.835720e+003, 1.303084e-002
3.837649e+003, 1.246006e-002
3.839577e+003, 1.452574e-002
3.841506e+003, 1.594874e-002
3.843434e+003, 1.553898e-002
3.845363e+003, 1.625942e-002
3.847291e+003, 1.729617e-002
3.849219e+003, 1.595632e-002
3.851148e+003, 1.326721e-002
3.853076e+003, 1.132842e-002
3.855005e+003, 1.309416e-002
3.856933e+003, 1.571432e-002
3.858862e+003, 1.571782e-002
3.860790e+003, 1.505477e-002
3.862719e+003, 1.414813e-002
3.864647e+003, 1.448249e-002
3.866576e+003, 1.610599e-002
3.868504e+003, 1.502888e-002
3.870433e+003, 1.431791e-002
3.872361e+003, 1.565252e-002
3.874290e+003, 1.588298e-002
3.876218e+003, 1.562439e-002
3.878146e+003, 1.518078e-002
3.880075e+003, 1.479860e-002
3.882003e+003, 1.525853e-002
3.883932e+003, 1.572956e-002
3.885860e+003, 1.519479e-002
3.887789e+003, 1.523865e-002
3.889717e+003, 1.525393e-002
3.891646e+003, 1.526413e-002
3.893574e+003, 1.548018e-002
3.895503e+003, 1.594269e-002
3.897431e+003, 1.605675e-002
3.899360e+003, 1.535937e-002
3.901288e+003, 1.471793e-002
3.903217e+003, 1.454562e-002
3.905145e+003, 1.529613e-002
3.907073e+003, 1.602667e-002
3.909002e+003, 1.631406e-002
3.910930e+003, 1.630790e-002
3.912859e+003, 1.652597e-002
3.914787e+003, 1.575029e-002
3.916716e+003, 1.542884e-002
3.918644e+003, 1.569830e-002
3.920573e+003, 1.593751e-002
3.922501e+003, 1.694444e-002
3.924430e+003, 1.672262e-002
3.926358e+003, 1.653974e-002
3.928287e+003, 1.693923e-002
3.930215e+003, 1.694326e-002
3.932144e+003, 1.641654e-002
3.934072e+003, 1.674081e-002
3.936000e+003, 1.720968e-002
3.937929e+003, 1.665851e-002
3.939857e+003, 1.635340e-002
3.941786e+003, 1.617990e-002
3.943714e+003, 1.676549e-002
3.945643e+003, 1.667763e-002
3.947571e+003, 1.606743e-002
3.949500e+003, 1.586531e-002
3.951428e+003, 1.590008e-002
3.953357e+003, 1.586995e-002
3.955285e+003, 1.657987e-002
3.957214e+003, 1.761951e-002
3.959142e+003, 1.731779e-002
3.961071e+003, 1.611471e-002
3.962999e+003, 1.617337e-002
3.964927e+003, 1.703066e-002
3.966856e+003, 1.705413e-002
3.968784e+003, 1.649680e-002
3.970713e+003, 1.653170e-002
3.972641e+003, 1.665077e-002
3.974570e+003, 1.655547e-002
3.976498e+003, 1.670577e-002
3.978427e+003, 1.725603e-002
3.980355e+003, 1.670958e-002
3.982284e+003, 1.633461e-002
3.984212e+003, 1.678016e-002
3.986141e+003, 1.724879e-002
3.988069e+003, 1.674824e-002
3.989998e+003, 1.620850e-002
3.991926e+003, 1.634686e-002
3.993854e+003, 1.758746e-002
3.995783e+003, 1.768136e-002
3.997711e+003, 1.774107e-002
3.999640e+003, 1.834801e-002
##END=



