##NAMES=Fluorapatite
##RRUFFID=R050340
##IDEAL CHEMISTRY=Ca_5_(PO_4_)_3_F
##LOCALITY=Buckingham, Quebec, Canada
##OWNER=RRUFF
##SOURCE=California Institute of Technology
##DESCRIPTION=Blue fragment
##STATUS=The identification of this mineral has been confirmed by X-ray diffraction and chemical analysis
##URL=rruff.info/R050340
##MEASURED CHEMISTRY=Ca_5.00_((P_0.98_Si_0.02_)O_4_)_3_F_1.00_
399.1926, 1.4008880E-02
401.1211, 1.7938631E-02
403.0496, 1.8024869E-02
404.9780, 1.8253731E-02
406.9065, 1.5506060E-02
408.8350, 1.1512540E-02
410.7634, 1.0388690E-02
412.6919, 1.3171470E-02
414.6204, 1.5657701E-02
416.5488, 1.7044850E-02
418.4773, 1.4460680E-02
420.4058, 1.1064150E-02
422.3342, 1.1873930E-02
424.2627, 1.3092440E-02
426.1912, 1.4032120E-02
428.1196, 1.3011040E-02
430.0481, 1.3366360E-02
431.9766, 1.4415890E-02
433.9050, 1.4361770E-02
435.8335, 1.5422320E-02
437.7620, 1.3877320E-02
439.6904, 1.1847340E-02
441.6189, 1.2995930E-02
443.5474, 1.4518120E-02
445.4758, 1.3594310E-02
447.4043, 1.3922430E-02
449.3328, 1.5296910E-02
451.2612, 1.4488010E-02
453.1897, 1.5344930E-02
455.1182, 1.7043270E-02
457.0466, 1.7733069E-02
458.9751, 1.8278610E-02
460.9036, 1.8819420E-02
462.8320, 1.9326519E-02
464.7605, 2.0704670E-02
466.6890, 2.1109659E-02
468.6174, 2.1604810E-02
470.5459, 2.3314670E-02
472.4744, 2.3886910E-02
474.4028, 2.3461660E-02
476.3313, 2.2802930E-02
478.2598, 2.1717420E-02
480.1882, 1.9709690E-02
482.1167, 1.8775940E-02
484.0452, 1.8841689E-02
485.9736, 1.8752379E-02
487.9021, 1.8940890E-02
489.8306, 1.9500110E-02
491.7590, 1.9734031E-02
493.6875, 1.9959019E-02
495.6160, 2.0705080E-02
497.5444, 2.1068821E-02
499.4729, 2.1218510E-02
501.4014, 2.1056339E-02
503.3298, 2.0874280E-02
505.2583, 2.1216961E-02
507.1868, 2.2121269E-02
509.1152, 2.3615660E-02
511.0437, 2.5908370E-02
512.9722, 2.8139610E-02
514.9006, 3.1152280E-02
516.8291, 3.4905061E-02
518.7576, 3.8715821E-02
520.6860, 4.0965188E-02
522.6145, 4.1695829E-02
524.5430, 4.1844320E-02
526.4714, 4.2316500E-02
528.3999, 4.3618269E-02
530.3284, 4.4850551E-02
532.2568, 4.6621881E-02
534.1853, 4.9906779E-02
536.1138, 5.4452881E-02
538.0422, 6.0604241E-02
539.9707, 6.7635633E-02
541.8992, 7.5248569E-02
543.8276, 8.5322723E-02
545.7561, 9.7468518E-02
547.6846, 0.1115973
549.6130, 0.1271101
551.5415, 0.1439329
553.4700, 0.1622752
555.3984, 0.1798346
557.3269, 0.1958184
559.2554, 0.2095677
561.1838, 0.2214953
563.1123, 0.2310383
565.0408, 0.2351050
566.9692, 0.2363221
568.8977, 0.2347570
570.8262, 0.2297445
572.7546, 0.2237141
574.6831, 0.2139731
576.6116, 0.1957155
578.5400, 0.1691182
580.4685, 0.1437262
582.3970, 0.1263064
584.3254, 0.1160628
586.2539, 0.1099191
588.1824, 0.1069115
590.1108, 0.1098785
592.0393, 0.1208610
593.9678, 0.1405443
595.8962, 0.1657417
597.8247, 0.1871777
599.7532, 0.1905758
601.6816, 0.1751630
603.6101, 0.1512238
605.5386, 0.1265274
607.4670, 0.1046074
609.3955, 8.6140677E-02
611.3240, 7.0330650E-02
613.2524, 5.6690101E-02
615.1809, 4.4541359E-02
617.1094, 3.4695610E-02
619.0378, 2.8278571E-02
620.9663, 2.3958430E-02
622.8948, 2.0990569E-02
624.8232, 1.9434121E-02
626.7517, 1.8037301E-02
628.6802, 1.6219990E-02
630.6086, 1.5413530E-02
632.5371, 1.4679590E-02
634.4656, 1.3262440E-02
636.3940, 1.2338060E-02
638.3225, 1.2331400E-02
640.2510, 1.2661550E-02
642.1794, 1.2912330E-02
644.1079, 1.3863310E-02
646.0364, 1.5634900E-02
647.9648, 1.6272860E-02
649.8933, 1.5188350E-02
651.8218, 1.4139990E-02
653.7502, 1.3411300E-02
655.6787, 1.2917970E-02
657.6072, 1.2646210E-02
659.5356, 1.2372850E-02
661.4641, 1.2011270E-02
663.3926, 1.1784790E-02
665.3210, 1.1641210E-02
667.2495, 1.1387440E-02
669.1780, 1.1127190E-02
671.1064, 1.1029390E-02
673.0349, 1.1210070E-02
674.9634, 1.1128040E-02
676.8918, 1.0966700E-02
678.8203, 1.1125690E-02
680.7488, 1.1203280E-02
682.6772, 1.0698790E-02
684.6057, 1.0740700E-02
686.5342, 1.1394280E-02
688.4626, 1.1681650E-02
690.3911, 1.1536740E-02
692.3196, 1.1549080E-02
694.2480, 1.1683740E-02
696.1765, 1.1485110E-02
698.1050, 1.1192450E-02
700.0334, 1.1182190E-02
701.9619, 1.1517000E-02
703.8904, 1.1707780E-02
705.8188, 1.1809800E-02
707.7473, 1.1856370E-02
709.6758, 1.2058630E-02
711.6042, 1.2646640E-02
713.5327, 1.3155180E-02
715.4612, 1.3406320E-02
717.3896, 1.3494400E-02
719.3181, 1.3655470E-02
721.2466, 1.3737770E-02
723.1750, 1.3941440E-02
725.1035, 1.3912310E-02
727.0320, 1.3935820E-02
728.9604, 1.4042570E-02
730.8889, 1.4560040E-02
732.8174, 1.5133580E-02
734.7458, 1.5547290E-02
736.6743, 1.5826469E-02
738.6028, 1.6072631E-02
740.5313, 1.6231690E-02
742.4597, 1.6133130E-02
744.3882, 1.6397459E-02
746.3167, 1.6396420E-02
748.2451, 1.6239520E-02
750.1736, 1.5881659E-02
752.1021, 1.5648101E-02
754.0305, 1.5372020E-02
755.9590, 1.5349650E-02
757.8875, 1.5220410E-02
759.8159, 1.4685100E-02
761.7444, 1.4568850E-02
763.6729, 1.4747340E-02
765.6013, 1.4605400E-02
767.5298, 1.4495640E-02
769.4583, 1.4260700E-02
771.3867, 1.4387330E-02
773.3152, 1.4349450E-02
775.2437, 1.3874880E-02
777.1721, 1.4101630E-02
779.1006, 1.4722420E-02
781.0291, 1.5078690E-02
782.9575, 1.4991240E-02
784.8860, 1.4687270E-02
786.8145, 1.4759640E-02
788.7429, 1.5219150E-02
790.6714, 1.5355490E-02
792.5999, 1.5395830E-02
794.5283, 1.5674921E-02
796.4568, 1.6010821E-02
798.3853, 1.6347740E-02
800.3137, 1.6234180E-02
802.2422, 1.6205400E-02
804.1707, 1.6490361E-02
806.0991, 1.7053319E-02
808.0276, 1.7471381E-02
809.9561, 1.7577320E-02
811.8845, 1.7913651E-02
813.8130, 1.8339550E-02
815.7415, 1.8691169E-02
817.6699, 1.8859871E-02
819.5984, 1.9107191E-02
821.5269, 1.9404709E-02
823.4553, 1.9647021E-02
825.3838, 1.9940300E-02
827.3123, 2.0367051E-02
829.2407, 2.0672400E-02
831.1692, 2.1071760E-02
833.0977, 2.1538589E-02
835.0261, 2.1993240E-02
836.9546, 2.2522070E-02
838.8831, 2.3161210E-02
840.8115, 2.3468940E-02
842.7400, 2.3654500E-02
844.6685, 2.4355780E-02
846.5969, 2.5117090E-02
848.5254, 2.5913680E-02
850.4539, 2.6830889E-02
852.3823, 2.7899470E-02
854.3108, 2.8946450E-02
856.2393, 2.9675741E-02
858.1677, 3.0773159E-02
860.0962, 3.3029381E-02
862.0247, 3.6952149E-02
863.9531, 4.2190511E-02
865.8816, 4.2483140E-02
867.8101, 3.8918421E-02
869.7385, 3.7321389E-02
871.6670, 3.7920568E-02
873.5955, 3.9405569E-02
875.5239, 4.0783189E-02
877.4524, 4.1762158E-02
879.3809, 4.1929509E-02
881.3093, 4.1681189E-02
883.2378, 4.1608538E-02
885.1663, 4.1944839E-02
887.0947, 4.2874239E-02
889.0232, 4.4449810E-02
890.9517, 4.5665719E-02
892.8801, 4.7082480E-02
894.8085, 4.9100209E-02
896.7370, 5.0951160E-02
898.6655, 5.2449338E-02
900.5939, 5.4693561E-02
902.5224, 5.7631001E-02
904.4509, 6.0776539E-02
906.3793, 6.4174853E-02
908.3078, 6.7845143E-02
910.2363, 7.1537733E-02
912.1647, 7.5285122E-02
914.0932, 7.9293929E-02
916.0217, 8.3685853E-02
917.9501, 8.7975867E-02
919.8786, 9.2533678E-02
921.8071, 9.7208239E-02
923.7355, 0.1015039
925.6640, 0.1047859
927.5925, 0.1072645
929.5209, 0.1087624
931.4494, 0.1097413
933.3779, 0.1107307
935.3063, 0.1119645
937.2348, 0.1136324
939.1633, 0.1159939
941.0917, 0.1198632
943.0202, 0.1252306
944.9487, 0.1318879
946.8771, 0.1392963
948.8056, 0.1463725
950.7341, 0.1527282
952.6625, 0.1581618
954.5910, 0.1639170
956.5195, 0.1709364
958.4479, 0.1798104
960.3764, 0.1915325
962.3049, 0.2041034
964.2333, 0.2063466
966.1618, 0.1919778
968.0903, 0.1761754
970.0187, 0.1704727
971.9472, 0.1735757
973.8757, 0.1828885
975.8041, 0.1952380
977.7326, 0.2082945
979.6611, 0.2213932
981.5895, 0.2346550
983.5180, 0.2479218
985.4465, 0.2609611
987.3749, 0.2739750
989.3034, 0.2874226
991.2319, 0.3006040
993.1603, 0.3136736
995.0888, 0.3264736
997.0173, 0.3395922
998.9457, 0.3527247
1000.874, 0.3653117
1002.803, 0.3776180
1004.731, 0.3902972
1006.660, 0.4022323
1008.588, 0.4138168
1010.517, 0.4254657
1012.445, 0.4367676
1014.373, 0.4473386
1016.302, 0.4571052
1018.230, 0.4663946
1020.159, 0.4734169
1022.087, 0.4767121
1024.016, 0.4774707
1025.944, 0.4758196
1027.873, 0.4712387
1029.801, 0.4636815
1031.730, 0.4538191
1033.658, 0.4426318
1035.587, 0.4305287
1037.515, 0.4166173
1039.444, 0.4002514
1041.372, 0.3820700
1043.301, 0.3641560
1045.229, 0.3469452
1047.157, 0.3302163
1049.086, 0.3139579
1051.014, 0.2987592
1052.943, 0.2852152
1054.871, 0.2721516
1056.800, 0.2589375
1058.728, 0.2461659
1060.657, 0.2338774
1062.585, 0.2220067
1064.514, 0.2107207
1066.442, 0.2000658
1068.371, 0.1894129
1070.299, 0.1793687
1072.228, 0.1700014
1074.156, 0.1605501
1076.084, 0.1509643
1078.013, 0.1420692
1079.941, 0.1346123
1081.870, 0.1294717
1083.798, 0.1289928
1085.727, 0.1353295
1087.655, 0.1468859
1089.584, 0.1572727
1091.512, 0.1592469
1093.441, 0.1521913
1095.369, 0.1408467
1097.298, 0.1291438
1099.226, 0.1181251
1101.155, 0.1075916
1103.083, 9.8477520E-02
1105.011, 9.0378158E-02
1106.940, 8.2604103E-02
1108.868, 7.5448237E-02
1110.797, 6.8579987E-02
1112.725, 6.1549511E-02
1114.654, 5.4515339E-02
1116.582, 4.7960211E-02
1118.511, 4.1737091E-02
1120.439, 3.6168080E-02
1122.368, 3.1473450E-02
1124.296, 2.7460679E-02
1126.225, 2.4067100E-02
1128.153, 2.1480801E-02
1130.082, 1.9412801E-02
1132.010, 1.7954649E-02
1133.938, 1.6940709E-02
1135.867, 1.6418921E-02
1137.795, 1.6489239E-02
1139.724, 1.6805070E-02
1141.652, 1.7285790E-02
1143.581, 1.7579621E-02
1145.509, 1.8015251E-02
1147.438, 1.8227970E-02
1149.366, 1.7569140E-02
1151.295, 1.6734850E-02
1153.223, 1.6119730E-02
1155.152, 1.6082419E-02
1157.080, 1.6606940E-02
1159.009, 1.7298199E-02
1160.937, 1.7467501E-02
1162.865, 1.7021419E-02
1164.794, 1.6645130E-02
1166.722, 1.6150160E-02
1168.651, 1.5345390E-02
1170.579, 1.4306450E-02
1172.508, 1.3175280E-02
1174.436, 1.2223770E-02
1176.365, 1.1358160E-02
1178.293, 1.0226640E-02
1180.222, 9.1448929E-03
1182.150, 8.4701516E-03
1184.079, 7.9872692E-03
1186.007, 7.4249841E-03
1187.936, 6.8284441E-03
1189.864, 6.6223252E-03
1191.792, 6.4504179E-03
1193.721, 6.2324679E-03
1195.649, 6.0015372E-03
1197.578, 5.7006911E-03
1199.506, 5.3731301E-03
1201.435, 4.9830480E-03
1203.363, 4.9596070E-03
1205.292, 4.9182121E-03
1207.220, 4.8501762E-03
1209.149, 4.8724399E-03
1211.077, 4.8373621E-03
1213.006, 4.7532781E-03
1214.934, 4.6002050E-03
1216.863, 4.3928809E-03
1218.791, 4.1416148E-03
1220.719, 3.9087678E-03
1222.648, 3.7020741E-03
1224.576, 3.6356801E-03
1226.505, 3.6948470E-03
1228.433, 3.6215170E-03
1230.362, 3.4246859E-03
1232.290, 3.3044470E-03
1234.219, 3.0959379E-03
1236.147, 3.1153590E-03
1238.076, 3.1861181E-03
1240.004, 3.0192970E-03
1241.933, 2.9544760E-03
1243.861, 2.9152620E-03
1245.790, 2.8793621E-03
1247.718, 3.1323370E-03
1249.646, 3.2293899E-03
1251.575, 3.2731721E-03
1253.503, 3.1569281E-03
1255.432, 3.0746821E-03
1257.360, 3.0383479E-03
1259.289, 3.1139641E-03
1261.217, 3.1734130E-03
1263.146, 2.8498860E-03
1265.074, 2.4029000E-03
1267.003, 2.5353930E-03
1268.931, 2.8923559E-03
1270.860, 2.9403111E-03
1272.788, 3.0754160E-03
1274.717, 3.0625351E-03
1276.645, 2.8473060E-03
1278.573, 2.7388600E-03
1280.502, 2.6366620E-03
1282.430, 2.5847061E-03
1284.359, 2.7175110E-03
1286.287, 2.8231039E-03
1288.216, 2.8771879E-03
1290.144, 2.7358951E-03
1292.073, 2.6549380E-03
1294.001, 2.7866871E-03
1295.930, 2.7795341E-03
1297.858, 2.6246570E-03
1299.787, 2.4751059E-03
1301.715, 2.7083370E-03
1303.644, 2.8886341E-03
1305.572, 2.5433479E-03
1307.500, 2.3128111E-03
1309.429, 2.5765749E-03
1311.357, 2.5461069E-03
1313.286, 2.6597041E-03
1315.214, 2.7975540E-03
1317.143, 2.4569610E-03
1319.071, 2.6606631E-03
1321.000, 3.0566249E-03
1322.928, 2.9980741E-03
1324.857, 2.9109749E-03
1326.785, 2.8204881E-03
1328.714, 2.7100570E-03
1330.642, 2.6869699E-03
1332.571, 2.6409170E-03
1334.499, 2.6893830E-03
1336.427, 2.9836651E-03
1338.356, 3.2367450E-03
1340.284, 3.0007570E-03
1342.213, 3.0218391E-03
1344.141, 3.5041440E-03
1346.070, 3.5190419E-03
1347.998, 3.2916400E-03
1349.927, 3.4540279E-03
1351.855, 3.6335390E-03
1353.784, 3.6037890E-03
1355.712, 3.8330939E-03
1357.641, 4.3120282E-03
1359.569, 4.1351230E-03
1361.498, 3.7890649E-03
1363.426, 3.8464470E-03
1365.354, 3.9685131E-03
1367.283, 3.9776298E-03
1369.211, 3.9396710E-03
1371.140, 4.1264431E-03
1373.068, 4.3124510E-03
1374.997, 4.6206312E-03
1376.925, 4.8998198E-03
1378.854, 5.1640458E-03
1380.782, 5.4024630E-03
1382.711, 5.4781078E-03
1384.639, 5.6975591E-03
1386.568, 6.1486312E-03
1388.496, 6.3414518E-03
1390.424, 6.4652199E-03
1392.353, 6.9968658E-03
1394.281, 7.4539850E-03
1396.210, 7.5357691E-03
1398.138, 8.0878465E-03
1400.067, 8.6500896E-03
1401.995, 9.0791536E-03
1403.924, 9.7837579E-03
1405.852, 1.0597870E-02
1407.781, 1.1627900E-02
1409.709, 1.2615290E-02
1411.638, 1.3737550E-02
1413.566, 1.4845540E-02
1415.495, 1.6284831E-02
1417.423, 1.8230220E-02
1419.351, 2.0054519E-02
1421.280, 2.1833170E-02
1423.208, 2.3843151E-02
1425.137, 2.5609400E-02
1427.065, 2.6228709E-02
1428.994, 2.5699779E-02
1430.922, 2.4421750E-02
1432.851, 2.2639871E-02
1434.779, 2.0796850E-02
1436.708, 1.9103900E-02
1438.636, 1.8084411E-02
1440.565, 1.7681830E-02
1442.493, 1.7769270E-02
1444.422, 1.8625230E-02
1446.350, 2.0526789E-02
1448.278, 2.3198141E-02
1450.207, 2.5690310E-02
1452.135, 2.7543779E-02
1454.064, 2.7816400E-02
1455.992, 2.6341230E-02
1457.921, 2.4279259E-02
1459.849, 2.2466799E-02
1461.778, 2.0606389E-02
1463.706, 1.9130589E-02
1465.635, 1.7943490E-02
1467.563, 1.6689651E-02
1469.492, 1.5436520E-02
1471.420, 1.4596160E-02
1473.349, 1.3749860E-02
1475.277, 1.2783530E-02
1477.205, 1.1911160E-02
1479.134, 1.1481660E-02
1481.062, 1.0929350E-02
1482.991, 1.0563950E-02
1484.919, 1.0497210E-02
1486.848, 1.0038870E-02
1488.776, 9.5687900E-03
1490.705, 9.3730306E-03
1492.633, 9.1102868E-03
1494.562, 9.1334078E-03
1496.490, 9.0279346E-03
1498.419, 8.6119436E-03
1500.347, 8.4142061E-03
1502.276, 8.1126718E-03
1504.204, 8.0699502E-03
1506.132, 8.0191139E-03
1508.061, 7.6958621E-03
1509.989, 7.3269969E-03
1511.918, 7.3249061E-03
1513.846, 7.3826401E-03
1515.775, 6.8667722E-03
1517.703, 6.4415899E-03
1519.632, 6.4774868E-03
1521.560, 6.9336868E-03
1523.489, 6.8190368E-03
1525.417, 6.2864288E-03
1527.346, 6.0563930E-03
1529.274, 6.1049489E-03
1531.203, 6.1352798E-03
1533.131, 6.1055301E-03
1535.059, 6.2749218E-03
1536.988, 6.4095911E-03
1538.916, 6.7449361E-03
1540.845, 6.6817072E-03
1542.773, 6.4224140E-03
1544.702, 6.3676592E-03
1546.630, 6.5752328E-03
1548.559, 6.9070398E-03
1550.487, 7.0688282E-03
1552.416, 6.9309468E-03
1554.344, 6.7498670E-03
1556.273, 6.7604310E-03
1558.201, 7.2279219E-03
1560.130, 7.4225841E-03
1562.058, 7.2174072E-03
1563.986, 7.1080639E-03
1565.915, 7.0927120E-03
1567.843, 6.9997208E-03
1569.772, 6.8116100E-03
1571.700, 6.8065128E-03
1573.629, 7.1426141E-03
1575.557, 7.2456961E-03
1577.486, 7.1550510E-03
1579.414, 7.2111278E-03
1581.343, 7.1774679E-03
1583.271, 6.7697312E-03
1585.200, 6.8604108E-03
1587.128, 7.1114819E-03
1589.057, 7.0285220E-03
1590.985, 7.0232591E-03
1592.913, 7.1703610E-03
1594.842, 7.1359542E-03
1596.770, 6.8381922E-03
1598.699, 6.6833589E-03
1600.627, 6.6575250E-03
1602.556, 6.9032400E-03
1604.484, 6.8629570E-03
1606.413, 6.7415652E-03
1608.341, 6.4380160E-03
1610.270, 6.3181780E-03
1612.198, 6.4167399E-03
1614.127, 6.2928372E-03
1616.055, 6.3624382E-03
1617.984, 6.0252370E-03
1619.912, 5.7411171E-03
1621.840, 5.9432909E-03
1623.769, 6.0498202E-03
1625.697, 6.0184319E-03
1627.626, 5.7793842E-03
1629.554, 5.3872121E-03
1631.483, 5.4040458E-03
1633.411, 5.7888501E-03
1635.340, 5.8273701E-03
1637.268, 5.5680312E-03
1639.197, 5.6522149E-03
1641.125, 5.8908612E-03
1643.054, 5.9560812E-03
1644.982, 6.1931778E-03
1646.911, 6.3460460E-03
1648.839, 6.2448438E-03
1650.767, 6.2106568E-03
1652.696, 6.4169029E-03
1654.624, 6.2039322E-03
1656.553, 5.8346740E-03
1658.481, 5.7173269E-03
1660.410, 5.3729769E-03
1662.338, 5.7088039E-03
1664.267, 6.1043808E-03
1666.195, 5.7172081E-03
1668.124, 5.5586090E-03
1670.052, 5.6697619E-03
1671.981, 5.7119331E-03
1673.909, 5.7335580E-03
1675.838, 5.9940740E-03
1677.766, 5.7872250E-03
1679.694, 5.4070102E-03
1681.623, 5.4344931E-03
1683.551, 6.1287619E-03
1685.480, 6.3693090E-03
1687.408, 5.7922499E-03
1689.337, 5.5300849E-03
1691.265, 5.6121182E-03
1693.194, 5.6930310E-03
1695.122, 5.9829792E-03
1697.051, 6.1729709E-03
1698.979, 6.4396858E-03
1700.908, 6.3234670E-03
1702.836, 6.0217520E-03
1704.765, 5.8705602E-03
1706.693, 5.7699350E-03
1708.621, 5.9155128E-03
1710.550, 6.0605169E-03
1712.478, 6.3003870E-03
1714.407, 6.5287631E-03
1716.335, 6.6683558E-03
1718.264, 6.3779438E-03
1720.192, 6.0383100E-03
1722.121, 5.9719132E-03
1724.049, 6.0251281E-03
1725.978, 5.9928400E-03
1727.906, 5.9550400E-03
1729.835, 6.0155909E-03
1731.763, 6.3030552E-03
1733.692, 6.8740370E-03
1735.620, 6.7591812E-03
1737.548, 6.6806050E-03
1739.477, 6.5086540E-03
1741.405, 5.8059408E-03
1743.334, 5.8202292E-03
1745.262, 5.8552800E-03
1747.191, 5.6355982E-03
1749.119, 5.2089989E-03
1751.048, 5.3650681E-03
1752.976, 5.4425769E-03
1754.905, 5.1103719E-03
1756.833, 5.3344308E-03
1758.762, 5.7577598E-03
1760.690, 5.5637760E-03
1762.619, 5.3559970E-03
1764.547, 5.3547332E-03
1766.475, 5.4620290E-03
1768.404, 5.0865668E-03
1770.332, 5.0751679E-03
1772.261, 5.2148900E-03
1774.189, 5.0952202E-03
1776.118, 5.3792382E-03
1778.046, 5.1719490E-03
1779.975, 5.0127539E-03
1781.903, 5.1051890E-03
1783.832, 5.0907829E-03
1785.760, 5.1722280E-03
1787.689, 4.9985279E-03
1789.617, 5.1022200E-03
1791.546, 5.4984158E-03
1793.474, 5.8867279E-03
1795.402, 5.4979720E-03
1797.331, 4.7326302E-03
1799.259, 4.3667639E-03
1801.188, 4.8736921E-03
1803.116, 4.9534598E-03
1805.045, 5.1773302E-03
1806.973, 5.3191409E-03
1808.902, 4.5965039E-03
1810.830, 4.5443741E-03
1812.759, 4.7965189E-03
1814.687, 4.7754268E-03
1816.616, 4.4855201E-03
1818.544, 4.3003261E-03
1820.473, 4.7888919E-03
1822.401, 5.6061279E-03
1824.329, 5.6534582E-03
1826.258, 5.1276870E-03
1828.186, 4.9869749E-03
1830.115, 4.6755988E-03
1832.043, 4.7861082E-03
1833.972, 5.1921601E-03
1835.900, 5.0812331E-03
1837.829, 4.5553530E-03
1839.757, 4.7734510E-03
1841.686, 5.2049090E-03
1843.614, 4.9924850E-03
1845.543, 4.4049351E-03
1847.471, 3.9391760E-03
1849.400, 3.7054410E-03
1851.328, 3.7547240E-03
1853.256, 4.8306528E-03
1855.185, 4.9249809E-03
1857.113, 4.3176622E-03
1859.042, 4.0163398E-03
1860.970, 3.7768199E-03
1862.899, 3.6321611E-03
1864.827, 3.7049430E-03
1866.756, 4.3803770E-03
1868.684, 5.1393802E-03
1870.613, 5.4520001E-03
1872.541, 5.5738091E-03
1874.470, 5.1534162E-03
1876.398, 4.5854258E-03
1878.327, 4.0306710E-03
1880.255, 4.9499152E-03
1882.183, 5.3701461E-03
1884.112, 4.7460478E-03
1886.040, 3.9907680E-03
1887.969, 3.4571809E-03
1889.897, 3.6360531E-03
1891.826, 3.9500990E-03
1893.754, 4.2244028E-03
1895.683, 4.5117880E-03
1897.611, 5.0014900E-03
1899.540, 4.5218542E-03
1901.468, 3.9548492E-03
1903.397, 5.0832378E-03
1905.325, 5.3490540E-03
1907.254, 3.8614820E-03
1909.182, 2.9748301E-03
1911.110, 3.4298650E-03
1913.039, 4.6727359E-03
1914.967, 4.8664049E-03
1916.896, 3.6863380E-03
1918.824, 2.7263730E-03
1920.753, 2.0845970E-03
1922.681, 1.6428140E-03
1924.610, 1.9571621E-03
1926.538, 2.5789700E-03
1928.467, 2.5599520E-03
1930.395, 2.9995390E-03
1932.324, 3.7747880E-03
1934.252, 2.8792180E-03
1936.181, 2.4159590E-03
1938.109, 3.7321639E-03
1940.037, 5.3297980E-03
1941.966, 4.0171631E-03
1943.894, 2.9975029E-03
1945.823, 4.1372841E-03
1947.751, 5.3233891E-03
1949.680, 4.4649402E-03
1951.608, 2.8352391E-03
1953.537, 2.1855240E-03
1955.465, 1.4948460E-03
1957.394, 1.0364520E-03
1959.322, -1.7632890E-03
1961.251, -2.8422740E-03
1963.179, -4.8050471E-04
1965.108, -4.1856719E-04
1967.036, -1.7139030E-03
1968.964, -2.2933609E-03
1970.893, -1.8705369E-03
1972.821, 3.4501401E-04
1974.750, 2.2011879E-03
1976.678, 1.3851640E-03
1978.607, 1.8764510E-03
1980.535, 8.6653052E-04
1982.464, -1.5140680E-03
1984.392, 5.1853631E-04
1986.321, 2.2064310E-03
1988.249, 1.3700461E-03
1990.178, -5.4965483E-04
1992.106, 6.1156863E-04
1994.035, 2.3305961E-03
1995.963, 1.3226370E-03
1997.891, 3.9719838E-05
1999.820, -7.9868751E-04
2001.748, -3.3070841E-03
2003.677, -3.3711810E-03
2005.605, -2.8357480E-03
2007.534, -4.6363811E-04
2009.462, -8.8553079E-06
2011.391, -2.4659319E-03
2013.319, -5.3015682E-03
2015.248, -8.1181908E-03
2017.176, -7.6905200E-03
2019.105, -5.6794672E-03
2021.033, -5.6647309E-03
2022.962, -4.5208419E-03
2024.890, -2.3669989E-03
2026.818, -2.4841090E-03
2028.747, -2.8865580E-03
2030.675, -3.6030479E-03
2032.604, -3.2027271E-03
2034.532, -5.3797401E-03
2036.461, -4.6894881E-03
2038.389, -3.9933370E-03
2040.318, -2.7968190E-03
2042.246, -1.3311100E-03
2044.175, 2.4278391E-04
2046.103, 1.0285200E-04
2048.032, 1.5025940E-03
2049.960, 2.7161189E-03
2051.889, 1.1514981E-03
2053.817, 1.2624401E-04
2055.746, 8.7941000E-05
2057.674, 1.9262660E-04
2059.603, -5.5177882E-04
2061.531, -5.1932287E-04
2063.459, -1.8212110E-04
2065.388, 1.2093710E-03
2067.316, 2.8008861E-03
2069.245, 1.7563649E-03
2071.173, 7.5685512E-04
2073.102, 1.7160050E-03
2075.030, 2.2960100E-03
2076.959, 2.4550490E-03
2078.887, 2.1714261E-03
2080.816, 3.4002480E-03
2082.744, 3.8671410E-03
2084.673, 4.1432460E-03
2086.601, 3.6131300E-03
2088.530, 2.5443649E-03
2090.458, 1.1795230E-03
2092.386, 2.2569010E-03
2094.315, 3.5010900E-03
2096.243, 3.3618759E-03
2098.172, 2.6428420E-03
2100.100, 7.3483319E-04
2102.029, 1.0007740E-03
2103.957, 2.2994331E-03
2105.886, 3.2222271E-03
2107.814, 3.5967140E-03
2109.743, 3.0457540E-03
2111.671, 3.0281099E-03
2113.600, 3.2176550E-03
2115.528, 2.3657689E-03
2117.457, 2.6844430E-03
2119.385, 2.2633551E-03
2121.313, 9.5844932E-04
2123.242, 1.5435390E-03
2125.170, 3.0052911E-03
2127.099, 2.7913200E-03
2129.027, 6.9906592E-04
2130.956, -3.9665669E-04
2132.884, -9.3316531E-04
2134.813, -1.0688259E-03
2136.741, -1.8307510E-03
2138.670, -3.2538390E-03
2140.598, -4.0565822E-03
2142.527, -3.7884971E-03
2144.455, -3.8911870E-03
2146.384, -2.4369541E-03
2148.312, -1.7478790E-03
2150.240, -1.6494580E-03
2152.169, -1.2372660E-03
2154.097, -3.9009361E-03
2156.026, -6.3034138E-03
2157.954, -3.6409369E-03
2159.883, 3.4245050E-03
2161.811, 3.7366031E-03
2163.740, 1.5638591E-03
2165.668, 4.6754349E-04
2167.597, -5.0419371E-04
2169.525, 1.5794490E-04
2171.454, 5.2184681E-04
2173.382, -3.9202889E-04
2175.311, -5.3667568E-04
2177.239, -5.0102879E-04
2179.167, -1.0333339E-03
2181.096, -2.5690561E-03
2183.024, -1.4913770E-04
2184.953, 3.8631021E-03
2186.881, 6.3209678E-03
2188.810, 4.9033612E-03
2190.738, 1.7811609E-03
2192.667, 1.9601299E-03
2194.595, 1.3922880E-03
2196.524, 1.2038080E-03
2198.452, 3.4635770E-03
2200.381, 4.4353982E-03
2202.309, 3.5965820E-03
2204.238, 3.8959510E-03
2206.166, 3.0378429E-03
2208.094, 2.2287210E-03
2210.023, 3.1343941E-03
2211.951, 3.6472729E-03
2213.880, 4.0158201E-03
2215.808, 4.3795370E-03
2217.737, 5.2701612E-03
2219.665, 5.8412179E-03
2221.594, 6.4685061E-03
2223.522, 6.0570790E-03
2225.451, 5.3974879E-03
2227.379, 6.6582588E-03
2229.308, 8.4223840E-03
2231.236, 7.2233360E-03
2233.165, 6.1822329E-03
2235.093, 7.1876249E-03
2237.021, 7.6846979E-03
2238.950, 6.6962829E-03
2240.878, 7.9510100E-03
2242.807, 7.4291159E-03
2244.735, 6.1820042E-03
2246.664, 7.1144491E-03
2248.592, 7.4794372E-03
2250.521, 7.3711150E-03
2252.449, 8.4306924E-03
2254.378, 8.7222969E-03
2256.306, 8.5044745E-03
2258.235, 7.3674321E-03
2260.163, 7.9192491E-03
2262.092, 9.2065902E-03
2264.020, 1.0119590E-02
2265.948, 1.0094070E-02
2267.877, 8.8380622E-03
2269.805, 9.1718640E-03
2271.734, 1.0480680E-02
2273.662, 1.0838060E-02
2275.591, 1.0893750E-02
2277.519, 1.0617510E-02
2279.448, 1.0383300E-02
2281.376, 1.0628000E-02
2283.305, 1.0642570E-02
2285.233, 1.0923830E-02
2287.162, 1.0808240E-02
2289.090, 1.1631540E-02
2291.019, 1.1364490E-02
2292.947, 1.0274750E-02
2294.875, 1.0263880E-02
2296.804, 1.1130120E-02
2298.732, 1.1167120E-02
2300.661, 1.1378320E-02
2302.589, 1.0966690E-02
2304.518, 1.0914120E-02
2306.446, 1.1235430E-02
2308.375, 1.0824210E-02
2310.303, 1.0867610E-02
2312.232, 1.1981620E-02
2314.160, 1.1907500E-02
2316.089, 1.1255860E-02
2318.017, 1.0746920E-02
2319.946, 1.0092410E-02
2321.874, 1.0826780E-02
2323.802, 1.1986880E-02
2325.731, 1.1534890E-02
2327.659, 1.0633780E-02
2329.588, 1.0387000E-02
2331.516, 1.0492230E-02
2333.445, 1.0713500E-02
2335.373, 1.0349320E-02
2337.302, 1.0196700E-02
2339.230, 1.0142720E-02
2341.159, 1.0264380E-02
2343.087, 1.0499510E-02
2345.016, 1.0220550E-02
2346.944, 9.8457094E-03
2348.873, 1.0171010E-02
2350.801, 1.0204300E-02
2352.729, 1.0230390E-02
2354.658, 1.0103790E-02
2356.586, 9.6550239E-03
2358.515, 1.0229420E-02
2360.443, 1.0696610E-02
2362.372, 1.0109540E-02
2364.300, 9.7370055E-03
2366.229, 9.6044643E-03
2368.157, 9.5995404E-03
2370.086, 9.9758571E-03
2372.014, 9.4968202E-03
2373.942, 9.3839578E-03
2375.871, 9.3237394E-03
2377.799, 9.2798714E-03
2379.728, 8.8219866E-03
2381.656, 8.1203086E-03
2383.585, 8.8816890E-03
2385.513, 9.8012267E-03
2387.442, 1.0140050E-02
2389.370, 1.0102350E-02
2391.299, 8.8790264E-03
2393.227, 8.4685441E-03
2395.156, 8.9293662E-03
2397.084, 9.1197034E-03
2399.012, 9.3768556E-03
2400.941, 9.9295042E-03
2402.869, 9.7975507E-03
2404.798, 9.9476278E-03
2406.726, 1.0617750E-02
2408.655, 1.0708900E-02
2410.583, 1.0669300E-02
2412.512, 9.4801951E-03
2414.440, 9.5478361E-03
2416.369, 1.0077210E-02
2418.297, 1.0521480E-02
2420.226, 1.1309940E-02
2422.154, 1.1903130E-02
2424.083, 1.2130090E-02
2426.011, 1.0797840E-02
2427.939, 1.0762450E-02
2429.868, 1.1383000E-02
2431.796, 9.8551493E-03
2433.725, 1.0041560E-02
2435.653, 1.1603050E-02
2437.582, 1.0939350E-02
2439.510, 9.8515730E-03
2441.439, 1.0601330E-02
2443.367, 1.1348860E-02
2445.296, 1.1453630E-02
2447.224, 1.0591890E-02
2449.153, 9.5566241E-03
2451.081, 9.7701848E-03
2453.010, 1.0675380E-02
2454.938, 1.1116610E-02
2456.866, 1.0205590E-02
2458.795, 1.0180040E-02
2460.723, 1.0739260E-02
2462.652, 1.1402220E-02
2464.580, 1.1054410E-02
2466.509, 1.0513420E-02
2468.437, 1.0899910E-02
2470.366, 1.0517050E-02
2472.294, 9.9185659E-03
2474.223, 1.0619820E-02
2476.151, 1.1689230E-02
2478.080, 1.0612160E-02
2480.008, 1.0419440E-02
2481.937, 1.1062630E-02
2483.865, 1.0928550E-02
2485.793, 9.9328225E-03
2487.722, 1.0398590E-02
2489.650, 1.1239700E-02
2491.579, 1.0418210E-02
2493.507, 1.0869900E-02
2495.436, 1.2138830E-02
2497.364, 1.1784430E-02
2499.293, 1.0362090E-02
2501.221, 1.0562460E-02
2503.150, 1.2457030E-02
2505.078, 1.3119950E-02
2507.007, 1.2071810E-02
2508.935, 1.1559130E-02
2510.864, 1.2097780E-02
2512.792, 1.2663700E-02
2514.720, 1.2022260E-02
2516.649, 1.2322720E-02
2518.577, 1.1456220E-02
2520.506, 1.0624250E-02
2522.434, 1.0629420E-02
2524.363, 1.1117210E-02
2526.291, 1.1497230E-02
2528.220, 1.2208170E-02
2530.148, 1.2306920E-02
2532.077, 1.1254670E-02
2534.005, 1.0595100E-02
2535.934, 1.1246260E-02
2537.862, 1.1524140E-02
2539.791, 1.0297650E-02
2541.719, 9.9882670E-03
2543.647, 1.0443200E-02
2545.576, 1.1774060E-02
2547.504, 1.2407050E-02
2549.433, 1.1473320E-02
2551.361, 1.0953300E-02
2553.290, 1.1413320E-02
2555.218, 1.1774850E-02
2557.147, 1.1540310E-02
2559.075, 1.1306910E-02
2561.004, 1.1754600E-02
2562.932, 1.2035540E-02
2564.861, 1.2361130E-02
2566.789, 1.2475600E-02
2568.718, 1.2692680E-02
2570.646, 1.2756050E-02
2572.574, 1.2221710E-02
2574.503, 1.1554340E-02
2576.431, 1.1911860E-02
2578.360, 1.2716910E-02
2580.288, 1.2172700E-02
2582.217, 1.2182490E-02
2584.145, 1.1975560E-02
2586.074, 1.1775370E-02
2588.002, 1.1612320E-02
2589.931, 1.2657070E-02
2591.859, 1.3156610E-02
2593.788, 1.2244560E-02
2595.716, 1.1766430E-02
2597.645, 1.2357260E-02
2599.573, 1.2976790E-02
2601.501, 1.2724510E-02
2603.430, 1.2778000E-02
2605.358, 1.2759790E-02
2607.287, 1.2148030E-02
2609.215, 1.2446830E-02
2611.144, 1.3262730E-02
2613.072, 1.4330790E-02
2615.001, 1.4359710E-02
2616.929, 1.3287210E-02
2618.858, 1.3081220E-02
2620.786, 1.3467410E-02
2622.715, 1.3519880E-02
2624.643, 1.3819120E-02
2626.572, 1.4025290E-02
2628.500, 1.3798790E-02
2630.428, 1.3731810E-02
2632.357, 1.2804610E-02
2634.285, 1.2395760E-02
2636.214, 1.3298430E-02
2638.142, 1.3802610E-02
2640.071, 1.3812340E-02
2641.999, 1.3820750E-02
2643.928, 1.3617260E-02
2645.856, 1.3551080E-02
2647.785, 1.4207050E-02
2649.713, 1.3842890E-02
2651.642, 1.3870740E-02
2653.570, 1.3897920E-02
2655.499, 1.3896260E-02
2657.427, 1.4547830E-02
2659.355, 1.3686730E-02
2661.284, 1.3457630E-02
2663.212, 1.3488280E-02
2665.141, 1.3101610E-02
2667.069, 1.3090800E-02
2668.998, 1.3297950E-02
2670.926, 1.3344080E-02
2672.855, 1.2371000E-02
2674.783, 1.2519760E-02
2676.712, 1.2825750E-02
2678.640, 1.2202780E-02
2680.569, 1.2119120E-02
2682.497, 1.2605820E-02
2684.426, 1.2096830E-02
2686.354, 1.1878270E-02
2688.282, 1.3134390E-02
2690.211, 1.3972270E-02
2692.139, 1.3670880E-02
2694.068, 1.3087090E-02
2695.996, 1.3609040E-02
2697.925, 1.4473820E-02
2699.853, 1.3646340E-02
2701.782, 1.3040470E-02
2703.710, 1.2695840E-02
2705.639, 1.2375980E-02
2707.567, 1.3245530E-02
2709.496, 1.3900540E-02
2711.424, 1.3906670E-02
2713.353, 1.3958280E-02
2715.281, 1.3798680E-02
2717.209, 1.4021700E-02
2719.138, 1.3821760E-02
2721.066, 1.2657310E-02
2722.995, 1.3113910E-02
2724.923, 1.3346800E-02
2726.852, 1.3098160E-02
2728.780, 1.3299990E-02
2730.709, 1.2886070E-02
2732.637, 1.3397070E-02
2734.566, 1.4073730E-02
2736.494, 1.3751690E-02
2738.423, 1.3153720E-02
2740.351, 1.3416730E-02
2742.280, 1.4632290E-02
2744.208, 1.4468400E-02
2746.136, 1.3143260E-02
2748.065, 1.2757000E-02
2749.993, 1.3105540E-02
2751.922, 1.3373960E-02
2753.850, 1.3204200E-02
2755.779, 1.3442900E-02
2757.707, 1.3420120E-02
2759.636, 1.3962100E-02
2761.564, 1.3732980E-02
2763.493, 1.3237210E-02
2765.421, 1.3262040E-02
2767.350, 1.3451360E-02
2769.278, 1.3844030E-02
2771.207, 1.4304770E-02
2773.135, 1.4644340E-02
2775.063, 1.4659910E-02
2776.992, 1.4528330E-02
2778.920, 1.4162730E-02
2780.849, 1.4270630E-02
2782.777, 1.3944280E-02
2784.706, 1.3635920E-02
2786.634, 1.4118570E-02
2788.563, 1.4050890E-02
2790.491, 1.4129140E-02
2792.420, 1.4349020E-02
2794.348, 1.3485550E-02
2796.277, 1.3289110E-02
2798.205, 1.3565810E-02
2800.134, 1.3432710E-02
2802.062, 1.3979160E-02
2803.990, 1.4459020E-02
2805.919, 1.4527400E-02
2807.847, 1.4280590E-02
2809.776, 1.4173780E-02
2811.704, 1.3547550E-02
2813.633, 1.3629200E-02
2815.561, 1.4902940E-02
2817.490, 1.4610850E-02
2819.418, 1.3520000E-02
2821.347, 1.3729600E-02
2823.275, 1.4181590E-02
2825.204, 1.4351480E-02
2827.132, 1.4877240E-02
2829.061, 1.4509400E-02
2830.989, 1.4606590E-02
2832.917, 1.5254120E-02
2834.846, 1.5280880E-02
2836.774, 1.4905920E-02
2838.703, 1.5320240E-02
2840.631, 1.5743749E-02
2842.560, 1.4658240E-02
2844.488, 1.3991870E-02
2846.417, 1.3829050E-02
2848.345, 1.4204150E-02
2850.274, 1.4590750E-02
2852.202, 1.4384450E-02
2854.131, 1.3382660E-02
2856.059, 1.2932850E-02
2857.988, 1.3985860E-02
2859.916, 1.4848600E-02
2861.844, 1.4295380E-02
2863.773, 1.3716310E-02
2865.701, 1.3348210E-02
2867.630, 1.4016740E-02
2869.558, 1.5133200E-02
2871.487, 1.5446280E-02
2873.415, 1.5105570E-02
2875.344, 1.4958050E-02
2877.272, 1.4597590E-02
2879.201, 1.3979920E-02
2881.129, 1.4818320E-02
2883.058, 1.5429190E-02
2884.986, 1.5860859E-02
2886.915, 1.6646070E-02
2888.843, 1.5612910E-02
2890.771, 1.5187400E-02
2892.700, 1.5947551E-02
2894.628, 1.6299050E-02
2896.557, 1.6477531E-02
2898.485, 1.5500290E-02
2900.414, 1.4340700E-02
2902.342, 1.4315580E-02
2904.271, 1.4296780E-02
2906.199, 1.5354710E-02
2908.128, 1.5805241E-02
2910.056, 1.4523820E-02
2911.985, 1.5318580E-02
2913.913, 1.5488960E-02
2915.842, 1.5794320E-02
2917.770, 1.6199430E-02
2919.698, 1.5931509E-02
2921.627, 1.4753680E-02
2923.555, 1.4437420E-02
2925.484, 1.4560030E-02
2927.412, 1.4665080E-02
2929.341, 1.4958150E-02
2931.269, 1.5178270E-02
2933.198, 1.4932410E-02
2935.126, 1.4172510E-02
2937.055, 1.3878250E-02
2938.983, 1.4157200E-02
2940.912, 1.4777640E-02
2942.840, 1.4325780E-02
2944.769, 1.3886760E-02
2946.697, 1.5326210E-02
2948.625, 1.5613020E-02
2950.554, 1.5646709E-02
2952.482, 1.5258280E-02
2954.411, 1.4963100E-02
2956.339, 1.5524230E-02
2958.268, 1.5633389E-02
2960.196, 1.4677730E-02
2962.125, 1.3521790E-02
2964.053, 1.3198380E-02
2965.982, 1.4678860E-02
2967.910, 1.6052529E-02
2969.839, 1.5982160E-02
2971.767, 1.5127520E-02
2973.696, 1.5287490E-02
2975.624, 1.5175940E-02
2977.552, 1.4420730E-02
2979.481, 1.4950410E-02
2981.409, 1.6267501E-02
2983.338, 1.6464040E-02
2985.266, 1.5811190E-02
2987.195, 1.6427791E-02
2989.123, 1.6655210E-02
2991.052, 1.5183770E-02
2992.980, 1.4766920E-02
2994.909, 1.6287560E-02
2996.837, 1.6334480E-02
2998.766, 1.5502980E-02
3000.694, 1.4809690E-02
3002.623, 1.4072310E-02
3004.551, 1.3922050E-02
3006.479, 1.4413620E-02
3008.408, 1.5192310E-02
3010.336, 1.4901910E-02
3012.265, 1.4498330E-02
3014.193, 1.6295251E-02
3016.122, 1.7819289E-02
3018.050, 1.8277830E-02
3019.979, 1.8532271E-02
3021.907, 1.7846560E-02
3023.836, 1.6926430E-02
3025.764, 1.6456980E-02
3027.693, 1.6373649E-02
3029.621, 1.5756780E-02
3031.550, 1.6141430E-02
3033.478, 1.7302459E-02
3035.406, 1.7727040E-02
3037.335, 1.7518900E-02
3039.263, 1.6477710E-02
3041.192, 1.4748670E-02
3043.120, 1.4446690E-02
3045.049, 1.6519461E-02
3046.977, 1.7317239E-02
3048.906, 1.7412780E-02
3050.834, 1.7882040E-02
3052.763, 1.7094729E-02
3054.691, 1.5871501E-02
3056.620, 1.5711360E-02
3058.548, 1.5822111E-02
3060.477, 1.6049450E-02
3062.405, 1.7769800E-02
3064.333, 1.8036840E-02
3066.262, 1.7619541E-02
3068.190, 1.6916789E-02
3070.119, 1.7779261E-02
3072.047, 1.8300630E-02
3073.976, 1.8097181E-02
3075.904, 1.5928051E-02
3077.833, 1.5179110E-02
3079.761, 1.7158000E-02
3081.690, 1.8123681E-02
3083.618, 1.7287649E-02
3085.547, 1.6400911E-02
3087.475, 1.5907111E-02
3089.404, 1.5799560E-02
3091.332, 1.6553549E-02
3093.260, 1.7422751E-02
3095.189, 1.8275101E-02
3097.117, 1.8666871E-02
3099.046, 1.7758630E-02
3100.974, 1.6805990E-02
3102.903, 1.6624101E-02
3104.831, 1.7452801E-02
3106.760, 1.8000791E-02
3108.688, 1.7021339E-02
3110.617, 1.6874461E-02
3112.545, 1.6556529E-02
3114.474, 1.7447820E-02
3116.402, 1.9012140E-02
3118.331, 1.9350050E-02
3120.259, 1.9366641E-02
3122.188, 1.8279210E-02
3124.116, 1.8482851E-02
3126.044, 1.9031711E-02
3127.973, 1.8784260E-02
3129.901, 1.8936981E-02
3131.830, 1.8779229E-02
3133.758, 1.8638100E-02
3135.687, 1.7792400E-02
3137.615, 1.6325410E-02
3139.544, 1.7180050E-02
3141.472, 1.8577499E-02
3143.401, 1.7772870E-02
3145.329, 1.7365851E-02
3147.258, 1.6460409E-02
3149.186, 1.6828720E-02
3151.115, 1.7487019E-02
3153.043, 1.7729480E-02
3154.971, 1.8154031E-02
3156.900, 1.8871561E-02
3158.828, 1.9961961E-02
3160.757, 2.0989660E-02
3162.685, 2.0725410E-02
3164.614, 1.9839261E-02
3166.542, 1.9655190E-02
3168.471, 1.9122651E-02
3170.399, 1.9551260E-02
3172.328, 1.9835480E-02
3174.256, 1.9313600E-02
3176.185, 1.7960889E-02
3178.113, 1.7411610E-02
3180.042, 1.8774150E-02
3181.970, 1.9807100E-02
3183.898, 1.8701751E-02
3185.827, 1.8407419E-02
3187.755, 2.0044670E-02
3189.684, 2.0628979E-02
3191.612, 2.0860121E-02
3193.541, 2.0738341E-02
3195.469, 2.1253189E-02
3197.398, 2.1656681E-02
3199.326, 2.0703180E-02
3201.255, 2.0227600E-02
3203.183, 2.0189490E-02
3205.112, 2.0436781E-02
3207.040, 1.9877350E-02
3208.969, 1.8695001E-02
3210.897, 1.7924281E-02
3212.825, 1.7105971E-02
3214.754, 1.6720761E-02
3216.682, 1.6850419E-02
3218.611, 1.8524330E-02
3220.539, 2.1044301E-02
3222.468, 2.1957070E-02
3224.396, 2.1557970E-02
3226.325, 2.0071160E-02
3228.253, 1.8922601E-02
3230.182, 1.8860349E-02
3232.110, 1.8126231E-02
3234.039, 1.8268719E-02
3235.967, 1.8918591E-02
3237.896, 1.8654229E-02
3239.824, 2.1119541E-02
3241.752, 2.2847870E-02
3243.681, 2.1335730E-02
3245.609, 1.8384971E-02
3247.538, 1.7320409E-02
3249.466, 1.8101310E-02
3251.395, 1.9824130E-02
3253.323, 2.0624200E-02
3255.252, 2.0548100E-02
3257.180, 2.1202220E-02
3259.109, 2.1171911E-02
3261.037, 2.1010941E-02
3262.966, 1.9988099E-02
3264.894, 1.7872689E-02
3266.823, 1.7984429E-02
3268.751, 1.7970810E-02
3270.679, 1.9490849E-02
3272.608, 2.1723069E-02
3274.536, 1.9749800E-02
3276.465, 2.0705910E-02
3278.393, 2.2279760E-02
3280.322, 1.9939549E-02
3282.250, 1.9600600E-02
3284.179, 1.9804209E-02
3286.107, 2.0700229E-02
3288.036, 2.0746971E-02
3289.964, 1.9778861E-02
3291.893, 1.9806599E-02
3293.821, 2.1374701E-02
3295.750, 2.1595960E-02
3297.678, 2.0299589E-02
3299.606, 1.9947680E-02
3301.535, 2.0355960E-02
3303.463, 2.0037150E-02
3305.392, 1.9428480E-02
3307.320, 2.0864431E-02
3309.249, 2.1731939E-02
3311.177, 2.0724360E-02
3313.106, 1.9405279E-02
3315.034, 1.9137049E-02
3316.963, 2.0164611E-02
3318.891, 1.9572699E-02
3320.820, 1.9658700E-02
3322.748, 2.1041861E-02
3324.677, 2.0292951E-02
3326.605, 2.1007560E-02
3328.533, 2.0719759E-02
3330.462, 1.9961340E-02
3332.390, 1.9585939E-02
3334.319, 1.9061871E-02
3336.247, 1.9156789E-02
3338.176, 1.8498121E-02
3340.104, 1.8020829E-02
3342.033, 1.8426290E-02
3343.961, 1.9849600E-02
3345.890, 1.8981090E-02
3347.818, 1.7572960E-02
3349.747, 1.8336739E-02
3351.675, 1.8034570E-02
3353.604, 1.9597091E-02
3355.532, 2.1035239E-02
3357.460, 1.9272961E-02
3359.389, 1.9285610E-02
3361.317, 1.9447010E-02
3363.246, 1.9718610E-02
3365.174, 2.0875230E-02
3367.103, 2.0975471E-02
3369.031, 2.0338630E-02
3370.960, 1.9832900E-02
3372.888, 2.0372570E-02
3374.817, 2.0784641E-02
3376.745, 1.9250900E-02
3378.674, 1.9056380E-02
3380.602, 2.1673759E-02
3382.531, 2.1942060E-02
3384.459, 2.0216189E-02
3386.387, 2.1642180E-02
3388.316, 2.3166720E-02
3390.244, 2.0279329E-02
3392.173, 1.9017059E-02
3394.101, 1.9941119E-02
3396.030, 2.1580480E-02
3397.958, 2.2529870E-02
3399.887, 2.1198550E-02
3401.815, 2.1598261E-02
3403.744, 2.2610830E-02
3405.672, 2.1394100E-02
3407.601, 1.9304860E-02
3409.529, 1.8864220E-02
3411.458, 1.8074630E-02
3413.386, 1.7281590E-02
3415.314, 1.8725350E-02
3417.243, 1.9054269E-02
3419.171, 2.0591009E-02
3421.100, 2.2774350E-02
3423.028, 2.1223759E-02
3424.957, 2.1782961E-02
3426.885, 2.2661140E-02
3428.814, 2.2532130E-02
3430.742, 2.0736080E-02
3432.671, 1.9322449E-02
3434.599, 2.1383701E-02
3436.528, 2.3177009E-02
3438.456, 2.0759249E-02
3440.385, 1.9207900E-02
3442.313, 2.0231539E-02
3444.241, 2.0018021E-02
3446.170, 1.8714260E-02
3448.098, 1.7622869E-02
3450.027, 1.9616680E-02
3451.955, 2.0438360E-02
3453.884, 1.8852681E-02
3455.812, 1.7510060E-02
3457.741, 2.0485740E-02
3459.669, 2.2024790E-02
3461.598, 2.1329930E-02
3463.526, 1.9950891E-02
3465.455, 1.9362990E-02
3467.383, 1.9758079E-02
3469.312, 2.1213889E-02
3471.240, 2.2624111E-02
3473.168, 2.3491111E-02
3475.097, 2.2983450E-02
3477.025, 2.1436561E-02
3478.954, 2.0578230E-02
3480.882, 2.0711940E-02
3482.811, 1.9228769E-02
3484.739, 1.7822869E-02
3486.668, 1.7855410E-02
3488.596, 1.9890681E-02
3490.525, 2.0933120E-02
3492.453, 1.9899890E-02
3494.382, 1.8719450E-02
3496.310, 1.6583700E-02
3498.239, 1.3473580E-02
3500.167, 1.3773550E-02
3502.095, 1.6917011E-02
3504.024, 1.7016020E-02
3505.952, 1.6845889E-02
3507.881, 1.7505560E-02
3509.809, 1.9294791E-02
3511.738, 2.0419151E-02
3513.666, 2.0289730E-02
3515.595, 1.7961349E-02
3517.523, 1.7237160E-02
3519.452, 2.0075349E-02
3521.380, 2.2331219E-02
3523.309, 2.0694800E-02
3525.237, 1.9239550E-02
3527.166, 1.9757399E-02
3529.094, 2.1225249E-02
3531.022, 2.1675119E-02
3532.951, 2.1177230E-02
3534.879, 1.9912850E-02
3536.808, 2.2317991E-02
3538.736, 2.1226890E-02
3540.665, 1.9784881E-02
3542.593, 2.0082470E-02
3544.522, 2.0825470E-02
3546.450, 2.2032879E-02
3548.379, 2.0909630E-02
3550.307, 1.9961860E-02
3552.236, 2.0366700E-02
3554.164, 2.1292681E-02
3556.093, 2.0684579E-02
3558.021, 2.1108180E-02
3559.949, 2.1182399E-02
3561.878, 1.8282721E-02
3563.806, 1.4553130E-02
3565.735, 1.5473640E-02
3567.663, 1.8809389E-02
3569.592, 1.7547220E-02
3571.520, 1.6449399E-02
3573.449, 1.6747180E-02
3575.377, 1.9886451E-02
3577.306, 1.9513519E-02
3579.234, 1.7674260E-02
3581.163, 1.6597670E-02
3583.091, 1.7184850E-02
3585.020, 2.0560561E-02
3586.948, 2.0675199E-02
3588.876, 1.7766140E-02
3590.805, 1.5981460E-02
3592.733, 1.8854201E-02
3594.662, 1.9929171E-02
3596.590, 1.8961530E-02
3598.519, 1.7580280E-02
3600.447, 1.6533200E-02
3602.376, 1.6622869E-02
3604.304, 1.5784200E-02
3606.233, 1.7653139E-02
3608.161, 1.7717350E-02
3610.090, 1.7794810E-02
3612.018, 1.8601850E-02
3613.947, 2.0136880E-02
3615.875, 1.7971531E-02
3617.803, 1.4519180E-02
3619.732, 1.4767590E-02
3621.660, 1.6542559E-02
3623.589, 1.9020259E-02
3625.517, 2.1262391E-02
3627.446, 2.0184221E-02
3629.374, 1.9383799E-02
3631.303, 1.9710720E-02
3633.231, 1.5226400E-02
3635.160, 1.4322140E-02
3637.088, 1.7793570E-02
3639.017, 1.7218171E-02
3640.945, 1.6324060E-02
3642.874, 1.8725580E-02
3644.802, 2.0133160E-02
3646.730, 1.8161681E-02
3648.659, 1.4609330E-02
3650.587, 1.5622090E-02
3652.516, 1.5876390E-02
3654.444, 1.6816029E-02
3656.373, 1.6652999E-02
3658.301, 1.4934240E-02
3660.230, 1.6742630E-02
3662.158, 1.8947501E-02
3664.087, 1.9489801E-02
3666.015, 1.6815869E-02
3667.944, 1.6031960E-02
3669.872, 1.7687861E-02
3671.801, 1.8513231E-02
3673.729, 1.8363740E-02
3675.657, 1.9578720E-02
3677.586, 1.7231900E-02
3679.514, 1.9242000E-02
3681.443, 2.1178709E-02
3683.371, 1.8738020E-02
3685.300, 1.7161280E-02
3687.228, 1.7853670E-02
3689.157, 1.9483700E-02
3691.085, 2.0157330E-02
3693.014, 1.9499980E-02
3694.942, 1.8961759E-02
3696.871, 1.8091369E-02
3698.799, 1.6444640E-02
3700.728, 1.6509591E-02
3702.656, 1.6489310E-02
3704.584, 1.5241390E-02
3706.513, 1.6200541E-02
3708.441, 1.8609339E-02
3710.370, 2.0280199E-02
3712.298, 1.7168021E-02
3714.227, 1.6182911E-02
3716.155, 1.7577421E-02
3718.084, 1.7091680E-02
3720.012, 1.8508431E-02
3721.941, 1.9765081E-02
3723.869, 1.9800050E-02
3725.798, 1.9551629E-02
3727.726, 1.6459569E-02
3729.655, 1.4431210E-02
3731.583, 1.8706329E-02
3733.511, 2.4055229E-02
3735.440, 2.2342550E-02
3737.368, 1.7685769E-02
3739.297, 1.6397521E-02
3741.225, 2.0075429E-02
3743.154, 2.5496701E-02
3745.082, 2.5046790E-02
3747.011, 2.1252610E-02
3748.939, 2.0112550E-02
3750.868, 2.1885671E-02
3752.796, 2.1627869E-02
3754.725, 2.0725600E-02
3756.653, 2.1068839E-02
3758.582, 2.0008059E-02
3760.510, 1.9015590E-02
3762.438, 1.7933341E-02
3764.367, 1.7914411E-02
3766.295, 1.8788701E-02
3768.224, 2.1075809E-02
3770.152, 2.3014041E-02
3772.081, 2.4361961E-02
3774.009, 2.1710970E-02
3775.938, 1.9567451E-02
3777.866, 2.0585740E-02
3779.795, 2.0592820E-02
3781.723, 2.0483680E-02
3783.652, 1.9889871E-02
3785.580, 1.6602000E-02
3787.509, 1.5327170E-02
3789.437, 1.7199280E-02
3791.365, 1.9849051E-02
3793.294, 2.0326581E-02
3795.222, 2.0761300E-02
3797.151, 1.9746009E-02
3799.079, 1.5568280E-02
3801.008, 1.9319260E-02
3802.936, 2.0343680E-02
3804.865, 1.6323671E-02
3806.793, 1.8590011E-02
3808.722, 2.3248071E-02
3810.650, 2.3306331E-02
3812.579, 2.1099711E-02
3814.507, 1.9230841E-02
3816.436, 1.9793570E-02
3818.364, 1.8710360E-02
3820.292, 1.6934410E-02
3822.221, 1.7700691E-02
3824.149, 1.9553291E-02
3826.078, 2.2201030E-02
3828.006, 2.1832811E-02
3829.935, 2.0397410E-02
3831.863, 1.8607410E-02
3833.792, 1.8119590E-02
3835.720, 2.0148279E-02
3837.649, 1.8791100E-02
3839.577, 1.8307960E-02
3841.506, 2.0066069E-02
3843.434, 2.2914641E-02
3845.363, 2.1330830E-02
3847.291, 1.7904280E-02
3849.219, 1.9278759E-02
3851.148, 2.4150850E-02
3853.076, 2.5537379E-02
3855.005, 2.4516931E-02
3856.933, 2.2103060E-02
3858.862, 2.0160349E-02
3860.790, 2.1686710E-02
3862.719, 2.0380519E-02
3864.647, 1.9363411E-02
3866.576, 1.8561181E-02
3868.504, 2.1147771E-02
3870.433, 2.0334771E-02
3872.361, 2.1502949E-02
3874.290, 2.5237991E-02
3876.218, 2.3919679E-02
3878.146, 2.1380330E-02
3880.075, 1.7621189E-02
3882.003, 1.7431220E-02
3883.932, 1.9946599E-02
3885.860, 2.0698771E-02
3887.789, 2.0064170E-02
3889.717, 2.3684820E-02
3891.646, 2.4532629E-02
3893.574, 2.3137320E-02
3895.503, 1.8256759E-02
3897.431, 1.6962869E-02
3899.360, 2.2571910E-02
3901.288, 2.3862511E-02
3903.217, 2.1948610E-02
3905.145, 2.2487000E-02
3907.073, 2.1567469E-02
3909.002, 2.1874599E-02
3910.930, 2.1258321E-02
3912.859, 1.9690610E-02
3914.787, 1.8655829E-02
3916.716, 1.8203881E-02
3918.644, 1.9461241E-02
3920.573, 2.2577280E-02
3922.501, 2.2378599E-02
3924.430, 2.1796159E-02
3926.358, 2.1836519E-02
3928.287, 2.0926209E-02
3930.215, 2.1796901E-02
3932.144, 2.0586461E-02
3934.072, 1.8918009E-02
3936.000, 2.0812320E-02
3937.929, 2.4486840E-02
3939.857, 2.4293059E-02
3941.786, 2.2233371E-02
3943.714, 1.9427139E-02
3945.643, 1.9569140E-02
3947.571, 2.2894600E-02
3949.500, 2.1619570E-02
3951.428, 2.0739900E-02
3953.357, 2.2994800E-02
3955.285, 2.4037549E-02
3957.214, 2.4030119E-02
3959.142, 2.3758110E-02
3961.071, 2.0699119E-02
3962.999, 2.1344440E-02
3964.927, 2.4057381E-02
3966.856, 2.2236031E-02
3968.784, 1.8279079E-02
3970.713, 1.9950610E-02
3972.641, 2.1630410E-02
3974.570, 2.0920020E-02
3976.498, 2.2910690E-02
3978.427, 2.1973360E-02
3980.355, 2.3198221E-02
3982.284, 2.5267880E-02
3984.212, 2.1132860E-02
3986.141, 1.6755810E-02
3988.069, 1.6408499E-02
3989.998, 1.9154061E-02
3991.926, 2.3886710E-02
3993.854, 2.4238130E-02
3995.783, 2.1699039E-02
3997.711, 2.1135140E-02
3999.640, 2.1145331E-02
##END=



