##NAMES=Fluor-uvite
##RRUFFID=R050301
##IDEAL CHEMISTRY=CaMg_3_(Al_5_Mg)(Si_6_O_18_)(BO_3_)_3_(OH)_3_F
##LOCALITY=Brumado, Bahia, Brazil
##OWNER=RRUFF
##SOURCE=Eugene Schlepp
##DESCRIPTION=Short prismatic green crystals
##STATUS=The identification of this mineral has been confirmed by X-ray diffraction and chemical analysis
##URL=rruff.info/R050301
##MEASURED CHEMISTRY=(Ca_0.68_Na_0.22_[box]_0.10_)(Mg_0.77_Al_0.16_Ti_0.03_[box]_0.04_)_3_(Mg_1.00_Al_5.00_)(BO_3_)_3_Si_6.00_O_18_((OH)_3_F)
399.1926, 0.2921016
401.1211, 0.2931998
403.0496, 0.2946093
404.9780, 0.2926257
406.9065, 0.2933747
408.8350, 0.2918278
410.7634, 0.3025930
412.6919, 0.3246000
414.6204, 0.3236897
416.5488, 0.3110084
418.4773, 0.3017543
420.4058, 0.2940492
422.3342, 0.2888248
424.2627, 0.2831155
426.1912, 0.2799235
428.1196, 0.2816377
430.0481, 0.2866769
431.9766, 0.2898995
433.9050, 0.2905319
435.8335, 0.2950412
437.7620, 0.3065775
439.6904, 0.3122847
441.6189, 0.3165056
443.5474, 0.3165942
445.4758, 0.3139577
447.4043, 0.3144743
449.3328, 0.3146186
451.2612, 0.3120279
453.1897, 0.3127596
455.1182, 0.3123170
457.0466, 0.3099422
458.9751, 0.3111057
460.9036, 0.3170239
462.8320, 0.3195954
464.7605, 0.3225867
466.6890, 0.3231264
468.6174, 0.3235051
470.5459, 0.3269879
472.4744, 0.3293612
474.4028, 0.3310283
476.3313, 0.3312832
478.2598, 0.3277750
480.1882, 0.3243982
482.1167, 0.3204075
484.0452, 0.3175529
485.9736, 0.3116903
487.9021, 0.3053049
489.8306, 0.3010452
491.7590, 0.2978610
493.6875, 0.2938293
495.6160, 0.2907378
497.5444, 0.2866329
499.4729, 0.2798688
501.4014, 0.2708131
503.3298, 0.2621200
505.2583, 0.2533312
507.1868, 0.2448406
509.1152, 0.2371982
511.0437, 0.2302480
512.9722, 0.2230263
514.9006, 0.2157142
516.8291, 0.2090473
518.7576, 0.2048045
520.6860, 0.1998194
522.6145, 0.1938545
524.5430, 0.1881685
526.4714, 0.1821195
528.3999, 0.1773435
530.3284, 0.1722860
532.2568, 0.1665569
534.1853, 0.1602698
536.1138, 0.1547722
538.0422, 0.1511088
539.9707, 0.1486520
541.8992, 0.1457631
543.8276, 0.1435314
545.7561, 0.1411987
547.6846, 0.1404319
549.6130, 0.1417250
551.5415, 0.1430515
553.4700, 0.1444841
555.3984, 0.1458682
557.3269, 0.1489498
559.2554, 0.1526378
561.1838, 0.1568935
563.1123, 0.1611674
565.0408, 0.1637931
566.9692, 0.1642124
568.8977, 0.1623803
570.8262, 0.1600967
572.7546, 0.1578357
574.6831, 0.1538330
576.6116, 0.1489450
578.5400, 0.1446917
580.4685, 0.1400562
582.3970, 0.1346168
584.3254, 0.1300122
586.2539, 0.1266918
588.1824, 0.1245485
590.1108, 0.1226187
592.0393, 0.1210627
593.9678, 0.1202568
595.8962, 0.1210214
597.8247, 0.1232550
599.7532, 0.1251035
601.6816, 0.1263672
603.6101, 0.1268257
605.5386, 0.1252676
607.4670, 0.1225949
609.3955, 0.1186003
611.3240, 0.1136314
613.2524, 0.1085886
615.1809, 0.1024860
617.1094, 9.7066619E-02
619.0378, 9.2678778E-02
620.9663, 8.7942667E-02
622.8948, 8.4091261E-02
624.8232, 8.1357203E-02
626.7517, 7.9199247E-02
628.6802, 7.6869808E-02
630.6086, 7.4070267E-02
632.5371, 7.1683340E-02
634.4656, 7.0401423E-02
636.3940, 7.1224406E-02
638.3225, 7.4296340E-02
640.2510, 7.8440927E-02
642.1794, 8.2944937E-02
644.1079, 8.7164961E-02
646.0364, 9.0624467E-02
647.9648, 9.2130259E-02
649.8933, 9.0957612E-02
651.8218, 8.7976217E-02
653.7502, 8.4546447E-02
655.6787, 8.1990838E-02
657.6072, 8.0576509E-02
659.5356, 7.9731852E-02
661.4641, 7.9643801E-02
663.3926, 8.0432467E-02
665.3210, 8.0954663E-02
667.2495, 8.1356376E-02
669.1780, 8.2369477E-02
671.1064, 8.3728977E-02
673.0349, 8.5518517E-02
674.9634, 8.7495603E-02
676.8918, 8.9354277E-02
678.8203, 9.1437303E-02
680.7488, 9.3283437E-02
682.6772, 9.5607318E-02
684.6057, 9.8324843E-02
686.5342, 0.1014806
688.4626, 0.1050867
690.3911, 0.1096033
692.3196, 0.1158822
694.2480, 0.1238110
696.1765, 0.1334575
698.1050, 0.1442084
700.0334, 0.1547306
701.9619, 0.1641187
703.8904, 0.1703014
705.8188, 0.1721708
707.7473, 0.1705122
709.6758, 0.1660579
711.6042, 0.1599727
713.5327, 0.1530630
715.4612, 0.1460099
717.3896, 0.1391927
719.3181, 0.1331565
721.2466, 0.1283955
723.1750, 0.1256664
725.1035, 0.1242079
727.0320, 0.1221399
728.9604, 0.1183919
730.8889, 0.1118411
732.8174, 0.1031352
734.7458, 9.4131634E-02
736.6743, 8.5282028E-02
738.6028, 7.7556632E-02
740.5313, 7.2168849E-02
742.4597, 6.8660833E-02
744.3882, 6.6489831E-02
746.3167, 6.6099323E-02
748.2451, 6.7327850E-02
750.1736, 6.9638386E-02
752.1021, 7.3155940E-02
754.0305, 7.7773079E-02
755.9590, 8.2929023E-02
757.8875, 8.8893697E-02
759.8159, 9.5123626E-02
761.7444, 0.1012230
763.6729, 0.1073391
765.6013, 0.1129173
767.5298, 0.1166725
769.4583, 0.1178273
771.3867, 0.1179176
773.3152, 0.1171614
775.2437, 0.1156769
777.1721, 0.1126235
779.1006, 0.1078776
781.0291, 0.1030062
782.9575, 9.9571466E-02
784.8860, 9.7360283E-02
786.8145, 9.5438957E-02
788.7429, 9.3073793E-02
790.6714, 8.9087263E-02
792.5999, 8.2064562E-02
794.5283, 7.3019817E-02
796.4568, 6.3455664E-02
798.3853, 5.3980630E-02
800.3137, 4.6070930E-02
802.2422, 4.0700350E-02
804.1707, 3.7601981E-02
806.0991, 3.5590138E-02
808.0276, 3.4311529E-02
809.9561, 3.3501979E-02
811.8845, 3.3260431E-02
813.8130, 3.2973342E-02
815.7415, 3.2558851E-02
817.6699, 3.2598130E-02
819.5984, 3.2595091E-02
821.5269, 3.2508299E-02
823.4553, 3.2606840E-02
825.3838, 3.2433130E-02
827.3123, 3.2497421E-02
829.2407, 3.2601889E-02
831.1692, 3.2532010E-02
833.0977, 3.2626908E-02
835.0261, 3.2501008E-02
836.9546, 3.2510649E-02
838.8831, 3.2869998E-02
840.8115, 3.2811221E-02
842.7400, 3.2913059E-02
844.6685, 3.3654641E-02
846.5969, 3.4058049E-02
848.5254, 3.4622859E-02
850.4539, 3.5459019E-02
852.3823, 3.6469929E-02
854.3108, 3.7642129E-02
856.2393, 3.8729679E-02
858.1677, 3.9898150E-02
860.0962, 4.1398320E-02
862.0247, 4.3640479E-02
863.9531, 4.5859128E-02
865.8816, 4.7493611E-02
867.8101, 4.9117040E-02
869.7385, 5.1210441E-02
871.6670, 5.3573579E-02
873.5955, 5.5959541E-02
875.5239, 5.8584031E-02
877.4524, 6.1150420E-02
879.3809, 6.3848488E-02
881.3093, 6.6518530E-02
883.2378, 6.9137007E-02
885.1663, 7.1430206E-02
887.0947, 7.3593661E-02
889.0232, 7.6037489E-02
890.9517, 7.8388162E-02
892.8801, 8.0561712E-02
894.8085, 8.2958393E-02
896.7370, 8.6013153E-02
898.6655, 8.9605138E-02
900.5939, 9.3812883E-02
902.5224, 9.8733842E-02
904.4509, 0.1033829
906.3793, 0.1078231
908.3078, 0.1125423
910.2363, 0.1179232
912.1647, 0.1238558
914.0932, 0.1296509
916.0217, 0.1359191
917.9501, 0.1425781
919.8786, 0.1501271
921.8071, 0.1582943
923.7355, 0.1675137
925.6640, 0.1773854
927.5925, 0.1878215
929.5209, 0.1987809
931.4494, 0.2100196
933.3779, 0.2214046
935.3063, 0.2325684
937.2348, 0.2436066
939.1633, 0.2551725
941.0917, 0.2669117
943.0202, 0.2782325
944.9487, 0.2888243
946.8771, 0.2986915
948.8056, 0.3080499
950.7341, 0.3154421
952.6625, 0.3205005
954.5910, 0.3244617
956.5195, 0.3265679
958.4479, 0.3262476
960.3764, 0.3244065
962.3049, 0.3217049
964.2333, 0.3183843
966.1618, 0.3152521
968.0903, 0.3131334
970.0187, 0.3118716
971.9472, 0.3113199
973.8757, 0.3111292
975.8041, 0.3103440
977.7326, 0.3082374
979.6611, 0.3048556
981.5895, 0.2995136
983.5180, 0.2926747
985.4465, 0.2845395
987.3749, 0.2746996
989.3034, 0.2643615
991.2319, 0.2538467
993.1603, 0.2429112
995.0888, 0.2317640
997.0173, 0.2212600
998.9457, 0.2113345
1000.874, 0.2012330
1002.803, 0.1916806
1004.731, 0.1826990
1006.660, 0.1744667
1008.588, 0.1681924
1010.517, 0.1646600
1012.445, 0.1636983
1014.373, 0.1650466
1016.302, 0.1682889
1018.230, 0.1728645
1020.159, 0.1778704
1022.087, 0.1824247
1024.016, 0.1861275
1025.944, 0.1895169
1027.873, 0.1926669
1029.801, 0.1950634
1031.730, 0.1961662
1033.658, 0.1964613
1035.587, 0.1970111
1037.515, 0.1974897
1039.444, 0.1971023
1041.372, 0.1958533
1043.301, 0.1944696
1045.229, 0.1934234
1047.157, 0.1917485
1049.086, 0.1902113
1051.014, 0.1893509
1052.943, 0.1883868
1054.871, 0.1875554
1056.800, 0.1879689
1058.728, 0.1887440
1060.657, 0.1896076
1062.585, 0.1909287
1064.514, 0.1918673
1066.442, 0.1926097
1068.371, 0.1930294
1070.299, 0.1930726
1072.228, 0.1925672
1074.156, 0.1912021
1076.084, 0.1893974
1078.013, 0.1871729
1079.941, 0.1834089
1081.870, 0.1784771
1083.798, 0.1732707
1085.727, 0.1678974
1087.655, 0.1617276
1089.584, 0.1549848
1091.512, 0.1479863
1093.441, 0.1410086
1095.369, 0.1336498
1097.298, 0.1260017
1099.226, 0.1187648
1101.155, 0.1123477
1103.083, 0.1059784
1105.011, 9.9863827E-02
1106.940, 9.3878873E-02
1108.868, 8.8281497E-02
1110.797, 8.3556473E-02
1112.725, 7.8735217E-02
1114.654, 7.3620044E-02
1116.582, 6.8782397E-02
1118.511, 6.4020321E-02
1120.439, 5.9204310E-02
1122.368, 5.4573260E-02
1124.296, 4.9968831E-02
1126.225, 4.5838099E-02
1128.153, 4.1932769E-02
1130.082, 3.7917230E-02
1132.010, 3.3993091E-02
1133.938, 3.0350739E-02
1135.867, 2.7190240E-02
1137.795, 2.4399390E-02
1139.724, 2.2000249E-02
1141.652, 2.0245800E-02
1143.581, 1.8926069E-02
1145.509, 1.7608169E-02
1147.438, 1.6564829E-02
1149.366, 1.5747361E-02
1151.295, 1.5482570E-02
1153.223, 1.5439930E-02
1155.152, 1.4979870E-02
1157.080, 1.4428070E-02
1159.009, 1.4047780E-02
1160.937, 1.3954830E-02
1162.865, 1.4096700E-02
1164.794, 1.4135000E-02
1166.722, 1.3675390E-02
1168.651, 1.3446120E-02
1170.579, 1.3632220E-02
1172.508, 1.3923200E-02
1174.436, 1.4281710E-02
1176.365, 1.4561560E-02
1178.293, 1.4963940E-02
1180.222, 1.5417760E-02
1182.150, 1.5885839E-02
1184.079, 1.6593041E-02
1186.007, 1.7473729E-02
1187.936, 1.8539410E-02
1189.864, 1.9797890E-02
1191.792, 2.1178540E-02
1193.721, 2.2837169E-02
1195.649, 2.4916410E-02
1197.578, 2.7358960E-02
1199.506, 3.0115020E-02
1201.435, 3.3374518E-02
1203.363, 3.7103251E-02
1205.292, 4.1143760E-02
1207.220, 4.5654651E-02
1209.149, 5.0490201E-02
1211.077, 5.5799879E-02
1213.006, 6.1840091E-02
1214.934, 6.8268262E-02
1216.863, 7.4620157E-02
1218.791, 8.1608891E-02
1220.719, 8.8815346E-02
1222.648, 9.6158631E-02
1224.576, 0.1037136
1226.505, 0.1114036
1228.433, 0.1186515
1230.362, 0.1252896
1232.290, 0.1314637
1234.219, 0.1367983
1236.147, 0.1413464
1238.076, 0.1444040
1240.004, 0.1465858
1241.933, 0.1481394
1243.861, 0.1487862
1245.790, 0.1492765
1247.718, 0.1494415
1249.646, 0.1492440
1251.575, 0.1488197
1253.503, 0.1481773
1255.432, 0.1474618
1257.360, 0.1466835
1259.289, 0.1456323
1261.217, 0.1442568
1263.146, 0.1432840
1265.074, 0.1422196
1267.003, 0.1409483
1268.931, 0.1396727
1270.860, 0.1383341
1272.788, 0.1370532
1274.717, 0.1356077
1276.645, 0.1338792
1278.573, 0.1322706
1280.502, 0.1306173
1282.430, 0.1286882
1284.359, 0.1265900
1286.287, 0.1243813
1288.216, 0.1219433
1290.144, 0.1192785
1292.073, 0.1168510
1294.001, 0.1143067
1295.930, 0.1115140
1297.858, 0.1085137
1299.787, 0.1053038
1301.715, 0.1018221
1303.644, 9.8419636E-02
1305.572, 9.5692948E-02
1307.500, 9.3276173E-02
1309.429, 9.1309153E-02
1311.357, 8.9832351E-02
1313.286, 8.8765956E-02
1315.214, 8.7985210E-02
1317.143, 8.7285973E-02
1319.071, 8.6300701E-02
1321.000, 8.5225217E-02
1322.928, 8.4800668E-02
1324.857, 8.4509723E-02
1326.785, 8.3834954E-02
1328.714, 8.3763510E-02
1330.642, 8.4500901E-02
1332.571, 8.6025514E-02
1334.499, 8.8004202E-02
1336.427, 8.9873448E-02
1338.356, 9.1411076E-02
1340.284, 9.2261232E-02
1342.213, 9.2343070E-02
1344.141, 9.1569997E-02
1346.070, 9.0082787E-02
1347.998, 8.7985493E-02
1349.927, 8.5258402E-02
1351.855, 8.2245998E-02
1353.784, 7.9384603E-02
1355.712, 7.6561101E-02
1357.641, 7.3498450E-02
1359.569, 7.0434742E-02
1361.498, 6.7315876E-02
1363.426, 6.4231053E-02
1365.354, 6.1482459E-02
1367.283, 5.8553789E-02
1369.211, 5.5563189E-02
1371.140, 5.2599989E-02
1373.068, 4.9954209E-02
1374.997, 4.7574241E-02
1376.925, 4.5025371E-02
1378.854, 4.2877469E-02
1380.782, 4.1303359E-02
1382.711, 3.9931379E-02
1384.639, 3.9128631E-02
1386.568, 3.8718391E-02
1388.496, 3.8050190E-02
1390.424, 3.7390448E-02
1392.353, 3.6853231E-02
1394.281, 3.6162071E-02
1396.210, 3.5107750E-02
1398.138, 3.3798091E-02
1400.067, 3.2835070E-02
1401.995, 3.1402469E-02
1403.924, 2.9518429E-02
1405.852, 2.7944930E-02
1407.781, 2.6217530E-02
1409.709, 2.4673790E-02
1411.638, 2.3649789E-02
1413.566, 2.2426531E-02
1415.495, 2.0968219E-02
1417.423, 1.9711640E-02
1419.351, 1.8937459E-02
1421.280, 1.7930420E-02
1423.208, 1.6954379E-02
1425.137, 1.5901810E-02
1427.065, 1.5038810E-02
1428.994, 1.4284880E-02
1430.922, 1.3665680E-02
1432.851, 1.3052090E-02
1434.779, 1.2670490E-02
1436.708, 1.2101850E-02
1438.636, 1.1125900E-02
1440.565, 1.0295840E-02
1442.493, 9.8761637E-03
1444.422, 9.7014317E-03
1446.350, 9.1962107E-03
1448.278, 8.9560878E-03
1450.207, 8.4458794E-03
1452.135, 8.2392665E-03
1454.064, 8.0928076E-03
1455.992, 7.4069630E-03
1457.921, 6.8091941E-03
1459.849, 6.4862990E-03
1461.778, 6.3155061E-03
1463.706, 5.9775212E-03
1465.635, 5.7063322E-03
1467.563, 5.8353338E-03
1469.492, 6.4442442E-03
1471.420, 7.3494618E-03
1473.349, 7.9021882E-03
1475.277, 7.9115424E-03
1477.205, 7.8992881E-03
1479.134, 7.9178857E-03
1481.062, 7.9028718E-03
1482.991, 7.7923429E-03
1484.919, 7.8380844E-03
1486.848, 7.9109510E-03
1488.776, 7.5776340E-03
1490.705, 7.4507319E-03
1492.633, 7.6515600E-03
1494.562, 7.3515470E-03
1496.490, 6.6886758E-03
1498.419, 6.5330351E-03
1500.347, 6.5789018E-03
1502.276, 6.5552290E-03
1504.204, 6.7387628E-03
1506.132, 7.1344040E-03
1508.061, 7.2632721E-03
1509.989, 7.1117538E-03
1511.918, 7.1607442E-03
1513.846, 6.9662081E-03
1515.775, 6.8038451E-03
1517.703, 6.9698789E-03
1519.632, 7.0504891E-03
1521.560, 7.2000930E-03
1523.489, 7.2234562E-03
1525.417, 7.0459652E-03
1527.346, 6.8770028E-03
1529.274, 6.4156400E-03
1531.203, 6.1688721E-03
1533.131, 6.3428348E-03
1535.059, 6.4634322E-03
1536.988, 6.3014678E-03
1538.916, 6.1154990E-03
1540.845, 5.9198812E-03
1542.773, 5.9371400E-03
1544.702, 6.0010040E-03
1546.630, 5.8813621E-03
1548.559, 5.8036051E-03
1550.487, 6.0171038E-03
1552.416, 6.0059042E-03
1554.344, 5.7439930E-03
1556.273, 5.8701732E-03
1558.201, 6.1777541E-03
1560.130, 6.0140509E-03
1562.058, 5.7095489E-03
1563.986, 5.6973151E-03
1565.915, 5.7832990E-03
1567.843, 5.7202708E-03
1569.772, 5.8638519E-03
1571.700, 6.0343812E-03
1573.629, 5.9580980E-03
1575.557, 5.6497119E-03
1577.486, 5.4558110E-03
1579.414, 5.6535178E-03
1581.343, 5.7693650E-03
1583.271, 5.7115448E-03
1585.200, 5.6050122E-03
1587.128, 5.5278558E-03
1589.057, 5.7331580E-03
1590.985, 5.8182590E-03
1592.913, 5.8931238E-03
1594.842, 5.9391130E-03
1596.770, 5.7765138E-03
1598.699, 5.7026800E-03
1600.627, 5.6812721E-03
1602.556, 5.5503310E-03
1604.484, 5.4178010E-03
1606.413, 5.6205108E-03
1608.341, 5.9246179E-03
1610.270, 6.2850150E-03
1612.198, 6.1450838E-03
1614.127, 5.7165679E-03
1616.055, 5.3750658E-03
1617.984, 5.4184329E-03
1619.912, 5.4804431E-03
1621.840, 5.6730802E-03
1623.769, 5.6130630E-03
1625.697, 5.5104392E-03
1627.626, 5.4862141E-03
1629.554, 5.6552142E-03
1631.483, 6.0801958E-03
1633.411, 6.1419732E-03
1635.340, 6.3356282E-03
1637.268, 6.2960288E-03
1639.197, 6.2608151E-03
1641.125, 6.2495829E-03
1643.054, 6.2140902E-03
1644.982, 6.4832540E-03
1646.911, 6.6406508E-03
1648.839, 6.3109249E-03
1650.767, 6.1736931E-03
1652.696, 6.5000081E-03
1654.624, 6.1821439E-03
1656.553, 5.9575280E-03
1658.481, 6.1337589E-03
1660.410, 5.7984539E-03
1662.338, 5.9153019E-03
1664.267, 6.0169650E-03
1666.195, 5.7977880E-03
1668.124, 5.6312410E-03
1670.052, 5.6153890E-03
1671.981, 5.6539760E-03
1673.909, 5.5282582E-03
1675.838, 5.6050718E-03
1677.766, 5.6583020E-03
1679.694, 5.2821548E-03
1681.623, 4.8987111E-03
1683.551, 4.8807990E-03
1685.480, 4.7196010E-03
1687.408, 4.5704381E-03
1689.337, 4.6511400E-03
1691.265, 4.6819411E-03
1693.194, 4.8086238E-03
1695.122, 4.9371300E-03
1697.051, 4.5625488E-03
1698.979, 4.1628438E-03
1700.908, 3.6245780E-03
1702.836, 3.3455279E-03
1704.765, 3.6142920E-03
1706.693, 3.2596660E-03
1708.621, 2.6028380E-03
1710.550, 2.1673299E-03
1712.478, 2.2615129E-03
1714.407, 2.3282201E-03
1716.335, 2.6341630E-03
1718.264, 2.6551781E-03
1720.192, 2.3981719E-03
1722.121, 2.1082850E-03
1724.049, 1.3438649E-03
1725.978, 6.8886741E-04
1727.906, 4.5867549E-04
1729.835, 1.0025310E-04
1731.763, -6.7202467E-04
1733.692, -1.1160030E-03
1735.620, -1.4948780E-03
1737.548, -2.1260150E-03
1739.477, -2.7966141E-03
1741.405, -3.1946010E-03
1743.334, -3.2641690E-03
1745.262, -3.3324959E-03
1747.191, -2.8683629E-03
1749.119, -1.9553881E-03
1751.048, -9.3672448E-04
1752.976, 2.5351721E-04
1754.905, 1.4456270E-03
1756.833, 2.3384220E-03
1758.762, 2.9262770E-03
1760.690, 3.6320931E-03
1762.619, 3.5780959E-03
1764.547, 3.5906460E-03
1766.475, 4.3091518E-03
1768.404, 4.4738529E-03
1770.332, 3.9408901E-03
1772.261, 3.7657721E-03
1774.189, 3.8225059E-03
1776.118, 3.9907992E-03
1778.046, 4.5254468E-03
1779.975, 4.5721210E-03
1781.903, 4.3909028E-03
1783.832, 4.3243291E-03
1785.760, 4.0074689E-03
1787.689, 4.1658422E-03
1789.617, 4.2927982E-03
1791.546, 4.2053880E-03
1793.474, 4.6081110E-03
1795.402, 4.4671251E-03
1797.331, 3.9551998E-03
1799.259, 4.1126730E-03
1801.188, 4.5565530E-03
1803.116, 4.3472270E-03
1805.045, 4.0436522E-03
1806.973, 4.3370188E-03
1808.902, 4.1241688E-03
1810.830, 3.8949370E-03
1812.759, 3.7108380E-03
1814.687, 3.4341009E-03
1816.616, 3.7259900E-03
1818.544, 3.9961892E-03
1820.473, 3.6370000E-03
1822.401, 3.2212441E-03
1824.329, 3.1366509E-03
1826.258, 3.3121549E-03
1828.186, 3.1328830E-03
1830.115, 3.2690370E-03
1832.043, 3.8770619E-03
1833.972, 4.1224421E-03
1835.900, 3.4236580E-03
1837.829, 3.1788740E-03
1839.757, 3.5435050E-03
1841.686, 3.3593150E-03
1843.614, 3.6223580E-03
1845.543, 3.4302170E-03
1847.471, 3.7955500E-03
1849.400, 3.8580659E-03
1851.328, 3.3365560E-03
1853.256, 3.0748090E-03
1855.185, 3.2641320E-03
1857.113, 2.6471489E-03
1859.042, 2.5401481E-03
1860.970, 2.7309090E-03
1862.899, 2.6288291E-03
1864.827, 3.0548070E-03
1866.756, 3.4586501E-03
1868.684, 3.5469809E-03
1870.613, 3.5283549E-03
1872.541, 3.7817270E-03
1874.470, 3.4227939E-03
1876.398, 2.8289731E-03
1878.327, 2.7413911E-03
1880.255, 2.9266309E-03
1882.183, 3.3549049E-03
1884.112, 3.4825311E-03
1886.040, 3.4580431E-03
1887.969, 2.8760480E-03
1889.897, 2.1379341E-03
1891.826, 2.4463020E-03
1893.754, 3.3301669E-03
1895.683, 2.8334029E-03
1897.611, 2.1018400E-03
1899.540, 2.0549491E-03
1901.468, 1.4992640E-03
1903.397, 1.4130929E-03
1905.325, 2.1374740E-03
1907.254, 2.3074909E-03
1909.182, 1.7701010E-03
1911.110, 9.5761323E-04
1913.039, -8.8419758E-05
1914.967, 8.0078520E-05
1916.896, 1.5515160E-03
1918.824, 2.5873301E-03
1920.753, 1.5221210E-03
1922.681, 6.5757951E-04
1924.610, 1.6167950E-03
1926.538, 1.7911830E-03
1928.467, 3.6647069E-04
1930.395, -9.0335711E-04
1932.324, -5.2113528E-04
1934.252, 1.7844440E-04
1936.181, 3.1646449E-04
1938.109, 2.0102441E-04
1940.037, 5.2437698E-04
1941.966, 4.5942099E-04
1943.894, -1.1470480E-04
1945.823, 2.6470301E-04
1947.751, 4.5155591E-04
1949.680, -5.8947061E-04
1951.608, -1.9780460E-03
1953.537, -2.7242540E-03
1955.465, -2.4994460E-03
1957.394, -2.0570881E-03
1959.322, -3.2485030E-03
1961.251, -4.1968478E-03
1963.179, -3.1493320E-03
1965.108, -3.9243121E-03
1967.036, -5.1977020E-03
1968.964, -4.0464960E-03
1970.893, -3.0574040E-03
1972.821, -2.4121280E-03
1974.750, -2.9327211E-03
1976.678, -4.0667159E-03
1978.607, -3.3909080E-03
1980.535, 5.5978351E-05
1982.464, 4.8655001E-04
1984.392, -2.5341250E-03
1986.321, -3.1551120E-03
1988.249, -1.9180350E-03
1990.178, -2.2879060E-04
1992.106, 1.5009700E-03
1994.035, -5.6820381E-06
1995.963, -8.9222169E-04
1997.891, -3.2179599E-04
1999.820, -5.0179049E-04
2001.748, -2.6855669E-03
2003.677, -2.6691579E-03
2005.605, -2.2789731E-03
2007.534, -4.0571722E-03
2009.462, -6.2943762E-03
2011.391, -4.7600912E-03
2013.319, -2.5903541E-03
2015.248, -2.7193869E-03
2017.176, -9.4303291E-04
2019.105, 2.3335351E-03
2021.033, 9.4954128E-04
2022.962, 1.5384480E-04
2024.890, -9.7144992E-05
2026.818, 8.6972213E-05
2028.747, 1.1454429E-03
2030.675, 1.8090480E-03
2032.604, -4.9211213E-04
2034.532, -1.7525459E-04
2036.461, -1.2421490E-04
2038.389, -2.1242190E-03
2040.318, -1.8974360E-03
2042.246, 9.5381762E-04
2044.175, 1.4285960E-03
2046.103, 7.9614198E-04
2048.032, -6.1995251E-04
2049.960, -3.0241179E-04
2051.889, 7.5865391E-04
2053.817, 3.1914940E-04
2055.746, 9.9230791E-04
2057.674, 5.0337141E-04
2059.603, -3.2832491E-04
2061.531, 1.1237180E-04
2063.459, 6.0774852E-04
2065.388, 2.0024411E-03
2067.316, 3.1584001E-03
2069.245, 3.2325611E-03
2071.173, 2.2872710E-03
2073.102, 1.4724110E-03
2075.030, 6.2271499E-04
2076.959, 8.8192121E-04
2078.887, 1.0326480E-03
2080.816, 1.4327270E-03
2082.744, 2.5413299E-03
2084.673, 2.2350091E-03
2086.601, 1.7740760E-03
2088.530, 2.3051191E-03
2090.458, 1.6603530E-03
2092.386, 1.7519040E-03
2094.315, 3.1263221E-03
2096.243, 3.4138840E-03
2098.172, 2.7832061E-03
2100.100, 3.0119361E-03
2102.029, 1.4711210E-03
2103.957, 5.0841598E-04
2105.886, 1.5946660E-03
2107.814, 2.9204211E-03
2109.743, 3.0062681E-03
2111.671, 1.6350040E-03
2113.600, 7.5077091E-04
2115.528, 2.5799971E-03
2117.457, 3.3609690E-03
2119.385, 3.0216980E-03
2121.313, 2.2205319E-03
2123.242, 4.7006839E-04
2125.170, -5.3971767E-04
2127.099, 2.9591980E-04
2129.027, 1.1428720E-04
2130.956, -1.2328270E-03
2132.884, -2.5167789E-03
2134.813, -2.1283049E-03
2136.741, -6.5090891E-04
2138.670, -1.5362380E-03
2140.598, -1.6914090E-03
2142.527, -1.3238840E-03
2144.455, -3.2346731E-03
2146.384, -4.5835981E-03
2148.312, -4.6976432E-03
2150.240, -2.3552750E-03
2152.169, 3.4477640E-04
2154.097, -1.8873630E-03
2156.026, -6.7826160E-03
2157.954, -4.6317158E-03
2159.883, 9.1090030E-04
2161.811, -7.6218700E-04
2163.740, -3.1948141E-03
2165.668, -1.9083860E-03
2167.597, -1.8202720E-03
2169.525, -3.1582220E-03
2171.454, -1.5296900E-03
2173.382, 1.3952730E-03
2175.311, 1.9395590E-03
2177.239, 2.5674361E-03
2179.167, 1.1270629E-03
2181.096, -5.9949438E-04
2183.024, -1.2040040E-03
2184.953, -6.5371620E-05
2186.881, 7.9058012E-04
2188.810, 2.7257339E-03
2190.738, 3.3463780E-03
2192.667, 2.6407770E-03
2194.595, 4.9695340E-03
2196.524, 6.0660751E-03
2198.452, 4.3873088E-03
2200.381, 2.2984729E-03
2202.309, 1.8902930E-03
2204.238, 3.8789380E-03
2206.166, 5.3650499E-03
2208.094, 4.4463901E-03
2210.023, 4.1371481E-03
2211.951, 6.2545128E-03
2213.880, 7.1475641E-03
2215.808, 6.0712341E-03
2217.737, 4.8279818E-03
2219.665, 5.3139371E-03
2221.594, 6.7459969E-03
2223.522, 6.6852299E-03
2225.451, 5.7670530E-03
2227.379, 5.6083570E-03
2229.308, 6.5124570E-03
2231.236, 4.1938620E-03
2233.165, 2.4157951E-03
2235.093, 4.8694881E-03
2237.021, 8.3633037E-03
2238.950, 9.0665771E-03
2240.878, 7.6855989E-03
2242.807, 6.8871952E-03
2244.735, 6.3443682E-03
2246.664, 7.2828070E-03
2248.592, 9.0646390E-03
2250.521, 8.7718526E-03
2252.449, 7.3902910E-03
2254.378, 7.0072850E-03
2256.306, 7.8997063E-03
2258.235, 9.1369664E-03
2260.163, 8.3918106E-03
2262.092, 6.6415812E-03
2264.020, 6.3930592E-03
2265.948, 6.7858002E-03
2267.877, 6.1518191E-03
2269.805, 8.5547501E-03
2271.734, 1.0733050E-02
2273.662, 1.0521480E-02
2275.591, 9.0855826E-03
2277.519, 8.7886872E-03
2279.448, 1.0482150E-02
2281.376, 1.0786410E-02
2283.305, 1.0157930E-02
2285.233, 1.1526370E-02
2287.162, 1.1932160E-02
2289.090, 1.0777640E-02
2291.019, 1.1000840E-02
2292.947, 1.1044900E-02
2294.875, 1.0880600E-02
2296.804, 1.1117880E-02
2298.732, 1.0993210E-02
2300.661, 9.5643420E-03
2302.589, 8.9083677E-03
2304.518, 9.5080668E-03
2306.446, 9.7519020E-03
2308.375, 1.0273180E-02
2310.303, 1.0327850E-02
2312.232, 9.9493628E-03
2314.160, 1.0166850E-02
2316.089, 1.0319830E-02
2318.017, 1.1194160E-02
2319.946, 1.1929340E-02
2321.874, 1.2024970E-02
2323.802, 1.1723240E-02
2325.731, 1.1199470E-02
2327.659, 1.0648590E-02
2329.588, 9.7443732E-03
2331.516, 9.8841134E-03
2333.445, 1.0669510E-02
2335.373, 1.0778510E-02
2337.302, 1.0375470E-02
2339.230, 9.4062416E-03
2341.159, 9.5912674E-03
2343.087, 9.5205642E-03
2345.016, 8.8625103E-03
2346.944, 9.2415307E-03
2348.873, 8.7493621E-03
2350.801, 8.5358871E-03
2352.729, 9.5131611E-03
2354.658, 1.0188260E-02
2356.586, 1.0570100E-02
2358.515, 1.0674210E-02
2360.443, 9.6120862E-03
2362.372, 8.7777777E-03
2364.300, 8.8421497E-03
2366.229, 8.3692949E-03
2368.157, 8.3593447E-03
2370.086, 9.1279047E-03
2372.014, 9.4036199E-03
2373.942, 9.2988675E-03
2375.871, 8.5919900E-03
2377.799, 8.6421818E-03
2379.728, 9.1149220E-03
2381.656, 9.1232648E-03
2383.585, 9.8192943E-03
2385.513, 1.0219510E-02
2387.442, 1.0364710E-02
2389.370, 1.0082770E-02
2391.299, 9.3300780E-03
2393.227, 8.6019831E-03
2395.156, 9.3988581E-03
2397.084, 8.7536015E-03
2399.012, 7.9378039E-03
2400.941, 7.3971469E-03
2402.869, 7.3434338E-03
2404.798, 8.8246800E-03
2406.726, 9.4292164E-03
2408.655, 9.1507630E-03
2410.583, 9.8201344E-03
2412.512, 9.2455735E-03
2414.440, 7.9341978E-03
2416.369, 8.0701020E-03
2418.297, 8.4328568E-03
2420.226, 8.1991963E-03
2422.154, 8.1319660E-03
2424.083, 8.6282576E-03
2426.011, 8.5398182E-03
2427.939, 8.2940841E-03
2429.868, 7.7779712E-03
2431.796, 7.9335095E-03
2433.725, 8.5947756E-03
2435.653, 8.4273219E-03
2437.582, 8.4103039E-03
2439.510, 7.7757770E-03
2441.439, 7.3765861E-03
2443.367, 7.9446677E-03
2445.296, 8.1257252E-03
2447.224, 7.2990260E-03
2449.153, 7.1220910E-03
2451.081, 7.1716048E-03
2453.010, 7.1873940E-03
2454.938, 7.5343451E-03
2456.866, 7.2043501E-03
2458.795, 6.8722111E-03
2460.723, 6.0478030E-03
2462.652, 5.8557792E-03
2464.580, 6.5276320E-03
2466.509, 6.3982280E-03
2468.437, 6.0749869E-03
2470.366, 5.9985700E-03
2472.294, 6.7916368E-03
2474.223, 6.7758970E-03
2476.151, 6.0058529E-03
2478.080, 6.4357598E-03
2480.008, 7.3433579E-03
2481.937, 6.1695781E-03
2483.865, 5.1493840E-03
2485.793, 5.6199110E-03
2487.722, 5.8424580E-03
2489.650, 6.1447821E-03
2491.579, 7.7961311E-03
2493.507, 7.6195188E-03
2495.436, 5.8512641E-03
2497.364, 5.4120268E-03
2499.293, 5.0907591E-03
2501.221, 5.2147619E-03
2503.150, 5.0186221E-03
2505.078, 4.4410159E-03
2507.007, 4.8209992E-03
2508.935, 5.8699618E-03
2510.864, 8.0902064E-03
2512.792, 8.1579052E-03
2514.720, 7.1916408E-03
2516.649, 6.3581858E-03
2518.577, 6.4651310E-03
2520.506, 6.7894482E-03
2522.434, 6.1620688E-03
2524.363, 5.9198490E-03
2526.291, 6.9416570E-03
2528.220, 7.2257770E-03
2530.148, 7.4792481E-03
2532.077, 7.9741431E-03
2534.005, 7.7217920E-03
2535.934, 7.2997580E-03
2537.862, 8.0996007E-03
2539.791, 7.9496130E-03
2541.719, 6.5173330E-03
2543.647, 5.3574168E-03
2545.576, 5.4135192E-03
2547.504, 5.0266529E-03
2549.433, 4.9000410E-03
2551.361, 6.7711729E-03
2553.290, 7.6356488E-03
2555.218, 8.0835233E-03
2557.147, 8.5450485E-03
2559.075, 8.1511596E-03
2561.004, 7.4014780E-03
2562.932, 7.3552481E-03
2564.861, 8.2256626E-03
2566.789, 7.2456961E-03
2568.718, 5.9872400E-03
2570.646, 7.5466512E-03
2572.574, 9.3243113E-03
2574.503, 7.8580007E-03
2576.431, 7.9402300E-03
2578.360, 8.1968363E-03
2580.288, 7.5388919E-03
2582.217, 8.0843037E-03
2584.145, 9.5441267E-03
2586.074, 9.0998011E-03
2588.002, 7.6649440E-03
2589.931, 8.3651980E-03
2591.859, 9.4864396E-03
2593.788, 9.2786644E-03
2595.716, 9.3689030E-03
2597.645, 9.4949426E-03
2599.573, 8.8842222E-03
2601.501, 9.0516377E-03
2603.430, 9.3102874E-03
2605.358, 9.8554790E-03
2607.287, 1.0600960E-02
2609.215, 1.0565780E-02
2611.144, 9.7513460E-03
2613.072, 9.6170828E-03
2615.001, 9.8794550E-03
2616.929, 1.0359510E-02
2618.858, 1.0966970E-02
2620.786, 1.0138900E-02
2622.715, 9.0152500E-03
2624.643, 8.3404696E-03
2626.572, 8.0725811E-03
2628.500, 9.1456650E-03
2630.428, 1.0112800E-02
2632.357, 1.1038030E-02
2634.285, 1.1078730E-02
2636.214, 1.0283540E-02
2638.142, 1.0850660E-02
2640.071, 1.2053770E-02
2641.999, 1.1848590E-02
2643.928, 1.0820950E-02
2645.856, 1.0573470E-02
2647.785, 1.0244500E-02
2649.713, 1.0118650E-02
2651.642, 9.8776855E-03
2653.570, 9.9848164E-03
2655.499, 1.0824610E-02
2657.427, 1.0905890E-02
2659.355, 1.0172100E-02
2661.284, 1.0291030E-02
2663.212, 1.0172870E-02
2665.141, 1.0109680E-02
2667.069, 1.0355850E-02
2668.998, 1.0855540E-02
2670.926, 1.0412430E-02
2672.855, 9.7196614E-03
2674.783, 9.3568228E-03
2676.712, 9.5068989E-03
2678.640, 9.3796197E-03
2680.569, 9.4832564E-03
2682.497, 1.0258460E-02
2684.426, 1.0606060E-02
2686.354, 9.7790724E-03
2688.282, 1.0043730E-02
2690.211, 1.0675520E-02
2692.139, 1.0464620E-02
2694.068, 9.5343441E-03
2695.996, 8.9694262E-03
2697.925, 9.5260926E-03
2699.853, 9.8720565E-03
2701.782, 9.7017251E-03
2703.710, 9.4160642E-03
2705.639, 1.0718020E-02
2707.567, 1.0668030E-02
2709.496, 1.0610650E-02
2711.424, 1.0735850E-02
2713.353, 1.1801420E-02
2715.281, 1.2387460E-02
2717.209, 1.1490990E-02
2719.138, 1.1290910E-02
2721.066, 1.1244350E-02
2722.995, 1.1861780E-02
2724.923, 1.2248480E-02
2726.852, 1.2430080E-02
2728.780, 1.1941290E-02
2730.709, 1.1320270E-02
2732.637, 1.1726540E-02
2734.566, 1.1334980E-02
2736.494, 1.1679090E-02
2738.423, 1.1978820E-02
2740.351, 1.0678650E-02
2742.280, 1.0197570E-02
2744.208, 1.0842880E-02
2746.136, 1.1481340E-02
2748.065, 1.1610220E-02
2749.993, 1.1714500E-02
2751.922, 1.1178060E-02
2753.850, 1.1946740E-02
2755.779, 1.2433920E-02
2757.707, 1.3142980E-02
2759.636, 1.2461590E-02
2761.564, 1.1782920E-02
2763.493, 1.2886690E-02
2765.421, 1.3325220E-02
2767.350, 1.2525270E-02
2769.278, 1.1883230E-02
2771.207, 1.2373960E-02
2773.135, 1.2808660E-02
2775.063, 1.3186460E-02
2776.992, 1.3088500E-02
2778.920, 1.3060890E-02
2780.849, 1.3467250E-02
2782.777, 1.3130440E-02
2784.706, 1.2482320E-02
2786.634, 1.3479160E-02
2788.563, 1.3660620E-02
2790.491, 1.3401990E-02
2792.420, 1.2721870E-02
2794.348, 1.2258430E-02
2796.277, 1.2123080E-02
2798.205, 1.1997640E-02
2800.134, 1.3148130E-02
2802.062, 1.3899150E-02
2803.990, 1.2740180E-02
2805.919, 1.2240670E-02
2807.847, 1.3410610E-02
2809.776, 1.4561090E-02
2811.704, 1.4032160E-02
2813.633, 1.3493140E-02
2815.561, 1.3538600E-02
2817.490, 1.3698800E-02
2819.418, 1.3548770E-02
2821.347, 1.3567530E-02
2823.275, 1.4764220E-02
2825.204, 1.5183910E-02
2827.132, 1.3305930E-02
2829.061, 1.2941620E-02
2830.989, 1.4045910E-02
2832.917, 1.4405440E-02
2834.846, 1.3279330E-02
2836.774, 1.3527150E-02
2838.703, 1.5019130E-02
2840.631, 1.4097230E-02
2842.560, 1.2138800E-02
2844.488, 1.1250780E-02
2846.417, 1.2021530E-02
2848.345, 1.3765050E-02
2850.274, 1.4816270E-02
2852.202, 1.5031000E-02
2854.131, 1.3933880E-02
2856.059, 1.4066820E-02
2857.988, 1.5291130E-02
2859.916, 1.6276211E-02
2861.844, 1.7276410E-02
2863.773, 1.7181169E-02
2865.701, 1.6190130E-02
2867.630, 1.5302170E-02
2869.558, 1.3733140E-02
2871.487, 1.3605220E-02
2873.415, 1.4268660E-02
2875.344, 1.4102700E-02
2877.272, 1.5515750E-02
2879.201, 1.6434940E-02
2881.129, 1.6092310E-02
2883.058, 1.4443030E-02
2884.986, 1.3967720E-02
2886.915, 1.5165890E-02
2888.843, 1.4916300E-02
2890.771, 1.5417260E-02
2892.700, 1.5980961E-02
2894.628, 1.4881870E-02
2896.557, 1.4567340E-02
2898.485, 1.5886260E-02
2900.414, 1.5962590E-02
2902.342, 1.3906910E-02
2904.271, 1.2271900E-02
2906.199, 1.3049480E-02
2908.128, 1.5793741E-02
2910.056, 1.7142650E-02
2911.985, 1.6828300E-02
2913.913, 1.6801670E-02
2915.842, 1.5078610E-02
2917.770, 1.4908850E-02
2919.698, 1.8552519E-02
2921.627, 1.8912220E-02
2923.555, 1.5495870E-02
2925.484, 1.4916110E-02
2927.412, 1.5293620E-02
2929.341, 1.5122230E-02
2931.269, 1.5334830E-02
2933.198, 1.6750060E-02
2935.126, 1.6436741E-02
2937.055, 1.5462430E-02
2938.983, 1.5246670E-02
2940.912, 1.4691840E-02
2942.840, 1.5037960E-02
2944.769, 1.4544170E-02
2946.697, 1.2643380E-02
2948.625, 1.4470710E-02
2950.554, 1.6452840E-02
2952.482, 1.5439450E-02
2954.411, 1.2374000E-02
2956.339, 1.4361640E-02
2958.268, 1.7430261E-02
2960.196, 1.6987640E-02
2962.125, 1.6852271E-02
2964.053, 1.8072240E-02
2965.982, 1.6532339E-02
2967.910, 1.6380491E-02
2969.839, 1.8093400E-02
2971.767, 1.8693330E-02
2973.696, 1.6025091E-02
2975.624, 1.6076310E-02
2977.552, 1.7633490E-02
2979.481, 1.8296029E-02
2981.409, 1.6643491E-02
2983.338, 1.7220359E-02
2985.266, 1.9541590E-02
2987.195, 1.9890560E-02
2989.123, 1.8666390E-02
2991.052, 1.7340319E-02
2992.980, 1.7898729E-02
2994.909, 1.7582171E-02
2996.837, 1.7405050E-02
2998.766, 1.8071530E-02
3000.694, 1.8115710E-02
3002.623, 1.8719390E-02
3004.551, 2.0550560E-02
3006.479, 2.1031130E-02
3008.408, 1.9815641E-02
3010.336, 1.8452110E-02
3012.265, 1.8692629E-02
3014.193, 1.7947881E-02
3016.122, 1.6779071E-02
3018.050, 1.6851719E-02
3019.979, 1.6976910E-02
3021.907, 1.8654160E-02
3023.836, 2.0699929E-02
3025.764, 2.1698089E-02
3027.693, 1.9518111E-02
3029.621, 1.8868631E-02
3031.550, 1.7353790E-02
3033.478, 1.7328721E-02
3035.406, 1.9660980E-02
3037.335, 1.9338811E-02
3039.263, 1.8180801E-02
3041.192, 1.8884251E-02
3043.120, 1.9853281E-02
3045.049, 1.9096440E-02
3046.977, 2.0068660E-02
3048.906, 1.9340649E-02
3050.834, 1.7133480E-02
3052.763, 1.7663389E-02
3054.691, 2.0360099E-02
3056.620, 2.0775860E-02
3058.548, 1.9179050E-02
3060.477, 1.8857190E-02
3062.405, 1.9347809E-02
3064.333, 1.8158469E-02
3066.262, 1.7895609E-02
3068.190, 1.8583231E-02
3070.119, 1.6983610E-02
3072.047, 1.5915440E-02
3073.976, 1.6968930E-02
3075.904, 1.8026110E-02
3077.833, 1.8992821E-02
3079.761, 1.9040311E-02
3081.690, 1.8528190E-02
3083.618, 1.8101791E-02
3085.547, 1.9087359E-02
3087.475, 1.9692460E-02
3089.404, 2.0294860E-02
3091.332, 2.1095550E-02
3093.260, 2.0967251E-02
3095.189, 1.9146770E-02
3097.117, 1.9705070E-02
3099.046, 2.0272059E-02
3100.974, 1.9731050E-02
3102.903, 2.0571331E-02
3104.831, 1.9341590E-02
3106.760, 1.8836699E-02
3108.688, 2.0103959E-02
3110.617, 2.0842399E-02
3112.545, 2.1156071E-02
3114.474, 2.0060901E-02
3116.402, 1.9992750E-02
3118.331, 1.9729881E-02
3120.259, 1.9296460E-02
3122.188, 1.8094830E-02
3124.116, 1.7743070E-02
3126.044, 2.1546271E-02
3127.973, 2.1089230E-02
3129.901, 2.0901250E-02
3131.830, 2.3849100E-02
3133.758, 2.2889320E-02
3135.687, 2.2177329E-02
3137.615, 2.1986829E-02
3139.544, 1.9843079E-02
3141.472, 1.8742260E-02
3143.401, 1.9835440E-02
3145.329, 2.1263810E-02
3147.258, 2.0638490E-02
3149.186, 1.9974399E-02
3151.115, 2.0226199E-02
3153.043, 1.9997280E-02
3154.971, 1.8943019E-02
3156.900, 1.9099271E-02
3158.828, 1.9908439E-02
3160.757, 2.0134510E-02
3162.685, 1.9787621E-02
3164.614, 1.9757351E-02
3166.542, 2.0357059E-02
3168.471, 2.1288870E-02
3170.399, 2.0723389E-02
3172.328, 2.0250030E-02
3174.256, 1.9633930E-02
3176.185, 2.0561540E-02
3178.113, 2.2308370E-02
3180.042, 2.1782730E-02
3181.970, 2.2040810E-02
3183.898, 2.1975920E-02
3185.827, 2.0885641E-02
3187.755, 2.0483149E-02
3189.684, 1.9995680E-02
3191.612, 2.2816529E-02
3193.541, 2.2965860E-02
3195.469, 2.1748910E-02
3197.398, 2.2620000E-02
3199.326, 2.2513719E-02
3201.255, 2.1991080E-02
3203.183, 2.0888010E-02
3205.112, 2.1565359E-02
3207.040, 2.4293041E-02
3208.969, 2.4483589E-02
3210.897, 2.2348849E-02
3212.825, 1.9974761E-02
3214.754, 1.9001110E-02
3216.682, 2.0570479E-02
3218.611, 2.1582110E-02
3220.539, 2.3279799E-02
3222.468, 2.4923820E-02
3224.396, 2.4414411E-02
3226.325, 2.2651451E-02
3228.253, 2.2059510E-02
3230.182, 2.1697519E-02
3232.110, 2.2713620E-02
3234.039, 2.4285160E-02
3235.967, 2.3144521E-02
3237.896, 2.2891780E-02
3239.824, 2.4667120E-02
3241.752, 2.4347780E-02
3243.681, 2.3202861E-02
3245.609, 2.3927670E-02
3247.538, 2.3452090E-02
3249.466, 2.1764411E-02
3251.395, 2.1779841E-02
3253.323, 2.2224581E-02
3255.252, 2.2827139E-02
3257.180, 2.1880630E-02
3259.109, 2.1670969E-02
3261.037, 2.4737580E-02
3262.966, 2.5218001E-02
3264.894, 2.4333060E-02
3266.823, 2.3815339E-02
3268.751, 2.3892950E-02
3270.679, 2.3223581E-02
3272.608, 2.2103870E-02
3274.536, 2.2221031E-02
3276.465, 2.3523569E-02
3278.393, 2.2807280E-02
3280.322, 2.2264160E-02
3282.250, 2.2529021E-02
3284.179, 2.1647960E-02
3286.107, 2.1222200E-02
3288.036, 2.2713849E-02
3289.964, 2.3100579E-02
3291.893, 2.2211971E-02
3293.821, 2.2960849E-02
3295.750, 2.3448991E-02
3297.678, 2.2981411E-02
3299.606, 2.2881869E-02
3301.535, 2.4525130E-02
3303.463, 2.5232639E-02
3305.392, 2.5257180E-02
3307.320, 2.3844700E-02
3309.249, 2.4054941E-02
3311.177, 2.6584931E-02
3313.106, 2.7006170E-02
3315.034, 2.4409330E-02
3316.963, 2.3009710E-02
3318.891, 2.2097411E-02
3320.820, 2.0528760E-02
3322.748, 2.0677600E-02
3324.677, 2.2318160E-02
3326.605, 2.4664830E-02
3328.533, 2.4808589E-02
3330.462, 2.3859071E-02
3332.390, 2.3770859E-02
3334.319, 2.3645241E-02
3336.247, 2.4995200E-02
3338.176, 2.5910631E-02
3340.104, 2.4948090E-02
3342.033, 2.3653690E-02
3343.961, 2.6039800E-02
3345.890, 2.6361279E-02
3347.818, 2.5696861E-02
3349.747, 2.5620390E-02
3351.675, 2.3584681E-02
3353.604, 2.2879260E-02
3355.532, 2.3620181E-02
3357.460, 2.3876971E-02
3359.389, 2.4313699E-02
3361.317, 2.6428740E-02
3363.246, 2.5716260E-02
3365.174, 2.5266260E-02
3367.103, 2.6351649E-02
3369.031, 2.4446931E-02
3370.960, 2.4645049E-02
3372.888, 2.5667720E-02
3374.817, 2.6231689E-02
3376.745, 2.6355579E-02
3378.674, 2.4835330E-02
3380.602, 2.4978360E-02
3382.531, 2.4572929E-02
3384.459, 2.3298141E-02
3386.387, 2.3374110E-02
3388.316, 2.3790359E-02
3390.244, 2.5089370E-02
3392.173, 2.6319910E-02
3394.101, 2.5513081E-02
3396.030, 2.4464360E-02
3397.958, 2.4846550E-02
3399.887, 2.4321500E-02
3401.815, 2.4422379E-02
3403.744, 2.6111210E-02
3405.672, 2.5049509E-02
3407.601, 2.3660609E-02
3409.529, 2.4841441E-02
3411.458, 2.5081830E-02
3413.386, 2.5232790E-02
3415.314, 2.5969621E-02
3417.243, 2.5874140E-02
3419.171, 2.4961920E-02
3421.100, 2.6262229E-02
3423.028, 2.5466509E-02
3424.957, 2.4607090E-02
3426.885, 2.5389180E-02
3428.814, 2.6384469E-02
3430.742, 2.7172660E-02
3432.671, 2.4775609E-02
3434.599, 2.4133829E-02
3436.528, 2.7360311E-02
3438.456, 2.8421881E-02
3440.385, 2.6003310E-02
3442.313, 2.4373520E-02
3444.241, 2.3565670E-02
3446.170, 2.5095390E-02
3448.098, 2.6587410E-02
3450.027, 2.6649870E-02
3451.955, 2.7004899E-02
3453.884, 2.7416440E-02
3455.812, 2.6371140E-02
3457.741, 2.4877580E-02
3459.669, 2.5452740E-02
3461.598, 2.5437411E-02
3463.526, 2.2590371E-02
3465.455, 2.2371130E-02
3467.383, 2.3083979E-02
3469.312, 2.3062849E-02
3471.240, 2.4083201E-02
3473.168, 2.3839351E-02
3475.097, 2.3343930E-02
3477.025, 2.4592720E-02
3478.954, 2.7388770E-02
3480.882, 2.8560990E-02
3482.811, 2.7943550E-02
3484.739, 2.9330580E-02
3486.668, 2.9382391E-02
3488.596, 2.7033459E-02
3490.525, 2.7783860E-02
3492.453, 2.5372770E-02
3494.382, 2.3230560E-02
3496.310, 2.5161790E-02
3498.239, 2.7051900E-02
3500.167, 2.8439861E-02
3502.095, 2.9701229E-02
3504.024, 2.9024210E-02
3505.952, 2.8324369E-02
3507.881, 3.0828880E-02
3509.809, 2.9584041E-02
3511.738, 2.7306840E-02
3513.666, 2.8500080E-02
3515.595, 2.9703120E-02
3517.523, 2.8905939E-02
3519.452, 2.8985251E-02
3521.380, 3.0961569E-02
3523.309, 3.1205010E-02
3525.237, 3.0206740E-02
3527.166, 2.9577579E-02
3529.094, 2.9283950E-02
3531.022, 3.0843159E-02
3532.951, 3.2355160E-02
3534.879, 3.4008071E-02
3536.808, 3.4038249E-02
3538.736, 3.2314859E-02
3540.665, 3.2251831E-02
3542.593, 3.4739599E-02
3544.522, 3.4777489E-02
3546.450, 3.4279190E-02
3548.379, 3.6384061E-02
3550.307, 3.7257072E-02
3552.236, 3.7906490E-02
3554.164, 3.6411669E-02
3556.093, 3.7383329E-02
3558.021, 3.8586490E-02
3559.949, 3.7568659E-02
3561.878, 3.6194671E-02
3563.806, 3.7665501E-02
3565.735, 4.1627321E-02
3567.663, 4.4579960E-02
3569.592, 4.4862151E-02
3571.520, 4.6624660E-02
3573.449, 4.8048768E-02
3575.377, 4.6503861E-02
3577.306, 4.4507351E-02
3579.234, 4.2752150E-02
3581.163, 4.4867840E-02
3583.091, 4.8084009E-02
3585.020, 4.7969490E-02
3586.948, 4.3085951E-02
3588.876, 3.8414981E-02
3590.805, 3.7935600E-02
3592.733, 3.9294720E-02
3594.662, 3.6710471E-02
3596.590, 3.7363019E-02
3598.519, 3.8378268E-02
3600.447, 3.7080541E-02
3602.376, 3.3776470E-02
3604.304, 2.8751429E-02
3606.233, 2.8201239E-02
3608.161, 2.9235359E-02
3610.090, 2.9023349E-02
3612.018, 2.5178600E-02
3613.947, 2.2060150E-02
3615.875, 2.3490280E-02
3617.803, 2.6624540E-02
3619.732, 2.5886631E-02
3621.660, 2.5784889E-02
3623.589, 2.6260041E-02
3625.517, 2.5756180E-02
3627.446, 2.3476999E-02
3629.374, 2.3043411E-02
3631.303, 2.4824901E-02
3633.231, 2.6349129E-02
3635.160, 2.6045689E-02
3637.088, 2.5302419E-02
3639.017, 2.1375900E-02
3640.945, 1.6817071E-02
3642.874, 1.7116221E-02
3644.802, 2.0929120E-02
3646.730, 2.0068429E-02
3648.659, 1.7970370E-02
3650.587, 1.8747360E-02
3652.516, 1.7774200E-02
3654.444, 1.4648750E-02
3656.373, 1.4143380E-02
3658.301, 1.8936129E-02
3660.230, 2.3201531E-02
3662.158, 2.3704121E-02
3664.087, 2.2170089E-02
3666.015, 2.0450380E-02
3667.944, 1.7962471E-02
3669.872, 1.6792390E-02
3671.801, 1.7517069E-02
3673.729, 1.7109860E-02
3675.657, 1.8789841E-02
3677.586, 1.7418770E-02
3679.514, 1.6902920E-02
3681.443, 1.4865070E-02
3683.371, 1.2054040E-02
3685.300, 1.4061620E-02
3687.228, 1.7853050E-02
3689.157, 1.9475291E-02
3691.085, 2.1266770E-02
3693.014, 2.1457190E-02
3694.942, 2.0081939E-02
3696.871, 1.9044790E-02
3698.799, 1.8703051E-02
3700.728, 1.8589240E-02
3702.656, 1.9410569E-02
3704.584, 1.9239429E-02
3706.513, 1.8461641E-02
3708.441, 1.7887680E-02
3710.370, 1.6361950E-02
3712.298, 1.7389700E-02
3714.227, 1.6999081E-02
3716.155, 1.5732940E-02
3718.084, 1.8439399E-02
3720.012, 1.9880859E-02
3721.941, 1.7005101E-02
3723.869, 1.5860301E-02
3725.798, 1.8676961E-02
3727.726, 2.1387139E-02
3729.655, 2.1177201E-02
3731.583, 1.9775100E-02
3733.511, 1.4578820E-02
3735.440, 1.1693900E-02
3737.368, 1.5089020E-02
3739.297, 1.3652560E-02
3741.225, 1.5065930E-02
3743.154, 1.9666441E-02
3745.082, 2.0183571E-02
3747.011, 1.8643141E-02
3748.939, 1.8812060E-02
3750.868, 2.0082630E-02
3752.796, 1.9888651E-02
3754.725, 2.0089680E-02
3756.653, 2.2848580E-02
3758.582, 2.2773171E-02
3760.510, 2.1986131E-02
3762.438, 2.2595800E-02
3764.367, 2.1991480E-02
3766.295, 2.0393290E-02
3768.224, 1.9960679E-02
3770.152, 1.9382870E-02
3772.081, 1.8249990E-02
3774.009, 1.8958740E-02
3775.938, 2.0804681E-02
3777.866, 1.9157941E-02
3779.795, 1.6721871E-02
3781.723, 1.5161480E-02
3783.652, 1.4931090E-02
3785.580, 1.5751150E-02
3787.509, 1.7983180E-02
3789.437, 1.9470580E-02
3791.365, 2.1521751E-02
3793.294, 1.8428890E-02
3795.222, 1.5139070E-02
3797.151, 1.9291000E-02
3799.079, 2.2859629E-02
3801.008, 2.0073790E-02
3802.936, 1.7123301E-02
3804.865, 1.5934870E-02
3806.793, 1.8285809E-02
3808.722, 1.9279430E-02
3810.650, 2.1231890E-02
3812.579, 2.1168800E-02
3814.507, 1.9564090E-02
3816.436, 1.7051199E-02
3818.364, 1.7115681E-02
3820.292, 1.9470170E-02
3822.221, 2.0057760E-02
3824.149, 1.9209210E-02
3826.078, 1.9702850E-02
3828.006, 1.8423099E-02
3829.935, 1.5707269E-02
3831.863, 1.6491430E-02
3833.792, 1.8225789E-02
3835.720, 1.9745430E-02
3837.649, 2.0244131E-02
3839.577, 2.2009009E-02
3841.506, 2.2651270E-02
3843.434, 1.9722510E-02
3845.363, 1.9900789E-02
3847.291, 2.2402029E-02
3849.219, 2.1770170E-02
3851.148, 2.0944349E-02
3853.076, 2.2358211E-02
3855.005, 1.8882930E-02
3856.933, 1.6518271E-02
3858.862, 2.0183651E-02
3860.790, 2.3717429E-02
3862.719, 2.4605731E-02
3864.647, 2.3271300E-02
3866.576, 2.0392310E-02
3868.504, 2.0916220E-02
3870.433, 2.2647129E-02
3872.361, 2.1780429E-02
3874.290, 1.9241219E-02
3876.218, 1.8297000E-02
3878.146, 1.6899319E-02
3880.075, 1.8504711E-02
3882.003, 2.1491479E-02
3883.932, 2.0700360E-02
3885.860, 2.1880619E-02
3887.789, 2.4327040E-02
3889.717, 2.3620389E-02
3891.646, 2.1237461E-02
3893.574, 2.0097550E-02
3895.503, 2.0295089E-02
3897.431, 2.2387490E-02
3899.360, 2.3934711E-02
3901.288, 2.1262851E-02
3903.217, 1.8926039E-02
3905.145, 1.9721171E-02
3907.073, 1.9132350E-02
3909.002, 2.0300919E-02
3910.930, 2.1120811E-02
3912.859, 2.1362539E-02
3914.787, 2.0965921E-02
3916.716, 2.1151790E-02
3918.644, 1.9951191E-02
3920.573, 1.8278530E-02
3922.501, 2.0554921E-02
3924.430, 2.1661701E-02
3926.358, 2.1437300E-02
3928.287, 2.1451909E-02
3930.215, 2.2171009E-02
3932.144, 2.3453699E-02
3934.072, 2.3589160E-02
3936.000, 2.2300890E-02
3937.929, 2.1963781E-02
3939.857, 2.3893220E-02
3941.786, 2.3519820E-02
3943.714, 2.1937679E-02
3945.643, 2.1230970E-02
3947.571, 1.7758019E-02
3949.500, 1.5496300E-02
3951.428, 1.6447689E-02
3953.357, 1.9799400E-02
3955.285, 2.2454901E-02
3957.214, 2.5782829E-02
3959.142, 2.7866030E-02
3961.071, 2.4783060E-02
3962.999, 2.3418890E-02
3964.927, 2.2282310E-02
3966.856, 2.0772450E-02
3968.784, 2.1279341E-02
3970.713, 2.1613520E-02
3972.641, 2.1550439E-02
3974.570, 1.9244861E-02
3976.498, 1.9192901E-02
3978.427, 2.1384690E-02
3980.355, 2.0160900E-02
3982.284, 2.0452769E-02
3984.212, 2.3752220E-02
3986.141, 2.5950121E-02
3988.069, 2.3157731E-02
3989.998, 2.2035390E-02
3991.926, 2.1402080E-02
3993.854, 1.9514740E-02
3995.783, 2.2362771E-02
3997.711, 2.3185261E-02
3999.640, 2.3196450E-02
##END=



