##NAMES=Gaudefroyite
##RRUFFID=R050675
##IDEAL CHEMISTRY=Ca_4_Mn^3+^_3_(BO_3_)_3_(CO_3_)O_3_
##LOCALITY=Wessels mine, Cape Province, South Africa
##OWNER=RRUFF
##SOURCE=University of Arizona Mineral Museum
##DESCRIPTION=Black hexagonal stubby dipyramidal crystals
##STATUS=The identification of this mineral has been confirmed by X-ray diffraction and chemical analysis
##URL=rruff.info/R050675
##MEASURED CHEMISTRY=Ca_4.00_(Mn^3+^_2.98_[box]_0.02_)_Σ=3_(BO_3_)_3_(CO_3_)(O_2.94_(OH)_0.06_)_Σ=3_ ; B, C, H not measured but estimated by charge balance.
3.991926e+002, 1.313999e-001
4.011211e+002, 1.631758e-001
4.030495e+002, 1.746234e-001
4.049780e+002, 1.605595e-001
4.069065e+002, 1.704773e-001
4.088349e+002, 1.809579e-001
4.107634e+002, 1.686730e-001
4.126919e+002, 1.511683e-001
4.146203e+002, 1.470187e-001
4.165488e+002, 1.377907e-001
4.184773e+002, 1.264272e-001
4.204057e+002, 1.229767e-001
4.223342e+002, 1.121049e-001
4.242627e+002, 9.904940e-002
4.261911e+002, 9.982605e-002
4.281196e+002, 1.018534e-001
4.300481e+002, 1.048710e-001
4.319765e+002, 1.119851e-001
4.339050e+002, 1.219337e-001
4.358335e+002, 1.388274e-001
4.377619e+002, 1.528598e-001
4.396904e+002, 1.656383e-001
4.416189e+002, 1.790588e-001
4.435473e+002, 1.917483e-001
4.454758e+002, 2.086526e-001
4.474043e+002, 2.256595e-001
4.493327e+002, 2.361320e-001
4.512612e+002, 2.496638e-001
4.531897e+002, 2.678025e-001
4.551181e+002, 2.743927e-001
4.570466e+002, 2.750648e-001
4.589751e+002, 2.793826e-001
4.609035e+002, 2.770079e-001
4.628320e+002, 2.717658e-001
4.647605e+002, 2.684398e-001
4.666889e+002, 2.623629e-001
4.686174e+002, 2.475639e-001
4.705459e+002, 2.323832e-001
4.724743e+002, 2.213652e-001
4.744028e+002, 2.077778e-001
4.763313e+002, 1.953539e-001
4.782597e+002, 1.859945e-001
4.801882e+002, 1.737515e-001
4.821167e+002, 1.611047e-001
4.840451e+002, 1.529848e-001
4.859736e+002, 1.443588e-001
4.879021e+002, 1.336302e-001
4.898305e+002, 1.237181e-001
4.917590e+002, 1.143125e-001
4.936875e+002, 1.052073e-001
4.956159e+002, 9.730210e-002
4.975444e+002, 8.953336e-002
4.994729e+002, 8.086711e-002
5.014013e+002, 7.341615e-002
5.033298e+002, 6.873614e-002
5.052583e+002, 6.453028e-002
5.071867e+002, 6.166862e-002
5.091152e+002, 6.167377e-002
5.110437e+002, 6.285408e-002
5.129721e+002, 6.300151e-002
5.149006e+002, 6.372296e-002
5.168290e+002, 6.528953e-002
5.187575e+002, 6.684861e-002
5.206860e+002, 6.963760e-002
5.226144e+002, 7.342571e-002
5.245429e+002, 7.505291e-002
5.264714e+002, 7.668600e-002
5.283998e+002, 8.140118e-002
5.303283e+002, 8.516301e-002
5.322568e+002, 8.678423e-002
5.341852e+002, 9.072314e-002
5.361137e+002, 9.613539e-002
5.380422e+002, 1.006260e-001
5.399706e+002, 1.039471e-001
5.418991e+002, 1.092062e-001
5.438276e+002, 1.143433e-001
5.457560e+002, 1.183623e-001
5.476845e+002, 1.224265e-001
5.496130e+002, 1.262864e-001
5.515414e+002, 1.312339e-001
5.534699e+002, 1.367474e-001
5.553984e+002, 1.424648e-001
5.573268e+002, 1.492740e-001
5.592553e+002, 1.580501e-001
5.611838e+002, 1.655373e-001
5.631122e+002, 1.732863e-001
5.650407e+002, 1.802326e-001
5.669692e+002, 1.862787e-001
5.688976e+002, 1.916652e-001
5.708261e+002, 1.960332e-001
5.727546e+002, 1.999246e-001
5.746830e+002, 2.044251e-001
5.766115e+002, 2.087725e-001
5.785400e+002, 2.101432e-001
5.804684e+002, 2.127348e-001
5.823969e+002, 2.165022e-001
5.843254e+002, 2.175401e-001
5.862538e+002, 2.183164e-001
5.881823e+002, 2.197793e-001
5.901108e+002, 2.190872e-001
5.920392e+002, 2.187926e-001
5.939677e+002, 2.186162e-001
5.958962e+002, 2.166824e-001
5.978246e+002, 2.151200e-001
5.997531e+002, 2.149233e-001
6.016816e+002, 2.140598e-001
6.036100e+002, 2.139869e-001
6.055385e+002, 2.142529e-001
6.074670e+002, 2.140593e-001
6.093954e+002, 2.124577e-001
6.113239e+002, 2.122811e-001
6.132524e+002, 2.121665e-001
6.151808e+002, 2.091095e-001
6.171093e+002, 2.028021e-001
6.190378e+002, 1.933896e-001
6.209662e+002, 1.790138e-001
6.228947e+002, 1.603186e-001
6.248232e+002, 1.422527e-001
6.267516e+002, 1.261292e-001
6.286801e+002, 1.108808e-001
6.306086e+002, 9.797027e-002
6.325370e+002, 8.933735e-002
6.344655e+002, 8.259740e-002
6.363940e+002, 7.655659e-002
6.383224e+002, 7.288913e-002
6.402509e+002, 7.000585e-002
6.421794e+002, 6.727013e-002
6.441078e+002, 6.538111e-002
6.460363e+002, 6.499889e-002
6.479648e+002, 6.539425e-002
6.498932e+002, 6.743158e-002
6.518217e+002, 7.215057e-002
6.537502e+002, 7.887273e-002
6.556786e+002, 8.675800e-002
6.576071e+002, 9.330561e-002
6.595356e+002, 9.435485e-002
6.614641e+002, 8.751021e-002
6.633925e+002, 7.525665e-002
6.653210e+002, 6.252345e-002
6.672495e+002, 5.118844e-002
6.691779e+002, 4.142258e-002
6.711064e+002, 3.433971e-002
6.730349e+002, 2.951327e-002
6.749633e+002, 2.585103e-002
6.768918e+002, 2.355280e-002
6.788203e+002, 2.219350e-002
6.807487e+002, 2.170693e-002
6.826772e+002, 2.087273e-002
6.846057e+002, 1.986288e-002
6.865341e+002, 1.970791e-002
6.884626e+002, 1.938312e-002
6.903911e+002, 1.947634e-002
6.923195e+002, 2.099583e-002
6.942480e+002, 2.316310e-002
6.961765e+002, 2.559472e-002
6.981049e+002, 2.948411e-002
7.000334e+002, 3.632645e-002
7.019619e+002, 4.543955e-002
7.038903e+002, 5.386629e-002
7.058188e+002, 6.001698e-002
7.077473e+002, 6.877581e-002
7.096757e+002, 8.002508e-002
7.116042e+002, 9.436149e-002
7.135327e+002, 1.112269e-001
7.154611e+002, 1.284055e-001
7.173896e+002, 1.470430e-001
7.193181e+002, 1.728693e-001
7.212465e+002, 1.949366e-001
7.231750e+002, 1.799617e-001
7.251035e+002, 1.464688e-001
7.270319e+002, 1.199783e-001
7.289604e+002, 1.024209e-001
7.308889e+002, 9.537309e-002
7.328173e+002, 9.099746e-002
7.347458e+002, 7.445900e-002
7.366743e+002, 5.213836e-002
7.386027e+002, 3.489465e-002
7.405312e+002, 2.455604e-002
7.424597e+002, 2.012235e-002
7.443881e+002, 2.032053e-002
7.463166e+002, 2.315970e-002
7.482451e+002, 2.954416e-002
7.501735e+002, 3.550807e-002
7.521020e+002, 2.868532e-002
7.540305e+002, 1.877894e-002
7.559589e+002, 1.630724e-002
7.578874e+002, 2.005528e-002
7.598159e+002, 3.219318e-002
7.617443e+002, 4.629600e-002
7.636728e+002, 4.337999e-002
7.656013e+002, 3.606922e-002
7.675297e+002, 3.197709e-002
7.694582e+002, 2.145898e-002
7.713867e+002, 1.185057e-002
7.733151e+002, 8.283846e-003
7.752436e+002, 7.096068e-003
7.771721e+002, 7.205175e-003
7.791005e+002, 7.403273e-003
7.810290e+002, 7.657756e-003
7.829575e+002, 8.062118e-003
7.848859e+002, 8.295378e-003
7.868144e+002, 8.767981e-003
7.887429e+002, 9.469412e-003
7.906713e+002, 1.091363e-002
7.925998e+002, 1.464613e-002
7.945283e+002, 1.625019e-002
7.964567e+002, 1.246706e-002
7.983852e+002, 9.744738e-003
8.003137e+002, 9.419570e-003
8.022421e+002, 9.857161e-003
8.041706e+002, 1.009288e-002
8.060991e+002, 9.933924e-003
8.080275e+002, 1.021234e-002
8.099560e+002, 1.078769e-002
8.118845e+002, 1.094613e-002
8.138129e+002, 1.086693e-002
8.157414e+002, 1.125870e-002
8.176699e+002, 1.166506e-002
8.195983e+002, 1.169987e-002
8.215268e+002, 1.181312e-002
8.234553e+002, 1.258085e-002
8.253837e+002, 1.304702e-002
8.273122e+002, 1.340022e-002
8.292407e+002, 1.384644e-002
8.311691e+002, 1.469570e-002
8.330976e+002, 1.522912e-002
8.350261e+002, 1.564560e-002
8.369545e+002, 1.630374e-002
8.388830e+002, 1.724880e-002
8.408115e+002, 1.836852e-002
8.427399e+002, 2.133135e-002
8.446684e+002, 2.424894e-002
8.465969e+002, 2.418139e-002
8.485253e+002, 2.578713e-002
8.504538e+002, 3.344302e-002
8.523823e+002, 5.300643e-002
8.543107e+002, 7.470968e-002
8.562392e+002, 6.850808e-002
8.581677e+002, 4.714239e-002
8.600961e+002, 3.276846e-002
8.620246e+002, 2.597463e-002
8.639531e+002, 2.231062e-002
8.658815e+002, 2.031278e-002
8.678100e+002, 2.019948e-002
8.697385e+002, 1.932983e-002
8.716669e+002, 1.900946e-002
8.735954e+002, 1.903940e-002
8.755239e+002, 1.989306e-002
8.774523e+002, 2.101811e-002
8.793808e+002, 2.108767e-002
8.813093e+002, 2.063623e-002
8.832377e+002, 2.025663e-002
8.851662e+002, 1.980350e-002
8.870947e+002, 2.017175e-002
8.890231e+002, 2.093651e-002
8.909516e+002, 2.149082e-002
8.928801e+002, 2.188454e-002
8.948085e+002, 2.241041e-002
8.967370e+002, 2.346583e-002
8.986655e+002, 2.433750e-002
9.005939e+002, 2.466483e-002
9.025224e+002, 2.571901e-002
9.044509e+002, 2.702587e-002
9.063793e+002, 2.834930e-002
9.083078e+002, 3.037808e-002
9.102363e+002, 3.282259e-002
9.121647e+002, 3.471920e-002
9.140932e+002, 3.588847e-002
9.160217e+002, 3.606343e-002
9.179501e+002, 3.641326e-002
9.198786e+002, 3.725598e-002
9.218071e+002, 3.891378e-002
9.237355e+002, 4.169703e-002
9.256640e+002, 4.558018e-002
9.275925e+002, 5.015561e-002
9.295209e+002, 5.576079e-002
9.314494e+002, 6.320014e-002
9.333779e+002, 7.205542e-002
9.353063e+002, 7.905718e-002
9.372348e+002, 7.749257e-002
9.391633e+002, 6.640956e-002
9.410917e+002, 5.250172e-002
9.430202e+002, 4.156763e-002
9.449487e+002, 3.560407e-002
9.468771e+002, 3.307389e-002
9.488056e+002, 3.207989e-002
9.507341e+002, 3.168546e-002
9.526625e+002, 3.135228e-002
9.545910e+002, 3.094227e-002
9.565195e+002, 3.092136e-002
9.584479e+002, 3.133982e-002
9.603764e+002, 3.214641e-002
9.623049e+002, 3.259025e-002
9.642333e+002, 3.268744e-002
9.661618e+002, 3.294565e-002
9.680903e+002, 3.334460e-002
9.700187e+002, 3.411778e-002
9.719472e+002, 3.483417e-002
9.738757e+002, 3.538103e-002
9.758041e+002, 3.604769e-002
9.777326e+002, 3.698812e-002
9.796611e+002, 3.797631e-002
9.815895e+002, 3.834213e-002
9.835180e+002, 3.857479e-002
9.854465e+002, 3.954285e-002
9.873749e+002, 4.049745e-002
9.893034e+002, 4.094107e-002
9.912319e+002, 4.141018e-002
9.931603e+002, 4.246334e-002
9.950888e+002, 4.333168e-002
9.970173e+002, 4.429163e-002
9.989457e+002, 4.519259e-002
1.000874e+003, 4.595759e-002
1.002803e+003, 4.678378e-002
1.004731e+003, 4.775028e-002
1.006660e+003, 4.857779e-002
1.008588e+003, 4.907247e-002
1.010517e+003, 4.986979e-002
1.012445e+003, 5.065200e-002
1.014373e+003, 5.119202e-002
1.016302e+003, 5.208755e-002
1.018230e+003, 5.333477e-002
1.020159e+003, 5.434746e-002
1.022087e+003, 5.505088e-002
1.024016e+003, 5.585024e-002
1.025944e+003, 5.672225e-002
1.027873e+003, 5.841767e-002
1.029801e+003, 6.044223e-002
1.031730e+003, 6.135775e-002
1.033658e+003, 6.189873e-002
1.035587e+003, 6.310235e-002
1.037515e+003, 6.464884e-002
1.039443e+003, 6.610963e-002
1.041372e+003, 6.731216e-002
1.043300e+003, 6.853355e-002
1.045229e+003, 6.975996e-002
1.047157e+003, 7.117169e-002
1.049086e+003, 7.267410e-002
1.051014e+003, 7.450603e-002
1.052943e+003, 7.601449e-002
1.054871e+003, 7.767992e-002
1.056800e+003, 7.960420e-002
1.058728e+003, 8.133491e-002
1.060657e+003, 8.325455e-002
1.062585e+003, 8.546263e-002
1.064514e+003, 8.745904e-002
1.066442e+003, 8.953457e-002
1.068370e+003, 9.169583e-002
1.070299e+003, 9.396008e-002
1.072227e+003, 9.645341e-002
1.074156e+003, 9.932315e-002
1.076084e+003, 1.024851e-001
1.078013e+003, 1.040399e-001
1.079941e+003, 1.059213e-001
1.081870e+003, 1.088883e-001
1.083798e+003, 1.127910e-001
1.085727e+003, 1.169711e-001
1.087655e+003, 1.211778e-001
1.089584e+003, 1.258070e-001
1.091512e+003, 1.307916e-001
1.093441e+003, 1.373967e-001
1.095369e+003, 1.445057e-001
1.097297e+003, 1.515980e-001
1.099226e+003, 1.591968e-001
1.101154e+003, 1.662755e-001
1.103083e+003, 1.719328e-001
1.105011e+003, 1.757742e-001
1.106940e+003, 1.775083e-001
1.108868e+003, 1.765686e-001
1.110797e+003, 1.736984e-001
1.112725e+003, 1.697206e-001
1.114654e+003, 1.649164e-001
1.116582e+003, 1.601148e-001
1.118511e+003, 1.556304e-001
1.120439e+003, 1.521162e-001
1.122368e+003, 1.491117e-001
1.124296e+003, 1.469205e-001
1.126224e+003, 1.471827e-001
1.128153e+003, 1.504342e-001
1.130081e+003, 1.550897e-001
1.132010e+003, 1.604946e-001
1.133938e+003, 1.661710e-001
1.135867e+003, 1.704571e-001
1.137795e+003, 1.720573e-001
1.139724e+003, 1.711605e-001
1.141652e+003, 1.688554e-001
1.143581e+003, 1.667619e-001
1.145509e+003, 1.667354e-001
1.147438e+003, 1.691751e-001
1.149366e+003, 1.732509e-001
1.151295e+003, 1.778709e-001
1.153223e+003, 1.820986e-001
1.155151e+003, 1.866868e-001
1.157080e+003, 1.922945e-001
1.159008e+003, 1.992493e-001
1.160937e+003, 2.079597e-001
1.162865e+003, 2.184082e-001
1.164794e+003, 2.294432e-001
1.166722e+003, 2.407342e-001
1.168651e+003, 2.518550e-001
1.170579e+003, 2.629551e-001
1.172508e+003, 2.732360e-001
1.174436e+003, 2.821465e-001
1.176365e+003, 2.898925e-001
1.178293e+003, 2.962646e-001
1.180222e+003, 3.009824e-001
1.182150e+003, 3.052604e-001
1.184078e+003, 3.086687e-001
1.186007e+003, 3.120737e-001
1.187935e+003, 3.153850e-001
1.189864e+003, 3.184904e-001
1.191792e+003, 3.207846e-001
1.193721e+003, 3.226718e-001
1.195649e+003, 3.240391e-001
1.197578e+003, 3.250783e-001
1.199506e+003, 3.255899e-001
1.201435e+003, 3.260326e-001
1.203363e+003, 3.263249e-001
1.205292e+003, 3.264985e-001
1.207220e+003, 3.269598e-001
1.209149e+003, 3.271143e-001
1.211077e+003, 3.269283e-001
1.213005e+003, 3.258847e-001
1.214934e+003, 3.230963e-001
1.216862e+003, 3.187793e-001
1.218791e+003, 3.127003e-001
1.220719e+003, 3.051582e-001
1.222648e+003, 2.965337e-001
1.224576e+003, 2.870830e-001
1.226505e+003, 2.775735e-001
1.228433e+003, 2.681141e-001
1.230362e+003, 2.589207e-001
1.232290e+003, 2.505728e-001
1.234219e+003, 2.424443e-001
1.236147e+003, 2.343452e-001
1.238076e+003, 2.263616e-001
1.240004e+003, 2.190932e-001
1.241932e+003, 2.119351e-001
1.243861e+003, 2.042718e-001
1.245789e+003, 1.958160e-001
1.247718e+003, 1.871293e-001
1.249646e+003, 1.785717e-001
1.251575e+003, 1.700629e-001
1.253503e+003, 1.614588e-001
1.255432e+003, 1.529664e-001
1.257360e+003, 1.445606e-001
1.259289e+003, 1.357186e-001
1.261217e+003, 1.259969e-001
1.263146e+003, 1.158245e-001
1.265074e+003, 1.061894e-001
1.267003e+003, 9.704520e-002
1.268931e+003, 8.888438e-002
1.270859e+003, 8.218236e-002
1.272788e+003, 7.702804e-002
1.274716e+003, 7.288231e-002
1.276645e+003, 6.905782e-002
1.278573e+003, 6.601222e-002
1.280502e+003, 6.332266e-002
1.282430e+003, 6.105559e-002
1.284359e+003, 5.920494e-002
1.286287e+003, 5.767823e-002
1.288216e+003, 5.636333e-002
1.290144e+003, 5.483678e-002
1.292073e+003, 5.310562e-002
1.294001e+003, 5.142183e-002
1.295930e+003, 4.935126e-002
1.297858e+003, 4.712017e-002
1.299786e+003, 4.481130e-002
1.301715e+003, 4.224884e-002
1.303643e+003, 3.948733e-002
1.305572e+003, 3.663103e-002
1.307500e+003, 3.420720e-002
1.309429e+003, 3.164549e-002
1.311357e+003, 2.915747e-002
1.313286e+003, 2.722384e-002
1.315214e+003, 2.526076e-002
1.317143e+003, 2.362383e-002
1.319071e+003, 2.234815e-002
1.321000e+003, 2.134592e-002
1.322928e+003, 2.057792e-002
1.324857e+003, 2.029843e-002
1.326785e+003, 2.014607e-002
1.328714e+003, 1.933606e-002
1.330642e+003, 1.794436e-002
1.332570e+003, 1.654462e-002
1.334499e+003, 1.509856e-002
1.336427e+003, 1.355311e-002
1.338356e+003, 1.232951e-002
1.340284e+003, 1.158131e-002
1.342213e+003, 1.119340e-002
1.344141e+003, 1.061794e-002
1.346070e+003, 1.003576e-002
1.347998e+003, 9.766766e-003
1.349927e+003, 9.705381e-003
1.351855e+003, 9.643336e-003
1.353784e+003, 9.614550e-003
1.355712e+003, 9.597380e-003
1.357641e+003, 9.692882e-003
1.359569e+003, 9.946846e-003
1.361497e+003, 9.823566e-003
1.363426e+003, 1.002018e-002
1.365354e+003, 1.018308e-002
1.367283e+003, 1.043741e-002
1.369211e+003, 1.081136e-002
1.371140e+003, 1.123853e-002
1.373068e+003, 1.164377e-002
1.374997e+003, 1.191988e-002
1.376925e+003, 1.236280e-002
1.378854e+003, 1.294092e-002
1.380782e+003, 1.310251e-002
1.382711e+003, 1.325105e-002
1.384639e+003, 1.370565e-002
1.386568e+003, 1.444711e-002
1.388496e+003, 1.507225e-002
1.390424e+003, 1.570236e-002
1.392353e+003, 1.644964e-002
1.394281e+003, 1.709140e-002
1.396210e+003, 1.761429e-002
1.398138e+003, 1.830637e-002
1.400067e+003, 1.892581e-002
1.401995e+003, 1.978519e-002
1.403924e+003, 2.092030e-002
1.405852e+003, 2.136713e-002
1.407781e+003, 2.184828e-002
1.409709e+003, 2.292410e-002
1.411638e+003, 2.365441e-002
1.413566e+003, 2.407341e-002
1.415495e+003, 2.479669e-002
1.417423e+003, 2.573453e-002
1.419351e+003, 2.723905e-002
1.421280e+003, 2.913150e-002
1.423208e+003, 3.076852e-002
1.425137e+003, 3.234293e-002
1.427065e+003, 3.376163e-002
1.428994e+003, 3.519288e-002
1.430922e+003, 3.651068e-002
1.432851e+003, 3.778427e-002
1.434779e+003, 3.907238e-002
1.436708e+003, 4.053542e-002
1.438636e+003, 4.249721e-002
1.440565e+003, 4.475307e-002
1.442493e+003, 4.672908e-002
1.444422e+003, 4.900362e-002
1.446350e+003, 5.113310e-002
1.448278e+003, 5.389766e-002
1.450207e+003, 5.745406e-002
1.452135e+003, 6.114517e-002
1.454064e+003, 6.474117e-002
1.455992e+003, 6.867175e-002
1.457921e+003, 7.329499e-002
1.459849e+003, 7.818529e-002
1.461778e+003, 8.363019e-002
1.463706e+003, 8.997373e-002
1.465635e+003, 9.673885e-002
1.467563e+003, 1.048301e-001
1.469492e+003, 1.146362e-001
1.471420e+003, 1.259038e-001
1.473349e+003, 1.386434e-001
1.475277e+003, 1.526518e-001
1.477205e+003, 1.678730e-001
1.479134e+003, 1.847206e-001
1.481062e+003, 2.019685e-001
1.482991e+003, 2.194242e-001
1.484919e+003, 2.359284e-001
1.486848e+003, 2.504323e-001
1.488776e+003, 2.615324e-001
1.490705e+003, 2.663449e-001
1.492633e+003, 2.623459e-001
1.494562e+003, 2.476736e-001
1.496490e+003, 2.248910e-001
1.498419e+003, 1.991848e-001
1.500347e+003, 1.738929e-001
1.502276e+003, 1.508256e-001
1.504204e+003, 1.294462e-001
1.506132e+003, 1.089011e-001
1.508061e+003, 8.933037e-002
1.509989e+003, 7.070628e-002
1.511918e+003, 5.315529e-002
1.513846e+003, 3.741899e-002
1.515775e+003, 2.625091e-002
1.517703e+003, 2.047766e-002
1.519632e+003, 1.740245e-002
1.521560e+003, 1.491344e-002
1.523489e+003, 1.298226e-002
1.525417e+003, 1.180975e-002
1.527346e+003, 1.093644e-002
1.529274e+003, 1.028436e-002
1.531203e+003, 9.491324e-003
1.533131e+003, 8.936029e-003
1.535059e+003, 8.468594e-003
1.536988e+003, 8.312040e-003
1.538916e+003, 8.585108e-003
1.540845e+003, 8.425488e-003
1.542773e+003, 7.969008e-003
1.544702e+003, 7.786579e-003
1.546630e+003, 7.447790e-003
1.548559e+003, 7.247713e-003
1.550487e+003, 7.380085e-003
1.552416e+003, 7.539522e-003
1.554344e+003, 7.408544e-003
1.556273e+003, 7.429050e-003
1.558201e+003, 7.609598e-003
1.560130e+003, 7.687085e-003
1.562058e+003, 7.692766e-003
1.563986e+003, 7.945185e-003
1.565915e+003, 8.557741e-003
1.567843e+003, 8.721750e-003
1.569772e+003, 8.448890e-003
1.571700e+003, 8.517956e-003
1.573629e+003, 8.507448e-003
1.575557e+003, 8.448157e-003
1.577486e+003, 8.616899e-003
1.579414e+003, 8.865156e-003
1.581343e+003, 8.740910e-003
1.583271e+003, 8.280555e-003
1.585200e+003, 7.955068e-003
1.587128e+003, 7.760705e-003
1.589057e+003, 7.718060e-003
1.590985e+003, 7.744592e-003
1.592913e+003, 7.760811e-003
1.594842e+003, 7.744983e-003
1.596770e+003, 7.483733e-003
1.598699e+003, 7.343716e-003
1.600627e+003, 7.661266e-003
1.602556e+003, 7.840546e-003
1.604484e+003, 7.678275e-003
1.606413e+003, 7.404702e-003
1.608341e+003, 7.042598e-003
1.610270e+003, 6.759905e-003
1.612198e+003, 7.153814e-003
1.614127e+003, 7.618115e-003
1.616055e+003, 7.477126e-003
1.617984e+003, 7.335703e-003
1.619912e+003, 7.443871e-003
1.621840e+003, 7.435462e-003
1.623769e+003, 7.272832e-003
1.625697e+003, 7.373671e-003
1.627626e+003, 7.039122e-003
1.629554e+003, 6.779532e-003
1.631483e+003, 7.071418e-003
1.633411e+003, 7.192284e-003
1.635340e+003, 7.569638e-003
1.637268e+003, 8.085765e-003
1.639197e+003, 8.074359e-003
1.641125e+003, 7.586690e-003
1.643054e+003, 7.268070e-003
1.644982e+003, 7.298681e-003
1.646911e+003, 7.551005e-003
1.648839e+003, 8.174185e-003
1.650767e+003, 8.368663e-003
1.652696e+003, 8.095106e-003
1.654624e+003, 8.050161e-003
1.656553e+003, 8.730099e-003
1.658481e+003, 9.119824e-003
1.660410e+003, 8.802384e-003
1.662338e+003, 8.593741e-003
1.664267e+003, 8.382536e-003
1.666195e+003, 7.814749e-003
1.668124e+003, 7.887100e-003
1.670052e+003, 8.147326e-003
1.671981e+003, 8.480296e-003
1.673909e+003, 9.020331e-003
1.675838e+003, 8.928747e-003
1.677766e+003, 8.721261e-003
1.679694e+003, 8.751225e-003
1.681623e+003, 8.480609e-003
1.683551e+003, 8.492367e-003
1.685480e+003, 8.637930e-003
1.687408e+003, 8.848397e-003
1.689337e+003, 9.262115e-003
1.691265e+003, 9.123336e-003
1.693194e+003, 9.425880e-003
1.695122e+003, 9.596269e-003
1.697051e+003, 9.365453e-003
1.698979e+003, 9.500000e-003
1.700908e+003, 9.466941e-003
1.702836e+003, 9.213232e-003
1.704765e+003, 9.218175e-003
1.706693e+003, 9.295196e-003
1.708621e+003, 9.297217e-003
1.710550e+003, 9.340423e-003
1.712478e+003, 9.181985e-003
1.714407e+003, 9.276296e-003
1.716335e+003, 9.186832e-003
1.718264e+003, 9.169719e-003
1.720192e+003, 9.476887e-003
1.722121e+003, 9.892318e-003
1.724049e+003, 9.382552e-003
1.725978e+003, 9.312152e-003
1.727906e+003, 1.019937e-002
1.729835e+003, 1.062850e-002
1.731763e+003, 1.022377e-002
1.733692e+003, 1.002788e-002
1.735620e+003, 9.924700e-003
1.737548e+003, 9.577519e-003
1.739477e+003, 9.474042e-003
1.741405e+003, 1.018185e-002
1.743334e+003, 1.031392e-002
1.745262e+003, 1.006117e-002
1.747191e+003, 1.019086e-002
1.749119e+003, 1.042611e-002
1.751048e+003, 1.051914e-002
1.752976e+003, 1.066377e-002
1.754905e+003, 1.052403e-002
1.756833e+003, 1.033755e-002
1.758762e+003, 1.085967e-002
1.760690e+003, 1.072596e-002
1.762619e+003, 1.030802e-002
1.764547e+003, 1.050474e-002
1.766475e+003, 1.170575e-002
1.768404e+003, 1.270869e-002
1.770332e+003, 1.346819e-002
1.772261e+003, 1.458688e-002
1.774189e+003, 1.573392e-002
1.776118e+003, 1.596818e-002
1.778046e+003, 1.510428e-002
1.779975e+003, 1.378677e-002
1.781903e+003, 1.237777e-002
1.783832e+003, 1.164266e-002
1.785760e+003, 1.166804e-002
1.787689e+003, 1.168701e-002
1.789617e+003, 1.170769e-002
1.791546e+003, 1.167414e-002
1.793474e+003, 1.117154e-002
1.795402e+003, 1.145021e-002
1.797331e+003, 1.170924e-002
1.799259e+003, 1.151111e-002
1.801188e+003, 1.082138e-002
1.803116e+003, 1.075646e-002
1.805045e+003, 1.097439e-002
1.806973e+003, 1.161472e-002
1.808902e+003, 1.173680e-002
1.810830e+003, 1.173129e-002
1.812759e+003, 1.181018e-002
1.814687e+003, 1.131807e-002
1.816616e+003, 1.116781e-002
1.818544e+003, 1.150688e-002
1.820473e+003, 1.166164e-002
1.822401e+003, 1.178829e-002
1.824329e+003, 1.096660e-002
1.826258e+003, 1.120278e-002
1.828186e+003, 1.217164e-002
1.830115e+003, 1.242441e-002
1.832043e+003, 1.232542e-002
1.833972e+003, 1.212482e-002
1.835900e+003, 1.210391e-002
1.837829e+003, 1.205362e-002
1.839757e+003, 1.197630e-002
1.841686e+003, 1.212508e-002
1.843614e+003, 1.262521e-002
1.845543e+003, 1.258338e-002
1.847471e+003, 1.232054e-002
1.849400e+003, 1.271544e-002
1.851328e+003, 1.252917e-002
1.853256e+003, 1.200178e-002
1.855185e+003, 1.232598e-002
1.857113e+003, 1.244465e-002
1.859042e+003, 1.258100e-002
1.860970e+003, 1.270886e-002
1.862899e+003, 1.160279e-002
1.864827e+003, 1.127658e-002
1.866756e+003, 1.260204e-002
1.868684e+003, 1.414983e-002
1.870613e+003, 1.450275e-002
1.872541e+003, 1.306147e-002
1.874470e+003, 1.227408e-002
1.876398e+003, 1.257192e-002
1.878327e+003, 1.250091e-002
1.880255e+003, 1.384499e-002
1.882183e+003, 1.535612e-002
1.884112e+003, 1.449633e-002
1.886040e+003, 1.334585e-002
1.887969e+003, 1.322598e-002
1.889897e+003, 1.369724e-002
1.891826e+003, 1.360637e-002
1.893754e+003, 1.317947e-002
1.895683e+003, 1.260596e-002
1.897611e+003, 1.093587e-002
1.899540e+003, 1.171538e-002
1.901468e+003, 1.289877e-002
1.903397e+003, 1.276370e-002
1.905325e+003, 1.369069e-002
1.907254e+003, 1.468634e-002
1.909182e+003, 1.328054e-002
1.911110e+003, 1.221404e-002
1.913039e+003, 1.264022e-002
1.914967e+003, 1.311410e-002
1.916896e+003, 1.286989e-002
1.918824e+003, 1.325336e-002
1.920753e+003, 1.406266e-002
1.922681e+003, 1.450230e-002
1.924610e+003, 1.361624e-002
1.926538e+003, 1.301755e-002
1.928467e+003, 1.318655e-002
1.930395e+003, 1.449839e-002
1.932324e+003, 1.456193e-002
1.934252e+003, 1.260893e-002
1.936181e+003, 1.220839e-002
1.938109e+003, 1.401042e-002
1.940037e+003, 1.408168e-002
1.941966e+003, 1.333998e-002
1.943894e+003, 1.497150e-002
1.945823e+003, 1.560367e-002
1.947751e+003, 1.381591e-002
1.949680e+003, 1.150321e-002
1.951608e+003, 1.084022e-002
1.953537e+003, 1.081651e-002
1.955465e+003, 1.065645e-002
1.957394e+003, 1.178845e-002
1.959322e+003, 1.441662e-002
1.961251e+003, 1.288079e-002
1.963179e+003, 9.086874e-003
1.965108e+003, 7.581089e-003
1.967036e+003, 9.711841e-003
1.968964e+003, 1.243060e-002
1.970893e+003, 9.613587e-003
1.972821e+003, 9.251758e-003
1.974750e+003, 1.233017e-002
1.976678e+003, 1.468529e-002
1.978607e+003, 1.659411e-002
1.980535e+003, 1.806062e-002
1.982464e+003, 1.906003e-002
1.984392e+003, 1.973040e-002
1.986321e+003, 1.568978e-002
1.988249e+003, 1.383107e-002
1.990178e+003, 1.689737e-002
1.992106e+003, 1.736558e-002
1.994035e+003, 1.715990e-002
1.995963e+003, 1.617842e-002
1.997891e+003, 1.355226e-002
1.999820e+003, 1.386908e-002
2.001748e+003, 1.615659e-002
2.003677e+003, 1.467445e-002
2.005605e+003, 1.446686e-002
2.007534e+003, 1.712640e-002
2.009462e+003, 1.611270e-002
2.011391e+003, 1.470891e-002
2.013319e+003, 1.715018e-002
2.015248e+003, 1.803076e-002
2.017176e+003, 1.689789e-002
2.019105e+003, 1.838002e-002
2.021033e+003, 1.825268e-002
2.022962e+003, 1.658816e-002
2.024890e+003, 1.707100e-002
2.026818e+003, 1.811194e-002
2.028747e+003, 1.493339e-002
2.030675e+003, 1.515018e-002
2.032604e+003, 1.990986e-002
2.034532e+003, 2.003549e-002
2.036461e+003, 1.741482e-002
2.038389e+003, 1.641731e-002
2.040318e+003, 1.543376e-002
2.042246e+003, 1.460133e-002
2.044175e+003, 1.651752e-002
2.046103e+003, 1.688784e-002
2.048031e+003, 1.366212e-002
2.049960e+003, 1.465959e-002
2.051888e+003, 1.718279e-002
2.053817e+003, 1.752597e-002
2.055745e+003, 1.684171e-002
2.057674e+003, 1.828425e-002
2.059602e+003, 2.013774e-002
2.061531e+003, 2.023317e-002
2.063459e+003, 1.866950e-002
2.065388e+003, 1.828225e-002
2.067316e+003, 1.861264e-002
2.069245e+003, 1.773125e-002
2.071173e+003, 1.712666e-002
2.073102e+003, 1.773151e-002
2.075030e+003, 1.831210e-002
2.076958e+003, 1.809064e-002
2.078887e+003, 1.896735e-002
2.080815e+003, 2.072855e-002
2.082744e+003, 2.195821e-002
2.084672e+003, 2.140463e-002
2.086601e+003, 1.921623e-002
2.088529e+003, 1.946580e-002
2.090458e+003, 1.938690e-002
2.092386e+003, 1.823776e-002
2.094315e+003, 1.678559e-002
2.096243e+003, 1.742004e-002
2.098172e+003, 1.848624e-002
2.100100e+003, 2.072453e-002
2.102029e+003, 2.211571e-002
2.103957e+003, 2.066397e-002
2.105885e+003, 2.010540e-002
2.107814e+003, 2.202855e-002
2.109742e+003, 2.280161e-002
2.111671e+003, 2.157653e-002
2.113599e+003, 1.997261e-002
2.115528e+003, 1.954049e-002
2.117456e+003, 1.949580e-002
2.119385e+003, 2.007688e-002
2.121313e+003, 2.048969e-002
2.123242e+003, 2.001246e-002
2.125170e+003, 1.891176e-002
2.127099e+003, 1.884166e-002
2.129027e+003, 1.942813e-002
2.130956e+003, 1.931717e-002
2.132884e+003, 1.899029e-002
2.134813e+003, 1.751859e-002
2.136741e+003, 1.734410e-002
2.138669e+003, 1.690046e-002
2.140598e+003, 1.686789e-002
2.142526e+003, 1.813180e-002
2.144455e+003, 1.896386e-002
2.146383e+003, 1.534248e-002
2.148312e+003, 1.170803e-002
2.150240e+003, 1.063864e-002
2.152169e+003, 1.097245e-002
2.154097e+003, 9.696193e-003
2.156026e+003, 4.549265e-003
2.157954e+003, 4.182805e-003
2.159883e+003, 1.249085e-002
2.161811e+003, 1.804495e-002
2.163740e+003, 2.064382e-002
2.165668e+003, 1.939557e-002
2.167596e+003, 1.779267e-002
2.169525e+003, 1.649131e-002
2.171453e+003, 1.389120e-002
2.173382e+003, 1.343907e-002
2.175310e+003, 1.410819e-002
2.177239e+003, 1.758044e-002
2.179167e+003, 1.855498e-002
2.181096e+003, 1.720320e-002
2.183024e+003, 2.018750e-002
2.184953e+003, 2.068238e-002
2.186881e+003, 1.849209e-002
2.188810e+003, 1.711989e-002
2.190738e+003, 1.866424e-002
2.192667e+003, 1.988318e-002
2.194595e+003, 2.014506e-002
2.196523e+003, 2.064130e-002
2.198452e+003, 1.871502e-002
2.200380e+003, 1.607183e-002
2.202309e+003, 1.762409e-002
2.204237e+003, 1.926611e-002
2.206166e+003, 2.001127e-002
2.208094e+003, 1.949229e-002
2.210023e+003, 1.777519e-002
2.211951e+003, 1.852258e-002
2.213880e+003, 1.842671e-002
2.215808e+003, 1.720818e-002
2.217737e+003, 1.843589e-002
2.219665e+003, 1.880133e-002
2.221594e+003, 1.699753e-002
2.223522e+003, 1.689089e-002
2.225450e+003, 1.849130e-002
2.227379e+003, 2.032200e-002
2.229307e+003, 2.046226e-002
2.231236e+003, 2.044659e-002
2.233164e+003, 2.018658e-002
2.235093e+003, 1.931971e-002
2.237021e+003, 1.825702e-002
2.238950e+003, 1.901748e-002
2.240878e+003, 1.929110e-002
2.242807e+003, 1.887543e-002
2.244735e+003, 1.980436e-002
2.246664e+003, 2.050373e-002
2.248592e+003, 1.928357e-002
2.250521e+003, 1.870667e-002
2.252449e+003, 1.912720e-002
2.254377e+003, 2.114031e-002
2.256306e+003, 2.126367e-002
2.258234e+003, 2.136038e-002
2.260163e+003, 2.199938e-002
2.262091e+003, 2.135366e-002
2.264020e+003, 2.155503e-002
2.265948e+003, 2.253485e-002
2.267877e+003, 2.300606e-002
2.269805e+003, 2.220969e-002
2.271734e+003, 2.115471e-002
2.273662e+003, 2.254929e-002
2.275591e+003, 2.430554e-002
2.277519e+003, 2.461304e-002
2.279448e+003, 2.371358e-002
2.281376e+003, 2.348228e-002
2.283304e+003, 2.307753e-002
2.285233e+003, 2.297505e-002
2.287161e+003, 2.294930e-002
2.289090e+003, 2.286573e-002
2.291018e+003, 2.343377e-002
2.292947e+003, 2.436175e-002
2.294875e+003, 2.401412e-002
2.296804e+003, 2.304519e-002
2.298732e+003, 2.285310e-002
2.300661e+003, 2.342268e-002
2.302589e+003, 2.428775e-002
2.304518e+003, 2.392700e-002
2.306446e+003, 2.347547e-002
2.308375e+003, 2.353190e-002
2.310303e+003, 2.374382e-002
2.312231e+003, 2.465615e-002
2.314160e+003, 2.391655e-002
2.316088e+003, 2.424310e-002
2.318017e+003, 2.530034e-002
2.319945e+003, 2.522570e-002
2.321874e+003, 2.489751e-002
2.323802e+003, 2.523013e-002
2.325731e+003, 2.449513e-002
2.327659e+003, 2.382096e-002
2.329588e+003, 2.445122e-002
2.331516e+003, 2.426167e-002
2.333445e+003, 2.319645e-002
2.335373e+003, 2.314334e-002
2.337302e+003, 2.349678e-002
2.339230e+003, 2.363865e-002
2.341158e+003, 2.347864e-002
2.343087e+003, 2.290212e-002
2.345015e+003, 2.286431e-002
2.346944e+003, 2.318306e-002
2.348872e+003, 2.378732e-002
2.350801e+003, 2.376419e-002
2.352729e+003, 2.414441e-002
2.354658e+003, 2.434036e-002
2.356586e+003, 2.377041e-002
2.358515e+003, 2.291186e-002
2.360443e+003, 2.245346e-002
2.362372e+003, 2.248885e-002
2.364300e+003, 2.310169e-002
2.366229e+003, 2.310266e-002
2.368157e+003, 2.195057e-002
2.370085e+003, 2.174473e-002
2.372014e+003, 2.276872e-002
2.373942e+003, 2.313525e-002
2.375871e+003, 2.281935e-002
2.377799e+003, 2.280058e-002
2.379728e+003, 2.258952e-002
2.381656e+003, 2.284377e-002
2.383585e+003, 2.317753e-002
2.385513e+003, 2.231608e-002
2.387442e+003, 2.202419e-002
2.389370e+003, 2.301198e-002
2.391299e+003, 2.309163e-002
2.393227e+003, 2.329189e-002
2.395156e+003, 2.333931e-002
2.397084e+003, 2.312858e-002
2.399012e+003, 2.314857e-002
2.400941e+003, 2.372825e-002
2.402869e+003, 2.450963e-002
2.404798e+003, 2.350310e-002
2.406726e+003, 2.221627e-002
2.408655e+003, 2.250664e-002
2.410583e+003, 2.371087e-002
2.412512e+003, 2.371275e-002
2.414440e+003, 2.276670e-002
2.416369e+003, 2.351744e-002
2.418297e+003, 2.347147e-002
2.420226e+003, 2.350807e-002
2.422154e+003, 2.456001e-002
2.424083e+003, 2.486424e-002
2.426011e+003, 2.410110e-002
2.427939e+003, 2.400338e-002
2.429868e+003, 2.435485e-002
2.431796e+003, 2.374011e-002
2.433725e+003, 2.289152e-002
2.435653e+003, 2.233302e-002
2.437582e+003, 2.149628e-002
2.439510e+003, 2.121505e-002
2.441439e+003, 2.142661e-002
2.443367e+003, 2.190362e-002
2.445296e+003, 2.133976e-002
2.447224e+003, 2.223441e-002
2.449153e+003, 2.287593e-002
2.451081e+003, 2.338031e-002
2.453010e+003, 2.332203e-002
2.454938e+003, 2.336298e-002
2.456866e+003, 2.404905e-002
2.458795e+003, 2.457484e-002
2.460723e+003, 2.415952e-002
2.462652e+003, 2.353481e-002
2.464580e+003, 2.384587e-002
2.466509e+003, 2.456421e-002
2.468437e+003, 2.519584e-002
2.470366e+003, 2.527427e-002
2.472294e+003, 2.583141e-002
2.474223e+003, 2.591210e-002
2.476151e+003, 2.529449e-002
2.478080e+003, 2.451487e-002
2.480008e+003, 2.521182e-002
2.481937e+003, 2.547079e-002
2.483865e+003, 2.416602e-002
2.485793e+003, 2.485715e-002
2.487722e+003, 2.678988e-002
2.489650e+003, 2.693403e-002
2.491579e+003, 2.645675e-002
2.493507e+003, 2.628378e-002
2.495436e+003, 2.703689e-002
2.497364e+003, 2.746924e-002
2.499293e+003, 2.591629e-002
2.501221e+003, 2.500294e-002
2.503150e+003, 2.538196e-002
2.505078e+003, 2.520739e-002
2.507007e+003, 2.541044e-002
2.508935e+003, 2.680871e-002
2.510864e+003, 2.650517e-002
2.512792e+003, 2.627843e-002
2.514720e+003, 2.544726e-002
2.516649e+003, 2.571049e-002
2.518577e+003, 2.625558e-002
2.520506e+003, 2.780122e-002
2.522434e+003, 2.796747e-002
2.524363e+003, 2.692915e-002
2.526291e+003, 2.773041e-002
2.528220e+003, 2.825764e-002
2.530148e+003, 2.751759e-002
2.532077e+003, 2.799864e-002
2.534005e+003, 2.800394e-002
2.535934e+003, 2.740201e-002
2.537862e+003, 2.639908e-002
2.539791e+003, 2.662810e-002
2.541719e+003, 2.706726e-002
2.543647e+003, 2.676066e-002
2.545576e+003, 2.622519e-002
2.547504e+003, 2.646152e-002
2.549433e+003, 2.674364e-002
2.551361e+003, 2.705533e-002
2.553290e+003, 2.756128e-002
2.555218e+003, 2.822283e-002
2.557147e+003, 2.844039e-002
2.559075e+003, 2.803244e-002
2.561004e+003, 2.780001e-002
2.562932e+003, 2.704682e-002
2.564861e+003, 2.670378e-002
2.566789e+003, 2.764980e-002
2.568718e+003, 2.841751e-002
2.570646e+003, 2.864034e-002
2.572574e+003, 2.906900e-002
2.574503e+003, 2.954143e-002
2.576431e+003, 2.861853e-002
2.578360e+003, 2.746289e-002
2.580288e+003, 2.686274e-002
2.582217e+003, 2.799168e-002
2.584145e+003, 2.995788e-002
2.586074e+003, 3.018690e-002
2.588002e+003, 2.936558e-002
2.589931e+003, 2.956577e-002
2.591859e+003, 2.986580e-002
2.593788e+003, 3.003056e-002
2.595716e+003, 2.859188e-002
2.597645e+003, 2.814719e-002
2.599573e+003, 2.912630e-002
2.601501e+003, 2.902506e-002
2.603430e+003, 2.886011e-002
2.605358e+003, 2.895676e-002
2.607287e+003, 2.821553e-002
2.609215e+003, 2.867080e-002
2.611144e+003, 3.036622e-002
2.613072e+003, 2.999528e-002
2.615001e+003, 2.915371e-002
2.616929e+003, 2.902923e-002
2.618858e+003, 3.006401e-002
2.620786e+003, 3.095806e-002
2.622715e+003, 3.007037e-002
2.624643e+003, 2.908161e-002
2.626572e+003, 2.991883e-002
2.628500e+003, 3.050750e-002
2.630428e+003, 3.075917e-002
2.632357e+003, 3.131219e-002
2.634285e+003, 3.174445e-002
2.636214e+003, 3.186657e-002
2.638142e+003, 3.212035e-002
2.640071e+003, 3.197157e-002
2.641999e+003, 3.060655e-002
2.643928e+003, 3.035721e-002
2.645856e+003, 3.067266e-002
2.647785e+003, 3.125381e-002
2.649713e+003, 3.263673e-002
2.651642e+003, 3.277844e-002
2.653570e+003, 3.132517e-002
2.655499e+003, 3.063435e-002
2.657427e+003, 3.162407e-002
2.659355e+003, 3.213779e-002
2.661284e+003, 3.184190e-002
2.663212e+003, 3.125059e-002
2.665141e+003, 3.065201e-002
2.667069e+003, 3.040090e-002
2.668998e+003, 3.054927e-002
2.670926e+003, 3.074072e-002
2.672855e+003, 3.102458e-002
2.674783e+003, 3.113863e-002
2.676712e+003, 3.116619e-002
2.678640e+003, 3.106311e-002
2.680569e+003, 3.099371e-002
2.682497e+003, 3.131124e-002
2.684426e+003, 3.125883e-002
2.686354e+003, 3.156274e-002
2.688282e+003, 3.158421e-002
2.690211e+003, 3.164277e-002
2.692139e+003, 3.147465e-002
2.694068e+003, 3.119783e-002
2.695996e+003, 3.120860e-002
2.697925e+003, 3.133660e-002
2.699853e+003, 3.178265e-002
2.701782e+003, 3.237090e-002
2.703710e+003, 3.216095e-002
2.705639e+003, 3.193513e-002
2.707567e+003, 3.244215e-002
2.709496e+003, 3.291164e-002
2.711424e+003, 3.298173e-002
2.713353e+003, 3.231436e-002
2.715281e+003, 3.234112e-002
2.717209e+003, 3.258480e-002
2.719138e+003, 3.264368e-002
2.721066e+003, 3.255107e-002
2.722995e+003, 3.282819e-002
2.724923e+003, 3.307629e-002
2.726852e+003, 3.242582e-002
2.728780e+003, 3.153258e-002
2.730709e+003, 3.122263e-002
2.732637e+003, 3.296669e-002
2.734566e+003, 3.326872e-002
2.736494e+003, 3.240937e-002
2.738423e+003, 3.246969e-002
2.740351e+003, 3.233310e-002
2.742280e+003, 3.216895e-002
2.744208e+003, 3.197617e-002
2.746136e+003, 3.129282e-002
2.748065e+003, 3.133124e-002
2.749993e+003, 3.294853e-002
2.751922e+003, 3.454626e-002
2.753850e+003, 3.377362e-002
2.755779e+003, 3.247253e-002
2.757707e+003, 3.251028e-002
2.759636e+003, 3.350461e-002
2.761564e+003, 3.337908e-002
2.763493e+003, 3.234217e-002
2.765421e+003, 3.207578e-002
2.767350e+003, 3.265994e-002
2.769278e+003, 3.389884e-002
2.771207e+003, 3.454907e-002
2.773135e+003, 3.449879e-002
2.775063e+003, 3.419941e-002
2.776992e+003, 3.344058e-002
2.778920e+003, 3.345538e-002
2.780849e+003, 3.358697e-002
2.782777e+003, 3.335867e-002
2.784706e+003, 3.379741e-002
2.786634e+003, 3.352565e-002
2.788563e+003, 3.293432e-002
2.790491e+003, 3.324804e-002
2.792420e+003, 3.344639e-002
2.794348e+003, 3.284082e-002
2.796277e+003, 3.323499e-002
2.798205e+003, 3.399976e-002
2.800134e+003, 3.355834e-002
2.802062e+003, 3.319478e-002
2.803990e+003, 3.344451e-002
2.805919e+003, 3.285789e-002
2.807847e+003, 3.224801e-002
2.809776e+003, 3.212773e-002
2.811704e+003, 3.334970e-002
2.813633e+003, 3.401284e-002
2.815561e+003, 3.327494e-002
2.817490e+003, 3.342523e-002
2.819418e+003, 3.303219e-002
2.821347e+003, 3.235409e-002
2.823275e+003, 3.253057e-002
2.825204e+003, 3.273621e-002
2.827132e+003, 3.348610e-002
2.829061e+003, 3.427413e-002
2.830989e+003, 3.437409e-002
2.832917e+003, 3.491471e-002
2.834846e+003, 3.447472e-002
2.836774e+003, 3.465933e-002
2.838703e+003, 3.581809e-002
2.840631e+003, 3.606520e-002
2.842560e+003, 3.549505e-002
2.844488e+003, 3.507729e-002
2.846417e+003, 3.458663e-002
2.848345e+003, 3.490291e-002
2.850274e+003, 3.509656e-002
2.852202e+003, 3.390289e-002
2.854131e+003, 3.265451e-002
2.856059e+003, 3.323205e-002
2.857988e+003, 3.420594e-002
2.859916e+003, 3.495006e-002
2.861844e+003, 3.510608e-002
2.863773e+003, 3.462667e-002
2.865701e+003, 3.427191e-002
2.867630e+003, 3.413481e-002
2.869558e+003, 3.415816e-002
2.871487e+003, 3.481817e-002
2.873415e+003, 3.542911e-002
2.875344e+003, 3.528471e-002
2.877272e+003, 3.593106e-002
2.879201e+003, 3.586943e-002
2.881129e+003, 3.573009e-002
2.883058e+003, 3.580080e-002
2.884986e+003, 3.443259e-002
2.886915e+003, 3.413109e-002
2.888843e+003, 3.465514e-002
2.890771e+003, 3.448687e-002
2.892700e+003, 3.507657e-002
2.894628e+003, 3.650113e-002
2.896557e+003, 3.606986e-002
2.898485e+003, 3.581203e-002
2.900414e+003, 3.598636e-002
2.902342e+003, 3.589649e-002
2.904271e+003, 3.602342e-002
2.906199e+003, 3.660362e-002
2.908128e+003, 3.813149e-002
2.910056e+003, 3.899023e-002
2.911985e+003, 3.770572e-002
2.913913e+003, 3.700386e-002
2.915842e+003, 3.861704e-002
2.917770e+003, 4.006230e-002
2.919698e+003, 3.905297e-002
2.921627e+003, 3.686191e-002
2.923555e+003, 3.749830e-002
2.925484e+003, 3.740972e-002
2.927412e+003, 3.610836e-002
2.929341e+003, 3.558705e-002
2.931269e+003, 3.648023e-002
2.933198e+003, 3.694136e-002
2.935126e+003, 3.673431e-002
2.937055e+003, 3.630309e-002
2.938983e+003, 3.719268e-002
2.940912e+003, 3.730587e-002
2.942840e+003, 3.539873e-002
2.944769e+003, 3.459672e-002
2.946697e+003, 3.442970e-002
2.948625e+003, 3.244983e-002
2.950554e+003, 3.344055e-002
2.952482e+003, 3.438123e-002
2.954411e+003, 3.377308e-002
2.956339e+003, 3.323860e-002
2.958268e+003, 3.358684e-002
2.960196e+003, 3.459337e-002
2.962125e+003, 3.413356e-002
2.964053e+003, 3.356119e-002
2.965982e+003, 3.355256e-002
2.967910e+003, 3.385329e-002
2.969839e+003, 3.319377e-002
2.971767e+003, 3.249163e-002
2.973696e+003, 3.272088e-002
2.975624e+003, 3.287973e-002
2.977552e+003, 3.230652e-002
2.979481e+003, 3.186212e-002
2.981409e+003, 3.218582e-002
2.983338e+003, 3.181300e-002
2.985266e+003, 3.217311e-002
2.987195e+003, 3.202517e-002
2.989123e+003, 3.165780e-002
2.991052e+003, 3.283511e-002
2.992980e+003, 3.324945e-002
2.994909e+003, 3.386035e-002
2.996837e+003, 3.403483e-002
2.998766e+003, 3.371673e-002
3.000694e+003, 3.460108e-002
3.002623e+003, 3.427038e-002
3.004551e+003, 3.446901e-002
3.006479e+003, 3.440430e-002
3.008408e+003, 3.461674e-002
3.010336e+003, 3.455791e-002
3.012265e+003, 3.457442e-002
3.014193e+003, 3.468310e-002
3.016122e+003, 3.479827e-002
3.018050e+003, 3.467080e-002
3.019979e+003, 3.560926e-002
3.021907e+003, 3.587153e-002
3.023836e+003, 3.648024e-002
3.025764e+003, 3.731056e-002
3.027693e+003, 3.690733e-002
3.029621e+003, 3.749342e-002
3.031550e+003, 3.744473e-002
3.033478e+003, 3.790139e-002
3.035406e+003, 3.905155e-002
3.037335e+003, 3.873400e-002
3.039263e+003, 3.845477e-002
3.041192e+003, 3.813312e-002
3.043120e+003, 3.768610e-002
3.045049e+003, 3.881450e-002
3.046977e+003, 3.883617e-002
3.048906e+003, 3.789933e-002
3.050834e+003, 3.901712e-002
3.052763e+003, 3.884481e-002
3.054691e+003, 3.871417e-002
3.056620e+003, 3.862359e-002
3.058548e+003, 3.913414e-002
3.060477e+003, 3.974955e-002
3.062405e+003, 3.943736e-002
3.064333e+003, 4.057999e-002
3.066262e+003, 3.971551e-002
3.068190e+003, 3.843545e-002
3.070119e+003, 3.941525e-002
3.072047e+003, 4.036883e-002
3.073976e+003, 4.005627e-002
3.075904e+003, 4.012824e-002
3.077833e+003, 4.095696e-002
3.079761e+003, 4.020180e-002
3.081690e+003, 3.983371e-002
3.083618e+003, 4.070244e-002
3.085547e+003, 4.008148e-002
3.087475e+003, 3.807898e-002
3.089404e+003, 3.735462e-002
3.091332e+003, 3.851135e-002
3.093260e+003, 3.966168e-002
3.095189e+003, 4.171031e-002
3.097117e+003, 4.167522e-002
3.099046e+003, 3.986405e-002
3.100974e+003, 3.834252e-002
3.102903e+003, 3.811780e-002
3.104831e+003, 3.918313e-002
3.106760e+003, 3.908189e-002
3.108688e+003, 3.963354e-002
3.110617e+003, 4.024297e-002
3.112545e+003, 3.933473e-002
3.114474e+003, 3.882842e-002
3.116402e+003, 3.823870e-002
3.118331e+003, 3.971062e-002
3.120259e+003, 4.199109e-002
3.122188e+003, 4.050842e-002
3.124116e+003, 3.918611e-002
3.126044e+003, 4.062708e-002
3.127973e+003, 4.160890e-002
3.129901e+003, 4.118701e-002
3.131830e+003, 4.058957e-002
3.133758e+003, 4.165438e-002
3.135687e+003, 4.209444e-002
3.137615e+003, 4.072711e-002
3.139544e+003, 4.043803e-002
3.141472e+003, 3.992311e-002
3.143401e+003, 3.991962e-002
3.145329e+003, 3.968263e-002
3.147258e+003, 4.025372e-002
3.149186e+003, 4.214824e-002
3.151115e+003, 4.363321e-002
3.153043e+003, 4.098442e-002
3.154971e+003, 3.946382e-002
3.156900e+003, 4.003527e-002
3.158828e+003, 4.004626e-002
3.160757e+003, 3.989743e-002
3.162685e+003, 4.073167e-002
3.164614e+003, 4.172281e-002
3.166542e+003, 4.150177e-002
3.168471e+003, 4.342749e-002
3.170399e+003, 4.336026e-002
3.172328e+003, 4.046406e-002
3.174256e+003, 4.058105e-002
3.176185e+003, 4.163443e-002
3.178113e+003, 4.161565e-002
3.180042e+003, 4.106114e-002
3.181970e+003, 4.155185e-002
3.183898e+003, 4.358549e-002
3.185827e+003, 4.206244e-002
3.187755e+003, 4.087818e-002
3.189684e+003, 4.309589e-002
3.191612e+003, 4.432794e-002
3.193541e+003, 4.270620e-002
3.195469e+003, 4.176774e-002
3.197398e+003, 4.337794e-002
3.199326e+003, 4.380555e-002
3.201255e+003, 4.247773e-002
3.203183e+003, 4.328496e-002
3.205112e+003, 4.293891e-002
3.207040e+003, 4.238831e-002
3.208969e+003, 4.379657e-002
3.210897e+003, 4.536317e-002
3.212825e+003, 4.317741e-002
3.214754e+003, 4.200586e-002
3.216682e+003, 4.310513e-002
3.218611e+003, 4.217386e-002
3.220539e+003, 4.102923e-002
3.222468e+003, 4.135500e-002
3.224396e+003, 4.183968e-002
3.226325e+003, 4.187770e-002
3.228253e+003, 4.118831e-002
3.230182e+003, 4.178166e-002
3.232110e+003, 4.145591e-002
3.234039e+003, 4.088665e-002
3.235967e+003, 4.166960e-002
3.237896e+003, 4.370124e-002
3.239824e+003, 4.408189e-002
3.241752e+003, 4.333641e-002
3.243681e+003, 4.299016e-002
3.245609e+003, 4.331877e-002
3.247538e+003, 4.297993e-002
3.249466e+003, 4.261601e-002
3.251395e+003, 4.219545e-002
3.253323e+003, 4.093981e-002
3.255252e+003, 4.131908e-002
3.257180e+003, 4.100701e-002
3.259109e+003, 4.061526e-002
3.261037e+003, 4.113443e-002
3.262966e+003, 4.038576e-002
3.264894e+003, 4.134524e-002
3.266823e+003, 4.238463e-002
3.268751e+003, 4.269814e-002
3.270679e+003, 4.447958e-002
3.272608e+003, 4.447247e-002
3.274536e+003, 4.337919e-002
3.276465e+003, 4.308098e-002
3.278393e+003, 4.269246e-002
3.280322e+003, 4.212376e-002
3.282250e+003, 4.270313e-002
3.284179e+003, 4.364425e-002
3.286107e+003, 4.422053e-002
3.288036e+003, 4.353432e-002
3.289964e+003, 4.254898e-002
3.291893e+003, 4.265191e-002
3.293821e+003, 4.246777e-002
3.295750e+003, 4.263685e-002
3.297678e+003, 4.472927e-002
3.299606e+003, 4.499131e-002
3.301535e+003, 4.412667e-002
3.303463e+003, 4.264463e-002
3.305392e+003, 4.451563e-002
3.307320e+003, 4.598128e-002
3.309249e+003, 4.319799e-002
3.311177e+003, 4.415180e-002
3.313106e+003, 4.447617e-002
3.315034e+003, 4.209273e-002
3.316963e+003, 4.175422e-002
3.318891e+003, 4.448317e-002
3.320820e+003, 4.457314e-002
3.322748e+003, 4.235109e-002
3.324677e+003, 4.273260e-002
3.326605e+003, 4.353928e-002
3.328533e+003, 4.293463e-002
3.330462e+003, 4.364321e-002
3.332390e+003, 4.275486e-002
3.334319e+003, 4.182589e-002
3.336247e+003, 4.323924e-002
3.338176e+003, 4.338070e-002
3.340104e+003, 4.387987e-002
3.342033e+003, 4.390030e-002
3.343961e+003, 4.345953e-002
3.345890e+003, 4.370840e-002
3.347818e+003, 4.443781e-002
3.349747e+003, 4.600785e-002
3.351675e+003, 4.568776e-002
3.353604e+003, 4.312294e-002
3.355532e+003, 4.225244e-002
3.357460e+003, 4.286559e-002
3.359389e+003, 4.331394e-002
3.361317e+003, 4.401358e-002
3.363246e+003, 4.243940e-002
3.365174e+003, 4.140588e-002
3.367103e+003, 4.292010e-002
3.369031e+003, 4.325509e-002
3.370960e+003, 4.355771e-002
3.372888e+003, 4.108765e-002
3.374817e+003, 3.959597e-002
3.376745e+003, 4.035606e-002
3.378674e+003, 4.059972e-002
3.380602e+003, 4.297533e-002
3.382531e+003, 4.437024e-002
3.384459e+003, 4.285763e-002
3.386387e+003, 4.246079e-002
3.388316e+003, 4.255731e-002
3.390244e+003, 4.415308e-002
3.392173e+003, 4.487801e-002
3.394101e+003, 4.233563e-002
3.396030e+003, 4.241087e-002
3.397958e+003, 4.350693e-002
3.399887e+003, 4.405985e-002
3.401815e+003, 4.468594e-002
3.403744e+003, 4.588068e-002
3.405672e+003, 4.627373e-002
3.407601e+003, 4.367761e-002
3.409529e+003, 4.097584e-002
3.411458e+003, 4.117356e-002
3.413386e+003, 4.382958e-002
3.415314e+003, 4.527307e-002
3.417243e+003, 4.585195e-002
3.419171e+003, 4.529103e-002
3.421100e+003, 4.436442e-002
3.423028e+003, 4.535065e-002
3.424957e+003, 4.576129e-002
3.426885e+003, 4.484768e-002
3.428814e+003, 4.322829e-002
3.430742e+003, 4.162349e-002
3.432671e+003, 4.097744e-002
3.434599e+003, 4.225541e-002
3.436528e+003, 4.292459e-002
3.438456e+003, 4.281419e-002
3.440385e+003, 4.286249e-002
3.442313e+003, 4.296210e-002
3.444241e+003, 4.388035e-002
3.446170e+003, 4.392538e-002
3.448098e+003, 4.440604e-002
3.450027e+003, 4.436047e-002
3.451955e+003, 4.623302e-002
3.453884e+003, 4.782007e-002
3.455812e+003, 4.772726e-002
3.457741e+003, 4.557882e-002
3.459669e+003, 4.357482e-002
3.461598e+003, 4.514605e-002
3.463526e+003, 4.600055e-002
3.465455e+003, 4.325081e-002
3.467383e+003, 4.321718e-002
3.469312e+003, 4.335904e-002
3.471240e+003, 4.156543e-002
3.473168e+003, 4.188666e-002
3.475097e+003, 4.502064e-002
3.477025e+003, 4.548142e-002
3.478954e+003, 4.405375e-002
3.480882e+003, 4.182945e-002
3.482811e+003, 4.049069e-002
3.484739e+003, 3.889063e-002
3.486668e+003, 4.007234e-002
3.488596e+003, 4.284648e-002
3.490525e+003, 4.522003e-002
3.492453e+003, 4.543411e-002
3.494382e+003, 4.530531e-002
3.496310e+003, 4.398933e-002
3.498239e+003, 4.398388e-002
3.500167e+003, 4.424488e-002
3.502095e+003, 4.293995e-002
3.504024e+003, 4.171776e-002
3.505952e+003, 4.236098e-002
3.507881e+003, 4.384946e-002
3.509809e+003, 4.361254e-002
3.511738e+003, 4.345284e-002
3.513666e+003, 4.437597e-002
3.515595e+003, 4.679226e-002
3.517523e+003, 4.669499e-002
3.519452e+003, 4.388500e-002
3.521380e+003, 4.235317e-002
3.523309e+003, 4.256397e-002
3.525237e+003, 4.274581e-002
3.527166e+003, 4.422031e-002
3.529094e+003, 4.468397e-002
3.531022e+003, 4.295192e-002
3.532951e+003, 4.191177e-002
3.534879e+003, 4.288501e-002
3.536808e+003, 4.504602e-002
3.538736e+003, 4.390140e-002
3.540665e+003, 4.043793e-002
3.542593e+003, 4.061892e-002
3.544522e+003, 4.190360e-002
3.546450e+003, 4.269626e-002
3.548379e+003, 4.080851e-002
3.550307e+003, 4.051207e-002
3.552236e+003, 4.103187e-002
3.554164e+003, 4.184625e-002
3.556093e+003, 4.224503e-002
3.558021e+003, 4.088648e-002
3.559949e+003, 4.066860e-002
3.561878e+003, 4.098763e-002
3.563806e+003, 4.117983e-002
3.565735e+003, 4.149383e-002
3.567663e+003, 4.228190e-002
3.569592e+003, 4.305561e-002
3.571520e+003, 4.312608e-002
3.573449e+003, 4.268244e-002
3.575377e+003, 4.192658e-002
3.577306e+003, 4.137927e-002
3.579234e+003, 3.925848e-002
3.581163e+003, 3.793404e-002
3.583091e+003, 4.199923e-002
3.585020e+003, 4.540297e-002
3.586948e+003, 4.100583e-002
3.588876e+003, 3.890539e-002
3.590805e+003, 3.954537e-002
3.592733e+003, 4.253008e-002
3.594662e+003, 4.404013e-002
3.596590e+003, 4.324122e-002
3.598519e+003, 4.418771e-002
3.600447e+003, 4.195279e-002
3.602376e+003, 3.944939e-002
3.604304e+003, 3.805448e-002
3.606233e+003, 3.739599e-002
3.608161e+003, 3.868292e-002
3.610090e+003, 3.990683e-002
3.612018e+003, 3.867925e-002
3.613947e+003, 4.005768e-002
3.615875e+003, 4.114981e-002
3.617803e+003, 4.197576e-002
3.619732e+003, 4.282232e-002
3.621660e+003, 4.125581e-002
3.623589e+003, 4.046869e-002
3.625517e+003, 4.337289e-002
3.627446e+003, 4.312974e-002
3.629374e+003, 3.923394e-002
3.631303e+003, 3.850079e-002
3.633231e+003, 4.246476e-002
3.635160e+003, 4.077514e-002
3.637088e+003, 3.678352e-002
3.639017e+003, 3.838515e-002
3.640945e+003, 4.160665e-002
3.642874e+003, 4.083752e-002
3.644802e+003, 3.781970e-002
3.646730e+003, 3.605361e-002
3.648659e+003, 3.473256e-002
3.650587e+003, 3.586864e-002
3.652516e+003, 3.682001e-002
3.654444e+003, 3.771229e-002
3.656373e+003, 3.854092e-002
3.658301e+003, 3.922209e-002
3.660230e+003, 4.013555e-002
3.662158e+003, 3.991754e-002
3.664087e+003, 3.947539e-002
3.666015e+003, 3.775880e-002
3.667944e+003, 3.854783e-002
3.669872e+003, 4.177542e-002
3.671801e+003, 4.265362e-002
3.673729e+003, 4.112908e-002
3.675657e+003, 3.967496e-002
3.677586e+003, 3.876240e-002
3.679514e+003, 4.174464e-002
3.681443e+003, 4.381338e-002
3.683371e+003, 4.335799e-002
3.685300e+003, 4.055373e-002
3.687228e+003, 3.928417e-002
3.689157e+003, 4.104318e-002
3.691085e+003, 3.953096e-002
3.693014e+003, 3.747350e-002
3.694942e+003, 3.965534e-002
3.696871e+003, 4.443239e-002
3.698799e+003, 4.344553e-002
3.700728e+003, 4.153754e-002
3.702656e+003, 4.225050e-002
3.704584e+003, 4.023046e-002
3.706513e+003, 4.029446e-002
3.708441e+003, 4.402028e-002
3.710370e+003, 4.274675e-002
3.712298e+003, 4.062628e-002
3.714227e+003, 4.095738e-002
3.716155e+003, 3.898084e-002
3.718084e+003, 3.879498e-002
3.720012e+003, 4.147574e-002
3.721941e+003, 4.149522e-002
3.723869e+003, 4.150470e-002
3.725798e+003, 4.115613e-002
3.727726e+003, 4.055307e-002
3.729655e+003, 3.904243e-002
3.731583e+003, 3.758138e-002
3.733511e+003, 3.898738e-002
3.735440e+003, 3.979782e-002
3.737368e+003, 3.969768e-002
3.739297e+003, 3.990227e-002
3.741225e+003, 3.958101e-002
3.743154e+003, 3.883299e-002
3.745082e+003, 4.003333e-002
3.747011e+003, 4.321057e-002
3.748939e+003, 4.271742e-002
3.750868e+003, 3.917843e-002
3.752796e+003, 3.693458e-002
3.754725e+003, 3.754008e-002
3.756653e+003, 3.683745e-002
3.758582e+003, 3.913476e-002
3.760510e+003, 4.117357e-002
3.762438e+003, 4.004509e-002
3.764367e+003, 3.891740e-002
3.766295e+003, 3.727258e-002
3.768224e+003, 3.660026e-002
3.770152e+003, 4.087884e-002
3.772081e+003, 4.399223e-002
3.774009e+003, 4.131996e-002
3.775938e+003, 4.007249e-002
3.777866e+003, 4.121546e-002
3.779795e+003, 4.237475e-002
3.781723e+003, 4.163059e-002
3.783652e+003, 4.326521e-002
3.785580e+003, 4.355798e-002
3.787509e+003, 4.430983e-002
3.789437e+003, 4.633434e-002
3.791365e+003, 4.832671e-002
3.793294e+003, 4.518561e-002
3.795222e+003, 4.408800e-002
3.797151e+003, 4.302461e-002
3.799079e+003, 4.289065e-002
3.801008e+003, 4.477223e-002
3.802936e+003, 4.410202e-002
3.804865e+003, 4.387244e-002
3.806793e+003, 4.141257e-002
3.808722e+003, 3.835180e-002
3.810650e+003, 3.794652e-002
3.812579e+003, 4.002799e-002
3.814507e+003, 4.235256e-002
3.816436e+003, 4.423870e-002
3.818364e+003, 4.146645e-002
3.820292e+003, 3.930011e-002
3.822221e+003, 3.916149e-002
3.824149e+003, 4.119984e-002
3.826078e+003, 4.065774e-002
3.828006e+003, 3.983956e-002
3.829935e+003, 3.947259e-002
3.831863e+003, 3.684852e-002
3.833792e+003, 3.706098e-002
3.835720e+003, 4.113885e-002
3.837649e+003, 4.142362e-002
3.839577e+003, 3.943935e-002
3.841506e+003, 3.920191e-002
3.843434e+003, 3.962841e-002
3.845363e+003, 3.833104e-002
3.847291e+003, 4.245725e-002
3.849219e+003, 4.702058e-002
3.851148e+003, 4.110892e-002
3.853076e+003, 3.949279e-002
3.855005e+003, 4.197045e-002
3.856933e+003, 4.317109e-002
3.858862e+003, 4.218275e-002
3.860790e+003, 3.769964e-002
3.862719e+003, 3.797322e-002
3.864647e+003, 4.205980e-002
3.866576e+003, 4.000150e-002
3.868504e+003, 3.820422e-002
3.870433e+003, 3.898961e-002
3.872361e+003, 3.874025e-002
3.874290e+003, 4.115730e-002
3.876218e+003, 4.385446e-002
3.878146e+003, 4.462228e-002
3.880075e+003, 4.399113e-002
3.882003e+003, 4.201988e-002
3.883932e+003, 4.120474e-002
3.885860e+003, 4.073644e-002
3.887789e+003, 3.954222e-002
3.889717e+003, 4.035931e-002
3.891646e+003, 4.011045e-002
3.893574e+003, 4.010484e-002
3.895503e+003, 4.022145e-002
3.897431e+003, 3.774695e-002
3.899360e+003, 3.560481e-002
3.901288e+003, 3.764460e-002
3.903217e+003, 4.027951e-002
3.905145e+003, 4.260829e-002
3.907073e+003, 4.135872e-002
3.909002e+003, 3.984044e-002
3.910930e+003, 4.161865e-002
3.912859e+003, 4.176526e-002
3.914787e+003, 3.823010e-002
3.916716e+003, 3.971155e-002
3.918644e+003, 4.124121e-002
3.920573e+003, 3.869425e-002
3.922501e+003, 3.911353e-002
3.924430e+003, 4.037472e-002
3.926358e+003, 3.999723e-002
3.928287e+003, 3.893137e-002
3.930215e+003, 3.970993e-002
3.932144e+003, 4.269539e-002
3.934072e+003, 4.172131e-002
3.936000e+003, 3.982672e-002
3.937929e+003, 4.253387e-002
3.939857e+003, 4.389915e-002
3.941786e+003, 4.183966e-002
3.943714e+003, 4.098208e-002
3.945643e+003, 4.156888e-002
3.947571e+003, 3.959279e-002
3.949500e+003, 3.734529e-002
3.951428e+003, 3.814676e-002
3.953357e+003, 4.071685e-002
3.955285e+003, 3.895252e-002
3.957214e+003, 3.774390e-002
3.959142e+003, 3.882452e-002
3.961071e+003, 3.746020e-002
3.962999e+003, 3.900055e-002
3.964927e+003, 4.253352e-002
3.966856e+003, 4.143850e-002
3.968784e+003, 4.160804e-002
3.970713e+003, 4.204303e-002
3.972641e+003, 3.670846e-002
3.974570e+003, 3.269764e-002
3.976498e+003, 3.551156e-002
3.978427e+003, 4.065221e-002
3.980355e+003, 4.283677e-002
3.982284e+003, 4.009570e-002
3.984212e+003, 3.978562e-002
3.986141e+003, 4.140754e-002
3.988069e+003, 4.189374e-002
3.989998e+003, 3.782240e-002
3.991926e+003, 3.949482e-002
3.993854e+003, 4.502212e-002
3.995783e+003, 4.286275e-002
3.997711e+003, 3.528432e-002
3.999640e+003, 3.502303e-002
4.001568e+003, 0.000000e+000
##END=



