##NAMES=Gersdorffite
##RRUFFID=R070304
##IDEAL CHEMISTRY=Ni^3+^(AsS)^3-^
##LOCALITY=Aït Ahmane, Bou Azzer, Anti-Atlas Mts, Morocco
##OWNER=RRUFF
##SOURCE=Michael Scott
##DESCRIPTION=Steel gray metallic massive, this sample used by Bayliss to create ICDD data. Structure refined to determine space group.
##STATUS=The identification of this mineral is confirmed by single-crystal X-ray diffraction and chemical analysis.
##URL=rruff.info/R070304
##MEASURED CHEMISTRY=(Ni_0.99_Co_0.01_)_Σ=1_As_1.00_S_1.00_ ; trace amounts of Fe
3.991926e+002, 1.794018e-001
4.011211e+002, 1.810225e-001
4.030495e+002, 1.834593e-001
4.049780e+002, 1.807418e-001
4.069065e+002, 1.824994e-001
4.088349e+002, 1.872140e-001
4.107634e+002, 1.874837e-001
4.126919e+002, 1.844255e-001
4.146203e+002, 1.797044e-001
4.165488e+002, 1.796632e-001
4.184773e+002, 1.811996e-001
4.204057e+002, 1.824785e-001
4.223342e+002, 1.819138e-001
4.242627e+002, 1.814993e-001
4.261911e+002, 1.820300e-001
4.281196e+002, 1.830522e-001
4.300481e+002, 1.835094e-001
4.319765e+002, 1.825263e-001
4.339050e+002, 1.828258e-001
4.358335e+002, 1.825033e-001
4.377619e+002, 1.838220e-001
4.396904e+002, 1.853343e-001
4.416189e+002, 1.852014e-001
4.435473e+002, 1.852911e-001
4.454758e+002, 1.861565e-001
4.474043e+002, 1.867688e-001
4.493327e+002, 1.852866e-001
4.512612e+002, 1.852578e-001
4.531897e+002, 1.851989e-001
4.551181e+002, 1.851106e-001
4.570466e+002, 1.854446e-001
4.589751e+002, 1.862246e-001
4.609035e+002, 1.868794e-001
4.628320e+002, 1.867926e-001
4.647605e+002, 1.864336e-001
4.666889e+002, 1.864526e-001
4.686174e+002, 1.863829e-001
4.705459e+002, 1.862792e-001
4.724743e+002, 1.865504e-001
4.744028e+002, 1.874226e-001
4.763313e+002, 1.874700e-001
4.782597e+002, 1.865977e-001
4.801882e+002, 1.849823e-001
4.821167e+002, 1.838083e-001
4.840451e+002, 1.838517e-001
4.859736e+002, 1.837393e-001
4.879021e+002, 1.839561e-001
4.898305e+002, 1.831228e-001
4.917590e+002, 1.807685e-001
4.936875e+002, 1.797787e-001
4.956159e+002, 1.789899e-001
4.975444e+002, 1.778340e-001
4.994729e+002, 1.767807e-001
5.014013e+002, 1.771723e-001
5.033298e+002, 1.769746e-001
5.052583e+002, 1.765849e-001
5.071867e+002, 1.760381e-001
5.091152e+002, 1.748967e-001
5.110437e+002, 1.746933e-001
5.129721e+002, 1.750292e-001
5.149006e+002, 1.747988e-001
5.168290e+002, 1.744140e-001
5.187575e+002, 1.747661e-001
5.206860e+002, 1.749603e-001
5.226144e+002, 1.750179e-001
5.245429e+002, 1.755331e-001
5.264714e+002, 1.753519e-001
5.283998e+002, 1.748966e-001
5.303283e+002, 1.749364e-001
5.322568e+002, 1.754694e-001
5.341852e+002, 1.761116e-001
5.361137e+002, 1.761639e-001
5.380422e+002, 1.762520e-001
5.399706e+002, 1.767621e-001
5.418991e+002, 1.775540e-001
5.438276e+002, 1.780926e-001
5.457560e+002, 1.789847e-001
5.476845e+002, 1.797923e-001
5.496130e+002, 1.801511e-001
5.515414e+002, 1.810526e-001
5.534699e+002, 1.820011e-001
5.553984e+002, 1.823278e-001
5.573268e+002, 1.827706e-001
5.592553e+002, 1.829815e-001
5.611838e+002, 1.832540e-001
5.631122e+002, 1.835147e-001
5.650407e+002, 1.841083e-001
5.669692e+002, 1.849368e-001
5.688976e+002, 1.854696e-001
5.708261e+002, 1.860870e-001
5.727546e+002, 1.869229e-001
5.746830e+002, 1.871568e-001
5.766115e+002, 1.871361e-001
5.785400e+002, 1.876194e-001
5.804684e+002, 1.879508e-001
5.823969e+002, 1.884381e-001
5.843254e+002, 1.888146e-001
5.862538e+002, 1.894199e-001
5.881823e+002, 1.900468e-001
5.901108e+002, 1.904964e-001
5.920392e+002, 1.914685e-001
5.939677e+002, 1.922911e-001
5.958962e+002, 1.927786e-001
5.978246e+002, 1.928835e-001
5.997531e+002, 1.929676e-001
6.016816e+002, 1.922988e-001
6.036100e+002, 1.911540e-001
6.055385e+002, 1.906959e-001
6.074670e+002, 1.904746e-001
6.093954e+002, 1.900675e-001
6.113239e+002, 1.898984e-001
6.132524e+002, 1.893177e-001
6.151808e+002, 1.885212e-001
6.171093e+002, 1.877100e-001
6.190378e+002, 1.865913e-001
6.209662e+002, 1.855683e-001
6.228947e+002, 1.843639e-001
6.248232e+002, 1.829204e-001
6.267516e+002, 1.819569e-001
6.286801e+002, 1.810166e-001
6.306086e+002, 1.798110e-001
6.325370e+002, 1.786124e-001
6.344655e+002, 1.780347e-001
6.363940e+002, 1.778185e-001
6.383224e+002, 1.776699e-001
6.402509e+002, 1.772836e-001
6.421794e+002, 1.771448e-001
6.441078e+002, 1.774938e-001
6.460363e+002, 1.775333e-001
6.479648e+002, 1.775578e-001
6.498932e+002, 1.776918e-001
6.518217e+002, 1.780763e-001
6.537502e+002, 1.786324e-001
6.556786e+002, 1.791489e-001
6.576071e+002, 1.793151e-001
6.595356e+002, 1.790176e-001
6.614641e+002, 1.785682e-001
6.633925e+002, 1.780817e-001
6.653210e+002, 1.777005e-001
6.672495e+002, 1.776192e-001
6.691779e+002, 1.771865e-001
6.711064e+002, 1.767100e-001
6.730349e+002, 1.766303e-001
6.749633e+002, 1.764113e-001
6.768918e+002, 1.763641e-001
6.788203e+002, 1.765569e-001
6.807487e+002, 1.764622e-001
6.826772e+002, 1.764208e-001
6.846057e+002, 1.764655e-001
6.865341e+002, 1.765292e-001
6.884626e+002, 1.766379e-001
6.903911e+002, 1.771007e-001
6.923195e+002, 1.775209e-001
6.942480e+002, 1.774512e-001
6.961765e+002, 1.776282e-001
6.981049e+002, 1.779051e-001
7.000334e+002, 1.781968e-001
7.019619e+002, 1.781333e-001
7.038903e+002, 1.784753e-001
7.058188e+002, 1.789213e-001
7.077473e+002, 1.791336e-001
7.096757e+002, 1.795421e-001
7.116042e+002, 1.802283e-001
7.135327e+002, 1.807254e-001
7.154611e+002, 1.807820e-001
7.173896e+002, 1.808043e-001
7.193181e+002, 1.810519e-001
7.212465e+002, 1.815422e-001
7.231750e+002, 1.820328e-001
7.251035e+002, 1.824736e-001
7.270319e+002, 1.828469e-001
7.289604e+002, 1.832336e-001
7.308889e+002, 1.837136e-001
7.328173e+002, 1.840320e-001
7.347458e+002, 1.841524e-001
7.366743e+002, 1.845819e-001
7.386027e+002, 1.851346e-001
7.405312e+002, 1.857641e-001
7.424597e+002, 1.861751e-001
7.443881e+002, 1.865954e-001
7.463166e+002, 1.870442e-001
7.482451e+002, 1.875728e-001
7.501735e+002, 1.878821e-001
7.521020e+002, 1.881833e-001
7.540305e+002, 1.886350e-001
7.559589e+002, 1.892639e-001
7.578874e+002, 1.895958e-001
7.598159e+002, 1.898180e-001
7.617443e+002, 1.901366e-001
7.636728e+002, 1.904404e-001
7.656013e+002, 1.906634e-001
7.675297e+002, 1.908422e-001
7.694582e+002, 1.909558e-001
7.713867e+002, 1.910810e-001
7.733151e+002, 1.910849e-001
7.752436e+002, 1.913848e-001
7.771721e+002, 1.917119e-001
7.791005e+002, 1.921677e-001
7.810290e+002, 1.923427e-001
7.829575e+002, 1.924127e-001
7.848859e+002, 1.925032e-001
7.868144e+002, 1.926656e-001
7.887429e+002, 1.926023e-001
7.906713e+002, 1.925050e-001
7.925998e+002, 1.921884e-001
7.945283e+002, 1.916698e-001
7.964567e+002, 1.911721e-001
7.983852e+002, 1.906216e-001
8.003137e+002, 1.901168e-001
8.022421e+002, 1.893306e-001
8.041706e+002, 1.884538e-001
8.060991e+002, 1.876494e-001
8.080275e+002, 1.868723e-001
8.099560e+002, 1.864207e-001
8.118845e+002, 1.859792e-001
8.138129e+002, 1.852451e-001
8.157414e+002, 1.848501e-001
8.176699e+002, 1.846642e-001
8.195983e+002, 1.843168e-001
8.215268e+002, 1.841322e-001
8.234553e+002, 1.838979e-001
8.253837e+002, 1.833806e-001
8.273122e+002, 1.828449e-001
8.292407e+002, 1.824960e-001
8.311691e+002, 1.819873e-001
8.330976e+002, 1.811172e-001
8.350261e+002, 1.807467e-001
8.369545e+002, 1.802628e-001
8.388830e+002, 1.796826e-001
8.408115e+002, 1.788993e-001
8.427399e+002, 1.778566e-001
8.446684e+002, 1.768707e-001
8.465969e+002, 1.757221e-001
8.485253e+002, 1.745512e-001
8.504538e+002, 1.734110e-001
8.523823e+002, 1.725737e-001
8.543107e+002, 1.718122e-001
8.562392e+002, 1.708155e-001
8.581677e+002, 1.702662e-001
8.600961e+002, 1.697430e-001
8.620246e+002, 1.690426e-001
8.639531e+002, 1.682867e-001
8.658815e+002, 1.677774e-001
8.678100e+002, 1.672478e-001
8.697385e+002, 1.666184e-001
8.716669e+002, 1.662408e-001
8.735954e+002, 1.658776e-001
8.755239e+002, 1.652918e-001
8.774523e+002, 1.646094e-001
8.793808e+002, 1.638810e-001
8.813093e+002, 1.632063e-001
8.832377e+002, 1.625193e-001
8.851662e+002, 1.620353e-001
8.870947e+002, 1.615333e-001
8.890231e+002, 1.608149e-001
8.909516e+002, 1.603243e-001
8.928801e+002, 1.599317e-001
8.948085e+002, 1.594070e-001
8.967370e+002, 1.586632e-001
8.986655e+002, 1.580770e-001
9.005939e+002, 1.577485e-001
9.025224e+002, 1.573613e-001
9.044509e+002, 1.569774e-001
9.063793e+002, 1.566543e-001
9.083078e+002, 1.561934e-001
9.102363e+002, 1.558550e-001
9.121647e+002, 1.557346e-001
9.140932e+002, 1.555935e-001
9.160217e+002, 1.552904e-001
9.179501e+002, 1.549262e-001
9.198786e+002, 1.547571e-001
9.218071e+002, 1.546586e-001
9.237355e+002, 1.545601e-001
9.256640e+002, 1.546391e-001
9.275925e+002, 1.547502e-001
9.295209e+002, 1.549139e-001
9.314494e+002, 1.548803e-001
9.333779e+002, 1.549320e-001
9.353063e+002, 1.551643e-001
9.372348e+002, 1.554824e-001
9.391633e+002, 1.558993e-001
9.410917e+002, 1.563158e-001
9.430202e+002, 1.568866e-001
9.449487e+002, 1.574160e-001
9.468771e+002, 1.579769e-001
9.488056e+002, 1.585938e-001
9.507341e+002, 1.592827e-001
9.526625e+002, 1.598890e-001
9.545910e+002, 1.605684e-001
9.565195e+002, 1.614210e-001
9.584479e+002, 1.623069e-001
9.603764e+002, 1.630847e-001
9.623049e+002, 1.637823e-001
9.642333e+002, 1.646423e-001
9.661618e+002, 1.654564e-001
9.680903e+002, 1.661704e-001
9.700187e+002, 1.670053e-001
9.719472e+002, 1.679135e-001
9.738757e+002, 1.687650e-001
9.758041e+002, 1.696170e-001
9.777326e+002, 1.707791e-001
9.796611e+002, 1.719988e-001
9.815895e+002, 1.731015e-001
9.835180e+002, 1.731821e-001
9.854465e+002, 1.720593e-001
9.873749e+002, 1.715875e-001
9.893034e+002, 1.720879e-001
9.912319e+002, 1.729832e-001
9.931603e+002, 1.740093e-001
9.950888e+002, 1.750504e-001
9.970173e+002, 1.761307e-001
9.989457e+002, 1.771825e-001
1.000874e+003, 1.781559e-001
1.002803e+003, 1.792583e-001
1.004731e+003, 1.804160e-001
1.006660e+003, 1.813829e-001
1.008588e+003, 1.821740e-001
1.010517e+003, 1.830095e-001
1.012445e+003, 1.839220e-001
1.014373e+003, 1.850763e-001
1.016302e+003, 1.863486e-001
1.018230e+003, 1.874882e-001
1.020159e+003, 1.886322e-001
1.022087e+003, 1.897206e-001
1.024016e+003, 1.908044e-001
1.025944e+003, 1.921544e-001
1.027873e+003, 1.935558e-001
1.029801e+003, 1.948575e-001
1.031730e+003, 1.960766e-001
1.033658e+003, 1.972871e-001
1.035587e+003, 1.985707e-001
1.037515e+003, 1.998531e-001
1.039443e+003, 2.011280e-001
1.041372e+003, 2.022694e-001
1.043300e+003, 2.034363e-001
1.045229e+003, 2.046955e-001
1.047157e+003, 2.059232e-001
1.049086e+003, 2.070381e-001
1.051014e+003, 2.083199e-001
1.052943e+003, 2.097535e-001
1.054871e+003, 2.109795e-001
1.056800e+003, 2.121773e-001
1.058728e+003, 2.135003e-001
1.060657e+003, 2.146696e-001
1.062585e+003, 2.155300e-001
1.064514e+003, 2.165072e-001
1.066442e+003, 2.176930e-001
1.068370e+003, 2.184851e-001
1.070299e+003, 2.189470e-001
1.072227e+003, 2.191434e-001
1.074156e+003, 2.191281e-001
1.076084e+003, 2.191178e-001
1.078013e+003, 2.188850e-001
1.079941e+003, 2.185607e-001
1.081870e+003, 2.182665e-001
1.083798e+003, 2.177642e-001
1.085727e+003, 2.171222e-001
1.087655e+003, 2.164323e-001
1.089584e+003, 2.154037e-001
1.091512e+003, 2.142798e-001
1.093441e+003, 2.128755e-001
1.095369e+003, 2.113572e-001
1.097297e+003, 2.097869e-001
1.099226e+003, 2.080426e-001
1.101154e+003, 2.060052e-001
1.103083e+003, 2.039840e-001
1.105011e+003, 2.019871e-001
1.106940e+003, 2.001131e-001
1.108868e+003, 1.983226e-001
1.110797e+003, 1.962416e-001
1.112725e+003, 1.938189e-001
1.114654e+003, 1.911793e-001
1.116582e+003, 1.883257e-001
1.118511e+003, 1.851709e-001
1.120439e+003, 1.819840e-001
1.122368e+003, 1.789684e-001
1.124296e+003, 1.761127e-001
1.126224e+003, 1.733679e-001
1.128153e+003, 1.707588e-001
1.130081e+003, 1.681174e-001
1.132010e+003, 1.654484e-001
1.133938e+003, 1.627170e-001
1.135867e+003, 1.599804e-001
1.137795e+003, 1.575431e-001
1.139724e+003, 1.554923e-001
1.141652e+003, 1.533982e-001
1.143581e+003, 1.513030e-001
1.145509e+003, 1.495302e-001
1.147438e+003, 1.478431e-001
1.149366e+003, 1.463814e-001
1.151295e+003, 1.449288e-001
1.153223e+003, 1.434374e-001
1.155151e+003, 1.420940e-001
1.157080e+003, 1.409807e-001
1.159008e+003, 1.401012e-001
1.160937e+003, 1.393581e-001
1.162865e+003, 1.386999e-001
1.164794e+003, 1.382547e-001
1.166722e+003, 1.379654e-001
1.168651e+003, 1.375569e-001
1.170579e+003, 1.370691e-001
1.172508e+003, 1.365429e-001
1.174436e+003, 1.360190e-001
1.176365e+003, 1.356196e-001
1.178293e+003, 1.352973e-001
1.180222e+003, 1.348734e-001
1.182150e+003, 1.343407e-001
1.184078e+003, 1.339688e-001
1.186007e+003, 1.338115e-001
1.187935e+003, 1.336166e-001
1.189864e+003, 1.334305e-001
1.191792e+003, 1.332939e-001
1.193721e+003, 1.333261e-001
1.195649e+003, 1.336121e-001
1.197578e+003, 1.338068e-001
1.199506e+003, 1.341757e-001
1.201435e+003, 1.346686e-001
1.203363e+003, 1.351614e-001
1.205292e+003, 1.354724e-001
1.207220e+003, 1.357559e-001
1.209149e+003, 1.361558e-001
1.211077e+003, 1.365830e-001
1.213005e+003, 1.369422e-001
1.214934e+003, 1.372645e-001
1.216862e+003, 1.375732e-001
1.218791e+003, 1.377497e-001
1.220719e+003, 1.380659e-001
1.222648e+003, 1.385269e-001
1.224576e+003, 1.389306e-001
1.226505e+003, 1.392730e-001
1.228433e+003, 1.396029e-001
1.230362e+003, 1.400534e-001
1.232290e+003, 1.404329e-001
1.234219e+003, 1.408208e-001
1.236147e+003, 1.412812e-001
1.238076e+003, 1.415681e-001
1.240004e+003, 1.418144e-001
1.241932e+003, 1.422614e-001
1.243861e+003, 1.428157e-001
1.245789e+003, 1.432121e-001
1.247718e+003, 1.435359e-001
1.249646e+003, 1.437885e-001
1.251575e+003, 1.440380e-001
1.253503e+003, 1.443458e-001
1.255432e+003, 1.448308e-001
1.257360e+003, 1.451690e-001
1.259289e+003, 1.454463e-001
1.261217e+003, 1.458918e-001
1.263146e+003, 1.462715e-001
1.265074e+003, 1.465219e-001
1.267003e+003, 1.466626e-001
1.268931e+003, 1.469603e-001
1.270859e+003, 1.471056e-001
1.272788e+003, 1.472597e-001
1.274716e+003, 1.476538e-001
1.276645e+003, 1.479781e-001
1.278573e+003, 1.482068e-001
1.280502e+003, 1.485086e-001
1.282430e+003, 1.488262e-001
1.284359e+003, 1.490905e-001
1.286287e+003, 1.492768e-001
1.288216e+003, 1.494526e-001
1.290144e+003, 1.498654e-001
1.292073e+003, 1.503017e-001
1.294001e+003, 1.505874e-001
1.295930e+003, 1.507820e-001
1.297858e+003, 1.509211e-001
1.299786e+003, 1.511998e-001
1.301715e+003, 1.515176e-001
1.303643e+003, 1.518018e-001
1.305572e+003, 1.520502e-001
1.307500e+003, 1.521823e-001
1.309429e+003, 1.525057e-001
1.311357e+003, 1.528546e-001
1.313286e+003, 1.530700e-001
1.315214e+003, 1.531909e-001
1.317143e+003, 1.533366e-001
1.319071e+003, 1.536021e-001
1.321000e+003, 1.538721e-001
1.322928e+003, 1.541291e-001
1.324857e+003, 1.543756e-001
1.326785e+003, 1.545911e-001
1.328714e+003, 1.547228e-001
1.330642e+003, 1.550545e-001
1.332570e+003, 1.554882e-001
1.334499e+003, 1.557277e-001
1.336427e+003, 1.559926e-001
1.338356e+003, 1.562368e-001
1.340284e+003, 1.564965e-001
1.342213e+003, 1.566126e-001
1.344141e+003, 1.566352e-001
1.346070e+003, 1.568346e-001
1.347998e+003, 1.570970e-001
1.349927e+003, 1.573090e-001
1.351855e+003, 1.574848e-001
1.353784e+003, 1.577179e-001
1.355712e+003, 1.579245e-001
1.357641e+003, 1.580857e-001
1.359569e+003, 1.583764e-001
1.361497e+003, 1.587685e-001
1.363426e+003, 1.589584e-001
1.365354e+003, 1.590844e-001
1.367283e+003, 1.593015e-001
1.369211e+003, 1.595830e-001
1.371140e+003, 1.598522e-001
1.373068e+003, 1.600370e-001
1.374997e+003, 1.600189e-001
1.376925e+003, 1.600977e-001
1.378854e+003, 1.603135e-001
1.380782e+003, 1.606369e-001
1.382711e+003, 1.608566e-001
1.384639e+003, 1.608566e-001
1.386568e+003, 1.611637e-001
1.388496e+003, 1.615067e-001
1.390424e+003, 1.617252e-001
1.392353e+003, 1.618719e-001
1.394281e+003, 1.620851e-001
1.396210e+003, 1.622297e-001
1.398138e+003, 1.624971e-001
1.400067e+003, 1.625829e-001
1.401995e+003, 1.627519e-001
1.403924e+003, 1.630571e-001
1.405852e+003, 1.630809e-001
1.407781e+003, 1.631608e-001
1.409709e+003, 1.634383e-001
1.411638e+003, 1.636087e-001
1.413566e+003, 1.636623e-001
1.415495e+003, 1.637948e-001
1.417423e+003, 1.641374e-001
1.419351e+003, 1.643711e-001
1.421280e+003, 1.643251e-001
1.423208e+003, 1.644215e-001
1.425137e+003, 1.645252e-001
1.427065e+003, 1.645226e-001
1.428994e+003, 1.647250e-001
1.430922e+003, 1.649690e-001
1.432851e+003, 1.650418e-001
1.434779e+003, 1.652508e-001
1.436708e+003, 1.656025e-001
1.438636e+003, 1.656141e-001
1.440565e+003, 1.655921e-001
1.442493e+003, 1.657970e-001
1.444422e+003, 1.658800e-001
1.446350e+003, 1.658661e-001
1.448278e+003, 1.661944e-001
1.450207e+003, 1.664028e-001
1.452135e+003, 1.664228e-001
1.454064e+003, 1.665425e-001
1.455992e+003, 1.667112e-001
1.457921e+003, 1.666611e-001
1.459849e+003, 1.666354e-001
1.461778e+003, 1.666490e-001
1.463706e+003, 1.668683e-001
1.465635e+003, 1.670709e-001
1.467563e+003, 1.670941e-001
1.469492e+003, 1.672246e-001
1.471420e+003, 1.675168e-001
1.473349e+003, 1.677770e-001
1.475277e+003, 1.679216e-001
1.477205e+003, 1.680954e-001
1.479134e+003, 1.682939e-001
1.481062e+003, 1.685536e-001
1.482991e+003, 1.687456e-001
1.484919e+003, 1.687904e-001
1.486848e+003, 1.688829e-001
1.488776e+003, 1.689879e-001
1.490705e+003, 1.691403e-001
1.492633e+003, 1.693513e-001
1.494562e+003, 1.696446e-001
1.496490e+003, 1.699316e-001
1.498419e+003, 1.700560e-001
1.500347e+003, 1.700238e-001
1.502276e+003, 1.701122e-001
1.504204e+003, 1.705081e-001
1.506132e+003, 1.709712e-001
1.508061e+003, 1.709139e-001
1.509989e+003, 1.707819e-001
1.511918e+003, 1.708874e-001
1.513846e+003, 1.710149e-001
1.515775e+003, 1.712725e-001
1.517703e+003, 1.715296e-001
1.519632e+003, 1.717966e-001
1.521560e+003, 1.718976e-001
1.523489e+003, 1.718189e-001
1.525417e+003, 1.719643e-001
1.527346e+003, 1.721281e-001
1.529274e+003, 1.721835e-001
1.531203e+003, 1.723202e-001
1.533131e+003, 1.726038e-001
1.535059e+003, 1.725763e-001
1.536988e+003, 1.725729e-001
1.538916e+003, 1.730780e-001
1.540845e+003, 1.733295e-001
1.542773e+003, 1.732062e-001
1.544702e+003, 1.730729e-001
1.546630e+003, 1.730499e-001
1.548559e+003, 1.733642e-001
1.550487e+003, 1.735887e-001
1.552416e+003, 1.737266e-001
1.554344e+003, 1.739302e-001
1.556273e+003, 1.740274e-001
1.558201e+003, 1.744085e-001
1.560130e+003, 1.745727e-001
1.562058e+003, 1.743004e-001
1.563986e+003, 1.742998e-001
1.565915e+003, 1.746066e-001
1.567843e+003, 1.747740e-001
1.569772e+003, 1.748810e-001
1.571700e+003, 1.750567e-001
1.573629e+003, 1.752869e-001
1.575557e+003, 1.756297e-001
1.577486e+003, 1.757785e-001
1.579414e+003, 1.757004e-001
1.581343e+003, 1.757997e-001
1.583271e+003, 1.759478e-001
1.585200e+003, 1.759990e-001
1.587128e+003, 1.760864e-001
1.589057e+003, 1.763256e-001
1.590985e+003, 1.765526e-001
1.592913e+003, 1.767337e-001
1.594842e+003, 1.768842e-001
1.596770e+003, 1.770857e-001
1.598699e+003, 1.774323e-001
1.600627e+003, 1.775968e-001
1.602556e+003, 1.777295e-001
1.604484e+003, 1.781220e-001
1.606413e+003, 1.785208e-001
1.608341e+003, 1.786994e-001
1.610270e+003, 1.789315e-001
1.612198e+003, 1.793140e-001
1.614127e+003, 1.797009e-001
1.616055e+003, 1.800911e-001
1.617984e+003, 1.802133e-001
1.619912e+003, 1.800001e-001
1.621840e+003, 1.798629e-001
1.623769e+003, 1.796554e-001
1.625697e+003, 1.794368e-001
1.627626e+003, 1.794469e-001
1.629554e+003, 1.793594e-001
1.631483e+003, 1.792491e-001
1.633411e+003, 1.794147e-001
1.635340e+003, 1.794531e-001
1.637268e+003, 1.791027e-001
1.639197e+003, 1.786777e-001
1.641125e+003, 1.784285e-001
1.643054e+003, 1.782693e-001
1.644982e+003, 1.781252e-001
1.646911e+003, 1.778683e-001
1.648839e+003, 1.775029e-001
1.650767e+003, 1.772959e-001
1.652696e+003, 1.771693e-001
1.654624e+003, 1.764514e-001
1.656553e+003, 1.756944e-001
1.658481e+003, 1.750357e-001
1.660410e+003, 1.746609e-001
1.662338e+003, 1.744191e-001
1.664267e+003, 1.738113e-001
1.666195e+003, 1.733112e-001
1.668124e+003, 1.730210e-001
1.670052e+003, 1.725717e-001
1.671981e+003, 1.721148e-001
1.673909e+003, 1.719046e-001
1.675838e+003, 1.716114e-001
1.677766e+003, 1.711339e-001
1.679694e+003, 1.708229e-001
1.681623e+003, 1.706942e-001
1.683551e+003, 1.708090e-001
1.685480e+003, 1.704406e-001
1.687408e+003, 1.698829e-001
1.689337e+003, 1.698366e-001
1.691265e+003, 1.697301e-001
1.693194e+003, 1.697011e-001
1.695122e+003, 1.698979e-001
1.697051e+003, 1.698357e-001
1.698979e+003, 1.697430e-001
1.700908e+003, 1.695915e-001
1.702836e+003, 1.692479e-001
1.704765e+003, 1.692752e-001
1.706693e+003, 1.693899e-001
1.708621e+003, 1.693249e-001
1.710550e+003, 1.692968e-001
1.712478e+003, 1.693722e-001
1.714407e+003, 1.693081e-001
1.716335e+003, 1.694680e-001
1.718264e+003, 1.696019e-001
1.720192e+003, 1.695774e-001
1.722121e+003, 1.693134e-001
1.724049e+003, 1.692159e-001
1.725978e+003, 1.692972e-001
1.727906e+003, 1.693585e-001
1.729835e+003, 1.693057e-001
1.731763e+003, 1.694898e-001
1.733692e+003, 1.696436e-001
1.735620e+003, 1.694476e-001
1.737548e+003, 1.692303e-001
1.739477e+003, 1.691394e-001
1.741405e+003, 1.690478e-001
1.743334e+003, 1.691421e-001
1.745262e+003, 1.692359e-001
1.747191e+003, 1.692923e-001
1.749119e+003, 1.695554e-001
1.751048e+003, 1.697313e-001
1.752976e+003, 1.697214e-001
1.754905e+003, 1.698192e-001
1.756833e+003, 1.700353e-001
1.758762e+003, 1.701681e-001
1.760690e+003, 1.702145e-001
1.762619e+003, 1.703082e-001
1.764547e+003, 1.704787e-001
1.766475e+003, 1.706108e-001
1.768404e+003, 1.706646e-001
1.770332e+003, 1.708220e-001
1.772261e+003, 1.710716e-001
1.774189e+003, 1.710959e-001
1.776118e+003, 1.710869e-001
1.778046e+003, 1.711010e-001
1.779975e+003, 1.711444e-001
1.781903e+003, 1.713511e-001
1.783832e+003, 1.714178e-001
1.785760e+003, 1.716352e-001
1.787689e+003, 1.716616e-001
1.789617e+003, 1.717304e-001
1.791546e+003, 1.721220e-001
1.793474e+003, 1.724423e-001
1.795402e+003, 1.723918e-001
1.797331e+003, 1.721598e-001
1.799259e+003, 1.721318e-001
1.801188e+003, 1.722913e-001
1.803116e+003, 1.722987e-001
1.805045e+003, 1.722431e-001
1.806973e+003, 1.723251e-001
1.808902e+003, 1.724983e-001
1.810830e+003, 1.725993e-001
1.812759e+003, 1.727208e-001
1.814687e+003, 1.725466e-001
1.816616e+003, 1.724864e-001
1.818544e+003, 1.727010e-001
1.820473e+003, 1.728587e-001
1.822401e+003, 1.731795e-001
1.824329e+003, 1.733315e-001
1.826258e+003, 1.731005e-001
1.828186e+003, 1.732234e-001
1.830115e+003, 1.734727e-001
1.832043e+003, 1.734437e-001
1.833972e+003, 1.735478e-001
1.835900e+003, 1.736183e-001
1.837829e+003, 1.734829e-001
1.839757e+003, 1.736240e-001
1.841686e+003, 1.739864e-001
1.843614e+003, 1.742292e-001
1.845543e+003, 1.739640e-001
1.847471e+003, 1.739501e-001
1.849400e+003, 1.741554e-001
1.851328e+003, 1.740953e-001
1.853256e+003, 1.741394e-001
1.855185e+003, 1.743862e-001
1.857113e+003, 1.745695e-001
1.859042e+003, 1.744072e-001
1.860970e+003, 1.741655e-001
1.862899e+003, 1.742106e-001
1.864827e+003, 1.744556e-001
1.866756e+003, 1.748728e-001
1.868684e+003, 1.746272e-001
1.870613e+003, 1.742930e-001
1.872541e+003, 1.743736e-001
1.874470e+003, 1.745817e-001
1.876398e+003, 1.747406e-001
1.878327e+003, 1.746860e-001
1.880255e+003, 1.747380e-001
1.882183e+003, 1.746503e-001
1.884112e+003, 1.748901e-001
1.886040e+003, 1.752594e-001
1.887969e+003, 1.751323e-001
1.889897e+003, 1.752056e-001
1.891826e+003, 1.754500e-001
1.893754e+003, 1.756136e-001
1.895683e+003, 1.756489e-001
1.897611e+003, 1.756199e-001
1.899540e+003, 1.759534e-001
1.901468e+003, 1.761019e-001
1.903397e+003, 1.760337e-001
1.905325e+003, 1.759973e-001
1.907254e+003, 1.761568e-001
1.909182e+003, 1.760526e-001
1.911110e+003, 1.761789e-001
1.913039e+003, 1.769876e-001
1.914967e+003, 1.772763e-001
1.916896e+003, 1.767038e-001
1.918824e+003, 1.764252e-001
1.920753e+003, 1.770984e-001
1.922681e+003, 1.770702e-001
1.924610e+003, 1.761837e-001
1.926538e+003, 1.761649e-001
1.928467e+003, 1.765952e-001
1.930395e+003, 1.769534e-001
1.932324e+003, 1.767834e-001
1.934252e+003, 1.770363e-001
1.936181e+003, 1.770228e-001
1.938109e+003, 1.765275e-001
1.940037e+003, 1.764708e-001
1.941966e+003, 1.765739e-001
1.943894e+003, 1.768743e-001
1.945823e+003, 1.768512e-001
1.947751e+003, 1.771948e-001
1.949680e+003, 1.779116e-001
1.951608e+003, 1.779104e-001
1.953537e+003, 1.773839e-001
1.955465e+003, 1.773371e-001
1.957394e+003, 1.779944e-001
1.959322e+003, 1.779816e-001
1.961251e+003, 1.777792e-001
1.963179e+003, 1.782162e-001
1.965108e+003, 1.783423e-001
1.967036e+003, 1.777500e-001
1.968964e+003, 1.779734e-001
1.970893e+003, 1.786464e-001
1.972821e+003, 1.779962e-001
1.974750e+003, 1.781099e-001
1.976678e+003, 1.790688e-001
1.978607e+003, 1.807866e-001
1.980535e+003, 1.812507e-001
1.982464e+003, 1.810912e-001
1.984392e+003, 1.806350e-001
1.986321e+003, 1.797913e-001
1.988249e+003, 1.796006e-001
1.990178e+003, 1.792163e-001
1.992106e+003, 1.795738e-001
1.994035e+003, 1.802675e-001
1.995963e+003, 1.795497e-001
1.997891e+003, 1.796718e-001
1.999820e+003, 1.801206e-001
2.001748e+003, 1.795918e-001
2.003677e+003, 1.791812e-001
2.005605e+003, 1.796032e-001
2.007534e+003, 1.808186e-001
2.009462e+003, 1.808830e-001
2.011391e+003, 1.802706e-001
2.013319e+003, 1.809688e-001
2.015248e+003, 1.820769e-001
2.017176e+003, 1.816344e-001
2.019105e+003, 1.810101e-001
2.021033e+003, 1.799085e-001
2.022962e+003, 1.793095e-001
2.024890e+003, 1.800653e-001
2.026818e+003, 1.807676e-001
2.028747e+003, 1.810188e-001
2.030675e+003, 1.815435e-001
2.032604e+003, 1.819799e-001
2.034532e+003, 1.818531e-001
2.036461e+003, 1.814001e-001
2.038389e+003, 1.813884e-001
2.040318e+003, 1.825051e-001
2.042246e+003, 1.828139e-001
2.044175e+003, 1.825344e-001
2.046103e+003, 1.828480e-001
2.048031e+003, 1.829384e-001
2.049960e+003, 1.828536e-001
2.051888e+003, 1.826756e-001
2.053817e+003, 1.819985e-001
2.055745e+003, 1.824396e-001
2.057674e+003, 1.827701e-001
2.059602e+003, 1.822569e-001
2.061531e+003, 1.819113e-001
2.063459e+003, 1.823414e-001
2.065388e+003, 1.827118e-001
2.067316e+003, 1.825152e-001
2.069245e+003, 1.832567e-001
2.071173e+003, 1.841691e-001
2.073102e+003, 1.844822e-001
2.075030e+003, 1.845952e-001
2.076958e+003, 1.842484e-001
2.078887e+003, 1.840239e-001
2.080815e+003, 1.839328e-001
2.082744e+003, 1.833247e-001
2.084672e+003, 1.833260e-001
2.086601e+003, 1.835999e-001
2.088529e+003, 1.838458e-001
2.090458e+003, 1.834502e-001
2.092386e+003, 1.828603e-001
2.094315e+003, 1.829901e-001
2.096243e+003, 1.836185e-001
2.098172e+003, 1.840055e-001
2.100100e+003, 1.840412e-001
2.102029e+003, 1.843795e-001
2.103957e+003, 1.844323e-001
2.105885e+003, 1.842568e-001
2.107814e+003, 1.843401e-001
2.109742e+003, 1.843415e-001
2.111671e+003, 1.842788e-001
2.113599e+003, 1.838408e-001
2.115528e+003, 1.838490e-001
2.117456e+003, 1.842765e-001
2.119385e+003, 1.838346e-001
2.121313e+003, 1.832040e-001
2.123242e+003, 1.837543e-001
2.125170e+003, 1.836878e-001
2.127099e+003, 1.831685e-001
2.129027e+003, 1.831211e-001
2.130956e+003, 1.828687e-001
2.132884e+003, 1.818945e-001
2.134813e+003, 1.815260e-001
2.136741e+003, 1.826199e-001
2.138669e+003, 1.832144e-001
2.140598e+003, 1.827753e-001
2.142526e+003, 1.822110e-001
2.144455e+003, 1.821428e-001
2.146383e+003, 1.823293e-001
2.148312e+003, 1.827910e-001
2.150240e+003, 1.832876e-001
2.152169e+003, 1.831402e-001
2.154097e+003, 1.822018e-001
2.156026e+003, 1.814651e-001
2.157954e+003, 1.829499e-001
2.159883e+003, 1.855550e-001
2.161811e+003, 1.859252e-001
2.163740e+003, 1.856454e-001
2.165668e+003, 1.861304e-001
2.167596e+003, 1.856935e-001
2.169525e+003, 1.850403e-001
2.171453e+003, 1.845767e-001
2.173382e+003, 1.851240e-001
2.175310e+003, 1.861116e-001
2.177239e+003, 1.868991e-001
2.179167e+003, 1.872626e-001
2.181096e+003, 1.870452e-001
2.183024e+003, 1.872429e-001
2.184953e+003, 1.873427e-001
2.186881e+003, 1.878322e-001
2.188810e+003, 1.881064e-001
2.190738e+003, 1.882378e-001
2.192667e+003, 1.876282e-001
2.194595e+003, 1.867379e-001
2.196523e+003, 1.869456e-001
2.198452e+003, 1.878785e-001
2.200380e+003, 1.877924e-001
2.202309e+003, 1.867996e-001
2.204237e+003, 1.866354e-001
2.206166e+003, 1.873431e-001
2.208094e+003, 1.879570e-001
2.210023e+003, 1.886005e-001
2.211951e+003, 1.888500e-001
2.213880e+003, 1.884827e-001
2.215808e+003, 1.885002e-001
2.217737e+003, 1.888497e-001
2.219665e+003, 1.893395e-001
2.221594e+003, 1.887681e-001
2.223522e+003, 1.878319e-001
2.225450e+003, 1.886575e-001
2.227379e+003, 1.892519e-001
2.229307e+003, 1.894310e-001
2.231236e+003, 1.898465e-001
2.233164e+003, 1.902304e-001
2.235093e+003, 1.899655e-001
2.237021e+003, 1.900568e-001
2.238950e+003, 1.907844e-001
2.240878e+003, 1.909288e-001
2.242807e+003, 1.905989e-001
2.244735e+003, 1.904575e-001
2.246664e+003, 1.908899e-001
2.248592e+003, 1.914390e-001
2.250521e+003, 1.911719e-001
2.252449e+003, 1.910168e-001
2.254377e+003, 1.911544e-001
2.256306e+003, 1.913582e-001
2.258234e+003, 1.912408e-001
2.260163e+003, 1.906046e-001
2.262091e+003, 1.912129e-001
2.264020e+003, 1.919943e-001
2.265948e+003, 1.919588e-001
2.267877e+003, 1.917768e-001
2.269805e+003, 1.920883e-001
2.271734e+003, 1.926403e-001
2.273662e+003, 1.925748e-001
2.275591e+003, 1.927585e-001
2.277519e+003, 1.931313e-001
2.279448e+003, 1.930583e-001
2.281376e+003, 1.929929e-001
2.283304e+003, 1.932450e-001
2.285233e+003, 1.935820e-001
2.287161e+003, 1.935997e-001
2.289090e+003, 1.935487e-001
2.291018e+003, 1.937304e-001
2.292947e+003, 1.937493e-001
2.294875e+003, 1.932835e-001
2.296804e+003, 1.930923e-001
2.298732e+003, 1.934758e-001
2.300661e+003, 1.937200e-001
2.302589e+003, 1.933444e-001
2.304518e+003, 1.932690e-001
2.306446e+003, 1.938864e-001
2.308375e+003, 1.943674e-001
2.310303e+003, 1.938939e-001
2.312231e+003, 1.938962e-001
2.314160e+003, 1.941721e-001
2.316088e+003, 1.943491e-001
2.318017e+003, 1.946931e-001
2.319945e+003, 1.951898e-001
2.321874e+003, 1.955288e-001
2.323802e+003, 1.957431e-001
2.325731e+003, 1.949458e-001
2.327659e+003, 1.943807e-001
2.329588e+003, 1.946476e-001
2.331516e+003, 1.946786e-001
2.333445e+003, 1.943259e-001
2.335373e+003, 1.941580e-001
2.337302e+003, 1.942852e-001
2.339230e+003, 1.944727e-001
2.341158e+003, 1.947609e-001
2.343087e+003, 1.950870e-001
2.345015e+003, 1.948922e-001
2.346944e+003, 1.947523e-001
2.348872e+003, 1.943258e-001
2.350801e+003, 1.942685e-001
2.352729e+003, 1.944911e-001
2.354658e+003, 1.946604e-001
2.356586e+003, 1.948918e-001
2.358515e+003, 1.949595e-001
2.360443e+003, 1.948231e-001
2.362372e+003, 1.947506e-001
2.364300e+003, 1.947117e-001
2.366229e+003, 1.943472e-001
2.368157e+003, 1.943568e-001
2.370085e+003, 1.945213e-001
2.372014e+003, 1.942872e-001
2.373942e+003, 1.940706e-001
2.375871e+003, 1.943993e-001
2.377799e+003, 1.942554e-001
2.379728e+003, 1.939726e-001
2.381656e+003, 1.940169e-001
2.383585e+003, 1.941210e-001
2.385513e+003, 1.941926e-001
2.387442e+003, 1.940573e-001
2.389370e+003, 1.939102e-001
2.391299e+003, 1.938500e-001
2.393227e+003, 1.941478e-001
2.395156e+003, 1.944473e-001
2.397084e+003, 1.942715e-001
2.399012e+003, 1.944396e-001
2.400941e+003, 1.948417e-001
2.402869e+003, 1.942681e-001
2.404798e+003, 1.937259e-001
2.406726e+003, 1.938407e-001
2.408655e+003, 1.943772e-001
2.410583e+003, 1.947175e-001
2.412512e+003, 1.946057e-001
2.414440e+003, 1.944251e-001
2.416369e+003, 1.941167e-001
2.418297e+003, 1.942640e-001
2.420226e+003, 1.942277e-001
2.422154e+003, 1.946071e-001
2.424083e+003, 1.947723e-001
2.426011e+003, 1.944325e-001
2.427939e+003, 1.943325e-001
2.429868e+003, 1.944463e-001
2.431796e+003, 1.942982e-001
2.433725e+003, 1.944116e-001
2.435653e+003, 1.946028e-001
2.437582e+003, 1.939862e-001
2.439510e+003, 1.940567e-001
2.441439e+003, 1.944978e-001
2.443367e+003, 1.947034e-001
2.445296e+003, 1.946497e-001
2.447224e+003, 1.945808e-001
2.449153e+003, 1.948009e-001
2.451081e+003, 1.951517e-001
2.453010e+003, 1.951456e-001
2.454938e+003, 1.948680e-001
2.456866e+003, 1.945300e-001
2.458795e+003, 1.946343e-001
2.460723e+003, 1.950350e-001
2.462652e+003, 1.952219e-001
2.464580e+003, 1.950342e-001
2.466509e+003, 1.946112e-001
2.468437e+003, 1.945079e-001
2.470366e+003, 1.948926e-001
2.472294e+003, 1.952885e-001
2.474223e+003, 1.949743e-001
2.476151e+003, 1.948707e-001
2.478080e+003, 1.953682e-001
2.480008e+003, 1.954175e-001
2.481937e+003, 1.955360e-001
2.483865e+003, 1.957604e-001
2.485793e+003, 1.954036e-001
2.487722e+003, 1.951152e-001
2.489650e+003, 1.953003e-001
2.491579e+003, 1.954755e-001
2.493507e+003, 1.957850e-001
2.495436e+003, 1.957079e-001
2.497364e+003, 1.951269e-001
2.499293e+003, 1.953895e-001
2.501221e+003, 1.955439e-001
2.503150e+003, 1.952830e-001
2.505078e+003, 1.955113e-001
2.507007e+003, 1.958386e-001
2.508935e+003, 1.961880e-001
2.510864e+003, 1.965500e-001
2.512792e+003, 1.963601e-001
2.514720e+003, 1.959415e-001
2.516649e+003, 1.962165e-001
2.518577e+003, 1.966627e-001
2.520506e+003, 1.968737e-001
2.522434e+003, 1.965606e-001
2.524363e+003, 1.966130e-001
2.526291e+003, 1.968633e-001
2.528220e+003, 1.967370e-001
2.530148e+003, 1.966082e-001
2.532077e+003, 1.967828e-001
2.534005e+003, 1.972715e-001
2.535934e+003, 1.975421e-001
2.537862e+003, 1.974576e-001
2.539791e+003, 1.973704e-001
2.541719e+003, 1.976117e-001
2.543647e+003, 1.976017e-001
2.545576e+003, 1.974842e-001
2.547504e+003, 1.974563e-001
2.549433e+003, 1.974196e-001
2.551361e+003, 1.975269e-001
2.553290e+003, 1.979266e-001
2.555218e+003, 1.982378e-001
2.557147e+003, 1.981253e-001
2.559075e+003, 1.980498e-001
2.561004e+003, 1.982801e-001
2.562932e+003, 1.983693e-001
2.564861e+003, 1.982501e-001
2.566789e+003, 1.985195e-001
2.568718e+003, 1.989253e-001
2.570646e+003, 1.988104e-001
2.572574e+003, 1.987140e-001
2.574503e+003, 1.990970e-001
2.576431e+003, 1.991789e-001
2.578360e+003, 1.995165e-001
2.580288e+003, 1.995537e-001
2.582217e+003, 1.991936e-001
2.584145e+003, 1.997071e-001
2.586074e+003, 2.001099e-001
2.588002e+003, 2.001406e-001
2.589931e+003, 2.004436e-001
2.591859e+003, 2.005694e-001
2.593788e+003, 2.005687e-001
2.595716e+003, 2.009225e-001
2.597645e+003, 2.009726e-001
2.599573e+003, 2.010878e-001
2.601501e+003, 2.013549e-001
2.603430e+003, 2.015142e-001
2.605358e+003, 2.014577e-001
2.607287e+003, 2.014772e-001
2.609215e+003, 2.015585e-001
2.611144e+003, 2.020828e-001
2.613072e+003, 2.023607e-001
2.615001e+003, 2.024455e-001
2.616929e+003, 2.027850e-001
2.618858e+003, 2.029914e-001
2.620786e+003, 2.031251e-001
2.622715e+003, 2.033858e-001
2.624643e+003, 2.031471e-001
2.626572e+003, 2.030184e-001
2.628500e+003, 2.030758e-001
2.630428e+003, 2.031835e-001
2.632357e+003, 2.035209e-001
2.634285e+003, 2.040415e-001
2.636214e+003, 2.042079e-001
2.638142e+003, 2.044596e-001
2.640071e+003, 2.049719e-001
2.641999e+003, 2.051115e-001
2.643928e+003, 2.048884e-001
2.645856e+003, 2.048048e-001
2.647785e+003, 2.047810e-001
2.649713e+003, 2.048252e-001
2.651642e+003, 2.055356e-001
2.653570e+003, 2.057262e-001
2.655499e+003, 2.054720e-001
2.657427e+003, 2.054061e-001
2.659355e+003, 2.056218e-001
2.661284e+003, 2.054772e-001
2.663212e+003, 2.056525e-001
2.665141e+003, 2.058599e-001
2.667069e+003, 2.059068e-001
2.668998e+003, 2.057443e-001
2.670926e+003, 2.060433e-001
2.672855e+003, 2.063122e-001
2.674783e+003, 2.062366e-001
2.676712e+003, 2.063931e-001
2.678640e+003, 2.065029e-001
2.680569e+003, 2.065151e-001
2.682497e+003, 2.066419e-001
2.684426e+003, 2.068148e-001
2.686354e+003, 2.067952e-001
2.688282e+003, 2.069062e-001
2.690211e+003, 2.071976e-001
2.692139e+003, 2.073016e-001
2.694068e+003, 2.074097e-001
2.695996e+003, 2.074683e-001
2.697925e+003, 2.075195e-001
2.699853e+003, 2.074622e-001
2.701782e+003, 2.078167e-001
2.703710e+003, 2.081394e-001
2.705639e+003, 2.082964e-001
2.707567e+003, 2.082932e-001
2.709496e+003, 2.083324e-001
2.711424e+003, 2.083631e-001
2.713353e+003, 2.084549e-001
2.715281e+003, 2.085977e-001
2.717209e+003, 2.086409e-001
2.719138e+003, 2.089137e-001
2.721066e+003, 2.088613e-001
2.722995e+003, 2.089256e-001
2.724923e+003, 2.091514e-001
2.726852e+003, 2.094178e-001
2.728780e+003, 2.094308e-001
2.730709e+003, 2.096689e-001
2.732637e+003, 2.099696e-001
2.734566e+003, 2.100039e-001
2.736494e+003, 2.103653e-001
2.738423e+003, 2.101617e-001
2.740351e+003, 2.100607e-001
2.742280e+003, 2.104221e-001
2.744208e+003, 2.103659e-001
2.746136e+003, 2.104461e-001
2.748065e+003, 2.106114e-001
2.749993e+003, 2.104379e-001
2.751922e+003, 2.105744e-001
2.753850e+003, 2.106934e-001
2.755779e+003, 2.109281e-001
2.757707e+003, 2.111376e-001
2.759636e+003, 2.113397e-001
2.761564e+003, 2.113345e-001
2.763493e+003, 2.111704e-001
2.765421e+003, 2.112620e-001
2.767350e+003, 2.117293e-001
2.769278e+003, 2.120287e-001
2.771207e+003, 2.121740e-001
2.773135e+003, 2.120994e-001
2.775063e+003, 2.120852e-001
2.776992e+003, 2.123026e-001
2.778920e+003, 2.123716e-001
2.780849e+003, 2.123365e-001
2.782777e+003, 2.124287e-001
2.784706e+003, 2.124605e-001
2.786634e+003, 2.125472e-001
2.788563e+003, 2.127047e-001
2.790491e+003, 2.130828e-001
2.792420e+003, 2.131942e-001
2.794348e+003, 2.130278e-001
2.796277e+003, 2.132620e-001
2.798205e+003, 2.134854e-001
2.800134e+003, 2.133905e-001
2.802062e+003, 2.136703e-001
2.803990e+003, 2.137787e-001
2.805919e+003, 2.138374e-001
2.807847e+003, 2.142519e-001
2.809776e+003, 2.145281e-001
2.811704e+003, 2.144107e-001
2.813633e+003, 2.144559e-001
2.815561e+003, 2.147316e-001
2.817490e+003, 2.147646e-001
2.819418e+003, 2.145711e-001
2.821347e+003, 2.147796e-001
2.823275e+003, 2.148306e-001
2.825204e+003, 2.150850e-001
2.827132e+003, 2.151689e-001
2.829061e+003, 2.150906e-001
2.830989e+003, 2.154286e-001
2.832917e+003, 2.157356e-001
2.834846e+003, 2.158644e-001
2.836774e+003, 2.159232e-001
2.838703e+003, 2.159543e-001
2.840631e+003, 2.162323e-001
2.842560e+003, 2.163628e-001
2.844488e+003, 2.162474e-001
2.846417e+003, 2.159632e-001
2.848345e+003, 2.156652e-001
2.850274e+003, 2.155545e-001
2.852202e+003, 2.152172e-001
2.854131e+003, 2.152011e-001
2.856059e+003, 2.154199e-001
2.857988e+003, 2.156093e-001
2.859916e+003, 2.164542e-001
2.861844e+003, 2.169952e-001
2.863773e+003, 2.169372e-001
2.865701e+003, 2.177520e-001
2.867630e+003, 2.182210e-001
2.869558e+003, 2.179356e-001
2.871487e+003, 2.177442e-001
2.873415e+003, 2.177390e-001
2.875344e+003, 2.178359e-001
2.877272e+003, 2.183365e-001
2.879201e+003, 2.184147e-001
2.881129e+003, 2.183301e-001
2.883058e+003, 2.185486e-001
2.884986e+003, 2.188955e-001
2.886915e+003, 2.188864e-001
2.888843e+003, 2.187760e-001
2.890771e+003, 2.189343e-001
2.892700e+003, 2.190554e-001
2.894628e+003, 2.193741e-001
2.896557e+003, 2.199278e-001
2.898485e+003, 2.198875e-001
2.900414e+003, 2.197129e-001
2.902342e+003, 2.199115e-001
2.904271e+003, 2.197456e-001
2.906199e+003, 2.198287e-001
2.908128e+003, 2.203642e-001
2.910056e+003, 2.204164e-001
2.911985e+003, 2.200747e-001
2.913913e+003, 2.200102e-001
2.915842e+003, 2.199832e-001
2.917770e+003, 2.194889e-001
2.919698e+003, 2.192059e-001
2.921627e+003, 2.193900e-001
2.923555e+003, 2.200122e-001
2.925484e+003, 2.203849e-001
2.927412e+003, 2.206368e-001
2.929341e+003, 2.205969e-001
2.931269e+003, 2.206659e-001
2.933198e+003, 2.211225e-001
2.935126e+003, 2.214495e-001
2.937055e+003, 2.214586e-001
2.938983e+003, 2.216905e-001
2.940912e+003, 2.224724e-001
2.942840e+003, 2.234288e-001
2.944769e+003, 2.238028e-001
2.946697e+003, 2.238321e-001
2.948625e+003, 2.235167e-001
2.950554e+003, 2.235644e-001
2.952482e+003, 2.240110e-001
2.954411e+003, 2.244634e-001
2.956339e+003, 2.247645e-001
2.958268e+003, 2.247582e-001
2.960196e+003, 2.248708e-001
2.962125e+003, 2.250899e-001
2.964053e+003, 2.256225e-001
2.965982e+003, 2.257138e-001
2.967910e+003, 2.255193e-001
2.969839e+003, 2.255958e-001
2.971767e+003, 2.262575e-001
2.973696e+003, 2.268250e-001
2.975624e+003, 2.269896e-001
2.977552e+003, 2.270420e-001
2.979481e+003, 2.272515e-001
2.981409e+003, 2.275667e-001
2.983338e+003, 2.281639e-001
2.985266e+003, 2.290225e-001
2.987195e+003, 2.291687e-001
2.989123e+003, 2.289519e-001
2.991052e+003, 2.289919e-001
2.992980e+003, 2.293537e-001
2.994909e+003, 2.296989e-001
2.996837e+003, 2.295925e-001
2.998766e+003, 2.299376e-001
3.000694e+003, 2.303676e-001
3.002623e+003, 2.306356e-001
3.004551e+003, 2.310284e-001
3.006479e+003, 2.315020e-001
3.008408e+003, 2.316121e-001
3.010336e+003, 2.318583e-001
3.012265e+003, 2.320023e-001
3.014193e+003, 2.322632e-001
3.016122e+003, 2.326297e-001
3.018050e+003, 2.331110e-001
3.019979e+003, 2.334405e-001
3.021907e+003, 2.335689e-001
3.023836e+003, 2.339358e-001
3.025764e+003, 2.344138e-001
3.027693e+003, 2.351772e-001
3.029621e+003, 2.353021e-001
3.031550e+003, 2.351668e-001
3.033478e+003, 2.352718e-001
3.035406e+003, 2.352557e-001
3.037335e+003, 2.357787e-001
3.039263e+003, 2.362275e-001
3.041192e+003, 2.365180e-001
3.043120e+003, 2.370698e-001
3.045049e+003, 2.373312e-001
3.046977e+003, 2.375334e-001
3.048906e+003, 2.377776e-001
3.050834e+003, 2.384423e-001
3.052763e+003, 2.387049e-001
3.054691e+003, 2.386872e-001
3.056620e+003, 2.391693e-001
3.058548e+003, 2.395123e-001
3.060477e+003, 2.398553e-001
3.062405e+003, 2.401083e-001
3.064333e+003, 2.400738e-001
3.066262e+003, 2.402125e-001
3.068190e+003, 2.408336e-001
3.070119e+003, 2.410690e-001
3.072047e+003, 2.414149e-001
3.073976e+003, 2.418247e-001
3.075904e+003, 2.421717e-001
3.077833e+003, 2.428914e-001
3.079761e+003, 2.432295e-001
3.081690e+003, 2.432012e-001
3.083618e+003, 2.434072e-001
3.085547e+003, 2.438843e-001
3.087475e+003, 2.441063e-001
3.089404e+003, 2.442338e-001
3.091332e+003, 2.449562e-001
3.093260e+003, 2.456179e-001
3.095189e+003, 2.455225e-001
3.097117e+003, 2.454148e-001
3.099046e+003, 2.456808e-001
3.100974e+003, 2.457324e-001
3.102903e+003, 2.459355e-001
3.104831e+003, 2.462071e-001
3.106760e+003, 2.464457e-001
3.108688e+003, 2.469529e-001
3.110617e+003, 2.473837e-001
3.112545e+003, 2.479262e-001
3.114474e+003, 2.480611e-001
3.116402e+003, 2.483451e-001
3.118331e+003, 2.490910e-001
3.120259e+003, 2.487000e-001
3.122188e+003, 2.484463e-001
3.124116e+003, 2.490052e-001
3.126044e+003, 2.496389e-001
3.127973e+003, 2.501892e-001
3.129901e+003, 2.501969e-001
3.131830e+003, 2.501581e-001
3.133758e+003, 2.501329e-001
3.135687e+003, 2.501965e-001
3.137615e+003, 2.506040e-001
3.139544e+003, 2.518787e-001
3.141472e+003, 2.521861e-001
3.143401e+003, 2.519956e-001
3.145329e+003, 2.518356e-001
3.147258e+003, 2.518986e-001
3.149186e+003, 2.523438e-001
3.151115e+003, 2.528074e-001
3.153043e+003, 2.529970e-001
3.154971e+003, 2.531789e-001
3.156900e+003, 2.534462e-001
3.158828e+003, 2.533440e-001
3.160757e+003, 2.534537e-001
3.162685e+003, 2.538291e-001
3.164614e+003, 2.543050e-001
3.166542e+003, 2.549463e-001
3.168471e+003, 2.548155e-001
3.170399e+003, 2.549107e-001
3.172328e+003, 2.550929e-001
3.174256e+003, 2.549164e-001
3.176185e+003, 2.547007e-001
3.178113e+003, 2.550474e-001
3.180042e+003, 2.558548e-001
3.181970e+003, 2.557624e-001
3.183898e+003, 2.556244e-001
3.185827e+003, 2.558092e-001
3.187755e+003, 2.557755e-001
3.189684e+003, 2.555975e-001
3.191612e+003, 2.559222e-001
3.193541e+003, 2.561339e-001
3.195469e+003, 2.564600e-001
3.197398e+003, 2.565503e-001
3.199326e+003, 2.564893e-001
3.201255e+003, 2.565302e-001
3.203183e+003, 2.565978e-001
3.205112e+003, 2.565981e-001
3.207040e+003, 2.566250e-001
3.208969e+003, 2.563210e-001
3.210897e+003, 2.562257e-001
3.212825e+003, 2.560148e-001
3.214754e+003, 2.557718e-001
3.216682e+003, 2.563205e-001
3.218611e+003, 2.564360e-001
3.220539e+003, 2.559502e-001
3.222468e+003, 2.551285e-001
3.224396e+003, 2.546565e-001
3.226325e+003, 2.546189e-001
3.228253e+003, 2.550363e-001
3.230182e+003, 2.548820e-001
3.232110e+003, 2.546307e-001
3.234039e+003, 2.546805e-001
3.235967e+003, 2.541746e-001
3.237896e+003, 2.543410e-001
3.239824e+003, 2.547601e-001
3.241752e+003, 2.539585e-001
3.243681e+003, 2.532410e-001
3.245609e+003, 2.534649e-001
3.247538e+003, 2.533318e-001
3.249466e+003, 2.528126e-001
3.251395e+003, 2.525422e-001
3.253323e+003, 2.519631e-001
3.255252e+003, 2.519383e-001
3.257180e+003, 2.522587e-001
3.259109e+003, 2.515483e-001
3.261037e+003, 2.508805e-001
3.262966e+003, 2.506453e-001
3.264894e+003, 2.503788e-001
3.266823e+003, 2.501937e-001
3.268751e+003, 2.501480e-001
3.270679e+003, 2.501672e-001
3.272608e+003, 2.501439e-001
3.274536e+003, 2.500090e-001
3.276465e+003, 2.498482e-001
3.278393e+003, 2.494515e-001
3.280322e+003, 2.492301e-001
3.282250e+003, 2.486189e-001
3.284179e+003, 2.480689e-001
3.286107e+003, 2.478485e-001
3.288036e+003, 2.478254e-001
3.289964e+003, 2.482209e-001
3.291893e+003, 2.486405e-001
3.293821e+003, 2.486973e-001
3.295750e+003, 2.486259e-001
3.297678e+003, 2.483476e-001
3.299606e+003, 2.476956e-001
3.301535e+003, 2.471190e-001
3.303463e+003, 2.475544e-001
3.305392e+003, 2.476311e-001
3.307320e+003, 2.466549e-001
3.309249e+003, 2.461416e-001
3.311177e+003, 2.462576e-001
3.313106e+003, 2.454111e-001
3.315034e+003, 2.447982e-001
3.316963e+003, 2.452374e-001
3.318891e+003, 2.454553e-001
3.320820e+003, 2.450415e-001
3.322748e+003, 2.447796e-001
3.324677e+003, 2.447929e-001
3.326605e+003, 2.442437e-001
3.328533e+003, 2.433854e-001
3.330462e+003, 2.432050e-001
3.332390e+003, 2.434507e-001
3.334319e+003, 2.429404e-001
3.336247e+003, 2.422487e-001
3.338176e+003, 2.421452e-001
3.340104e+003, 2.420145e-001
3.342033e+003, 2.416947e-001
3.343961e+003, 2.416608e-001
3.345890e+003, 2.406268e-001
3.347818e+003, 2.394292e-001
3.349747e+003, 2.391005e-001
3.351675e+003, 2.389424e-001
3.353604e+003, 2.388957e-001
3.355532e+003, 2.382810e-001
3.357460e+003, 2.372453e-001
3.359389e+003, 2.369326e-001
3.361317e+003, 2.365027e-001
3.363246e+003, 2.362170e-001
3.365174e+003, 2.359366e-001
3.367103e+003, 2.355526e-001
3.369031e+003, 2.350875e-001
3.370960e+003, 2.346016e-001
3.372888e+003, 2.344820e-001
3.374817e+003, 2.337889e-001
3.376745e+003, 2.331011e-001
3.378674e+003, 2.331085e-001
3.380602e+003, 2.323434e-001
3.382531e+003, 2.320917e-001
3.384459e+003, 2.323869e-001
3.386387e+003, 2.321955e-001
3.388316e+003, 2.312227e-001
3.390244e+003, 2.306250e-001
3.392173e+003, 2.305706e-001
3.394101e+003, 2.306630e-001
3.396030e+003, 2.307314e-001
3.397958e+003, 2.302577e-001
3.399887e+003, 2.298920e-001
3.401815e+003, 2.297239e-001
3.403744e+003, 2.290434e-001
3.405672e+003, 2.286735e-001
3.407601e+003, 2.284934e-001
3.409529e+003, 2.284923e-001
3.411458e+003, 2.283789e-001
3.413386e+003, 2.281880e-001
3.415314e+003, 2.279033e-001
3.417243e+003, 2.271625e-001
3.419171e+003, 2.264435e-001
3.421100e+003, 2.261293e-001
3.423028e+003, 2.261268e-001
3.424957e+003, 2.253224e-001
3.426885e+003, 2.243532e-001
3.428814e+003, 2.246404e-001
3.430742e+003, 2.246426e-001
3.432671e+003, 2.243087e-001
3.434599e+003, 2.237878e-001
3.436528e+003, 2.231955e-001
3.438456e+003, 2.226649e-001
3.440385e+003, 2.224250e-001
3.442313e+003, 2.225469e-001
3.444241e+003, 2.223878e-001
3.446170e+003, 2.218060e-001
3.448098e+003, 2.210207e-001
3.450027e+003, 2.205862e-001
3.451955e+003, 2.202586e-001
3.453884e+003, 2.197585e-001
3.455812e+003, 2.193661e-001
3.457741e+003, 2.191999e-001
3.459669e+003, 2.191180e-001
3.461598e+003, 2.186879e-001
3.463526e+003, 2.180987e-001
3.465455e+003, 2.175750e-001
3.467383e+003, 2.175186e-001
3.469312e+003, 2.171875e-001
3.471240e+003, 2.162146e-001
3.473168e+003, 2.148802e-001
3.475097e+003, 2.146752e-001
3.477025e+003, 2.146850e-001
3.478954e+003, 2.134843e-001
3.480882e+003, 2.129909e-001
3.482811e+003, 2.132349e-001
3.484739e+003, 2.124091e-001
3.486668e+003, 2.112547e-001
3.488596e+003, 2.111246e-001
3.490525e+003, 2.105502e-001
3.492453e+003, 2.094621e-001
3.494382e+003, 2.089655e-001
3.496310e+003, 2.088439e-001
3.498239e+003, 2.081304e-001
3.500167e+003, 2.073537e-001
3.502095e+003, 2.066140e-001
3.504024e+003, 2.054745e-001
3.505952e+003, 2.045687e-001
3.507881e+003, 2.048488e-001
3.509809e+003, 2.043815e-001
3.511738e+003, 2.030983e-001
3.513666e+003, 2.028678e-001
3.515595e+003, 2.022446e-001
3.517523e+003, 2.015384e-001
3.519452e+003, 2.010126e-001
3.521380e+003, 2.002997e-001
3.523309e+003, 1.993226e-001
3.525237e+003, 1.985826e-001
3.527166e+003, 1.977516e-001
3.529094e+003, 1.978758e-001
3.531022e+003, 1.981527e-001
3.532951e+003, 1.970682e-001
3.534879e+003, 1.966341e-001
3.536808e+003, 1.967894e-001
3.538736e+003, 1.955406e-001
3.540665e+003, 1.938923e-001
3.542593e+003, 1.934987e-001
3.544522e+003, 1.937257e-001
3.546450e+003, 1.938087e-001
3.548379e+003, 1.932066e-001
3.550307e+003, 1.927741e-001
3.552236e+003, 1.921591e-001
3.554164e+003, 1.916384e-001
3.556093e+003, 1.911128e-001
3.558021e+003, 1.902892e-001
3.559949e+003, 1.894571e-001
3.561878e+003, 1.898522e-001
3.563806e+003, 1.894541e-001
3.565735e+003, 1.885638e-001
3.567663e+003, 1.876689e-001
3.569592e+003, 1.872624e-001
3.571520e+003, 1.871977e-001
3.573449e+003, 1.864254e-001
3.575377e+003, 1.858536e-001
3.577306e+003, 1.852388e-001
3.579234e+003, 1.842951e-001
3.581163e+003, 1.845632e-001
3.583091e+003, 1.851685e-001
3.585020e+003, 1.845828e-001
3.586948e+003, 1.836793e-001
3.588876e+003, 1.835153e-001
3.590805e+003, 1.840346e-001
3.592733e+003, 1.841662e-001
3.594662e+003, 1.840053e-001
3.596590e+003, 1.838987e-001
3.598519e+003, 1.830351e-001
3.600447e+003, 1.822904e-001
3.602376e+003, 1.818423e-001
3.604304e+003, 1.820168e-001
3.606233e+003, 1.827618e-001
3.608161e+003, 1.824786e-001
3.610090e+003, 1.816185e-001
3.612018e+003, 1.815080e-001
3.613947e+003, 1.815387e-001
3.615875e+003, 1.813853e-001
3.617803e+003, 1.809964e-001
3.619732e+003, 1.807765e-001
3.621660e+003, 1.807356e-001
3.623589e+003, 1.809598e-001
3.625517e+003, 1.813679e-001
3.627446e+003, 1.824050e-001
3.629374e+003, 1.830460e-001
3.631303e+003, 1.821131e-001
3.633231e+003, 1.807736e-001
3.635160e+003, 1.806123e-001
3.637088e+003, 1.818422e-001
3.639017e+003, 1.825960e-001
3.640945e+003, 1.823125e-001
3.642874e+003, 1.822473e-001
3.644802e+003, 1.825554e-001
3.646730e+003, 1.827171e-001
3.648659e+003, 1.832138e-001
3.650587e+003, 1.829651e-001
3.652516e+003, 1.828925e-001
3.654444e+003, 1.829417e-001
3.656373e+003, 1.823850e-001
3.658301e+003, 1.818140e-001
3.660230e+003, 1.822077e-001
3.662158e+003, 1.830332e-001
3.664087e+003, 1.830907e-001
3.666015e+003, 1.831503e-001
3.667944e+003, 1.839389e-001
3.669872e+003, 1.849477e-001
3.671801e+003, 1.847730e-001
3.673729e+003, 1.848296e-001
3.675657e+003, 1.851123e-001
3.677586e+003, 1.844836e-001
3.679514e+003, 1.846167e-001
3.681443e+003, 1.844317e-001
3.683371e+003, 1.840090e-001
3.685300e+003, 1.836261e-001
3.687228e+003, 1.846538e-001
3.689157e+003, 1.858082e-001
3.691085e+003, 1.850709e-001
3.693014e+003, 1.845667e-001
3.694942e+003, 1.851212e-001
3.696871e+003, 1.860502e-001
3.698799e+003, 1.869300e-001
3.700728e+003, 1.875464e-001
3.702656e+003, 1.871505e-001
3.704584e+003, 1.869896e-001
3.706513e+003, 1.876620e-001
3.708441e+003, 1.874702e-001
3.710370e+003, 1.874478e-001
3.712298e+003, 1.878852e-001
3.714227e+003, 1.875906e-001
3.716155e+003, 1.866823e-001
3.718084e+003, 1.864332e-001
3.720012e+003, 1.873560e-001
3.721941e+003, 1.895324e-001
3.723869e+003, 1.897203e-001
3.725798e+003, 1.889224e-001
3.727726e+003, 1.889420e-001
3.729655e+003, 1.889760e-001
3.731583e+003, 1.895942e-001
3.733511e+003, 1.899473e-001
3.735440e+003, 1.908052e-001
3.737368e+003, 1.901183e-001
3.739297e+003, 1.892683e-001
3.741225e+003, 1.910083e-001
3.743154e+003, 1.921144e-001
3.745082e+003, 1.912535e-001
3.747011e+003, 1.906983e-001
3.748939e+003, 1.910661e-001
3.750868e+003, 1.909155e-001
3.752796e+003, 1.904927e-001
3.754725e+003, 1.902759e-001
3.756653e+003, 1.908874e-001
3.758582e+003, 1.915190e-001
3.760510e+003, 1.917497e-001
3.762438e+003, 1.913206e-001
3.764367e+003, 1.911038e-001
3.766295e+003, 1.911407e-001
3.768224e+003, 1.915582e-001
3.770152e+003, 1.923214e-001
3.772081e+003, 1.920952e-001
3.774009e+003, 1.917516e-001
3.775938e+003, 1.922843e-001
3.777866e+003, 1.924224e-001
3.779795e+003, 1.919868e-001
3.781723e+003, 1.918263e-001
3.783652e+003, 1.922980e-001
3.785580e+003, 1.921276e-001
3.787509e+003, 1.919053e-001
3.789437e+003, 1.922183e-001
3.791365e+003, 1.923168e-001
3.793294e+003, 1.930084e-001
3.795222e+003, 1.936570e-001
3.797151e+003, 1.933294e-001
3.799079e+003, 1.935634e-001
3.801008e+003, 1.940021e-001
3.802936e+003, 1.936005e-001
3.804865e+003, 1.933677e-001
3.806793e+003, 1.935873e-001
3.808722e+003, 1.934001e-001
3.810650e+003, 1.935827e-001
3.812579e+003, 1.938445e-001
3.814507e+003, 1.942132e-001
3.816436e+003, 1.942603e-001
3.818364e+003, 1.939251e-001
3.820292e+003, 1.945585e-001
3.822221e+003, 1.952247e-001
3.824149e+003, 1.945835e-001
3.826078e+003, 1.941810e-001
3.828006e+003, 1.952776e-001
3.829935e+003, 1.955647e-001
3.831863e+003, 1.948813e-001
3.833792e+003, 1.952634e-001
3.835720e+003, 1.961552e-001
3.837649e+003, 1.966372e-001
3.839577e+003, 1.963549e-001
3.841506e+003, 1.957785e-001
3.843434e+003, 1.959911e-001
3.845363e+003, 1.965370e-001
3.847291e+003, 1.958069e-001
3.849219e+003, 1.952271e-001
3.851148e+003, 1.955353e-001
3.853076e+003, 1.961810e-001
3.855005e+003, 1.967868e-001
3.856933e+003, 1.966258e-001
3.858862e+003, 1.967789e-001
3.860790e+003, 1.963415e-001
3.862719e+003, 1.965178e-001
3.864647e+003, 1.969641e-001
3.866576e+003, 1.967148e-001
3.868504e+003, 1.971703e-001
3.870433e+003, 1.972741e-001
3.872361e+003, 1.969228e-001
3.874290e+003, 1.976016e-001
3.876218e+003, 1.974856e-001
3.878146e+003, 1.966538e-001
3.880075e+003, 1.969071e-001
3.882003e+003, 1.974694e-001
3.883932e+003, 1.978123e-001
3.885860e+003, 1.974395e-001
3.887789e+003, 1.969599e-001
3.889717e+003, 1.968706e-001
3.891646e+003, 1.970672e-001
3.893574e+003, 1.972140e-001
3.895503e+003, 1.971272e-001
3.897431e+003, 1.972657e-001
3.899360e+003, 1.973501e-001
3.901288e+003, 1.980180e-001
3.903217e+003, 1.982900e-001
3.905145e+003, 1.981422e-001
3.907073e+003, 1.976501e-001
3.909002e+003, 1.976026e-001
3.910930e+003, 1.978886e-001
3.912859e+003, 1.978051e-001
3.914787e+003, 1.980256e-001
3.916716e+003, 1.986446e-001
3.918644e+003, 1.992508e-001
3.920573e+003, 1.990566e-001
3.922501e+003, 1.984828e-001
3.924430e+003, 1.979773e-001
3.926358e+003, 1.978825e-001
3.928287e+003, 1.985240e-001
3.930215e+003, 1.990258e-001
3.932144e+003, 1.993340e-001
3.934072e+003, 1.994729e-001
3.936000e+003, 1.994984e-001
3.937929e+003, 2.000603e-001
3.939857e+003, 2.006764e-001
3.941786e+003, 2.002912e-001
3.943714e+003, 1.996139e-001
3.945643e+003, 1.999560e-001
3.947571e+003, 1.999353e-001
3.949500e+003, 1.996846e-001
3.951428e+003, 1.998002e-001
3.953357e+003, 1.996860e-001
3.955285e+003, 1.993447e-001
3.957214e+003, 1.986288e-001
3.959142e+003, 1.989903e-001
3.961071e+003, 1.996484e-001
3.962999e+003, 1.998357e-001
3.964927e+003, 1.993994e-001
3.966856e+003, 1.993418e-001
3.968784e+003, 1.992402e-001
3.970713e+003, 1.992396e-001
3.972641e+003, 2.000559e-001
3.974570e+003, 2.002876e-001
3.976498e+003, 1.998445e-001
3.978427e+003, 1.994056e-001
3.980355e+003, 1.998346e-001
3.982284e+003, 2.007512e-001
3.984212e+003, 2.010611e-001
3.986141e+003, 1.998626e-001
3.988069e+003, 1.992401e-001
3.989998e+003, 1.997837e-001
3.991926e+003, 2.006032e-001
3.993854e+003, 2.009574e-001
3.995783e+003, 2.010927e-001
3.997711e+003, 2.010560e-001
3.999640e+003, 2.004202e-001
4.001568e+003, 0.000000e+000
##END=



