##NAMES=Glauberite
##RRUFFID=R050350
##IDEAL CHEMISTRY=Na_2_Ca(S^6+^O_4_)_2_
##LOCALITY=Soda Lake, San Luis Obispo County, California, USA
##OWNER=RRUFF
##SOURCE=California Institute of Technology
##DESCRIPTION=Colorless tabular crystal
##STATUS=The identification of this mineral has been confirmed by X-ray diffraction and chemical analysis
##URL=rruff.info/R050350
##MEASURED CHEMISTRY=Na_1.90_Ca_1.15_(S_.99_O_4_)_2_
3.991926e+002, 3.034357e-002
4.011211e+002, 2.339341e-002
4.030496e+002, 2.350588e-002
4.049780e+002, 2.402413e-002
4.069065e+002, 2.537508e-002
4.088350e+002, 2.582928e-002
4.107634e+002, 2.576870e-002
4.126919e+002, 2.619849e-002
4.146204e+002, 2.776355e-002
4.165488e+002, 2.866505e-002
4.184773e+002, 2.767552e-002
4.204058e+002, 2.873706e-002
4.223342e+002, 3.198481e-002
4.242627e+002, 3.078849e-002
4.261912e+002, 2.839462e-002
4.281196e+002, 2.915385e-002
4.300481e+002, 3.149466e-002
4.319766e+002, 3.342235e-002
4.339050e+002, 3.418960e-002
4.358335e+002, 3.455837e-002
4.377620e+002, 3.485136e-002
4.396904e+002, 3.593515e-002
4.416189e+002, 3.653974e-002
4.435474e+002, 3.583742e-002
4.454758e+002, 3.620797e-002
4.474043e+002, 3.818374e-002
4.493328e+002, 3.946164e-002
4.512612e+002, 4.043623e-002
4.531897e+002, 4.276731e-002
4.551182e+002, 4.318166e-002
4.570466e+002, 4.241346e-002
4.589751e+002, 4.394050e-002
4.609036e+002, 4.566104e-002
4.628320e+002, 4.733272e-002
4.647605e+002, 4.912733e-002
4.666890e+002, 5.059879e-002
4.686174e+002, 5.205120e-002
4.705459e+002, 5.447863e-002
4.724744e+002, 5.658266e-002
4.744028e+002, 5.567704e-002
4.763313e+002, 5.145488e-002
4.782598e+002, 4.687264e-002
4.801882e+002, 4.446676e-002
4.821167e+002, 4.228758e-002
4.840452e+002, 4.038581e-002
4.859736e+002, 3.888400e-002
4.879021e+002, 3.749963e-002
4.898306e+002, 3.701626e-002
4.917590e+002, 3.619991e-002
4.936875e+002, 3.538752e-002
4.956160e+002, 3.509221e-002
4.975444e+002, 3.550943e-002
4.994729e+002, 3.581718e-002
5.014014e+002, 3.586842e-002
5.033298e+002, 3.620189e-002
5.052583e+002, 3.624235e-002
5.071868e+002, 3.709871e-002
5.091152e+002, 3.781484e-002
5.110437e+002, 3.782652e-002
5.129722e+002, 3.797157e-002
5.149006e+002, 3.856190e-002
5.168291e+002, 3.895274e-002
5.187576e+002, 3.951993e-002
5.206860e+002, 3.981492e-002
5.226145e+002, 3.919249e-002
5.245430e+002, 3.918047e-002
5.264714e+002, 3.943894e-002
5.283999e+002, 3.951218e-002
5.303284e+002, 3.953680e-002
5.322568e+002, 3.929249e-002
5.341853e+002, 3.971704e-002
5.361138e+002, 4.004651e-002
5.380422e+002, 3.966531e-002
5.399707e+002, 3.850655e-002
5.418992e+002, 3.753382e-002
5.438276e+002, 3.723092e-002
5.457561e+002, 3.679568e-002
5.476846e+002, 3.676130e-002
5.496130e+002, 3.714690e-002
5.515415e+002, 3.805314e-002
5.534700e+002, 3.901074e-002
5.553984e+002, 3.944848e-002
5.573269e+002, 3.891711e-002
5.592554e+002, 3.924974e-002
5.611838e+002, 3.974373e-002
5.631123e+002, 3.990802e-002
5.650408e+002, 4.058049e-002
5.669692e+002, 4.113817e-002
5.688977e+002, 4.260424e-002
5.708262e+002, 4.456267e-002
5.727546e+002, 4.610140e-002
5.746831e+002, 4.797216e-002
5.766116e+002, 5.043901e-002
5.785400e+002, 5.317174e-002
5.804685e+002, 5.626297e-002
5.823970e+002, 6.026328e-002
5.843254e+002, 6.522381e-002
5.862539e+002, 7.167631e-002
5.881824e+002, 8.009333e-002
5.901108e+002, 9.158741e-002
5.920393e+002, 1.066146e-001
5.939678e+002, 1.264854e-001
5.958962e+002, 1.540054e-001
5.978247e+002, 1.908228e-001
5.997532e+002, 2.377874e-001
6.016816e+002, 2.910511e-001
6.036101e+002, 3.369662e-001
6.055386e+002, 3.525237e-001
6.074670e+002, 3.293591e-001
6.093955e+002, 2.790103e-001
6.113240e+002, 2.242955e-001
6.132524e+002, 1.801438e-001
6.151809e+002, 1.480764e-001
6.171094e+002, 1.287570e-001
6.190378e+002, 1.236399e-001
6.209663e+002, 1.340544e-001
6.228948e+002, 1.619325e-001
6.248232e+002, 2.101876e-001
6.267517e+002, 2.727919e-001
6.286802e+002, 3.215034e-001
6.306086e+002, 3.253998e-001
6.325371e+002, 2.932245e-001
6.344656e+002, 2.514295e-001
6.363940e+002, 2.130835e-001
6.383225e+002, 1.765522e-001
6.402510e+002, 1.469182e-001
6.421794e+002, 1.411668e-001
6.441079e+002, 1.492317e-001
6.460364e+002, 1.376109e-001
6.479648e+002, 1.100269e-001
6.498933e+002, 8.049015e-002
6.518218e+002, 5.477452e-002
6.537502e+002, 3.793735e-002
6.556787e+002, 2.857460e-002
6.576072e+002, 2.309470e-002
6.595356e+002, 2.022576e-002
6.614641e+002, 1.873405e-002
6.633926e+002, 1.792485e-002
6.653210e+002, 1.764254e-002
6.672495e+002, 1.714407e-002
6.691780e+002, 1.661157e-002
6.711064e+002, 1.606096e-002
6.730349e+002, 1.554563e-002
6.749634e+002, 1.527844e-002
6.768918e+002, 1.526244e-002
6.788203e+002, 1.550943e-002
6.807488e+002, 1.535045e-002
6.826772e+002, 1.499323e-002
6.846057e+002, 1.467189e-002
6.865342e+002, 1.480736e-002
6.884626e+002, 1.519615e-002
6.903911e+002, 1.538940e-002
6.923196e+002, 1.542736e-002
6.942480e+002, 1.544268e-002
6.961765e+002, 1.541144e-002
6.981050e+002, 1.503131e-002
7.000334e+002, 1.437126e-002
7.019619e+002, 1.420487e-002
7.038904e+002, 1.440799e-002
7.058188e+002, 1.453338e-002
7.077473e+002, 1.471421e-002
7.096758e+002, 1.491168e-002
7.116042e+002, 1.497093e-002
7.135327e+002, 1.508919e-002
7.154612e+002, 1.522073e-002
7.173896e+002, 1.566107e-002
7.193181e+002, 1.588609e-002
7.212466e+002, 1.600271e-002
7.231750e+002, 1.604739e-002
7.251035e+002, 1.561935e-002
7.270320e+002, 1.551240e-002
7.289604e+002, 1.602240e-002
7.308889e+002, 1.631109e-002
7.328174e+002, 1.627091e-002
7.347458e+002, 1.621538e-002
7.366743e+002, 1.618650e-002
7.386028e+002, 1.622318e-002
7.405313e+002, 1.638876e-002
7.424597e+002, 1.645779e-002
7.443882e+002, 1.636401e-002
7.463167e+002, 1.650358e-002
7.482451e+002, 1.626001e-002
7.501736e+002, 1.623981e-002
7.521021e+002, 1.655409e-002
7.540305e+002, 1.667813e-002
7.559590e+002, 1.668120e-002
7.578875e+002, 1.673432e-002
7.598159e+002, 1.734871e-002
7.617444e+002, 1.748522e-002
7.636729e+002, 1.685027e-002
7.656013e+002, 1.636494e-002
7.675298e+002, 1.679463e-002
7.694583e+002, 1.718859e-002
7.713867e+002, 1.713024e-002
7.733152e+002, 1.762004e-002
7.752437e+002, 1.836354e-002
7.771721e+002, 1.882541e-002
7.791006e+002, 1.899448e-002
7.810291e+002, 1.871521e-002
7.829575e+002, 1.840377e-002
7.848860e+002, 1.806007e-002
7.868145e+002, 1.784710e-002
7.887429e+002, 1.780665e-002
7.906714e+002, 1.787989e-002
7.925999e+002, 1.826584e-002
7.945283e+002, 1.880586e-002
7.964568e+002, 1.931423e-002
7.983853e+002, 2.000530e-002
8.003137e+002, 2.011150e-002
8.022422e+002, 1.981956e-002
8.041707e+002, 1.899421e-002
8.060991e+002, 1.791810e-002
8.080276e+002, 1.701660e-002
8.099561e+002, 1.639943e-002
8.118845e+002, 1.573484e-002
8.138130e+002, 1.544499e-002
8.157415e+002, 1.539771e-002
8.176699e+002, 1.533440e-002
8.195984e+002, 1.543883e-002
8.215269e+002, 1.537255e-002
8.234553e+002, 1.505823e-002
8.253838e+002, 1.510870e-002
8.273123e+002, 1.540177e-002
8.292407e+002, 1.541094e-002
8.311692e+002, 1.554320e-002
8.330977e+002, 1.562918e-002
8.350261e+002, 1.551632e-002
8.369546e+002, 1.548773e-002
8.388831e+002, 1.544618e-002
8.408115e+002, 1.582609e-002
8.427400e+002, 1.618227e-002
8.446685e+002, 1.625431e-002
8.465969e+002, 1.635054e-002
8.485254e+002, 1.638805e-002
8.504539e+002, 1.642147e-002
8.523823e+002, 1.701059e-002
8.543108e+002, 1.758944e-002
8.562393e+002, 1.774530e-002
8.581677e+002, 1.803704e-002
8.600962e+002, 1.841288e-002
8.620247e+002, 1.881041e-002
8.639531e+002, 1.927113e-002
8.658816e+002, 1.986983e-002
8.678101e+002, 2.048724e-002
8.697385e+002, 2.116330e-002
8.716670e+002, 2.167574e-002
8.735955e+002, 2.201318e-002
8.755239e+002, 2.241659e-002
8.774524e+002, 2.280677e-002
8.793809e+002, 2.339717e-002
8.813093e+002, 2.361838e-002
8.832378e+002, 2.371653e-002
8.851663e+002, 2.414520e-002
8.870947e+002, 2.445758e-002
8.890232e+002, 2.485249e-002
8.909517e+002, 2.533542e-002
8.928801e+002, 2.604832e-002
8.948085e+002, 2.669255e-002
8.967370e+002, 2.752614e-002
8.986655e+002, 2.827949e-002
9.005939e+002, 2.901983e-002
9.025224e+002, 3.007302e-002
9.044509e+002, 3.104587e-002
9.063793e+002, 3.220565e-002
9.083078e+002, 3.311248e-002
9.102363e+002, 3.377574e-002
9.121647e+002, 3.467352e-002
9.140932e+002, 3.549279e-002
9.160217e+002, 3.630713e-002
9.179501e+002, 3.697270e-002
9.198786e+002, 3.774240e-002
9.218071e+002, 3.867375e-002
9.237355e+002, 3.965880e-002
9.256640e+002, 4.017976e-002
9.275925e+002, 4.095642e-002
9.295209e+002, 4.219168e-002
9.314494e+002, 4.346525e-002
9.333779e+002, 4.457927e-002
9.353063e+002, 4.567607e-002
9.372348e+002, 4.677438e-002
9.391633e+002, 4.802256e-002
9.410917e+002, 4.931469e-002
9.430202e+002, 5.084553e-002
9.449487e+002, 5.230501e-002
9.468771e+002, 5.385093e-002
9.488056e+002, 5.558522e-002
9.507341e+002, 5.758588e-002
9.526625e+002, 5.978729e-002
9.545910e+002, 6.197150e-002
9.565195e+002, 6.463871e-002
9.584479e+002, 6.775565e-002
9.603764e+002, 7.102624e-002
9.623049e+002, 7.447784e-002
9.642333e+002, 7.822103e-002
9.661618e+002, 8.222254e-002
9.680903e+002, 8.672368e-002
9.700187e+002, 9.171839e-002
9.719472e+002, 9.694391e-002
9.738757e+002, 1.026713e-001
9.758041e+002, 1.088154e-001
9.777326e+002, 1.151569e-001
9.796611e+002, 1.224083e-001
9.815895e+002, 1.297142e-001
9.835180e+002, 1.372785e-001
9.854465e+002, 1.450382e-001
9.873749e+002, 1.531499e-001
9.893034e+002, 1.619320e-001
9.912319e+002, 1.710276e-001
9.931603e+002, 1.796927e-001
9.950888e+002, 1.878690e-001
9.970173e+002, 1.957158e-001
9.989457e+002, 2.030848e-001
1.000874e+003, 2.095486e-001
1.002803e+003, 2.162623e-001
1.004731e+003, 2.239373e-001
1.006660e+003, 2.323402e-001
1.008588e+003, 2.409103e-001
1.010517e+003, 2.493745e-001
1.012445e+003, 2.583169e-001
1.014373e+003, 2.675509e-001
1.016302e+003, 2.764994e-001
1.018230e+003, 2.857211e-001
1.020159e+003, 2.948002e-001
1.022087e+003, 3.036583e-001
1.024016e+003, 3.126780e-001
1.025944e+003, 3.224516e-001
1.027873e+003, 3.325074e-001
1.029801e+003, 3.434516e-001
1.031730e+003, 3.538807e-001
1.033658e+003, 3.642011e-001
1.035587e+003, 3.753242e-001
1.037515e+003, 3.866743e-001
1.039444e+003, 3.981083e-001
1.041372e+003, 4.108506e-001
1.043301e+003, 4.242469e-001
1.045229e+003, 4.387040e-001
1.047157e+003, 4.538772e-001
1.049086e+003, 4.693122e-001
1.051014e+003, 4.856247e-001
1.052943e+003, 5.031273e-001
1.054871e+003, 5.218726e-001
1.056800e+003, 5.413359e-001
1.058728e+003, 5.610990e-001
1.060657e+003, 5.816189e-001
1.062585e+003, 6.030405e-001
1.064514e+003, 6.247231e-001
1.066442e+003, 6.455675e-001
1.068371e+003, 6.678791e-001
1.070299e+003, 6.911578e-001
1.072228e+003, 7.141238e-001
1.074156e+003, 7.357066e-001
1.076084e+003, 7.559788e-001
1.078013e+003, 7.746935e-001
1.079941e+003, 7.889088e-001
1.081870e+003, 7.972917e-001
1.083798e+003, 7.982739e-001
1.085727e+003, 7.930202e-001
1.087655e+003, 7.854947e-001
1.089584e+003, 7.769242e-001
1.091512e+003, 7.665704e-001
1.093441e+003, 7.538667e-001
1.095369e+003, 7.395862e-001
1.097298e+003, 7.245739e-001
1.099226e+003, 7.077298e-001
1.101155e+003, 6.871349e-001
1.103083e+003, 6.630754e-001
1.105011e+003, 6.340826e-001
1.106940e+003, 5.997589e-001
1.108868e+003, 5.661270e-001
1.110797e+003, 5.437415e-001
1.112725e+003, 5.355317e-001
1.114654e+003, 5.339619e-001
1.116582e+003, 5.336112e-001
1.118511e+003, 5.328268e-001
1.120439e+003, 5.312339e-001
1.122368e+003, 5.297089e-001
1.124296e+003, 5.277404e-001
1.126225e+003, 5.239412e-001
1.128153e+003, 5.159869e-001
1.130082e+003, 5.012930e-001
1.132010e+003, 4.802649e-001
1.133938e+003, 4.564527e-001
1.135867e+003, 4.327442e-001
1.137795e+003, 4.092720e-001
1.139724e+003, 3.868816e-001
1.141652e+003, 3.657307e-001
1.143581e+003, 3.463438e-001
1.145509e+003, 3.290673e-001
1.147438e+003, 3.159843e-001
1.149366e+003, 3.081437e-001
1.151295e+003, 3.000010e-001
1.153223e+003, 2.869269e-001
1.155152e+003, 2.710702e-001
1.157080e+003, 2.552945e-001
1.159009e+003, 2.403625e-001
1.160937e+003, 2.265704e-001
1.162865e+003, 2.135237e-001
1.164794e+003, 2.016195e-001
1.166722e+003, 1.906007e-001
1.168651e+003, 1.804173e-001
1.170579e+003, 1.707176e-001
1.172508e+003, 1.613981e-001
1.174436e+003, 1.528032e-001
1.176365e+003, 1.449066e-001
1.178293e+003, 1.376092e-001
1.180222e+003, 1.303343e-001
1.182150e+003, 1.232899e-001
1.184079e+003, 1.168038e-001
1.186007e+003, 1.106431e-001
1.187936e+003, 1.042147e-001
1.189864e+003, 9.775776e-002
1.191792e+003, 9.150927e-002
1.193721e+003, 8.528075e-002
1.195649e+003, 7.885241e-002
1.197578e+003, 7.211848e-002
1.199506e+003, 6.551630e-002
1.201435e+003, 5.918661e-002
1.203363e+003, 5.326733e-002
1.205292e+003, 4.795406e-002
1.207220e+003, 4.295636e-002
1.209149e+003, 3.849619e-002
1.211077e+003, 3.438849e-002
1.213006e+003, 3.043442e-002
1.214934e+003, 2.698939e-002
1.216863e+003, 2.382533e-002
1.218791e+003, 2.088282e-002
1.220719e+003, 1.875995e-002
1.222648e+003, 1.710341e-002
1.224576e+003, 1.550936e-002
1.226505e+003, 1.422232e-002
1.228433e+003, 1.350918e-002
1.230362e+003, 1.284498e-002
1.232290e+003, 1.213307e-002
1.234219e+003, 1.134217e-002
1.236147e+003, 1.073324e-002
1.238076e+003, 1.029672e-002
1.240004e+003, 9.550357e-003
1.241933e+003, 8.924643e-003
1.243861e+003, 8.638442e-003
1.245790e+003, 8.129179e-003
1.247718e+003, 7.939516e-003
1.249646e+003, 7.787946e-003
1.251575e+003, 7.302556e-003
1.253503e+003, 6.884015e-003
1.255432e+003, 6.543464e-003
1.257360e+003, 6.173874e-003
1.259289e+003, 5.871407e-003
1.261217e+003, 5.746090e-003
1.263146e+003, 5.583779e-003
1.265074e+003, 5.217755e-003
1.267003e+003, 4.765470e-003
1.268931e+003, 4.850340e-003
1.270860e+003, 5.100840e-003
1.272788e+003, 4.819050e-003
1.274717e+003, 4.511963e-003
1.276645e+003, 4.241358e-003
1.278573e+003, 4.148392e-003
1.280502e+003, 4.087285e-003
1.282430e+003, 3.763379e-003
1.284359e+003, 3.359680e-003
1.286287e+003, 3.172668e-003
1.288216e+003, 3.191075e-003
1.290144e+003, 3.083138e-003
1.292073e+003, 2.867299e-003
1.294001e+003, 2.714992e-003
1.295930e+003, 2.696386e-003
1.297858e+003, 2.695387e-003
1.299787e+003, 2.497989e-003
1.301715e+003, 2.146996e-003
1.303644e+003, 1.756785e-003
1.305572e+003, 1.619891e-003
1.307500e+003, 1.637230e-003
1.309429e+003, 1.652132e-003
1.311357e+003, 1.279927e-003
1.313286e+003, 1.092388e-003
1.315214e+003, 1.131586e-003
1.317143e+003, 8.797623e-004
1.319071e+003, 7.879082e-004
1.321000e+003, 9.054851e-004
1.322928e+003, 1.059171e-003
1.324857e+003, 1.037407e-003
1.326785e+003, 6.836149e-004
1.328714e+003, 3.965432e-004
1.330642e+003, 4.028984e-004
1.332571e+003, 3.311573e-004
1.334499e+003, 1.301462e-004
1.336427e+003, 1.496899e-004
1.338356e+003, -2.891231e-005
1.340284e+003, -3.130753e-005
1.342213e+003, -1.316695e-004
1.344141e+003, -3.479962e-004
1.346070e+003, -4.979334e-004
1.347998e+003, -6.768138e-004
1.349927e+003, -7.732933e-004
1.351855e+003, -6.757079e-004
1.353784e+003, -7.626010e-004
1.355712e+003, -9.261101e-004
1.357641e+003, -7.582594e-004
1.359569e+003, -5.914544e-004
1.361498e+003, -8.200619e-004
1.363426e+003, -8.900622e-004
1.365354e+003, -7.113747e-004
1.367283e+003, -7.375828e-004
1.369211e+003, -7.359046e-004
1.371140e+003, -9.169173e-004
1.373068e+003, -1.244498e-003
1.374997e+003, -1.086100e-003
1.376925e+003, -1.115493e-003
1.378854e+003, -1.330799e-003
1.380782e+003, -1.252905e-003
1.382711e+003, -1.117070e-003
1.384639e+003, -8.848991e-004
1.386568e+003, -8.422275e-004
1.388496e+003, -6.795928e-004
1.390424e+003, -3.492967e-004
1.392353e+003, -4.020188e-004
1.394281e+003, -5.586478e-004
1.396210e+003, -4.387758e-004
1.398138e+003, -4.050781e-004
1.400067e+003, -5.288464e-004
1.401995e+003, -7.297692e-004
1.403924e+003, -6.423497e-004
1.405852e+003, -4.571201e-004
1.407781e+003, -5.385178e-004
1.409709e+003, -4.806841e-004
1.411638e+003, -5.553211e-004
1.413566e+003, -4.497061e-004
1.415495e+003, -5.828913e-004
1.417423e+003, -6.770031e-004
1.419351e+003, -7.641212e-004
1.421280e+003, -9.068108e-004
1.423208e+003, -8.372647e-004
1.425137e+003, -9.319981e-004
1.427065e+003, -6.529377e-004
1.428994e+003, -2.784878e-004
1.430922e+003, -3.826412e-004
1.432851e+003, -7.541759e-004
1.434779e+003, -7.957872e-004
1.436708e+003, -7.190714e-004
1.438636e+003, -6.838020e-004
1.440565e+003, -1.023390e-003
1.442493e+003, -1.431706e-003
1.444422e+003, -1.550693e-003
1.446350e+003, -1.471776e-003
1.448278e+003, -1.517734e-003
1.450207e+003, -1.856938e-003
1.452135e+003, -2.050936e-003
1.454064e+003, -2.173033e-003
1.455992e+003, -2.218798e-003
1.457921e+003, -2.302699e-003
1.459849e+003, -2.479754e-003
1.461778e+003, -2.703184e-003
1.463706e+003, -2.532535e-003
1.465635e+003, -2.271866e-003
1.467563e+003, -2.226740e-003
1.469492e+003, -1.977019e-003
1.471420e+003, -1.698430e-003
1.473349e+003, -1.346350e-003
1.475277e+003, -1.122615e-003
1.477205e+003, -9.549554e-004
1.479134e+003, -8.192623e-004
1.481062e+003, -6.363167e-004
1.482991e+003, -4.833805e-004
1.484919e+003, -5.839036e-004
1.486848e+003, -5.727503e-004
1.488776e+003, -3.760256e-004
1.490705e+003, -3.420554e-004
1.492633e+003, -4.703629e-004
1.494562e+003, -4.886860e-004
1.496490e+003, -4.635514e-004
1.498419e+003, -5.859875e-004
1.500347e+003, -3.866987e-004
1.502276e+003, -3.844099e-004
1.504204e+003, -3.529737e-004
1.506132e+003, 4.471574e-005
1.508061e+003, -1.292049e-004
1.509989e+003, -5.270259e-004
1.511918e+003, -5.874127e-004
1.513846e+003, -5.618511e-004
1.515775e+003, -5.252312e-004
1.517703e+003, -5.928258e-004
1.519632e+003, -4.331328e-004
1.521560e+003, -1.085355e-004
1.523489e+003, -7.924781e-005
1.525417e+003, -1.260934e-004
1.527346e+003, -4.529184e-005
1.529274e+003, -1.967265e-004
1.531203e+003, -2.293838e-004
1.533131e+003, -2.611008e-005
1.535059e+003, 8.448833e-005
1.536988e+003, 1.963001e-004
1.538916e+003, 1.106586e-004
1.540845e+003, 2.797840e-005
1.542773e+003, -2.070260e-005
1.544702e+003, 2.633841e-004
1.546630e+003, 6.123626e-004
1.548559e+003, 5.629010e-004
1.550487e+003, 4.613929e-004
1.552416e+003, 7.490932e-004
1.554344e+003, 9.365382e-004
1.556273e+003, 8.071741e-004
1.558201e+003, 6.896568e-004
1.560130e+003, 7.620271e-004
1.562058e+003, 7.082541e-004
1.563986e+003, 7.725749e-004
1.565915e+003, 6.474709e-004
1.567843e+003, 4.570447e-004
1.569772e+003, 4.124309e-004
1.571700e+003, 3.656248e-004
1.573629e+003, 2.496430e-004
1.575557e+003, 1.154863e-004
1.577486e+003, 6.727283e-005
1.579414e+003, -7.708125e-005
1.581343e+003, -1.744574e-004
1.583271e+003, -1.321869e-004
1.585200e+003, 9.990801e-005
1.587128e+003, 8.814307e-005
1.589057e+003, -5.091248e-005
1.590985e+003, -5.524391e-005
1.592913e+003, 2.665424e-005
1.594842e+003, -3.403041e-005
1.596770e+003, 1.861534e-004
1.598699e+003, 3.121244e-004
1.600627e+003, 3.107500e-004
1.602556e+003, 5.564360e-004
1.604484e+003, 8.345214e-004
1.606413e+003, 8.674997e-004
1.608341e+003, 1.030872e-003
1.610270e+003, 1.038734e-003
1.612198e+003, 9.371624e-004
1.614127e+003, 9.387119e-004
1.616055e+003, 9.832118e-004
1.617984e+003, 1.082905e-003
1.619912e+003, 1.409501e-003
1.621840e+003, 2.075196e-003
1.623769e+003, 2.361986e-003
1.625697e+003, 2.085912e-003
1.627626e+003, 1.737812e-003
1.629554e+003, 1.780575e-003
1.631483e+003, 2.082871e-003
1.633411e+003, 2.230006e-003
1.635340e+003, 2.445258e-003
1.637268e+003, 2.468664e-003
1.639197e+003, 2.510269e-003
1.641125e+003, 2.713410e-003
1.643054e+003, 2.860285e-003
1.644982e+003, 2.715684e-003
1.646911e+003, 2.348235e-003
1.648839e+003, 2.016215e-003
1.650767e+003, 2.040239e-003
1.652696e+003, 1.766336e-003
1.654624e+003, 1.424268e-003
1.656553e+003, 1.629006e-003
1.658481e+003, 1.389817e-003
1.660410e+003, 7.937136e-004
1.662338e+003, 6.086700e-004
1.664267e+003, 3.958760e-004
1.666195e+003, 4.115254e-004
1.668124e+003, 4.479496e-004
1.670052e+003, 8.704808e-005
1.671981e+003, 1.218799e-005
1.673909e+003, 4.983427e-004
1.675838e+003, 6.251167e-004
1.677766e+003, 1.933717e-004
1.679694e+003, -7.941545e-005
1.681623e+003, -1.925394e-004
1.683551e+003, -1.620870e-004
1.685480e+003, -1.026391e-004
1.687408e+003, -3.356666e-004
1.689337e+003, -1.691356e-004
1.691265e+003, 1.090589e-004
1.693194e+003, 4.106807e-005
1.695122e+003, -4.115835e-004
1.697051e+003, -3.797930e-004
1.698979e+003, -2.240163e-004
1.700908e+003, -3.059602e-004
1.702836e+003, -8.402079e-004
1.704765e+003, -1.069519e-003
1.706693e+003, -1.363344e-003
1.708621e+003, -1.873861e-003
1.710550e+003, -2.379358e-003
1.712478e+003, -2.558260e-003
1.714407e+003, -2.357600e-003
1.716335e+003, -2.286892e-003
1.718264e+003, -2.297465e-003
1.720192e+003, -2.163545e-003
1.722121e+003, -2.110666e-003
1.724049e+003, -2.236403e-003
1.725978e+003, -2.315076e-003
1.727906e+003, -2.485904e-003
1.729835e+003, -2.898795e-003
1.731763e+003, -3.245475e-003
1.733692e+003, -3.614489e-003
1.735620e+003, -4.167228e-003
1.737548e+003, -4.791213e-003
1.739477e+003, -5.059016e-003
1.741405e+003, -5.481303e-003
1.743334e+003, -6.050708e-003
1.745262e+003, -5.764484e-003
1.747191e+003, -5.143669e-003
1.749119e+003, -4.561853e-003
1.751048e+003, -3.707720e-003
1.752976e+003, -3.027888e-003
1.754905e+003, -2.356311e-003
1.756833e+003, -1.866636e-003
1.758762e+003, -1.728980e-003
1.760690e+003, -1.123130e-003
1.762619e+003, -5.231675e-004
1.764547e+003, -5.150343e-004
1.766475e+003, -4.913229e-004
1.768404e+003, -4.489360e-004
1.770332e+003, -5.632649e-004
1.772261e+003, -6.081800e-004
1.774189e+003, -5.426394e-004
1.776118e+003, -5.725741e-004
1.778046e+003, -5.501183e-004
1.779975e+003, -4.360175e-004
1.781903e+003, -4.813350e-004
1.783832e+003, -3.244806e-004
1.785760e+003, -2.811223e-004
1.787689e+003, -1.684414e-004
1.789617e+003, -1.757372e-004
1.791546e+003, -2.477933e-004
1.793474e+003, -4.702666e-004
1.795402e+003, -8.339903e-005
1.797331e+003, -2.650056e-005
1.799259e+003, -3.559501e-004
1.801188e+003, -7.116661e-004
1.803116e+003, -6.508253e-004
1.805045e+003, -1.505234e-004
1.806973e+003, -6.290657e-004
1.808902e+003, -7.004619e-004
1.810830e+003, -6.070869e-004
1.812759e+003, -5.904481e-004
1.814687e+003, -8.940758e-004
1.816616e+003, -1.254663e-003
1.818544e+003, -1.327402e-003
1.820473e+003, -7.339299e-004
1.822401e+003, -1.956787e-004
1.824329e+003, -3.241736e-004
1.826258e+003, -7.414614e-004
1.828186e+003, -1.448787e-003
1.830115e+003, -9.388056e-004
1.832043e+003, -2.415943e-005
1.833972e+003, -6.161525e-005
1.835900e+003, -7.171158e-004
1.837829e+003, -4.221321e-004
1.839757e+003, 4.332892e-004
1.841686e+003, 3.842899e-004
1.843614e+003, -4.856116e-004
1.845543e+003, -8.128864e-004
1.847471e+003, -5.325090e-004
1.849400e+003, -6.747558e-004
1.851328e+003, -7.433051e-004
1.853256e+003, 2.559804e-004
1.855185e+003, 9.848059e-005
1.857113e+003, -1.455618e-003
1.859042e+003, -1.611016e-003
1.860970e+003, -7.300503e-004
1.862899e+003, -8.229360e-004
1.864827e+003, -1.615413e-003
1.866756e+003, -1.750409e-003
1.868684e+003, -1.261570e-003
1.870613e+003, -9.033659e-004
1.872541e+003, -1.246022e-003
1.874470e+003, -9.822781e-004
1.876398e+003, -8.593944e-004
1.878327e+003, -7.404654e-004
1.880255e+003, -2.121055e-004
1.882183e+003, -3.034086e-004
1.884112e+003, -7.247206e-004
1.886040e+003, -5.311359e-004
1.887969e+003, -9.383039e-004
1.889897e+003, -1.605507e-003
1.891826e+003, -1.217608e-003
1.893754e+003, -1.076423e-003
1.895683e+003, -8.684151e-004
1.897611e+003, -3.918100e-004
1.899540e+003, -1.772231e-003
1.901468e+003, -2.452727e-003
1.903397e+003, -2.301018e-003
1.905325e+003, -2.144372e-003
1.907254e+003, -1.508670e-003
1.909182e+003, -3.997000e-004
1.911110e+003, -1.278452e-003
1.913039e+003, -1.321829e-003
1.914967e+003, -2.879600e-003
1.916896e+003, -3.607924e-003
1.918824e+003, -2.130520e-003
1.920753e+003, -2.327649e-003
1.922681e+003, -2.071829e-003
1.924610e+003, -1.528765e-003
1.926538e+003, -1.474860e-003
1.928467e+003, -2.321640e-003
1.930395e+003, -3.190794e-003
1.932324e+003, -3.212734e-003
1.934252e+003, -2.987281e-003
1.936181e+003, -4.022538e-003
1.938109e+003, -5.987283e-003
1.940037e+003, -5.025662e-003
1.941966e+003, -4.217046e-003
1.943894e+003, -4.502341e-003
1.945823e+003, -5.130050e-003
1.947751e+003, -6.009188e-003
1.949680e+003, -4.809987e-003
1.951608e+003, -4.403715e-003
1.953537e+003, -4.585515e-003
1.955465e+003, -3.377386e-003
1.957394e+003, -5.577276e-003
1.959322e+003, -7.511585e-003
1.961251e+003, -7.935951e-003
1.963179e+003, -9.072789e-003
1.965108e+003, -9.187025e-003
1.967036e+003, -8.301521e-003
1.968964e+003, -8.635614e-003
1.970893e+003, -1.052802e-002
1.972821e+003, -1.113028e-002
1.974750e+003, -1.096475e-002
1.976678e+003, -8.957469e-003
1.978607e+003, -6.138427e-003
1.980535e+003, -6.741944e-003
1.982464e+003, -6.192198e-003
1.984392e+003, -5.217358e-003
1.986321e+003, -6.678637e-003
1.988249e+003, -7.572594e-003
1.990178e+003, -6.739894e-003
1.992106e+003, -6.631083e-003
1.994035e+003, -6.711785e-003
1.995963e+003, -7.867635e-003
1.997891e+003, -7.768631e-003
1.999820e+003, -6.868665e-003
2.001748e+003, -6.215688e-003
2.003677e+003, -6.980115e-003
2.005605e+003, -9.403442e-003
2.007534e+003, -9.385239e-003
2.009462e+003, -8.964159e-003
2.011391e+003, -1.072532e-002
2.013319e+003, -9.325895e-003
2.015248e+003, -8.144851e-003
2.017176e+003, -8.291891e-003
2.019105e+003, -7.486297e-003
2.021033e+003, -9.698598e-003
2.022962e+003, -1.054307e-002
2.024890e+003, -1.024607e-002
2.026818e+003, -1.108577e-002
2.028747e+003, -1.063871e-002
2.030675e+003, -9.258957e-003
2.032604e+003, -1.167322e-002
2.034532e+003, -1.228616e-002
2.036461e+003, -1.098391e-002
2.038389e+003, -7.790475e-003
2.040318e+003, -7.567832e-003
2.042246e+003, -1.047106e-002
2.044175e+003, -1.078934e-002
2.046103e+003, -1.073629e-002
2.048032e+003, -1.081137e-002
2.049960e+003, -8.782648e-003
2.051889e+003, -8.296509e-003
2.053817e+003, -8.357702e-003
2.055746e+003, -5.939662e-003
2.057674e+003, -5.216939e-003
2.059603e+003, -6.326083e-003
2.061531e+003, -5.874203e-003
2.063459e+003, -5.503253e-003
2.065388e+003, -5.490236e-003
2.067316e+003, -5.372129e-003
2.069245e+003, -5.994943e-003
2.071173e+003, -6.283459e-003
2.073102e+003, -4.997059e-003
2.075030e+003, -5.334422e-003
2.076959e+003, -6.637722e-003
2.078887e+003, -5.979017e-003
2.080816e+003, -4.601362e-003
2.082744e+003, -4.332184e-003
2.084673e+003, -3.185040e-003
2.086601e+003, -2.549658e-003
2.088530e+003, -3.188243e-003
2.090458e+003, -4.617998e-003
2.092386e+003, -5.725228e-003
2.094315e+003, -3.857974e-003
2.096243e+003, -1.679310e-003
2.098172e+003, -3.281242e-003
2.100100e+003, -2.496206e-003
2.102029e+003, -1.731287e-003
2.103957e+003, -9.690488e-004
2.105886e+003, -1.075461e-003
2.107814e+003, -2.131002e-003
2.109743e+003, -2.727099e-003
2.111671e+003, -2.567524e-003
2.113600e+003, -1.209218e-003
2.115528e+003, -1.838434e-004
2.117457e+003, -8.094291e-004
2.119385e+003, -1.246751e-003
2.121313e+003, -1.842856e-003
2.123242e+003, -3.681176e-003
2.125170e+003, -5.229980e-003
2.127099e+003, -6.167876e-003
2.129027e+003, -5.833267e-003
2.130956e+003, -5.779612e-003
2.132884e+003, -7.937941e-003
2.134813e+003, -1.052237e-002
2.136741e+003, -1.170852e-002
2.138670e+003, -1.112153e-002
2.140598e+003, -1.040059e-002
2.142527e+003, -1.069177e-002
2.144455e+003, -1.225794e-002
2.146384e+003, -1.392744e-002
2.148312e+003, -1.681471e-002
2.150240e+003, -1.611552e-002
2.152169e+003, -1.574096e-002
2.154097e+003, -1.803972e-002
2.156026e+003, -2.203870e-002
2.157954e+003, -2.351111e-002
2.159883e+003, -2.169863e-002
2.161811e+003, -1.950583e-002
2.163740e+003, -1.895112e-002
2.165668e+003, -2.017858e-002
2.167597e+003, -1.766950e-002
2.169525e+003, -1.491417e-002
2.171454e+003, -1.691514e-002
2.173382e+003, -1.888383e-002
2.175311e+003, -1.915672e-002
2.177239e+003, -1.792275e-002
2.179167e+003, -1.747402e-002
2.181096e+003, -1.676755e-002
2.183024e+003, -1.492224e-002
2.184953e+003, -1.514428e-002
2.186881e+003, -1.605855e-002
2.188810e+003, -1.536307e-002
2.190738e+003, -1.570846e-002
2.192667e+003, -1.682238e-002
2.194595e+003, -1.564320e-002
2.196524e+003, -1.432671e-002
2.198452e+003, -1.277484e-002
2.200381e+003, -1.086083e-002
2.202309e+003, -1.099934e-002
2.204238e+003, -1.153531e-002
2.206166e+003, -1.166579e-002
2.208094e+003, -1.172000e-002
2.210023e+003, -1.218441e-002
2.211951e+003, -1.232262e-002
2.213880e+003, -1.188730e-002
2.215808e+003, -1.180424e-002
2.217737e+003, -1.329169e-002
2.219665e+003, -1.291233e-002
2.221594e+003, -1.141317e-002
2.223522e+003, -1.061376e-002
2.225451e+003, -9.306086e-003
2.227379e+003, -9.240468e-003
2.229308e+003, -1.029020e-002
2.231236e+003, -9.406572e-003
2.233165e+003, -9.529890e-003
2.235093e+003, -1.130707e-002
2.237021e+003, -1.071669e-002
2.238950e+003, -8.532506e-003
2.240878e+003, -6.969275e-003
2.242807e+003, -7.186786e-003
2.244735e+003, -7.605443e-003
2.246664e+003, -7.834425e-003
2.248592e+003, -7.875960e-003
2.250521e+003, -7.705245e-003
2.252449e+003, -7.728878e-003
2.254378e+003, -8.459420e-003
2.256306e+003, -8.671939e-003
2.258235e+003, -8.002138e-003
2.260163e+003, -7.832541e-003
2.262092e+003, -8.623595e-003
2.264020e+003, -8.559930e-003
2.265948e+003, -6.726801e-003
2.267877e+003, -6.112886e-003
2.269805e+003, -6.904958e-003
2.271734e+003, -7.734932e-003
2.273662e+003, -6.938011e-003
2.275591e+003, -5.571971e-003
2.277519e+003, -4.192528e-003
2.279448e+003, -3.584825e-003
2.281376e+003, -4.358137e-003
2.283305e+003, -3.090381e-003
2.285233e+003, -1.271416e-003
2.287162e+003, -1.688750e-003
2.289090e+003, -2.129165e-003
2.291019e+003, -2.049147e-003
2.292947e+003, -2.140030e-003
2.294875e+003, -2.176277e-003
2.296804e+003, -1.930067e-003
2.298732e+003, -1.559961e-003
2.300661e+003, -1.809742e-003
2.302589e+003, -1.957315e-003
2.304518e+003, -1.154478e-003
2.306446e+003, -3.502567e-004
2.308375e+003, -8.757620e-004
2.310303e+003, -9.058626e-004
2.312232e+003, -2.524100e-004
2.314160e+003, 4.548771e-004
2.316089e+003, 1.114595e-003
2.318017e+003, 1.548740e-003
2.319946e+003, 1.585982e-003
2.321874e+003, 2.292285e-003
2.323802e+003, 2.890675e-003
2.325731e+003, 2.010668e-003
2.327659e+003, 1.365645e-003
2.329588e+003, 1.346835e-003
2.331516e+003, 1.095493e-003
2.333445e+003, 9.366577e-004
2.335373e+003, 1.033554e-003
2.337302e+003, 1.094877e-003
2.339230e+003, 1.140009e-003
2.341159e+003, 1.258687e-003
2.343087e+003, 1.123779e-003
2.345016e+003, 1.010755e-003
2.346944e+003, 3.099356e-004
2.348873e+003, 5.697142e-005
2.350801e+003, 2.416481e-004
2.352729e+003, 7.195481e-004
2.354658e+003, 1.116676e-003
2.356586e+003, 8.532587e-004
2.358515e+003, 5.686782e-004
2.360443e+003, 8.775904e-004
2.362372e+003, 9.846230e-004
2.364300e+003, 1.399223e-003
2.366229e+003, 2.051415e-003
2.368157e+003, 1.265660e-003
2.370086e+003, 4.553421e-004
2.372014e+003, -5.556698e-004
2.373942e+003, -4.929910e-004
2.375871e+003, -8.522881e-004
2.377799e+003, -1.235729e-003
2.379728e+003, -9.048018e-004
2.381656e+003, -1.619780e-003
2.383585e+003, -1.657916e-003
2.385513e+003, -1.530144e-003
2.387442e+003, -1.755764e-003
2.389370e+003, -1.231305e-003
2.391299e+003, -6.675644e-004
2.393227e+003, -1.266715e-003
2.395156e+003, -1.430374e-003
2.397084e+003, -5.404268e-004
2.399012e+003, -1.091448e-003
2.400941e+003, -1.828510e-003
2.402869e+003, -1.885452e-003
2.404798e+003, -1.767255e-003
2.406726e+003, -1.307949e-003
2.408655e+003, -1.762122e-003
2.410583e+003, -2.701947e-003
2.412512e+003, -2.745089e-003
2.414440e+003, -2.381458e-003
2.416369e+003, -2.376810e-003
2.418297e+003, -2.059431e-003
2.420226e+003, -1.889225e-003
2.422154e+003, -1.001436e-003
2.424083e+003, 1.163896e-004
2.426011e+003, 1.157194e-003
2.427939e+003, 8.238140e-005
2.429868e+003, -1.428109e-003
2.431796e+003, -1.400355e-003
2.433725e+003, -1.409519e-003
2.435653e+003, -1.189217e-003
2.437582e+003, -1.235497e-003
2.439510e+003, -8.120386e-004
2.441439e+003, -1.549830e-004
2.443367e+003, 3.347358e-004
2.445296e+003, 3.906004e-004
2.447224e+003, -6.054619e-004
2.449153e+003, -1.114827e-003
2.451081e+003, -2.661870e-004
2.453010e+003, -4.908880e-004
2.454938e+003, 2.250157e-004
2.456866e+003, 5.431971e-004
2.458795e+003, -6.787537e-004
2.460723e+003, -1.109587e-003
2.462652e+003, -7.205089e-004
2.464580e+003, -8.467397e-004
2.466509e+003, -6.227299e-004
2.468437e+003, 7.025932e-005
2.470366e+003, -3.796498e-004
2.472294e+003, 1.561453e-004
2.474223e+003, 4.296663e-004
2.476151e+003, -8.663731e-004
2.478080e+003, -1.735939e-003
2.480008e+003, -1.902014e-003
2.481937e+003, -2.300661e-003
2.483865e+003, -2.638205e-003
2.485793e+003, -1.480555e-003
2.487722e+003, -1.623715e-004
2.489650e+003, -6.198335e-004
2.491579e+003, -4.918398e-004
2.493507e+003, 5.783414e-006
2.495436e+003, -2.570337e-004
2.497364e+003, -1.652950e-003
2.499293e+003, -1.804952e-003
2.501221e+003, -1.192753e-003
2.503150e+003, -9.458447e-004
2.505078e+003, -9.979066e-004
2.507007e+003, -4.671531e-004
2.508935e+003, -4.449103e-004
2.510864e+003, -2.717644e-004
2.512792e+003, -6.194290e-005
2.514720e+003, -4.555976e-004
2.516649e+003, -1.218102e-003
2.518577e+003, -1.743896e-003
2.520506e+003, -1.343342e-003
2.522434e+003, -8.338790e-004
2.524363e+003, -4.931279e-004
2.526291e+003, -8.488713e-004
2.528220e+003, -1.367784e-003
2.530148e+003, -1.286853e-003
2.532077e+003, -3.427535e-004
2.534005e+003, -8.361100e-004
2.535934e+003, -1.057796e-003
2.537862e+003, 1.293374e-004
2.539791e+003, 2.565298e-004
2.541719e+003, -6.553538e-004
2.543647e+003, -1.274778e-003
2.545576e+003, -2.407793e-003
2.547504e+003, -2.323705e-003
2.549433e+003, -2.052649e-003
2.551361e+003, -1.930746e-003
2.553290e+003, -1.430692e-003
2.555218e+003, -1.684987e-003
2.557147e+003, -1.714853e-003
2.559075e+003, -4.633792e-004
2.561004e+003, 1.149015e-004
2.562932e+003, -7.056653e-005
2.564861e+003, 2.633971e-004
2.566789e+003, -2.819838e-004
2.568718e+003, -7.455021e-004
2.570646e+003, -1.636817e-003
2.572574e+003, -1.770220e-003
2.574503e+003, -1.477421e-003
2.576431e+003, -5.275327e-004
2.578360e+003, 4.170687e-004
2.580288e+003, 6.363517e-004
2.582217e+003, 1.093553e-003
2.584145e+003, 1.022292e-003
2.586074e+003, 4.264599e-004
2.588002e+003, -2.363048e-004
2.589931e+003, -6.839082e-004
2.591859e+003, -6.372976e-004
2.593788e+003, 4.869704e-004
2.595716e+003, 1.038922e-003
2.597645e+003, 1.095176e-003
2.599573e+003, 1.810703e-003
2.601501e+003, 1.522425e-003
2.603430e+003, 3.502786e-004
2.605358e+003, -4.973014e-004
2.607287e+003, -3.437798e-004
2.609215e+003, 2.430478e-004
2.611144e+003, -6.062408e-004
2.613072e+003, -1.616193e-003
2.615001e+003, -1.783025e-004
2.616929e+003, 1.389588e-003
2.618858e+003, 6.636626e-004
2.620786e+003, -2.036151e-004
2.622715e+003, 2.164044e-004
2.624643e+003, -4.365561e-005
2.626572e+003, 3.878668e-004
2.628500e+003, -5.534278e-004
2.630428e+003, -7.823994e-004
2.632357e+003, 1.160536e-003
2.634285e+003, 1.514428e-003
2.636214e+003, 6.203418e-004
2.638142e+003, 2.987268e-004
2.640071e+003, 7.747761e-004
2.641999e+003, 1.063667e-003
2.643928e+003, 9.502834e-004
2.645856e+003, 1.308311e-003
2.647785e+003, 1.407377e-003
2.649713e+003, 1.464526e-004
2.651642e+003, -7.749245e-004
2.653570e+003, -3.479487e-004
2.655499e+003, 5.177460e-004
2.657427e+003, 1.409681e-003
2.659355e+003, 6.378658e-004
2.661284e+003, 1.706391e-004
2.663212e+003, 6.222804e-004
2.665141e+003, 1.521628e-004
2.667069e+003, 3.119909e-004
2.668998e+003, 4.925089e-004
2.670926e+003, -3.203605e-005
2.672855e+003, -3.284317e-004
2.674783e+003, 1.207154e-004
2.676712e+003, 4.975631e-005
2.678640e+003, -6.682157e-004
2.680569e+003, -5.408652e-004
2.682497e+003, 3.199794e-005
2.684426e+003, -2.547131e-004
2.686354e+003, -3.193233e-004
2.688282e+003, -2.654093e-004
2.690211e+003, -3.114051e-004
2.692139e+003, 6.527800e-004
2.694068e+003, 7.178243e-004
2.695996e+003, -6.013887e-004
2.697925e+003, -1.230476e-003
2.699853e+003, -5.139970e-004
2.701782e+003, 7.779628e-005
2.703710e+003, -6.593384e-004
2.705639e+003, -5.947585e-004
2.707567e+003, 3.185230e-004
2.709496e+003, 4.920783e-004
2.711424e+003, -2.578138e-004
2.713353e+003, -8.405753e-004
2.715281e+003, -5.631566e-004
2.717209e+003, -2.605242e-004
2.719138e+003, 3.721024e-005
2.721066e+003, 1.325358e-005
2.722995e+003, 9.789690e-005
2.724923e+003, 5.941081e-005
2.726852e+003, 2.773827e-005
2.728780e+003, 1.151045e-004
2.730709e+003, -6.424108e-004
2.732637e+003, -6.799665e-004
2.734566e+003, -5.503113e-004
2.736494e+003, -3.976170e-004
2.738423e+003, -1.784624e-004
2.740351e+003, -2.814433e-004
2.742280e+003, -1.854365e-004
2.744208e+003, -1.922035e-004
2.746136e+003, -1.950679e-004
2.748065e+003, -6.013545e-004
2.749993e+003, -1.317665e-003
2.751922e+003, -8.638223e-004
2.753850e+003, 7.077323e-004
2.755779e+003, 1.132690e-003
2.757707e+003, 6.804726e-004
2.759636e+003, 3.940706e-004
2.761564e+003, -6.816689e-005
2.763493e+003, 6.262895e-004
2.765421e+003, 7.923073e-004
2.767350e+003, 1.711122e-004
2.769278e+003, 3.897567e-004
2.771207e+003, 8.144822e-005
2.773135e+003, -5.736862e-004
2.775063e+003, -3.445758e-004
2.776992e+003, -2.778471e-004
2.778920e+003, -1.074489e-004
2.780849e+003, 9.472441e-005
2.782777e+003, -1.572909e-004
2.784706e+003, -6.059603e-004
2.786634e+003, -4.171784e-004
2.788563e+003, -4.921877e-004
2.790491e+003, -8.568036e-004
2.792420e+003, -8.442665e-004
2.794348e+003, -1.310986e-003
2.796277e+003, -1.525205e-003
2.798205e+003, -1.103096e-003
2.800134e+003, -1.503586e-003
2.802062e+003, -1.261184e-003
2.803990e+003, -4.523757e-004
2.805919e+003, -3.036069e-004
2.807847e+003, -1.311093e-003
2.809776e+003, -1.428795e-003
2.811704e+003, -9.487772e-004
2.813633e+003, -1.492864e-003
2.815561e+003, -1.606440e-003
2.817490e+003, -1.675691e-003
2.819418e+003, -1.909390e-003
2.821347e+003, -1.725595e-003
2.823275e+003, -1.399032e-003
2.825204e+003, -2.008358e-003
2.827132e+003, -2.081645e-003
2.829061e+003, -1.734713e-003
2.830989e+003, -2.405264e-003
2.832917e+003, -3.227569e-003
2.834846e+003, -3.125679e-003
2.836774e+003, -2.989040e-003
2.838703e+003, -3.926950e-003
2.840631e+003, -5.391815e-003
2.842560e+003, -6.695446e-003
2.844488e+003, -8.471709e-003
2.846417e+003, -1.047482e-002
2.848345e+003, -1.238062e-002
2.850274e+003, -1.250101e-002
2.852202e+003, -1.408880e-002
2.854131e+003, -1.482965e-002
2.856059e+003, -1.319444e-002
2.857988e+003, -1.174507e-002
2.859916e+003, -1.002688e-002
2.861844e+003, -7.783236e-003
2.863773e+003, -7.623546e-003
2.865701e+003, -8.171201e-003
2.867630e+003, -6.786534e-003
2.869558e+003, -6.040416e-003
2.871487e+003, -6.497550e-003
2.873415e+003, -7.714694e-003
2.875344e+003, -7.354715e-003
2.877272e+003, -5.870781e-003
2.879201e+003, -5.527521e-003
2.881129e+003, -6.212207e-003
2.883058e+003, -6.614769e-003
2.884986e+003, -6.056149e-003
2.886915e+003, -6.837119e-003
2.888843e+003, -7.053295e-003
2.890771e+003, -6.556243e-003
2.892700e+003, -7.784665e-003
2.894628e+003, -9.186063e-003
2.896557e+003, -9.355094e-003
2.898485e+003, -9.410415e-003
2.900414e+003, -9.086690e-003
2.902342e+003, -9.455867e-003
2.904271e+003, -1.119649e-002
2.906199e+003, -1.251616e-002
2.908128e+003, -1.398411e-002
2.910056e+003, -1.504010e-002
2.911985e+003, -1.479786e-002
2.913913e+003, -1.551705e-002
2.915842e+003, -1.805843e-002
2.917770e+003, -2.066563e-002
2.919698e+003, -2.250822e-002
2.921627e+003, -2.380736e-002
2.923555e+003, -2.390740e-002
2.925484e+003, -2.264100e-002
2.927412e+003, -2.216302e-002
2.929341e+003, -2.139590e-002
2.931269e+003, -1.907093e-002
2.933198e+003, -1.760961e-002
2.935126e+003, -1.654549e-002
2.937055e+003, -1.319016e-002
2.938983e+003, -1.088972e-002
2.940912e+003, -1.019417e-002
2.942840e+003, -9.502060e-003
2.944769e+003, -9.800061e-003
2.946697e+003, -8.937074e-003
2.948625e+003, -8.741688e-003
2.950554e+003, -7.858936e-003
2.952482e+003, -7.016825e-003
2.954411e+003, -7.465281e-003
2.956339e+003, -7.872106e-003
2.958268e+003, -8.149501e-003
2.960196e+003, -6.877413e-003
2.962125e+003, -5.678023e-003
2.964053e+003, -5.004426e-003
2.965982e+003, -4.272290e-003
2.967910e+003, -5.016423e-003
2.969839e+003, -4.200657e-003
2.971767e+003, -1.960655e-003
2.973696e+003, -2.204315e-003
2.975624e+003, -2.782886e-003
2.977552e+003, -1.455969e-003
2.979481e+003, -8.556389e-004
2.981409e+003, -2.221670e-003
2.983338e+003, -3.010635e-003
2.985266e+003, -2.553815e-003
2.987195e+003, -1.695569e-003
2.989123e+003, -1.416613e-003
2.991052e+003, -7.015775e-004
2.992980e+003, -3.040182e-004
2.994909e+003, -1.041831e-003
2.996837e+003, -9.531038e-004
2.998766e+003, -2.127150e-004
3.000694e+003, 9.028940e-004
3.002623e+003, 7.590236e-004
3.004551e+003, -6.735008e-004
3.006479e+003, 2.963936e-004
3.008408e+003, 1.697069e-003
3.010336e+003, 1.871350e-003
3.012265e+003, 2.864844e-003
3.014193e+003, 3.462257e-003
3.016122e+003, 2.481168e-003
3.018050e+003, 1.509272e-003
3.019979e+003, 1.590282e-003
3.021907e+003, 2.548126e-003
3.023836e+003, 1.655111e-003
3.025764e+003, 1.591220e-003
3.027693e+003, 1.852001e-003
3.029621e+003, 2.570221e-003
3.031550e+003, 2.231322e-003
3.033478e+003, 1.201357e-003
3.035406e+003, 1.904964e-003
3.037335e+003, 2.788335e-003
3.039263e+003, 2.416668e-003
3.041192e+003, 2.646877e-003
3.043120e+003, 2.623701e-003
3.045049e+003, 2.551768e-003
3.046977e+003, 2.811959e-003
3.048906e+003, 2.330316e-003
3.050834e+003, 2.243693e-003
3.052763e+003, 3.448550e-003
3.054691e+003, 2.957638e-003
3.056620e+003, 2.474809e-003
3.058548e+003, 3.421556e-003
3.060477e+003, 3.074429e-003
3.062405e+003, 2.781659e-003
3.064333e+003, 3.366443e-003
3.066262e+003, 2.837392e-003
3.068190e+003, 2.169495e-003
3.070119e+003, 3.291623e-003
3.072047e+003, 4.769201e-003
3.073976e+003, 3.377955e-003
3.075904e+003, 1.919051e-003
3.077833e+003, 4.274939e-003
3.079761e+003, 4.188762e-003
3.081690e+003, 2.829566e-003
3.083618e+003, 2.929019e-003
3.085547e+003, 4.014911e-003
3.087475e+003, 4.370539e-003
3.089404e+003, 3.818401e-003
3.091332e+003, 3.080581e-003
3.093260e+003, 2.219559e-003
3.095189e+003, 2.890676e-003
3.097117e+003, 3.737272e-003
3.099046e+003, 3.647136e-003
3.100974e+003, 2.903802e-003
3.102903e+003, 3.423966e-003
3.104831e+003, 4.299641e-003
3.106760e+003, 4.965663e-003
3.108688e+003, 4.561684e-003
3.110617e+003, 3.266645e-003
3.112545e+003, 3.034739e-003
3.114474e+003, 3.027311e-003
3.116402e+003, 3.312261e-003
3.118331e+003, 3.602905e-003
3.120259e+003, 4.191677e-003
3.122188e+003, 5.171313e-003
3.124116e+003, 4.577260e-003
3.126044e+003, 4.887021e-003
3.127973e+003, 4.338447e-003
3.129901e+003, 3.413107e-003
3.131830e+003, 5.238848e-003
3.133758e+003, 6.210238e-003
3.135687e+003, 7.030293e-003
3.137615e+003, 8.952181e-003
3.139544e+003, 8.770682e-003
3.141472e+003, 5.961417e-003
3.143401e+003, 4.533722e-003
3.145329e+003, 5.003880e-003
3.147258e+003, 4.307134e-003
3.149186e+003, 2.461109e-003
3.151115e+003, 3.213411e-003
3.153043e+003, 4.857827e-003
3.154971e+003, 4.535202e-003
3.156900e+003, 4.083311e-003
3.158828e+003, 5.581597e-003
3.160757e+003, 6.625387e-003
3.162685e+003, 6.469911e-003
3.164614e+003, 5.159487e-003
3.166542e+003, 4.981607e-003
3.168471e+003, 5.024574e-003
3.170399e+003, 4.326369e-003
3.172328e+003, 4.121399e-003
3.174256e+003, 3.819280e-003
3.176185e+003, 4.583962e-003
3.178113e+003, 5.767832e-003
3.180042e+003, 5.290936e-003
3.181970e+003, 5.179000e-003
3.183898e+003, 6.409118e-003
3.185827e+003, 7.828640e-003
3.187755e+003, 6.322339e-003
3.189684e+003, 3.673689e-003
3.191612e+003, 4.200656e-003
3.193541e+003, 5.340271e-003
3.195469e+003, 5.447980e-003
3.197398e+003, 5.011116e-003
3.199326e+003, 6.149782e-003
3.201255e+003, 7.927035e-003
3.203183e+003, 8.218869e-003
3.205112e+003, 7.620051e-003
3.207040e+003, 7.168159e-003
3.208969e+003, 7.222596e-003
3.210897e+003, 7.617973e-003
3.212825e+003, 6.198292e-003
3.214754e+003, 5.577853e-003
3.216682e+003, 5.725882e-003
3.218611e+003, 5.745164e-003
3.220539e+003, 6.480732e-003
3.222468e+003, 7.713492e-003
3.224396e+003, 6.419479e-003
3.226325e+003, 5.521835e-003
3.228253e+003, 6.955515e-003
3.230182e+003, 7.921489e-003
3.232110e+003, 6.783025e-003
3.234039e+003, 5.891387e-003
3.235967e+003, 6.847146e-003
3.237896e+003, 7.013271e-003
3.239824e+003, 7.135480e-003
3.241752e+003, 8.483264e-003
3.243681e+003, 6.338140e-003
3.245609e+003, 5.732562e-003
3.247538e+003, 7.358187e-003
3.249466e+003, 7.297728e-003
3.251395e+003, 6.598022e-003
3.253323e+003, 7.818459e-003
3.255252e+003, 8.276847e-003
3.257180e+003, 8.573798e-003
3.259109e+003, 8.897455e-003
3.261037e+003, 6.659927e-003
3.262966e+003, 5.863310e-003
3.264894e+003, 8.063950e-003
3.266823e+003, 8.705581e-003
3.268751e+003, 9.417589e-003
3.270679e+003, 8.961651e-003
3.272608e+003, 7.824352e-003
3.274536e+003, 7.587441e-003
3.276465e+003, 8.467617e-003
3.278393e+003, 8.948244e-003
3.280322e+003, 8.286363e-003
3.282250e+003, 6.173951e-003
3.284179e+003, 6.704346e-003
3.286107e+003, 9.054436e-003
3.288036e+003, 1.054888e-002
3.289964e+003, 9.557169e-003
3.291893e+003, 8.556756e-003
3.293821e+003, 8.676507e-003
3.295750e+003, 9.337086e-003
3.297678e+003, 9.317474e-003
3.299606e+003, 8.905151e-003
3.301535e+003, 8.853339e-003
3.303463e+003, 9.876518e-003
3.305392e+003, 1.090967e-002
3.307320e+003, 9.954035e-003
3.309249e+003, 1.063936e-002
3.311177e+003, 1.031457e-002
3.313106e+003, 1.018503e-002
3.315034e+003, 9.949601e-003
3.316963e+003, 7.184752e-003
3.318891e+003, 7.926716e-003
3.320820e+003, 9.971618e-003
3.322748e+003, 9.278052e-003
3.324677e+003, 7.502181e-003
3.326605e+003, 8.577795e-003
3.328533e+003, 1.044684e-002
3.330462e+003, 1.077393e-002
3.332390e+003, 1.031404e-002
3.334319e+003, 9.294461e-003
3.336247e+003, 8.522372e-003
3.338176e+003, 9.092051e-003
3.340104e+003, 9.713965e-003
3.342033e+003, 1.015574e-002
3.343961e+003, 1.153130e-002
3.345890e+003, 1.199104e-002
3.347818e+003, 1.144811e-002
3.349747e+003, 1.051442e-002
3.351675e+003, 1.045459e-002
3.353604e+003, 1.162179e-002
3.355532e+003, 1.016665e-002
3.357460e+003, 8.622552e-003
3.359389e+003, 1.173856e-002
3.361317e+003, 1.329932e-002
3.363246e+003, 1.288529e-002
3.365174e+003, 1.378657e-002
3.367103e+003, 1.322707e-002
3.369031e+003, 1.130048e-002
3.370960e+003, 1.139025e-002
3.372888e+003, 1.274850e-002
3.374817e+003, 1.319363e-002
3.376745e+003, 1.151545e-002
3.378674e+003, 1.132233e-002
3.380602e+003, 1.174719e-002
3.382531e+003, 1.189557e-002
3.384459e+003, 1.089687e-002
3.386387e+003, 1.020500e-002
3.388316e+003, 9.610068e-003
3.390244e+003, 8.939091e-003
3.392173e+003, 8.068060e-003
3.394101e+003, 8.725704e-003
3.396030e+003, 8.260422e-003
3.397958e+003, 1.154570e-002
3.399887e+003, 1.485725e-002
3.401815e+003, 1.456320e-002
3.403744e+003, 1.373056e-002
3.405672e+003, 1.317603e-002
3.407601e+003, 1.334617e-002
3.409529e+003, 1.174659e-002
3.411458e+003, 1.118503e-002
3.413386e+003, 1.344849e-002
3.415314e+003, 1.364555e-002
3.417243e+003, 1.372308e-002
3.419171e+003, 1.302709e-002
3.421100e+003, 1.136227e-002
3.423028e+003, 1.227069e-002
3.424957e+003, 1.214545e-002
3.426885e+003, 1.014891e-002
3.428814e+003, 8.797572e-003
3.430742e+003, 1.103386e-002
3.432671e+003, 1.229803e-002
3.434599e+003, 1.126618e-002
3.436528e+003, 1.058566e-002
3.438456e+003, 9.160436e-003
3.440385e+003, 8.988035e-003
3.442313e+003, 8.716791e-003
3.444241e+003, 7.773129e-003
3.446170e+003, 1.093981e-002
3.448098e+003, 1.303023e-002
3.450027e+003, 1.159670e-002
3.451955e+003, 1.025275e-002
3.453884e+003, 8.208738e-003
3.455812e+003, 8.738881e-003
3.457741e+003, 1.130134e-002
3.459669e+003, 1.303580e-002
3.461598e+003, 1.356830e-002
3.463526e+003, 1.184239e-002
3.465455e+003, 1.234927e-002
3.467383e+003, 1.694277e-002
3.469312e+003, 1.810714e-002
3.471240e+003, 1.494404e-002
3.473168e+003, 1.479335e-002
3.475097e+003, 1.486215e-002
3.477025e+003, 1.330702e-002
3.478954e+003, 1.151028e-002
3.480882e+003, 1.325570e-002
3.482811e+003, 1.501064e-002
3.484739e+003, 1.356418e-002
3.486668e+003, 1.201700e-002
3.488596e+003, 1.165354e-002
3.490525e+003, 1.179460e-002
3.492453e+003, 1.504471e-002
3.494382e+003, 1.491072e-002
3.496310e+003, 1.178391e-002
3.498239e+003, 9.318187e-003
3.500167e+003, 1.021181e-002
3.502095e+003, 1.236905e-002
3.504024e+003, 1.233325e-002
3.505952e+003, 1.137546e-002
3.507881e+003, 1.029552e-002
3.509809e+003, 9.120388e-003
3.511738e+003, 9.773677e-003
3.513666e+003, 1.071857e-002
3.515595e+003, 1.244550e-002
3.517523e+003, 1.408332e-002
3.519452e+003, 1.295537e-002
3.521380e+003, 1.211877e-002
3.523309e+003, 1.381420e-002
3.525237e+003, 1.480400e-002
3.527166e+003, 1.363864e-002
3.529094e+003, 1.221921e-002
3.531022e+003, 1.306239e-002
3.532951e+003, 1.468996e-002
3.534879e+003, 1.347598e-002
3.536808e+003, 1.195004e-002
3.538736e+003, 1.186995e-002
3.540665e+003, 1.191910e-002
3.542593e+003, 1.215048e-002
3.544522e+003, 1.105352e-002
3.546450e+003, 1.141215e-002
3.548379e+003, 1.320960e-002
3.550307e+003, 1.432393e-002
3.552236e+003, 1.198556e-002
3.554164e+003, 1.166775e-002
3.556093e+003, 1.307409e-002
3.558021e+003, 1.179813e-002
3.559949e+003, 1.042732e-002
3.561878e+003, 1.203261e-002
3.563806e+003, 1.200009e-002
3.565735e+003, 1.142529e-002
3.567663e+003, 1.026450e-002
3.569592e+003, 1.087012e-002
3.571520e+003, 1.190586e-002
3.573449e+003, 1.123305e-002
3.575377e+003, 1.057210e-002
3.577306e+003, 1.125401e-002
3.579234e+003, 1.105307e-002
3.581163e+003, 9.683059e-003
3.583091e+003, 9.495112e-003
3.585020e+003, 8.858688e-003
3.586948e+003, 8.746441e-003
3.588876e+003, 1.066649e-002
3.590805e+003, 1.012019e-002
3.592733e+003, 8.818249e-003
3.594662e+003, 7.968701e-003
3.596590e+003, 7.470223e-003
3.598519e+003, 9.441707e-003
3.600447e+003, 1.175851e-002
3.602376e+003, 1.146718e-002
3.604304e+003, 1.122840e-002
3.606233e+003, 1.173310e-002
3.608161e+003, 1.117431e-002
3.610090e+003, 9.786672e-003
3.612018e+003, 8.052408e-003
3.613947e+003, 9.311609e-003
3.615875e+003, 1.298556e-002
3.617803e+003, 1.436529e-002
3.619732e+003, 1.335088e-002
3.621660e+003, 1.020908e-002
3.623589e+003, 6.502763e-003
3.625517e+003, 6.275364e-003
3.627446e+003, 7.676341e-003
3.629374e+003, 5.324411e-003
3.631303e+003, 3.502303e-003
3.633231e+003, 4.791313e-003
3.635160e+003, 7.296805e-003
3.637088e+003, 6.909428e-003
3.639017e+003, 7.554830e-003
3.640945e+003, 7.550349e-003
3.642874e+003, 6.815192e-003
3.644802e+003, 7.145949e-003
3.646730e+003, 5.503249e-003
3.648659e+003, 4.637171e-003
3.650587e+003, 3.412286e-003
3.652516e+003, 3.226110e-003
3.654444e+003, 4.936617e-003
3.656373e+003, 5.106210e-003
3.658301e+003, 5.591990e-003
3.660230e+003, 6.707475e-003
3.662158e+003, 5.312970e-003
3.664087e+003, 4.274492e-003
3.666015e+003, 2.157430e-003
3.667944e+003, 6.248062e-004
3.669872e+003, 3.690260e-003
3.671801e+003, 1.168744e-003
3.673729e+003, -1.541517e-003
3.675657e+003, -1.592941e-003
3.677586e+003, 1.640622e-003
3.679514e+003, 4.273298e-003
3.681443e+003, 4.619503e-003
3.683371e+003, 3.940311e-003
3.685300e+003, 2.767914e-003
3.687228e+003, -1.804696e-003
3.689157e+003, -7.193235e-004
3.691085e+003, 6.504041e-004
3.693014e+003, 2.235198e-003
3.694942e+003, 2.815873e-003
3.696871e+003, 3.471997e-003
3.698799e+003, 1.749706e-003
3.700728e+003, 2.835759e-003
3.702656e+003, 2.314626e-003
3.704584e+003, -6.055239e-004
3.706513e+003, 5.083981e-004
3.708441e+003, 2.201223e-003
3.710370e+003, 2.227359e-003
3.712298e+003, 4.263863e-004
3.714227e+003, 5.110566e-004
3.716155e+003, 1.792185e-003
3.718084e+003, 1.156601e-003
3.720012e+003, 2.736695e-003
3.721941e+003, 2.872769e-003
3.723869e+003, 1.533932e-003
3.725798e+003, 3.198558e-003
3.727726e+003, 4.324336e-003
3.729655e+003, 1.849172e-003
3.731583e+003, -1.349984e-003
3.733511e+003, -2.887084e-003
3.735440e+003, -2.866830e-003
3.737368e+003, -3.038273e-003
3.739297e+003, -1.038305e-003
3.741225e+003, 1.243814e-003
3.743154e+003, -1.808196e-004
3.745082e+003, 2.973921e-003
3.747011e+003, 1.694088e-003
3.748939e+003, -2.729502e-003
3.750868e+003, -4.202866e-003
3.752796e+003, 2.959687e-004
3.754725e+003, 1.353761e-003
3.756653e+003, 1.875393e-003
3.758582e+003, 6.723892e-004
3.760510e+003, -1.840251e-004
3.762438e+003, 8.491878e-004
3.764367e+003, 2.977489e-003
3.766295e+003, 4.059670e-003
3.768224e+003, 4.522427e-003
3.770152e+003, 4.013234e-003
3.772081e+003, 3.889972e-004
3.774009e+003, -1.203897e-003
3.775938e+003, 5.480825e-004
3.777866e+003, 1.117200e-003
3.779795e+003, -2.414447e-004
3.781723e+003, 1.223010e-004
3.783652e+003, 7.901316e-004
3.785580e+003, 6.669295e-004
3.787509e+003, 3.418910e-003
3.789437e+003, 4.152586e-003
3.791365e+003, 1.751617e-003
3.793294e+003, -2.129003e-004
3.795222e+003, -6.409542e-004
3.797151e+003, 1.414137e-003
3.799079e+003, 1.020690e-003
3.801008e+003, -7.765063e-004
3.802936e+003, -3.108291e-004
3.804865e+003, 3.111323e-003
3.806793e+003, 6.626744e-003
3.808722e+003, 2.973632e-003
3.810650e+003, -1.249903e-003
3.812579e+003, -5.508167e-004
3.814507e+003, 1.550520e-003
3.816436e+003, 2.083626e-003
3.818364e+003, 4.453329e-003
3.820292e+003, 4.601926e-003
3.822221e+003, 2.305791e-003
3.824149e+003, 2.874992e-003
3.826078e+003, 3.627140e-003
3.828006e+003, 1.235601e-003
3.829935e+003, -4.692145e-004
3.831863e+003, -1.747265e-003
3.833792e+003, -4.465741e-004
3.835720e+003, 2.009152e-003
3.837649e+003, 2.593472e-003
3.839577e+003, 4.464293e-003
3.841506e+003, 6.906610e-003
3.843434e+003, 4.797101e-003
3.845363e+003, 2.738808e-003
3.847291e+003, 2.414871e-003
3.849219e+003, 3.653169e-003
3.851148e+003, 4.334837e-003
3.853076e+003, 3.893804e-003
3.855005e+003, 3.801398e-003
3.856933e+003, 3.102430e-003
3.858862e+003, 4.324804e-003
3.860790e+003, 3.305475e-003
3.862719e+003, -2.097584e-004
3.864647e+003, -1.356540e-003
3.866576e+003, 1.121046e-004
3.868504e+003, 3.697292e-003
3.870433e+003, 4.933948e-003
3.872361e+003, 1.556442e-003
3.874290e+003, -6.521260e-004
3.876218e+003, -2.305879e-003
3.878146e+003, -3.734397e-003
3.880075e+003, -1.754736e-003
3.882003e+003, 1.173482e-003
3.883932e+003, -3.774066e-004
3.885860e+003, -5.216316e-004
3.887789e+003, 3.681511e-003
3.889717e+003, 3.127639e-003
3.891646e+003, 1.352410e-003
3.893574e+003, 4.865245e-003
3.895503e+003, 4.904159e-003
3.897431e+003, 2.221721e-003
3.899360e+003, 2.162793e-003
3.901288e+003, 1.379824e-003
3.903217e+003, -3.689364e-004
3.905145e+003, 1.454745e-003
3.907073e+003, 4.645320e-003
3.909002e+003, 4.049898e-003
3.910930e+003, 2.708150e-003
3.912859e+003, 3.047793e-003
3.914787e+003, 3.650920e-003
3.916716e+003, 4.444421e-003
3.918644e+003, 4.427473e-003
3.920573e+003, 1.951633e-003
3.922501e+003, 2.020776e-003
3.924430e+003, 4.904062e-003
3.926358e+003, 4.723822e-003
3.928287e+003, 4.245240e-003
3.930215e+003, 5.518555e-003
3.932144e+003, 4.011710e-003
3.934072e+003, 1.489265e-003
3.936000e+003, -1.630117e-004
3.937929e+003, -4.123960e-004
3.939857e+003, -2.618654e-003
3.941786e+003, -1.936855e-003
3.943714e+003, 1.931494e-003
3.945643e+003, 2.185977e-003
3.947571e+003, -1.292330e-003
3.949500e+003, -1.994107e-003
3.951428e+003, 4.665556e-004
3.953357e+003, 2.476592e-003
3.955285e+003, 2.980800e-003
3.957214e+003, 3.798107e-003
3.959142e+003, 6.944370e-003
3.961071e+003, 4.093450e-003
3.962999e+003, 6.683818e-005
3.964927e+003, 5.668410e-004
3.966856e+003, 1.537590e-003
3.968784e+003, 1.398564e-003
3.970713e+003, 2.532658e-003
3.972641e+003, 1.231440e-003
3.974570e+003, -6.221400e-004
3.976498e+003, 4.539641e-004
3.978427e+003, 2.345375e-003
3.980355e+003, 2.160311e-003
3.982284e+003, 1.786722e-003
3.984212e+003, 1.231592e-003
3.986141e+003, -7.232343e-004
3.988069e+003, 9.199445e-004
3.989998e+003, 2.251057e-003
3.991926e+003, 8.861618e-004
3.993854e+003, 5.225276e-004
3.995783e+003, 1.561789e-003
3.997711e+003, -1.462805e-003
3.999640e+003, -1.463511e-003
4.001568e+003, 0.000000e+000
##END=



