##NAMES=Hanksite
##RRUFFID=R050291
##IDEAL CHEMISTRY=KNa_22_(S^6+^O_4_)_9_(CO_3_)_2_Cl
##LOCALITY=Searles Lake, Trona, San Bernardino County, California, USA
##OWNER=RRUFF
##SOURCE=Marcus Origlieri
##DESCRIPTION=Pale yellow hexagonal prism with pyramidal terminations
##STATUS=The identification of this mineral has been confirmed by X-ray diffraction and chemical analysis
##URL=rruff.info/R050291
##MEASURED CHEMISTRY=K_1.00_(Na_21.65_K_0.35_)_Î£=22_(S_1.00_O_4_)_9_(CO_3_)_2_Cl_1.00_
3.991926e+002, 4.887906e-003
4.011211e+002, 3.515975e-003
4.030496e+002, 3.532878e-003
4.049780e+002, 6.992115e-003
4.069065e+002, 9.176095e-003
4.088350e+002, 5.354670e-003
4.107634e+002, 1.210223e-003
4.126919e+002, 1.243592e-003
4.146204e+002, 1.345062e-003
4.165488e+002, 1.042700e-003
4.184773e+002, 1.404728e-003
4.204058e+002, 3.841558e-003
4.223342e+002, 3.983798e-003
4.242627e+002, 2.441479e-003
4.261912e+002, 2.015886e-003
4.281196e+002, 1.127257e-003
4.300481e+002, 1.854092e-003
4.319766e+002, 4.484123e-003
4.339050e+002, 5.603233e-003
4.358335e+002, 4.534293e-003
4.377620e+002, 4.662289e-003
4.396904e+002, 4.886602e-003
4.416189e+002, 4.408263e-003
4.435474e+002, 3.725157e-003
4.454758e+002, 3.270575e-003
4.474043e+002, 3.366648e-003
4.493328e+002, 3.945359e-003
4.512612e+002, 5.093888e-003
4.531897e+002, 5.538461e-003
4.551182e+002, 5.118624e-003
4.570466e+002, 5.077319e-003
4.589751e+002, 4.801221e-003
4.609036e+002, 5.025244e-003
4.628320e+002, 4.575658e-003
4.647605e+002, 4.978428e-003
4.666890e+002, 5.371844e-003
4.686174e+002, 4.582283e-003
4.705459e+002, 4.477946e-003
4.724744e+002, 5.281085e-003
4.744028e+002, 5.415572e-003
4.763313e+002, 5.354758e-003
4.782598e+002, 4.963283e-003
4.801882e+002, 4.286662e-003
4.821167e+002, 2.970920e-003
4.840452e+002, 2.810324e-003
4.859736e+002, 3.759710e-003
4.879021e+002, 4.062076e-003
4.898306e+002, 3.924623e-003
4.917590e+002, 3.876616e-003
4.936875e+002, 3.973305e-003
4.956160e+002, 4.215473e-003
4.975444e+002, 3.857718e-003
4.994729e+002, 3.508107e-003
5.014014e+002, 3.273762e-003
5.033298e+002, 3.479541e-003
5.052583e+002, 4.318808e-003
5.071868e+002, 4.022315e-003
5.091152e+002, 3.640234e-003
5.110437e+002, 3.925240e-003
5.129722e+002, 4.409309e-003
5.149006e+002, 4.274646e-003
5.168291e+002, 4.198181e-003
5.187576e+002, 4.332756e-003
5.206860e+002, 4.250183e-003
5.226145e+002, 3.709030e-003
5.245430e+002, 3.466960e-003
5.264714e+002, 4.483447e-003
5.283999e+002, 5.319112e-003
5.303284e+002, 5.123267e-003
5.322568e+002, 4.852080e-003
5.341853e+002, 5.111794e-003
5.361138e+002, 5.609987e-003
5.380422e+002, 6.085890e-003
5.399707e+002, 6.314144e-003
5.418992e+002, 6.182523e-003
5.438276e+002, 5.805546e-003
5.457561e+002, 5.808397e-003
5.476846e+002, 5.800453e-003
5.496130e+002, 6.091214e-003
5.515415e+002, 6.370930e-003
5.534700e+002, 6.296988e-003
5.553984e+002, 6.629281e-003
5.573269e+002, 7.043076e-003
5.592554e+002, 6.644123e-003
5.611838e+002, 6.900459e-003
5.631123e+002, 7.541922e-003
5.650408e+002, 7.788236e-003
5.669692e+002, 8.163323e-003
5.688977e+002, 8.692272e-003
5.708262e+002, 9.047768e-003
5.727546e+002, 9.545539e-003
5.746831e+002, 1.001003e-002
5.766116e+002, 1.020182e-002
5.785400e+002, 1.129621e-002
5.804685e+002, 1.216735e-002
5.823970e+002, 1.285336e-002
5.843254e+002, 1.395924e-002
5.862539e+002, 1.510478e-002
5.881824e+002, 1.635592e-002
5.901108e+002, 1.871523e-002
5.920393e+002, 2.100016e-002
5.939678e+002, 2.405673e-002
5.958962e+002, 2.820815e-002
5.978247e+002, 3.392638e-002
5.997532e+002, 4.189975e-002
6.016816e+002, 5.277052e-002
6.036101e+002, 6.893712e-002
6.055386e+002, 9.276823e-002
6.074670e+002, 1.262964e-001
6.093955e+002, 1.707096e-001
6.113240e+002, 2.186125e-001
6.132524e+002, 2.575858e-001
6.151809e+002, 2.715923e-001
6.171094e+002, 2.571298e-001
6.190378e+002, 2.299182e-001
6.209663e+002, 1.998631e-001
6.228948e+002, 1.676258e-001
6.248232e+002, 1.438255e-001
6.267517e+002, 1.482942e-001
6.286802e+002, 1.792122e-001
6.306086e+002, 1.966122e-001
6.325371e+002, 1.869774e-001
6.344656e+002, 1.595664e-001
6.363940e+002, 1.162454e-001
6.383225e+002, 7.566848e-002
6.402510e+002, 4.869229e-002
6.421794e+002, 3.285689e-002
6.441079e+002, 2.353749e-002
6.460364e+002, 1.778819e-002
6.479648e+002, 1.434850e-002
6.498933e+002, 1.207359e-002
6.518218e+002, 1.048721e-002
6.537502e+002, 9.074763e-003
6.556787e+002, 7.785060e-003
6.576072e+002, 6.865198e-003
6.595356e+002, 6.429785e-003
6.614641e+002, 5.741493e-003
6.633926e+002, 5.262625e-003
6.653210e+002, 5.126059e-003
6.672495e+002, 5.313127e-003
6.691780e+002, 4.718574e-003
6.711064e+002, 4.313416e-003
6.730349e+002, 4.404923e-003
6.749634e+002, 4.681800e-003
6.768918e+002, 4.730911e-003
6.788203e+002, 4.303787e-003
6.807488e+002, 4.138161e-003
6.826772e+002, 4.409411e-003
6.846057e+002, 4.501839e-003
6.865342e+002, 4.551265e-003
6.884626e+002, 4.678657e-003
6.903911e+002, 4.377773e-003
6.923196e+002, 4.193215e-003
6.942480e+002, 4.663115e-003
6.961765e+002, 4.903579e-003
6.981050e+002, 4.988592e-003
7.000334e+002, 5.326509e-003
7.019619e+002, 5.398208e-003
7.038904e+002, 5.518910e-003
7.058188e+002, 6.433515e-003
7.077473e+002, 9.121982e-003
7.096758e+002, 1.319526e-002
7.116042e+002, 1.243417e-002
7.135327e+002, 7.894067e-003
7.154612e+002, 5.425151e-003
7.173896e+002, 4.869420e-003
7.193181e+002, 4.559241e-003
7.212466e+002, 4.520254e-003
7.231750e+002, 4.702361e-003
7.251035e+002, 4.737997e-003
7.270320e+002, 4.583568e-003
7.289604e+002, 4.687027e-003
7.308889e+002, 4.856497e-003
7.328174e+002, 4.807161e-003
7.347458e+002, 4.730995e-003
7.366743e+002, 4.794450e-003
7.386028e+002, 4.965534e-003
7.405313e+002, 4.958216e-003
7.424597e+002, 4.874883e-003
7.443882e+002, 4.717766e-003
7.463167e+002, 4.847766e-003
7.482451e+002, 5.005558e-003
7.501736e+002, 4.966062e-003
7.521021e+002, 4.992440e-003
7.540305e+002, 4.918847e-003
7.559590e+002, 4.777146e-003
7.578875e+002, 4.766452e-003
7.598159e+002, 4.786449e-003
7.617444e+002, 5.039942e-003
7.636729e+002, 5.150782e-003
7.656013e+002, 4.827732e-003
7.675298e+002, 4.695709e-003
7.694583e+002, 4.758476e-003
7.713867e+002, 5.103272e-003
7.733152e+002, 5.405300e-003
7.752437e+002, 5.198432e-003
7.771721e+002, 5.042571e-003
7.791006e+002, 5.177055e-003
7.810291e+002, 5.283275e-003
7.829575e+002, 5.516069e-003
7.848860e+002, 5.505550e-003
7.868145e+002, 5.354160e-003
7.887429e+002, 5.204641e-003
7.906714e+002, 5.128458e-003
7.925999e+002, 4.735429e-003
7.945283e+002, 4.515541e-003
7.964568e+002, 4.738513e-003
7.983853e+002, 5.046566e-003
8.003137e+002, 5.331480e-003
8.022422e+002, 5.512286e-003
8.041707e+002, 5.326329e-003
8.060991e+002, 5.322369e-003
8.080276e+002, 5.597492e-003
8.099561e+002, 5.625469e-003
8.118845e+002, 5.158018e-003
8.138130e+002, 5.100722e-003
8.157415e+002, 5.329177e-003
8.176699e+002, 5.644606e-003
8.195984e+002, 5.807552e-003
8.215269e+002, 5.734157e-003
8.234553e+002, 5.947303e-003
8.253838e+002, 6.189153e-003
8.273123e+002, 5.913456e-003
8.292407e+002, 6.120944e-003
8.311692e+002, 6.465258e-003
8.330977e+002, 6.436055e-003
8.350261e+002, 6.502497e-003
8.369546e+002, 6.834545e-003
8.388831e+002, 6.354210e-003
8.408115e+002, 6.197202e-003
8.427400e+002, 6.254361e-003
8.446685e+002, 6.683682e-003
8.465969e+002, 6.928347e-003
8.485254e+002, 7.883408e-003
8.504539e+002, 8.988763e-003
8.523823e+002, 8.424237e-003
8.543108e+002, 7.822833e-003
8.562393e+002, 8.026587e-003
8.581677e+002, 7.914057e-003
8.600962e+002, 8.297933e-003
8.620247e+002, 9.013264e-003
8.639531e+002, 9.840789e-003
8.658816e+002, 1.106185e-002
8.678101e+002, 1.335194e-002
8.697385e+002, 1.725134e-002
8.716670e+002, 2.685865e-002
8.735955e+002, 5.173209e-002
8.755239e+002, 9.625895e-002
8.774524e+002, 1.028555e-001
8.793809e+002, 5.329092e-002
8.813093e+002, 2.124096e-002
8.832378e+002, 1.244735e-002
8.851663e+002, 9.780305e-003
8.870947e+002, 8.650112e-003
8.890232e+002, 8.493111e-003
8.909517e+002, 7.913701e-003
8.928801e+002, 7.664199e-003
8.948085e+002, 7.671076e-003
8.967370e+002, 7.796357e-003
8.986655e+002, 7.852070e-003
9.005939e+002, 8.069067e-003
9.025224e+002, 8.149298e-003
9.044509e+002, 8.189478e-003
9.063793e+002, 8.286001e-003
9.083078e+002, 8.642273e-003
9.102363e+002, 8.775564e-003
9.121647e+002, 8.862425e-003
9.140932e+002, 9.108041e-003
9.160217e+002, 9.571636e-003
9.179501e+002, 9.600353e-003
9.198786e+002, 9.613435e-003
9.218071e+002, 9.822576e-003
9.237355e+002, 1.004951e-002
9.256640e+002, 1.024668e-002
9.275925e+002, 1.027603e-002
9.295209e+002, 1.056304e-002
9.314494e+002, 1.099130e-002
9.333779e+002, 1.113042e-002
9.353063e+002, 1.138977e-002
9.372348e+002, 1.160592e-002
9.391633e+002, 1.172269e-002
9.410917e+002, 1.202785e-002
9.430202e+002, 1.251840e-002
9.449487e+002, 1.281390e-002
9.468771e+002, 1.308697e-002
9.488056e+002, 1.351853e-002
9.507341e+002, 1.378992e-002
9.526625e+002, 1.413803e-002
9.545910e+002, 1.473062e-002
9.565195e+002, 1.512622e-002
9.584479e+002, 1.575000e-002
9.603764e+002, 1.627288e-002
9.623049e+002, 1.651713e-002
9.642333e+002, 1.713494e-002
9.661618e+002, 1.818257e-002
9.680903e+002, 1.913558e-002
9.700187e+002, 1.993681e-002
9.719472e+002, 2.047001e-002
9.738757e+002, 2.160148e-002
9.758041e+002, 2.300567e-002
9.777326e+002, 2.433841e-002
9.796611e+002, 2.616540e-002
9.815895e+002, 2.973787e-002
9.835180e+002, 3.688854e-002
9.854465e+002, 4.743679e-002
9.873749e+002, 5.155055e-002
9.893034e+002, 4.751073e-002
9.912319e+002, 4.290261e-002
9.931603e+002, 3.713110e-002
9.950888e+002, 3.335605e-002
9.970173e+002, 3.232297e-002
9.989457e+002, 3.248168e-002
1.000874e+003, 3.343755e-002
1.002803e+003, 3.492760e-002
1.004731e+003, 3.631243e-002
1.006660e+003, 3.793560e-002
1.008588e+003, 3.973028e-002
1.010517e+003, 4.153699e-002
1.012445e+003, 4.351141e-002
1.014373e+003, 4.588006e-002
1.016302e+003, 4.847038e-002
1.018230e+003, 5.074591e-002
1.020159e+003, 5.327324e-002
1.022087e+003, 5.628249e-002
1.024016e+003, 5.937317e-002
1.025944e+003, 6.267221e-002
1.027873e+003, 6.626917e-002
1.029801e+003, 7.056798e-002
1.031730e+003, 7.518246e-002
1.033658e+003, 8.022777e-002
1.035587e+003, 8.572403e-002
1.037515e+003, 9.165226e-002
1.039444e+003, 9.812571e-002
1.041372e+003, 1.052307e-001
1.043301e+003, 1.126275e-001
1.045229e+003, 1.206646e-001
1.047157e+003, 1.301243e-001
1.049086e+003, 1.401397e-001
1.051014e+003, 1.499998e-001
1.052943e+003, 1.614604e-001
1.054871e+003, 1.745202e-001
1.056800e+003, 1.879696e-001
1.058728e+003, 2.020347e-001
1.060657e+003, 2.172420e-001
1.062585e+003, 2.337350e-001
1.064514e+003, 2.513255e-001
1.066442e+003, 2.699628e-001
1.068371e+003, 2.893588e-001
1.070299e+003, 3.092725e-001
1.072228e+003, 3.302194e-001
1.074156e+003, 3.519925e-001
1.076084e+003, 3.738515e-001
1.078013e+003, 3.958271e-001
1.079941e+003, 4.178966e-001
1.081870e+003, 4.386192e-001
1.083798e+003, 4.552185e-001
1.085727e+003, 4.703271e-001
1.087655e+003, 4.877376e-001
1.089584e+003, 5.048704e-001
1.091512e+003, 5.165374e-001
1.093441e+003, 5.157105e-001
1.095369e+003, 4.971410e-001
1.097298e+003, 4.753272e-001
1.099226e+003, 4.762196e-001
1.101155e+003, 4.992633e-001
1.103083e+003, 5.239169e-001
1.105011e+003, 5.381511e-001
1.106940e+003, 5.424631e-001
1.108868e+003, 5.393065e-001
1.110797e+003, 5.259092e-001
1.112725e+003, 5.004917e-001
1.114654e+003, 4.691132e-001
1.116582e+003, 4.398400e-001
1.118511e+003, 4.146501e-001
1.120439e+003, 3.884643e-001
1.122368e+003, 3.599745e-001
1.124296e+003, 3.301254e-001
1.126225e+003, 3.016320e-001
1.128153e+003, 2.792161e-001
1.130082e+003, 2.624144e-001
1.132010e+003, 2.442588e-001
1.133938e+003, 2.234598e-001
1.135867e+003, 2.030719e-001
1.137795e+003, 1.837260e-001
1.139724e+003, 1.650561e-001
1.141652e+003, 1.469294e-001
1.143581e+003, 1.299603e-001
1.145509e+003, 1.144478e-001
1.147438e+003, 1.024415e-001
1.149366e+003, 9.993529e-002
1.151295e+003, 1.139278e-001
1.153223e+003, 1.440157e-001
1.155152e+003, 1.693914e-001
1.157080e+003, 1.685943e-001
1.159009e+003, 1.500119e-001
1.160937e+003, 1.270849e-001
1.162865e+003, 1.061669e-001
1.164794e+003, 9.093943e-002
1.166722e+003, 8.046751e-002
1.168651e+003, 7.258561e-002
1.170579e+003, 6.637850e-002
1.172508e+003, 6.191917e-002
1.174436e+003, 5.914648e-002
1.176365e+003, 5.812533e-002
1.178293e+003, 5.935629e-002
1.180222e+003, 6.406327e-002
1.182150e+003, 7.115401e-002
1.184079e+003, 7.585125e-002
1.186007e+003, 7.410882e-002
1.187936e+003, 6.697962e-002
1.189864e+003, 5.756364e-002
1.191792e+003, 4.794661e-002
1.193721e+003, 3.861753e-002
1.195649e+003, 3.023200e-002
1.197578e+003, 2.354356e-002
1.199506e+003, 1.852928e-002
1.201435e+003, 1.464265e-002
1.203363e+003, 1.198079e-002
1.205292e+003, 1.036177e-002
1.207220e+003, 8.906320e-003
1.209149e+003, 7.746253e-003
1.211077e+003, 6.908079e-003
1.213006e+003, 6.257011e-003
1.214934e+003, 6.036886e-003
1.216863e+003, 5.654808e-003
1.218791e+003, 5.233887e-003
1.220719e+003, 4.792648e-003
1.222648e+003, 4.418545e-003
1.224576e+003, 4.194808e-003
1.226505e+003, 4.022651e-003
1.228433e+003, 3.648319e-003
1.230362e+003, 3.489106e-003
1.232290e+003, 3.337397e-003
1.234219e+003, 3.214204e-003
1.236147e+003, 3.274032e-003
1.238076e+003, 3.228913e-003
1.240004e+003, 3.054831e-003
1.241933e+003, 2.869579e-003
1.243861e+003, 2.738189e-003
1.245790e+003, 2.602431e-003
1.247718e+003, 2.692125e-003
1.249646e+003, 3.030075e-003
1.251575e+003, 2.962987e-003
1.253503e+003, 2.853933e-003
1.255432e+003, 2.491343e-003
1.257360e+003, 2.299421e-003
1.259289e+003, 2.690505e-003
1.261217e+003, 2.566807e-003
1.263146e+003, 2.024945e-003
1.265074e+003, 1.890352e-003
1.267003e+003, 1.935025e-003
1.268931e+003, 1.787193e-003
1.270860e+003, 1.608705e-003
1.272788e+003, 1.471419e-003
1.274717e+003, 1.311856e-003
1.276645e+003, 1.342378e-003
1.278573e+003, 1.313320e-003
1.280502e+003, 1.277324e-003
1.282430e+003, 1.042286e-003
1.284359e+003, 7.019345e-004
1.286287e+003, 7.546687e-004
1.288216e+003, 9.484692e-004
1.290144e+003, 8.193454e-004
1.292073e+003, 7.722529e-004
1.294001e+003, 7.219293e-004
1.295930e+003, 7.163411e-004
1.297858e+003, 5.463204e-004
1.299787e+003, 6.534488e-004
1.301715e+003, 7.727468e-004
1.303644e+003, 8.068521e-004
1.305572e+003, 1.057497e-003
1.307500e+003, 1.135628e-003
1.309429e+003, 7.973984e-004
1.311357e+003, 7.357021e-004
1.313286e+003, 7.534282e-004
1.315214e+003, 8.041944e-004
1.317143e+003, 9.374180e-004
1.319071e+003, 9.804686e-004
1.321000e+003, 9.662494e-004
1.322928e+003, 1.020308e-003
1.324857e+003, 1.050292e-003
1.326785e+003, 1.017998e-003
1.328714e+003, 8.286292e-004
1.330642e+003, 7.887268e-004
1.332571e+003, 1.015094e-003
1.334499e+003, 1.141887e-003
1.336427e+003, 1.087236e-003
1.338356e+003, 8.475211e-004
1.340284e+003, 8.824100e-004
1.342213e+003, 1.238819e-003
1.344141e+003, 1.218195e-003
1.346070e+003, 9.804321e-004
1.347998e+003, 8.122536e-004
1.349927e+003, 8.295852e-004
1.351855e+003, 8.747756e-004
1.353784e+003, 1.047925e-003
1.355712e+003, 1.223775e-003
1.357641e+003, 1.344803e-003
1.359569e+003, 1.405684e-003
1.361498e+003, 1.627485e-003
1.363426e+003, 1.830731e-003
1.365354e+003, 1.833320e-003
1.367283e+003, 1.773109e-003
1.369211e+003, 1.666140e-003
1.371140e+003, 1.605983e-003
1.373068e+003, 1.615632e-003
1.374997e+003, 1.481965e-003
1.376925e+003, 1.913114e-003
1.378854e+003, 2.289223e-003
1.380782e+003, 2.694734e-003
1.382711e+003, 3.076772e-003
1.384639e+003, 3.189580e-003
1.386568e+003, 3.652094e-003
1.388496e+003, 4.208094e-003
1.390424e+003, 4.644340e-003
1.392353e+003, 5.215905e-003
1.394281e+003, 5.576775e-003
1.396210e+003, 5.922712e-003
1.398138e+003, 6.127543e-003
1.400067e+003, 6.653225e-003
1.401995e+003, 7.420404e-003
1.403924e+003, 8.236445e-003
1.405852e+003, 9.146545e-003
1.407781e+003, 1.022197e-002
1.409709e+003, 1.152906e-002
1.411638e+003, 1.286861e-002
1.413566e+003, 1.440046e-002
1.415495e+003, 1.608056e-002
1.417423e+003, 1.750437e-002
1.419351e+003, 1.928062e-002
1.421280e+003, 2.262419e-002
1.423208e+003, 2.829570e-002
1.425137e+003, 3.722230e-002
1.427065e+003, 4.339483e-002
1.428994e+003, 4.099348e-002
1.430922e+003, 3.736912e-002
1.432851e+003, 3.850008e-002
1.434779e+003, 4.356695e-002
1.436708e+003, 5.222374e-002
1.438636e+003, 6.497280e-002
1.440565e+003, 8.157980e-002
1.442493e+003, 1.023239e-001
1.444422e+003, 1.273077e-001
1.446350e+003, 1.587057e-001
1.448278e+003, 1.983163e-001
1.450207e+003, 2.453561e-001
1.452135e+003, 2.964132e-001
1.454064e+003, 3.488937e-001
1.455992e+003, 3.898674e-001
1.457921e+003, 3.928076e-001
1.459849e+003, 3.535938e-001
1.461778e+003, 2.994443e-001
1.463706e+003, 2.481843e-001
1.465635e+003, 2.031062e-001
1.467563e+003, 1.647656e-001
1.469492e+003, 1.321714e-001
1.471420e+003, 1.043715e-001
1.473349e+003, 8.040319e-002
1.475277e+003, 5.901357e-002
1.477205e+003, 4.088455e-002
1.479134e+003, 2.818384e-002
1.481062e+003, 2.030562e-002
1.482991e+003, 1.514016e-002
1.484919e+003, 1.157475e-002
1.486848e+003, 9.169414e-003
1.488776e+003, 7.549935e-003
1.490705e+003, 6.311189e-003
1.492633e+003, 5.260261e-003
1.494562e+003, 4.487059e-003
1.496490e+003, 3.900665e-003
1.498419e+003, 3.202411e-003
1.500347e+003, 2.476009e-003
1.502276e+003, 1.908230e-003
1.504204e+003, 1.451367e-003
1.506132e+003, 1.138408e-003
1.508061e+003, 1.121095e-003
1.509989e+003, 1.025207e-003
1.511918e+003, 7.036238e-004
1.513846e+003, 5.975749e-004
1.515775e+003, 4.743332e-004
1.517703e+003, 2.545549e-004
1.519632e+003, 6.304314e-005
1.521560e+003, 1.670979e-004
1.523489e+003, 3.577933e-004
1.525417e+003, 2.798665e-004
1.527346e+003, 1.904114e-004
1.529274e+003, 1.234461e-004
1.531203e+003, 1.790677e-004
1.533131e+003, 2.058179e-004
1.535059e+003, 4.659636e-004
1.536988e+003, 6.735387e-004
1.538916e+003, 5.937423e-004
1.540845e+003, 7.112084e-004
1.542773e+003, 6.318646e-004
1.544702e+003, 8.775296e-004
1.546630e+003, 1.368280e-003
1.548559e+003, 1.188671e-003
1.550487e+003, 8.441397e-004
1.552416e+003, 7.241186e-004
1.554344e+003, 5.977358e-004
1.556273e+003, 6.398709e-004
1.558201e+003, 9.569062e-004
1.560130e+003, 1.263064e-003
1.562058e+003, 1.188352e-003
1.563986e+003, 1.098357e-003
1.565915e+003, 1.309647e-003
1.567843e+003, 1.118237e-003
1.569772e+003, 8.985422e-004
1.571700e+003, 9.869433e-004
1.573629e+003, 1.283448e-003
1.575557e+003, 1.343550e-003
1.577486e+003, 1.248838e-003
1.579414e+003, 1.335566e-003
1.581343e+003, 1.291839e-003
1.583271e+003, 1.317750e-003
1.585200e+003, 1.095946e-003
1.587128e+003, 8.813065e-004
1.589057e+003, 8.070983e-004
1.590985e+003, 6.754081e-004
1.592913e+003, 8.687178e-004
1.594842e+003, 1.016081e-003
1.596770e+003, 8.997986e-004
1.598699e+003, 7.210496e-004
1.600627e+003, 5.046545e-004
1.602556e+003, 2.422805e-004
1.604484e+003, 3.468689e-004
1.606413e+003, 4.699925e-004
1.608341e+003, 4.478932e-004
1.610270e+003, 5.501437e-004
1.612198e+003, 8.591246e-004
1.614127e+003, 5.383479e-004
1.616055e+003, 9.547978e-005
1.617984e+003, 1.632088e-004
1.619912e+003, 1.930927e-004
1.621840e+003, 8.609374e-005
1.623769e+003, -2.236733e-004
1.625697e+003, -4.539976e-004
1.627626e+003, -2.012914e-004
1.629554e+003, -9.178873e-006
1.631483e+003, -1.902032e-004
1.633411e+003, -3.975194e-004
1.635340e+003, -4.085489e-004
1.637268e+003, -3.156067e-004
1.639197e+003, -2.404040e-004
1.641125e+003, -3.154262e-004
1.643054e+003, -1.421857e-004
1.644982e+003, -3.515791e-004
1.646911e+003, -5.601476e-004
1.648839e+003, -2.372851e-004
1.650767e+003, -1.640879e-005
1.652696e+003, -4.972720e-004
1.654624e+003, -6.005695e-004
1.656553e+003, -7.095202e-004
1.658481e+003, -3.730837e-004
1.660410e+003, -6.986704e-005
1.662338e+003, -3.860625e-004
1.664267e+003, -8.084532e-004
1.666195e+003, -4.709899e-004
1.668124e+003, -1.925409e-004
1.670052e+003, 5.644448e-005
1.671981e+003, 3.279836e-004
1.673909e+003, -1.575544e-004
1.675838e+003, -3.668317e-004
1.677766e+003, 2.990866e-005
1.679694e+003, -8.520293e-005
1.681623e+003, -2.779290e-004
1.683551e+003, -3.541354e-004
1.685480e+003, -9.325815e-005
1.687408e+003, -7.480463e-005
1.689337e+003, -4.074376e-004
1.691265e+003, -2.992404e-004
1.693194e+003, -1.051844e-004
1.695122e+003, -5.970297e-004
1.697051e+003, -9.275508e-004
1.698979e+003, -8.424097e-004
1.700908e+003, -7.571753e-004
1.702836e+003, -6.963125e-004
1.704765e+003, -1.107591e-003
1.706693e+003, -1.047012e-003
1.708621e+003, -7.741259e-004
1.710550e+003, -1.139419e-003
1.712478e+003, -1.541482e-003
1.714407e+003, -1.543955e-003
1.716335e+003, -1.597844e-003
1.718264e+003, -1.152288e-003
1.720192e+003, -7.489630e-004
1.722121e+003, -1.311932e-003
1.724049e+003, -1.947019e-003
1.725978e+003, -2.236509e-003
1.727906e+003, -1.817968e-003
1.729835e+003, -1.948750e-003
1.731763e+003, -2.264716e-003
1.733692e+003, -2.663853e-003
1.735620e+003, -2.802273e-003
1.737548e+003, -2.667886e-003
1.739477e+003, -3.502070e-003
1.741405e+003, -4.124481e-003
1.743334e+003, -3.721277e-003
1.745262e+003, -3.231735e-003
1.747191e+003, -3.282746e-003
1.749119e+003, -3.383482e-003
1.751048e+003, -3.054029e-003
1.752976e+003, -2.476584e-003
1.754905e+003, -1.854262e-003
1.756833e+003, -1.150080e-003
1.758762e+003, -2.710467e-004
1.760690e+003, -8.715317e-005
1.762619e+003, -5.815864e-004
1.764547e+003, -7.475396e-004
1.766475e+003, -2.657993e-004
1.768404e+003, 4.028247e-004
1.770332e+003, 1.291763e-004
1.772261e+003, -2.534618e-004
1.774189e+003, -5.825478e-005
1.776118e+003, -5.097076e-004
1.778046e+003, -6.274721e-004
1.779975e+003, -2.606378e-004
1.781903e+003, 5.313211e-004
1.783832e+003, 1.799606e-003
1.785760e+003, 2.766010e-003
1.787689e+003, 3.620002e-003
1.789617e+003, 3.363789e-003
1.791546e+003, 2.047029e-003
1.793474e+003, 1.178696e-003
1.795402e+003, 2.851826e-004
1.797331e+003, -7.050736e-005
1.799259e+003, -9.061219e-005
1.801188e+003, -1.906564e-004
1.803116e+003, -1.380574e-004
1.805045e+003, -1.582969e-004
1.806973e+003, 3.592340e-007
1.808902e+003, -1.102819e-005
1.810830e+003, -5.061781e-004
1.812759e+003, -8.040867e-004
1.814687e+003, -5.783986e-004
1.816616e+003, -7.788436e-005
1.818544e+003, -6.002802e-004
1.820473e+003, -9.192188e-004
1.822401e+003, -5.942525e-004
1.824329e+003, -2.434447e-004
1.826258e+003, -6.456293e-005
1.828186e+003, -1.171438e-004
1.830115e+003, -8.792184e-005
1.832043e+003, 8.219611e-005
1.833972e+003, 1.978816e-004
1.835900e+003, 2.186559e-004
1.837829e+003, 3.005719e-004
1.839757e+003, 4.851948e-004
1.841686e+003, 3.693934e-004
1.843614e+003, 2.457272e-004
1.845543e+003, 2.048796e-004
1.847471e+003, 1.267846e-004
1.849400e+003, -1.049012e-004
1.851328e+003, 2.700727e-004
1.853256e+003, 3.357145e-004
1.855185e+003, -1.770310e-005
1.857113e+003, 7.445917e-005
1.859042e+003, 1.610937e-004
1.860970e+003, -3.383890e-004
1.862899e+003, -2.820358e-004
1.864827e+003, 1.624603e-004
1.866756e+003, 4.634126e-004
1.868684e+003, -1.748968e-004
1.870613e+003, -4.014135e-004
1.872541e+003, -1.047250e-004
1.874470e+003, -1.980407e-004
1.876398e+003, -9.891259e-004
1.878327e+003, -4.100980e-004
1.880255e+003, 3.963270e-004
1.882183e+003, 4.309888e-004
1.884112e+003, 1.262398e-003
1.886040e+003, 1.140525e-003
1.887969e+003, -9.101398e-005
1.889897e+003, -3.231125e-005
1.891826e+003, -2.552716e-004
1.893754e+003, -8.119940e-004
1.895683e+003, -1.017798e-003
1.897611e+003, -1.129413e-003
1.899540e+003, -2.799070e-004
1.901468e+003, 1.061974e-003
1.903397e+003, 6.641123e-004
1.905325e+003, 4.981195e-005
1.907254e+003, -1.380064e-004
1.909182e+003, -4.023169e-005
1.911110e+003, 1.340867e-003
1.913039e+003, 1.471113e-003
1.914967e+003, -9.703548e-004
1.916896e+003, -1.343327e-003
1.918824e+003, -1.376035e-003
1.920753e+003, -1.488474e-003
1.922681e+003, -7.093220e-004
1.924610e+003, -4.702997e-004
1.926538e+003, -4.504829e-004
1.928467e+003, 4.728457e-006
1.930395e+003, 2.866618e-004
1.932324e+003, 4.613038e-004
1.934252e+003, 7.958568e-004
1.936181e+003, 3.920050e-004
1.938109e+003, -9.953105e-005
1.940037e+003, -5.463423e-004
1.941966e+003, -3.544031e-004
1.943894e+003, 3.427903e-004
1.945823e+003, -3.932842e-006
1.947751e+003, -1.817985e-003
1.949680e+003, -2.375201e-003
1.951608e+003, -2.663766e-004
1.953537e+003, 7.920000e-004
1.955465e+003, 1.562938e-004
1.957394e+003, -5.478596e-004
1.959322e+003, -1.133207e-003
1.961251e+003, -8.558662e-004
1.963179e+003, -1.461093e-003
1.965108e+003, -2.023882e-003
1.967036e+003, 1.003714e-005
1.968964e+003, -9.883979e-004
1.970893e+003, -2.777750e-003
1.972821e+003, -3.076745e-003
1.974750e+003, -3.408934e-003
1.976678e+003, -1.278172e-003
1.978607e+003, 1.313959e-003
1.980535e+003, 2.157834e-003
1.982464e+003, 1.691723e-003
1.984392e+003, 2.284847e-003
1.986321e+003, 3.822227e-003
1.988249e+003, 4.242851e-003
1.990178e+003, 2.878369e-003
1.992106e+003, 1.001899e-003
1.994035e+003, 2.074860e-004
1.995963e+003, -8.556863e-004
1.997891e+003, -9.949182e-004
1.999820e+003, -4.505707e-005
2.001748e+003, -1.539919e-003
2.003677e+003, -4.330179e-003
2.005605e+003, -3.829278e-003
2.007534e+003, -1.917495e-004
2.009462e+003, 2.862147e-004
2.011391e+003, 5.143881e-004
2.013319e+003, 4.877150e-004
2.015248e+003, -3.603013e-004
2.017176e+003, 4.606962e-004
2.019105e+003, 5.928103e-004
2.021033e+003, 3.274529e-004
2.022962e+003, 1.489639e-003
2.024890e+003, 1.302367e-004
2.026818e+003, -2.227855e-003
2.028747e+003, -1.789811e-003
2.030675e+003, -6.374918e-004
2.032604e+003, 3.603212e-005
2.034532e+003, -7.829163e-004
2.036461e+003, -8.808675e-004
2.038389e+003, 1.008678e-003
2.040318e+003, 2.768308e-003
2.042246e+003, 1.513058e-003
2.044175e+003, 2.048403e-003
2.046103e+003, 1.871639e-003
2.048032e+003, 1.772424e-003
2.049960e+003, 6.389816e-004
2.051889e+003, -1.127537e-003
2.053817e+003, -7.848980e-004
2.055746e+003, -7.684169e-004
2.057674e+003, -1.119140e-003
2.059603e+003, 3.018895e-004
2.061531e+003, 4.710313e-004
2.063459e+003, 3.840524e-004
2.065388e+003, 8.801590e-004
2.067316e+003, 1.079226e-003
2.069245e+003, 1.334873e-003
2.071173e+003, 1.390620e-003
2.073102e+003, 1.071631e-004
2.075030e+003, 4.656545e-004
2.076959e+003, 1.568211e-003
2.078887e+003, 2.336396e-003
2.080816e+003, 2.299924e-003
2.082744e+003, 1.373715e-003
2.084673e+003, 2.867015e-003
2.086601e+003, 2.311932e-003
2.088530e+003, 1.213289e-003
2.090458e+003, 7.541970e-004
2.092386e+003, 2.528788e-004
2.094315e+003, -9.513677e-004
2.096243e+003, -2.526495e-004
2.098172e+003, 1.067006e-003
2.100100e+003, 1.270599e-003
2.102029e+003, 8.641922e-004
2.103957e+003, 5.986090e-004
2.105886e+003, 1.005613e-003
2.107814e+003, 2.111264e-003
2.109743e+003, 3.805934e-003
2.111671e+003, 2.635988e-003
2.113600e+003, 4.525889e-004
2.115528e+003, -4.506067e-004
2.117457e+003, -4.050841e-004
2.119385e+003, 2.351393e-004
2.121313e+003, -9.462187e-004
2.123242e+003, -1.905543e-003
2.125170e+003, -2.560765e-003
2.127099e+003, -4.063980e-003
2.129027e+003, -5.752088e-003
2.130956e+003, -5.389608e-003
2.132884e+003, -4.652024e-003
2.134813e+003, -5.020308e-003
2.136741e+003, -5.291050e-003
2.138670e+003, -6.506171e-003
2.140598e+003, -6.075119e-003
2.142527e+003, -4.194592e-003
2.144455e+003, -5.119800e-003
2.146384e+003, -1.013771e-002
2.148312e+003, -9.983520e-003
2.150240e+003, -8.042940e-003
2.152169e+003, -7.771842e-003
2.154097e+003, -1.110718e-002
2.156026e+003, -1.425220e-002
2.157954e+003, -1.369295e-002
2.159883e+003, -9.711254e-003
2.161811e+003, -9.280008e-003
2.163740e+003, -8.012543e-003
2.165668e+003, -5.230032e-003
2.167597e+003, -6.437469e-003
2.169525e+003, -8.257245e-003
2.171454e+003, -8.135840e-003
2.173382e+003, -8.805943e-003
2.175311e+003, -7.031459e-003
2.177239e+003, -6.235367e-003
2.179167e+003, -7.886452e-003
2.181096e+003, -8.643148e-003
2.183024e+003, -9.871998e-003
2.184953e+003, -1.399511e-002
2.186881e+003, -1.392135e-002
2.188810e+003, -9.335151e-003
2.190738e+003, -9.542028e-003
2.192667e+003, -1.007822e-002
2.194595e+003, -9.205290e-003
2.196524e+003, -8.911531e-003
2.198452e+003, -8.383225e-003
2.200381e+003, -8.618637e-003
2.202309e+003, -8.285738e-003
2.204238e+003, -9.504871e-003
2.206166e+003, -1.094236e-002
2.208094e+003, -1.034892e-002
2.210023e+003, -9.561283e-003
2.211951e+003, -8.050306e-003
2.213880e+003, -7.285142e-003
2.215808e+003, -7.405296e-003
2.217737e+003, -8.625519e-003
2.219665e+003, -9.859573e-003
2.221594e+003, -8.986480e-003
2.223522e+003, -8.538999e-003
2.225451e+003, -8.368344e-003
2.227379e+003, -7.013754e-003
2.229308e+003, -6.673782e-003
2.231236e+003, -7.328387e-003
2.233165e+003, -6.814066e-003
2.235093e+003, -5.256426e-003
2.237021e+003, -4.996487e-003
2.238950e+003, -5.643349e-003
2.240878e+003, -5.217746e-003
2.242807e+003, -4.687530e-003
2.244735e+003, -4.220013e-003
2.246664e+003, -4.670328e-003
2.248592e+003, -5.395616e-003
2.250521e+003, -4.884932e-003
2.252449e+003, -2.746135e-003
2.254378e+003, -2.195262e-003
2.256306e+003, -1.678953e-003
2.258235e+003, -2.132645e-003
2.260163e+003, -3.122515e-003
2.262092e+003, -3.811637e-003
2.264020e+003, -3.540456e-003
2.265948e+003, -3.116063e-003
2.267877e+003, -2.861753e-003
2.269805e+003, -2.916228e-003
2.271734e+003, -1.696069e-003
2.273662e+003, -7.469714e-004
2.275591e+003, -9.857339e-004
2.277519e+003, -3.353780e-004
2.279448e+003, 4.302215e-004
2.281376e+003, -1.950061e-004
2.283305e+003, 3.132171e-005
2.285233e+003, 1.107857e-003
2.287162e+003, 1.087777e-003
2.289090e+003, 1.400815e-003
2.291019e+003, 1.869006e-003
2.292947e+003, 1.778101e-003
2.294875e+003, 2.676191e-003
2.296804e+003, 2.333744e-003
2.298732e+003, 1.624577e-003
2.300661e+003, 1.997702e-003
2.302589e+003, 1.330156e-003
2.304518e+003, 9.271863e-004
2.306446e+003, 6.985867e-004
2.308375e+003, 7.926295e-004
2.310303e+003, 1.494673e-003
2.312232e+003, 1.563904e-003
2.314160e+003, 1.265284e-003
2.316089e+003, 1.534155e-003
2.318017e+003, 2.040402e-003
2.319946e+003, 3.138223e-003
2.321874e+003, 3.956804e-003
2.323802e+003, 3.557826e-003
2.325731e+003, 2.757299e-003
2.327659e+003, 2.766700e-003
2.329588e+003, 3.457159e-003
2.331516e+003, 3.480098e-003
2.333445e+003, 2.762490e-003
2.335373e+003, 3.227713e-003
2.337302e+003, 3.486402e-003
2.339230e+003, 2.855767e-003
2.341159e+003, 2.222461e-003
2.343087e+003, 2.734982e-003
2.345016e+003, 3.395621e-003
2.346944e+003, 2.144490e-003
2.348873e+003, 1.086585e-003
2.350801e+003, 1.418221e-003
2.352729e+003, 2.023230e-003
2.354658e+003, 2.767498e-003
2.356586e+003, 3.055816e-003
2.358515e+003, 2.996633e-003
2.360443e+003, 3.400618e-003
2.362372e+003, 3.270524e-003
2.364300e+003, 2.845916e-003
2.366229e+003, 2.080168e-003
2.368157e+003, 1.551670e-003
2.370086e+003, 1.090581e-003
2.372014e+003, 7.215922e-004
2.373942e+003, 2.358446e-004
2.375871e+003, -8.247577e-004
2.377799e+003, -1.775729e-003
2.379728e+003, -7.393484e-004
2.381656e+003, -2.737950e-004
2.383585e+003, -3.384435e-004
2.385513e+003, 5.349342e-004
2.387442e+003, 7.980078e-004
2.389370e+003, 9.888739e-005
2.391299e+003, 6.418103e-005
2.393227e+003, 4.631064e-005
2.395156e+003, 4.460194e-005
2.397084e+003, 5.045509e-004
2.399012e+003, 6.287090e-004
2.400941e+003, 1.749514e-004
2.402869e+003, -1.733909e-004
2.404798e+003, 1.051790e-005
2.406726e+003, 1.092506e-005
2.408655e+003, 7.488715e-004
2.410583e+003, 2.602565e-004
2.412512e+003, 4.914834e-004
2.414440e+003, 7.553935e-004
2.416369e+003, 4.303525e-004
2.418297e+003, 1.069371e-003
2.420226e+003, 8.848885e-004
2.422154e+003, 2.990754e-004
2.424083e+003, 3.980591e-004
2.426011e+003, 5.359730e-004
2.427939e+003, 1.037236e-003
2.429868e+003, 1.205702e-003
2.431796e+003, 1.475880e-003
2.433725e+003, 2.009420e-003
2.435653e+003, 1.553221e-003
2.437582e+003, 1.004813e-003
2.439510e+003, 1.148015e-003
2.441439e+003, 1.670983e-003
2.443367e+003, 1.392673e-003
2.445296e+003, 1.312241e-003
2.447224e+003, 1.206634e-004
2.449153e+003, -3.385864e-004
2.451081e+003, 1.538171e-003
2.453010e+003, 2.621109e-003
2.454938e+003, 2.044457e-003
2.456866e+003, 1.558351e-003
2.458795e+003, 1.108728e-003
2.460723e+003, 1.450490e-003
2.462652e+003, 1.839976e-003
2.464580e+003, 1.764771e-003
2.466509e+003, 1.970085e-003
2.468437e+003, 2.235914e-003
2.470366e+003, 2.145224e-003
2.472294e+003, 1.618098e-003
2.474223e+003, -2.254454e-005
2.476151e+003, -1.902453e-004
2.478080e+003, 9.004531e-004
2.480008e+003, 8.706427e-004
2.481937e+003, 4.249180e-004
2.483865e+003, 7.271228e-004
2.485793e+003, 1.455618e-003
2.487722e+003, 2.448667e-003
2.489650e+003, 2.214128e-003
2.491579e+003, 1.706871e-003
2.493507e+003, 1.355899e-003
2.495436e+003, 1.413575e-003
2.497364e+003, 1.056210e-003
2.499293e+003, 1.015332e-003
2.501221e+003, 1.815746e-003
2.503150e+003, 2.287553e-003
2.505078e+003, 1.726178e-003
2.507007e+003, 1.297037e-003
2.508935e+003, 1.572124e-004
2.510864e+003, 7.125488e-004
2.512792e+003, 1.713315e-003
2.514720e+003, 2.249783e-003
2.516649e+003, 2.652664e-003
2.518577e+003, 2.252481e-003
2.520506e+003, 1.175597e-003
2.522434e+003, 9.900996e-004
2.524363e+003, 1.678145e-003
2.526291e+003, 1.019262e-003
2.528220e+003, 1.200244e-003
2.530148e+003, 3.512301e-003
2.532077e+003, 5.141689e-003
2.534005e+003, 4.117709e-003
2.535934e+003, 3.280203e-003
2.537862e+003, 2.879539e-003
2.539791e+003, 2.786136e-003
2.541719e+003, 2.596189e-003
2.543647e+003, 3.337013e-003
2.545576e+003, 4.209153e-003
2.547504e+003, 3.339194e-003
2.549433e+003, 1.389016e-003
2.551361e+003, 2.495124e-003
2.553290e+003, 4.447233e-003
2.555218e+003, 4.379021e-003
2.557147e+003, 4.209405e-003
2.559075e+003, 3.312432e-003
2.561004e+003, 2.691845e-003
2.562932e+003, 2.230031e-003
2.564861e+003, 1.415121e-003
2.566789e+003, 2.267475e-003
2.568718e+003, 2.278390e-003
2.570646e+003, 1.013201e-003
2.572574e+003, 6.558569e-004
2.574503e+003, 1.401735e-003
2.576431e+003, 1.338510e-003
2.578360e+003, 1.349263e-003
2.580288e+003, 1.360715e-003
2.582217e+003, 8.070287e-004
2.584145e+003, 7.272619e-004
2.586074e+003, 7.954577e-004
2.588002e+003, 1.024076e-003
2.589931e+003, 2.017686e-003
2.591859e+003, 2.617276e-003
2.593788e+003, 2.077171e-003
2.595716e+003, 8.438682e-004
2.597645e+003, 4.678039e-004
2.599573e+003, 1.538977e-003
2.601501e+003, 1.048485e-003
2.603430e+003, 1.396325e-003
2.605358e+003, 1.643805e-003
2.607287e+003, 1.124924e-003
2.609215e+003, 1.320920e-003
2.611144e+003, 1.931075e-003
2.613072e+003, 1.693761e-003
2.615001e+003, 7.807713e-004
2.616929e+003, 1.209199e-003
2.618858e+003, 2.520171e-003
2.620786e+003, 3.696056e-003
2.622715e+003, 3.281329e-003
2.624643e+003, 2.006744e-003
2.626572e+003, 1.864900e-003
2.628500e+003, 1.582005e-003
2.630428e+003, 1.851401e-003
2.632357e+003, 1.933484e-003
2.634285e+003, 1.485587e-003
2.636214e+003, 1.581137e-003
2.638142e+003, 1.181462e-003
2.640071e+003, 6.128472e-004
2.641999e+003, 1.295887e-003
2.643928e+003, 1.853180e-003
2.645856e+003, 1.914244e-003
2.647785e+003, 2.431600e-003
2.649713e+003, 1.898303e-003
2.651642e+003, 1.200084e-003
2.653570e+003, 1.359659e-003
2.655499e+003, 1.769111e-003
2.657427e+003, 1.655230e-003
2.659355e+003, 1.249444e-003
2.661284e+003, 1.218219e-003
2.663212e+003, 1.129620e-003
2.665141e+003, 6.644351e-004
2.667069e+003, 6.259226e-004
2.668998e+003, 6.177924e-004
2.670926e+003, 4.628568e-005
2.672855e+003, -4.038632e-004
2.674783e+003, 3.186555e-004
2.676712e+003, 6.499266e-004
2.678640e+003, 4.897598e-004
2.680569e+003, 2.778561e-004
2.682497e+003, -8.292391e-005
2.684426e+003, 9.232946e-005
2.686354e+003, 3.259103e-004
2.688282e+003, -1.653090e-004
2.690211e+003, -8.119393e-004
2.692139e+003, -7.264985e-004
2.694068e+003, -1.187697e-003
2.695996e+003, -1.685055e-003
2.697925e+003, -8.784946e-004
2.699853e+003, 1.870696e-004
2.701782e+003, 3.222798e-005
2.703710e+003, -1.833659e-004
2.705639e+003, 8.248786e-004
2.707567e+003, 1.383465e-003
2.709496e+003, 5.318666e-004
2.711424e+003, -5.187143e-004
2.713353e+003, -4.024330e-004
2.715281e+003, 2.443790e-004
2.717209e+003, 1.952958e-004
2.719138e+003, 5.120366e-004
2.721066e+003, 1.008779e-003
2.722995e+003, 5.687272e-004
2.724923e+003, 1.119621e-004
2.726852e+003, 1.438485e-004
2.728780e+003, 1.008176e-004
2.730709e+003, 5.184584e-005
2.732637e+003, 3.679345e-004
2.734566e+003, 4.688943e-004
2.736494e+003, 4.412876e-004
2.738423e+003, 1.085232e-003
2.740351e+003, 1.247595e-003
2.742280e+003, 9.059740e-004
2.744208e+003, 8.915970e-004
2.746136e+003, 6.112495e-004
2.748065e+003, -2.915209e-004
2.749993e+003, 2.049428e-004
2.751922e+003, 1.548376e-004
2.753850e+003, -2.696933e-004
2.755779e+003, 1.398952e-004
2.757707e+003, 7.410895e-004
2.759636e+003, 1.493274e-004
2.761564e+003, 1.523601e-004
2.763493e+003, 5.820410e-004
2.765421e+003, 4.475106e-004
2.767350e+003, -3.355934e-005
2.769278e+003, -1.162738e-003
2.771207e+003, -6.213777e-004
2.773135e+003, 4.113483e-004
2.775063e+003, 1.690142e-004
2.776992e+003, -3.254979e-004
2.778920e+003, -5.742388e-004
2.780849e+003, -1.232307e-003
2.782777e+003, -9.441756e-004
2.784706e+003, -5.987670e-004
2.786634e+003, -8.820075e-004
2.788563e+003, -4.223624e-004
2.790491e+003, -8.575427e-004
2.792420e+003, -1.011607e-003
2.794348e+003, -5.505888e-004
2.796277e+003, -1.255369e-004
2.798205e+003, -5.613575e-004
2.800134e+003, -9.403300e-004
2.802062e+003, -1.093300e-003
2.803990e+003, -1.664230e-003
2.805919e+003, -1.853092e-003
2.807847e+003, -1.865512e-003
2.809776e+003, -2.166821e-003
2.811704e+003, -1.948907e-003
2.813633e+003, -1.795445e-003
2.815561e+003, -1.732956e-003
2.817490e+003, -1.895501e-003
2.819418e+003, -2.014598e-003
2.821347e+003, -1.754720e-003
2.823275e+003, -1.675489e-003
2.825204e+003, -1.816569e-003
2.827132e+003, -1.829781e-003
2.829061e+003, -1.960657e-003
2.830989e+003, -2.272412e-003
2.832917e+003, -3.005201e-003
2.834846e+003, -3.661667e-003
2.836774e+003, -2.912524e-003
2.838703e+003, -3.050277e-003
2.840631e+003, -3.669515e-003
2.842560e+003, -4.014996e-003
2.844488e+003, -5.668892e-003
2.846417e+003, -7.783546e-003
2.848345e+003, -9.056891e-003
2.850274e+003, -1.020355e-002
2.852202e+003, -1.171221e-002
2.854131e+003, -1.163676e-002
2.856059e+003, -1.095903e-002
2.857988e+003, -9.210505e-003
2.859916e+003, -8.078919e-003
2.861844e+003, -7.475717e-003
2.863773e+003, -6.653394e-003
2.865701e+003, -6.733145e-003
2.867630e+003, -6.928937e-003
2.869558e+003, -6.449582e-003
2.871487e+003, -6.291576e-003
2.873415e+003, -7.099790e-003
2.875344e+003, -7.713338e-003
2.877272e+003, -7.787582e-003
2.879201e+003, -7.652763e-003
2.881129e+003, -7.149604e-003
2.883058e+003, -6.861522e-003
2.884986e+003, -6.355583e-003
2.886915e+003, -7.147601e-003
2.888843e+003, -8.208564e-003
2.890771e+003, -8.346782e-003
2.892700e+003, -9.494085e-003
2.894628e+003, -1.164879e-002
2.896557e+003, -1.271531e-002
2.898485e+003, -1.268679e-002
2.900414e+003, -1.275688e-002
2.902342e+003, -1.242632e-002
2.904271e+003, -1.250099e-002
2.906199e+003, -1.363242e-002
2.908128e+003, -1.520913e-002
2.910056e+003, -1.700803e-002
2.911985e+003, -1.856092e-002
2.913913e+003, -2.016091e-002
2.915842e+003, -2.281576e-002
2.917770e+003, -2.441517e-002
2.919698e+003, -2.438499e-002
2.921627e+003, -2.478535e-002
2.923555e+003, -2.463128e-002
2.925484e+003, -2.367905e-002
2.927412e+003, -2.154490e-002
2.929341e+003, -1.904566e-002
2.931269e+003, -1.763816e-002
2.933198e+003, -1.709179e-002
2.935126e+003, -1.655509e-002
2.937055e+003, -1.496296e-002
2.938983e+003, -1.317309e-002
2.940912e+003, -1.113065e-002
2.942840e+003, -1.058686e-002
2.944769e+003, -9.321450e-003
2.946697e+003, -8.094923e-003
2.948625e+003, -7.713187e-003
2.950554e+003, -8.195377e-003
2.952482e+003, -8.761186e-003
2.954411e+003, -8.522267e-003
2.956339e+003, -7.968582e-003
2.958268e+003, -7.816547e-003
2.960196e+003, -7.766949e-003
2.962125e+003, -6.992789e-003
2.964053e+003, -6.120671e-003
2.965982e+003, -6.241920e-003
2.967910e+003, -5.932092e-003
2.969839e+003, -5.012625e-003
2.971767e+003, -3.085896e-003
2.973696e+003, -2.368275e-003
2.975624e+003, -2.989177e-003
2.977552e+003, -2.312554e-003
2.979481e+003, -2.124830e-003
2.981409e+003, -2.956650e-003
2.983338e+003, -3.579551e-003
2.985266e+003, -3.030443e-003
2.987195e+003, -2.183987e-003
2.989123e+003, -7.696231e-004
2.991052e+003, -3.498949e-004
2.992980e+003, -1.205144e-003
2.994909e+003, -1.829074e-003
2.996837e+003, -2.023198e-003
2.998766e+003, -2.123803e-003
3.000694e+003, -1.417727e-003
3.002623e+003, -5.741242e-004
3.004551e+003, -9.542639e-004
3.006479e+003, -1.254270e-003
3.008408e+003, -2.665333e-003
3.010336e+003, -3.585585e-003
3.012265e+003, -2.673532e-003
3.014193e+003, -1.366340e-003
3.016122e+003, -5.977825e-004
3.018050e+003, -9.843323e-004
3.019979e+003, -1.590555e-003
3.021907e+003, -6.761904e-004
3.023836e+003, -5.671640e-004
3.025764e+003, -1.348250e-003
3.027693e+003, -1.029278e-003
3.029621e+003, -8.937126e-004
3.031550e+003, -1.243481e-004
3.033478e+003, -1.147340e-003
3.035406e+003, -1.865256e-003
3.037335e+003, -1.258798e-003
3.039263e+003, -1.795724e-003
3.041192e+003, -1.032257e-003
3.043120e+003, -7.008912e-004
3.045049e+003, -6.796543e-004
3.046977e+003, -1.294666e-003
3.048906e+003, -2.675000e-003
3.050834e+003, -2.092555e-003
3.052763e+003, -6.807245e-005
3.054691e+003, 8.838949e-004
3.056620e+003, 1.846429e-004
3.058548e+003, 6.344164e-005
3.060477e+003, -6.764084e-004
3.062405e+003, -9.554013e-004
3.064333e+003, -1.092156e-003
3.066262e+003, -2.587716e-003
3.068190e+003, -2.540843e-003
3.070119e+003, -1.171667e-003
3.072047e+003, 1.629115e-003
3.073976e+003, 2.493045e-003
3.075904e+003, 5.410857e-004
3.077833e+003, -7.022609e-004
3.079761e+003, -1.189213e-003
3.081690e+003, -4.302174e-004
3.083618e+003, 1.935528e-003
3.085547e+003, 2.536539e-003
3.087475e+003, 6.224385e-004
3.089404e+003, -1.156833e-003
3.091332e+003, -2.017244e-003
3.093260e+003, -1.712783e-003
3.095189e+003, -2.043313e-003
3.097117e+003, -3.120312e-004
3.099046e+003, 5.276934e-004
3.100974e+003, 4.338711e-004
3.102903e+003, 8.255224e-004
3.104831e+003, -8.596631e-004
3.106760e+003, -1.198404e-003
3.108688e+003, -1.344658e-003
3.110617e+003, -1.311410e-003
3.112545e+003, -3.812223e-004
3.114474e+003, 7.994823e-004
3.116402e+003, 1.492089e-003
3.118331e+003, 2.782242e-003
3.120259e+003, 3.090030e-003
3.122188e+003, 2.120638e-003
3.124116e+003, 1.117900e-003
3.126044e+003, 9.868400e-004
3.127973e+003, 1.298949e-003
3.129901e+003, 1.164809e-003
3.131830e+003, 3.655277e-004
3.133758e+003, 9.744162e-004
3.135687e+003, 1.168522e-003
3.137615e+003, 3.803456e-004
3.139544e+003, -2.600396e-004
3.141472e+003, -4.403323e-004
3.143401e+003, -6.308165e-004
3.145329e+003, -7.034951e-004
3.147258e+003, 1.386289e-003
3.149186e+003, 1.648083e-003
3.151115e+003, 1.450320e-004
3.153043e+003, 1.706151e-004
3.154971e+003, -1.170941e-003
3.156900e+003, -1.978352e-003
3.158828e+003, 7.899230e-004
3.160757e+003, 2.289915e-003
3.162685e+003, 1.354168e-003
3.164614e+003, -1.050621e-004
3.166542e+003, -4.347212e-004
3.168471e+003, 1.595853e-004
3.170399e+003, -1.171943e-003
3.172328e+003, -6.853134e-005
3.174256e+003, 6.502457e-004
3.176185e+003, -1.521034e-003
3.178113e+003, -2.383702e-003
3.180042e+003, -8.087758e-004
3.181970e+003, -1.760594e-004
3.183898e+003, -6.910333e-004
3.185827e+003, 1.471857e-003
3.187755e+003, 4.208668e-004
3.189684e+003, -2.402614e-003
3.191612e+003, -1.013147e-003
3.193541e+003, 1.059400e-003
3.195469e+003, 9.448664e-004
3.197398e+003, 7.695691e-004
3.199326e+003, 3.621657e-004
3.201255e+003, 1.356708e-004
3.203183e+003, -5.703554e-004
3.205112e+003, -1.014780e-003
3.207040e+003, -3.869532e-004
3.208969e+003, 1.552907e-003
3.210897e+003, 1.760589e-003
3.212825e+003, 2.029208e-003
3.214754e+003, 1.377635e-003
3.216682e+003, 1.643586e-004
3.218611e+003, 2.055211e-004
3.220539e+003, 3.606178e-004
3.222468e+003, 1.228753e-003
3.224396e+003, 2.226228e-003
3.226325e+003, 1.352632e-003
3.228253e+003, -1.670120e-003
3.230182e+003, -2.515065e-003
3.232110e+003, -2.004846e-003
3.234039e+003, -2.474854e-003
3.235967e+003, -1.921263e-004
3.237896e+003, 2.647269e-003
3.239824e+003, 3.173038e-003
3.241752e+003, 2.402177e-003
3.243681e+003, 1.604567e-003
3.245609e+003, 8.378793e-004
3.247538e+003, 1.651819e-004
3.249466e+003, 6.702845e-004
3.251395e+003, 8.448704e-004
3.253323e+003, 3.691408e-004
3.255252e+003, 4.670400e-005
3.257180e+003, 4.273837e-005
3.259109e+003, -9.274161e-004
3.261037e+003, -9.885407e-004
3.262966e+003, 4.851961e-004
3.264894e+003, 1.313687e-003
3.266823e+003, 9.843789e-004
3.268751e+003, 5.755514e-004
3.270679e+003, 6.807318e-004
3.272608e+003, 6.435974e-004
3.274536e+003, 1.424975e-003
3.276465e+003, 4.216107e-004
3.278393e+003, -1.300424e-003
3.280322e+003, 1.513050e-004
3.282250e+003, 3.074641e-003
3.284179e+003, 2.807221e-003
3.286107e+003, 4.300904e-005
3.288036e+003, 7.258731e-004
3.289964e+003, 2.467495e-003
3.291893e+003, 8.180687e-004
3.293821e+003, 4.383638e-004
3.295750e+003, -2.970250e-005
3.297678e+003, -7.601761e-004
3.299606e+003, 7.631030e-004
3.301535e+003, 1.236457e-003
3.303463e+003, 9.851142e-007
3.305392e+003, -9.366464e-004
3.307320e+003, -3.742932e-004
3.309249e+003, 5.371601e-004
3.311177e+003, -4.726743e-004
3.313106e+003, 8.222501e-005
3.315034e+003, 3.531804e-004
3.316963e+003, 3.183048e-003
3.318891e+003, 3.134202e-003
3.320820e+003, 1.501730e-003
3.322748e+003, 1.736709e-003
3.324677e+003, 2.302636e-003
3.326605e+003, 2.090474e-003
3.328533e+003, 5.372012e-004
3.330462e+003, -7.722554e-004
3.332390e+003, -6.041782e-004
3.334319e+003, 1.514753e-004
3.336247e+003, -6.434405e-004
3.338176e+003, -1.146875e-003
3.340104e+003, 3.488774e-004
3.342033e+003, 1.793133e-003
3.343961e+003, 1.361581e-003
3.345890e+003, 5.423314e-004
3.347818e+003, -7.052121e-004
3.349747e+003, -6.772182e-004
3.351675e+003, 3.130964e-004
3.353604e+003, 1.988045e-004
3.355532e+003, -2.029554e-003
3.357460e+003, -1.310003e-003
3.359389e+003, 1.869984e-003
3.361317e+003, 2.184453e-003
3.363246e+003, -5.950687e-004
3.365174e+003, -1.414831e-003
3.367103e+003, -1.117350e-003
3.369031e+003, -4.832764e-004
3.370960e+003, -4.976217e-004
3.372888e+003, -3.914339e-004
3.374817e+003, -2.103208e-004
3.376745e+003, -2.333740e-004
3.378674e+003, -2.045674e-003
3.380602e+003, -1.429598e-003
3.382531e+003, 3.813351e-004
3.384459e+003, 7.278618e-004
3.386387e+003, 5.283546e-004
3.388316e+003, -3.620217e-004
3.390244e+003, -1.360392e-003
3.392173e+003, 6.781311e-004
3.394101e+003, 3.466500e-003
3.396030e+003, 1.739299e-003
3.397958e+003, 8.827293e-004
3.399887e+003, 1.089747e-003
3.401815e+003, -2.792836e-004
3.403744e+003, -8.662333e-004
3.405672e+003, -4.973313e-004
3.407601e+003, 6.579458e-004
3.409529e+003, 7.355140e-004
3.411458e+003, -2.419129e-003
3.413386e+003, -4.388310e-003
3.415314e+003, -1.793796e-003
3.417243e+003, 3.751687e-004
3.419171e+003, 1.277977e-004
3.421100e+003, 7.137402e-004
3.423028e+003, 2.118470e-003
3.424957e+003, 1.940911e-003
3.426885e+003, 1.000379e-004
3.428814e+003, 3.294740e-005
3.430742e+003, -1.239558e-003
3.432671e+003, -1.415710e-003
3.434599e+003, 5.851716e-004
3.436528e+003, 1.791048e-003
3.438456e+003, 1.348856e-003
3.440385e+003, 1.331814e-003
3.442313e+003, 1.590354e-003
3.444241e+003, 1.221372e-003
3.446170e+003, 1.258511e-003
3.448098e+003, 1.520746e-003
3.450027e+003, 1.575036e-003
3.451955e+003, 8.905768e-004
3.453884e+003, 8.853489e-004
3.455812e+003, 1.479217e-003
3.457741e+003, 7.194360e-004
3.459669e+003, 1.204930e-003
3.461598e+003, 2.001758e-003
3.463526e+003, 1.745144e-003
3.465455e+003, 1.079738e-003
3.467383e+003, 1.908701e-003
3.469312e+003, 3.113710e-003
3.471240e+003, 2.330188e-003
3.473168e+003, 2.557521e-003
3.475097e+003, 2.170874e-003
3.477025e+003, -8.928349e-005
3.478954e+003, 1.524201e-003
3.480882e+003, 1.852619e-003
3.482811e+003, 1.480147e-003
3.484739e+003, 1.423295e-003
3.486668e+003, -7.045532e-004
3.488596e+003, -9.103546e-004
3.490525e+003, -7.595486e-004
3.492453e+003, 1.932632e-004
3.494382e+003, 1.042050e-005
3.496310e+003, -1.513017e-003
3.498239e+003, -5.076044e-004
3.500167e+003, 2.692011e-004
3.502095e+003, -5.610590e-004
3.504024e+003, -3.924918e-004
3.505952e+003, 1.523238e-003
3.507881e+003, 3.738424e-004
3.509809e+003, 1.095769e-003
3.511738e+003, 1.770018e-003
3.513666e+003, 4.534497e-003
3.515595e+003, 3.869784e-003
3.517523e+003, 1.671655e-003
3.519452e+003, 1.292859e-003
3.521380e+003, 2.126526e-003
3.523309e+003, 1.784499e-003
3.525237e+003, 8.649543e-004
3.527166e+003, 1.452789e-003
3.529094e+003, 4.242354e-003
3.531022e+003, 4.636927e-003
3.532951e+003, 4.146042e-003
3.534879e+003, 2.503593e-003
3.536808e+003, -5.672059e-004
3.538736e+003, -2.498146e-003
3.540665e+003, -3.670790e-003
3.542593e+003, -2.183369e-003
3.544522e+003, 1.446889e-003
3.546450e+003, 1.370638e-003
3.548379e+003, -9.707224e-004
3.550307e+003, -4.424832e-004
3.552236e+003, 1.767452e-003
3.554164e+003, 1.556798e-003
3.556093e+003, 4.475745e-004
3.558021e+003, 2.360370e-004
3.559949e+003, -4.913246e-004
3.561878e+003, 1.132929e-003
3.563806e+003, 1.610786e-003
3.565735e+003, 4.545790e-004
3.567663e+003, 1.540367e-004
3.569592e+003, 1.169234e-003
3.571520e+003, 1.635122e-003
3.573449e+003, 2.237886e-003
3.575377e+003, 3.235139e-003
3.577306e+003, 3.310291e-003
3.579234e+003, 1.668808e-003
3.581163e+003, 1.751316e-003
3.583091e+003, 1.506008e-003
3.585020e+003, 4.406403e-004
3.586948e+003, 5.835443e-004
3.588876e+003, 9.291139e-004
3.590805e+003, 8.358056e-004
3.592733e+003, 9.681099e-004
3.594662e+003, -1.657071e-003
3.596590e+003, -8.184805e-004
3.598519e+003, 2.646480e-003
3.600447e+003, 2.247626e-003
3.602376e+003, 7.029570e-004
3.604304e+003, 3.630193e-003
3.606233e+003, 4.391999e-003
3.608161e+003, 4.522273e-003
3.610090e+003, 4.152371e-003
3.612018e+003, 3.068742e-003
3.613947e+003, 3.366397e-003
3.615875e+003, 5.952333e-003
3.617803e+003, 6.159115e-003
3.619732e+003, 3.652944e-003
3.621660e+003, 2.451835e-003
3.623589e+003, 2.864815e-003
3.625517e+003, 3.612908e-003
3.627446e+003, 3.001045e-003
3.629374e+003, 6.224468e-004
3.631303e+003, -1.532610e-003
3.633231e+003, -2.310396e-003
3.635160e+003, -6.166793e-005
3.637088e+003, 1.480212e-003
3.639017e+003, 1.327730e-003
3.640945e+003, 7.320876e-004
3.642874e+003, 2.676561e-003
3.644802e+003, 1.269166e-003
3.646730e+003, -3.600352e-004
3.648659e+003, 1.881235e-004
3.650587e+003, -3.127684e-004
3.652516e+003, 1.972321e-003
3.654444e+003, 5.477688e-004
3.656373e+003, 1.136431e-004
3.658301e+003, 9.264686e-004
3.660230e+003, 5.532462e-004
3.662158e+003, 4.301929e-003
3.664087e+003, 1.803172e-003
3.666015e+003, -1.321538e-004
3.667944e+003, 3.666272e-003
3.669872e+003, 3.168700e-003
3.671801e+003, 6.936219e-004
3.673729e+003, 3.502427e-004
3.675657e+003, 1.843616e-003
3.677586e+003, 3.548651e-003
3.679514e+003, 1.573994e-003
3.681443e+003, 3.866047e-004
3.683371e+003, 8.856814e-004
3.685300e+003, 3.915566e-003
3.687228e+003, 5.143172e-003
3.689157e+003, 6.179352e-003
3.691085e+003, 7.608736e-003
3.693014e+003, 6.012621e-003
3.694942e+003, 3.849476e-003
3.696871e+003, 2.125300e-003
3.698799e+003, -1.363226e-003
3.700728e+003, -1.798736e-004
3.702656e+003, 1.000922e-003
3.704584e+003, 9.017129e-004
3.706513e+003, 2.074029e-003
3.708441e+003, 2.123339e-003
3.710370e+003, 1.702136e-003
3.712298e+003, 2.610893e-003
3.714227e+003, 1.154539e-003
3.716155e+003, -9.536159e-004
3.718084e+003, -7.359232e-004
3.720012e+003, -7.480091e-004
3.721941e+003, 1.789790e-003
3.723869e+003, 2.144651e-003
3.725798e+003, 7.128380e-004
3.727726e+003, 1.677704e-003
3.729655e+003, 4.525955e-003
3.731583e+003, 5.621249e-003
3.733511e+003, 3.744457e-003
3.735440e+003, 2.903151e-003
3.737368e+003, 1.593536e-003
3.739297e+003, 7.795055e-004
3.741225e+003, 3.540738e-004
3.743154e+003, 4.032114e-003
3.745082e+003, 4.655803e-003
3.747011e+003, 3.632565e-003
3.748939e+003, 2.899705e-003
3.750868e+003, 3.166285e-003
3.752796e+003, 1.959492e-003
3.754725e+003, 1.168372e-003
3.756653e+003, 2.702806e-003
3.758582e+003, 3.169678e-003
3.760510e+003, -1.693071e-003
3.762438e+003, -2.770320e-003
3.764367e+003, 8.672191e-004
3.766295e+003, 3.664518e-003
3.768224e+003, 3.326058e-003
3.770152e+003, 2.052570e-004
3.772081e+003, 5.944081e-004
3.774009e+003, 1.420412e-003
3.775938e+003, 1.935625e-003
3.777866e+003, 2.365527e-003
3.779795e+003, 4.498512e-003
3.781723e+003, 4.727492e-003
3.783652e+003, 5.076322e-003
3.785580e+003, 4.335609e-003
3.787509e+003, 1.049728e-003
3.789437e+003, 8.510102e-004
3.791365e+003, 2.708151e-003
3.793294e+003, 3.174772e-003
3.795222e+003, 1.186259e-003
3.797151e+003, 7.334126e-004
3.799079e+003, 3.972858e-003
3.801008e+003, 7.006180e-003
3.802936e+003, 5.630238e-003
3.804865e+003, 3.571022e-003
3.806793e+003, 1.625410e-003
3.808722e+003, 2.256198e-003
3.810650e+003, 2.084260e-003
3.812579e+003, 2.980567e-003
3.814507e+003, 2.041572e-003
3.816436e+003, 7.433364e-004
3.818364e+003, -2.216444e-004
3.820292e+003, -2.373238e-004
3.822221e+003, 1.433234e-003
3.824149e+003, 1.110473e-003
3.826078e+003, 5.487660e-004
3.828006e+003, 3.426742e-003
3.829935e+003, 6.457068e-003
3.831863e+003, 1.523644e-003
3.833792e+003, -1.866280e-003
3.835720e+003, -5.575903e-004
3.837649e+003, 2.578063e-003
3.839577e+003, 2.505840e-003
3.841506e+003, 2.641365e-004
3.843434e+003, 1.500840e-003
3.845363e+003, 4.531576e-003
3.847291e+003, 3.314227e-003
3.849219e+003, 2.892817e-003
3.851148e+003, 3.124368e-003
3.853076e+003, 4.679824e-003
3.855005e+003, 4.277197e-003
3.856933e+003, 3.539980e-005
3.858862e+003, -2.521924e-003
3.860790e+003, -1.871245e-003
3.862719e+003, -7.339756e-004
3.864647e+003, -6.973509e-004
3.866576e+003, 1.099845e-003
3.868504e+003, 2.217296e-003
3.870433e+003, 2.337957e-003
3.872361e+003, 1.312964e-003
3.874290e+003, 3.494158e-003
3.876218e+003, 3.975379e-003
3.878146e+003, 1.679415e-003
3.880075e+003, 2.809247e-003
3.882003e+003, 5.116413e-003
3.883932e+003, 4.365674e-003
3.885860e+003, 2.395112e-003
3.887789e+003, 1.861546e-003
3.889717e+003, 4.216258e-004
3.891646e+003, -3.435752e-003
3.893574e+003, -2.526446e-003
3.895503e+003, -4.316966e-004
3.897431e+003, -2.058106e-003
3.899360e+003, -2.054092e-003
3.901288e+003, 6.624857e-004
3.903217e+003, 3.833126e-003
3.905145e+003, 3.261126e-003
3.907073e+003, 1.601622e-003
3.909002e+003, 3.250461e-003
3.910930e+003, 7.465963e-003
3.912859e+003, 6.364176e-003
3.914787e+003, 3.328832e-003
3.916716e+003, 5.900914e-003
3.918644e+003, 7.797099e-003
3.920573e+003, 3.452200e-003
3.922501e+003, 2.603464e-004
3.924430e+003, 3.223804e-004
3.926358e+003, -1.140431e-003
3.928287e+003, -1.709576e-003
3.930215e+003, -8.018606e-004
3.932144e+003, 5.010301e-004
3.934072e+003, 3.397343e-003
3.936000e+003, 2.473294e-003
3.937929e+003, 2.788662e-003
3.939857e+003, 4.202518e-003
3.941786e+003, 2.719460e-004
3.943714e+003, 1.618605e-003
3.945643e+003, 1.489458e-003
3.947571e+003, -1.086072e-003
3.949500e+003, 3.798061e-004
3.951428e+003, -1.255542e-004
3.953357e+003, -7.453061e-004
3.955285e+003, 4.414475e-003
3.957214e+003, 9.918835e-003
3.959142e+003, 8.567447e-003
3.961071e+003, 5.559510e-003
3.962999e+003, 8.679164e-004
3.964927e+003, -6.486030e-004
3.966856e+003, 7.227975e-004
3.968784e+003, 1.032599e-003
3.970713e+003, 2.096063e-003
3.972641e+003, 1.786086e-003
3.974570e+003, -1.942371e-004
3.976498e+003, -5.752890e-004
3.978427e+003, -6.801961e-004
3.980355e+003, 3.431497e-003
3.982284e+003, 6.899511e-003
3.984212e+003, 4.756890e-003
3.986141e+003, 3.099317e-003
3.988069e+003, 5.657061e-003
3.989998e+003, 6.181802e-003
3.991926e+003, 3.741947e-003
3.993854e+003, 1.161739e-003
3.995783e+003, 2.531809e-003
3.997711e+003, 4.817239e-003
3.999640e+003, 4.819562e-003
4.001568e+003, 0.000000e+000
##END=



