##NAMES=Hauyne
##RRUFFID=R040023
##IDEAL CHEMISTRY=Na_3_Ca(Si_3_Al_3_)O_12_(S^6+^O_4_)
##LOCALITY=Cazadero river, Ovalle, Limar√≠ Province, Coquimbo, Chile
##OWNER=RRUFF
##SOURCE=University of Arizona Mineral Museum
##DESCRIPTION=Blue fine-grained massive, associated with wollastonite and calcite
##STATUS=The identification of this mineral has been confirmed by X-ray diffraction and chemical analysis
##URL=rruff.info/R040023
##MEASURED CHEMISTRY=(Na_0.99_K_0.01_)_6_(Ca_0.99_Na_0.01_)_2_Al_6.00_Si_6.00_O_24_[(SO_4_)_0.67_S_0.32_Cl_0.01_]_2_
3.991926e+002, 0.000000e+000
4.011211e+002, 9.345862e-002
4.030496e+002, 9.387998e-002
4.049780e+002, 1.031170e-001
4.069065e+002, 1.051377e-001
4.088350e+002, 1.010618e-001
4.107634e+002, 1.007290e-001
4.126919e+002, 9.872417e-002
4.146204e+002, 9.860498e-002
4.165488e+002, 1.069642e-001
4.184773e+002, 1.148277e-001
4.204058e+002, 1.176018e-001
4.223342e+002, 1.208891e-001
4.242627e+002, 1.242410e-001
4.261912e+002, 1.262568e-001
4.281196e+002, 1.285384e-001
4.300481e+002, 1.317570e-001
4.319766e+002, 1.343550e-001
4.339050e+002, 1.369715e-001
4.358335e+002, 1.393400e-001
4.377620e+002, 1.431385e-001
4.396904e+002, 1.484205e-001
4.416189e+002, 1.515997e-001
4.435474e+002, 1.542609e-001
4.454758e+002, 1.573846e-001
4.474043e+002, 1.586758e-001
4.493328e+002, 1.601886e-001
4.512612e+002, 1.609998e-001
4.531897e+002, 1.612067e-001
4.551182e+002, 1.589681e-001
4.570466e+002, 1.541078e-001
4.589751e+002, 1.468229e-001
4.609036e+002, 1.379354e-001
4.628320e+002, 1.293874e-001
4.647605e+002, 1.228886e-001
4.666890e+002, 1.201045e-001
4.686174e+002, 1.198496e-001
4.705459e+002, 1.194004e-001
4.724744e+002, 1.168970e-001
4.744028e+002, 1.118020e-001
4.763313e+002, 1.057620e-001
4.782598e+002, 9.986961e-002
4.801882e+002, 9.395485e-002
4.821167e+002, 8.895545e-002
4.840452e+002, 8.487351e-002
4.859736e+002, 8.155379e-002
4.879021e+002, 7.877908e-002
4.898306e+002, 7.553796e-002
4.917590e+002, 7.221842e-002
4.936875e+002, 6.884189e-002
4.956160e+002, 6.553411e-002
4.975444e+002, 6.239925e-002
4.994729e+002, 5.951238e-002
5.014014e+002, 5.725712e-002
5.033298e+002, 5.676593e-002
5.052583e+002, 5.823243e-002
5.071868e+002, 6.023721e-002
5.091152e+002, 6.100390e-002
5.110437e+002, 6.007198e-002
5.129722e+002, 5.748136e-002
5.149006e+002, 5.479619e-002
5.168291e+002, 5.230553e-002
5.187576e+002, 4.924385e-002
5.206860e+002, 4.633011e-002
5.226145e+002, 4.383761e-002
5.245430e+002, 4.237825e-002
5.264714e+002, 4.128845e-002
5.283999e+002, 3.965226e-002
5.303284e+002, 3.806924e-002
5.322568e+002, 3.707247e-002
5.341853e+002, 3.682737e-002
5.361138e+002, 3.627183e-002
5.380422e+002, 3.566135e-002
5.399707e+002, 3.637621e-002
5.418992e+002, 3.708291e-002
5.438276e+002, 3.669043e-002
5.457561e+002, 3.675682e-002
5.476846e+002, 3.787285e-002
5.496130e+002, 3.850659e-002
5.515415e+002, 3.924980e-002
5.534700e+002, 4.067998e-002
5.553984e+002, 4.286104e-002
5.573269e+002, 4.566036e-002
5.592554e+002, 4.875749e-002
5.611838e+002, 5.109283e-002
5.631123e+002, 5.298866e-002
5.650408e+002, 5.410291e-002
5.669692e+002, 5.313094e-002
5.688977e+002, 5.093488e-002
5.708262e+002, 4.783009e-002
5.727546e+002, 4.377012e-002
5.746831e+002, 4.004087e-002
5.766116e+002, 3.724722e-002
5.785400e+002, 3.506811e-002
5.804685e+002, 3.286114e-002
5.823970e+002, 3.172980e-002
5.843254e+002, 3.096786e-002
5.862539e+002, 3.004586e-002
5.881824e+002, 2.990245e-002
5.901108e+002, 3.047144e-002
5.920393e+002, 3.095108e-002
5.939678e+002, 3.138826e-002
5.958962e+002, 3.210578e-002
5.978247e+002, 3.277315e-002
5.997532e+002, 3.334843e-002
6.016816e+002, 3.408510e-002
6.036101e+002, 3.493954e-002
6.055386e+002, 3.576712e-002
6.074670e+002, 3.656833e-002
6.093955e+002, 3.735326e-002
6.113240e+002, 3.814100e-002
6.132524e+002, 3.906836e-002
6.151809e+002, 4.017036e-002
6.171094e+002, 4.105032e-002
6.190378e+002, 4.142985e-002
6.209663e+002, 4.105737e-002
6.228948e+002, 4.024529e-002
6.248232e+002, 3.966972e-002
6.267517e+002, 3.960861e-002
6.286802e+002, 4.031087e-002
6.306086e+002, 4.172995e-002
6.325371e+002, 4.353824e-002
6.344656e+002, 4.595247e-002
6.363940e+002, 4.946340e-002
6.383225e+002, 5.359073e-002
6.402510e+002, 5.733187e-002
6.421794e+002, 5.993911e-002
6.441079e+002, 6.006159e-002
6.460364e+002, 5.764070e-002
6.479648e+002, 5.375097e-002
6.498933e+002, 4.895274e-002
6.518218e+002, 4.453541e-002
6.537502e+002, 4.184283e-002
6.556787e+002, 4.019347e-002
6.576072e+002, 3.887806e-002
6.595356e+002, 3.857698e-002
6.614641e+002, 3.844098e-002
6.633926e+002, 3.799773e-002
6.653210e+002, 3.750698e-002
6.672495e+002, 3.709807e-002
6.691780e+002, 3.679841e-002
6.711064e+002, 3.676640e-002
6.730349e+002, 3.728736e-002
6.749634e+002, 3.875743e-002
6.768918e+002, 4.078450e-002
6.788203e+002, 4.280773e-002
6.807488e+002, 4.374612e-002
6.826772e+002, 4.275999e-002
6.846057e+002, 4.104415e-002
6.865342e+002, 3.971499e-002
6.884626e+002, 3.880511e-002
6.903911e+002, 3.795850e-002
6.923196e+002, 3.738967e-002
6.942480e+002, 3.716857e-002
6.961765e+002, 3.735276e-002
6.981050e+002, 3.781585e-002
7.000334e+002, 3.783018e-002
7.019619e+002, 3.728289e-002
7.038904e+002, 3.691096e-002
7.058188e+002, 3.648859e-002
7.077473e+002, 3.634809e-002
7.096758e+002, 3.818386e-002
7.116042e+002, 4.097803e-002
7.135327e+002, 4.023148e-002
7.154612e+002, 3.646372e-002
7.173896e+002, 3.416310e-002
7.193181e+002, 3.346804e-002
7.212466e+002, 3.335413e-002
7.231750e+002, 3.339707e-002
7.251035e+002, 3.370573e-002
7.270320e+002, 3.393039e-002
7.289604e+002, 3.388175e-002
7.308889e+002, 3.341485e-002
7.328174e+002, 3.265241e-002
7.347458e+002, 3.162820e-002
7.366743e+002, 3.018374e-002
7.386028e+002, 2.870469e-002
7.405313e+002, 2.777820e-002
7.424597e+002, 2.689021e-002
7.443882e+002, 2.610850e-002
7.463167e+002, 2.542254e-002
7.482451e+002, 2.458326e-002
7.501736e+002, 2.398551e-002
7.521021e+002, 2.391983e-002
7.540305e+002, 2.354421e-002
7.559590e+002, 2.316924e-002
7.578875e+002, 2.306206e-002
7.598159e+002, 2.291592e-002
7.617444e+002, 2.268177e-002
7.636729e+002, 2.256292e-002
7.656013e+002, 2.246500e-002
7.675298e+002, 2.243997e-002
7.694583e+002, 2.229443e-002
7.713867e+002, 2.223042e-002
7.733152e+002, 2.255780e-002
7.752437e+002, 2.266944e-002
7.771721e+002, 2.252984e-002
7.791006e+002, 2.278529e-002
7.810291e+002, 2.324922e-002
7.829575e+002, 2.339117e-002
7.848860e+002, 2.356586e-002
7.868145e+002, 2.407947e-002
7.887429e+002, 2.462522e-002
7.906714e+002, 2.501308e-002
7.925999e+002, 2.531026e-002
7.945283e+002, 2.563287e-002
7.964568e+002, 2.590633e-002
7.983853e+002, 2.624415e-002
8.003137e+002, 2.659590e-002
8.022422e+002, 2.684868e-002
8.041707e+002, 2.727031e-002
8.060991e+002, 2.790178e-002
8.080276e+002, 2.894753e-002
8.099561e+002, 2.994965e-002
8.118845e+002, 3.053308e-002
8.138130e+002, 3.121850e-002
8.157415e+002, 3.199252e-002
8.176699e+002, 3.288149e-002
8.195984e+002, 3.418190e-002
8.215269e+002, 3.537763e-002
8.234553e+002, 3.643566e-002
8.253838e+002, 3.762721e-002
8.273123e+002, 3.887185e-002
8.292407e+002, 4.009195e-002
8.311692e+002, 4.149616e-002
8.330977e+002, 4.307586e-002
8.350261e+002, 4.458858e-002
8.369546e+002, 4.630725e-002
8.388831e+002, 4.820483e-002
8.408115e+002, 5.017725e-002
8.427400e+002, 5.185277e-002
8.446685e+002, 5.380826e-002
8.465969e+002, 5.630466e-002
8.485254e+002, 5.779308e-002
8.504539e+002, 5.860607e-002
8.523823e+002, 6.073223e-002
8.543108e+002, 6.350884e-002
8.562393e+002, 6.681576e-002
8.581677e+002, 7.071764e-002
8.600962e+002, 7.469332e-002
8.620247e+002, 7.891157e-002
8.639531e+002, 8.370411e-002
8.658816e+002, 8.912906e-002
8.678101e+002, 9.679410e-002
8.697385e+002, 1.090907e-001
8.716670e+002, 1.243961e-001
8.735955e+002, 1.355202e-001
8.755239e+002, 1.381055e-001
8.774524e+002, 1.334659e-001
8.793809e+002, 1.249552e-001
8.813093e+002, 1.158268e-001
8.832378e+002, 1.088652e-001
8.851663e+002, 1.042008e-001
8.870947e+002, 1.037473e-001
8.890232e+002, 1.081685e-001
8.909517e+002, 1.149848e-001
8.928801e+002, 1.224268e-001
8.948085e+002, 1.304648e-001
8.967370e+002, 1.387888e-001
8.986655e+002, 1.463839e-001
9.005939e+002, 1.520492e-001
9.025224e+002, 1.550902e-001
9.044509e+002, 1.548968e-001
9.063793e+002, 1.521972e-001
9.083078e+002, 1.491960e-001
9.102363e+002, 1.474628e-001
9.121647e+002, 1.473376e-001
9.140932e+002, 1.479514e-001
9.160217e+002, 1.484981e-001
9.179501e+002, 1.481326e-001
9.198786e+002, 1.470098e-001
9.218071e+002, 1.464151e-001
9.237355e+002, 1.469856e-001
9.256640e+002, 1.490616e-001
9.275925e+002, 1.519547e-001
9.295209e+002, 1.550651e-001
9.314494e+002, 1.579416e-001
9.333779e+002, 1.597390e-001
9.353063e+002, 1.601270e-001
9.372348e+002, 1.596554e-001
9.391633e+002, 1.583551e-001
9.410917e+002, 1.567578e-001
9.430202e+002, 1.549046e-001
9.449487e+002, 1.531235e-001
9.468771e+002, 1.523305e-001
9.488056e+002, 1.525718e-001
9.507341e+002, 1.537127e-001
9.526625e+002, 1.554294e-001
9.545910e+002, 1.577848e-001
9.565195e+002, 1.608658e-001
9.584479e+002, 1.640193e-001
9.603764e+002, 1.670324e-001
9.623049e+002, 1.695164e-001
9.642333e+002, 1.710025e-001
9.661618e+002, 1.707732e-001
9.680903e+002, 1.693106e-001
9.700187e+002, 1.664973e-001
9.719472e+002, 1.625000e-001
9.738757e+002, 1.575673e-001
9.758041e+002, 1.527796e-001
9.777326e+002, 1.487892e-001
9.796611e+002, 1.462819e-001
9.815895e+002, 1.455766e-001
9.835180e+002, 1.464802e-001
9.854465e+002, 1.486311e-001
9.873749e+002, 1.514422e-001
9.893034e+002, 1.545399e-001
9.912319e+002, 1.580758e-001
9.931603e+002, 1.614206e-001
9.950888e+002, 1.644523e-001
9.970173e+002, 1.670511e-001
9.989457e+002, 1.693260e-001
1.000874e+003, 1.714581e-001
1.002803e+003, 1.735304e-001
1.004731e+003, 1.750522e-001
1.006660e+003, 1.759607e-001
1.008588e+003, 1.763593e-001
1.010517e+003, 1.760315e-001
1.012445e+003, 1.746481e-001
1.014373e+003, 1.719415e-001
1.016302e+003, 1.685892e-001
1.018230e+003, 1.651508e-001
1.020159e+003, 1.616487e-001
1.022087e+003, 1.586270e-001
1.024016e+003, 1.560832e-001
1.025944e+003, 1.525296e-001
1.027873e+003, 1.476216e-001
1.029801e+003, 1.419766e-001
1.031730e+003, 1.359657e-001
1.033658e+003, 1.302250e-001
1.035587e+003, 1.254397e-001
1.037515e+003, 1.220185e-001
1.039444e+003, 1.195569e-001
1.041372e+003, 1.175425e-001
1.043301e+003, 1.157547e-001
1.045229e+003, 1.140368e-001
1.047157e+003, 1.124181e-001
1.049086e+003, 1.108883e-001
1.051014e+003, 1.100737e-001
1.052943e+003, 1.102793e-001
1.054871e+003, 1.105890e-001
1.056800e+003, 1.106579e-001
1.058728e+003, 1.098363e-001
1.060657e+003, 1.076425e-001
1.062585e+003, 1.043854e-001
1.064514e+003, 1.006873e-001
1.066442e+003, 9.687738e-002
1.068371e+003, 9.333907e-002
1.070299e+003, 9.053150e-002
1.072228e+003, 8.814245e-002
1.074156e+003, 8.605767e-002
1.076084e+003, 8.418556e-002
1.078013e+003, 8.229078e-002
1.079941e+003, 8.056436e-002
1.081870e+003, 7.920681e-002
1.083798e+003, 7.822174e-002
1.085727e+003, 7.782307e-002
1.087655e+003, 7.773229e-002
1.089584e+003, 7.782938e-002
1.091512e+003, 7.755946e-002
1.093441e+003, 7.681312e-002
1.095369e+003, 7.565024e-002
1.097298e+003, 7.411406e-002
1.099226e+003, 7.220984e-002
1.101155e+003, 7.006491e-002
1.103083e+003, 6.793986e-002
1.105011e+003, 6.555377e-002
1.106940e+003, 6.325705e-002
1.108868e+003, 6.098441e-002
1.110797e+003, 5.869337e-002
1.112725e+003, 5.680155e-002
1.114654e+003, 5.497277e-002
1.116582e+003, 5.272646e-002
1.118511e+003, 5.067440e-002
1.120439e+003, 4.902307e-002
1.122368e+003, 4.748341e-002
1.124296e+003, 4.598479e-002
1.126225e+003, 4.467950e-002
1.128153e+003, 4.358245e-002
1.130082e+003, 4.256033e-002
1.132010e+003, 4.181691e-002
1.133938e+003, 4.117949e-002
1.135867e+003, 4.031408e-002
1.137795e+003, 3.967046e-002
1.139724e+003, 3.922052e-002
1.141652e+003, 3.872715e-002
1.143581e+003, 3.824506e-002
1.145509e+003, 3.777203e-002
1.147438e+003, 3.723548e-002
1.149366e+003, 3.680856e-002
1.151295e+003, 3.629218e-002
1.153223e+003, 3.537425e-002
1.155152e+003, 3.462315e-002
1.157080e+003, 3.397979e-002
1.159009e+003, 3.318319e-002
1.160937e+003, 3.246825e-002
1.162865e+003, 3.169892e-002
1.164794e+003, 3.083309e-002
1.166722e+003, 2.989561e-002
1.168651e+003, 2.876997e-002
1.170579e+003, 2.769190e-002
1.172508e+003, 2.694697e-002
1.174436e+003, 2.601328e-002
1.176365e+003, 2.489227e-002
1.178293e+003, 2.373256e-002
1.180222e+003, 2.279943e-002
1.182150e+003, 2.147016e-002
1.184079e+003, 2.020945e-002
1.186007e+003, 1.927906e-002
1.187936e+003, 1.825787e-002
1.189864e+003, 1.745988e-002
1.191792e+003, 1.685012e-002
1.193721e+003, 1.602291e-002
1.195649e+003, 1.534894e-002
1.197578e+003, 1.475399e-002
1.199506e+003, 1.386520e-002
1.201435e+003, 1.326871e-002
1.203363e+003, 1.280227e-002
1.205292e+003, 1.222062e-002
1.207220e+003, 1.177116e-002
1.209149e+003, 1.136371e-002
1.211077e+003, 1.085995e-002
1.213006e+003, 1.053604e-002
1.214934e+003, 1.041233e-002
1.216863e+003, 1.034741e-002
1.218791e+003, 1.013470e-002
1.220719e+003, 9.729136e-003
1.222648e+003, 9.401090e-003
1.224576e+003, 9.294834e-003
1.226505e+003, 9.216885e-003
1.228433e+003, 9.129114e-003
1.230362e+003, 8.947641e-003
1.232290e+003, 8.846262e-003
1.234219e+003, 8.870714e-003
1.236147e+003, 8.717558e-003
1.238076e+003, 8.505456e-003
1.240004e+003, 8.351202e-003
1.241933e+003, 8.295785e-003
1.243861e+003, 8.310101e-003
1.245790e+003, 8.417995e-003
1.247718e+003, 8.307979e-003
1.249646e+003, 8.046676e-003
1.251575e+003, 7.976627e-003
1.253503e+003, 7.934278e-003
1.255432e+003, 7.956337e-003
1.257360e+003, 7.960860e-003
1.259289e+003, 8.035985e-003
1.261217e+003, 8.099597e-003
1.263146e+003, 8.183069e-003
1.265074e+003, 8.212727e-003
1.267003e+003, 8.171764e-003
1.268931e+003, 8.144546e-003
1.270860e+003, 8.178806e-003
1.272788e+003, 8.263653e-003
1.274717e+003, 8.415028e-003
1.276645e+003, 8.618904e-003
1.278573e+003, 8.654917e-003
1.280502e+003, 8.703251e-003
1.282430e+003, 8.980061e-003
1.284359e+003, 8.957309e-003
1.286287e+003, 8.652029e-003
1.288216e+003, 8.627708e-003
1.290144e+003, 8.848313e-003
1.292073e+003, 8.986531e-003
1.294001e+003, 9.009331e-003
1.295930e+003, 9.190390e-003
1.297858e+003, 9.509466e-003
1.299787e+003, 9.707051e-003
1.301715e+003, 9.759364e-003
1.303644e+003, 9.909858e-003
1.305572e+003, 1.014416e-002
1.307500e+003, 1.050541e-002
1.309429e+003, 1.070176e-002
1.311357e+003, 1.071309e-002
1.313286e+003, 1.087374e-002
1.315214e+003, 1.110139e-002
1.317143e+003, 1.138297e-002
1.319071e+003, 1.166254e-002
1.321000e+003, 1.169367e-002
1.322928e+003, 1.185912e-002
1.324857e+003, 1.217634e-002
1.326785e+003, 1.219655e-002
1.328714e+003, 1.230829e-002
1.330642e+003, 1.276001e-002
1.332571e+003, 1.316260e-002
1.334499e+003, 1.345811e-002
1.336427e+003, 1.391134e-002
1.338356e+003, 1.435609e-002
1.340284e+003, 1.471765e-002
1.342213e+003, 1.504827e-002
1.344141e+003, 1.544745e-002
1.346070e+003, 1.592848e-002
1.347998e+003, 1.635615e-002
1.349927e+003, 1.684591e-002
1.351855e+003, 1.731637e-002
1.353784e+003, 1.804473e-002
1.355712e+003, 1.872153e-002
1.357641e+003, 1.936260e-002
1.359569e+003, 1.994001e-002
1.361498e+003, 2.050861e-002
1.363426e+003, 2.152909e-002
1.365354e+003, 2.262859e-002
1.367283e+003, 2.358075e-002
1.369211e+003, 2.457161e-002
1.371140e+003, 2.557860e-002
1.373068e+003, 2.659669e-002
1.374997e+003, 2.762168e-002
1.376925e+003, 2.910705e-002
1.378854e+003, 3.068666e-002
1.380782e+003, 3.235595e-002
1.382711e+003, 3.438927e-002
1.384639e+003, 3.655962e-002
1.386568e+003, 3.887421e-002
1.388496e+003, 4.165069e-002
1.390424e+003, 4.490791e-002
1.392353e+003, 4.826629e-002
1.394281e+003, 5.178665e-002
1.396210e+003, 5.533614e-002
1.398138e+003, 5.865356e-002
1.400067e+003, 6.143776e-002
1.401995e+003, 6.415082e-002
1.403924e+003, 6.750949e-002
1.405852e+003, 7.152168e-002
1.407781e+003, 7.584133e-002
1.409709e+003, 8.001178e-002
1.411638e+003, 8.401161e-002
1.413566e+003, 8.738256e-002
1.415495e+003, 9.004522e-002
1.417423e+003, 9.229096e-002
1.419351e+003, 9.398829e-002
1.421280e+003, 9.529509e-002
1.423208e+003, 9.631165e-002
1.425137e+003, 9.703809e-002
1.427065e+003, 9.765047e-002
1.428994e+003, 9.816553e-002
1.430922e+003, 9.842818e-002
1.432851e+003, 9.856050e-002
1.434779e+003, 9.838367e-002
1.436708e+003, 9.807490e-002
1.438636e+003, 9.779619e-002
1.440565e+003, 9.742383e-002
1.442493e+003, 9.713265e-002
1.444422e+003, 9.649049e-002
1.446350e+003, 9.560980e-002
1.448278e+003, 9.467474e-002
1.450207e+003, 9.392559e-002
1.452135e+003, 9.272099e-002
1.454064e+003, 9.117379e-002
1.455992e+003, 8.961329e-002
1.457921e+003, 8.803362e-002
1.459849e+003, 8.672152e-002
1.461778e+003, 8.549318e-002
1.463706e+003, 8.396083e-002
1.465635e+003, 8.204687e-002
1.467563e+003, 8.043481e-002
1.469492e+003, 7.877354e-002
1.471420e+003, 7.707968e-002
1.473349e+003, 7.510983e-002
1.475277e+003, 7.304019e-002
1.477205e+003, 7.107925e-002
1.479134e+003, 6.917236e-002
1.481062e+003, 6.732719e-002
1.482991e+003, 6.557661e-002
1.484919e+003, 6.350403e-002
1.486848e+003, 6.158700e-002
1.488776e+003, 5.976125e-002
1.490705e+003, 5.787787e-002
1.492633e+003, 5.591003e-002
1.494562e+003, 5.392077e-002
1.496490e+003, 5.202982e-002
1.498419e+003, 5.028028e-002
1.500347e+003, 4.840087e-002
1.502276e+003, 4.637591e-002
1.504204e+003, 4.421352e-002
1.506132e+003, 4.216809e-002
1.508061e+003, 4.028699e-002
1.509989e+003, 3.871938e-002
1.511918e+003, 3.702972e-002
1.513846e+003, 3.499117e-002
1.515775e+003, 3.304520e-002
1.517703e+003, 3.121450e-002
1.519632e+003, 2.984683e-002
1.521560e+003, 2.844553e-002
1.523489e+003, 2.704477e-002
1.525417e+003, 2.576292e-002
1.527346e+003, 2.441951e-002
1.529274e+003, 2.327147e-002
1.531203e+003, 2.217948e-002
1.533131e+003, 2.102036e-002
1.535059e+003, 1.995287e-002
1.536988e+003, 1.896797e-002
1.538916e+003, 1.779380e-002
1.540845e+003, 1.701417e-002
1.542773e+003, 1.659473e-002
1.544702e+003, 1.625401e-002
1.546630e+003, 1.584673e-002
1.548559e+003, 1.524417e-002
1.550487e+003, 1.469470e-002
1.552416e+003, 1.463227e-002
1.554344e+003, 1.443159e-002
1.556273e+003, 1.394557e-002
1.558201e+003, 1.363856e-002
1.560130e+003, 1.357370e-002
1.562058e+003, 1.355436e-002
1.563986e+003, 1.336597e-002
1.565915e+003, 1.351691e-002
1.567843e+003, 1.346959e-002
1.569772e+003, 1.314065e-002
1.571700e+003, 1.329066e-002
1.573629e+003, 1.334025e-002
1.575557e+003, 1.311861e-002
1.577486e+003, 1.284834e-002
1.579414e+003, 1.303574e-002
1.581343e+003, 1.300441e-002
1.583271e+003, 1.299087e-002
1.585200e+003, 1.329962e-002
1.587128e+003, 1.333731e-002
1.589057e+003, 1.304415e-002
1.590985e+003, 1.277895e-002
1.592913e+003, 1.283570e-002
1.594842e+003, 1.287123e-002
1.596770e+003, 1.259478e-002
1.598699e+003, 1.234408e-002
1.600627e+003, 1.214935e-002
1.602556e+003, 1.201799e-002
1.604484e+003, 1.217157e-002
1.606413e+003, 1.204228e-002
1.608341e+003, 1.179827e-002
1.610270e+003, 1.163546e-002
1.612198e+003, 1.154703e-002
1.614127e+003, 1.142962e-002
1.616055e+003, 1.136442e-002
1.617984e+003, 1.133783e-002
1.619912e+003, 1.117783e-002
1.621840e+003, 1.089655e-002
1.623769e+003, 1.066346e-002
1.625697e+003, 1.040227e-002
1.627626e+003, 1.020485e-002
1.629554e+003, 1.014982e-002
1.631483e+003, 1.013063e-002
1.633411e+003, 9.623393e-003
1.635340e+003, 9.025402e-003
1.637268e+003, 8.961509e-003
1.639197e+003, 8.946519e-003
1.641125e+003, 8.517149e-003
1.643054e+003, 8.358074e-003
1.644982e+003, 8.226744e-003
1.646911e+003, 8.045900e-003
1.648839e+003, 7.917233e-003
1.650767e+003, 7.672728e-003
1.652696e+003, 7.365207e-003
1.654624e+003, 7.297813e-003
1.656553e+003, 7.518215e-003
1.658481e+003, 7.452903e-003
1.660410e+003, 7.328067e-003
1.662338e+003, 7.374770e-003
1.664267e+003, 7.222133e-003
1.666195e+003, 6.882400e-003
1.668124e+003, 6.717064e-003
1.670052e+003, 6.651451e-003
1.671981e+003, 6.649652e-003
1.673909e+003, 6.766018e-003
1.675838e+003, 6.606639e-003
1.677766e+003, 6.584177e-003
1.679694e+003, 6.697900e-003
1.681623e+003, 6.745485e-003
1.683551e+003, 6.490276e-003
1.685480e+003, 6.145597e-003
1.687408e+003, 6.254340e-003
1.689337e+003, 6.206418e-003
1.691265e+003, 6.219698e-003
1.693194e+003, 6.220654e-003
1.695122e+003, 5.945238e-003
1.697051e+003, 5.418407e-003
1.698979e+003, 5.692753e-003
1.700908e+003, 5.585853e-003
1.702836e+003, 5.595331e-003
1.704765e+003, 5.494521e-003
1.706693e+003, 5.657000e-003
1.708621e+003, 5.906250e-003
1.710550e+003, 5.640982e-003
1.712478e+003, 5.407952e-003
1.714407e+003, 5.232806e-003
1.716335e+003, 4.871355e-003
1.718264e+003, 4.495286e-003
1.720192e+003, 4.663425e-003
1.722121e+003, 5.027290e-003
1.724049e+003, 5.166593e-003
1.725978e+003, 5.097326e-003
1.727906e+003, 4.743236e-003
1.729835e+003, 4.335129e-003
1.731763e+003, 4.279050e-003
1.733692e+003, 4.186349e-003
1.735620e+003, 3.640173e-003
1.737548e+003, 3.749958e-003
1.739477e+003, 4.022608e-003
1.741405e+003, 3.658110e-003
1.743334e+003, 3.420047e-003
1.745262e+003, 3.585530e-003
1.747191e+003, 3.424470e-003
1.749119e+003, 3.232296e-003
1.751048e+003, 3.402384e-003
1.752976e+003, 3.699651e-003
1.754905e+003, 3.751366e-003
1.756833e+003, 3.693838e-003
1.758762e+003, 3.839288e-003
1.760690e+003, 4.184952e-003
1.762619e+003, 4.267071e-003
1.764547e+003, 4.318630e-003
1.766475e+003, 4.166847e-003
1.768404e+003, 3.957992e-003
1.770332e+003, 4.041165e-003
1.772261e+003, 4.074803e-003
1.774189e+003, 3.938015e-003
1.776118e+003, 3.624093e-003
1.778046e+003, 3.766346e-003
1.779975e+003, 3.872741e-003
1.781903e+003, 4.003928e-003
1.783832e+003, 4.229319e-003
1.785760e+003, 4.011951e-003
1.787689e+003, 4.115338e-003
1.789617e+003, 4.727164e-003
1.791546e+003, 5.402105e-003
1.793474e+003, 5.753443e-003
1.795402e+003, 5.692233e-003
1.797331e+003, 5.357219e-003
1.799259e+003, 5.217889e-003
1.801188e+003, 4.908478e-003
1.803116e+003, 4.431253e-003
1.805045e+003, 3.901233e-003
1.806973e+003, 3.635153e-003
1.808902e+003, 3.158688e-003
1.810830e+003, 2.813664e-003
1.812759e+003, 2.775533e-003
1.814687e+003, 2.912988e-003
1.816616e+003, 2.882765e-003
1.818544e+003, 3.137233e-003
1.820473e+003, 3.335004e-003
1.822401e+003, 3.057915e-003
1.824329e+003, 2.915376e-003
1.826258e+003, 2.794964e-003
1.828186e+003, 2.917018e-003
1.830115e+003, 2.813984e-003
1.832043e+003, 2.669368e-003
1.833972e+003, 2.861752e-003
1.835900e+003, 2.899891e-003
1.837829e+003, 2.410753e-003
1.839757e+003, 2.806706e-003
1.841686e+003, 3.168956e-003
1.843614e+003, 2.490667e-003
1.845543e+003, 2.543205e-003
1.847471e+003, 3.256806e-003
1.849400e+003, 3.267505e-003
1.851328e+003, 2.859216e-003
1.853256e+003, 2.412593e-003
1.855185e+003, 2.977845e-003
1.857113e+003, 3.132540e-003
1.859042e+003, 2.621454e-003
1.860970e+003, 2.242533e-003
1.862899e+003, 2.285445e-003
1.864827e+003, 2.734456e-003
1.866756e+003, 2.732455e-003
1.868684e+003, 2.602648e-003
1.870613e+003, 3.140698e-003
1.872541e+003, 3.405656e-003
1.874470e+003, 3.171468e-003
1.876398e+003, 2.416861e-003
1.878327e+003, 1.608157e-003
1.880255e+003, 1.569183e-003
1.882183e+003, 2.535112e-003
1.884112e+003, 2.424002e-003
1.886040e+003, 1.972126e-003
1.887969e+003, 2.686325e-003
1.889897e+003, 2.894875e-003
1.891826e+003, 1.980599e-003
1.893754e+003, 2.174944e-003
1.895683e+003, 2.575668e-003
1.897611e+003, 2.621721e-003
1.899540e+003, 2.458904e-003
1.901468e+003, 2.308957e-003
1.903397e+003, 1.490945e-003
1.905325e+003, 1.552617e-003
1.907254e+003, 2.423753e-003
1.909182e+003, 2.109889e-003
1.911110e+003, 1.854414e-003
1.913039e+003, 2.829732e-003
1.914967e+003, 3.383953e-003
1.916896e+003, 2.981476e-003
1.918824e+003, 2.018103e-003
1.920753e+003, 1.841618e-003
1.922681e+003, 1.661344e-003
1.924610e+003, 1.548222e-003
1.926538e+003, 1.532855e-003
1.928467e+003, 6.762774e-004
1.930395e+003, 1.907184e-004
1.932324e+003, 4.698566e-004
1.934252e+003, 5.752231e-004
1.936181e+003, 1.124841e-003
1.938109e+003, 1.683279e-003
1.940037e+003, 9.520750e-004
1.941966e+003, -1.558801e-005
1.943894e+003, 3.362980e-004
1.945823e+003, -6.669913e-004
1.947751e+003, -1.360373e-003
1.949680e+003, -4.756331e-004
1.951608e+003, 8.281590e-004
1.953537e+003, 7.312851e-004
1.955465e+003, -3.266012e-004
1.957394e+003, -4.682778e-004
1.959322e+003, -3.783061e-004
1.961251e+003, -2.240258e-004
1.963179e+003, -1.118053e-003
1.965108e+003, -8.390716e-004
1.967036e+003, -9.158005e-005
1.968964e+003, -2.358298e-003
1.970893e+003, -4.153311e-003
1.972821e+003, -2.212994e-003
1.974750e+003, -1.828022e-003
1.976678e+003, -2.131924e-003
1.978607e+003, 2.107270e-004
1.980535e+003, 1.313573e-003
1.982464e+003, 1.762329e-005
1.984392e+003, -1.715796e-003
1.986321e+003, -2.394544e-003
1.988249e+003, -2.733608e-003
1.990178e+003, -2.300137e-003
1.992106e+003, -2.136243e-003
1.994035e+003, -1.430467e-003
1.995963e+003, 6.333383e-005
1.997891e+003, 1.273898e-003
1.999820e+003, -4.678312e-004
2.001748e+003, -2.371440e-003
2.003677e+003, -2.388686e-003
2.005605e+003, -2.877351e-003
2.007534e+003, -2.025040e-003
2.009462e+003, -1.788637e-003
2.011391e+003, -1.561500e-003
2.013319e+003, -1.356176e-003
2.015248e+003, -2.158537e-003
2.017176e+003, -2.972291e-003
2.019105e+003, -3.140241e-003
2.021033e+003, -3.955303e-003
2.022962e+003, -3.734406e-003
2.024890e+003, -3.754301e-003
2.026818e+003, -3.160876e-003
2.028747e+003, -8.826434e-004
2.030675e+003, -2.956196e-004
2.032604e+003, -8.293547e-004
2.034532e+003, -1.465480e-003
2.036461e+003, -9.780197e-004
2.038389e+003, -1.088183e-005
2.040318e+003, 8.095453e-004
2.042246e+003, 2.699503e-004
2.044175e+003, 3.467426e-004
2.046103e+003, 5.137991e-005
2.048032e+003, 1.286872e-003
2.049960e+003, 1.969926e-003
2.051889e+003, 1.705062e-003
2.053817e+003, 1.646939e-003
2.055746e+003, 1.434794e-003
2.057674e+003, 1.162916e-003
2.059603e+003, 1.451787e-003
2.061531e+003, 1.963244e-003
2.063459e+003, 1.581853e-003
2.065388e+003, 1.038170e-003
2.067316e+003, 2.515502e-003
2.069245e+003, 3.383946e-003
2.071173e+003, 2.825044e-003
2.073102e+003, 1.872758e-003
2.075030e+003, 2.298463e-003
2.076959e+003, 2.988743e-003
2.078887e+003, 2.504479e-003
2.080816e+003, 2.812820e-003
2.082744e+003, 3.263322e-003
2.084673e+003, 2.584528e-003
2.086601e+003, 2.181145e-003
2.088530e+003, 1.702990e-003
2.090458e+003, 1.860295e-003
2.092386e+003, 9.614053e-004
2.094315e+003, 7.111230e-005
2.096243e+003, 6.551350e-004
2.098172e+003, 2.098785e-003
2.100100e+003, 3.036095e-003
2.102029e+003, 2.283167e-003
2.103957e+003, 2.207047e-003
2.105886e+003, 2.273424e-003
2.107814e+003, 1.885157e-003
2.109743e+003, 2.581422e-003
2.111671e+003, 2.464490e-003
2.113600e+003, 1.887921e-003
2.115528e+003, 2.038321e-003
2.117457e+003, 1.753137e-003
2.119385e+003, 2.267274e-003
2.121313e+003, 2.646690e-003
2.123242e+003, 1.792426e-003
2.125170e+003, 1.610771e-003
2.127099e+003, 1.917165e-003
2.129027e+003, 2.099537e-003
2.130956e+003, 1.840767e-003
2.132884e+003, 1.855201e-003
2.134813e+003, 1.475084e-003
2.136741e+003, 5.005011e-004
2.138670e+003, -1.695337e-004
2.140598e+003, -2.378619e-004
2.142527e+003, 1.043739e-004
2.144455e+003, 8.807832e-004
2.146384e+003, -7.513208e-004
2.148312e+003, -1.098225e-003
2.150240e+003, -8.173208e-004
2.152169e+003, -1.122688e-003
2.154097e+003, -1.225669e-003
2.156026e+003, -2.939903e-003
2.157954e+003, -2.145630e-003
2.159883e+003, 1.225389e-003
2.161811e+003, 3.062150e-003
2.163740e+003, 3.843250e-003
2.165668e+003, 1.746208e-003
2.167597e+003, -6.085542e-004
2.169525e+003, -3.805125e-004
2.171454e+003, 1.214566e-003
2.173382e+003, 1.577290e-003
2.175311e+003, 1.563704e-003
2.177239e+003, 1.186167e-003
2.179167e+003, 5.857039e-004
2.181096e+003, 1.184816e-003
2.183024e+003, 2.553810e-003
2.184953e+003, 1.881164e-003
2.186881e+003, 2.668275e-003
2.188810e+003, 3.275169e-003
2.190738e+003, 1.293727e-003
2.192667e+003, 1.686000e-003
2.194595e+003, 2.171952e-003
2.196524e+003, 1.932864e-003
2.198452e+003, 2.910083e-003
2.200381e+003, 2.107124e-003
2.202309e+003, 2.878956e-003
2.204238e+003, 3.656216e-003
2.206166e+003, 2.148678e-003
2.208094e+003, 1.598336e-003
2.210023e+003, 2.089277e-003
2.211951e+003, 2.377825e-003
2.213880e+003, 2.979723e-003
2.215808e+003, 2.048800e-003
2.217737e+003, 2.175225e-003
2.219665e+003, 4.927057e-003
2.221594e+003, 5.644569e-003
2.223522e+003, 4.970959e-003
2.225451e+003, 4.426993e-003
2.227379e+003, 3.672438e-003
2.229308e+003, 2.895597e-003
2.231236e+003, 3.625605e-003
2.233165e+003, 5.317508e-003
2.235093e+003, 6.078010e-003
2.237021e+003, 5.395935e-003
2.238950e+003, 5.698841e-003
2.240878e+003, 6.073388e-003
2.242807e+003, 5.278880e-003
2.244735e+003, 4.939315e-003
2.246664e+003, 4.764479e-003
2.248592e+003, 4.622951e-003
2.250521e+003, 4.482878e-003
2.252449e+003, 4.218341e-003
2.254378e+003, 3.810214e-003
2.256306e+003, 4.133779e-003
2.258235e+003, 4.984512e-003
2.260163e+003, 4.495097e-003
2.262092e+003, 4.369508e-003
2.264020e+003, 5.220032e-003
2.265948e+003, 6.254995e-003
2.267877e+003, 6.803934e-003
2.269805e+003, 6.831516e-003
2.271734e+003, 6.477985e-003
2.273662e+003, 6.764641e-003
2.275591e+003, 7.788100e-003
2.277519e+003, 7.883071e-003
2.279448e+003, 7.464751e-003
2.281376e+003, 6.861058e-003
2.283305e+003, 5.954003e-003
2.285233e+003, 5.978237e-003
2.287162e+003, 6.028958e-003
2.289090e+003, 5.891727e-003
2.291019e+003, 6.476288e-003
2.292947e+003, 7.065604e-003
2.294875e+003, 6.444081e-003
2.296804e+003, 6.249539e-003
2.298732e+003, 6.466744e-003
2.300661e+003, 6.765695e-003
2.302589e+003, 7.312949e-003
2.304518e+003, 7.139207e-003
2.306446e+003, 6.646876e-003
2.308375e+003, 6.250417e-003
2.310303e+003, 6.144145e-003
2.312232e+003, 6.342128e-003
2.314160e+003, 6.695580e-003
2.316089e+003, 7.209839e-003
2.318017e+003, 7.338536e-003
2.319946e+003, 7.707270e-003
2.321874e+003, 7.775265e-003
2.323802e+003, 7.540609e-003
2.325731e+003, 6.875200e-003
2.327659e+003, 6.544099e-003
2.329588e+003, 6.493253e-003
2.331516e+003, 5.980731e-003
2.333445e+003, 5.915511e-003
2.335373e+003, 5.765148e-003
2.337302e+003, 5.838107e-003
2.339230e+003, 6.268589e-003
2.341159e+003, 6.717842e-003
2.343087e+003, 6.964660e-003
2.345016e+003, 6.666993e-003
2.346944e+003, 6.352610e-003
2.348873e+003, 6.558108e-003
2.350801e+003, 6.674884e-003
2.352729e+003, 6.344879e-003
2.354658e+003, 6.482159e-003
2.356586e+003, 6.688734e-003
2.358515e+003, 6.758322e-003
2.360443e+003, 6.922452e-003
2.362372e+003, 6.866530e-003
2.364300e+003, 6.788510e-003
2.366229e+003, 6.642323e-003
2.368157e+003, 6.262591e-003
2.370086e+003, 6.192365e-003
2.372014e+003, 6.449492e-003
2.373942e+003, 6.795436e-003
2.375871e+003, 7.160203e-003
2.377799e+003, 6.675563e-003
2.379728e+003, 5.789732e-003
2.381656e+003, 6.007065e-003
2.383585e+003, 6.237042e-003
2.385513e+003, 5.661678e-003
2.387442e+003, 5.786243e-003
2.389370e+003, 5.975082e-003
2.391299e+003, 6.190217e-003
2.393227e+003, 5.762654e-003
2.395156e+003, 5.480104e-003
2.397084e+003, 5.964782e-003
2.399012e+003, 6.573929e-003
2.400941e+003, 7.058105e-003
2.402869e+003, 6.463562e-003
2.404798e+003, 6.907218e-003
2.406726e+003, 7.323949e-003
2.408655e+003, 6.844554e-003
2.410583e+003, 6.467524e-003
2.412512e+003, 6.142974e-003
2.414440e+003, 6.221934e-003
2.416369e+003, 6.791786e-003
2.418297e+003, 7.025548e-003
2.420226e+003, 6.614560e-003
2.422154e+003, 6.350121e-003
2.424083e+003, 6.291814e-003
2.426011e+003, 6.300244e-003
2.427939e+003, 6.362062e-003
2.429868e+003, 7.137815e-003
2.431796e+003, 7.436884e-003
2.433725e+003, 6.884461e-003
2.435653e+003, 7.078551e-003
2.437582e+003, 6.719742e-003
2.439510e+003, 5.743470e-003
2.441439e+003, 6.055291e-003
2.443367e+003, 7.160748e-003
2.445296e+003, 7.473032e-003
2.447224e+003, 7.187439e-003
2.449153e+003, 7.167462e-003
2.451081e+003, 7.332934e-003
2.453010e+003, 7.262127e-003
2.454938e+003, 7.782015e-003
2.456866e+003, 7.978748e-003
2.458795e+003, 7.864328e-003
2.460723e+003, 7.568670e-003
2.462652e+003, 6.822943e-003
2.464580e+003, 6.899218e-003
2.466509e+003, 7.047557e-003
2.468437e+003, 6.765462e-003
2.470366e+003, 7.015422e-003
2.472294e+003, 7.856485e-003
2.474223e+003, 7.909372e-003
2.476151e+003, 7.178793e-003
2.478080e+003, 7.060178e-003
2.480008e+003, 7.494414e-003
2.481937e+003, 7.181646e-003
2.483865e+003, 7.168021e-003
2.485793e+003, 7.473508e-003
2.487722e+003, 7.324751e-003
2.489650e+003, 7.052866e-003
2.491579e+003, 6.789657e-003
2.493507e+003, 7.454159e-003
2.495436e+003, 7.465692e-003
2.497364e+003, 7.295721e-003
2.499293e+003, 7.840352e-003
2.501221e+003, 7.830242e-003
2.503150e+003, 7.393457e-003
2.505078e+003, 7.099265e-003
2.507007e+003, 7.577515e-003
2.508935e+003, 8.003066e-003
2.510864e+003, 8.767513e-003
2.512792e+003, 8.884607e-003
2.514720e+003, 8.836918e-003
2.516649e+003, 9.435657e-003
2.518577e+003, 9.162756e-003
2.520506e+003, 8.622156e-003
2.522434e+003, 8.292536e-003
2.524363e+003, 7.945355e-003
2.526291e+003, 7.285294e-003
2.528220e+003, 7.004606e-003
2.530148e+003, 7.738284e-003
2.532077e+003, 7.419689e-003
2.534005e+003, 6.693213e-003
2.535934e+003, 7.165584e-003
2.537862e+003, 7.735777e-003
2.539791e+003, 7.644098e-003
2.541719e+003, 7.041089e-003
2.543647e+003, 7.328937e-003
2.545576e+003, 7.479295e-003
2.547504e+003, 7.422406e-003
2.549433e+003, 8.200114e-003
2.551361e+003, 8.722041e-003
2.553290e+003, 7.970853e-003
2.555218e+003, 7.386230e-003
2.557147e+003, 7.128054e-003
2.559075e+003, 7.135640e-003
2.561004e+003, 7.548234e-003
2.562932e+003, 6.919128e-003
2.564861e+003, 6.665732e-003
2.566789e+003, 7.600746e-003
2.568718e+003, 7.796331e-003
2.570646e+003, 7.312927e-003
2.572574e+003, 7.477934e-003
2.574503e+003, 7.874966e-003
2.576431e+003, 8.292415e-003
2.578360e+003, 7.708718e-003
2.580288e+003, 7.329286e-003
2.582217e+003, 7.288604e-003
2.584145e+003, 7.248577e-003
2.586074e+003, 8.154331e-003
2.588002e+003, 7.769997e-003
2.589931e+003, 6.821484e-003
2.591859e+003, 7.495877e-003
2.593788e+003, 7.887476e-003
2.595716e+003, 6.607780e-003
2.597645e+003, 6.722214e-003
2.599573e+003, 8.049143e-003
2.601501e+003, 8.512358e-003
2.603430e+003, 8.348459e-003
2.605358e+003, 7.777991e-003
2.607287e+003, 7.444269e-003
2.609215e+003, 6.733004e-003
2.611144e+003, 6.590962e-003
2.613072e+003, 7.365371e-003
2.615001e+003, 7.432480e-003
2.616929e+003, 7.379046e-003
2.618858e+003, 7.874285e-003
2.620786e+003, 8.484125e-003
2.622715e+003, 8.181279e-003
2.624643e+003, 7.387302e-003
2.626572e+003, 6.791166e-003
2.628500e+003, 6.331532e-003
2.630428e+003, 6.486236e-003
2.632357e+003, 6.590563e-003
2.634285e+003, 6.930922e-003
2.636214e+003, 7.595078e-003
2.638142e+003, 7.546743e-003
2.640071e+003, 7.567665e-003
2.641999e+003, 7.689454e-003
2.643928e+003, 7.626007e-003
2.645856e+003, 7.611512e-003
2.647785e+003, 7.788949e-003
2.649713e+003, 7.402999e-003
2.651642e+003, 7.498251e-003
2.653570e+003, 8.283253e-003
2.655499e+003, 7.730882e-003
2.657427e+003, 7.028067e-003
2.659355e+003, 7.202960e-003
2.661284e+003, 7.372011e-003
2.663212e+003, 7.135743e-003
2.665141e+003, 7.510409e-003
2.667069e+003, 7.446073e-003
2.668998e+003, 7.080651e-003
2.670926e+003, 7.050430e-003
2.672855e+003, 6.424273e-003
2.674783e+003, 6.197157e-003
2.676712e+003, 6.736317e-003
2.678640e+003, 7.275593e-003
2.680569e+003, 7.075856e-003
2.682497e+003, 6.619086e-003
2.684426e+003, 6.847284e-003
2.686354e+003, 6.873558e-003
2.688282e+003, 6.735452e-003
2.690211e+003, 6.876901e-003
2.692139e+003, 6.747576e-003
2.694068e+003, 6.389240e-003
2.695996e+003, 6.460078e-003
2.697925e+003, 6.893769e-003
2.699853e+003, 6.875964e-003
2.701782e+003, 6.775134e-003
2.703710e+003, 6.849619e-003
2.705639e+003, 6.793288e-003
2.707567e+003, 7.197212e-003
2.709496e+003, 7.404743e-003
2.711424e+003, 6.926568e-003
2.713353e+003, 6.958879e-003
2.715281e+003, 7.094081e-003
2.717209e+003, 6.648846e-003
2.719138e+003, 6.467308e-003
2.721066e+003, 6.847957e-003
2.722995e+003, 7.387741e-003
2.724923e+003, 7.190603e-003
2.726852e+003, 6.986179e-003
2.728780e+003, 6.793279e-003
2.730709e+003, 6.503660e-003
2.732637e+003, 6.956797e-003
2.734566e+003, 6.914994e-003
2.736494e+003, 6.794939e-003
2.738423e+003, 6.970318e-003
2.740351e+003, 7.032564e-003
2.742280e+003, 7.410431e-003
2.744208e+003, 7.366866e-003
2.746136e+003, 6.855192e-003
2.748065e+003, 6.620812e-003
2.749993e+003, 6.420489e-003
2.751922e+003, 6.285251e-003
2.753850e+003, 6.281381e-003
2.755779e+003, 6.853873e-003
2.757707e+003, 7.309718e-003
2.759636e+003, 7.790462e-003
2.761564e+003, 8.031640e-003
2.763493e+003, 7.277384e-003
2.765421e+003, 6.834779e-003
2.767350e+003, 6.923022e-003
2.769278e+003, 6.758435e-003
2.771207e+003, 6.913604e-003
2.773135e+003, 6.852344e-003
2.775063e+003, 7.007829e-003
2.776992e+003, 7.205226e-003
2.778920e+003, 7.095833e-003
2.780849e+003, 7.188172e-003
2.782777e+003, 6.957673e-003
2.784706e+003, 6.587658e-003
2.786634e+003, 6.816839e-003
2.788563e+003, 6.926187e-003
2.790491e+003, 6.030457e-003
2.792420e+003, 5.359493e-003
2.794348e+003, 4.902359e-003
2.796277e+003, 5.282253e-003
2.798205e+003, 6.156181e-003
2.800134e+003, 6.773354e-003
2.802062e+003, 6.963646e-003
2.803990e+003, 7.064629e-003
2.805919e+003, 6.749732e-003
2.807847e+003, 6.069277e-003
2.809776e+003, 5.972393e-003
2.811704e+003, 6.120923e-003
2.813633e+003, 6.620587e-003
2.815561e+003, 7.070699e-003
2.817490e+003, 7.175381e-003
2.819418e+003, 6.418626e-003
2.821347e+003, 6.354018e-003
2.823275e+003, 6.496958e-003
2.825204e+003, 5.500725e-003
2.827132e+003, 5.639415e-003
2.829061e+003, 6.214857e-003
2.830989e+003, 6.046565e-003
2.832917e+003, 6.506847e-003
2.834846e+003, 6.546194e-003
2.836774e+003, 6.265706e-003
2.838703e+003, 7.014399e-003
2.840631e+003, 7.285989e-003
2.842560e+003, 7.047335e-003
2.844488e+003, 6.957777e-003
2.846417e+003, 6.764575e-003
2.848345e+003, 7.230119e-003
2.850274e+003, 7.999517e-003
2.852202e+003, 7.704422e-003
2.854131e+003, 7.188914e-003
2.856059e+003, 6.921034e-003
2.857988e+003, 6.672829e-003
2.859916e+003, 6.583483e-003
2.861844e+003, 6.358350e-003
2.863773e+003, 6.366555e-003
2.865701e+003, 6.984181e-003
2.867630e+003, 6.723308e-003
2.869558e+003, 6.103325e-003
2.871487e+003, 6.735669e-003
2.873415e+003, 7.101800e-003
2.875344e+003, 7.017806e-003
2.877272e+003, 7.527619e-003
2.879201e+003, 7.782256e-003
2.881129e+003, 7.525901e-003
2.883058e+003, 6.836703e-003
2.884986e+003, 6.482581e-003
2.886915e+003, 6.551830e-003
2.888843e+003, 6.338582e-003
2.890771e+003, 6.814935e-003
2.892700e+003, 7.466467e-003
2.894628e+003, 7.725434e-003
2.896557e+003, 7.664829e-003
2.898485e+003, 7.331971e-003
2.900414e+003, 7.364430e-003
2.902342e+003, 7.467973e-003
2.904271e+003, 7.528735e-003
2.906199e+003, 7.224734e-003
2.908128e+003, 7.018120e-003
2.910056e+003, 6.791856e-003
2.911985e+003, 7.176321e-003
2.913913e+003, 7.914134e-003
2.915842e+003, 8.252791e-003
2.917770e+003, 8.420588e-003
2.919698e+003, 8.445714e-003
2.921627e+003, 8.245297e-003
2.923555e+003, 7.713562e-003
2.925484e+003, 7.548521e-003
2.927412e+003, 7.798617e-003
2.929341e+003, 7.625138e-003
2.931269e+003, 7.454016e-003
2.933198e+003, 6.902385e-003
2.935126e+003, 7.021540e-003
2.937055e+003, 6.910767e-003
2.938983e+003, 6.602209e-003
2.940912e+003, 7.118090e-003
2.942840e+003, 7.671176e-003
2.944769e+003, 7.030626e-003
2.946697e+003, 7.191635e-003
2.948625e+003, 7.775399e-003
2.950554e+003, 7.919202e-003
2.952482e+003, 8.041741e-003
2.954411e+003, 7.311928e-003
2.956339e+003, 6.638119e-003
2.958268e+003, 6.439972e-003
2.960196e+003, 7.109926e-003
2.962125e+003, 8.406634e-003
2.964053e+003, 8.753849e-003
2.965982e+003, 8.758324e-003
2.967910e+003, 8.169791e-003
2.969839e+003, 7.968787e-003
2.971767e+003, 8.375315e-003
2.973696e+003, 7.799667e-003
2.975624e+003, 6.928211e-003
2.977552e+003, 7.000537e-003
2.979481e+003, 7.712896e-003
2.981409e+003, 8.814056e-003
2.983338e+003, 9.039199e-003
2.985266e+003, 8.930585e-003
2.987195e+003, 8.793576e-003
2.989123e+003, 8.789051e-003
2.991052e+003, 7.837552e-003
2.992980e+003, 7.537361e-003
2.994909e+003, 8.713442e-003
2.996837e+003, 8.283269e-003
2.998766e+003, 7.870187e-003
3.000694e+003, 8.163040e-003
3.002623e+003, 8.779719e-003
3.004551e+003, 9.218520e-003
3.006479e+003, 8.177925e-003
3.008408e+003, 7.847884e-003
3.010336e+003, 8.705257e-003
3.012265e+003, 8.719939e-003
3.014193e+003, 9.678633e-003
3.016122e+003, 9.988614e-003
3.018050e+003, 8.899440e-003
3.019979e+003, 8.392690e-003
3.021907e+003, 8.326450e-003
3.023836e+003, 8.788113e-003
3.025764e+003, 8.950671e-003
3.027693e+003, 9.345181e-003
3.029621e+003, 1.018793e-002
3.031550e+003, 9.951734e-003
3.033478e+003, 8.646183e-003
3.035406e+003, 9.330159e-003
3.037335e+003, 9.064932e-003
3.039263e+003, 9.063240e-003
3.041192e+003, 9.316672e-003
3.043120e+003, 7.949441e-003
3.045049e+003, 7.573972e-003
3.046977e+003, 8.306490e-003
3.048906e+003, 9.574316e-003
3.050834e+003, 9.139600e-003
3.052763e+003, 9.011891e-003
3.054691e+003, 9.661974e-003
3.056620e+003, 9.181182e-003
3.058548e+003, 8.534189e-003
3.060477e+003, 8.616446e-003
3.062405e+003, 8.419923e-003
3.064333e+003, 9.738873e-003
3.066262e+003, 1.064725e-002
3.068190e+003, 1.057961e-002
3.070119e+003, 1.064223e-002
3.072047e+003, 9.993973e-003
3.073976e+003, 9.438124e-003
3.075904e+003, 9.741435e-003
3.077833e+003, 1.037009e-002
3.079761e+003, 1.120298e-002
3.081690e+003, 1.157741e-002
3.083618e+003, 1.127187e-002
3.085547e+003, 1.002153e-002
3.087475e+003, 1.091421e-002
3.089404e+003, 1.207674e-002
3.091332e+003, 1.161387e-002
3.093260e+003, 1.022789e-002
3.095189e+003, 9.904974e-003
3.097117e+003, 1.043394e-002
3.099046e+003, 1.024642e-002
3.100974e+003, 1.096018e-002
3.102903e+003, 1.099731e-002
3.104831e+003, 1.132606e-002
3.106760e+003, 1.184788e-002
3.108688e+003, 1.140990e-002
3.110617e+003, 1.128668e-002
3.112545e+003, 1.156463e-002
3.114474e+003, 1.203179e-002
3.116402e+003, 1.136828e-002
3.118331e+003, 1.074167e-002
3.120259e+003, 1.135580e-002
3.122188e+003, 1.204641e-002
3.124116e+003, 1.196037e-002
3.126044e+003, 1.164395e-002
3.127973e+003, 1.104615e-002
3.129901e+003, 1.062851e-002
3.131830e+003, 1.014073e-002
3.133758e+003, 1.080823e-002
3.135687e+003, 1.196902e-002
3.137615e+003, 1.251681e-002
3.139544e+003, 1.247278e-002
3.141472e+003, 1.179993e-002
3.143401e+003, 1.145626e-002
3.145329e+003, 1.119246e-002
3.147258e+003, 1.173505e-002
3.149186e+003, 1.160648e-002
3.151115e+003, 1.153382e-002
3.153043e+003, 1.272696e-002
3.154971e+003, 1.390748e-002
3.156900e+003, 1.355716e-002
3.158828e+003, 1.262174e-002
3.160757e+003, 1.179907e-002
3.162685e+003, 1.164898e-002
3.164614e+003, 1.213535e-002
3.166542e+003, 1.122680e-002
3.168471e+003, 1.080587e-002
3.170399e+003, 1.205895e-002
3.172328e+003, 1.163442e-002
3.174256e+003, 1.150192e-002
3.176185e+003, 1.162923e-002
3.178113e+003, 1.192928e-002
3.180042e+003, 1.213763e-002
3.181970e+003, 1.259352e-002
3.183898e+003, 1.273913e-002
3.185827e+003, 1.306295e-002
3.187755e+003, 1.368962e-002
3.189684e+003, 1.356737e-002
3.191612e+003, 1.247249e-002
3.193541e+003, 1.211081e-002
3.195469e+003, 1.301291e-002
3.197398e+003, 1.310129e-002
3.199326e+003, 1.279747e-002
3.201255e+003, 1.348228e-002
3.203183e+003, 1.257678e-002
3.205112e+003, 1.230605e-002
3.207040e+003, 1.333770e-002
3.208969e+003, 1.345563e-002
3.210897e+003, 1.402919e-002
3.212825e+003, 1.385617e-002
3.214754e+003, 1.365240e-002
3.216682e+003, 1.369799e-002
3.218611e+003, 1.392371e-002
3.220539e+003, 1.404049e-002
3.222468e+003, 1.328545e-002
3.224396e+003, 1.295383e-002
3.226325e+003, 1.341917e-002
3.228253e+003, 1.359078e-002
3.230182e+003, 1.308514e-002
3.232110e+003, 1.373962e-002
3.234039e+003, 1.369206e-002
3.235967e+003, 1.389898e-002
3.237896e+003, 1.445353e-002
3.239824e+003, 1.464404e-002
3.241752e+003, 1.428703e-002
3.243681e+003, 1.312353e-002
3.245609e+003, 1.313108e-002
3.247538e+003, 1.373579e-002
3.249466e+003, 1.365661e-002
3.251395e+003, 1.337132e-002
3.253323e+003, 1.373323e-002
3.255252e+003, 1.359017e-002
3.257180e+003, 1.354107e-002
3.259109e+003, 1.376327e-002
3.261037e+003, 1.481142e-002
3.262966e+003, 1.566783e-002
3.264894e+003, 1.511563e-002
3.266823e+003, 1.474577e-002
3.268751e+003, 1.479376e-002
3.270679e+003, 1.523048e-002
3.272608e+003, 1.441755e-002
3.274536e+003, 1.375646e-002
3.276465e+003, 1.440983e-002
3.278393e+003, 1.483054e-002
3.280322e+003, 1.488165e-002
3.282250e+003, 1.425999e-002
3.284179e+003, 1.457584e-002
3.286107e+003, 1.497351e-002
3.288036e+003, 1.497379e-002
3.289964e+003, 1.468954e-002
3.291893e+003, 1.335987e-002
3.293821e+003, 1.373243e-002
3.295750e+003, 1.531619e-002
3.297678e+003, 1.597239e-002
3.299606e+003, 1.610400e-002
3.301535e+003, 1.628102e-002
3.303463e+003, 1.536021e-002
3.305392e+003, 1.421087e-002
3.307320e+003, 1.494236e-002
3.309249e+003, 1.497309e-002
3.311177e+003, 1.459963e-002
3.313106e+003, 1.562914e-002
3.315034e+003, 1.497629e-002
3.316963e+003, 1.554930e-002
3.318891e+003, 1.638898e-002
3.320820e+003, 1.691623e-002
3.322748e+003, 1.693209e-002
3.324677e+003, 1.611861e-002
3.326605e+003, 1.506662e-002
3.328533e+003, 1.509412e-002
3.330462e+003, 1.554061e-002
3.332390e+003, 1.532750e-002
3.334319e+003, 1.543555e-002
3.336247e+003, 1.511072e-002
3.338176e+003, 1.509801e-002
3.340104e+003, 1.401437e-002
3.342033e+003, 1.352917e-002
3.343961e+003, 1.494520e-002
3.345890e+003, 1.619847e-002
3.347818e+003, 1.675069e-002
3.349747e+003, 1.585680e-002
3.351675e+003, 1.538323e-002
3.353604e+003, 1.609496e-002
3.355532e+003, 1.598482e-002
3.357460e+003, 1.638086e-002
3.359389e+003, 1.657544e-002
3.361317e+003, 1.610745e-002
3.363246e+003, 1.642003e-002
3.365174e+003, 1.628484e-002
3.367103e+003, 1.666758e-002
3.369031e+003, 1.644336e-002
3.370960e+003, 1.452209e-002
3.372888e+003, 1.313902e-002
3.374817e+003, 1.594516e-002
3.376745e+003, 1.877639e-002
3.378674e+003, 1.838161e-002
3.380602e+003, 1.818048e-002
3.382531e+003, 1.805268e-002
3.384459e+003, 1.804978e-002
3.386387e+003, 1.831311e-002
3.388316e+003, 1.705291e-002
3.390244e+003, 1.764812e-002
3.392173e+003, 1.883852e-002
3.394101e+003, 1.902520e-002
3.396030e+003, 1.739898e-002
3.397958e+003, 1.574337e-002
3.399887e+003, 1.706182e-002
3.401815e+003, 1.865836e-002
3.403744e+003, 1.864076e-002
3.405672e+003, 1.754439e-002
3.407601e+003, 1.674316e-002
3.409529e+003, 1.642553e-002
3.411458e+003, 1.639082e-002
3.413386e+003, 1.757480e-002
3.415314e+003, 1.799717e-002
3.417243e+003, 1.675749e-002
3.419171e+003, 1.634021e-002
3.421100e+003, 1.569858e-002
3.423028e+003, 1.726284e-002
3.424957e+003, 1.805100e-002
3.426885e+003, 1.674150e-002
3.428814e+003, 1.593744e-002
3.430742e+003, 1.522583e-002
3.432671e+003, 1.594670e-002
3.434599e+003, 1.644506e-002
3.436528e+003, 1.693552e-002
3.438456e+003, 1.800967e-002
3.440385e+003, 1.770875e-002
3.442313e+003, 1.539224e-002
3.444241e+003, 1.550045e-002
3.446170e+003, 1.594646e-002
3.448098e+003, 1.537140e-002
3.450027e+003, 1.580431e-002
3.451955e+003, 1.700141e-002
3.453884e+003, 1.607171e-002
3.455812e+003, 1.462668e-002
3.457741e+003, 1.481881e-002
3.459669e+003, 1.648979e-002
3.461598e+003, 1.723562e-002
3.463526e+003, 1.604106e-002
3.465455e+003, 1.642879e-002
3.467383e+003, 1.770069e-002
3.469312e+003, 1.780198e-002
3.471240e+003, 1.670972e-002
3.473168e+003, 1.585681e-002
3.475097e+003, 1.619231e-002
3.477025e+003, 1.648320e-002
3.478954e+003, 1.599886e-002
3.480882e+003, 1.481437e-002
3.482811e+003, 1.548967e-002
3.484739e+003, 1.539871e-002
3.486668e+003, 1.505252e-002
3.488596e+003, 1.583483e-002
3.490525e+003, 1.551440e-002
3.492453e+003, 1.481273e-002
3.494382e+003, 1.404607e-002
3.496310e+003, 1.419313e-002
3.498239e+003, 1.611160e-002
3.500167e+003, 1.673152e-002
3.502095e+003, 1.550122e-002
3.504024e+003, 1.327921e-002
3.505952e+003, 1.355274e-002
3.507881e+003, 1.621792e-002
3.509809e+003, 1.704815e-002
3.511738e+003, 1.575171e-002
3.513666e+003, 1.573093e-002
3.515595e+003, 1.600984e-002
3.517523e+003, 1.568187e-002
3.519452e+003, 1.581809e-002
3.521380e+003, 1.600775e-002
3.523309e+003, 1.485813e-002
3.525237e+003, 1.544398e-002
3.527166e+003, 1.581848e-002
3.529094e+003, 1.494864e-002
3.531022e+003, 1.429757e-002
3.532951e+003, 1.379420e-002
3.534879e+003, 1.479829e-002
3.536808e+003, 1.587557e-002
3.538736e+003, 1.521408e-002
3.540665e+003, 1.412544e-002
3.542593e+003, 1.369489e-002
3.544522e+003, 1.471811e-002
3.546450e+003, 1.609057e-002
3.548379e+003, 1.767510e-002
3.550307e+003, 1.765221e-002
3.552236e+003, 1.576157e-002
3.554164e+003, 1.564991e-002
3.556093e+003, 1.552597e-002
3.558021e+003, 1.561625e-002
3.559949e+003, 1.412890e-002
3.561878e+003, 1.463660e-002
3.563806e+003, 1.568091e-002
3.565735e+003, 1.342118e-002
3.567663e+003, 1.176216e-002
3.569592e+003, 1.381449e-002
3.571520e+003, 1.379090e-002
3.573449e+003, 1.211731e-002
3.575377e+003, 1.139374e-002
3.577306e+003, 1.107999e-002
3.579234e+003, 1.185486e-002
3.581163e+003, 1.247368e-002
3.583091e+003, 1.282483e-002
3.585020e+003, 1.295530e-002
3.586948e+003, 1.260934e-002
3.588876e+003, 1.110218e-002
3.590805e+003, 1.076205e-002
3.592733e+003, 1.213836e-002
3.594662e+003, 1.326129e-002
3.596590e+003, 1.241427e-002
3.598519e+003, 1.179254e-002
3.600447e+003, 1.185235e-002
3.602376e+003, 1.143358e-002
3.604304e+003, 1.222920e-002
3.606233e+003, 1.189693e-002
3.608161e+003, 1.101213e-002
3.610090e+003, 1.051796e-002
3.612018e+003, 9.298930e-003
3.613947e+003, 9.407910e-003
3.615875e+003, 9.867673e-003
3.617803e+003, 1.088465e-002
3.619732e+003, 1.087082e-002
3.621660e+003, 1.061144e-002
3.623589e+003, 1.058424e-002
3.625517e+003, 9.797019e-003
3.627446e+003, 9.884637e-003
3.629374e+003, 1.078708e-002
3.631303e+003, 9.987289e-003
3.633231e+003, 8.503180e-003
3.635160e+003, 9.429818e-003
3.637088e+003, 9.200939e-003
3.639017e+003, 8.760510e-003
3.640945e+003, 9.144673e-003
3.642874e+003, 1.071577e-002
3.644802e+003, 1.281082e-002
3.646730e+003, 1.329636e-002
3.648659e+003, 1.188944e-002
3.650587e+003, 9.485286e-003
3.652516e+003, 8.395704e-003
3.654444e+003, 9.113328e-003
3.656373e+003, 8.336478e-003
3.658301e+003, 9.016854e-003
3.660230e+003, 1.019599e-002
3.662158e+003, 8.877657e-003
3.664087e+003, 8.458911e-003
3.666015e+003, 8.559022e-003
3.667944e+003, 9.010203e-003
3.669872e+003, 1.117642e-002
3.671801e+003, 1.158876e-002
3.673729e+003, 1.005970e-002
3.675657e+003, 1.104827e-002
3.677586e+003, 1.103635e-002
3.679514e+003, 1.080625e-002
3.681443e+003, 1.049130e-002
3.683371e+003, 1.085726e-002
3.685300e+003, 1.093182e-002
3.687228e+003, 1.027033e-002
3.689157e+003, 9.073596e-003
3.691085e+003, 9.001742e-003
3.693014e+003, 1.199758e-002
3.694942e+003, 1.081061e-002
3.696871e+003, 7.712097e-003
3.698799e+003, 5.997567e-003
3.700728e+003, 7.029487e-003
3.702656e+003, 9.480752e-003
3.704584e+003, 9.244613e-003
3.706513e+003, 8.086331e-003
3.708441e+003, 8.863053e-003
3.710370e+003, 9.451335e-003
3.712298e+003, 8.844548e-003
3.714227e+003, 1.005957e-002
3.716155e+003, 9.774877e-003
3.718084e+003, 6.691736e-003
3.720012e+003, 7.589419e-003
3.721941e+003, 9.667613e-003
3.723869e+003, 1.006539e-002
3.725798e+003, 9.225531e-003
3.727726e+003, 7.223106e-003
3.729655e+003, 7.491712e-003
3.731583e+003, 7.635553e-003
3.733511e+003, 6.742505e-003
3.735440e+003, 6.781894e-003
3.737368e+003, 6.431823e-003
3.739297e+003, 5.277703e-003
3.741225e+003, 6.865126e-003
3.743154e+003, 8.414463e-003
3.745082e+003, 1.006024e-002
3.747011e+003, 8.946913e-003
3.748939e+003, 1.013570e-002
3.750868e+003, 9.467401e-003
3.752796e+003, 8.395954e-003
3.754725e+003, 9.102976e-003
3.756653e+003, 1.047954e-002
3.758582e+003, 8.335405e-003
3.760510e+003, 6.627841e-003
3.762438e+003, 6.013400e-003
3.764367e+003, 6.756506e-003
3.766295e+003, 7.677290e-003
3.768224e+003, 8.212594e-003
3.770152e+003, 8.475065e-003
3.772081e+003, 8.675283e-003
3.774009e+003, 1.027607e-002
3.775938e+003, 1.087014e-002
3.777866e+003, 1.182346e-002
3.779795e+003, 1.025086e-002
3.781723e+003, 7.913191e-003
3.783652e+003, 6.505178e-003
3.785580e+003, 8.066650e-003
3.787509e+003, 7.983817e-003
3.789437e+003, 4.823454e-003
3.791365e+003, 6.912806e-003
3.793294e+003, 8.504654e-003
3.795222e+003, 6.586590e-003
3.797151e+003, 7.233534e-003
3.799079e+003, 8.987851e-003
3.801008e+003, 1.014684e-002
3.802936e+003, 8.457954e-003
3.804865e+003, 6.123407e-003
3.806793e+003, 6.140153e-003
3.808722e+003, 7.017897e-003
3.810650e+003, 1.022204e-002
3.812579e+003, 1.190309e-002
3.814507e+003, 1.059191e-002
3.816436e+003, 9.757796e-003
3.818364e+003, 9.273922e-003
3.820292e+003, 1.131317e-002
3.822221e+003, 9.795738e-003
3.824149e+003, 8.027377e-003
3.826078e+003, 1.008230e-002
3.828006e+003, 1.125570e-002
3.829935e+003, 1.036316e-002
3.831863e+003, 8.651590e-003
3.833792e+003, 8.335858e-003
3.835720e+003, 9.523181e-003
3.837649e+003, 9.533815e-003
3.839577e+003, 8.856014e-003
3.841506e+003, 9.639830e-003
3.843434e+003, 9.334254e-003
3.845363e+003, 7.236991e-003
3.847291e+003, 6.695271e-003
3.849219e+003, 8.118108e-003
3.851148e+003, 6.818824e-003
3.853076e+003, 6.731065e-003
3.855005e+003, 8.931929e-003
3.856933e+003, 7.936409e-003
3.858862e+003, 8.071782e-003
3.860790e+003, 8.073025e-003
3.862719e+003, 8.887183e-003
3.864647e+003, 8.498238e-003
3.866576e+003, 8.003428e-003
3.868504e+003, 8.209967e-003
3.870433e+003, 8.902212e-003
3.872361e+003, 7.767153e-003
3.874290e+003, 7.509161e-003
3.876218e+003, 7.506394e-003
3.878146e+003, 7.497038e-003
3.880075e+003, 7.540288e-003
3.882003e+003, 8.765200e-003
3.883932e+003, 1.063733e-002
3.885860e+003, 1.183886e-002
3.887789e+003, 1.086517e-002
3.889717e+003, 1.017061e-002
3.891646e+003, 1.032552e-002
3.893574e+003, 8.543801e-003
3.895503e+003, 9.727685e-003
3.897431e+003, 8.829865e-003
3.899360e+003, 6.841393e-003
3.901288e+003, 7.541985e-003
3.903217e+003, 6.989284e-003
3.905145e+003, 6.912680e-003
3.907073e+003, 7.397173e-003
3.909002e+003, 6.513386e-003
3.910930e+003, 7.069699e-003
3.912859e+003, 9.070730e-003
3.914787e+003, 1.095654e-002
3.916716e+003, 1.141320e-002
3.918644e+003, 9.712409e-003
3.920573e+003, 8.066283e-003
3.922501e+003, 7.978991e-003
3.924430e+003, 9.825454e-003
3.926358e+003, 1.189415e-002
3.928287e+003, 1.045419e-002
3.930215e+003, 7.930534e-003
3.932144e+003, 8.504390e-003
3.934072e+003, 1.042581e-002
3.936000e+003, 8.521702e-003
3.937929e+003, 9.968919e-003
3.939857e+003, 1.239342e-002
3.941786e+003, 1.117451e-002
3.943714e+003, 9.875026e-003
3.945643e+003, 8.923575e-003
3.947571e+003, 7.755668e-003
3.949500e+003, 6.221660e-003
3.951428e+003, 8.064661e-003
3.953357e+003, 8.644306e-003
3.955285e+003, 8.278390e-003
3.957214e+003, 7.293795e-003
3.959142e+003, 8.595699e-003
3.961071e+003, 1.075293e-002
3.962999e+003, 9.948252e-003
3.964927e+003, 1.023031e-002
3.966856e+003, 1.253983e-002
3.968784e+003, 1.293647e-002
3.970713e+003, 1.084087e-002
3.972641e+003, 8.079004e-003
3.974570e+003, 9.225191e-003
3.976498e+003, 8.479279e-003
3.978427e+003, 5.619179e-003
3.980355e+003, 6.037050e-003
3.982284e+003, 8.680558e-003
3.984212e+003, 9.634046e-003
3.986141e+003, 8.852159e-003
3.988069e+003, 9.251725e-003
3.989998e+003, 9.738123e-003
3.991926e+003, 9.238602e-003
3.993854e+003, 8.470250e-003
3.995783e+003, 7.899156e-003
3.997711e+003, 7.050633e-003
3.999640e+003, 7.052198e-003
##END=



