##NAMES=Hedenbergite
##RRUFFID=R050030
##IDEAL CHEMISTRY=CaFe^2+^Si_2_O_6_
##LOCALITY=Heroult, Ontario, Canada
##OWNER=RRUFF
##SOURCE=University of Arizona Mineral Museum
##DESCRIPTION=Green fragments
##STATUS=The identification of this mineral has been confirmed by X-ray diffraction and chemical analysis
##URL=rruff.info/R050030
##MEASURED CHEMISTRY=(Ca_.993_Na_.007_)(Fe_.860_Mn_.111_Mg_.029_)(Si_.993_Al_.007_)_2_O_6_
3.991926e+002, 0.000000e+000
4.011211e+002, 1.486309e-001
4.030496e+002, 1.493761e-001
4.049780e+002, 1.413223e-001
4.069065e+002, 1.356474e-001
4.088350e+002, 1.339094e-001
4.107634e+002, 1.304694e-001
4.126919e+002, 1.325397e-001
4.146204e+002, 1.411954e-001
4.165488e+002, 1.509923e-001
4.184773e+002, 1.594568e-001
4.204058e+002, 1.679106e-001
4.223342e+002, 1.783412e-001
4.242627e+002, 1.919866e-001
4.261912e+002, 2.035748e-001
4.281196e+002, 2.175557e-001
4.300481e+002, 2.318588e-001
4.319766e+002, 2.426857e-001
4.339050e+002, 2.561893e-001
4.358335e+002, 2.690217e-001
4.377620e+002, 2.798531e-001
4.396904e+002, 2.925580e-001
4.416189e+002, 3.036547e-001
4.435474e+002, 3.091776e-001
4.454758e+002, 3.105864e-001
4.474043e+002, 3.124414e-001
4.493328e+002, 3.125206e-001
4.512612e+002, 3.147872e-001
4.531897e+002, 3.140188e-001
4.551182e+002, 3.129464e-001
4.570466e+002, 3.106853e-001
4.589751e+002, 3.068603e-001
4.609036e+002, 2.976601e-001
4.628320e+002, 2.873627e-001
4.647605e+002, 2.769314e-001
4.666890e+002, 2.663717e-001
4.686174e+002, 2.527269e-001
4.705459e+002, 2.400701e-001
4.724744e+002, 2.318809e-001
4.744028e+002, 2.253318e-001
4.763313e+002, 2.213541e-001
4.782598e+002, 2.227819e-001
4.801882e+002, 2.250675e-001
4.821167e+002, 2.271757e-001
4.840452e+002, 2.290047e-001
4.859736e+002, 2.324525e-001
4.879021e+002, 2.339081e-001
4.898306e+002, 2.317146e-001
4.917590e+002, 2.290241e-001
4.936875e+002, 2.256926e-001
4.956160e+002, 2.205166e-001
4.975444e+002, 2.167945e-001
4.994729e+002, 2.145985e-001
5.014014e+002, 2.126812e-001
5.033298e+002, 2.108902e-001
5.052583e+002, 2.082876e-001
5.071868e+002, 2.037090e-001
5.091152e+002, 1.990274e-001
5.110437e+002, 1.938404e-001
5.129722e+002, 1.869472e-001
5.149006e+002, 1.803071e-001
5.168291e+002, 1.735024e-001
5.187576e+002, 1.656509e-001
5.206860e+002, 1.579833e-001
5.226145e+002, 1.516074e-001
5.245430e+002, 1.464849e-001
5.264714e+002, 1.401569e-001
5.283999e+002, 1.336907e-001
5.303284e+002, 1.278346e-001
5.322568e+002, 1.217007e-001
5.341853e+002, 1.149976e-001
5.361138e+002, 1.086788e-001
5.380422e+002, 1.031312e-001
5.399707e+002, 9.803865e-002
5.418992e+002, 9.286572e-002
5.438276e+002, 8.722508e-002
5.457561e+002, 8.135953e-002
5.476846e+002, 7.576384e-002
5.496130e+002, 7.090013e-002
5.515415e+002, 6.638787e-002
5.534700e+002, 6.190785e-002
5.553984e+002, 5.819188e-002
5.573269e+002, 5.507697e-002
5.592554e+002, 5.296333e-002
5.611838e+002, 5.107576e-002
5.631123e+002, 4.911214e-002
5.650408e+002, 4.833988e-002
5.669692e+002, 4.813008e-002
5.688977e+002, 4.795491e-002
5.708262e+002, 4.831539e-002
5.727546e+002, 4.824661e-002
5.746831e+002, 4.754063e-002
5.766116e+002, 4.681113e-002
5.785400e+002, 4.596442e-002
5.804685e+002, 4.502237e-002
5.823970e+002, 4.472580e-002
5.843254e+002, 4.405332e-002
5.862539e+002, 4.373697e-002
5.881824e+002, 4.448597e-002
5.901108e+002, 4.513701e-002
5.920393e+002, 4.531028e-002
5.939678e+002, 4.605642e-002
5.958962e+002, 4.722715e-002
5.978247e+002, 4.884806e-002
5.997532e+002, 5.075045e-002
6.016816e+002, 5.275153e-002
6.036101e+002, 5.565033e-002
6.055386e+002, 5.934701e-002
6.074670e+002, 6.388027e-002
6.093955e+002, 6.927054e-002
6.113240e+002, 7.571724e-002
6.132524e+002, 8.305295e-002
6.151809e+002, 9.064650e-002
6.171094e+002, 9.825406e-002
6.190378e+002, 1.048213e-001
6.209663e+002, 1.091325e-001
6.228948e+002, 1.114828e-001
6.248232e+002, 1.111005e-001
6.267517e+002, 1.070291e-001
6.286802e+002, 1.002704e-001
6.306086e+002, 9.175868e-002
6.325371e+002, 8.236021e-002
6.344656e+002, 7.291656e-002
6.363940e+002, 6.423498e-002
6.383225e+002, 5.706935e-002
6.402510e+002, 5.114416e-002
6.421794e+002, 4.659846e-002
6.441079e+002, 4.358713e-002
6.460364e+002, 4.181258e-002
6.479648e+002, 4.080864e-002
6.498933e+002, 4.073874e-002
6.518218e+002, 4.180496e-002
6.537502e+002, 4.346415e-002
6.556787e+002, 4.590425e-002
6.576072e+002, 4.982117e-002
6.595356e+002, 5.520983e-002
6.614641e+002, 6.206850e-002
6.633926e+002, 7.006752e-002
6.653210e+002, 7.684672e-002
6.672495e+002, 7.941768e-002
6.691780e+002, 7.590835e-002
6.711064e+002, 6.779479e-002
6.730349e+002, 5.893745e-002
6.749634e+002, 5.172421e-002
6.768918e+002, 4.646663e-002
6.788203e+002, 4.273069e-002
6.807488e+002, 3.992229e-002
6.826772e+002, 3.788590e-002
6.846057e+002, 3.649799e-002
6.865342e+002, 3.576090e-002
6.884626e+002, 3.520089e-002
6.903911e+002, 3.457421e-002
6.923196e+002, 3.440349e-002
6.942480e+002, 3.452910e-002
6.961765e+002, 3.432939e-002
6.981050e+002, 3.401233e-002
7.000334e+002, 3.382624e-002
7.019619e+002, 3.379864e-002
7.038904e+002, 3.385851e-002
7.058188e+002, 3.386453e-002
7.077473e+002, 3.394463e-002
7.096758e+002, 3.473007e-002
7.116042e+002, 3.593282e-002
7.135327e+002, 3.641194e-002
7.154612e+002, 3.609910e-002
7.173896e+002, 3.609321e-002
7.193181e+002, 3.650405e-002
7.212466e+002, 3.712489e-002
7.231750e+002, 3.786003e-002
7.251035e+002, 3.855646e-002
7.270320e+002, 3.920985e-002
7.289604e+002, 4.007485e-002
7.308889e+002, 4.090558e-002
7.328174e+002, 4.177696e-002
7.347458e+002, 4.296349e-002
7.366743e+002, 4.425624e-002
7.386028e+002, 4.534738e-002
7.405313e+002, 4.640690e-002
7.424597e+002, 4.767738e-002
7.443882e+002, 4.922115e-002
7.463167e+002, 5.111255e-002
7.482451e+002, 5.276068e-002
7.501736e+002, 5.419123e-002
7.521021e+002, 5.572548e-002
7.540305e+002, 5.737762e-002
7.559590e+002, 5.877129e-002
7.578875e+002, 6.005598e-002
7.598159e+002, 6.161609e-002
7.617444e+002, 6.362753e-002
7.636729e+002, 6.601653e-002
7.656013e+002, 6.842944e-002
7.675298e+002, 7.087449e-002
7.694583e+002, 7.329324e-002
7.713867e+002, 7.583730e-002
7.733152e+002, 7.866677e-002
7.752437e+002, 8.193062e-002
7.771721e+002, 8.525904e-002
7.791006e+002, 8.832549e-002
7.810291e+002, 9.110635e-002
7.829575e+002, 9.400808e-002
7.848860e+002, 9.711608e-002
7.868145e+002, 1.005672e-001
7.887429e+002, 1.043976e-001
7.906714e+002, 1.086781e-001
7.925999e+002, 1.131184e-001
7.945283e+002, 1.177692e-001
7.964568e+002, 1.230221e-001
7.983853e+002, 1.279065e-001
8.003137e+002, 1.323915e-001
8.022422e+002, 1.372654e-001
8.041707e+002, 1.424403e-001
8.060991e+002, 1.479555e-001
8.080276e+002, 1.539905e-001
8.099561e+002, 1.604838e-001
8.118845e+002, 1.673470e-001
8.138130e+002, 1.746378e-001
8.157415e+002, 1.824353e-001
8.176699e+002, 1.904461e-001
8.195984e+002, 1.993624e-001
8.215269e+002, 2.087502e-001
8.234553e+002, 2.184698e-001
8.253838e+002, 2.284282e-001
8.273123e+002, 2.385173e-001
8.292407e+002, 2.495668e-001
8.311692e+002, 2.613748e-001
8.330977e+002, 2.728283e-001
8.350261e+002, 2.850925e-001
8.369546e+002, 2.977501e-001
8.388831e+002, 3.101212e-001
8.408115e+002, 3.218169e-001
8.427400e+002, 3.331942e-001
8.446685e+002, 3.436876e-001
8.465969e+002, 3.526641e-001
8.485254e+002, 3.597209e-001
8.504539e+002, 3.644550e-001
8.523823e+002, 3.673654e-001
8.543108e+002, 3.682978e-001
8.562393e+002, 3.679813e-001
8.581677e+002, 3.669965e-001
8.600962e+002, 3.645566e-001
8.620247e+002, 3.604302e-001
8.639531e+002, 3.556145e-001
8.658816e+002, 3.501408e-001
8.678101e+002, 3.444143e-001
8.697385e+002, 3.385802e-001
8.716670e+002, 3.322983e-001
8.735955e+002, 3.256422e-001
8.755239e+002, 3.183170e-001
8.774524e+002, 3.101358e-001
8.793809e+002, 3.021367e-001
8.813093e+002, 2.951943e-001
8.832378e+002, 2.891545e-001
8.851663e+002, 2.840080e-001
8.870947e+002, 2.792546e-001
8.890232e+002, 2.757423e-001
8.909517e+002, 2.733262e-001
8.928801e+002, 2.708366e-001
8.948085e+002, 2.685060e-001
8.967370e+002, 2.668401e-001
8.986655e+002, 2.653930e-001
9.005939e+002, 2.641991e-001
9.025224e+002, 2.629558e-001
9.044509e+002, 2.610013e-001
9.063793e+002, 2.587679e-001
9.083078e+002, 2.561565e-001
9.102363e+002, 2.523923e-001
9.121647e+002, 2.472354e-001
9.140932e+002, 2.406914e-001
9.160217e+002, 2.322665e-001
9.179501e+002, 2.225691e-001
9.198786e+002, 2.127369e-001
9.218071e+002, 2.031621e-001
9.237355e+002, 1.944189e-001
9.256640e+002, 1.874009e-001
9.275925e+002, 1.831283e-001
9.295209e+002, 1.819651e-001
9.314494e+002, 1.841673e-001
9.333779e+002, 1.894660e-001
9.353063e+002, 1.972950e-001
9.372348e+002, 2.074696e-001
9.391633e+002, 2.197560e-001
9.410917e+002, 2.330788e-001
9.430202e+002, 2.466463e-001
9.449487e+002, 2.600132e-001
9.468771e+002, 2.723076e-001
9.488056e+002, 2.820975e-001
9.507341e+002, 2.888553e-001
9.526625e+002, 2.925511e-001
9.545910e+002, 2.929724e-001
9.565195e+002, 2.896951e-001
9.584479e+002, 2.829282e-001
9.603764e+002, 2.734981e-001
9.623049e+002, 2.627811e-001
9.642333e+002, 2.510428e-001
9.661618e+002, 2.391100e-001
9.680903e+002, 2.277724e-001
9.700187e+002, 2.172615e-001
9.719472e+002, 2.080991e-001
9.738757e+002, 2.005590e-001
9.758041e+002, 1.943121e-001
9.777326e+002, 1.890155e-001
9.796611e+002, 1.844832e-001
9.815895e+002, 1.799845e-001
9.835180e+002, 1.753806e-001
9.854465e+002, 1.708681e-001
9.873749e+002, 1.661976e-001
9.893034e+002, 1.615484e-001
9.912319e+002, 1.572046e-001
9.931603e+002, 1.533936e-001
9.950888e+002, 1.500769e-001
9.970173e+002, 1.473324e-001
9.989457e+002, 1.454685e-001
1.000874e+003, 1.444953e-001
1.002803e+003, 1.446651e-001
1.004731e+003, 1.460710e-001
1.006660e+003, 1.483602e-001
1.008588e+003, 1.514234e-001
1.010517e+003, 1.552503e-001
1.012445e+003, 1.596538e-001
1.014373e+003, 1.644316e-001
1.016302e+003, 1.696098e-001
1.018230e+003, 1.752014e-001
1.020159e+003, 1.813879e-001
1.022087e+003, 1.876634e-001
1.024016e+003, 1.940227e-001
1.025944e+003, 2.008380e-001
1.027873e+003, 2.078333e-001
1.029801e+003, 2.147743e-001
1.031730e+003, 2.218926e-001
1.033658e+003, 2.295621e-001
1.035587e+003, 2.371729e-001
1.037515e+003, 2.444523e-001
1.039444e+003, 2.511828e-001
1.041372e+003, 2.575583e-001
1.043301e+003, 2.630436e-001
1.045229e+003, 2.674173e-001
1.047157e+003, 2.709104e-001
1.049086e+003, 2.735302e-001
1.051014e+003, 2.752490e-001
1.052943e+003, 2.762100e-001
1.054871e+003, 2.759612e-001
1.056800e+003, 2.744021e-001
1.058728e+003, 2.714015e-001
1.060657e+003, 2.666056e-001
1.062585e+003, 2.605290e-001
1.064514e+003, 2.531127e-001
1.066442e+003, 2.443839e-001
1.068371e+003, 2.351501e-001
1.070299e+003, 2.256390e-001
1.072228e+003, 2.155190e-001
1.074156e+003, 2.054825e-001
1.076084e+003, 1.958632e-001
1.078013e+003, 1.866301e-001
1.079941e+003, 1.777294e-001
1.081870e+003, 1.689812e-001
1.083798e+003, 1.605479e-001
1.085727e+003, 1.528029e-001
1.087655e+003, 1.454953e-001
1.089584e+003, 1.383256e-001
1.091512e+003, 1.312852e-001
1.093441e+003, 1.244794e-001
1.095369e+003, 1.181561e-001
1.097298e+003, 1.120348e-001
1.099226e+003, 1.056253e-001
1.101155e+003, 9.929390e-002
1.103083e+003, 9.321882e-002
1.105011e+003, 8.720573e-002
1.106940e+003, 8.121458e-002
1.108868e+003, 7.513119e-002
1.110797e+003, 6.947470e-002
1.112725e+003, 6.446417e-002
1.114654e+003, 5.998778e-002
1.116582e+003, 5.577871e-002
1.118511e+003, 5.190756e-002
1.120439e+003, 4.835109e-002
1.122368e+003, 4.502193e-002
1.124296e+003, 4.205410e-002
1.126225e+003, 3.931173e-002
1.128153e+003, 3.637134e-002
1.130082e+003, 3.355480e-002
1.132010e+003, 3.095931e-002
1.133938e+003, 2.860061e-002
1.135867e+003, 2.664861e-002
1.137795e+003, 2.514399e-002
1.139724e+003, 2.386356e-002
1.141652e+003, 2.276015e-002
1.143581e+003, 2.181107e-002
1.145509e+003, 2.091964e-002
1.147438e+003, 2.007612e-002
1.149366e+003, 1.943238e-002
1.151295e+003, 1.878000e-002
1.153223e+003, 1.825814e-002
1.155152e+003, 1.781517e-002
1.157080e+003, 1.732729e-002
1.159009e+003, 1.693024e-002
1.160937e+003, 1.656153e-002
1.162865e+003, 1.611385e-002
1.164794e+003, 1.585647e-002
1.166722e+003, 1.566916e-002
1.168651e+003, 1.534669e-002
1.170579e+003, 1.495445e-002
1.172508e+003, 1.473924e-002
1.174436e+003, 1.445930e-002
1.176365e+003, 1.401322e-002
1.178293e+003, 1.362433e-002
1.180222e+003, 1.336537e-002
1.182150e+003, 1.328145e-002
1.184079e+003, 1.297925e-002
1.186007e+003, 1.265904e-002
1.187936e+003, 1.252180e-002
1.189864e+003, 1.246586e-002
1.191792e+003, 1.221046e-002
1.193721e+003, 1.193826e-002
1.195649e+003, 1.178361e-002
1.197578e+003, 1.160621e-002
1.199506e+003, 1.133119e-002
1.201435e+003, 1.098570e-002
1.203363e+003, 1.069380e-002
1.205292e+003, 1.049948e-002
1.207220e+003, 1.023006e-002
1.209149e+003, 9.952150e-003
1.211077e+003, 9.788714e-003
1.213006e+003, 9.643582e-003
1.214934e+003, 9.465667e-003
1.216863e+003, 9.216774e-003
1.218791e+003, 9.110140e-003
1.220719e+003, 8.972993e-003
1.222648e+003, 8.623029e-003
1.224576e+003, 8.492484e-003
1.226505e+003, 8.515067e-003
1.228433e+003, 8.621679e-003
1.230362e+003, 8.658873e-003
1.232290e+003, 8.439639e-003
1.234219e+003, 8.424333e-003
1.236147e+003, 8.525435e-003
1.238076e+003, 8.459833e-003
1.240004e+003, 8.430589e-003
1.241933e+003, 8.364774e-003
1.243861e+003, 8.158984e-003
1.245790e+003, 8.309257e-003
1.247718e+003, 8.416303e-003
1.249646e+003, 8.196416e-003
1.251575e+003, 8.032398e-003
1.253503e+003, 7.888301e-003
1.255432e+003, 7.897921e-003
1.257360e+003, 8.016563e-003
1.259289e+003, 7.930350e-003
1.261217e+003, 7.802044e-003
1.263146e+003, 7.959743e-003
1.265074e+003, 7.933083e-003
1.267003e+003, 7.887378e-003
1.268931e+003, 8.064460e-003
1.270860e+003, 7.963943e-003
1.272788e+003, 7.899450e-003
1.274717e+003, 8.187446e-003
1.276645e+003, 8.326634e-003
1.278573e+003, 8.325480e-003
1.280502e+003, 8.505852e-003
1.282430e+003, 8.475723e-003
1.284359e+003, 8.217453e-003
1.286287e+003, 8.124730e-003
1.288216e+003, 8.157852e-003
1.290144e+003, 8.295378e-003
1.292073e+003, 8.561023e-003
1.294001e+003, 8.676047e-003
1.295930e+003, 8.672228e-003
1.297858e+003, 8.732656e-003
1.299787e+003, 8.898939e-003
1.301715e+003, 8.859175e-003
1.303644e+003, 8.811356e-003
1.305572e+003, 8.902878e-003
1.307500e+003, 9.029862e-003
1.309429e+003, 9.127942e-003
1.311357e+003, 9.194781e-003
1.313286e+003, 9.467951e-003
1.315214e+003, 9.778833e-003
1.317143e+003, 9.748781e-003
1.319071e+003, 9.629044e-003
1.321000e+003, 9.557474e-003
1.322928e+003, 9.709775e-003
1.324857e+003, 9.935913e-003
1.326785e+003, 9.942562e-003
1.328714e+003, 9.903282e-003
1.330642e+003, 1.006679e-002
1.332571e+003, 1.023140e-002
1.334499e+003, 1.034323e-002
1.336427e+003, 1.047381e-002
1.338356e+003, 1.074921e-002
1.340284e+003, 1.106310e-002
1.342213e+003, 1.130561e-002
1.344141e+003, 1.158570e-002
1.346070e+003, 1.186174e-002
1.347998e+003, 1.213779e-002
1.349927e+003, 1.241375e-002
1.351855e+003, 1.254738e-002
1.353784e+003, 1.265476e-002
1.355712e+003, 1.283736e-002
1.357641e+003, 1.299200e-002
1.359569e+003, 1.331138e-002
1.361498e+003, 1.354477e-002
1.363426e+003, 1.385913e-002
1.365354e+003, 1.437552e-002
1.367283e+003, 1.461325e-002
1.369211e+003, 1.482434e-002
1.371140e+003, 1.506799e-002
1.373068e+003, 1.535195e-002
1.374997e+003, 1.571586e-002
1.376925e+003, 1.613074e-002
1.378854e+003, 1.651143e-002
1.380782e+003, 1.693617e-002
1.382711e+003, 1.744648e-002
1.384639e+003, 1.806865e-002
1.386568e+003, 1.882497e-002
1.388496e+003, 1.945602e-002
1.390424e+003, 1.989124e-002
1.392353e+003, 2.057797e-002
1.394281e+003, 2.158758e-002
1.396210e+003, 2.284391e-002
1.398138e+003, 2.388157e-002
1.400067e+003, 2.456325e-002
1.401995e+003, 2.535659e-002
1.403924e+003, 2.631466e-002
1.405852e+003, 2.725312e-002
1.407781e+003, 2.821115e-002
1.409709e+003, 2.926801e-002
1.411638e+003, 3.051663e-002
1.413566e+003, 3.168327e-002
1.415495e+003, 3.240115e-002
1.417423e+003, 3.328061e-002
1.419351e+003, 3.405778e-002
1.421280e+003, 3.442485e-002
1.423208e+003, 3.489233e-002
1.425137e+003, 3.539604e-002
1.427065e+003, 3.575142e-002
1.428994e+003, 3.611851e-002
1.430922e+003, 3.635377e-002
1.432851e+003, 3.670771e-002
1.434779e+003, 3.702120e-002
1.436708e+003, 3.729085e-002
1.438636e+003, 3.728615e-002
1.440565e+003, 3.725539e-002
1.442493e+003, 3.738586e-002
1.444422e+003, 3.749219e-002
1.446350e+003, 3.750764e-002
1.448278e+003, 3.740359e-002
1.450207e+003, 3.746662e-002
1.452135e+003, 3.738457e-002
1.454064e+003, 3.699094e-002
1.455992e+003, 3.664288e-002
1.457921e+003, 3.654234e-002
1.459849e+003, 3.635307e-002
1.461778e+003, 3.601412e-002
1.463706e+003, 3.558121e-002
1.465635e+003, 3.500434e-002
1.467563e+003, 3.452631e-002
1.469492e+003, 3.405191e-002
1.471420e+003, 3.360612e-002
1.473349e+003, 3.296544e-002
1.475277e+003, 3.246884e-002
1.477205e+003, 3.193440e-002
1.479134e+003, 3.120125e-002
1.481062e+003, 3.068267e-002
1.482991e+003, 3.048323e-002
1.484919e+003, 2.996359e-002
1.486848e+003, 2.914599e-002
1.488776e+003, 2.846630e-002
1.490705e+003, 2.805820e-002
1.492633e+003, 2.767395e-002
1.494562e+003, 2.718200e-002
1.496490e+003, 2.663897e-002
1.498419e+003, 2.606888e-002
1.500347e+003, 2.561981e-002
1.502276e+003, 2.508382e-002
1.504204e+003, 2.426053e-002
1.506132e+003, 2.394201e-002
1.508061e+003, 2.349654e-002
1.509989e+003, 2.289595e-002
1.511918e+003, 2.272888e-002
1.513846e+003, 2.263930e-002
1.515775e+003, 2.222884e-002
1.517703e+003, 2.175094e-002
1.519632e+003, 2.155672e-002
1.521560e+003, 2.132846e-002
1.523489e+003, 2.121220e-002
1.525417e+003, 2.118660e-002
1.527346e+003, 2.093166e-002
1.529274e+003, 2.069402e-002
1.531203e+003, 2.021657e-002
1.533131e+003, 1.986689e-002
1.535059e+003, 1.999754e-002
1.536988e+003, 1.996049e-002
1.538916e+003, 1.973266e-002
1.540845e+003, 1.965750e-002
1.542773e+003, 1.961206e-002
1.544702e+003, 1.973958e-002
1.546630e+003, 1.988962e-002
1.548559e+003, 1.985616e-002
1.550487e+003, 1.966389e-002
1.552416e+003, 1.949211e-002
1.554344e+003, 1.932326e-002
1.556273e+003, 1.922306e-002
1.558201e+003, 1.932285e-002
1.560130e+003, 1.945041e-002
1.562058e+003, 1.968396e-002
1.563986e+003, 1.985780e-002
1.565915e+003, 1.993689e-002
1.567843e+003, 1.996006e-002
1.569772e+003, 1.967400e-002
1.571700e+003, 1.962939e-002
1.573629e+003, 1.965512e-002
1.575557e+003, 1.970238e-002
1.577486e+003, 1.985392e-002
1.579414e+003, 1.994835e-002
1.581343e+003, 1.997331e-002
1.583271e+003, 1.982815e-002
1.585200e+003, 1.985096e-002
1.587128e+003, 1.993462e-002
1.589057e+003, 1.991230e-002
1.590985e+003, 1.980069e-002
1.592913e+003, 1.960355e-002
1.594842e+003, 1.962614e-002
1.596770e+003, 1.957366e-002
1.598699e+003, 1.928952e-002
1.600627e+003, 1.891305e-002
1.602556e+003, 1.887329e-002
1.604484e+003, 1.896585e-002
1.606413e+003, 1.869254e-002
1.608341e+003, 1.860320e-002
1.610270e+003, 1.853138e-002
1.612198e+003, 1.815952e-002
1.614127e+003, 1.792705e-002
1.616055e+003, 1.795172e-002
1.617984e+003, 1.793670e-002
1.619912e+003, 1.776379e-002
1.621840e+003, 1.745653e-002
1.623769e+003, 1.733856e-002
1.625697e+003, 1.730957e-002
1.627626e+003, 1.738598e-002
1.629554e+003, 1.730236e-002
1.631483e+003, 1.716298e-002
1.633411e+003, 1.691449e-002
1.635340e+003, 1.656541e-002
1.637268e+003, 1.647411e-002
1.639197e+003, 1.627828e-002
1.641125e+003, 1.605915e-002
1.643054e+003, 1.599190e-002
1.644982e+003, 1.579450e-002
1.646911e+003, 1.568302e-002
1.648839e+003, 1.566975e-002
1.650767e+003, 1.553957e-002
1.652696e+003, 1.545584e-002
1.654624e+003, 1.519199e-002
1.656553e+003, 1.495284e-002
1.658481e+003, 1.470984e-002
1.660410e+003, 1.478698e-002
1.662338e+003, 1.521649e-002
1.664267e+003, 1.511002e-002
1.666195e+003, 1.466761e-002
1.668124e+003, 1.437818e-002
1.670052e+003, 1.436388e-002
1.671981e+003, 1.409708e-002
1.673909e+003, 1.408237e-002
1.675838e+003, 1.397663e-002
1.677766e+003, 1.380951e-002
1.679694e+003, 1.384732e-002
1.681623e+003, 1.357335e-002
1.683551e+003, 1.332189e-002
1.685480e+003, 1.345420e-002
1.687408e+003, 1.324855e-002
1.689337e+003, 1.307982e-002
1.691265e+003, 1.313884e-002
1.693194e+003, 1.321846e-002
1.695122e+003, 1.307408e-002
1.697051e+003, 1.247462e-002
1.698979e+003, 1.249108e-002
1.700908e+003, 1.272503e-002
1.702836e+003, 1.270785e-002
1.704765e+003, 1.254700e-002
1.706693e+003, 1.250855e-002
1.708621e+003, 1.251795e-002
1.710550e+003, 1.241006e-002
1.712478e+003, 1.226499e-002
1.714407e+003, 1.218712e-002
1.716335e+003, 1.203904e-002
1.718264e+003, 1.183839e-002
1.720192e+003, 1.197693e-002
1.722121e+003, 1.235438e-002
1.724049e+003, 1.248028e-002
1.725978e+003, 1.287916e-002
1.727906e+003, 1.288511e-002
1.729835e+003, 1.252190e-002
1.731763e+003, 1.252753e-002
1.733692e+003, 1.244584e-002
1.735620e+003, 1.226445e-002
1.737548e+003, 1.202619e-002
1.739477e+003, 1.178816e-002
1.741405e+003, 1.184772e-002
1.743334e+003, 1.208095e-002
1.745262e+003, 1.222749e-002
1.747191e+003, 1.224156e-002
1.749119e+003, 1.222454e-002
1.751048e+003, 1.210381e-002
1.752976e+003, 1.202497e-002
1.754905e+003, 1.203886e-002
1.756833e+003, 1.211031e-002
1.758762e+003, 1.213248e-002
1.760690e+003, 1.211109e-002
1.762619e+003, 1.203687e-002
1.764547e+003, 1.215687e-002
1.766475e+003, 1.226499e-002
1.768404e+003, 1.209242e-002
1.770332e+003, 1.197160e-002
1.772261e+003, 1.176574e-002
1.774189e+003, 1.191192e-002
1.776118e+003, 1.206549e-002
1.778046e+003, 1.208034e-002
1.779975e+003, 1.219083e-002
1.781903e+003, 1.258456e-002
1.783832e+003, 1.264512e-002
1.785760e+003, 1.269355e-002
1.787689e+003, 1.288597e-002
1.789617e+003, 1.295947e-002
1.791546e+003, 1.281838e-002
1.793474e+003, 1.276008e-002
1.795402e+003, 1.270420e-002
1.797331e+003, 1.284108e-002
1.799259e+003, 1.312708e-002
1.801188e+003, 1.283688e-002
1.803116e+003, 1.255769e-002
1.805045e+003, 1.248449e-002
1.806973e+003, 1.244507e-002
1.808902e+003, 1.221907e-002
1.810830e+003, 1.236217e-002
1.812759e+003, 1.234356e-002
1.814687e+003, 1.218073e-002
1.816616e+003, 1.230120e-002
1.818544e+003, 1.288437e-002
1.820473e+003, 1.320696e-002
1.822401e+003, 1.314627e-002
1.824329e+003, 1.312162e-002
1.826258e+003, 1.321262e-002
1.828186e+003, 1.297674e-002
1.830115e+003, 1.283066e-002
1.832043e+003, 1.290024e-002
1.833972e+003, 1.241088e-002
1.835900e+003, 1.224825e-002
1.837829e+003, 1.258475e-002
1.839757e+003, 1.282244e-002
1.841686e+003, 1.275806e-002
1.843614e+003, 1.239431e-002
1.845543e+003, 1.250508e-002
1.847471e+003, 1.223796e-002
1.849400e+003, 1.220344e-002
1.851328e+003, 1.211841e-002
1.853256e+003, 1.226358e-002
1.855185e+003, 1.301344e-002
1.857113e+003, 1.305217e-002
1.859042e+003, 1.261239e-002
1.860970e+003, 1.257285e-002
1.862899e+003, 1.211660e-002
1.864827e+003, 1.203555e-002
1.866756e+003, 1.279582e-002
1.868684e+003, 1.278087e-002
1.870613e+003, 1.273551e-002
1.872541e+003, 1.307912e-002
1.874470e+003, 1.328545e-002
1.876398e+003, 1.333551e-002
1.878327e+003, 1.289425e-002
1.880255e+003, 1.231583e-002
1.882183e+003, 1.273721e-002
1.884112e+003, 1.241196e-002
1.886040e+003, 1.168509e-002
1.887969e+003, 1.229914e-002
1.889897e+003, 1.237645e-002
1.891826e+003, 1.199860e-002
1.893754e+003, 1.196084e-002
1.895683e+003, 1.178998e-002
1.897611e+003, 1.208954e-002
1.899540e+003, 1.213689e-002
1.901468e+003, 1.251665e-002
1.903397e+003, 1.238931e-002
1.905325e+003, 1.172013e-002
1.907254e+003, 1.146076e-002
1.909182e+003, 1.144341e-002
1.911110e+003, 1.143466e-002
1.913039e+003, 1.175429e-002
1.914967e+003, 1.185068e-002
1.916896e+003, 1.224986e-002
1.918824e+003, 1.228503e-002
1.920753e+003, 1.174898e-002
1.922681e+003, 1.127223e-002
1.924610e+003, 1.171451e-002
1.926538e+003, 1.208585e-002
1.928467e+003, 1.129706e-002
1.930395e+003, 1.093188e-002
1.932324e+003, 1.042833e-002
1.934252e+003, 1.098551e-002
1.936181e+003, 1.203451e-002
1.938109e+003, 1.255582e-002
1.940037e+003, 1.136765e-002
1.941966e+003, 1.078515e-002
1.943894e+003, 1.088346e-002
1.945823e+003, 1.130605e-002
1.947751e+003, 1.169673e-002
1.949680e+003, 1.116756e-002
1.951608e+003, 1.125506e-002
1.953537e+003, 1.268758e-002
1.955465e+003, 1.199414e-002
1.957394e+003, 1.061171e-002
1.959322e+003, 1.129035e-002
1.961251e+003, 1.208358e-002
1.963179e+003, 1.206716e-002
1.965108e+003, 1.096858e-002
1.967036e+003, 9.373683e-003
1.968964e+003, 8.884122e-003
1.970893e+003, 9.942957e-003
1.972821e+003, 1.076363e-002
1.974750e+003, 9.879523e-003
1.976678e+003, 9.719982e-003
1.978607e+003, 1.356985e-002
1.980535e+003, 1.468539e-002
1.982464e+003, 1.313954e-002
1.984392e+003, 1.167400e-002
1.986321e+003, 1.157044e-002
1.988249e+003, 1.205548e-002
1.990178e+003, 1.246127e-002
1.992106e+003, 1.093104e-002
1.994035e+003, 9.996052e-003
1.995963e+003, 1.051036e-002
1.997891e+003, 1.141124e-002
1.999820e+003, 1.187679e-002
2.001748e+003, 1.236031e-002
2.003677e+003, 1.197027e-002
2.005605e+003, 9.940919e-003
2.007534e+003, 9.208967e-003
2.009462e+003, 1.143702e-002
2.011391e+003, 1.336581e-002
2.013319e+003, 1.122484e-002
2.015248e+003, 9.825045e-003
2.017176e+003, 1.083183e-002
2.019105e+003, 1.131371e-002
2.021033e+003, 9.120688e-003
2.022962e+003, 8.564856e-003
2.024890e+003, 8.992796e-003
2.026818e+003, 9.400839e-003
2.028747e+003, 8.950875e-003
2.030675e+003, 8.814671e-003
2.032604e+003, 1.081158e-002
2.034532e+003, 1.197416e-002
2.036461e+003, 1.241765e-002
2.038389e+003, 1.300108e-002
2.040318e+003, 1.135100e-002
2.042246e+003, 9.140885e-003
2.044175e+003, 9.360529e-003
2.046103e+003, 1.100496e-002
2.048032e+003, 1.218532e-002
2.049960e+003, 1.373755e-002
2.051889e+003, 1.341108e-002
2.053817e+003, 1.352689e-002
2.055746e+003, 1.279145e-002
2.057674e+003, 1.108887e-002
2.059603e+003, 1.162697e-002
2.061531e+003, 1.195687e-002
2.063459e+003, 1.164594e-002
2.065388e+003, 1.199123e-002
2.067316e+003, 1.185872e-002
2.069245e+003, 1.182898e-002
2.071173e+003, 1.298282e-002
2.073102e+003, 1.319159e-002
2.075030e+003, 1.275164e-002
2.076959e+003, 1.240149e-002
2.078887e+003, 1.235893e-002
2.080816e+003, 1.307283e-002
2.082744e+003, 1.289597e-002
2.084673e+003, 1.196151e-002
2.086601e+003, 1.234904e-002
2.088530e+003, 1.346092e-002
2.090458e+003, 1.241442e-002
2.092386e+003, 1.003514e-002
2.094315e+003, 1.028557e-002
2.096243e+003, 1.156650e-002
2.098172e+003, 1.236551e-002
2.100100e+003, 1.229608e-002
2.102029e+003, 1.257970e-002
2.103957e+003, 1.296543e-002
2.105886e+003, 1.251823e-002
2.107814e+003, 1.249533e-002
2.109743e+003, 1.213480e-002
2.111671e+003, 1.140715e-002
2.113600e+003, 1.125788e-002
2.115528e+003, 1.164567e-002
2.117457e+003, 1.180351e-002
2.119385e+003, 1.117580e-002
2.121313e+003, 1.104456e-002
2.123242e+003, 1.137113e-002
2.125170e+003, 1.088870e-002
2.127099e+003, 1.083416e-002
2.129027e+003, 1.041640e-002
2.130956e+003, 9.347663e-003
2.132884e+003, 9.541345e-003
2.134813e+003, 1.004413e-002
2.136741e+003, 9.208271e-003
2.138670e+003, 8.741196e-003
2.140598e+003, 8.769565e-003
2.142527e+003, 8.244208e-003
2.144455e+003, 8.914293e-003
2.146384e+003, 8.851554e-003
2.148312e+003, 7.517259e-003
2.150240e+003, 6.576647e-003
2.152169e+003, 5.256568e-003
2.154097e+003, 4.315991e-003
2.156026e+003, 2.928958e-003
2.157954e+003, 3.968152e-003
2.159883e+003, 8.817526e-003
2.161811e+003, 1.014075e-002
2.163740e+003, 1.149769e-002
2.165668e+003, 1.223899e-002
2.167597e+003, 1.190376e-002
2.169525e+003, 1.004984e-002
2.171454e+003, 1.097684e-002
2.173382e+003, 1.370845e-002
2.175311e+003, 1.278447e-002
2.177239e+003, 1.208324e-002
2.179167e+003, 1.220203e-002
2.181096e+003, 1.151225e-002
2.183024e+003, 1.019456e-002
2.184953e+003, 1.117815e-002
2.186881e+003, 1.365275e-002
2.188810e+003, 1.291572e-002
2.190738e+003, 1.314116e-002
2.192667e+003, 1.405749e-002
2.194595e+003, 1.395016e-002
2.196524e+003, 1.346731e-002
2.198452e+003, 1.423347e-002
2.200381e+003, 1.442989e-002
2.202309e+003, 1.462519e-002
2.204238e+003, 1.593122e-002
2.206166e+003, 1.595315e-002
2.208094e+003, 1.507269e-002
2.210023e+003, 1.476725e-002
2.211951e+003, 1.569532e-002
2.213880e+003, 1.602997e-002
2.215808e+003, 1.474829e-002
2.217737e+003, 1.386685e-002
2.219665e+003, 1.477320e-002
2.221594e+003, 1.670316e-002
2.223522e+003, 1.733246e-002
2.225451e+003, 1.793011e-002
2.227379e+003, 1.705538e-002
2.229308e+003, 1.721365e-002
2.231236e+003, 1.881476e-002
2.233165e+003, 1.956964e-002
2.235093e+003, 1.820220e-002
2.237021e+003, 1.776826e-002
2.238950e+003, 1.897751e-002
2.240878e+003, 1.809748e-002
2.242807e+003, 1.815396e-002
2.244735e+003, 1.919463e-002
2.246664e+003, 1.873290e-002
2.248592e+003, 1.734271e-002
2.250521e+003, 1.693710e-002
2.252449e+003, 1.794390e-002
2.254378e+003, 1.902885e-002
2.256306e+003, 1.950408e-002
2.258235e+003, 1.954959e-002
2.260163e+003, 1.916706e-002
2.262092e+003, 1.949302e-002
2.264020e+003, 1.997483e-002
2.265948e+003, 1.981217e-002
2.267877e+003, 2.007133e-002
2.269805e+003, 2.067211e-002
2.271734e+003, 2.107889e-002
2.273662e+003, 2.064185e-002
2.275591e+003, 1.990743e-002
2.277519e+003, 2.003142e-002
2.279448e+003, 2.007138e-002
2.281376e+003, 2.064443e-002
2.283305e+003, 2.081963e-002
2.285233e+003, 2.015184e-002
2.287162e+003, 2.065877e-002
2.289090e+003, 2.130929e-002
2.291019e+003, 2.093670e-002
2.292947e+003, 2.042350e-002
2.294875e+003, 2.004404e-002
2.296804e+003, 2.021048e-002
2.298732e+003, 2.103601e-002
2.300661e+003, 2.153261e-002
2.302589e+003, 2.144855e-002
2.304518e+003, 2.138756e-002
2.306446e+003, 2.225924e-002
2.308375e+003, 2.251970e-002
2.310303e+003, 2.205332e-002
2.312232e+003, 2.170018e-002
2.314160e+003, 2.149770e-002
2.316089e+003, 2.138960e-002
2.318017e+003, 2.157702e-002
2.319946e+003, 2.199990e-002
2.321874e+003, 2.275349e-002
2.323802e+003, 2.326164e-002
2.325731e+003, 2.242971e-002
2.327659e+003, 2.136587e-002
2.329588e+003, 2.109896e-002
2.331516e+003, 2.113769e-002
2.333445e+003, 2.117991e-002
2.335373e+003, 2.126833e-002
2.337302e+003, 2.082087e-002
2.339230e+003, 2.053657e-002
2.341159e+003, 2.065331e-002
2.343087e+003, 2.109140e-002
2.345016e+003, 2.119214e-002
2.346944e+003, 2.149041e-002
2.348873e+003, 2.135180e-002
2.350801e+003, 2.131024e-002
2.352729e+003, 2.162943e-002
2.354658e+003, 2.158546e-002
2.356586e+003, 2.141853e-002
2.358515e+003, 2.117692e-002
2.360443e+003, 2.140270e-002
2.362372e+003, 2.155939e-002
2.364300e+003, 2.103938e-002
2.366229e+003, 2.109977e-002
2.368157e+003, 2.106765e-002
2.370086e+003, 2.090427e-002
2.372014e+003, 2.138029e-002
2.373942e+003, 2.147046e-002
2.375871e+003, 2.151980e-002
2.377799e+003, 2.172092e-002
2.379728e+003, 2.128527e-002
2.381656e+003, 2.166305e-002
2.383585e+003, 2.236520e-002
2.385513e+003, 2.189708e-002
2.387442e+003, 2.141426e-002
2.389370e+003, 2.184942e-002
2.391299e+003, 2.194934e-002
2.393227e+003, 2.153263e-002
2.395156e+003, 2.117847e-002
2.397084e+003, 2.136794e-002
2.399012e+003, 2.126297e-002
2.400941e+003, 2.084001e-002
2.402869e+003, 2.053094e-002
2.404798e+003, 2.088554e-002
2.406726e+003, 2.143407e-002
2.408655e+003, 2.117230e-002
2.410583e+003, 2.183843e-002
2.412512e+003, 2.231899e-002
2.414440e+003, 2.193636e-002
2.416369e+003, 2.164400e-002
2.418297e+003, 2.168358e-002
2.420226e+003, 2.197569e-002
2.422154e+003, 2.201552e-002
2.424083e+003, 2.121893e-002
2.426011e+003, 2.151979e-002
2.427939e+003, 2.196255e-002
2.429868e+003, 2.186985e-002
2.431796e+003, 2.177407e-002
2.433725e+003, 2.205384e-002
2.435653e+003, 2.293899e-002
2.437582e+003, 2.342383e-002
2.439510e+003, 2.336474e-002
2.441439e+003, 2.264307e-002
2.443367e+003, 2.246738e-002
2.445296e+003, 2.290050e-002
2.447224e+003, 2.326194e-002
2.449153e+003, 2.401322e-002
2.451081e+003, 2.368869e-002
2.453010e+003, 2.296241e-002
2.454938e+003, 2.255707e-002
2.456866e+003, 2.262520e-002
2.458795e+003, 2.220619e-002
2.460723e+003, 2.200260e-002
2.462652e+003, 2.146661e-002
2.464580e+003, 2.156205e-002
2.466509e+003, 2.214926e-002
2.468437e+003, 2.244183e-002
2.470366e+003, 2.243543e-002
2.472294e+003, 2.234073e-002
2.474223e+003, 2.209921e-002
2.476151e+003, 2.198110e-002
2.478080e+003, 2.229100e-002
2.480008e+003, 2.299277e-002
2.481937e+003, 2.280773e-002
2.483865e+003, 2.302174e-002
2.485793e+003, 2.318315e-002
2.487722e+003, 2.277677e-002
2.489650e+003, 2.207408e-002
2.491579e+003, 2.223843e-002
2.493507e+003, 2.349545e-002
2.495436e+003, 2.414639e-002
2.497364e+003, 2.427351e-002
2.499293e+003, 2.452494e-002
2.501221e+003, 2.310902e-002
2.503150e+003, 2.225100e-002
2.505078e+003, 2.261602e-002
2.507007e+003, 2.300901e-002
2.508935e+003, 2.294252e-002
2.510864e+003, 2.269877e-002
2.512792e+003, 2.292604e-002
2.514720e+003, 2.389836e-002
2.516649e+003, 2.443079e-002
2.518577e+003, 2.389175e-002
2.520506e+003, 2.378456e-002
2.522434e+003, 2.349540e-002
2.524363e+003, 2.365521e-002
2.526291e+003, 2.385048e-002
2.528220e+003, 2.337682e-002
2.530148e+003, 2.292595e-002
2.532077e+003, 2.292418e-002
2.534005e+003, 2.323160e-002
2.535934e+003, 2.290195e-002
2.537862e+003, 2.313317e-002
2.539791e+003, 2.418497e-002
2.541719e+003, 2.410418e-002
2.543647e+003, 2.385516e-002
2.545576e+003, 2.384917e-002
2.547504e+003, 2.455535e-002
2.549433e+003, 2.447362e-002
2.551361e+003, 2.369865e-002
2.553290e+003, 2.302060e-002
2.555218e+003, 2.362491e-002
2.557147e+003, 2.439599e-002
2.559075e+003, 2.399062e-002
2.561004e+003, 2.490645e-002
2.562932e+003, 2.581282e-002
2.564861e+003, 2.492124e-002
2.566789e+003, 2.456090e-002
2.568718e+003, 2.498641e-002
2.570646e+003, 2.406887e-002
2.572574e+003, 2.367046e-002
2.574503e+003, 2.383399e-002
2.576431e+003, 2.345910e-002
2.578360e+003, 2.360114e-002
2.580288e+003, 2.455736e-002
2.582217e+003, 2.439110e-002
2.584145e+003, 2.411442e-002
2.586074e+003, 2.512575e-002
2.588002e+003, 2.506424e-002
2.589931e+003, 2.493766e-002
2.591859e+003, 2.547678e-002
2.593788e+003, 2.506836e-002
2.595716e+003, 2.415779e-002
2.597645e+003, 2.433955e-002
2.599573e+003, 2.505170e-002
2.601501e+003, 2.531642e-002
2.603430e+003, 2.563765e-002
2.605358e+003, 2.506734e-002
2.607287e+003, 2.439740e-002
2.609215e+003, 2.400853e-002
2.611144e+003, 2.432900e-002
2.613072e+003, 2.464968e-002
2.615001e+003, 2.482792e-002
2.616929e+003, 2.500938e-002
2.618858e+003, 2.471309e-002
2.620786e+003, 2.464659e-002
2.622715e+003, 2.419568e-002
2.624643e+003, 2.461137e-002
2.626572e+003, 2.575943e-002
2.628500e+003, 2.565464e-002
2.630428e+003, 2.528013e-002
2.632357e+003, 2.547239e-002
2.634285e+003, 2.593617e-002
2.636214e+003, 2.576244e-002
2.638142e+003, 2.560706e-002
2.640071e+003, 2.576830e-002
2.641999e+003, 2.584327e-002
2.643928e+003, 2.581212e-002
2.645856e+003, 2.550564e-002
2.647785e+003, 2.531956e-002
2.649713e+003, 2.530215e-002
2.651642e+003, 2.577419e-002
2.653570e+003, 2.572656e-002
2.655499e+003, 2.525340e-002
2.657427e+003, 2.551431e-002
2.659355e+003, 2.602260e-002
2.661284e+003, 2.561061e-002
2.663212e+003, 2.540670e-002
2.665141e+003, 2.511460e-002
2.667069e+003, 2.550436e-002
2.668998e+003, 2.543546e-002
2.670926e+003, 2.467759e-002
2.672855e+003, 2.435152e-002
2.674783e+003, 2.506435e-002
2.676712e+003, 2.515501e-002
2.678640e+003, 2.525907e-002
2.680569e+003, 2.514373e-002
2.682497e+003, 2.517667e-002
2.684426e+003, 2.529140e-002
2.686354e+003, 2.528047e-002
2.688282e+003, 2.534987e-002
2.690211e+003, 2.568015e-002
2.692139e+003, 2.558734e-002
2.694068e+003, 2.513663e-002
2.695996e+003, 2.531011e-002
2.697925e+003, 2.559573e-002
2.699853e+003, 2.621185e-002
2.701782e+003, 2.648671e-002
2.703710e+003, 2.555004e-002
2.705639e+003, 2.535706e-002
2.707567e+003, 2.582266e-002
2.709496e+003, 2.560603e-002
2.711424e+003, 2.523710e-002
2.713353e+003, 2.526140e-002
2.715281e+003, 2.570482e-002
2.717209e+003, 2.626137e-002
2.719138e+003, 2.640180e-002
2.721066e+003, 2.614360e-002
2.722995e+003, 2.606069e-002
2.724923e+003, 2.618200e-002
2.726852e+003, 2.648462e-002
2.728780e+003, 2.619998e-002
2.730709e+003, 2.559648e-002
2.732637e+003, 2.567793e-002
2.734566e+003, 2.604212e-002
2.736494e+003, 2.583257e-002
2.738423e+003, 2.623349e-002
2.740351e+003, 2.608061e-002
2.742280e+003, 2.540688e-002
2.744208e+003, 2.590184e-002
2.746136e+003, 2.663950e-002
2.748065e+003, 2.666434e-002
2.749993e+003, 2.655263e-002
2.751922e+003, 2.661309e-002
2.753850e+003, 2.633596e-002
2.755779e+003, 2.603456e-002
2.757707e+003, 2.613657e-002
2.759636e+003, 2.650849e-002
2.761564e+003, 2.613891e-002
2.763493e+003, 2.656712e-002
2.765421e+003, 2.702845e-002
2.767350e+003, 2.726318e-002
2.769278e+003, 2.737587e-002
2.771207e+003, 2.697632e-002
2.773135e+003, 2.638359e-002
2.775063e+003, 2.619309e-002
2.776992e+003, 2.673035e-002
2.778920e+003, 2.702365e-002
2.780849e+003, 2.749300e-002
2.782777e+003, 2.728766e-002
2.784706e+003, 2.682947e-002
2.786634e+003, 2.718463e-002
2.788563e+003, 2.695475e-002
2.790491e+003, 2.658944e-002
2.792420e+003, 2.673254e-002
2.794348e+003, 2.651760e-002
2.796277e+003, 2.696591e-002
2.798205e+003, 2.733690e-002
2.800134e+003, 2.731994e-002
2.802062e+003, 2.759421e-002
2.803990e+003, 2.736242e-002
2.805919e+003, 2.681773e-002
2.807847e+003, 2.719886e-002
2.809776e+003, 2.747853e-002
2.811704e+003, 2.748184e-002
2.813633e+003, 2.765465e-002
2.815561e+003, 2.779861e-002
2.817490e+003, 2.821442e-002
2.819418e+003, 2.823230e-002
2.821347e+003, 2.761176e-002
2.823275e+003, 2.742699e-002
2.825204e+003, 2.751734e-002
2.827132e+003, 2.800692e-002
2.829061e+003, 2.847973e-002
2.830989e+003, 2.816715e-002
2.832917e+003, 2.744712e-002
2.834846e+003, 2.747017e-002
2.836774e+003, 2.768978e-002
2.838703e+003, 2.743156e-002
2.840631e+003, 2.766665e-002
2.842560e+003, 2.787660e-002
2.844488e+003, 2.837928e-002
2.846417e+003, 2.857430e-002
2.848345e+003, 2.847988e-002
2.850274e+003, 2.878839e-002
2.852202e+003, 2.863664e-002
2.854131e+003, 2.809447e-002
2.856059e+003, 2.815315e-002
2.857988e+003, 2.774941e-002
2.859916e+003, 2.806853e-002
2.861844e+003, 2.872652e-002
2.863773e+003, 2.898570e-002
2.865701e+003, 2.858224e-002
2.867630e+003, 2.844628e-002
2.869558e+003, 2.911693e-002
2.871487e+003, 2.939236e-002
2.873415e+003, 2.948575e-002
2.875344e+003, 2.914091e-002
2.877272e+003, 2.896073e-002
2.879201e+003, 2.905278e-002
2.881129e+003, 2.924628e-002
2.883058e+003, 2.943239e-002
2.884986e+003, 2.929673e-002
2.886915e+003, 2.958440e-002
2.888843e+003, 2.998696e-002
2.890771e+003, 2.975314e-002
2.892700e+003, 2.957015e-002
2.894628e+003, 2.942423e-002
2.896557e+003, 2.951986e-002
2.898485e+003, 2.956917e-002
2.900414e+003, 2.890355e-002
2.902342e+003, 2.904450e-002
2.904271e+003, 2.954843e-002
2.906199e+003, 2.950798e-002
2.908128e+003, 2.997405e-002
2.910056e+003, 3.037175e-002
2.911985e+003, 3.030840e-002
2.913913e+003, 2.987754e-002
2.915842e+003, 2.960492e-002
2.917770e+003, 2.961474e-002
2.919698e+003, 2.980827e-002
2.921627e+003, 2.958952e-002
2.923555e+003, 3.030830e-002
2.925484e+003, 3.120707e-002
2.927412e+003, 3.147084e-002
2.929341e+003, 3.099293e-002
2.931269e+003, 3.067085e-002
2.933198e+003, 3.010743e-002
2.935126e+003, 2.929360e-002
2.937055e+003, 2.930984e-002
2.938983e+003, 2.904611e-002
2.940912e+003, 2.861433e-002
2.942840e+003, 2.949009e-002
2.944769e+003, 3.013290e-002
2.946697e+003, 2.982927e-002
2.948625e+003, 2.888405e-002
2.950554e+003, 2.913069e-002
2.952482e+003, 2.863115e-002
2.954411e+003, 2.922346e-002
2.956339e+003, 3.009451e-002
2.958268e+003, 3.061236e-002
2.960196e+003, 3.033997e-002
2.962125e+003, 3.007613e-002
2.964053e+003, 3.041909e-002
2.965982e+003, 3.015095e-002
2.967910e+003, 3.017806e-002
2.969839e+003, 3.040516e-002
2.971767e+003, 3.076568e-002
2.973696e+003, 3.079951e-002
2.975624e+003, 2.976928e-002
2.977552e+003, 2.901705e-002
2.979481e+003, 2.948360e-002
2.981409e+003, 3.072904e-002
2.983338e+003, 3.162875e-002
2.985266e+003, 3.143053e-002
2.987195e+003, 3.047366e-002
2.989123e+003, 3.012136e-002
2.991052e+003, 2.978298e-002
2.992980e+003, 2.983882e-002
2.994909e+003, 3.042152e-002
2.996837e+003, 3.099146e-002
2.998766e+003, 3.091728e-002
3.000694e+003, 3.080871e-002
3.002623e+003, 3.059643e-002
3.004551e+003, 3.051388e-002
3.006479e+003, 3.086076e-002
3.008408e+003, 3.104257e-002
3.010336e+003, 3.133896e-002
3.012265e+003, 3.096798e-002
3.014193e+003, 3.055074e-002
3.016122e+003, 3.077121e-002
3.018050e+003, 3.120813e-002
3.019979e+003, 3.144366e-002
3.021907e+003, 3.023516e-002
3.023836e+003, 3.066645e-002
3.025764e+003, 3.113692e-002
3.027693e+003, 3.174848e-002
3.029621e+003, 3.180375e-002
3.031550e+003, 3.119957e-002
3.033478e+003, 3.049929e-002
3.035406e+003, 3.015907e-002
3.037335e+003, 3.045045e-002
3.039263e+003, 3.091355e-002
3.041192e+003, 3.133455e-002
3.043120e+003, 3.150031e-002
3.045049e+003, 3.085234e-002
3.046977e+003, 3.055059e-002
3.048906e+003, 3.049107e-002
3.050834e+003, 3.088349e-002
3.052763e+003, 3.113239e-002
3.054691e+003, 3.126137e-002
3.056620e+003, 3.176971e-002
3.058548e+003, 3.248356e-002
3.060477e+003, 3.219652e-002
3.062405e+003, 3.152183e-002
3.064333e+003, 3.077714e-002
3.066262e+003, 3.134579e-002
3.068190e+003, 3.217785e-002
3.070119e+003, 3.194113e-002
3.072047e+003, 3.202206e-002
3.073976e+003, 3.195255e-002
3.075904e+003, 3.149337e-002
3.077833e+003, 3.161727e-002
3.079761e+003, 3.261790e-002
3.081690e+003, 3.274082e-002
3.083618e+003, 3.288539e-002
3.085547e+003, 3.315507e-002
3.087475e+003, 3.248880e-002
3.089404e+003, 3.310210e-002
3.091332e+003, 3.316597e-002
3.093260e+003, 3.226610e-002
3.095189e+003, 3.189242e-002
3.097117e+003, 3.224834e-002
3.099046e+003, 3.239384e-002
3.100974e+003, 3.264022e-002
3.102903e+003, 3.383953e-002
3.104831e+003, 3.433803e-002
3.106760e+003, 3.367323e-002
3.108688e+003, 3.282729e-002
3.110617e+003, 3.232089e-002
3.112545e+003, 3.289702e-002
3.114474e+003, 3.366070e-002
3.116402e+003, 3.312102e-002
3.118331e+003, 3.220031e-002
3.120259e+003, 3.279391e-002
3.122188e+003, 3.373606e-002
3.124116e+003, 3.372996e-002
3.126044e+003, 3.279702e-002
3.127973e+003, 3.240320e-002
3.129901e+003, 3.297030e-002
3.131830e+003, 3.286721e-002
3.133758e+003, 3.369718e-002
3.135687e+003, 3.444464e-002
3.137615e+003, 3.445061e-002
3.139544e+003, 3.499643e-002
3.141472e+003, 3.505128e-002
3.143401e+003, 3.399873e-002
3.145329e+003, 3.410105e-002
3.147258e+003, 3.451730e-002
3.149186e+003, 3.398186e-002
3.151115e+003, 3.421430e-002
3.153043e+003, 3.512736e-002
3.154971e+003, 3.586797e-002
3.156900e+003, 3.541780e-002
3.158828e+003, 3.490949e-002
3.160757e+003, 3.445658e-002
3.162685e+003, 3.480365e-002
3.164614e+003, 3.531507e-002
3.166542e+003, 3.483593e-002
3.168471e+003, 3.459105e-002
3.170399e+003, 3.485615e-002
3.172328e+003, 3.497972e-002
3.174256e+003, 3.521872e-002
3.176185e+003, 3.474297e-002
3.178113e+003, 3.392519e-002
3.180042e+003, 3.391861e-002
3.181970e+003, 3.394549e-002
3.183898e+003, 3.476956e-002
3.185827e+003, 3.550955e-002
3.187755e+003, 3.594076e-002
3.189684e+003, 3.556944e-002
3.191612e+003, 3.515596e-002
3.193541e+003, 3.547439e-002
3.195469e+003, 3.518787e-002
3.197398e+003, 3.396739e-002
3.199326e+003, 3.370116e-002
3.201255e+003, 3.465310e-002
3.203183e+003, 3.508025e-002
3.205112e+003, 3.552692e-002
3.207040e+003, 3.695561e-002
3.208969e+003, 3.659713e-002
3.210897e+003, 3.586765e-002
3.212825e+003, 3.624280e-002
3.214754e+003, 3.575842e-002
3.216682e+003, 3.419647e-002
3.218611e+003, 3.390955e-002
3.220539e+003, 3.499438e-002
3.222468e+003, 3.550202e-002
3.224396e+003, 3.514073e-002
3.226325e+003, 3.519550e-002
3.228253e+003, 3.589017e-002
3.230182e+003, 3.614182e-002
3.232110e+003, 3.613562e-002
3.234039e+003, 3.581753e-002
3.235967e+003, 3.622830e-002
3.237896e+003, 3.740563e-002
3.239824e+003, 3.780554e-002
3.241752e+003, 3.653232e-002
3.243681e+003, 3.610119e-002
3.245609e+003, 3.651293e-002
3.247538e+003, 3.588281e-002
3.249466e+003, 3.576540e-002
3.251395e+003, 3.586147e-002
3.253323e+003, 3.643008e-002
3.255252e+003, 3.760599e-002
3.257180e+003, 3.709490e-002
3.259109e+003, 3.634139e-002
3.261037e+003, 3.692154e-002
3.262966e+003, 3.807540e-002
3.264894e+003, 3.742851e-002
3.266823e+003, 3.702086e-002
3.268751e+003, 3.703685e-002
3.270679e+003, 3.629221e-002
3.272608e+003, 3.613573e-002
3.274536e+003, 3.749790e-002
3.276465e+003, 3.772742e-002
3.278393e+003, 3.737559e-002
3.280322e+003, 3.708359e-002
3.282250e+003, 3.786328e-002
3.284179e+003, 3.841406e-002
3.286107e+003, 3.745717e-002
3.288036e+003, 3.673939e-002
3.289964e+003, 3.720247e-002
3.291893e+003, 3.674098e-002
3.293821e+003, 3.724243e-002
3.295750e+003, 3.840286e-002
3.297678e+003, 3.893092e-002
3.299606e+003, 3.916971e-002
3.301535e+003, 3.837989e-002
3.303463e+003, 3.743380e-002
3.305392e+003, 3.606874e-002
3.307320e+003, 3.681978e-002
3.309249e+003, 3.793118e-002
3.311177e+003, 3.770712e-002
3.313106e+003, 3.708951e-002
3.315034e+003, 3.686473e-002
3.316963e+003, 3.659297e-002
3.318891e+003, 3.730207e-002
3.320820e+003, 3.901502e-002
3.322748e+003, 3.875663e-002
3.324677e+003, 3.877828e-002
3.326605e+003, 3.875195e-002
3.328533e+003, 3.761306e-002
3.330462e+003, 3.731606e-002
3.332390e+003, 3.820848e-002
3.334319e+003, 3.742322e-002
3.336247e+003, 3.690663e-002
3.338176e+003, 3.908260e-002
3.340104e+003, 4.021440e-002
3.342033e+003, 3.918069e-002
3.343961e+003, 3.831869e-002
3.345890e+003, 3.788973e-002
3.347818e+003, 3.686443e-002
3.349747e+003, 3.762870e-002
3.351675e+003, 3.962138e-002
3.353604e+003, 3.937281e-002
3.355532e+003, 3.712314e-002
3.357460e+003, 3.656016e-002
3.359389e+003, 3.756491e-002
3.361317e+003, 3.921558e-002
3.363246e+003, 3.970202e-002
3.365174e+003, 3.855564e-002
3.367103e+003, 3.805450e-002
3.369031e+003, 3.807059e-002
3.370960e+003, 3.778536e-002
3.372888e+003, 3.825100e-002
3.374817e+003, 3.988844e-002
3.376745e+003, 4.020771e-002
3.378674e+003, 4.008547e-002
3.380602e+003, 3.980118e-002
3.382531e+003, 3.806431e-002
3.384459e+003, 3.829492e-002
3.386387e+003, 3.895729e-002
3.388316e+003, 3.936177e-002
3.390244e+003, 3.947195e-002
3.392173e+003, 4.004795e-002
3.394101e+003, 3.986197e-002
3.396030e+003, 3.948504e-002
3.397958e+003, 3.983757e-002
3.399887e+003, 3.940286e-002
3.401815e+003, 3.808560e-002
3.403744e+003, 3.740883e-002
3.405672e+003, 3.828784e-002
3.407601e+003, 3.780660e-002
3.409529e+003, 3.777026e-002
3.411458e+003, 3.814372e-002
3.413386e+003, 3.758679e-002
3.415314e+003, 3.743727e-002
3.417243e+003, 3.739059e-002
3.419171e+003, 3.788928e-002
3.421100e+003, 3.875798e-002
3.423028e+003, 3.861278e-002
3.424957e+003, 3.784988e-002
3.426885e+003, 3.651773e-002
3.428814e+003, 3.636604e-002
3.430742e+003, 3.782689e-002
3.432671e+003, 3.933571e-002
3.434599e+003, 3.947940e-002
3.436528e+003, 3.848932e-002
3.438456e+003, 3.748853e-002
3.440385e+003, 3.781318e-002
3.442313e+003, 3.876636e-002
3.444241e+003, 3.871021e-002
3.446170e+003, 3.875177e-002
3.448098e+003, 3.787365e-002
3.450027e+003, 3.713312e-002
3.451955e+003, 3.858986e-002
3.453884e+003, 3.870082e-002
3.455812e+003, 3.802975e-002
3.457741e+003, 3.611515e-002
3.459669e+003, 3.594669e-002
3.461598e+003, 3.861615e-002
3.463526e+003, 3.903097e-002
3.465455e+003, 3.810431e-002
3.467383e+003, 3.833954e-002
3.469312e+003, 3.838270e-002
3.471240e+003, 3.868020e-002
3.473168e+003, 3.956579e-002
3.475097e+003, 3.939004e-002
3.477025e+003, 3.883023e-002
3.478954e+003, 3.782832e-002
3.480882e+003, 3.730739e-002
3.482811e+003, 3.672644e-002
3.484739e+003, 3.654366e-002
3.486668e+003, 3.752455e-002
3.488596e+003, 3.871594e-002
3.490525e+003, 3.904489e-002
3.492453e+003, 3.840271e-002
3.494382e+003, 3.718504e-002
3.496310e+003, 3.782199e-002
3.498239e+003, 3.857177e-002
3.500167e+003, 3.708600e-002
3.502095e+003, 3.715314e-002
3.504024e+003, 3.700088e-002
3.505952e+003, 3.621652e-002
3.507881e+003, 3.792827e-002
3.509809e+003, 3.815365e-002
3.511738e+003, 3.657903e-002
3.513666e+003, 3.646282e-002
3.515595e+003, 3.786879e-002
3.517523e+003, 3.826098e-002
3.519452e+003, 3.796975e-002
3.521380e+003, 3.761739e-002
3.523309e+003, 3.838183e-002
3.525237e+003, 3.807965e-002
3.527166e+003, 3.648974e-002
3.529094e+003, 3.645852e-002
3.531022e+003, 3.780080e-002
3.532951e+003, 3.675040e-002
3.534879e+003, 3.663057e-002
3.536808e+003, 3.754141e-002
3.538736e+003, 3.707715e-002
3.540665e+003, 3.627530e-002
3.542593e+003, 3.491047e-002
3.544522e+003, 3.369103e-002
3.546450e+003, 3.483788e-002
3.548379e+003, 3.690707e-002
3.550307e+003, 3.658197e-002
3.552236e+003, 3.582029e-002
3.554164e+003, 3.677029e-002
3.556093e+003, 3.676025e-002
3.558021e+003, 3.542354e-002
3.559949e+003, 3.492516e-002
3.561878e+003, 3.703475e-002
3.563806e+003, 3.836910e-002
3.565735e+003, 3.675326e-002
3.567663e+003, 3.445221e-002
3.569592e+003, 3.376522e-002
3.571520e+003, 3.392556e-002
3.573449e+003, 3.377417e-002
3.575377e+003, 3.472122e-002
3.577306e+003, 3.642508e-002
3.579234e+003, 3.676360e-002
3.581163e+003, 3.478975e-002
3.583091e+003, 3.372570e-002
3.585020e+003, 3.451165e-002
3.586948e+003, 3.372979e-002
3.588876e+003, 3.287584e-002
3.590805e+003, 3.447669e-002
3.592733e+003, 3.472968e-002
3.594662e+003, 3.402855e-002
3.596590e+003, 3.421709e-002
3.598519e+003, 3.543459e-002
3.600447e+003, 3.572573e-002
3.602376e+003, 3.490629e-002
3.604304e+003, 3.567154e-002
3.606233e+003, 3.497849e-002
3.608161e+003, 3.372807e-002
3.610090e+003, 3.318908e-002
3.612018e+003, 3.397492e-002
3.613947e+003, 3.375097e-002
3.615875e+003, 3.339209e-002
3.617803e+003, 3.327863e-002
3.619732e+003, 3.352503e-002
3.621660e+003, 3.357852e-002
3.623589e+003, 3.343195e-002
3.625517e+003, 3.240140e-002
3.627446e+003, 3.198935e-002
3.629374e+003, 3.049786e-002
3.631303e+003, 3.223632e-002
3.633231e+003, 3.317555e-002
3.635160e+003, 3.283402e-002
3.637088e+003, 3.543815e-002
3.639017e+003, 3.449497e-002
3.640945e+003, 3.102075e-002
3.642874e+003, 3.385842e-002
3.644802e+003, 3.517301e-002
3.646730e+003, 3.487985e-002
3.648659e+003, 3.347455e-002
3.650587e+003, 2.982514e-002
3.652516e+003, 3.101493e-002
3.654444e+003, 3.373125e-002
3.656373e+003, 3.412057e-002
3.658301e+003, 3.374359e-002
3.660230e+003, 3.326349e-002
3.662158e+003, 3.455304e-002
3.664087e+003, 3.298526e-002
3.666015e+003, 3.068447e-002
3.667944e+003, 3.134598e-002
3.669872e+003, 3.371489e-002
3.671801e+003, 3.288640e-002
3.673729e+003, 3.292044e-002
3.675657e+003, 3.120212e-002
3.677586e+003, 3.097382e-002
3.679514e+003, 3.201368e-002
3.681443e+003, 3.258056e-002
3.683371e+003, 3.199634e-002
3.685300e+003, 3.194696e-002
3.687228e+003, 3.299821e-002
3.689157e+003, 3.242192e-002
3.691085e+003, 3.152144e-002
3.693014e+003, 3.146448e-002
3.694942e+003, 3.078065e-002
3.696871e+003, 3.147330e-002
3.698799e+003, 3.278767e-002
3.700728e+003, 3.372442e-002
3.702656e+003, 3.201138e-002
3.704584e+003, 3.042940e-002
3.706513e+003, 3.067088e-002
3.708441e+003, 3.075420e-002
3.710370e+003, 3.269457e-002
3.712298e+003, 3.294006e-002
3.714227e+003, 3.194006e-002
3.716155e+003, 3.358548e-002
3.718084e+003, 3.334045e-002
3.720012e+003, 3.128157e-002
3.721941e+003, 3.046871e-002
3.723869e+003, 2.900577e-002
3.725798e+003, 2.809584e-002
3.727726e+003, 2.977319e-002
3.729655e+003, 3.288634e-002
3.731583e+003, 3.199258e-002
3.733511e+003, 3.014419e-002
3.735440e+003, 3.047020e-002
3.737368e+003, 2.921857e-002
3.739297e+003, 3.044895e-002
3.741225e+003, 3.296841e-002
3.743154e+003, 3.246704e-002
3.745082e+003, 2.897927e-002
3.747011e+003, 3.044870e-002
3.748939e+003, 3.131361e-002
3.750868e+003, 3.264301e-002
3.752796e+003, 3.204775e-002
3.754725e+003, 3.161594e-002
3.756653e+003, 3.050833e-002
3.758582e+003, 3.191232e-002
3.760510e+003, 3.223472e-002
3.762438e+003, 3.125141e-002
3.764367e+003, 3.199053e-002
3.766295e+003, 3.276461e-002
3.768224e+003, 3.224634e-002
3.770152e+003, 3.031244e-002
3.772081e+003, 3.108062e-002
3.774009e+003, 3.192909e-002
3.775938e+003, 3.272666e-002
3.777866e+003, 3.304140e-002
3.779795e+003, 3.362703e-002
3.781723e+003, 3.434512e-002
3.783652e+003, 3.448121e-002
3.785580e+003, 3.291393e-002
3.787509e+003, 3.311775e-002
3.789437e+003, 3.495121e-002
3.791365e+003, 3.571342e-002
3.793294e+003, 3.394064e-002
3.795222e+003, 3.208179e-002
3.797151e+003, 3.358521e-002
3.799079e+003, 3.640414e-002
3.801008e+003, 3.590048e-002
3.802936e+003, 3.371509e-002
3.804865e+003, 3.262173e-002
3.806793e+003, 3.099140e-002
3.808722e+003, 3.162078e-002
3.810650e+003, 3.470539e-002
3.812579e+003, 3.368567e-002
3.814507e+003, 3.099563e-002
3.816436e+003, 3.210688e-002
3.818364e+003, 3.602847e-002
3.820292e+003, 3.540994e-002
3.822221e+003, 3.297638e-002
3.824149e+003, 3.270550e-002
3.826078e+003, 3.471787e-002
3.828006e+003, 3.526334e-002
3.829935e+003, 3.459613e-002
3.831863e+003, 3.489543e-002
3.833792e+003, 3.669647e-002
3.835720e+003, 3.538200e-002
3.837649e+003, 3.363958e-002
3.839577e+003, 3.351478e-002
3.841506e+003, 3.419306e-002
3.843434e+003, 3.551870e-002
3.845363e+003, 3.614935e-002
3.847291e+003, 3.686918e-002
3.849219e+003, 3.578358e-002
3.851148e+003, 3.221839e-002
3.853076e+003, 3.010284e-002
3.855005e+003, 3.064580e-002
3.856933e+003, 3.256017e-002
3.858862e+003, 3.232503e-002
3.860790e+003, 3.348017e-002
3.862719e+003, 3.323431e-002
3.864647e+003, 3.304053e-002
3.866576e+003, 3.421624e-002
3.868504e+003, 3.399307e-002
3.870433e+003, 3.348214e-002
3.872361e+003, 3.556293e-002
3.874290e+003, 3.531686e-002
3.876218e+003, 3.437075e-002
3.878146e+003, 3.227380e-002
3.880075e+003, 3.207701e-002
3.882003e+003, 3.408474e-002
3.883932e+003, 3.417584e-002
3.885860e+003, 3.191896e-002
3.887789e+003, 3.300352e-002
3.889717e+003, 3.437180e-002
3.891646e+003, 3.291106e-002
3.893574e+003, 3.353947e-002
3.895503e+003, 3.513070e-002
3.897431e+003, 3.401432e-002
3.899360e+003, 3.295100e-002
3.901288e+003, 3.489631e-002
3.903217e+003, 3.575851e-002
3.905145e+003, 3.656855e-002
3.907073e+003, 3.674167e-002
3.909002e+003, 3.522746e-002
3.910930e+003, 3.403386e-002
3.912859e+003, 3.462756e-002
3.914787e+003, 3.623331e-002
3.916716e+003, 3.510231e-002
3.918644e+003, 3.357506e-002
3.920573e+003, 3.537390e-002
3.922501e+003, 3.478544e-002
3.924430e+003, 3.169203e-002
3.926358e+003, 3.066797e-002
3.928287e+003, 3.198063e-002
3.930215e+003, 3.478554e-002
3.932144e+003, 3.575036e-002
3.934072e+003, 3.363119e-002
3.936000e+003, 3.208311e-002
3.937929e+003, 3.350026e-002
3.939857e+003, 3.567392e-002
3.941786e+003, 3.438364e-002
3.943714e+003, 3.368033e-002
3.945643e+003, 3.435146e-002
3.947571e+003, 3.330380e-002
3.949500e+003, 3.265024e-002
3.951428e+003, 3.376074e-002
3.953357e+003, 3.638927e-002
3.955285e+003, 3.682496e-002
3.957214e+003, 3.601767e-002
3.959142e+003, 3.724455e-002
3.961071e+003, 3.592252e-002
3.962999e+003, 3.328203e-002
3.964927e+003, 3.328707e-002
3.966856e+003, 3.461844e-002
3.968784e+003, 3.541685e-002
3.970713e+003, 3.673950e-002
3.972641e+003, 3.592383e-002
3.974570e+003, 3.468729e-002
3.976498e+003, 3.567151e-002
3.978427e+003, 3.497606e-002
3.980355e+003, 3.444565e-002
3.982284e+003, 3.503617e-002
3.984212e+003, 3.750503e-002
3.986141e+003, 3.866191e-002
3.988069e+003, 3.740568e-002
3.989998e+003, 3.566533e-002
3.991926e+003, 3.556944e-002
3.993854e+003, 3.749331e-002
3.995783e+003, 3.806487e-002
3.997711e+003, 3.704859e-002
3.999640e+003, 3.706863e-002
##END=



