##NAMES=Heulandite-Ca
##RRUFFID=R050017
##IDEAL CHEMISTRY=(Ca,Na,K)_5_(Si_27_Al_9_)O_72_&#183;26H_2_O
##LOCALITY=Poona, Maharashtra State, India
##OWNER=RRUFF
##SOURCE=Eugene Schlepp
##DESCRIPTION=Single crystals
##STATUS=The identification of this mineral has been confirmed by X-ray diffraction and chemical analysis
##URL=rruff.info/R050017
##MEASURED CHEMISTRY=(Ca_.70_Na_.22_K_.02_[box]_0.06_)_5_(Si_0.77_Al_0.23_)_36_O_72_Â·24H_2_O
3.991926e+002, 0.000000e+000
4.011211e+002, 1.883977e-001
4.030496e+002, 1.893681e-001
4.049780e+002, 1.953099e-001
4.069065e+002, 1.981981e-001
4.088350e+002, 1.960524e-001
4.107634e+002, 1.920175e-001
4.126919e+002, 1.918526e-001
4.146204e+002, 1.949698e-001
4.165488e+002, 1.969269e-001
4.184773e+002, 2.007067e-001
4.204058e+002, 2.022516e-001
4.223342e+002, 2.000834e-001
4.242627e+002, 1.966656e-001
4.261912e+002, 1.972811e-001
4.281196e+002, 2.026028e-001
4.300481e+002, 2.053895e-001
4.319766e+002, 2.076983e-001
4.339050e+002, 2.118686e-001
4.358335e+002, 2.144433e-001
4.377620e+002, 2.161907e-001
4.396904e+002, 2.192872e-001
4.416189e+002, 2.221614e-001
4.435474e+002, 2.245900e-001
4.454758e+002, 2.261307e-001
4.474043e+002, 2.277344e-001
4.493328e+002, 2.268811e-001
4.512612e+002, 2.246565e-001
4.531897e+002, 2.210776e-001
4.551182e+002, 2.172903e-001
4.570466e+002, 2.157690e-001
4.589751e+002, 2.138239e-001
4.609036e+002, 2.105659e-001
4.628320e+002, 2.067989e-001
4.647605e+002, 2.019699e-001
4.666890e+002, 1.985390e-001
4.686174e+002, 1.948948e-001
4.705459e+002, 1.891993e-001
4.724744e+002, 1.814697e-001
4.744028e+002, 1.737432e-001
4.763313e+002, 1.666187e-001
4.782598e+002, 1.590649e-001
4.801882e+002, 1.504466e-001
4.821167e+002, 1.425297e-001
4.840452e+002, 1.359778e-001
4.859736e+002, 1.306514e-001
4.879021e+002, 1.259496e-001
4.898306e+002, 1.207428e-001
4.917590e+002, 1.164505e-001
4.936875e+002, 1.126519e-001
4.956160e+002, 1.090719e-001
4.975444e+002, 1.069991e-001
4.994729e+002, 1.053652e-001
5.014014e+002, 1.034873e-001
5.033298e+002, 1.021269e-001
5.052583e+002, 1.024995e-001
5.071868e+002, 1.029747e-001
5.091152e+002, 1.032478e-001
5.110437e+002, 1.043733e-001
5.129722e+002, 1.053922e-001
5.149006e+002, 1.067389e-001
5.168291e+002, 1.068811e-001
5.187576e+002, 1.067490e-001
5.206860e+002, 1.073967e-001
5.226145e+002, 1.070272e-001
5.245430e+002, 1.067072e-001
5.264714e+002, 1.050747e-001
5.283999e+002, 1.036824e-001
5.303284e+002, 1.022768e-001
5.322568e+002, 1.000672e-001
5.341853e+002, 9.907075e-002
5.361138e+002, 9.790096e-002
5.380422e+002, 9.674700e-002
5.399707e+002, 9.634238e-002
5.418992e+002, 9.686051e-002
5.438276e+002, 9.756581e-002
5.457561e+002, 9.764810e-002
5.476846e+002, 9.773639e-002
5.496130e+002, 9.790447e-002
5.515415e+002, 9.834488e-002
5.534700e+002, 9.901879e-002
5.553984e+002, 9.957010e-002
5.573269e+002, 1.004194e-001
5.592554e+002, 1.021335e-001
5.611838e+002, 1.034811e-001
5.631123e+002, 1.038228e-001
5.650408e+002, 1.043507e-001
5.669692e+002, 1.053851e-001
5.688977e+002, 1.061457e-001
5.708262e+002, 1.064829e-001
5.727546e+002, 1.069525e-001
5.746831e+002, 1.074024e-001
5.766116e+002, 1.073641e-001
5.785400e+002, 1.071717e-001
5.804685e+002, 1.068775e-001
5.823970e+002, 1.067920e-001
5.843254e+002, 1.064607e-001
5.862539e+002, 1.055453e-001
5.881824e+002, 1.053466e-001
5.901108e+002, 1.051160e-001
5.920393e+002, 1.043558e-001
5.939678e+002, 1.034120e-001
5.958962e+002, 1.020686e-001
5.978247e+002, 1.001360e-001
5.997532e+002, 9.736877e-002
6.016816e+002, 9.418630e-002
6.036101e+002, 9.088428e-002
6.055386e+002, 8.768172e-002
6.074670e+002, 8.450432e-002
6.093955e+002, 8.172301e-002
6.113240e+002, 7.926097e-002
6.132524e+002, 7.652510e-002
6.151809e+002, 7.429519e-002
6.171094e+002, 7.275977e-002
6.190378e+002, 7.133605e-002
6.209663e+002, 7.016645e-002
6.228948e+002, 6.896625e-002
6.248232e+002, 6.773018e-002
6.267517e+002, 6.695013e-002
6.286802e+002, 6.621943e-002
6.306086e+002, 6.539847e-002
6.325371e+002, 6.490163e-002
6.344656e+002, 6.476364e-002
6.363940e+002, 6.454375e-002
6.383225e+002, 6.432944e-002
6.402510e+002, 6.407664e-002
6.421794e+002, 6.424853e-002
6.441079e+002, 6.447173e-002
6.460364e+002, 6.493585e-002
6.479648e+002, 6.572080e-002
6.498933e+002, 6.603165e-002
6.518218e+002, 6.629127e-002
6.537502e+002, 6.721418e-002
6.556787e+002, 6.801473e-002
6.576072e+002, 6.835890e-002
6.595356e+002, 6.888103e-002
6.614641e+002, 6.943463e-002
6.633926e+002, 6.958171e-002
6.653210e+002, 6.941272e-002
6.672495e+002, 6.962554e-002
6.691780e+002, 6.910875e-002
6.711064e+002, 6.780627e-002
6.730349e+002, 6.669834e-002
6.749634e+002, 6.568675e-002
6.768918e+002, 6.478471e-002
6.788203e+002, 6.398080e-002
6.807488e+002, 6.340693e-002
6.826772e+002, 6.281443e-002
6.846057e+002, 6.219458e-002
6.865342e+002, 6.207556e-002
6.884626e+002, 6.211230e-002
6.903911e+002, 6.208404e-002
6.923196e+002, 6.240332e-002
6.942480e+002, 6.275135e-002
6.961765e+002, 6.284186e-002
6.981050e+002, 6.314491e-002
7.000334e+002, 6.378089e-002
7.019619e+002, 6.413984e-002
7.038904e+002, 6.469814e-002
7.058188e+002, 6.562503e-002
7.077473e+002, 6.643520e-002
7.096758e+002, 6.706455e-002
7.116042e+002, 6.749392e-002
7.135327e+002, 6.796050e-002
7.154612e+002, 6.858348e-002
7.173896e+002, 6.904015e-002
7.193181e+002, 6.897355e-002
7.212466e+002, 6.889999e-002
7.231750e+002, 6.871853e-002
7.251035e+002, 6.829769e-002
7.270320e+002, 6.781699e-002
7.289604e+002, 6.728765e-002
7.308889e+002, 6.671818e-002
7.328174e+002, 6.624190e-002
7.347458e+002, 6.522939e-002
7.366743e+002, 6.410256e-002
7.386028e+002, 6.324926e-002
7.405313e+002, 6.214963e-002
7.424597e+002, 6.097822e-002
7.443882e+002, 6.008939e-002
7.463167e+002, 5.919520e-002
7.482451e+002, 5.824294e-002
7.501736e+002, 5.699028e-002
7.521021e+002, 5.619424e-002
7.540305e+002, 5.564931e-002
7.559590e+002, 5.489478e-002
7.578875e+002, 5.435457e-002
7.598159e+002, 5.383141e-002
7.617444e+002, 5.339677e-002
7.636729e+002, 5.322276e-002
7.656013e+002, 5.335042e-002
7.675298e+002, 5.360296e-002
7.694583e+002, 5.365772e-002
7.713867e+002, 5.358634e-002
7.733152e+002, 5.379171e-002
7.752437e+002, 5.408897e-002
7.771721e+002, 5.438481e-002
7.791006e+002, 5.473286e-002
7.810291e+002, 5.497458e-002
7.829575e+002, 5.508930e-002
7.848860e+002, 5.495743e-002
7.868145e+002, 5.479008e-002
7.887429e+002, 5.450607e-002
7.906714e+002, 5.385183e-002
7.925999e+002, 5.292689e-002
7.945283e+002, 5.171703e-002
7.964568e+002, 5.016550e-002
7.983853e+002, 4.834358e-002
8.003137e+002, 4.662342e-002
8.022422e+002, 4.489185e-002
8.041707e+002, 4.294869e-002
8.060991e+002, 4.098573e-002
8.080276e+002, 3.936753e-002
8.099561e+002, 3.802784e-002
8.118845e+002, 3.671650e-002
8.138130e+002, 3.542493e-002
8.157415e+002, 3.416473e-002
8.176699e+002, 3.317717e-002
8.195984e+002, 3.239806e-002
8.215269e+002, 3.176487e-002
8.234553e+002, 3.095760e-002
8.253838e+002, 3.031712e-002
8.273123e+002, 2.965772e-002
8.292407e+002, 2.933569e-002
8.311692e+002, 2.914665e-002
8.330977e+002, 2.876482e-002
8.350261e+002, 2.897313e-002
8.369546e+002, 2.945540e-002
8.388831e+002, 2.981484e-002
8.408115e+002, 3.003880e-002
8.427400e+002, 3.029391e-002
8.446685e+002, 3.055252e-002
8.465969e+002, 3.104627e-002
8.485254e+002, 3.151285e-002
8.504539e+002, 3.220728e-002
8.523823e+002, 3.312701e-002
8.543108e+002, 3.394718e-002
8.562393e+002, 3.480391e-002
8.581677e+002, 3.576007e-002
8.600962e+002, 3.673028e-002
8.620247e+002, 3.766388e-002
8.639531e+002, 3.856647e-002
8.658816e+002, 3.928502e-002
8.678101e+002, 4.000654e-002
8.697385e+002, 4.084129e-002
8.716670e+002, 4.178711e-002
8.735955e+002, 4.282367e-002
8.755239e+002, 4.395927e-002
8.774524e+002, 4.498735e-002
8.793809e+002, 4.588037e-002
8.813093e+002, 4.675155e-002
8.832378e+002, 4.800167e-002
8.851663e+002, 4.935143e-002
8.870947e+002, 5.039563e-002
8.890232e+002, 5.132066e-002
8.909517e+002, 5.248649e-002
8.928801e+002, 5.382406e-002
8.948085e+002, 5.508691e-002
8.967370e+002, 5.624167e-002
8.986655e+002, 5.773095e-002
9.005939e+002, 5.933249e-002
9.025224e+002, 6.079196e-002
9.044509e+002, 6.234966e-002
9.063793e+002, 6.402168e-002
9.083078e+002, 6.596491e-002
9.102363e+002, 6.817002e-002
9.121647e+002, 7.034259e-002
9.140932e+002, 7.279803e-002
9.160217e+002, 7.559520e-002
9.179501e+002, 7.833012e-002
9.198786e+002, 8.132137e-002
9.218071e+002, 8.467188e-002
9.237355e+002, 8.845319e-002
9.256640e+002, 9.238816e-002
9.275925e+002, 9.657803e-002
9.295209e+002, 1.014777e-001
9.314494e+002, 1.065562e-001
9.333779e+002, 1.123591e-001
9.353063e+002, 1.189175e-001
9.372348e+002, 1.259463e-001
9.391633e+002, 1.340655e-001
9.410917e+002, 1.428697e-001
9.430202e+002, 1.520419e-001
9.449487e+002, 1.617433e-001
9.468771e+002, 1.717826e-001
9.488056e+002, 1.819246e-001
9.507341e+002, 1.927941e-001
9.526625e+002, 2.048198e-001
9.545910e+002, 2.182988e-001
9.565195e+002, 2.324988e-001
9.584479e+002, 2.472174e-001
9.603764e+002, 2.620170e-001
9.623049e+002, 2.766330e-001
9.642333e+002, 2.917354e-001
9.661618e+002, 3.060834e-001
9.680903e+002, 3.188786e-001
9.700187e+002, 3.306020e-001
9.719472e+002, 3.413399e-001
9.738757e+002, 3.512659e-001
9.758041e+002, 3.607882e-001
9.777326e+002, 3.693707e-001
9.796611e+002, 3.769303e-001
9.815895e+002, 3.831117e-001
9.835180e+002, 3.875415e-001
9.854465e+002, 3.911262e-001
9.873749e+002, 3.946370e-001
9.893034e+002, 3.971073e-001
9.912319e+002, 3.981788e-001
9.931603e+002, 3.994904e-001
9.950888e+002, 4.002734e-001
9.970173e+002, 4.005215e-001
9.989457e+002, 4.005529e-001
1.000874e+003, 4.003744e-001
1.002803e+003, 3.998982e-001
1.004731e+003, 3.992593e-001
1.006660e+003, 3.984608e-001
1.008588e+003, 3.975914e-001
1.010517e+003, 3.962422e-001
1.012445e+003, 3.943765e-001
1.014373e+003, 3.919244e-001
1.016302e+003, 3.893869e-001
1.018230e+003, 3.863098e-001
1.020159e+003, 3.826452e-001
1.022087e+003, 3.786236e-001
1.024016e+003, 3.745548e-001
1.025944e+003, 3.702840e-001
1.027873e+003, 3.661590e-001
1.029801e+003, 3.617903e-001
1.031730e+003, 3.572267e-001
1.033658e+003, 3.530985e-001
1.035587e+003, 3.484986e-001
1.037515e+003, 3.438864e-001
1.039444e+003, 3.399231e-001
1.041372e+003, 3.357617e-001
1.043301e+003, 3.312578e-001
1.045229e+003, 3.268442e-001
1.047157e+003, 3.225113e-001
1.049086e+003, 3.176735e-001
1.051014e+003, 3.123474e-001
1.052943e+003, 3.071581e-001
1.054871e+003, 3.015371e-001
1.056800e+003, 2.953866e-001
1.058728e+003, 2.893085e-001
1.060657e+003, 2.829289e-001
1.062585e+003, 2.762228e-001
1.064514e+003, 2.688755e-001
1.066442e+003, 2.607520e-001
1.068371e+003, 2.526004e-001
1.070299e+003, 2.440416e-001
1.072228e+003, 2.349988e-001
1.074156e+003, 2.259281e-001
1.076084e+003, 2.170464e-001
1.078013e+003, 2.086896e-001
1.079941e+003, 2.006645e-001
1.081870e+003, 1.930071e-001
1.083798e+003, 1.861516e-001
1.085727e+003, 1.801301e-001
1.087655e+003, 1.746173e-001
1.089584e+003, 1.695228e-001
1.091512e+003, 1.650617e-001
1.093441e+003, 1.612629e-001
1.095369e+003, 1.580189e-001
1.097298e+003, 1.548373e-001
1.099226e+003, 1.517903e-001
1.101155e+003, 1.491684e-001
1.103083e+003, 1.468786e-001
1.105011e+003, 1.446286e-001
1.106940e+003, 1.426305e-001
1.108868e+003, 1.408752e-001
1.110797e+003, 1.390914e-001
1.112725e+003, 1.373123e-001
1.114654e+003, 1.356133e-001
1.116582e+003, 1.340299e-001
1.118511e+003, 1.328753e-001
1.120439e+003, 1.316313e-001
1.122368e+003, 1.301148e-001
1.124296e+003, 1.287062e-001
1.126225e+003, 1.271448e-001
1.128153e+003, 1.258803e-001
1.130082e+003, 1.249055e-001
1.132010e+003, 1.237862e-001
1.133938e+003, 1.223575e-001
1.135867e+003, 1.209970e-001
1.137795e+003, 1.195703e-001
1.139724e+003, 1.180545e-001
1.141652e+003, 1.167559e-001
1.143581e+003, 1.151576e-001
1.145509e+003, 1.133189e-001
1.147438e+003, 1.116828e-001
1.149366e+003, 1.100932e-001
1.151295e+003, 1.084041e-001
1.153223e+003, 1.067845e-001
1.155152e+003, 1.051072e-001
1.157080e+003, 1.033830e-001
1.159009e+003, 1.017161e-001
1.160937e+003, 1.000540e-001
1.162865e+003, 9.855801e-002
1.164794e+003, 9.716640e-002
1.166722e+003, 9.563837e-002
1.168651e+003, 9.390562e-002
1.170579e+003, 9.216889e-002
1.172508e+003, 9.097555e-002
1.174436e+003, 8.978302e-002
1.176365e+003, 8.849459e-002
1.178293e+003, 8.738146e-002
1.180222e+003, 8.623884e-002
1.182150e+003, 8.507214e-002
1.184079e+003, 8.359848e-002
1.186007e+003, 8.219296e-002
1.187936e+003, 8.101872e-002
1.189864e+003, 7.976270e-002
1.191792e+003, 7.829843e-002
1.193721e+003, 7.677972e-002
1.195649e+003, 7.495160e-002
1.197578e+003, 7.281133e-002
1.199506e+003, 7.049884e-002
1.201435e+003, 6.798276e-002
1.203363e+003, 6.503887e-002
1.205292e+003, 6.178962e-002
1.207220e+003, 5.829771e-002
1.209149e+003, 5.437750e-002
1.211077e+003, 5.049421e-002
1.213006e+003, 4.682048e-002
1.214934e+003, 4.321262e-002
1.216863e+003, 3.966443e-002
1.218791e+003, 3.626583e-002
1.220719e+003, 3.326391e-002
1.222648e+003, 3.048626e-002
1.224576e+003, 2.794511e-002
1.226505e+003, 2.571650e-002
1.228433e+003, 2.380046e-002
1.230362e+003, 2.216132e-002
1.232290e+003, 2.073431e-002
1.234219e+003, 1.957908e-002
1.236147e+003, 1.852489e-002
1.238076e+003, 1.756079e-002
1.240004e+003, 1.653473e-002
1.241933e+003, 1.569759e-002
1.243861e+003, 1.498665e-002
1.245790e+003, 1.432789e-002
1.247718e+003, 1.394871e-002
1.249646e+003, 1.367826e-002
1.251575e+003, 1.316480e-002
1.253503e+003, 1.261056e-002
1.255432e+003, 1.238906e-002
1.257360e+003, 1.206264e-002
1.259289e+003, 1.128811e-002
1.261217e+003, 1.075749e-002
1.263146e+003, 1.058117e-002
1.265074e+003, 1.027072e-002
1.267003e+003, 9.835390e-003
1.268931e+003, 9.715546e-003
1.270860e+003, 9.725499e-003
1.272788e+003, 9.514071e-003
1.274717e+003, 9.301603e-003
1.276645e+003, 9.184384e-003
1.278573e+003, 8.881169e-003
1.280502e+003, 8.734477e-003
1.282430e+003, 8.726072e-003
1.284359e+003, 8.542223e-003
1.286287e+003, 8.247396e-003
1.288216e+003, 8.073874e-003
1.290144e+003, 7.917764e-003
1.292073e+003, 7.799773e-003
1.294001e+003, 7.727059e-003
1.295930e+003, 7.721373e-003
1.297858e+003, 7.619127e-003
1.299787e+003, 7.508110e-003
1.301715e+003, 7.475416e-003
1.303644e+003, 7.511968e-003
1.305572e+003, 7.568873e-003
1.307500e+003, 7.496603e-003
1.309429e+003, 7.248979e-003
1.311357e+003, 7.069805e-003
1.313286e+003, 7.159561e-003
1.315214e+003, 7.250421e-003
1.317143e+003, 7.054256e-003
1.319071e+003, 6.887846e-003
1.321000e+003, 6.908455e-003
1.322928e+003, 6.874630e-003
1.324857e+003, 6.826289e-003
1.326785e+003, 6.973005e-003
1.328714e+003, 6.775322e-003
1.330642e+003, 6.716702e-003
1.332571e+003, 6.908223e-003
1.334499e+003, 6.934754e-003
1.336427e+003, 6.916808e-003
1.338356e+003, 6.787601e-003
1.340284e+003, 6.504092e-003
1.342213e+003, 6.496393e-003
1.344141e+003, 6.499027e-003
1.346070e+003, 6.593155e-003
1.347998e+003, 6.710197e-003
1.349927e+003, 6.503603e-003
1.351855e+003, 6.295796e-003
1.353784e+003, 6.573068e-003
1.355712e+003, 6.829727e-003
1.357641e+003, 6.832765e-003
1.359569e+003, 6.888513e-003
1.361498e+003, 6.736666e-003
1.363426e+003, 6.608283e-003
1.365354e+003, 6.820961e-003
1.367283e+003, 6.682804e-003
1.369211e+003, 6.645151e-003
1.371140e+003, 6.820867e-003
1.373068e+003, 6.668080e-003
1.374997e+003, 6.424950e-003
1.376925e+003, 6.577824e-003
1.378854e+003, 6.550041e-003
1.380782e+003, 6.606714e-003
1.382711e+003, 6.756372e-003
1.384639e+003, 6.841884e-003
1.386568e+003, 6.667636e-003
1.388496e+003, 6.390011e-003
1.390424e+003, 6.786868e-003
1.392353e+003, 6.973900e-003
1.394281e+003, 6.911349e-003
1.396210e+003, 6.780605e-003
1.398138e+003, 6.896872e-003
1.400067e+003, 6.790382e-003
1.401995e+003, 6.989903e-003
1.403924e+003, 7.125525e-003
1.405852e+003, 7.331817e-003
1.407781e+003, 7.535674e-003
1.409709e+003, 7.388949e-003
1.411638e+003, 7.451260e-003
1.413566e+003, 7.400191e-003
1.415495e+003, 7.358622e-003
1.417423e+003, 7.462968e-003
1.419351e+003, 7.315544e-003
1.421280e+003, 7.444847e-003
1.423208e+003, 7.642348e-003
1.425137e+003, 7.556863e-003
1.427065e+003, 7.496402e-003
1.428994e+003, 7.552132e-003
1.430922e+003, 7.515353e-003
1.432851e+003, 7.661040e-003
1.434779e+003, 7.811630e-003
1.436708e+003, 7.663367e-003
1.438636e+003, 7.748175e-003
1.440565e+003, 8.011336e-003
1.442493e+003, 7.822611e-003
1.444422e+003, 7.607889e-003
1.446350e+003, 7.721146e-003
1.448278e+003, 7.813709e-003
1.450207e+003, 7.971587e-003
1.452135e+003, 7.919243e-003
1.454064e+003, 7.904660e-003
1.455992e+003, 7.620492e-003
1.457921e+003, 7.196008e-003
1.459849e+003, 7.899766e-003
1.461778e+003, 7.840731e-003
1.463706e+003, 7.724054e-003
1.465635e+003, 7.496380e-003
1.467563e+003, 7.875566e-003
1.469492e+003, 7.670237e-003
1.471420e+003, 7.366435e-003
1.473349e+003, 6.776873e-003
1.475277e+003, 6.989248e-003
1.477205e+003, 6.817420e-003
1.479134e+003, 7.216240e-003
1.481062e+003, 7.234688e-003
1.482991e+003, 7.175253e-003
1.484919e+003, 7.155764e-003
1.486848e+003, 6.893571e-003
1.488776e+003, 6.656633e-003
1.490705e+003, 6.564728e-003
1.492633e+003, 6.871868e-003
1.494562e+003, 6.783782e-003
1.496490e+003, 6.308604e-003
1.498419e+003, 6.557621e-003
1.500347e+003, 6.602448e-003
1.502276e+003, 6.729872e-003
1.504204e+003, 6.506642e-003
1.506132e+003, 5.889089e-003
1.508061e+003, 5.863138e-003
1.509989e+003, 6.533021e-003
1.511918e+003, 6.634044e-003
1.513846e+003, 6.624075e-003
1.515775e+003, 6.689122e-003
1.517703e+003, 6.350568e-003
1.519632e+003, 6.726802e-003
1.521560e+003, 6.259116e-003
1.523489e+003, 6.857025e-003
1.525417e+003, 7.076520e-003
1.527346e+003, 7.066546e-003
1.529274e+003, 7.148594e-003
1.531203e+003, 7.424376e-003
1.533131e+003, 7.410594e-003
1.535059e+003, 7.266587e-003
1.536988e+003, 7.745340e-003
1.538916e+003, 7.392925e-003
1.540845e+003, 6.961542e-003
1.542773e+003, 7.415513e-003
1.544702e+003, 8.094529e-003
1.546630e+003, 8.356859e-003
1.548559e+003, 8.862557e-003
1.550487e+003, 8.715821e-003
1.552416e+003, 8.979592e-003
1.554344e+003, 8.928627e-003
1.556273e+003, 9.334295e-003
1.558201e+003, 8.883796e-003
1.560130e+003, 8.699860e-003
1.562058e+003, 1.006074e-002
1.563986e+003, 1.065009e-002
1.565915e+003, 1.080737e-002
1.567843e+003, 1.114157e-002
1.569772e+003, 1.081951e-002
1.571700e+003, 1.123017e-002
1.573629e+003, 1.147818e-002
1.575557e+003, 1.175971e-002
1.577486e+003, 1.207332e-002
1.579414e+003, 1.332590e-002
1.581343e+003, 1.373244e-002
1.583271e+003, 1.436491e-002
1.585200e+003, 1.527346e-002
1.587128e+003, 1.603806e-002
1.589057e+003, 1.670548e-002
1.590985e+003, 1.748888e-002
1.592913e+003, 1.861486e-002
1.594842e+003, 1.991265e-002
1.596770e+003, 2.123678e-002
1.598699e+003, 2.270162e-002
1.600627e+003, 2.396274e-002
1.602556e+003, 2.553245e-002
1.604484e+003, 2.753111e-002
1.606413e+003, 2.950617e-002
1.608341e+003, 3.127180e-002
1.610270e+003, 3.327266e-002
1.612198e+003, 3.544917e-002
1.614127e+003, 3.720677e-002
1.616055e+003, 3.867457e-002
1.617984e+003, 3.929826e-002
1.619912e+003, 4.069017e-002
1.621840e+003, 4.140188e-002
1.623769e+003, 4.161252e-002
1.625697e+003, 4.207632e-002
1.627626e+003, 4.222257e-002
1.629554e+003, 4.158487e-002
1.631483e+003, 4.081775e-002
1.633411e+003, 3.975923e-002
1.635340e+003, 3.798575e-002
1.637268e+003, 3.679032e-002
1.639197e+003, 3.604947e-002
1.641125e+003, 3.461314e-002
1.643054e+003, 3.300137e-002
1.644982e+003, 3.171473e-002
1.646911e+003, 2.965934e-002
1.648839e+003, 2.822189e-002
1.650767e+003, 2.699215e-002
1.652696e+003, 2.497081e-002
1.654624e+003, 2.360093e-002
1.656553e+003, 2.390314e-002
1.658481e+003, 2.300066e-002
1.660410e+003, 2.200092e-002
1.662338e+003, 2.075494e-002
1.664267e+003, 1.971118e-002
1.666195e+003, 1.905556e-002
1.668124e+003, 1.779062e-002
1.670052e+003, 1.632092e-002
1.671981e+003, 1.590565e-002
1.673909e+003, 1.511410e-002
1.675838e+003, 1.356392e-002
1.677766e+003, 1.352413e-002
1.679694e+003, 1.288029e-002
1.681623e+003, 1.217425e-002
1.683551e+003, 1.125332e-002
1.685480e+003, 1.004707e-002
1.687408e+003, 1.074084e-002
1.689337e+003, 1.036515e-002
1.691265e+003, 1.028248e-002
1.693194e+003, 9.976585e-003
1.695122e+003, 9.207231e-003
1.697051e+003, 8.121491e-003
1.698979e+003, 8.574930e-003
1.700908e+003, 6.880314e-003
1.702836e+003, 8.059094e-003
1.704765e+003, 8.032180e-003
1.706693e+003, 8.067586e-003
1.708621e+003, 8.287635e-003
1.710550e+003, 8.163016e-003
1.712478e+003, 7.761091e-003
1.714407e+003, 7.114760e-003
1.716335e+003, 6.537588e-003
1.718264e+003, 5.858789e-003
1.720192e+003, 6.357721e-003
1.722121e+003, 6.752160e-003
1.724049e+003, 7.081748e-003
1.725978e+003, 7.266543e-003
1.727906e+003, 6.658874e-003
1.729835e+003, 5.778199e-003
1.731763e+003, 5.644598e-003
1.733692e+003, 5.090750e-003
1.735620e+003, 4.166935e-003
1.737548e+003, 4.651246e-003
1.739477e+003, 4.069754e-003
1.741405e+003, 3.505412e-003
1.743334e+003, 3.770803e-003
1.745262e+003, 3.961229e-003
1.747191e+003, 3.989037e-003
1.749119e+003, 3.705908e-003
1.751048e+003, 3.627528e-003
1.752976e+003, 3.801174e-003
1.754905e+003, 4.314205e-003
1.756833e+003, 4.090064e-003
1.758762e+003, 4.217811e-003
1.760690e+003, 4.389569e-003
1.762619e+003, 3.795390e-003
1.764547e+003, 4.412220e-003
1.766475e+003, 4.686684e-003
1.768404e+003, 4.143464e-003
1.770332e+003, 4.073693e-003
1.772261e+003, 3.707843e-003
1.774189e+003, 3.915151e-003
1.776118e+003, 4.327878e-003
1.778046e+003, 4.509052e-003
1.779975e+003, 4.389944e-003
1.781903e+003, 4.177325e-003
1.783832e+003, 4.496058e-003
1.785760e+003, 4.473754e-003
1.787689e+003, 4.540501e-003
1.789617e+003, 4.353254e-003
1.791546e+003, 4.086761e-003
1.793474e+003, 3.721390e-003
1.795402e+003, 4.034461e-003
1.797331e+003, 4.188570e-003
1.799259e+003, 4.465945e-003
1.801188e+003, 4.587132e-003
1.803116e+003, 4.571768e-003
1.805045e+003, 4.517893e-003
1.806973e+003, 4.491176e-003
1.808902e+003, 4.019957e-003
1.810830e+003, 3.671790e-003
1.812759e+003, 3.762581e-003
1.814687e+003, 3.244984e-003
1.816616e+003, 3.249924e-003
1.818544e+003, 4.206440e-003
1.820473e+003, 4.288414e-003
1.822401e+003, 3.670000e-003
1.824329e+003, 3.495834e-003
1.826258e+003, 3.526730e-003
1.828186e+003, 3.760702e-003
1.830115e+003, 3.371099e-003
1.832043e+003, 3.718543e-003
1.833972e+003, 3.780571e-003
1.835900e+003, 3.768942e-003
1.837829e+003, 3.514498e-003
1.839757e+003, 3.553021e-003
1.841686e+003, 3.614419e-003
1.843614e+003, 2.927301e-003
1.845543e+003, 2.715475e-003
1.847471e+003, 3.470022e-003
1.849400e+003, 3.324276e-003
1.851328e+003, 3.085854e-003
1.853256e+003, 3.290253e-003
1.855185e+003, 3.279219e-003
1.857113e+003, 2.649714e-003
1.859042e+003, 2.395185e-003
1.860970e+003, 2.354678e-003
1.862899e+003, 2.438009e-003
1.864827e+003, 2.809527e-003
1.866756e+003, 2.968260e-003
1.868684e+003, 2.370010e-003
1.870613e+003, 2.524413e-003
1.872541e+003, 2.909065e-003
1.874470e+003, 2.484092e-003
1.876398e+003, 2.239196e-003
1.878327e+003, 2.569203e-003
1.880255e+003, 2.268931e-003
1.882183e+003, 1.779362e-003
1.884112e+003, 1.051362e-003
1.886040e+003, 7.642199e-004
1.887969e+003, 1.249135e-003
1.889897e+003, 1.095966e-003
1.891826e+003, 6.827044e-004
1.893754e+003, 1.103380e-003
1.895683e+003, 9.348214e-004
1.897611e+003, 6.851162e-004
1.899540e+003, 1.053292e-003
1.901468e+003, 1.164608e-003
1.903397e+003, 1.456645e-003
1.905325e+003, 9.782213e-004
1.907254e+003, 1.251467e-003
1.909182e+003, 1.752979e-003
1.911110e+003, 1.055547e-003
1.913039e+003, 9.940842e-004
1.914967e+003, 9.878161e-004
1.916896e+003, 1.045087e-003
1.918824e+003, 5.903342e-004
1.920753e+003, 1.355375e-004
1.922681e+003, -1.681996e-004
1.924610e+003, -8.837550e-004
1.926538e+003, -1.425862e-003
1.928467e+003, -2.144624e-003
1.930395e+003, -2.716797e-003
1.932324e+003, -3.158875e-003
1.934252e+003, -2.760865e-003
1.936181e+003, -1.844101e-003
1.938109e+003, -1.975501e-003
1.940037e+003, -2.125354e-003
1.941966e+003, -2.512215e-003
1.943894e+003, -2.801720e-003
1.945823e+003, -2.659042e-003
1.947751e+003, -3.114924e-003
1.949680e+003, -3.424677e-003
1.951608e+003, -3.268884e-003
1.953537e+003, -3.243604e-003
1.955465e+003, -4.644370e-003
1.957394e+003, -5.511142e-003
1.959322e+003, -4.990888e-003
1.961251e+003, -4.734698e-003
1.963179e+003, -5.310797e-003
1.965108e+003, -6.033308e-003
1.967036e+003, -6.501590e-003
1.968964e+003, -7.458812e-003
1.970893e+003, -6.352575e-003
1.972821e+003, -6.365732e-003
1.974750e+003, -8.384944e-003
1.976678e+003, -8.948741e-003
1.978607e+003, -5.278783e-003
1.980535e+003, -2.243023e-003
1.982464e+003, -2.694988e-003
1.984392e+003, -3.784996e-003
1.986321e+003, -4.224436e-003
1.988249e+003, -5.265731e-003
1.990178e+003, -5.470061e-003
1.992106e+003, -6.104190e-003
1.994035e+003, -6.248829e-003
1.995963e+003, -5.917390e-003
1.997891e+003, -5.661414e-003
1.999820e+003, -6.359177e-003
2.001748e+003, -6.988332e-003
2.003677e+003, -6.224706e-003
2.005605e+003, -6.109615e-003
2.007534e+003, -7.590914e-003
2.009462e+003, -8.349508e-003
2.011391e+003, -8.045981e-003
2.013319e+003, -7.362139e-003
2.015248e+003, -6.401759e-003
2.017176e+003, -6.966243e-003
2.019105e+003, -7.564445e-003
2.021033e+003, -7.506215e-003
2.022962e+003, -6.999657e-003
2.024890e+003, -6.260684e-003
2.026818e+003, -7.345873e-003
2.028747e+003, -8.765396e-003
2.030675e+003, -8.004976e-003
2.032604e+003, -6.736107e-003
2.034532e+003, -5.215239e-003
2.036461e+003, -4.739263e-003
2.038389e+003, -4.888079e-003
2.040318e+003, -4.932536e-003
2.042246e+003, -4.037643e-003
2.044175e+003, -3.870267e-003
2.046103e+003, -4.113459e-003
2.048032e+003, -3.743405e-003
2.049960e+003, -2.498784e-003
2.051889e+003, -1.528036e-003
2.053817e+003, -1.241233e-003
2.055746e+003, -1.645999e-003
2.057674e+003, -1.750692e-003
2.059603e+003, -1.043796e-003
2.061531e+003, -1.732436e-003
2.063459e+003, -2.570553e-003
2.065388e+003, -3.098580e-003
2.067316e+003, -2.262852e-003
2.069245e+003, -1.964379e-003
2.071173e+003, -1.782343e-003
2.073102e+003, -7.081198e-004
2.075030e+003, 2.941315e-004
2.076959e+003, -6.609177e-004
2.078887e+003, -4.888456e-004
2.080816e+003, 8.413542e-005
2.082744e+003, -9.221084e-004
2.084673e+003, -1.045114e-003
2.086601e+003, -6.308571e-004
2.088530e+003, -5.082629e-004
2.090458e+003, 5.247559e-005
2.092386e+003, -1.253538e-004
2.094315e+003, -1.511153e-003
2.096243e+003, -1.315551e-003
2.098172e+003, -3.178803e-004
2.100100e+003, -2.413552e-004
2.102029e+003, -7.540556e-004
2.103957e+003, -4.783809e-004
2.105886e+003, -3.453353e-004
2.107814e+003, -1.270130e-003
2.109743e+003, -1.274010e-003
2.111671e+003, -7.788041e-004
2.113600e+003, 2.549537e-005
2.115528e+003, -3.708105e-004
2.117457e+003, -8.653231e-004
2.119385e+003, -7.070207e-004
2.121313e+003, -5.360651e-004
2.123242e+003, -1.584294e-003
2.125170e+003, -2.477154e-003
2.127099e+003, -2.103386e-003
2.129027e+003, -2.948930e-003
2.130956e+003, -4.708054e-003
2.132884e+003, -5.278932e-003
2.134813e+003, -5.012989e-003
2.136741e+003, -4.070783e-003
2.138670e+003, -3.487244e-003
2.140598e+003, -3.522803e-003
2.142527e+003, -3.167049e-003
2.144455e+003, -4.344847e-003
2.146384e+003, -6.716917e-003
2.148312e+003, -6.690618e-003
2.150240e+003, -6.484130e-003
2.152169e+003, -7.166767e-003
2.154097e+003, -8.101628e-003
2.156026e+003, -9.727349e-003
2.157954e+003, -9.060046e-003
2.159883e+003, -4.832205e-003
2.161811e+003, -3.410826e-003
2.163740e+003, -2.427547e-003
2.165668e+003, -1.097492e-004
2.167597e+003, -1.180641e-003
2.169525e+003, -4.135515e-003
2.171454e+003, -4.123243e-003
2.173382e+003, -3.884245e-003
2.175311e+003, -4.386968e-003
2.177239e+003, -4.141612e-003
2.179167e+003, -3.994018e-003
2.181096e+003, -4.504167e-003
2.183024e+003, -3.854145e-003
2.184953e+003, -2.857074e-003
2.186881e+003, -1.059978e-003
2.188810e+003, -1.408710e-003
2.190738e+003, -1.667458e-003
2.192667e+003, -1.043787e-003
2.194595e+003, -1.690947e-003
2.196524e+003, -2.257075e-003
2.198452e+003, -1.267140e-003
2.200381e+003, -1.285534e-004
2.202309e+003, 7.739736e-005
2.204238e+003, -5.124458e-004
2.206166e+003, -8.363327e-004
2.208094e+003, -1.223327e-005
2.210023e+003, -4.746225e-004
2.211951e+003, -8.958218e-004
2.213880e+003, -1.136734e-003
2.215808e+003, -2.017768e-003
2.217737e+003, -1.868056e-003
2.219665e+003, 3.889765e-004
2.221594e+003, 1.887026e-003
2.223522e+003, 2.495072e-003
2.225451e+003, 3.131841e-003
2.227379e+003, 2.327808e-003
2.229308e+003, 3.060178e-004
2.231236e+003, 9.100621e-004
2.233165e+003, 2.836241e-003
2.235093e+003, 2.706443e-003
2.237021e+003, 9.050120e-004
2.238950e+003, 1.488876e-003
2.240878e+003, 2.473863e-003
2.242807e+003, 1.387160e-003
2.244735e+003, 1.620491e-003
2.246664e+003, 2.578332e-003
2.248592e+003, 2.936803e-003
2.250521e+003, 3.075765e-003
2.252449e+003, 2.335094e-003
2.254378e+003, 1.354597e-003
2.256306e+003, 2.010801e-003
2.258235e+003, 2.442839e-003
2.260163e+003, 1.866249e-003
2.262092e+003, 1.755731e-003
2.264020e+003, 2.886254e-003
2.265948e+003, 3.149250e-003
2.267877e+003, 3.914449e-003
2.269805e+003, 4.462027e-003
2.271734e+003, 3.580236e-003
2.273662e+003, 2.960560e-003
2.275591e+003, 3.334451e-003
2.277519e+003, 3.546076e-003
2.279448e+003, 3.411514e-003
2.281376e+003, 3.906582e-003
2.283305e+003, 4.781934e-003
2.285233e+003, 5.500353e-003
2.287162e+003, 5.527058e-003
2.289090e+003, 5.375731e-003
2.291019e+003, 5.040961e-003
2.292947e+003, 4.696491e-003
2.294875e+003, 4.547688e-003
2.296804e+003, 5.071280e-003
2.298732e+003, 5.959949e-003
2.300661e+003, 5.487893e-003
2.302589e+003, 4.743958e-003
2.304518e+003, 4.816913e-003
2.306446e+003, 5.336259e-003
2.308375e+003, 5.426107e-003
2.310303e+003, 4.872528e-003
2.312232e+003, 5.043469e-003
2.314160e+003, 5.812722e-003
2.316089e+003, 6.211977e-003
2.318017e+003, 6.067036e-003
2.319946e+003, 5.687807e-003
2.321874e+003, 6.172901e-003
2.323802e+003, 6.513937e-003
2.325731e+003, 5.439183e-003
2.327659e+003, 4.742465e-003
2.329588e+003, 4.990435e-003
2.331516e+003, 4.872946e-003
2.333445e+003, 4.512651e-003
2.335373e+003, 4.574756e-003
2.337302e+003, 4.882955e-003
2.339230e+003, 5.164832e-003
2.341159e+003, 4.962548e-003
2.343087e+003, 4.336286e-003
2.345016e+003, 4.166782e-003
2.346944e+003, 4.353123e-003
2.348873e+003, 4.648701e-003
2.350801e+003, 4.817147e-003
2.352729e+003, 4.693820e-003
2.354658e+003, 4.297047e-003
2.356586e+003, 4.272981e-003
2.358515e+003, 4.153160e-003
2.360443e+003, 4.053132e-003
2.362372e+003, 4.111263e-003
2.364300e+003, 3.650354e-003
2.366229e+003, 3.185926e-003
2.368157e+003, 3.218267e-003
2.370086e+003, 3.729459e-003
2.372014e+003, 3.621187e-003
2.373942e+003, 3.626203e-003
2.375871e+003, 4.017932e-003
2.377799e+003, 4.513449e-003
2.379728e+003, 4.214952e-003
2.381656e+003, 4.386534e-003
2.383585e+003, 4.846606e-003
2.385513e+003, 4.143752e-003
2.387442e+003, 3.765935e-003
2.389370e+003, 4.076376e-003
2.391299e+003, 4.130946e-003
2.393227e+003, 3.637968e-003
2.395156e+003, 3.759476e-003
2.397084e+003, 4.339139e-003
2.399012e+003, 4.601445e-003
2.400941e+003, 4.200845e-003
2.402869e+003, 3.827479e-003
2.404798e+003, 3.900524e-003
2.406726e+003, 4.168115e-003
2.408655e+003, 4.695534e-003
2.410583e+003, 5.267574e-003
2.412512e+003, 5.066168e-003
2.414440e+003, 4.867561e-003
2.416369e+003, 4.989075e-003
2.418297e+003, 4.654425e-003
2.420226e+003, 5.006948e-003
2.422154e+003, 5.269289e-003
2.424083e+003, 4.762250e-003
2.426011e+003, 4.616144e-003
2.427939e+003, 5.289373e-003
2.429868e+003, 5.468606e-003
2.431796e+003, 4.876596e-003
2.433725e+003, 4.669579e-003
2.435653e+003, 5.507033e-003
2.437582e+003, 6.145339e-003
2.439510e+003, 5.982637e-003
2.441439e+003, 6.001521e-003
2.443367e+003, 6.015043e-003
2.445296e+003, 6.137265e-003
2.447224e+003, 5.925274e-003
2.449153e+003, 5.857855e-003
2.451081e+003, 6.458703e-003
2.453010e+003, 6.459684e-003
2.454938e+003, 5.836793e-003
2.456866e+003, 5.615871e-003
2.458795e+003, 5.382694e-003
2.460723e+003, 5.966391e-003
2.462652e+003, 6.753712e-003
2.464580e+003, 6.488848e-003
2.466509e+003, 6.015921e-003
2.468437e+003, 5.910837e-003
2.470366e+003, 5.976667e-003
2.472294e+003, 5.717948e-003
2.474223e+003, 5.281032e-003
2.476151e+003, 5.997342e-003
2.478080e+003, 7.034549e-003
2.480008e+003, 7.075972e-003
2.481937e+003, 6.533561e-003
2.483865e+003, 6.419577e-003
2.485793e+003, 6.596655e-003
2.487722e+003, 6.724618e-003
2.489650e+003, 6.475173e-003
2.491579e+003, 6.010192e-003
2.493507e+003, 5.306982e-003
2.495436e+003, 5.535068e-003
2.497364e+003, 6.450077e-003
2.499293e+003, 6.522988e-003
2.501221e+003, 5.948617e-003
2.503150e+003, 5.654009e-003
2.505078e+003, 6.244000e-003
2.507007e+003, 6.868019e-003
2.508935e+003, 6.920949e-003
2.510864e+003, 6.748213e-003
2.512792e+003, 6.078449e-003
2.514720e+003, 6.027323e-003
2.516649e+003, 6.356640e-003
2.518577e+003, 6.868299e-003
2.520506e+003, 6.916860e-003
2.522434e+003, 6.169718e-003
2.524363e+003, 6.565681e-003
2.526291e+003, 6.846594e-003
2.528220e+003, 6.794498e-003
2.530148e+003, 6.417811e-003
2.532077e+003, 6.101722e-003
2.534005e+003, 6.599968e-003
2.535934e+003, 6.708994e-003
2.537862e+003, 6.581839e-003
2.539791e+003, 6.659300e-003
2.541719e+003, 7.207304e-003
2.543647e+003, 7.351527e-003
2.545576e+003, 7.693548e-003
2.547504e+003, 7.594103e-003
2.549433e+003, 7.640035e-003
2.551361e+003, 7.564148e-003
2.553290e+003, 7.058593e-003
2.555218e+003, 6.547092e-003
2.557147e+003, 7.270948e-003
2.559075e+003, 7.857981e-003
2.561004e+003, 7.799641e-003
2.562932e+003, 7.636563e-003
2.564861e+003, 6.979800e-003
2.566789e+003, 7.428859e-003
2.568718e+003, 8.513632e-003
2.570646e+003, 8.112721e-003
2.572574e+003, 7.376040e-003
2.574503e+003, 7.571212e-003
2.576431e+003, 7.559483e-003
2.578360e+003, 7.105136e-003
2.580288e+003, 7.398431e-003
2.582217e+003, 7.229435e-003
2.584145e+003, 7.229314e-003
2.586074e+003, 8.137413e-003
2.588002e+003, 7.816514e-003
2.589931e+003, 7.374276e-003
2.591859e+003, 7.923389e-003
2.593788e+003, 8.565107e-003
2.595716e+003, 8.310745e-003
2.597645e+003, 8.365599e-003
2.599573e+003, 8.119336e-003
2.601501e+003, 8.054433e-003
2.603430e+003, 8.520124e-003
2.605358e+003, 8.485936e-003
2.607287e+003, 8.969173e-003
2.609215e+003, 9.534477e-003
2.611144e+003, 8.920058e-003
2.613072e+003, 8.300031e-003
2.615001e+003, 8.652965e-003
2.616929e+003, 8.578671e-003
2.618858e+003, 8.616580e-003
2.620786e+003, 9.147781e-003
2.622715e+003, 8.656194e-003
2.624643e+003, 8.756741e-003
2.626572e+003, 9.472653e-003
2.628500e+003, 9.333787e-003
2.630428e+003, 8.787292e-003
2.632357e+003, 8.429570e-003
2.634285e+003, 9.011608e-003
2.636214e+003, 9.413417e-003
2.638142e+003, 9.559204e-003
2.640071e+003, 9.970086e-003
2.641999e+003, 1.003367e-002
2.643928e+003, 9.350899e-003
2.645856e+003, 8.803366e-003
2.647785e+003, 8.914084e-003
2.649713e+003, 9.344873e-003
2.651642e+003, 9.922140e-003
2.653570e+003, 1.023991e-002
2.655499e+003, 9.789633e-003
2.657427e+003, 9.249683e-003
2.659355e+003, 9.316842e-003
2.661284e+003, 9.319667e-003
2.663212e+003, 8.771471e-003
2.665141e+003, 8.217539e-003
2.667069e+003, 8.037527e-003
2.668998e+003, 8.047621e-003
2.670926e+003, 8.129610e-003
2.672855e+003, 8.237238e-003
2.674783e+003, 8.344730e-003
2.676712e+003, 8.991453e-003
2.678640e+003, 9.642945e-003
2.680569e+003, 9.832509e-003
2.682497e+003, 9.224385e-003
2.684426e+003, 8.319747e-003
2.686354e+003, 8.253178e-003
2.688282e+003, 9.091126e-003
2.690211e+003, 9.502611e-003
2.692139e+003, 9.390457e-003
2.694068e+003, 9.216123e-003
2.695996e+003, 9.474035e-003
2.697925e+003, 9.984517e-003
2.699853e+003, 9.975051e-003
2.701782e+003, 9.715687e-003
2.703710e+003, 9.877720e-003
2.705639e+003, 9.666237e-003
2.707567e+003, 9.590828e-003
2.709496e+003, 9.793118e-003
2.711424e+003, 9.598763e-003
2.713353e+003, 9.232271e-003
2.715281e+003, 9.153593e-003
2.717209e+003, 9.705869e-003
2.719138e+003, 1.013282e-002
2.721066e+003, 1.004218e-002
2.722995e+003, 1.008489e-002
2.724923e+003, 1.041530e-002
2.726852e+003, 1.061132e-002
2.728780e+003, 1.006343e-002
2.730709e+003, 9.838103e-003
2.732637e+003, 1.001554e-002
2.734566e+003, 1.014270e-002
2.736494e+003, 9.984671e-003
2.738423e+003, 1.010102e-002
2.740351e+003, 1.012809e-002
2.742280e+003, 9.641646e-003
2.744208e+003, 9.597787e-003
2.746136e+003, 1.014542e-002
2.748065e+003, 1.016221e-002
2.749993e+003, 9.698853e-003
2.751922e+003, 9.442916e-003
2.753850e+003, 1.007976e-002
2.755779e+003, 1.058722e-002
2.757707e+003, 1.076016e-002
2.759636e+003, 1.051234e-002
2.761564e+003, 1.055873e-002
2.763493e+003, 1.090463e-002
2.765421e+003, 1.080097e-002
2.767350e+003, 1.073184e-002
2.769278e+003, 1.076095e-002
2.771207e+003, 1.099627e-002
2.773135e+003, 1.084048e-002
2.775063e+003, 1.035270e-002
2.776992e+003, 1.051414e-002
2.778920e+003, 1.062816e-002
2.780849e+003, 1.070083e-002
2.782777e+003, 1.037460e-002
2.784706e+003, 1.070141e-002
2.786634e+003, 1.125380e-002
2.788563e+003, 1.096306e-002
2.790491e+003, 1.065375e-002
2.792420e+003, 1.083631e-002
2.794348e+003, 1.088775e-002
2.796277e+003, 1.103008e-002
2.798205e+003, 1.133606e-002
2.800134e+003, 1.126759e-002
2.802062e+003, 1.084642e-002
2.803990e+003, 1.047476e-002
2.805919e+003, 1.090849e-002
2.807847e+003, 1.149189e-002
2.809776e+003, 1.192075e-002
2.811704e+003, 1.175909e-002
2.813633e+003, 1.165292e-002
2.815561e+003, 1.168564e-002
2.817490e+003, 1.169734e-002
2.819418e+003, 1.152324e-002
2.821347e+003, 1.153859e-002
2.823275e+003, 1.192738e-002
2.825204e+003, 1.200378e-002
2.827132e+003, 1.196186e-002
2.829061e+003, 1.224465e-002
2.830989e+003, 1.247987e-002
2.832917e+003, 1.271411e-002
2.834846e+003, 1.252449e-002
2.836774e+003, 1.193284e-002
2.838703e+003, 1.201221e-002
2.840631e+003, 1.289946e-002
2.842560e+003, 1.336347e-002
2.844488e+003, 1.284739e-002
2.846417e+003, 1.171659e-002
2.848345e+003, 1.212250e-002
2.850274e+003, 1.261724e-002
2.852202e+003, 1.171931e-002
2.854131e+003, 1.165355e-002
2.856059e+003, 1.257485e-002
2.857988e+003, 1.311315e-002
2.859916e+003, 1.328407e-002
2.861844e+003, 1.360948e-002
2.863773e+003, 1.337682e-002
2.865701e+003, 1.324573e-002
2.867630e+003, 1.361479e-002
2.869558e+003, 1.426183e-002
2.871487e+003, 1.396854e-002
2.873415e+003, 1.340648e-002
2.875344e+003, 1.394813e-002
2.877272e+003, 1.465647e-002
2.879201e+003, 1.492742e-002
2.881129e+003, 1.460263e-002
2.883058e+003, 1.477611e-002
2.884986e+003, 1.519995e-002
2.886915e+003, 1.496533e-002
2.888843e+003, 1.468754e-002
2.890771e+003, 1.517919e-002
2.892700e+003, 1.552453e-002
2.894628e+003, 1.584912e-002
2.896557e+003, 1.555999e-002
2.898485e+003, 1.486505e-002
2.900414e+003, 1.450421e-002
2.902342e+003, 1.530299e-002
2.904271e+003, 1.518015e-002
2.906199e+003, 1.479004e-002
2.908128e+003, 1.482303e-002
2.910056e+003, 1.505088e-002
2.911985e+003, 1.562117e-002
2.913913e+003, 1.583701e-002
2.915842e+003, 1.525896e-002
2.917770e+003, 1.508839e-002
2.919698e+003, 1.544658e-002
2.921627e+003, 1.547256e-002
2.923555e+003, 1.544021e-002
2.925484e+003, 1.593135e-002
2.927412e+003, 1.620923e-002
2.929341e+003, 1.675247e-002
2.931269e+003, 1.754099e-002
2.933198e+003, 1.744631e-002
2.935126e+003, 1.728065e-002
2.937055e+003, 1.696271e-002
2.938983e+003, 1.712792e-002
2.940912e+003, 1.793160e-002
2.942840e+003, 1.834908e-002
2.944769e+003, 1.807396e-002
2.946697e+003, 1.760766e-002
2.948625e+003, 1.727312e-002
2.950554e+003, 1.718624e-002
2.952482e+003, 1.678874e-002
2.954411e+003, 1.662345e-002
2.956339e+003, 1.688296e-002
2.958268e+003, 1.681826e-002
2.960196e+003, 1.670109e-002
2.962125e+003, 1.713686e-002
2.964053e+003, 1.813896e-002
2.965982e+003, 1.883277e-002
2.967910e+003, 1.909969e-002
2.969839e+003, 1.911837e-002
2.971767e+003, 1.944799e-002
2.973696e+003, 1.949853e-002
2.975624e+003, 1.879863e-002
2.977552e+003, 1.829122e-002
2.979481e+003, 1.839031e-002
2.981409e+003, 1.873125e-002
2.983338e+003, 1.919516e-002
2.985266e+003, 1.987632e-002
2.987195e+003, 1.973967e-002
2.989123e+003, 1.948330e-002
2.991052e+003, 1.985855e-002
2.992980e+003, 2.056528e-002
2.994909e+003, 2.059608e-002
2.996837e+003, 2.002033e-002
2.998766e+003, 2.008999e-002
3.000694e+003, 2.050727e-002
3.002623e+003, 2.055012e-002
3.004551e+003, 2.048575e-002
3.006479e+003, 2.032889e-002
3.008408e+003, 2.111026e-002
3.010336e+003, 2.214787e-002
3.012265e+003, 2.160979e-002
3.014193e+003, 2.071312e-002
3.016122e+003, 2.118999e-002
3.018050e+003, 2.198904e-002
3.019979e+003, 2.269472e-002
3.021907e+003, 2.272354e-002
3.023836e+003, 2.226277e-002
3.025764e+003, 2.205745e-002
3.027693e+003, 2.291349e-002
3.029621e+003, 2.324565e-002
3.031550e+003, 2.342791e-002
3.033478e+003, 2.332415e-002
3.035406e+003, 2.322969e-002
3.037335e+003, 2.315240e-002
3.039263e+003, 2.331511e-002
3.041192e+003, 2.306184e-002
3.043120e+003, 2.337457e-002
3.045049e+003, 2.394897e-002
3.046977e+003, 2.428952e-002
3.048906e+003, 2.487061e-002
3.050834e+003, 2.506985e-002
3.052763e+003, 2.489616e-002
3.054691e+003, 2.545410e-002
3.056620e+003, 2.594662e-002
3.058548e+003, 2.620473e-002
3.060477e+003, 2.622444e-002
3.062405e+003, 2.636127e-002
3.064333e+003, 2.666076e-002
3.066262e+003, 2.696008e-002
3.068190e+003, 2.729131e-002
3.070119e+003, 2.733447e-002
3.072047e+003, 2.652038e-002
3.073976e+003, 2.684435e-002
3.075904e+003, 2.726446e-002
3.077833e+003, 2.751186e-002
3.079761e+003, 2.833129e-002
3.081690e+003, 2.807835e-002
3.083618e+003, 2.789545e-002
3.085547e+003, 2.884309e-002
3.087475e+003, 2.968089e-002
3.089404e+003, 3.026368e-002
3.091332e+003, 2.997105e-002
3.093260e+003, 3.015483e-002
3.095189e+003, 3.020940e-002
3.097117e+003, 3.056143e-002
3.099046e+003, 3.138126e-002
3.100974e+003, 3.221251e-002
3.102903e+003, 3.212945e-002
3.104831e+003, 3.143017e-002
3.106760e+003, 3.160003e-002
3.108688e+003, 3.232953e-002
3.110617e+003, 3.256818e-002
3.112545e+003, 3.259538e-002
3.114474e+003, 3.341604e-002
3.116402e+003, 3.375480e-002
3.118331e+003, 3.388181e-002
3.120259e+003, 3.460630e-002
3.122188e+003, 3.482811e-002
3.124116e+003, 3.544830e-002
3.126044e+003, 3.582536e-002
3.127973e+003, 3.587495e-002
3.129901e+003, 3.599557e-002
3.131830e+003, 3.582381e-002
3.133758e+003, 3.608887e-002
3.135687e+003, 3.634021e-002
3.137615e+003, 3.780894e-002
3.139544e+003, 3.899731e-002
3.141472e+003, 3.862844e-002
3.143401e+003, 3.925174e-002
3.145329e+003, 4.005497e-002
3.147258e+003, 4.085306e-002
3.149186e+003, 4.031168e-002
3.151115e+003, 4.016886e-002
3.153043e+003, 4.170539e-002
3.154971e+003, 4.226147e-002
3.156900e+003, 4.224970e-002
3.158828e+003, 4.252534e-002
3.160757e+003, 4.262141e-002
3.162685e+003, 4.286165e-002
3.164614e+003, 4.310012e-002
3.166542e+003, 4.272921e-002
3.168471e+003, 4.317483e-002
3.170399e+003, 4.425995e-002
3.172328e+003, 4.485696e-002
3.174256e+003, 4.553002e-002
3.176185e+003, 4.603352e-002
3.178113e+003, 4.654642e-002
3.180042e+003, 4.703014e-002
3.181970e+003, 4.732772e-002
3.183898e+003, 4.730963e-002
3.185827e+003, 4.706700e-002
3.187755e+003, 4.748255e-002
3.189684e+003, 4.918072e-002
3.191612e+003, 4.955217e-002
3.193541e+003, 4.950391e-002
3.195469e+003, 4.962580e-002
3.197398e+003, 5.006743e-002
3.199326e+003, 5.047820e-002
3.201255e+003, 5.074396e-002
3.203183e+003, 5.079032e-002
3.205112e+003, 5.081307e-002
3.207040e+003, 5.129538e-002
3.208969e+003, 5.184241e-002
3.210897e+003, 5.222085e-002
3.212825e+003, 5.299047e-002
3.214754e+003, 5.371418e-002
3.216682e+003, 5.310247e-002
3.218611e+003, 5.334958e-002
3.220539e+003, 5.434567e-002
3.222468e+003, 5.489233e-002
3.224396e+003, 5.409914e-002
3.226325e+003, 5.385607e-002
3.228253e+003, 5.498723e-002
3.230182e+003, 5.557536e-002
3.232110e+003, 5.581675e-002
3.234039e+003, 5.579755e-002
3.235967e+003, 5.586088e-002
3.237896e+003, 5.637074e-002
3.239824e+003, 5.643625e-002
3.241752e+003, 5.650622e-002
3.243681e+003, 5.610546e-002
3.245609e+003, 5.571435e-002
3.247538e+003, 5.619996e-002
3.249466e+003, 5.724619e-002
3.251395e+003, 5.832699e-002
3.253323e+003, 5.859637e-002
3.255252e+003, 5.860309e-002
3.257180e+003, 5.887534e-002
3.259109e+003, 5.812884e-002
3.261037e+003, 5.721085e-002
3.262966e+003, 5.793441e-002
3.264894e+003, 5.914677e-002
3.266823e+003, 5.924405e-002
3.268751e+003, 5.985410e-002
3.270679e+003, 6.142252e-002
3.272608e+003, 6.205110e-002
3.274536e+003, 6.130782e-002
3.276465e+003, 6.079359e-002
3.278393e+003, 6.122763e-002
3.280322e+003, 6.117572e-002
3.282250e+003, 6.119599e-002
3.284179e+003, 6.172566e-002
3.286107e+003, 6.283160e-002
3.288036e+003, 6.315856e-002
3.289964e+003, 6.277556e-002
3.291893e+003, 6.279427e-002
3.293821e+003, 6.309646e-002
3.295750e+003, 6.404071e-002
3.297678e+003, 6.423513e-002
3.299606e+003, 6.476608e-002
3.301535e+003, 6.425858e-002
3.303463e+003, 6.374447e-002
3.305392e+003, 6.404664e-002
3.307320e+003, 6.565373e-002
3.309249e+003, 6.635490e-002
3.311177e+003, 6.558425e-002
3.313106e+003, 6.598414e-002
3.315034e+003, 6.655785e-002
3.316963e+003, 6.639196e-002
3.318891e+003, 6.714479e-002
3.320820e+003, 6.863563e-002
3.322748e+003, 6.887691e-002
3.324677e+003, 6.784435e-002
3.326605e+003, 6.706015e-002
3.328533e+003, 6.788602e-002
3.330462e+003, 6.843366e-002
3.332390e+003, 6.783083e-002
3.334319e+003, 6.848606e-002
3.336247e+003, 6.891875e-002
3.338176e+003, 6.920956e-002
3.340104e+003, 6.972578e-002
3.342033e+003, 7.017930e-002
3.343961e+003, 7.162994e-002
3.345890e+003, 7.258896e-002
3.347818e+003, 7.232626e-002
3.349747e+003, 7.271097e-002
3.351675e+003, 7.405259e-002
3.353604e+003, 7.392187e-002
3.355532e+003, 7.260746e-002
3.357460e+003, 7.285068e-002
3.359389e+003, 7.353572e-002
3.361317e+003, 7.357933e-002
3.363246e+003, 7.431656e-002
3.365174e+003, 7.482170e-002
3.367103e+003, 7.488808e-002
3.369031e+003, 7.532950e-002
3.370960e+003, 7.430761e-002
3.372888e+003, 7.323906e-002
3.374817e+003, 7.448553e-002
3.376745e+003, 7.502701e-002
3.378674e+003, 7.380678e-002
3.380602e+003, 7.307422e-002
3.382531e+003, 7.406320e-002
3.384459e+003, 7.473440e-002
3.386387e+003, 7.480352e-002
3.388316e+003, 7.465822e-002
3.390244e+003, 7.428563e-002
3.392173e+003, 7.485722e-002
3.394101e+003, 7.589775e-002
3.396030e+003, 7.646839e-002
3.397958e+003, 7.572395e-002
3.399887e+003, 7.594065e-002
3.401815e+003, 7.623608e-002
3.403744e+003, 7.583433e-002
3.405672e+003, 7.538714e-002
3.407601e+003, 7.492399e-002
3.409529e+003, 7.440042e-002
3.411458e+003, 7.409301e-002
3.413386e+003, 7.393438e-002
3.415314e+003, 7.404838e-002
3.417243e+003, 7.325541e-002
3.419171e+003, 7.261456e-002
3.421100e+003, 7.278320e-002
3.423028e+003, 7.325878e-002
3.424957e+003, 7.365221e-002
3.426885e+003, 7.185555e-002
3.428814e+003, 7.094969e-002
3.430742e+003, 7.134745e-002
3.432671e+003, 7.115577e-002
3.434599e+003, 7.176135e-002
3.436528e+003, 7.234696e-002
3.438456e+003, 7.230053e-002
3.440385e+003, 7.129833e-002
3.442313e+003, 7.098292e-002
3.444241e+003, 7.109263e-002
3.446170e+003, 7.080303e-002
3.448098e+003, 7.058360e-002
3.450027e+003, 6.997418e-002
3.451955e+003, 7.040118e-002
3.453884e+003, 7.128611e-002
3.455812e+003, 7.065001e-002
3.457741e+003, 6.898881e-002
3.459669e+003, 6.835299e-002
3.461598e+003, 6.939325e-002
3.463526e+003, 7.024532e-002
3.465455e+003, 6.989345e-002
3.467383e+003, 6.944895e-002
3.469312e+003, 6.914761e-002
3.471240e+003, 6.903823e-002
3.473168e+003, 6.859299e-002
3.475097e+003, 6.783801e-002
3.477025e+003, 6.702441e-002
3.478954e+003, 6.709097e-002
3.480882e+003, 6.753821e-002
3.482811e+003, 6.762770e-002
3.484739e+003, 6.697244e-002
3.486668e+003, 6.676663e-002
3.488596e+003, 6.701802e-002
3.490525e+003, 6.598411e-002
3.492453e+003, 6.512091e-002
3.494382e+003, 6.487511e-002
3.496310e+003, 6.587985e-002
3.498239e+003, 6.715591e-002
3.500167e+003, 6.657273e-002
3.502095e+003, 6.531888e-002
3.504024e+003, 6.482352e-002
3.505952e+003, 6.498364e-002
3.507881e+003, 6.629632e-002
3.509809e+003, 6.685250e-002
3.511738e+003, 6.483091e-002
3.513666e+003, 6.363234e-002
3.515595e+003, 6.404373e-002
3.517523e+003, 6.414695e-002
3.519452e+003, 6.473593e-002
3.521380e+003, 6.436691e-002
3.523309e+003, 6.379434e-002
3.525237e+003, 6.413823e-002
3.527166e+003, 6.339165e-002
3.529094e+003, 6.287969e-002
3.531022e+003, 6.281076e-002
3.532951e+003, 6.239931e-002
3.534879e+003, 6.210697e-002
3.536808e+003, 6.270754e-002
3.538736e+003, 6.298984e-002
3.540665e+003, 6.337452e-002
3.542593e+003, 6.349019e-002
3.544522e+003, 6.218596e-002
3.546450e+003, 6.098811e-002
3.548379e+003, 6.138889e-002
3.550307e+003, 6.174486e-002
3.552236e+003, 6.028659e-002
3.554164e+003, 5.855314e-002
3.556093e+003, 5.823531e-002
3.558021e+003, 6.011567e-002
3.559949e+003, 6.076879e-002
3.561878e+003, 6.008267e-002
3.563806e+003, 6.001505e-002
3.565735e+003, 5.958968e-002
3.567663e+003, 5.931927e-002
3.569592e+003, 6.030118e-002
3.571520e+003, 5.994119e-002
3.573449e+003, 5.914931e-002
3.575377e+003, 5.937855e-002
3.577306e+003, 6.026669e-002
3.579234e+003, 5.968602e-002
3.581163e+003, 5.719514e-002
3.583091e+003, 5.639223e-002
3.585020e+003, 5.815892e-002
3.586948e+003, 6.037721e-002
3.588876e+003, 5.964402e-002
3.590805e+003, 5.860817e-002
3.592733e+003, 5.881534e-002
3.594662e+003, 5.842504e-002
3.596590e+003, 5.787514e-002
3.598519e+003, 5.840104e-002
3.600447e+003, 5.940737e-002
3.602376e+003, 6.015921e-002
3.604304e+003, 5.911690e-002
3.606233e+003, 5.775959e-002
3.608161e+003, 5.784070e-002
3.610090e+003, 5.878759e-002
3.612018e+003, 5.727484e-002
3.613947e+003, 5.420605e-002
3.615875e+003, 5.290152e-002
3.617803e+003, 5.291661e-002
3.619732e+003, 5.186212e-002
3.621660e+003, 5.087459e-002
3.623589e+003, 4.981035e-002
3.625517e+003, 4.766397e-002
3.627446e+003, 4.625879e-002
3.629374e+003, 4.801010e-002
3.631303e+003, 4.903277e-002
3.633231e+003, 4.561112e-002
3.635160e+003, 4.256719e-002
3.637088e+003, 4.098022e-002
3.639017e+003, 3.939359e-002
3.640945e+003, 3.786997e-002
3.642874e+003, 3.630240e-002
3.644802e+003, 3.449994e-002
3.646730e+003, 3.155357e-002
3.648659e+003, 3.023832e-002
3.650587e+003, 2.889457e-002
3.652516e+003, 2.735690e-002
3.654444e+003, 2.578536e-002
3.656373e+003, 2.397652e-002
3.658301e+003, 2.217430e-002
3.660230e+003, 2.130935e-002
3.662158e+003, 1.928130e-002
3.664087e+003, 1.713978e-002
3.666015e+003, 1.746413e-002
3.667944e+003, 1.753812e-002
3.669872e+003, 1.694734e-002
3.671801e+003, 1.518110e-002
3.673729e+003, 1.475079e-002
3.675657e+003, 1.613843e-002
3.677586e+003, 1.575839e-002
3.679514e+003, 1.401616e-002
3.681443e+003, 1.343156e-002
3.683371e+003, 1.254899e-002
3.685300e+003, 1.198015e-002
3.687228e+003, 1.133736e-002
3.689157e+003, 1.084250e-002
3.691085e+003, 1.014444e-002
3.693014e+003, 1.004325e-002
3.694942e+003, 9.517548e-003
3.696871e+003, 8.940684e-003
3.698799e+003, 9.269975e-003
3.700728e+003, 9.258403e-003
3.702656e+003, 7.886071e-003
3.704584e+003, 9.935460e-003
3.706513e+003, 1.177960e-002
3.708441e+003, 1.182367e-002
3.710370e+003, 1.206714e-002
3.712298e+003, 1.254509e-002
3.714227e+003, 1.096026e-002
3.716155e+003, 1.018819e-002
3.718084e+003, 1.099803e-002
3.720012e+003, 1.103714e-002
3.721941e+003, 1.115570e-002
3.723869e+003, 1.167689e-002
3.725798e+003, 1.006839e-002
3.727726e+003, 8.635781e-003
3.729655e+003, 8.287092e-003
3.731583e+003, 9.669716e-003
3.733511e+003, 1.053330e-002
3.735440e+003, 9.893134e-003
3.737368e+003, 9.396182e-003
3.739297e+003, 9.416302e-003
3.741225e+003, 1.003191e-002
3.743154e+003, 9.639142e-003
3.745082e+003, 1.017508e-002
3.747011e+003, 1.074901e-002
3.748939e+003, 1.098555e-002
3.750868e+003, 1.041854e-002
3.752796e+003, 1.057026e-002
3.754725e+003, 1.104327e-002
3.756653e+003, 1.226453e-002
3.758582e+003, 9.988315e-003
3.760510e+003, 8.080561e-003
3.762438e+003, 8.636158e-003
3.764367e+003, 1.002425e-002
3.766295e+003, 1.085605e-002
3.768224e+003, 9.418210e-003
3.770152e+003, 9.408221e-003
3.772081e+003, 1.012338e-002
3.774009e+003, 1.076727e-002
3.775938e+003, 1.109935e-002
3.777866e+003, 1.083083e-002
3.779795e+003, 1.157123e-002
3.781723e+003, 1.287185e-002
3.783652e+003, 1.172876e-002
3.785580e+003, 1.054688e-002
3.787509e+003, 9.016507e-003
3.789437e+003, 9.131100e-003
3.791365e+003, 1.087703e-002
3.793294e+003, 1.131961e-002
3.795222e+003, 1.152273e-002
3.797151e+003, 1.155685e-002
3.799079e+003, 1.206197e-002
3.801008e+003, 1.256962e-002
3.802936e+003, 1.257606e-002
3.804865e+003, 1.138911e-002
3.806793e+003, 9.229329e-003
3.808722e+003, 8.496176e-003
3.810650e+003, 1.058674e-002
3.812579e+003, 1.223763e-002
3.814507e+003, 1.171782e-002
3.816436e+003, 1.313660e-002
3.818364e+003, 1.380062e-002
3.820292e+003, 1.210458e-002
3.822221e+003, 1.059608e-002
3.824149e+003, 1.142754e-002
3.826078e+003, 1.052709e-002
3.828006e+003, 8.946192e-003
3.829935e+003, 9.545428e-003
3.831863e+003, 9.573231e-003
3.833792e+003, 9.844447e-003
3.835720e+003, 1.174740e-002
3.837649e+003, 1.170010e-002
3.839577e+003, 1.020003e-002
3.841506e+003, 9.366190e-003
3.843434e+003, 8.666379e-003
3.845363e+003, 9.453636e-003
3.847291e+003, 1.060418e-002
3.849219e+003, 1.163331e-002
3.851148e+003, 1.199485e-002
3.853076e+003, 1.088950e-002
3.855005e+003, 1.177547e-002
3.856933e+003, 1.109748e-002
3.858862e+003, 9.973851e-003
3.860790e+003, 9.087874e-003
3.862719e+003, 8.449810e-003
3.864647e+003, 8.698913e-003
3.866576e+003, 7.886124e-003
3.868504e+003, 8.059028e-003
3.870433e+003, 9.550692e-003
3.872361e+003, 9.818920e-003
3.874290e+003, 1.019867e-002
3.876218e+003, 1.027339e-002
3.878146e+003, 1.084995e-002
3.880075e+003, 1.059794e-002
3.882003e+003, 1.215088e-002
3.883932e+003, 1.289443e-002
3.885860e+003, 1.202828e-002
3.887789e+003, 1.189572e-002
3.889717e+003, 1.263492e-002
3.891646e+003, 1.344437e-002
3.893574e+003, 1.288154e-002
3.895503e+003, 1.151176e-002
3.897431e+003, 1.144380e-002
3.899360e+003, 1.114373e-002
3.901288e+003, 1.076126e-002
3.903217e+003, 1.143494e-002
3.905145e+003, 1.245931e-002
3.907073e+003, 1.220045e-002
3.909002e+003, 9.940515e-003
3.910930e+003, 9.638657e-003
3.912859e+003, 1.082555e-002
3.914787e+003, 1.155381e-002
3.916716e+003, 1.190872e-002
3.918644e+003, 1.075480e-002
3.920573e+003, 1.010754e-002
3.922501e+003, 1.157215e-002
3.924430e+003, 1.337014e-002
3.926358e+003, 1.153346e-002
3.928287e+003, 1.040382e-002
3.930215e+003, 1.153620e-002
3.932144e+003, 1.043383e-002
3.934072e+003, 9.784903e-003
3.936000e+003, 9.107338e-003
3.937929e+003, 9.097075e-003
3.939857e+003, 1.056602e-002
3.941786e+003, 1.186755e-002
3.943714e+003, 1.201872e-002
3.945643e+003, 1.153731e-002
3.947571e+003, 1.039276e-002
3.949500e+003, 9.191071e-003
3.951428e+003, 9.361796e-003
3.953357e+003, 1.083007e-002
3.955285e+003, 1.150106e-002
3.957214e+003, 1.092962e-002
3.959142e+003, 1.173955e-002
3.961071e+003, 1.083803e-002
3.962999e+003, 8.869277e-003
3.964927e+003, 9.658605e-003
3.966856e+003, 1.092503e-002
3.968784e+003, 1.145731e-002
3.970713e+003, 1.317530e-002
3.972641e+003, 1.296403e-002
3.974570e+003, 1.086090e-002
3.976498e+003, 1.035357e-002
3.978427e+003, 1.064238e-002
3.980355e+003, 1.083859e-002
3.982284e+003, 1.080117e-002
3.984212e+003, 1.161831e-002
3.986141e+003, 1.286217e-002
3.988069e+003, 1.356543e-002
3.989998e+003, 1.108268e-002
3.991926e+003, 1.010922e-002
3.993854e+003, 1.259587e-002
3.995783e+003, 1.392713e-002
3.997711e+003, 1.257359e-002
3.999640e+003, 1.257869e-002
4.001568e+003, 0.000000e+000
##END=



