##NAMES=Hydroxylherderite
##RRUFFID=R050520
##IDEAL CHEMISTRY=CaBe(P^5+^O_4_)(OH)
##LOCALITY=Virgem da Lapa, Minas Gerais, Brazil
##OWNER=RRUFF
##SOURCE=University of Arizona Mineral Museum
##DESCRIPTION=White massive associated with a dark green tourmaline
##STATUS=The identification of this mineral has been confirmed by X-ray diffraction and chemical analysis
##URL=rruff.info/R050520
##MEASURED CHEMISTRY=Ca_1.00_Be_1.00_(P_1.00_O_4_)((OH)_0.53_F_0.47_)_Î£=1_ ; Be not measured but estimated by difference and charge balance
3.741225e+002, 1.474263e-001
3.760510e+002, 1.437703e-001
3.779795e+002, 1.278262e-001
3.799079e+002, 1.008427e-001
3.818364e+002, 7.783058e-002
3.837649e+002, 6.364328e-002
3.856933e+002, 5.356948e-002
3.876218e+002, 4.857991e-002
3.895503e+002, 4.943561e-002
3.914787e+002, 5.290249e-002
3.934072e+002, 5.741905e-002
3.953357e+002, 6.424326e-002
3.972641e+002, 7.168427e-002
3.991926e+002, 7.790440e-002
4.011211e+002, 8.684471e-002
4.030495e+002, 1.035760e-001
4.049780e+002, 1.208112e-001
4.069065e+002, 1.341687e-001
4.088349e+002, 1.440867e-001
4.107634e+002, 1.537535e-001
4.126919e+002, 1.642389e-001
4.146203e+002, 1.703444e-001
4.165488e+002, 1.737648e-001
4.184773e+002, 1.695546e-001
4.204057e+002, 1.510444e-001
4.223342e+002, 1.250258e-001
4.242627e+002, 1.008761e-001
4.261911e+002, 8.305376e-002
4.281196e+002, 7.117102e-002
4.300481e+002, 6.602842e-002
4.319765e+002, 6.472355e-002
4.339050e+002, 6.591796e-002
4.358335e+002, 6.809495e-002
4.377619e+002, 7.141070e-002
4.396904e+002, 7.735137e-002
4.416189e+002, 8.473708e-002
4.435473e+002, 9.335531e-002
4.454758e+002, 1.043966e-001
4.474043e+002, 1.152670e-001
4.493327e+002, 1.240712e-001
4.512612e+002, 1.352735e-001
4.531897e+002, 1.484621e-001
4.551181e+002, 1.625795e-001
4.570466e+002, 1.776547e-001
4.589751e+002, 1.924373e-001
4.609035e+002, 1.993061e-001
4.628320e+002, 1.949703e-001
4.647605e+002, 1.791282e-001
4.666889e+002, 1.562682e-001
4.686174e+002, 1.339253e-001
4.705459e+002, 1.150295e-001
4.724743e+002, 1.035331e-001
4.744028e+002, 9.930023e-002
4.763313e+002, 1.021057e-001
4.782597e+002, 1.123708e-001
4.801882e+002, 1.219139e-001
4.821167e+002, 1.131598e-001
4.840451e+002, 9.176363e-002
4.859736e+002, 7.846576e-002
4.879021e+002, 7.622226e-002
4.898305e+002, 7.868111e-002
4.917590e+002, 8.375869e-002
4.936875e+002, 8.989968e-002
4.956159e+002, 9.601499e-002
4.975444e+002, 1.030414e-001
4.994729e+002, 1.105925e-001
5.014013e+002, 1.181852e-001
5.033298e+002, 1.258918e-001
5.052583e+002, 1.348260e-001
5.071867e+002, 1.443325e-001
5.091152e+002, 1.532548e-001
5.110437e+002, 1.637719e-001
5.129721e+002, 1.740283e-001
5.149006e+002, 1.804592e-001
5.168290e+002, 1.861752e-001
5.187575e+002, 1.952343e-001
5.206860e+002, 2.064642e-001
5.226144e+002, 2.178957e-001
5.245429e+002, 2.303418e-001
5.264714e+002, 2.433262e-001
5.283998e+002, 2.562350e-001
5.303283e+002, 2.702702e-001
5.322568e+002, 2.842412e-001
5.341852e+002, 2.990659e-001
5.361137e+002, 3.137557e-001
5.380422e+002, 3.251601e-001
5.399706e+002, 3.343242e-001
5.418991e+002, 3.400957e-001
5.438276e+002, 3.408321e-001
5.457560e+002, 3.363171e-001
5.476845e+002, 3.266404e-001
5.496130e+002, 3.131886e-001
5.515414e+002, 2.970752e-001
5.534699e+002, 2.770491e-001
5.553984e+002, 2.533467e-001
5.573268e+002, 2.297973e-001
5.592553e+002, 2.074942e-001
5.611838e+002, 1.887914e-001
5.631122e+002, 1.782924e-001
5.650407e+002, 1.806106e-001
5.669692e+002, 1.932630e-001
5.688976e+002, 2.047615e-001
5.708261e+002, 2.054390e-001
5.727546e+002, 1.955367e-001
5.746830e+002, 1.828377e-001
5.766115e+002, 1.705022e-001
5.785400e+002, 1.593001e-001
5.804684e+002, 1.492512e-001
5.823969e+002, 1.392363e-001
5.843254e+002, 1.283991e-001
5.862538e+002, 1.171744e-001
5.881823e+002, 1.052628e-001
5.901108e+002, 9.283123e-002
5.920392e+002, 8.020785e-002
5.939677e+002, 6.783511e-002
5.958962e+002, 5.721681e-002
5.978246e+002, 4.886534e-002
5.997531e+002, 4.305984e-002
6.016816e+002, 3.962184e-002
6.036100e+002, 3.780959e-002
6.055385e+002, 3.690282e-002
6.074670e+002, 3.679668e-002
6.093954e+002, 3.724648e-002
6.113239e+002, 3.882591e-002
6.132524e+002, 4.139022e-002
6.151808e+002, 4.552849e-002
6.171093e+002, 5.210752e-002
6.190378e+002, 6.023401e-002
6.209662e+002, 6.642205e-002
6.228947e+002, 6.925099e-002
6.248232e+002, 7.240762e-002
6.267516e+002, 7.976428e-002
6.286801e+002, 9.216665e-002
6.306086e+002, 1.079205e-001
6.325370e+002, 1.220003e-001
6.344655e+002, 1.272960e-001
6.363940e+002, 1.197028e-001
6.383224e+002, 1.021508e-001
6.402509e+002, 8.155609e-002
6.421794e+002, 6.459531e-002
6.441078e+002, 5.482040e-002
6.460363e+002, 5.121152e-002
6.479648e+002, 5.169603e-002
6.498932e+002, 5.448416e-002
6.518217e+002, 5.879033e-002
6.537502e+002, 6.484392e-002
6.556786e+002, 7.292137e-002
6.576071e+002, 8.247461e-002
6.595356e+002, 9.292782e-002
6.614641e+002, 1.034179e-001
6.633925e+002, 1.125418e-001
6.653210e+002, 1.196764e-001
6.672495e+002, 1.258394e-001
6.691779e+002, 1.323188e-001
6.711064e+002, 1.401746e-001
6.730349e+002, 1.503291e-001
6.749633e+002, 1.623681e-001
6.768918e+002, 1.747924e-001
6.788203e+002, 1.871706e-001
6.807487e+002, 1.997903e-001
6.826772e+002, 2.125702e-001
6.846057e+002, 2.255469e-001
6.865341e+002, 2.387671e-001
6.884626e+002, 2.513237e-001
6.903911e+002, 2.621208e-001
6.923195e+002, 2.706794e-001
6.942480e+002, 2.761003e-001
6.961765e+002, 2.771138e-001
6.981049e+002, 2.728416e-001
7.000334e+002, 2.655310e-001
7.019619e+002, 2.580072e-001
7.038903e+002, 2.532488e-001
7.058188e+002, 2.506811e-001
7.077473e+002, 2.488772e-001
7.096757e+002, 2.472750e-001
7.116042e+002, 2.457774e-001
7.135327e+002, 2.445319e-001
7.154611e+002, 2.442115e-001
7.173896e+002, 2.454893e-001
7.193181e+002, 2.479672e-001
7.212465e+002, 2.508458e-001
7.231750e+002, 2.533288e-001
7.251035e+002, 2.548101e-001
7.270319e+002, 2.541261e-001
7.289604e+002, 2.514908e-001
7.308889e+002, 2.472038e-001
7.328173e+002, 2.407082e-001
7.347458e+002, 2.326367e-001
7.366743e+002, 2.235217e-001
7.386027e+002, 2.138650e-001
7.405312e+002, 2.047955e-001
7.424597e+002, 1.966253e-001
7.443881e+002, 1.898784e-001
7.463166e+002, 1.851120e-001
7.482451e+002, 1.823687e-001
7.501735e+002, 1.824983e-001
7.521020e+002, 1.857185e-001
7.540305e+002, 1.915721e-001
7.559589e+002, 1.993176e-001
7.578874e+002, 2.082078e-001
7.598159e+002, 2.175485e-001
7.617443e+002, 2.270939e-001
7.636728e+002, 2.372904e-001
7.656013e+002, 2.481959e-001
7.675297e+002, 2.596933e-001
7.694582e+002, 2.715916e-001
7.713867e+002, 2.838697e-001
7.733151e+002, 2.954795e-001
7.752436e+002, 3.053923e-001
7.771721e+002, 3.120318e-001
7.791005e+002, 3.139583e-001
7.810290e+002, 3.116381e-001
7.829575e+002, 3.064575e-001
7.848859e+002, 2.992039e-001
7.868144e+002, 2.907151e-001
7.887429e+002, 2.812743e-001
7.906713e+002, 2.710642e-001
7.925998e+002, 2.605286e-001
7.945283e+002, 2.498168e-001
7.964567e+002, 2.400651e-001
7.983852e+002, 2.309808e-001
8.003137e+002, 2.227500e-001
8.022421e+002, 2.156921e-001
8.041706e+002, 2.094369e-001
8.060991e+002, 2.035040e-001
8.080275e+002, 1.977045e-001
8.099560e+002, 1.920728e-001
8.118845e+002, 1.865310e-001
8.138129e+002, 1.810169e-001
8.157414e+002, 1.755522e-001
8.176699e+002, 1.702494e-001
8.195983e+002, 1.651885e-001
8.215268e+002, 1.603411e-001
8.234553e+002, 1.554787e-001
8.253837e+002, 1.506665e-001
8.273122e+002, 1.462714e-001
8.292407e+002, 1.422168e-001
8.311691e+002, 1.383069e-001
8.330976e+002, 1.341307e-001
8.350261e+002, 1.300257e-001
8.369545e+002, 1.256881e-001
8.388830e+002, 1.212182e-001
8.408115e+002, 1.166183e-001
8.427399e+002, 1.118218e-001
8.446684e+002, 1.070883e-001
8.465969e+002, 1.019384e-001
8.485253e+002, 9.661572e-002
8.504538e+002, 9.159914e-002
8.523823e+002, 8.668823e-002
8.543107e+002, 8.192980e-002
8.562392e+002, 7.716332e-002
8.581677e+002, 7.274304e-002
8.600961e+002, 6.802037e-002
8.620246e+002, 6.314311e-002
8.639531e+002, 5.853902e-002
8.658815e+002, 5.444543e-002
8.678100e+002, 5.059846e-002
8.697385e+002, 4.703992e-002
8.716669e+002, 4.431907e-002
8.735954e+002, 4.232252e-002
8.755239e+002, 4.103296e-002
8.774523e+002, 4.044285e-002
8.793808e+002, 4.049778e-002
8.813093e+002, 4.127260e-002
8.832377e+002, 4.265431e-002
8.851662e+002, 4.499554e-002
8.870947e+002, 4.826769e-002
8.890231e+002, 5.207349e-002
8.909516e+002, 5.650572e-002
8.928801e+002, 6.131925e-002
8.948085e+002, 6.613368e-002
8.967370e+002, 7.022026e-002
8.986655e+002, 7.332505e-002
9.005939e+002, 7.477070e-002
9.025224e+002, 7.402365e-002
9.044509e+002, 7.109828e-002
9.063793e+002, 6.676984e-002
9.083078e+002, 6.145291e-002
9.102363e+002, 5.592084e-002
9.121647e+002, 5.117476e-002
9.140932e+002, 4.735572e-002
9.160217e+002, 4.451614e-002
9.179501e+002, 4.269274e-002
9.198786e+002, 4.155850e-002
9.218071e+002, 4.097541e-002
9.237355e+002, 4.089810e-002
9.256640e+002, 4.134112e-002
9.275925e+002, 4.225722e-002
9.295209e+002, 4.362046e-002
9.314494e+002, 4.543067e-002
9.333779e+002, 4.789481e-002
9.353063e+002, 5.072096e-002
9.372348e+002, 5.373642e-002
9.391633e+002, 5.709100e-002
9.410917e+002, 6.089865e-002
9.430202e+002, 6.513059e-002
9.449487e+002, 6.993710e-002
9.468771e+002, 7.536050e-002
9.488056e+002, 8.165172e-002
9.507341e+002, 8.864425e-002
9.526625e+002, 9.642660e-002
9.545910e+002, 1.050598e-001
9.565195e+002, 1.145134e-001
9.584479e+002, 1.249148e-001
9.603764e+002, 1.365459e-001
9.623049e+002, 1.496390e-001
9.642333e+002, 1.640729e-001
9.661618e+002, 1.800770e-001
9.680903e+002, 1.979969e-001
9.700187e+002, 2.177092e-001
9.719472e+002, 2.380986e-001
9.738757e+002, 2.570312e-001
9.758041e+002, 2.724595e-001
9.777326e+002, 2.837369e-001
9.796611e+002, 2.920225e-001
9.815895e+002, 2.987518e-001
9.835180e+002, 3.048448e-001
9.854465e+002, 3.109488e-001
9.873749e+002, 3.171376e-001
9.893034e+002, 3.233796e-001
9.912319e+002, 3.295133e-001
9.931603e+002, 3.356740e-001
9.950888e+002, 3.414770e-001
9.970173e+002, 3.463789e-001
9.989457e+002, 3.503639e-001
1.000874e+003, 3.529258e-001
1.002803e+003, 3.539600e-001
1.004731e+003, 3.537932e-001
1.006660e+003, 3.526495e-001
1.008588e+003, 3.503392e-001
1.010517e+003, 3.460915e-001
1.012445e+003, 3.400273e-001
1.014373e+003, 3.329783e-001
1.016302e+003, 3.247660e-001
1.018230e+003, 3.156562e-001
1.020159e+003, 3.064454e-001
1.022087e+003, 2.982685e-001
1.024016e+003, 2.922449e-001
1.025944e+003, 2.875474e-001
1.027873e+003, 2.822900e-001
1.029801e+003, 2.747240e-001
1.031730e+003, 2.647994e-001
1.033658e+003, 2.530056e-001
1.035587e+003, 2.397460e-001
1.037515e+003, 2.254064e-001
1.039443e+003, 2.107715e-001
1.041372e+003, 1.964158e-001
1.043300e+003, 1.821864e-001
1.045229e+003, 1.679657e-001
1.047157e+003, 1.536493e-001
1.049086e+003, 1.397454e-001
1.051014e+003, 1.265890e-001
1.052943e+003, 1.149276e-001
1.054871e+003, 1.056252e-001
1.056800e+003, 9.973853e-002
1.058728e+003, 9.779662e-002
1.060657e+003, 9.947319e-002
1.062585e+003, 1.048362e-001
1.064514e+003, 1.145321e-001
1.066442e+003, 1.296590e-001
1.068370e+003, 1.510282e-001
1.070299e+003, 1.770050e-001
1.072227e+003, 2.041822e-001
1.074156e+003, 2.273731e-001
1.076084e+003, 2.421186e-001
1.078013e+003, 2.479976e-001
1.079941e+003, 2.478945e-001
1.081870e+003, 2.449089e-001
1.083798e+003, 2.416229e-001
1.085727e+003, 2.398582e-001
1.087655e+003, 2.402049e-001
1.089584e+003, 2.430484e-001
1.091512e+003, 2.487909e-001
1.093441e+003, 2.575780e-001
1.095369e+003, 2.684865e-001
1.097297e+003, 2.788196e-001
1.099226e+003, 2.847353e-001
1.101154e+003, 2.839141e-001
1.103083e+003, 2.770681e-001
1.105011e+003, 2.662093e-001
1.106940e+003, 2.533133e-001
1.108868e+003, 2.402328e-001
1.110797e+003, 2.277829e-001
1.112725e+003, 2.163796e-001
1.114654e+003, 2.061408e-001
1.116582e+003, 1.967730e-001
1.118511e+003, 1.877620e-001
1.120439e+003, 1.786241e-001
1.122368e+003, 1.698786e-001
1.124296e+003, 1.620331e-001
1.126224e+003, 1.552042e-001
1.128153e+003, 1.498771e-001
1.130081e+003, 1.459052e-001
1.132010e+003, 1.432189e-001
1.133938e+003, 1.422646e-001
1.135867e+003, 1.429879e-001
1.137795e+003, 1.446823e-001
1.139724e+003, 1.471562e-001
1.141652e+003, 1.500838e-001
1.143581e+003, 1.518906e-001
1.145509e+003, 1.501110e-001
1.147438e+003, 1.433088e-001
1.149366e+003, 1.328097e-001
1.151295e+003, 1.213682e-001
1.153223e+003, 1.107445e-001
1.155151e+003, 1.013517e-001
1.157080e+003, 9.316661e-002
1.159008e+003, 8.607434e-002
1.160937e+003, 7.970738e-002
1.162865e+003, 7.358660e-002
1.164794e+003, 6.781905e-002
1.166722e+003, 6.240817e-002
1.168651e+003, 5.714184e-002
1.170579e+003, 5.171885e-002
1.172508e+003, 4.643324e-002
1.174436e+003, 4.139191e-002
1.176365e+003, 3.656902e-002
1.178293e+003, 3.202959e-002
1.180222e+003, 2.779103e-002
1.182150e+003, 2.401190e-002
1.184078e+003, 2.075580e-002
1.186007e+003, 1.790434e-002
1.187935e+003, 1.568006e-002
1.189864e+003, 1.386805e-002
1.191792e+003, 1.228645e-002
1.193721e+003, 1.099880e-002
1.195649e+003, 9.911951e-003
1.197578e+003, 9.072048e-003
1.199506e+003, 8.385577e-003
1.201435e+003, 7.850314e-003
1.203363e+003, 7.474876e-003
1.205292e+003, 7.139944e-003
1.207220e+003, 6.900937e-003
1.209149e+003, 6.670211e-003
1.211077e+003, 6.284992e-003
1.213005e+003, 5.960508e-003
1.214934e+003, 5.785970e-003
1.216862e+003, 5.689877e-003
1.218791e+003, 5.663714e-003
1.220719e+003, 5.439601e-003
1.222648e+003, 5.197871e-003
1.224576e+003, 5.018054e-003
1.226505e+003, 4.853581e-003
1.228433e+003, 4.736910e-003
1.230362e+003, 4.615347e-003
1.232290e+003, 4.426355e-003
1.234219e+003, 4.259731e-003
1.236147e+003, 4.118209e-003
1.238076e+003, 3.923224e-003
1.240004e+003, 3.764829e-003
1.241932e+003, 3.718109e-003
1.243861e+003, 3.659331e-003
1.245789e+003, 3.607708e-003
1.247718e+003, 3.549430e-003
1.249646e+003, 3.373794e-003
1.251575e+003, 3.236710e-003
1.253503e+003, 3.195591e-003
1.255432e+003, 3.142871e-003
1.257360e+003, 3.055042e-003
1.259289e+003, 3.025334e-003
1.261217e+003, 3.030446e-003
1.263146e+003, 2.889338e-003
1.265074e+003, 2.748674e-003
1.267003e+003, 2.691545e-003
1.268931e+003, 2.704448e-003
1.270859e+003, 2.760364e-003
1.272788e+003, 2.909957e-003
1.274716e+003, 2.953150e-003
1.276645e+003, 2.992510e-003
1.278573e+003, 2.966850e-003
1.280502e+003, 2.890136e-003
1.282430e+003, 2.850480e-003
1.284359e+003, 2.702248e-003
1.286287e+003, 2.683720e-003
1.288216e+003, 2.675453e-003
1.290144e+003, 2.487534e-003
1.292073e+003, 2.441180e-003
1.294001e+003, 2.376563e-003
1.295930e+003, 2.380556e-003
1.297858e+003, 2.403430e-003
1.299786e+003, 2.376324e-003
1.301715e+003, 2.398720e-003
1.303643e+003, 2.473747e-003
1.305572e+003, 2.437548e-003
1.307500e+003, 2.190510e-003
1.309429e+003, 1.993466e-003
1.311357e+003, 2.009950e-003
1.313286e+003, 2.101236e-003
1.315214e+003, 2.116689e-003
1.317143e+003, 1.971798e-003
1.319071e+003, 1.861186e-003
1.321000e+003, 1.937846e-003
1.322928e+003, 1.947704e-003
1.324857e+003, 1.859277e-003
1.326785e+003, 1.776243e-003
1.328714e+003, 1.628221e-003
1.330642e+003, 1.591806e-003
1.332570e+003, 1.575285e-003
1.334499e+003, 1.562301e-003
1.336427e+003, 1.561757e-003
1.338356e+003, 1.529053e-003
1.340284e+003, 1.535928e-003
1.342213e+003, 1.547765e-003
1.344141e+003, 1.452512e-003
1.346070e+003, 1.460003e-003
1.347998e+003, 1.462720e-003
1.349927e+003, 1.429481e-003
1.351855e+003, 1.341321e-003
1.353784e+003, 1.317880e-003
1.355712e+003, 1.432891e-003
1.357641e+003, 1.504509e-003
1.359569e+003, 1.472914e-003
1.361497e+003, 1.612630e-003
1.363426e+003, 1.615642e-003
1.365354e+003, 1.538411e-003
1.367283e+003, 1.534547e-003
1.369211e+003, 1.552270e-003
1.371140e+003, 1.553862e-003
1.373068e+003, 1.694407e-003
1.374997e+003, 1.798817e-003
1.376925e+003, 1.867332e-003
1.378854e+003, 1.868664e-003
1.380782e+003, 1.908587e-003
1.382711e+003, 1.961632e-003
1.384639e+003, 2.042250e-003
1.386568e+003, 2.058471e-003
1.388496e+003, 2.003829e-003
1.390424e+003, 2.051173e-003
1.392353e+003, 2.163232e-003
1.394281e+003, 2.386169e-003
1.396210e+003, 2.523897e-003
1.398138e+003, 2.523109e-003
1.400067e+003, 2.532936e-003
1.401995e+003, 2.617139e-003
1.403924e+003, 2.643776e-003
1.405852e+003, 2.582680e-003
1.407781e+003, 2.689481e-003
1.409709e+003, 2.907983e-003
1.411638e+003, 2.994918e-003
1.413566e+003, 2.953469e-003
1.415495e+003, 3.020146e-003
1.417423e+003, 3.231626e-003
1.419351e+003, 3.423556e-003
1.421280e+003, 3.313028e-003
1.423208e+003, 3.313465e-003
1.425137e+003, 3.201483e-003
1.427065e+003, 3.146897e-003
1.428994e+003, 3.261675e-003
1.430922e+003, 3.316658e-003
1.432851e+003, 3.292561e-003
1.434779e+003, 3.480122e-003
1.436708e+003, 3.720232e-003
1.438636e+003, 3.406310e-003
1.440565e+003, 3.271408e-003
1.442493e+003, 3.365371e-003
1.444422e+003, 3.470406e-003
1.446350e+003, 3.515542e-003
1.448278e+003, 3.537191e-003
1.450207e+003, 3.492587e-003
1.452135e+003, 3.411147e-003
1.454064e+003, 3.627218e-003
1.455992e+003, 3.997114e-003
1.457921e+003, 3.881108e-003
1.459849e+003, 3.548816e-003
1.461778e+003, 3.478728e-003
1.463706e+003, 3.597014e-003
1.465635e+003, 3.560615e-003
1.467563e+003, 3.229500e-003
1.469492e+003, 3.111987e-003
1.471420e+003, 3.320561e-003
1.473349e+003, 3.405760e-003
1.475277e+003, 3.203655e-003
1.477205e+003, 3.059672e-003
1.479134e+003, 2.907869e-003
1.481062e+003, 2.839630e-003
1.482991e+003, 2.775603e-003
1.484919e+003, 2.800734e-003
1.486848e+003, 2.968591e-003
1.488776e+003, 3.065645e-003
1.490705e+003, 2.944848e-003
1.492633e+003, 2.731330e-003
1.494562e+003, 2.846891e-003
1.496490e+003, 3.048389e-003
1.498419e+003, 2.951498e-003
1.500347e+003, 2.894415e-003
1.502276e+003, 2.901673e-003
1.504204e+003, 3.160542e-003
1.506132e+003, 3.557227e-003
1.508061e+003, 3.391420e-003
1.509989e+003, 3.080509e-003
1.511918e+003, 2.977944e-003
1.513846e+003, 2.899409e-003
1.515775e+003, 2.979166e-003
1.517703e+003, 3.095097e-003
1.519632e+003, 3.266584e-003
1.521560e+003, 3.395553e-003
1.523489e+003, 3.149357e-003
1.525417e+003, 3.023551e-003
1.527346e+003, 3.058733e-003
1.529274e+003, 3.051644e-003
1.531203e+003, 3.176696e-003
1.533131e+003, 3.289415e-003
1.535059e+003, 3.209612e-003
1.536988e+003, 3.383494e-003
1.538916e+003, 3.949129e-003
1.540845e+003, 4.030135e-003
1.542773e+003, 3.744313e-003
1.544702e+003, 3.600129e-003
1.546630e+003, 3.485658e-003
1.548559e+003, 3.479414e-003
1.550487e+003, 3.489322e-003
1.552416e+003, 3.562998e-003
1.554344e+003, 3.788372e-003
1.556273e+003, 3.886674e-003
1.558201e+003, 4.373163e-003
1.560130e+003, 4.334339e-003
1.562058e+003, 3.801901e-003
1.563986e+003, 3.620535e-003
1.565915e+003, 3.540402e-003
1.567843e+003, 3.534060e-003
1.569772e+003, 3.683452e-003
1.571700e+003, 3.633479e-003
1.573629e+003, 3.630692e-003
1.575557e+003, 4.039941e-003
1.577486e+003, 3.954781e-003
1.579414e+003, 3.484454e-003
1.581343e+003, 3.449797e-003
1.583271e+003, 3.417684e-003
1.585200e+003, 3.402006e-003
1.587128e+003, 3.356264e-003
1.589057e+003, 3.429063e-003
1.590985e+003, 3.623282e-003
1.592913e+003, 3.759642e-003
1.594842e+003, 3.765582e-003
1.596770e+003, 3.713493e-003
1.598699e+003, 3.698442e-003
1.600627e+003, 3.741354e-003
1.602556e+003, 3.709982e-003
1.604484e+003, 3.678328e-003
1.606413e+003, 3.624920e-003
1.608341e+003, 3.550275e-003
1.610270e+003, 3.621040e-003
1.612198e+003, 3.597306e-003
1.614127e+003, 3.724732e-003
1.616055e+003, 4.118044e-003
1.617984e+003, 3.876850e-003
1.619912e+003, 3.470303e-003
1.621840e+003, 3.519432e-003
1.623769e+003, 3.716685e-003
1.625697e+003, 3.686187e-003
1.627626e+003, 3.639494e-003
1.629554e+003, 3.519876e-003
1.631483e+003, 3.495481e-003
1.633411e+003, 3.639472e-003
1.635340e+003, 3.990412e-003
1.637268e+003, 3.721928e-003
1.639197e+003, 3.355114e-003
1.641125e+003, 3.239865e-003
1.643054e+003, 3.312910e-003
1.644982e+003, 3.688218e-003
1.646911e+003, 3.827886e-003
1.648839e+003, 3.524382e-003
1.650767e+003, 3.700693e-003
1.652696e+003, 4.292740e-003
1.654624e+003, 3.864502e-003
1.656553e+003, 3.155758e-003
1.658481e+003, 3.072142e-003
1.660410e+003, 3.049546e-003
1.662338e+003, 3.025287e-003
1.664267e+003, 2.881593e-003
1.666195e+003, 2.812070e-003
1.668124e+003, 3.026538e-003
1.670052e+003, 3.033670e-003
1.671981e+003, 2.760322e-003
1.673909e+003, 2.844313e-003
1.675838e+003, 2.869799e-003
1.677766e+003, 2.512295e-003
1.679694e+003, 2.522019e-003
1.681623e+003, 2.638038e-003
1.683551e+003, 3.137267e-003
1.685480e+003, 3.151373e-003
1.687408e+003, 2.588609e-003
1.689337e+003, 2.504645e-003
1.691265e+003, 2.542841e-003
1.693194e+003, 2.740912e-003
1.695122e+003, 3.313930e-003
1.697051e+003, 3.248200e-003
1.698979e+003, 3.154221e-003
1.700908e+003, 3.164507e-003
1.702836e+003, 2.638913e-003
1.704765e+003, 2.747260e-003
1.706693e+003, 2.731325e-003
1.708621e+003, 2.693117e-003
1.710550e+003, 2.588743e-003
1.712478e+003, 2.728411e-003
1.714407e+003, 2.988513e-003
1.716335e+003, 3.319711e-003
1.718264e+003, 3.284128e-003
1.720192e+003, 2.896149e-003
1.722121e+003, 2.817276e-003
1.724049e+003, 2.827458e-003
1.725978e+003, 2.814177e-003
1.727906e+003, 2.897466e-003
1.729835e+003, 3.095520e-003
1.731763e+003, 3.467259e-003
1.733692e+003, 3.802818e-003
1.735620e+003, 3.448747e-003
1.737548e+003, 2.985727e-003
1.739477e+003, 2.885102e-003
1.741405e+003, 2.727858e-003
1.743334e+003, 2.629297e-003
1.745262e+003, 2.511379e-003
1.747191e+003, 2.462788e-003
1.749119e+003, 2.299374e-003
1.751048e+003, 2.171311e-003
1.752976e+003, 1.960464e-003
1.754905e+003, 1.981546e-003
1.756833e+003, 2.166920e-003
1.758762e+003, 2.232921e-003
1.760690e+003, 2.266944e-003
1.762619e+003, 2.384265e-003
1.764547e+003, 2.408495e-003
1.766475e+003, 2.251130e-003
1.768404e+003, 2.260796e-003
1.770332e+003, 2.475942e-003
1.772261e+003, 2.721075e-003
1.774189e+003, 2.526592e-003
1.776118e+003, 2.278063e-003
1.778046e+003, 2.165544e-003
1.779975e+003, 2.173079e-003
1.781903e+003, 2.144037e-003
1.783832e+003, 2.237322e-003
1.785760e+003, 2.376751e-003
1.787689e+003, 2.345480e-003
1.789617e+003, 2.369941e-003
1.791546e+003, 2.440477e-003
1.793474e+003, 2.429974e-003
1.795402e+003, 2.310310e-003
1.797331e+003, 2.308475e-003
1.799259e+003, 2.387953e-003
1.801188e+003, 2.320447e-003
1.803116e+003, 2.057092e-003
1.805045e+003, 2.002014e-003
1.806973e+003, 2.011822e-003
1.808902e+003, 2.232169e-003
1.810830e+003, 2.345075e-003
1.812759e+003, 2.211363e-003
1.814687e+003, 1.909673e-003
1.816616e+003, 1.904811e-003
1.818544e+003, 2.168398e-003
1.820473e+003, 2.433413e-003
1.822401e+003, 2.570574e-003
1.824329e+003, 2.722358e-003
1.826258e+003, 2.626866e-003
1.828186e+003, 2.698172e-003
1.830115e+003, 2.702224e-003
1.832043e+003, 2.550185e-003
1.833972e+003, 2.441842e-003
1.835900e+003, 2.468928e-003
1.837829e+003, 2.493380e-003
1.839757e+003, 2.604900e-003
1.841686e+003, 2.558692e-003
1.843614e+003, 2.636804e-003
1.845543e+003, 2.639737e-003
1.847471e+003, 2.689226e-003
1.849400e+003, 2.657902e-003
1.851328e+003, 2.693224e-003
1.853256e+003, 2.627452e-003
1.855185e+003, 2.452327e-003
1.857113e+003, 2.346310e-003
1.859042e+003, 2.425778e-003
1.860970e+003, 2.544815e-003
1.862899e+003, 2.341405e-003
1.864827e+003, 2.157259e-003
1.866756e+003, 2.267464e-003
1.868684e+003, 2.424466e-003
1.870613e+003, 2.318119e-003
1.872541e+003, 2.255174e-003
1.874470e+003, 2.489333e-003
1.876398e+003, 2.706541e-003
1.878327e+003, 2.535791e-003
1.880255e+003, 2.179692e-003
1.882183e+003, 2.270389e-003
1.884112e+003, 2.276905e-003
1.886040e+003, 2.401104e-003
1.887969e+003, 2.389474e-003
1.889897e+003, 2.144156e-003
1.891826e+003, 2.244044e-003
1.893754e+003, 2.695729e-003
1.895683e+003, 2.481275e-003
1.897611e+003, 2.453322e-003
1.899540e+003, 2.546525e-003
1.901468e+003, 2.582593e-003
1.903397e+003, 2.388089e-003
1.905325e+003, 2.628807e-003
1.907254e+003, 2.841450e-003
1.909182e+003, 2.785464e-003
1.911110e+003, 2.737940e-003
1.913039e+003, 2.538387e-003
1.914967e+003, 2.493424e-003
1.916896e+003, 2.603243e-003
1.918824e+003, 2.444552e-003
1.920753e+003, 2.446340e-003
1.922681e+003, 2.320624e-003
1.924610e+003, 1.894065e-003
1.926538e+003, 2.054681e-003
1.928467e+003, 2.448626e-003
1.930395e+003, 2.259269e-003
1.932324e+003, 2.290122e-003
1.934252e+003, 2.353648e-003
1.936181e+003, 2.282489e-003
1.938109e+003, 2.038202e-003
1.940037e+003, 1.437350e-003
1.941966e+003, 1.127087e-003
1.943894e+003, 1.122942e-003
1.945823e+003, 9.550729e-004
1.947751e+003, 1.676366e-003
1.949680e+003, 2.552920e-003
1.951608e+003, 2.232976e-003
1.953537e+003, 1.410183e-003
1.955465e+003, 6.271272e-004
1.957394e+003, 8.577541e-004
1.959322e+003, 2.177433e-003
1.961251e+003, 3.041998e-003
1.963179e+003, 2.861504e-003
1.965108e+003, 2.792409e-003
1.967036e+003, 1.927438e-003
1.968964e+003, 1.205606e-003
1.970893e+003, 1.602757e-003
1.972821e+003, 2.138807e-003
1.974750e+003, 2.971934e-003
1.976678e+003, 3.934358e-003
1.978607e+003, 4.526748e-003
1.980535e+003, 3.742954e-003
1.982464e+003, 3.598134e-003
1.984392e+003, 4.009242e-003
1.986321e+003, 3.245910e-003
1.988249e+003, 1.847525e-003
1.990178e+003, 2.141172e-003
1.992106e+003, 3.063614e-003
1.994035e+003, 3.063206e-003
1.995963e+003, 3.431870e-003
1.997891e+003, 4.404825e-003
1.999820e+003, 4.424870e-003
2.001748e+003, 2.726944e-003
2.003677e+003, 1.566200e-003
2.005605e+003, 2.527708e-003
2.007534e+003, 4.408580e-003
2.009462e+003, 4.466454e-003
2.011391e+003, 4.139799e-003
2.013319e+003, 3.990658e-003
2.015248e+003, 3.680883e-003
2.017176e+003, 4.378350e-003
2.019105e+003, 4.346692e-003
2.021033e+003, 3.424666e-003
2.022962e+003, 2.415675e-003
2.024890e+003, 2.922889e-003
2.026818e+003, 3.781018e-003
2.028747e+003, 4.910396e-003
2.030675e+003, 5.029361e-003
2.032604e+003, 4.873015e-003
2.034532e+003, 4.058158e-003
2.036461e+003, 3.452340e-003
2.038389e+003, 3.071124e-003
2.040318e+003, 3.094277e-003
2.042246e+003, 3.247739e-003
2.044175e+003, 3.687073e-003
2.046103e+003, 3.090143e-003
2.048031e+003, 3.071784e-003
2.049960e+003, 4.486305e-003
2.051888e+003, 4.123980e-003
2.053817e+003, 3.175889e-003
2.055745e+003, 3.318230e-003
2.057674e+003, 3.707887e-003
2.059602e+003, 3.474163e-003
2.061531e+003, 3.107988e-003
2.063459e+003, 2.711338e-003
2.065388e+003, 2.079805e-003
2.067316e+003, 2.536591e-003
2.069245e+003, 3.250666e-003
2.071173e+003, 3.518153e-003
2.073102e+003, 2.902347e-003
2.075030e+003, 3.080521e-003
2.076958e+003, 3.111819e-003
2.078887e+003, 3.359184e-003
2.080815e+003, 3.277911e-003
2.082744e+003, 3.024382e-003
2.084672e+003, 3.424061e-003
2.086601e+003, 3.207297e-003
2.088529e+003, 2.619957e-003
2.090458e+003, 2.797211e-003
2.092386e+003, 3.028025e-003
2.094315e+003, 2.731561e-003
2.096243e+003, 3.056240e-003
2.098172e+003, 4.327949e-003
2.100100e+003, 4.146731e-003
2.102029e+003, 3.749785e-003
2.103957e+003, 3.847118e-003
2.105885e+003, 3.981416e-003
2.107814e+003, 3.764004e-003
2.109742e+003, 3.333795e-003
2.111671e+003, 3.878139e-003
2.113599e+003, 4.097326e-003
2.115528e+003, 3.728248e-003
2.117456e+003, 3.347656e-003
2.119385e+003, 3.496204e-003
2.121313e+003, 3.258988e-003
2.123242e+003, 3.151057e-003
2.125170e+003, 3.527744e-003
2.127099e+003, 3.231270e-003
2.129027e+003, 2.980542e-003
2.130956e+003, 2.609936e-003
2.132884e+003, 2.023034e-003
2.134813e+003, 2.442886e-003
2.136741e+003, 3.072442e-003
2.138669e+003, 2.458992e-003
2.140598e+003, 2.588085e-003
2.142526e+003, 2.519797e-003
2.144455e+003, 1.835462e-003
2.146383e+003, 1.337818e-003
2.148312e+003, 1.303032e-003
2.150240e+003, 9.198813e-004
2.152169e+003, 8.838545e-004
2.154097e+003, 1.694995e-003
2.156026e+003, 1.564217e-003
2.157954e+003, 1.506976e-003
2.159883e+003, 3.225822e-003
2.161811e+003, 3.420178e-003
2.163740e+003, 3.209935e-003
2.165668e+003, 3.313281e-003
2.167596e+003, 2.997754e-003
2.169525e+003, 2.569000e-003
2.171453e+003, 2.014549e-003
2.173382e+003, 1.829094e-003
2.175310e+003, 2.886220e-003
2.177239e+003, 3.571742e-003
2.179167e+003, 3.117337e-003
2.181096e+003, 1.799067e-003
2.183024e+003, 2.006388e-003
2.184953e+003, 3.132844e-003
2.186881e+003, 3.362403e-003
2.188810e+003, 3.093406e-003
2.190738e+003, 2.695321e-003
2.192667e+003, 2.145844e-003
2.194595e+003, 3.018960e-003
2.196523e+003, 3.238708e-003
2.198452e+003, 2.439300e-003
2.200380e+003, 2.027340e-003
2.202309e+003, 2.222833e-003
2.204237e+003, 2.712672e-003
2.206166e+003, 2.507260e-003
2.208094e+003, 1.819418e-003
2.210023e+003, 2.116223e-003
2.211951e+003, 2.395440e-003
2.213880e+003, 2.118482e-003
2.215808e+003, 2.028292e-003
2.217737e+003, 3.483198e-003
2.219665e+003, 4.265706e-003
2.221594e+003, 4.002527e-003
2.223522e+003, 3.074829e-003
2.225450e+003, 2.848131e-003
2.227379e+003, 2.940443e-003
2.229307e+003, 3.287999e-003
2.231236e+003, 3.498864e-003
2.233164e+003, 3.441628e-003
2.235093e+003, 3.530605e-003
2.237021e+003, 4.029328e-003
2.238950e+003, 3.959230e-003
2.240878e+003, 3.751483e-003
2.242807e+003, 3.364420e-003
2.244735e+003, 3.182306e-003
2.246664e+003, 3.450959e-003
2.248592e+003, 4.284559e-003
2.250521e+003, 4.553791e-003
2.252449e+003, 4.326155e-003
2.254377e+003, 4.589343e-003
2.256306e+003, 4.587826e-003
2.258234e+003, 4.106252e-003
2.260163e+003, 3.897815e-003
2.262091e+003, 3.969916e-003
2.264020e+003, 4.221837e-003
2.265948e+003, 3.997621e-003
2.267877e+003, 3.598063e-003
2.269805e+003, 3.567194e-003
2.271734e+003, 4.116283e-003
2.273662e+003, 4.571095e-003
2.275591e+003, 4.633595e-003
2.277519e+003, 4.418215e-003
2.279448e+003, 4.352147e-003
2.281376e+003, 4.229790e-003
2.283304e+003, 3.880359e-003
2.285233e+003, 3.764441e-003
2.287161e+003, 3.843910e-003
2.289090e+003, 3.570881e-003
2.291018e+003, 3.229771e-003
2.292947e+003, 3.071282e-003
2.294875e+003, 3.156347e-003
2.296804e+003, 3.291898e-003
2.298732e+003, 3.320436e-003
2.300661e+003, 3.523065e-003
2.302589e+003, 4.028735e-003
2.304518e+003, 3.841323e-003
2.306446e+003, 2.975559e-003
2.308375e+003, 2.862122e-003
2.310303e+003, 3.529642e-003
2.312231e+003, 3.889046e-003
2.314160e+003, 3.677293e-003
2.316088e+003, 3.472299e-003
2.318017e+003, 3.892308e-003
2.319945e+003, 4.590733e-003
2.321874e+003, 5.137567e-003
2.323802e+003, 5.229595e-003
2.325731e+003, 4.597949e-003
2.327659e+003, 4.118551e-003
2.329588e+003, 4.143984e-003
2.331516e+003, 4.107004e-003
2.333445e+003, 4.078524e-003
2.335373e+003, 4.095594e-003
2.337302e+003, 4.236328e-003
2.339230e+003, 4.088234e-003
2.341158e+003, 4.023976e-003
2.343087e+003, 4.396675e-003
2.345015e+003, 4.175616e-003
2.346944e+003, 3.685536e-003
2.348872e+003, 3.575923e-003
2.350801e+003, 3.702788e-003
2.352729e+003, 4.008177e-003
2.354658e+003, 4.283659e-003
2.356586e+003, 4.675220e-003
2.358515e+003, 4.914129e-003
2.360443e+003, 4.955098e-003
2.362372e+003, 4.979624e-003
2.364300e+003, 5.044003e-003
2.366229e+003, 4.899616e-003
2.368157e+003, 4.707132e-003
2.370085e+003, 4.425740e-003
2.372014e+003, 4.257954e-003
2.373942e+003, 4.188587e-003
2.375871e+003, 4.138264e-003
2.377799e+003, 4.168082e-003
2.379728e+003, 4.075230e-003
2.381656e+003, 3.919468e-003
2.383585e+003, 3.814755e-003
2.385513e+003, 4.095227e-003
2.387442e+003, 4.220004e-003
2.389370e+003, 4.179857e-003
2.391299e+003, 4.387028e-003
2.393227e+003, 4.409761e-003
2.395156e+003, 4.268423e-003
2.397084e+003, 4.180507e-003
2.399012e+003, 4.259852e-003
2.400941e+003, 4.281457e-003
2.402869e+003, 4.291136e-003
2.404798e+003, 4.167108e-003
2.406726e+003, 4.159597e-003
2.408655e+003, 4.470137e-003
2.410583e+003, 4.798057e-003
2.412512e+003, 4.917091e-003
2.414440e+003, 4.908716e-003
2.416369e+003, 4.558601e-003
2.418297e+003, 4.407294e-003
2.420226e+003, 4.412170e-003
2.422154e+003, 4.766797e-003
2.424083e+003, 4.992905e-003
2.426011e+003, 4.724291e-003
2.427939e+003, 4.767121e-003
2.429868e+003, 5.222265e-003
2.431796e+003, 5.421316e-003
2.433725e+003, 5.216098e-003
2.435653e+003, 5.141558e-003
2.437582e+003, 4.952189e-003
2.439510e+003, 4.773008e-003
2.441439e+003, 4.965461e-003
2.443367e+003, 4.984107e-003
2.445296e+003, 5.022381e-003
2.447224e+003, 5.382330e-003
2.449153e+003, 5.833361e-003
2.451081e+003, 5.738082e-003
2.453010e+003, 5.184077e-003
2.454938e+003, 4.828081e-003
2.456866e+003, 5.094885e-003
2.458795e+003, 5.202016e-003
2.460723e+003, 5.251243e-003
2.462652e+003, 5.291867e-003
2.464580e+003, 5.281803e-003
2.466509e+003, 4.951334e-003
2.468437e+003, 4.826452e-003
2.470366e+003, 5.216722e-003
2.472294e+003, 5.287377e-003
2.474223e+003, 4.843859e-003
2.476151e+003, 4.742241e-003
2.478080e+003, 5.175086e-003
2.480008e+003, 5.346820e-003
2.481937e+003, 5.067464e-003
2.483865e+003, 5.161206e-003
2.485793e+003, 5.220650e-003
2.487722e+003, 5.223796e-003
2.489650e+003, 5.191646e-003
2.491579e+003, 5.190847e-003
2.493507e+003, 5.226251e-003
2.495436e+003, 5.180936e-003
2.497364e+003, 5.048274e-003
2.499293e+003, 5.054661e-003
2.501221e+003, 5.152153e-003
2.503150e+003, 4.909589e-003
2.505078e+003, 4.755548e-003
2.507007e+003, 4.979067e-003
2.508935e+003, 5.359575e-003
2.510864e+003, 5.463693e-003
2.512792e+003, 5.471145e-003
2.514720e+003, 5.301794e-003
2.516649e+003, 5.200955e-003
2.518577e+003, 5.215682e-003
2.520506e+003, 5.270701e-003
2.522434e+003, 5.055401e-003
2.524363e+003, 4.612270e-003
2.526291e+003, 4.558463e-003
2.528220e+003, 4.864216e-003
2.530148e+003, 5.182964e-003
2.532077e+003, 5.025773e-003
2.534005e+003, 4.931441e-003
2.535934e+003, 4.865308e-003
2.537862e+003, 4.916821e-003
2.539791e+003, 5.228028e-003
2.541719e+003, 5.199939e-003
2.543647e+003, 5.424479e-003
2.545576e+003, 5.701295e-003
2.547504e+003, 5.519500e-003
2.549433e+003, 5.551772e-003
2.551361e+003, 5.537631e-003
2.553290e+003, 5.445488e-003
2.555218e+003, 5.524568e-003
2.557147e+003, 5.679028e-003
2.559075e+003, 5.516639e-003
2.561004e+003, 5.465891e-003
2.562932e+003, 5.464797e-003
2.564861e+003, 5.568243e-003
2.566789e+003, 5.659197e-003
2.568718e+003, 5.644897e-003
2.570646e+003, 5.742016e-003
2.572574e+003, 5.707182e-003
2.574503e+003, 5.774046e-003
2.576431e+003, 5.787823e-003
2.578360e+003, 5.926132e-003
2.580288e+003, 6.393297e-003
2.582217e+003, 6.394560e-003
2.584145e+003, 6.279132e-003
2.586074e+003, 6.299167e-003
2.588002e+003, 6.009100e-003
2.589931e+003, 5.573267e-003
2.591859e+003, 5.661231e-003
2.593788e+003, 5.833101e-003
2.595716e+003, 5.996095e-003
2.597645e+003, 6.027890e-003
2.599573e+003, 5.949255e-003
2.601501e+003, 5.969177e-003
2.603430e+003, 6.081233e-003
2.605358e+003, 6.050430e-003
2.607287e+003, 6.536499e-003
2.609215e+003, 6.583084e-003
2.611144e+003, 6.429517e-003
2.613072e+003, 6.549653e-003
2.615001e+003, 6.807402e-003
2.616929e+003, 6.657970e-003
2.618858e+003, 6.452829e-003
2.620786e+003, 6.487709e-003
2.622715e+003, 6.572378e-003
2.624643e+003, 6.620507e-003
2.626572e+003, 6.537858e-003
2.628500e+003, 6.274070e-003
2.630428e+003, 6.240204e-003
2.632357e+003, 6.360030e-003
2.634285e+003, 6.255951e-003
2.636214e+003, 6.310871e-003
2.638142e+003, 6.573405e-003
2.640071e+003, 6.575851e-003
2.641999e+003, 6.500117e-003
2.643928e+003, 6.481870e-003
2.645856e+003, 6.606326e-003
2.647785e+003, 6.559984e-003
2.649713e+003, 6.398269e-003
2.651642e+003, 6.236674e-003
2.653570e+003, 6.375862e-003
2.655499e+003, 6.587362e-003
2.657427e+003, 6.530090e-003
2.659355e+003, 6.416380e-003
2.661284e+003, 6.209852e-003
2.663212e+003, 5.967520e-003
2.665141e+003, 5.964831e-003
2.667069e+003, 6.152689e-003
2.668998e+003, 6.014018e-003
2.670926e+003, 5.936190e-003
2.672855e+003, 6.095831e-003
2.674783e+003, 6.154578e-003
2.676712e+003, 6.046256e-003
2.678640e+003, 5.970237e-003
2.680569e+003, 6.209717e-003
2.682497e+003, 6.286030e-003
2.684426e+003, 6.227794e-003
2.686354e+003, 6.392203e-003
2.688282e+003, 6.324180e-003
2.690211e+003, 6.262333e-003
2.692139e+003, 6.533734e-003
2.694068e+003, 6.601447e-003
2.695996e+003, 6.512937e-003
2.697925e+003, 6.221833e-003
2.699853e+003, 5.820161e-003
2.701782e+003, 5.765129e-003
2.703710e+003, 6.034319e-003
2.705639e+003, 6.120807e-003
2.707567e+003, 6.066396e-003
2.709496e+003, 6.127303e-003
2.711424e+003, 6.309960e-003
2.713353e+003, 6.350080e-003
2.715281e+003, 6.196698e-003
2.717209e+003, 6.055512e-003
2.719138e+003, 6.203444e-003
2.721066e+003, 6.265236e-003
2.722995e+003, 6.127837e-003
2.724923e+003, 6.029561e-003
2.726852e+003, 6.280406e-003
2.728780e+003, 6.565123e-003
2.730709e+003, 6.544675e-003
2.732637e+003, 6.402009e-003
2.734566e+003, 6.260809e-003
2.736494e+003, 6.373336e-003
2.738423e+003, 6.506201e-003
2.740351e+003, 6.602741e-003
2.742280e+003, 6.749306e-003
2.744208e+003, 6.691349e-003
2.746136e+003, 6.689013e-003
2.748065e+003, 6.789878e-003
2.749993e+003, 6.926519e-003
2.751922e+003, 6.761751e-003
2.753850e+003, 6.560790e-003
2.755779e+003, 6.638673e-003
2.757707e+003, 6.606316e-003
2.759636e+003, 6.672912e-003
2.761564e+003, 6.848655e-003
2.763493e+003, 6.706579e-003
2.765421e+003, 6.826660e-003
2.767350e+003, 6.890355e-003
2.769278e+003, 6.830493e-003
2.771207e+003, 7.138649e-003
2.773135e+003, 7.198900e-003
2.775063e+003, 7.056315e-003
2.776992e+003, 7.113520e-003
2.778920e+003, 7.033186e-003
2.780849e+003, 7.034648e-003
2.782777e+003, 6.994759e-003
2.784706e+003, 7.134756e-003
2.786634e+003, 7.157167e-003
2.788563e+003, 7.150156e-003
2.790491e+003, 7.187957e-003
2.792420e+003, 7.051211e-003
2.794348e+003, 6.798352e-003
2.796277e+003, 6.824872e-003
2.798205e+003, 7.063163e-003
2.800134e+003, 7.368200e-003
2.802062e+003, 7.420003e-003
2.803990e+003, 7.290155e-003
2.805919e+003, 7.293698e-003
2.807847e+003, 7.427509e-003
2.809776e+003, 7.317810e-003
2.811704e+003, 7.183304e-003
2.813633e+003, 7.342336e-003
2.815561e+003, 7.584011e-003
2.817490e+003, 7.631127e-003
2.819418e+003, 7.489372e-003
2.821347e+003, 7.226488e-003
2.823275e+003, 7.289513e-003
2.825204e+003, 7.406392e-003
2.827132e+003, 7.548866e-003
2.829061e+003, 7.623835e-003
2.830989e+003, 7.616209e-003
2.832917e+003, 7.683099e-003
2.834846e+003, 7.713295e-003
2.836774e+003, 7.782319e-003
2.838703e+003, 7.910593e-003
2.840631e+003, 7.845130e-003
2.842560e+003, 7.979694e-003
2.844488e+003, 8.175607e-003
2.846417e+003, 8.283998e-003
2.848345e+003, 8.201745e-003
2.850274e+003, 8.233089e-003
2.852202e+003, 8.642018e-003
2.854131e+003, 8.910253e-003
2.856059e+003, 8.723121e-003
2.857988e+003, 8.592190e-003
2.859916e+003, 8.679695e-003
2.861844e+003, 8.686803e-003
2.863773e+003, 8.530646e-003
2.865701e+003, 8.323996e-003
2.867630e+003, 7.993478e-003
2.869558e+003, 8.041658e-003
2.871487e+003, 8.149253e-003
2.873415e+003, 8.192513e-003
2.875344e+003, 8.123806e-003
2.877272e+003, 8.182732e-003
2.879201e+003, 8.206381e-003
2.881129e+003, 8.179430e-003
2.883058e+003, 7.885081e-003
2.884986e+003, 7.913169e-003
2.886915e+003, 8.262848e-003
2.888843e+003, 8.551486e-003
2.890771e+003, 8.461952e-003
2.892700e+003, 8.339866e-003
2.894628e+003, 8.621624e-003
2.896557e+003, 9.063859e-003
2.898485e+003, 9.282153e-003
2.900414e+003, 9.271805e-003
2.902342e+003, 9.153900e-003
2.904271e+003, 9.128222e-003
2.906199e+003, 9.084449e-003
2.908128e+003, 9.390819e-003
2.910056e+003, 9.810661e-003
2.911985e+003, 9.877076e-003
2.913913e+003, 9.885596e-003
2.915842e+003, 9.655187e-003
2.917770e+003, 9.798494e-003
2.919698e+003, 1.042087e-002
2.921627e+003, 1.075167e-002
2.923555e+003, 1.061794e-002
2.925484e+003, 1.074509e-002
2.927412e+003, 1.112035e-002
2.929341e+003, 1.119917e-002
2.931269e+003, 1.085576e-002
2.933198e+003, 1.028259e-002
2.935126e+003, 9.836441e-003
2.937055e+003, 9.897447e-003
2.938983e+003, 9.761904e-003
2.940912e+003, 9.422277e-003
2.942840e+003, 9.590656e-003
2.944769e+003, 9.843348e-003
2.946697e+003, 9.974966e-003
2.948625e+003, 9.960557e-003
2.950554e+003, 9.889555e-003
2.952482e+003, 9.862339e-003
2.954411e+003, 9.899989e-003
2.956339e+003, 9.969547e-003
2.958268e+003, 9.968382e-003
2.960196e+003, 9.927060e-003
2.962125e+003, 1.006462e-002
2.964053e+003, 9.820305e-003
2.965982e+003, 9.622772e-003
2.967910e+003, 9.386658e-003
2.969839e+003, 9.248271e-003
2.971767e+003, 8.739518e-003
2.973696e+003, 8.764850e-003
2.975624e+003, 8.832711e-003
2.977552e+003, 8.858322e-003
2.979481e+003, 8.998189e-003
2.981409e+003, 8.940092e-003
2.983338e+003, 8.769141e-003
2.985266e+003, 8.741984e-003
2.987195e+003, 8.848696e-003
2.989123e+003, 8.658319e-003
2.991052e+003, 8.162720e-003
2.992980e+003, 8.543986e-003
2.994909e+003, 8.855609e-003
2.996837e+003, 8.828643e-003
2.998766e+003, 8.709625e-003
3.000694e+003, 8.681319e-003
3.002623e+003, 8.701758e-003
3.004551e+003, 8.750579e-003
3.006479e+003, 8.851089e-003
3.008408e+003, 8.975816e-003
3.010336e+003, 8.893735e-003
3.012265e+003, 9.059455e-003
3.014193e+003, 9.282210e-003
3.016122e+003, 9.505207e-003
3.018050e+003, 9.179362e-003
3.019979e+003, 8.735837e-003
3.021907e+003, 8.584513e-003
3.023836e+003, 8.684829e-003
3.025764e+003, 8.756105e-003
3.027693e+003, 8.681327e-003
3.029621e+003, 8.421174e-003
3.031550e+003, 8.328103e-003
3.033478e+003, 8.462709e-003
3.035406e+003, 8.362460e-003
3.037335e+003, 8.644613e-003
3.039263e+003, 8.893127e-003
3.041192e+003, 8.812468e-003
3.043120e+003, 8.924896e-003
3.045049e+003, 8.687429e-003
3.046977e+003, 8.827726e-003
3.048906e+003, 9.209984e-003
3.050834e+003, 9.297572e-003
3.052763e+003, 9.013835e-003
3.054691e+003, 8.992347e-003
3.056620e+003, 9.040177e-003
3.058548e+003, 9.270597e-003
3.060477e+003, 9.250547e-003
3.062405e+003, 9.060153e-003
3.064333e+003, 9.161673e-003
3.066262e+003, 9.159704e-003
3.068190e+003, 8.669053e-003
3.070119e+003, 8.841340e-003
3.072047e+003, 9.399514e-003
3.073976e+003, 9.443100e-003
3.075904e+003, 9.468874e-003
3.077833e+003, 9.135551e-003
3.079761e+003, 9.105769e-003
3.081690e+003, 9.369044e-003
3.083618e+003, 9.425054e-003
3.085547e+003, 9.471850e-003
3.087475e+003, 9.463699e-003
3.089404e+003, 9.142585e-003
3.091332e+003, 8.789626e-003
3.093260e+003, 9.193829e-003
3.095189e+003, 9.956673e-003
3.097117e+003, 9.798969e-003
3.099046e+003, 9.272018e-003
3.100974e+003, 9.377771e-003
3.102903e+003, 9.949832e-003
3.104831e+003, 9.663946e-003
3.106760e+003, 9.132849e-003
3.108688e+003, 9.495734e-003
3.110617e+003, 1.003474e-002
3.112545e+003, 1.050403e-002
3.114474e+003, 1.031030e-002
3.116402e+003, 9.916407e-003
3.118331e+003, 9.823003e-003
3.120259e+003, 9.938156e-003
3.122188e+003, 1.042169e-002
3.124116e+003, 1.055314e-002
3.126044e+003, 9.969101e-003
3.127973e+003, 9.972269e-003
3.129901e+003, 1.017737e-002
3.131830e+003, 1.008405e-002
3.133758e+003, 9.975352e-003
3.135687e+003, 1.014040e-002
3.137615e+003, 1.028986e-002
3.139544e+003, 1.040785e-002
3.141472e+003, 1.050973e-002
3.143401e+003, 1.056556e-002
3.145329e+003, 1.025096e-002
3.147258e+003, 1.001261e-002
3.149186e+003, 1.006998e-002
3.151115e+003, 9.919801e-003
3.153043e+003, 9.988517e-003
3.154971e+003, 1.068497e-002
3.156900e+003, 1.096290e-002
3.158828e+003, 1.068060e-002
3.160757e+003, 1.042248e-002
3.162685e+003, 1.042329e-002
3.164614e+003, 1.045917e-002
3.166542e+003, 1.082495e-002
3.168471e+003, 1.105023e-002
3.170399e+003, 1.095830e-002
3.172328e+003, 1.088799e-002
3.174256e+003, 1.085001e-002
3.176185e+003, 1.066437e-002
3.178113e+003, 1.023121e-002
3.180042e+003, 1.045220e-002
3.181970e+003, 1.132664e-002
3.183898e+003, 1.149575e-002
3.185827e+003, 1.126894e-002
3.187755e+003, 1.082682e-002
3.189684e+003, 1.068026e-002
3.191612e+003, 1.061228e-002
3.193541e+003, 1.044462e-002
3.195469e+003, 1.056044e-002
3.197398e+003, 1.104484e-002
3.199326e+003, 1.095967e-002
3.201255e+003, 1.082060e-002
3.203183e+003, 1.128974e-002
3.205112e+003, 1.142881e-002
3.207040e+003, 1.137562e-002
3.208969e+003, 1.140148e-002
3.210897e+003, 1.086788e-002
3.212825e+003, 1.080816e-002
3.214754e+003, 1.115727e-002
3.216682e+003, 1.133053e-002
3.218611e+003, 1.146456e-002
3.220539e+003, 1.076805e-002
3.222468e+003, 1.061424e-002
3.224396e+003, 1.121895e-002
3.226325e+003, 1.163169e-002
3.228253e+003, 1.135236e-002
3.230182e+003, 1.122174e-002
3.232110e+003, 1.117991e-002
3.234039e+003, 1.081295e-002
3.235967e+003, 1.089476e-002
3.237896e+003, 1.120642e-002
3.239824e+003, 1.133077e-002
3.241752e+003, 1.123112e-002
3.243681e+003, 1.108307e-002
3.245609e+003, 1.081183e-002
3.247538e+003, 1.105143e-002
3.249466e+003, 1.117514e-002
3.251395e+003, 1.129387e-002
3.253323e+003, 1.150784e-002
3.255252e+003, 1.153417e-002
3.257180e+003, 1.129452e-002
3.259109e+003, 1.116238e-002
3.261037e+003, 1.136146e-002
3.262966e+003, 1.189188e-002
3.264894e+003, 1.197182e-002
3.266823e+003, 1.161495e-002
3.268751e+003, 1.160766e-002
3.270679e+003, 1.179780e-002
3.272608e+003, 1.182196e-002
3.274536e+003, 1.161818e-002
3.276465e+003, 1.122531e-002
3.278393e+003, 1.106040e-002
3.280322e+003, 1.110727e-002
3.282250e+003, 1.113598e-002
3.284179e+003, 1.114312e-002
3.286107e+003, 1.124013e-002
3.288036e+003, 1.173450e-002
3.289964e+003, 1.146010e-002
3.291893e+003, 1.114694e-002
3.293821e+003, 1.145329e-002
3.295750e+003, 1.172347e-002
3.297678e+003, 1.154588e-002
3.299606e+003, 1.153845e-002
3.301535e+003, 1.158804e-002
3.303463e+003, 1.157169e-002
3.305392e+003, 1.133705e-002
3.307320e+003, 1.139972e-002
3.309249e+003, 1.128705e-002
3.311177e+003, 1.070930e-002
3.313106e+003, 1.081512e-002
3.315034e+003, 1.137889e-002
3.316963e+003, 1.154663e-002
3.318891e+003, 1.158210e-002
3.320820e+003, 1.172500e-002
3.322748e+003, 1.169245e-002
3.324677e+003, 1.176725e-002
3.326605e+003, 1.199338e-002
3.328533e+003, 1.222593e-002
3.330462e+003, 1.209029e-002
3.332390e+003, 1.155366e-002
3.334319e+003, 1.129416e-002
3.336247e+003, 1.181451e-002
3.338176e+003, 1.187414e-002
3.340104e+003, 1.138371e-002
3.342033e+003, 1.114952e-002
3.343961e+003, 1.096298e-002
3.345890e+003, 1.112295e-002
3.347818e+003, 1.195378e-002
3.349747e+003, 1.187823e-002
3.351675e+003, 1.109467e-002
3.353604e+003, 1.119660e-002
3.355532e+003, 1.170074e-002
3.357460e+003, 1.153103e-002
3.359389e+003, 1.173875e-002
3.361317e+003, 1.193709e-002
3.363246e+003, 1.186669e-002
3.365174e+003, 1.168685e-002
3.367103e+003, 1.139077e-002
3.369031e+003, 1.092786e-002
3.370960e+003, 1.140136e-002
3.372888e+003, 1.214199e-002
3.374817e+003, 1.226231e-002
3.376745e+003, 1.211187e-002
3.378674e+003, 1.166166e-002
3.380602e+003, 1.138511e-002
3.382531e+003, 1.160786e-002
3.384459e+003, 1.169986e-002
3.386387e+003, 1.183224e-002
3.388316e+003, 1.190819e-002
3.390244e+003, 1.171673e-002
3.392173e+003, 1.178158e-002
3.394101e+003, 1.188037e-002
3.396030e+003, 1.189603e-002
3.397958e+003, 1.160404e-002
3.399887e+003, 1.131665e-002
3.401815e+003, 1.120319e-002
3.403744e+003, 1.177969e-002
3.405672e+003, 1.232145e-002
3.407601e+003, 1.178631e-002
3.409529e+003, 1.110280e-002
3.411458e+003, 1.111597e-002
3.413386e+003, 1.115603e-002
3.415314e+003, 1.107825e-002
3.417243e+003, 1.124894e-002
3.419171e+003, 1.129998e-002
3.421100e+003, 1.061225e-002
3.423028e+003, 1.061052e-002
3.424957e+003, 1.125329e-002
3.426885e+003, 1.126220e-002
3.428814e+003, 1.124891e-002
3.430742e+003, 1.122745e-002
3.432671e+003, 1.155197e-002
3.434599e+003, 1.198279e-002
3.436528e+003, 1.197213e-002
3.438456e+003, 1.164393e-002
3.440385e+003, 1.145270e-002
3.442313e+003, 1.135449e-002
3.444241e+003, 1.142103e-002
3.446170e+003, 1.113230e-002
3.448098e+003, 1.113938e-002
3.450027e+003, 1.127846e-002
3.451955e+003, 1.138196e-002
3.453884e+003, 1.100940e-002
3.455812e+003, 1.095632e-002
3.457741e+003, 1.092106e-002
3.459669e+003, 1.097894e-002
3.461598e+003, 1.129119e-002
3.463526e+003, 1.173894e-002
3.465455e+003, 1.173105e-002
3.467383e+003, 1.137089e-002
3.469312e+003, 1.110847e-002
3.471240e+003, 1.112132e-002
3.473168e+003, 1.117370e-002
3.475097e+003, 1.166176e-002
3.477025e+003, 1.210675e-002
3.478954e+003, 1.192993e-002
3.480882e+003, 1.146391e-002
3.482811e+003, 1.145147e-002
3.484739e+003, 1.098294e-002
3.486668e+003, 1.086795e-002
3.488596e+003, 1.131193e-002
3.490525e+003, 1.116131e-002
3.492453e+003, 1.127209e-002
3.494382e+003, 1.144134e-002
3.496310e+003, 1.112957e-002
3.498239e+003, 1.098189e-002
3.500167e+003, 1.099910e-002
3.502095e+003, 1.114150e-002
3.504024e+003, 1.118571e-002
3.505952e+003, 1.129630e-002
3.507881e+003, 1.139684e-002
3.509809e+003, 1.121431e-002
3.511738e+003, 1.091486e-002
3.513666e+003, 1.145909e-002
3.515595e+003, 1.169301e-002
3.517523e+003, 1.163196e-002
3.519452e+003, 1.159163e-002
3.521380e+003, 1.124976e-002
3.523309e+003, 1.120270e-002
3.525237e+003, 1.121584e-002
3.527166e+003, 1.123287e-002
3.529094e+003, 1.084322e-002
3.531022e+003, 1.057894e-002
3.532951e+003, 1.055860e-002
3.534879e+003, 1.073308e-002
3.536808e+003, 1.156869e-002
3.538736e+003, 1.176964e-002
3.540665e+003, 1.213956e-002
3.542593e+003, 1.239860e-002
3.544522e+003, 1.248414e-002
3.546450e+003, 1.234031e-002
3.548379e+003, 1.243575e-002
3.550307e+003, 1.322472e-002
3.552236e+003, 1.382623e-002
3.554164e+003, 1.458101e-002
3.556093e+003, 1.646811e-002
3.558021e+003, 1.878395e-002
3.559949e+003, 2.301159e-002
3.561878e+003, 2.874790e-002
3.563806e+003, 3.654049e-002
3.565735e+003, 4.630418e-002
3.567663e+003, 5.114100e-002
3.569592e+003, 4.642252e-002
3.571520e+003, 3.958050e-002
3.573449e+003, 3.715002e-002
3.575377e+003, 3.708035e-002
3.577306e+003, 3.276682e-002
3.579234e+003, 2.426709e-002
3.581163e+003, 1.700111e-002
3.583091e+003, 1.288409e-002
3.585020e+003, 1.137864e-002
3.586948e+003, 1.104246e-002
3.588876e+003, 1.041173e-002
3.590805e+003, 1.056829e-002
3.592733e+003, 1.158001e-002
3.594662e+003, 1.237877e-002
3.596590e+003, 1.250596e-002
3.598519e+003, 1.363007e-002
3.600447e+003, 1.752247e-002
3.602376e+003, 2.235251e-002
3.604304e+003, 2.620382e-002
3.606233e+003, 2.824383e-002
3.608161e+003, 2.640985e-002
3.610090e+003, 2.174955e-002
3.612018e+003, 1.751648e-002
3.613947e+003, 1.448775e-002
3.615875e+003, 1.173805e-002
3.617803e+003, 1.003690e-002
3.619732e+003, 1.004678e-002
3.621660e+003, 9.805364e-003
3.623589e+003, 9.198635e-003
3.625517e+003, 9.135575e-003
3.627446e+003, 9.600899e-003
3.629374e+003, 9.503841e-003
3.631303e+003, 8.261352e-003
3.633231e+003, 8.093980e-003
3.635160e+003, 7.665224e-003
3.637088e+003, 7.519573e-003
3.639017e+003, 7.546165e-003
3.640945e+003, 7.326475e-003
3.642874e+003, 7.017483e-003
3.644802e+003, 7.200911e-003
3.646730e+003, 8.186687e-003
3.648659e+003, 8.693889e-003
3.650587e+003, 8.241081e-003
3.652516e+003, 7.290838e-003
3.654444e+003, 7.633795e-003
3.656373e+003, 8.425693e-003
3.658301e+003, 7.278947e-003
3.660230e+003, 6.781961e-003
3.662158e+003, 7.943175e-003
3.664087e+003, 8.078719e-003
3.666015e+003, 7.482740e-003
3.667944e+003, 7.297728e-003
3.669872e+003, 8.372791e-003
3.671801e+003, 8.472278e-003
3.673729e+003, 8.132011e-003
3.675657e+003, 8.439082e-003
3.677586e+003, 7.721018e-003
3.679514e+003, 6.774782e-003
3.681443e+003, 6.629931e-003
3.683371e+003, 7.108303e-003
3.685300e+003, 6.893903e-003
3.687228e+003, 7.925626e-003
3.689157e+003, 8.729964e-003
3.691085e+003, 7.786077e-003
3.693014e+003, 6.772208e-003
3.694942e+003, 6.627171e-003
3.696871e+003, 6.992599e-003
3.698799e+003, 7.501553e-003
3.700728e+003, 8.144164e-003
3.702656e+003, 8.415196e-003
3.704584e+003, 7.478470e-003
3.706513e+003, 6.527489e-003
3.708441e+003, 7.332583e-003
3.710370e+003, 8.345761e-003
3.712298e+003, 8.113160e-003
3.714227e+003, 7.417912e-003
3.716155e+003, 6.896448e-003
3.718084e+003, 7.430328e-003
3.720012e+003, 7.909069e-003
3.721941e+003, 8.443469e-003
3.723869e+003, 8.805675e-003
3.725798e+003, 8.351482e-003
3.727726e+003, 7.729907e-003
3.729655e+003, 7.801887e-003
3.731583e+003, 7.590460e-003
3.733511e+003, 7.656089e-003
3.735440e+003, 8.184849e-003
3.737368e+003, 7.997885e-003
3.739297e+003, 7.465302e-003
3.741225e+003, 7.230039e-003
3.743154e+003, 9.082609e-003
3.745082e+003, 9.337215e-003
3.747011e+003, 8.530428e-003
3.748939e+003, 8.951275e-003
3.750868e+003, 8.935481e-003
3.752796e+003, 8.293661e-003
3.754725e+003, 7.541694e-003
3.756653e+003, 7.664073e-003
3.758582e+003, 7.475181e-003
3.760510e+003, 7.633692e-003
3.762438e+003, 7.483533e-003
3.764367e+003, 7.612521e-003
3.766295e+003, 7.740880e-003
3.768224e+003, 7.508243e-003
3.770152e+003, 7.610436e-003
3.772081e+003, 6.953591e-003
3.774009e+003, 5.959820e-003
3.775938e+003, 5.837531e-003
3.777866e+003, 6.835202e-003
3.779795e+003, 7.588359e-003
3.781723e+003, 7.547145e-003
3.783652e+003, 7.046380e-003
3.785580e+003, 6.672481e-003
3.787509e+003, 6.600370e-003
3.789437e+003, 6.488746e-003
3.791365e+003, 6.574512e-003
3.793294e+003, 6.833121e-003
3.795222e+003, 7.276694e-003
3.797151e+003, 7.812842e-003
3.799079e+003, 7.609387e-003
3.801008e+003, 7.468229e-003
3.802936e+003, 7.131673e-003
3.804865e+003, 7.270378e-003
3.806793e+003, 7.677841e-003
3.808722e+003, 7.232833e-003
3.810650e+003, 6.744628e-003
3.812579e+003, 7.241765e-003
3.814507e+003, 8.273321e-003
3.816436e+003, 8.304943e-003
3.818364e+003, 7.365815e-003
3.820292e+003, 7.571934e-003
3.822221e+003, 7.552719e-003
3.824149e+003, 7.118061e-003
3.826078e+003, 7.010115e-003
3.828006e+003, 6.509942e-003
3.829935e+003, 6.662785e-003
3.831863e+003, 7.148563e-003
3.833792e+003, 7.588884e-003
3.835720e+003, 7.672620e-003
3.837649e+003, 7.377182e-003
3.839577e+003, 7.490653e-003
3.841506e+003, 8.508737e-003
3.843434e+003, 7.940306e-003
3.845363e+003, 7.372379e-003
3.847291e+003, 7.065476e-003
3.849219e+003, 7.114740e-003
3.851148e+003, 8.256258e-003
3.853076e+003, 9.710158e-003
3.855005e+003, 8.907476e-003
3.856933e+003, 7.214451e-003
3.858862e+003, 7.413368e-003
3.860790e+003, 7.989338e-003
3.862719e+003, 7.251480e-003
3.864647e+003, 8.190955e-003
3.866576e+003, 8.119731e-003
3.868504e+003, 7.390668e-003
3.870433e+003, 7.503716e-003
3.872361e+003, 7.409110e-003
3.874290e+003, 7.760971e-003
3.876218e+003, 7.554276e-003
3.878146e+003, 7.260657e-003
3.880075e+003, 7.661100e-003
3.882003e+003, 7.960821e-003
3.883932e+003, 8.310046e-003
3.885860e+003, 8.119976e-003
3.887789e+003, 7.582266e-003
3.889717e+003, 7.284931e-003
3.891646e+003, 6.650592e-003
3.893574e+003, 6.408993e-003
3.895503e+003, 6.764095e-003
3.897431e+003, 7.486805e-003
3.899360e+003, 7.598870e-003
3.901288e+003, 7.349455e-003
3.903217e+003, 6.994504e-003
3.905145e+003, 6.877517e-003
3.907073e+003, 6.789419e-003
3.909002e+003, 6.538686e-003
3.910930e+003, 6.408332e-003
3.912859e+003, 6.845952e-003
3.914787e+003, 7.086128e-003
3.916716e+003, 7.353160e-003
3.918644e+003, 7.705402e-003
3.920573e+003, 7.561495e-003
3.922501e+003, 7.110187e-003
3.924430e+003, 7.386496e-003
3.926358e+003, 7.304677e-003
3.928287e+003, 7.200704e-003
3.930215e+003, 6.640183e-003
3.932144e+003, 6.301707e-003
3.934072e+003, 6.467190e-003
3.936000e+003, 6.573657e-003
3.937929e+003, 6.951028e-003
3.939857e+003, 6.681951e-003
3.941786e+003, 6.464189e-003
3.943714e+003, 6.743633e-003
3.945643e+003, 6.814271e-003
3.947571e+003, 6.711913e-003
3.949500e+003, 6.718485e-003
3.951428e+003, 6.967750e-003
3.953357e+003, 6.818860e-003
3.955285e+003, 6.239420e-003
3.957214e+003, 5.901406e-003
3.959142e+003, 6.120071e-003
3.961071e+003, 6.915533e-003
3.962999e+003, 7.392813e-003
3.964927e+003, 6.776292e-003
3.966856e+003, 6.622314e-003
3.968784e+003, 6.957731e-003
3.970713e+003, 7.219400e-003
3.972641e+003, 6.736964e-003
3.974570e+003, 6.401705e-003
3.976498e+003, 6.890381e-003
3.978427e+003, 6.715884e-003
3.980355e+003, 6.570871e-003
3.982284e+003, 6.931087e-003
3.984212e+003, 7.211120e-003
3.986141e+003, 7.360278e-003
3.988069e+003, 6.887921e-003
3.989998e+003, 6.690322e-003
3.991926e+003, 6.963824e-003
3.993854e+003, 7.209309e-003
3.995783e+003, 7.282759e-003
3.997711e+003, 7.185468e-003
3.999640e+003, 7.406564e-003
##END=



