##NAMES=Ilvaite
##RRUFFID=R050040
##IDEAL CHEMISTRY=CaFe^2+^_2_Fe^3+^OSi_2_O_7_(OH)
##LOCALITY=Capo Calamita, Isle of Elba, Italy
##OWNER=RRUFF
##SOURCE=University of Arizona Mineral Museum
##DESCRIPTION=Brown fragment
##STATUS=The identification of this mineral has been confirmed by X-ray diffraction and chemical analysis
##URL=rruff.info/R050040
##MEASURED CHEMISTRY=Ca_1.00_(Fe^2+^_1.89_Mn_0.10_Mg_0.01_)_Î£=2_Fe^3+^_1.00_OSi_2.00_O_7_(OH); trace amounts of Al; OH estimated by charge balance
3.991926e+002, 0.000000e+000
4.011211e+002, 1.954402e-001
4.030496e+002, 1.962945e-001
4.049780e+002, 2.019788e-001
4.069065e+002, 1.997252e-001
4.088350e+002, 2.014066e-001
4.107634e+002, 2.084478e-001
4.126919e+002, 2.198456e-001
4.146204e+002, 2.322465e-001
4.165488e+002, 2.384083e-001
4.184773e+002, 2.484068e-001
4.204058e+002, 2.596144e-001
4.223342e+002, 2.643743e-001
4.242627e+002, 2.663127e-001
4.261912e+002, 2.623370e-001
4.281196e+002, 2.602479e-001
4.300481e+002, 2.532337e-001
4.319766e+002, 2.458450e-001
4.339050e+002, 2.445064e-001
4.358335e+002, 2.396219e-001
4.377620e+002, 2.343715e-001
4.396904e+002, 2.318881e-001
4.416189e+002, 2.263811e-001
4.435474e+002, 2.220979e-001
4.454758e+002, 2.178545e-001
4.474043e+002, 2.123704e-001
4.493328e+002, 2.057163e-001
4.512612e+002, 1.995901e-001
4.531897e+002, 1.934151e-001
4.551182e+002, 1.855176e-001
4.570466e+002, 1.788440e-001
4.589751e+002, 1.740281e-001
4.609036e+002, 1.704860e-001
4.628320e+002, 1.684984e-001
4.647605e+002, 1.671945e-001
4.666890e+002, 1.659821e-001
4.686174e+002, 1.669085e-001
4.705459e+002, 1.718952e-001
4.724744e+002, 1.768316e-001
4.744028e+002, 1.812118e-001
4.763313e+002, 1.842390e-001
4.782598e+002, 1.866719e-001
4.801882e+002, 1.888101e-001
4.821167e+002, 1.896114e-001
4.840452e+002, 1.902521e-001
4.859736e+002, 1.920342e-001
4.879021e+002, 1.944089e-001
4.898306e+002, 1.956515e-001
4.917590e+002, 1.942332e-001
4.936875e+002, 1.896698e-001
4.956160e+002, 1.829447e-001
4.975444e+002, 1.745880e-001
4.994729e+002, 1.663486e-001
5.014014e+002, 1.576928e-001
5.033298e+002, 1.491648e-001
5.052583e+002, 1.415886e-001
5.071868e+002, 1.346248e-001
5.091152e+002, 1.280373e-001
5.110437e+002, 1.220398e-001
5.129722e+002, 1.168682e-001
5.149006e+002, 1.120841e-001
5.168291e+002, 1.072625e-001
5.187576e+002, 1.039300e-001
5.206860e+002, 1.014449e-001
5.226145e+002, 1.005010e-001
5.245430e+002, 1.011453e-001
5.264714e+002, 1.032394e-001
5.283999e+002, 1.056627e-001
5.303284e+002, 1.082598e-001
5.322568e+002, 1.108040e-001
5.341853e+002, 1.120440e-001
5.361138e+002, 1.120930e-001
5.380422e+002, 1.107837e-001
5.399707e+002, 1.080203e-001
5.418992e+002, 1.044004e-001
5.438276e+002, 1.003758e-001
5.457561e+002, 9.617490e-002
5.476846e+002, 9.210591e-002
5.496130e+002, 8.802284e-002
5.515415e+002, 8.387096e-002
5.534700e+002, 8.047359e-002
5.553984e+002, 7.773831e-002
5.573269e+002, 7.582689e-002
5.592554e+002, 7.481015e-002
5.611838e+002, 7.514349e-002
5.631123e+002, 7.882579e-002
5.650408e+002, 8.468885e-002
5.669692e+002, 9.024097e-002
5.688977e+002, 9.488816e-002
5.708262e+002, 9.597880e-002
5.727546e+002, 9.254716e-002
5.746831e+002, 8.707318e-002
5.766116e+002, 8.080980e-002
5.785400e+002, 7.483941e-002
5.804685e+002, 6.887671e-002
5.823970e+002, 6.333093e-002
5.843254e+002, 5.866587e-002
5.862539e+002, 5.498619e-002
5.881824e+002, 5.215385e-002
5.901108e+002, 4.963752e-002
5.920393e+002, 4.749045e-002
5.939678e+002, 4.592573e-002
5.958962e+002, 4.509180e-002
5.978247e+002, 4.460446e-002
5.997532e+002, 4.410485e-002
6.016816e+002, 4.362081e-002
6.036101e+002, 4.331754e-002
6.055386e+002, 4.319902e-002
6.074670e+002, 4.349160e-002
6.093955e+002, 4.372047e-002
6.113240e+002, 4.367079e-002
6.132524e+002, 4.388707e-002
6.151809e+002, 4.405348e-002
6.171094e+002, 4.433753e-002
6.190378e+002, 4.483113e-002
6.209663e+002, 4.520080e-002
6.228948e+002, 4.552215e-002
6.248232e+002, 4.581310e-002
6.267517e+002, 4.675186e-002
6.286802e+002, 4.753201e-002
6.306086e+002, 4.819290e-002
6.325371e+002, 4.914622e-002
6.344656e+002, 5.021760e-002
6.363940e+002, 5.122773e-002
6.383225e+002, 5.194626e-002
6.402510e+002, 5.224242e-002
6.421794e+002, 5.239350e-002
6.441079e+002, 5.254484e-002
6.460364e+002, 5.295742e-002
6.479648e+002, 5.344240e-002
6.498933e+002, 5.357423e-002
6.518218e+002, 5.402617e-002
6.537502e+002, 5.447479e-002
6.556787e+002, 5.520508e-002
6.576072e+002, 5.593030e-002
6.595356e+002, 5.684594e-002
6.614641e+002, 5.774450e-002
6.633926e+002, 5.892266e-002
6.653210e+002, 6.028473e-002
6.672495e+002, 6.151781e-002
6.691780e+002, 6.262743e-002
6.711064e+002, 6.424430e-002
6.730349e+002, 6.586950e-002
6.749634e+002, 6.772947e-002
6.768918e+002, 6.985991e-002
6.788203e+002, 7.197038e-002
6.807488e+002, 7.453497e-002
6.826772e+002, 7.725392e-002
6.846057e+002, 8.029562e-002
6.865342e+002, 8.381552e-002
6.884626e+002, 8.756423e-002
6.903911e+002, 9.183841e-002
6.923196e+002, 9.733235e-002
6.942480e+002, 1.036729e-001
6.961765e+002, 1.111146e-001
6.981050e+002, 1.193939e-001
7.000334e+002, 1.283039e-001
7.019619e+002, 1.366615e-001
7.038904e+002, 1.436877e-001
7.058188e+002, 1.465565e-001
7.077473e+002, 1.419213e-001
7.096758e+002, 1.305215e-001
7.116042e+002, 1.169668e-001
7.135327e+002, 1.055026e-001
7.154612e+002, 9.818897e-002
7.173896e+002, 9.455190e-002
7.193181e+002, 9.379486e-002
7.212466e+002, 9.383801e-002
7.231750e+002, 9.266073e-002
7.251035e+002, 9.036623e-002
7.270320e+002, 8.857235e-002
7.289604e+002, 8.822113e-002
7.308889e+002, 8.934116e-002
7.328174e+002, 9.140497e-002
7.347458e+002, 9.341584e-002
7.366743e+002, 9.590111e-002
7.386028e+002, 9.900415e-002
7.405313e+002, 1.021151e-001
7.424597e+002, 1.055393e-001
7.443882e+002, 1.090073e-001
7.463167e+002, 1.125242e-001
7.482451e+002, 1.165105e-001
7.501736e+002, 1.203560e-001
7.521021e+002, 1.247396e-001
7.540305e+002, 1.295304e-001
7.559590e+002, 1.336846e-001
7.578875e+002, 1.377956e-001
7.598159e+002, 1.423574e-001
7.617444e+002, 1.470969e-001
7.636729e+002, 1.521685e-001
7.656013e+002, 1.572227e-001
7.675298e+002, 1.621210e-001
7.694583e+002, 1.668738e-001
7.713867e+002, 1.721259e-001
7.733152e+002, 1.776236e-001
7.752437e+002, 1.832490e-001
7.771721e+002, 1.888771e-001
7.791006e+002, 1.944924e-001
7.810291e+002, 2.000611e-001
7.829575e+002, 2.054927e-001
7.848860e+002, 2.111336e-001
7.868145e+002, 2.167961e-001
7.887429e+002, 2.226112e-001
7.906714e+002, 2.281369e-001
7.925999e+002, 2.334376e-001
7.945283e+002, 2.387828e-001
7.964568e+002, 2.441100e-001
7.983853e+002, 2.493499e-001
8.003137e+002, 2.546500e-001
8.022422e+002, 2.598018e-001
8.041707e+002, 2.646774e-001
8.060991e+002, 2.693517e-001
8.080276e+002, 2.735088e-001
8.099561e+002, 2.769276e-001
8.118845e+002, 2.791469e-001
8.138130e+002, 2.794901e-001
8.157415e+002, 2.787248e-001
8.176699e+002, 2.761348e-001
8.195984e+002, 2.718360e-001
8.215269e+002, 2.658266e-001
8.234553e+002, 2.583968e-001
8.253838e+002, 2.496300e-001
8.273123e+002, 2.398731e-001
8.292407e+002, 2.298391e-001
8.311692e+002, 2.197701e-001
8.330977e+002, 2.102227e-001
8.350261e+002, 2.021074e-001
8.369546e+002, 1.955336e-001
8.388831e+002, 1.908708e-001
8.408115e+002, 1.889605e-001
8.427400e+002, 1.894319e-001
8.446685e+002, 1.918745e-001
8.465969e+002, 1.959163e-001
8.485254e+002, 2.008710e-001
8.504539e+002, 2.061561e-001
8.523823e+002, 2.113324e-001
8.543108e+002, 2.162823e-001
8.562393e+002, 2.205877e-001
8.581677e+002, 2.245743e-001
8.600962e+002, 2.285008e-001
8.620247e+002, 2.324465e-001
8.639531e+002, 2.371975e-001
8.658816e+002, 2.432372e-001
8.678101e+002, 2.496993e-001
8.697385e+002, 2.548573e-001
8.716670e+002, 2.591284e-001
8.735955e+002, 2.635499e-001
8.755239e+002, 2.671829e-001
8.774524e+002, 2.699145e-001
8.793809e+002, 2.718803e-001
8.813093e+002, 2.732360e-001
8.832378e+002, 2.745670e-001
8.851663e+002, 2.764867e-001
8.870947e+002, 2.790122e-001
8.890232e+002, 2.822667e-001
8.909517e+002, 2.859961e-001
8.928801e+002, 2.889759e-001
8.948085e+002, 2.909721e-001
8.967370e+002, 2.914314e-001
8.986655e+002, 2.889933e-001
9.005939e+002, 2.844766e-001
9.025224e+002, 2.787070e-001
9.044509e+002, 2.711248e-001
9.063793e+002, 2.620611e-001
9.083078e+002, 2.522753e-001
9.102363e+002, 2.417192e-001
9.121647e+002, 2.311407e-001
9.140932e+002, 2.212384e-001
9.160217e+002, 2.118678e-001
9.179501e+002, 2.028857e-001
9.198786e+002, 1.943630e-001
9.218071e+002, 1.865909e-001
9.237355e+002, 1.790973e-001
9.256640e+002, 1.719364e-001
9.275925e+002, 1.653748e-001
9.295209e+002, 1.590429e-001
9.314494e+002, 1.528903e-001
9.333779e+002, 1.474532e-001
9.353063e+002, 1.431070e-001
9.372348e+002, 1.403075e-001
9.391633e+002, 1.389871e-001
9.410917e+002, 1.389039e-001
9.430202e+002, 1.402739e-001
9.449487e+002, 1.424031e-001
9.468771e+002, 1.447475e-001
9.488056e+002, 1.471799e-001
9.507341e+002, 1.493432e-001
9.526625e+002, 1.512833e-001
9.545910e+002, 1.528550e-001
9.565195e+002, 1.537919e-001
9.584479e+002, 1.549014e-001
9.603764e+002, 1.565059e-001
9.623049e+002, 1.586585e-001
9.642333e+002, 1.609400e-001
9.661618e+002, 1.620587e-001
9.680903e+002, 1.614116e-001
9.700187e+002, 1.592672e-001
9.719472e+002, 1.565208e-001
9.738757e+002, 1.542765e-001
9.758041e+002, 1.530895e-001
9.777326e+002, 1.526620e-001
9.796611e+002, 1.516161e-001
9.815895e+002, 1.490444e-001
9.835180e+002, 1.437863e-001
9.854465e+002, 1.366760e-001
9.873749e+002, 1.297086e-001
9.893034e+002, 1.237312e-001
9.912319e+002, 1.190677e-001
9.931603e+002, 1.154121e-001
9.950888e+002, 1.127900e-001
9.970173e+002, 1.114123e-001
9.989457e+002, 1.111388e-001
1.000874e+003, 1.117552e-001
1.002803e+003, 1.132647e-001
1.004731e+003, 1.157484e-001
1.006660e+003, 1.192068e-001
1.008588e+003, 1.236678e-001
1.010517e+003, 1.293744e-001
1.012445e+003, 1.362487e-001
1.014373e+003, 1.436880e-001
1.016302e+003, 1.517494e-001
1.018230e+003, 1.600894e-001
1.020159e+003, 1.679731e-001
1.022087e+003, 1.744466e-001
1.024016e+003, 1.784683e-001
1.025944e+003, 1.798131e-001
1.027873e+003, 1.781500e-001
1.029801e+003, 1.732590e-001
1.031730e+003, 1.658741e-001
1.033658e+003, 1.572546e-001
1.035587e+003, 1.487755e-001
1.037515e+003, 1.409771e-001
1.039444e+003, 1.338576e-001
1.041372e+003, 1.273069e-001
1.043301e+003, 1.210151e-001
1.045229e+003, 1.148835e-001
1.047157e+003, 1.092839e-001
1.049086e+003, 1.040464e-001
1.051014e+003, 9.873936e-002
1.052943e+003, 9.343549e-002
1.054871e+003, 8.825847e-002
1.056800e+003, 8.329967e-002
1.058728e+003, 7.826094e-002
1.060657e+003, 7.331487e-002
1.062585e+003, 6.845292e-002
1.064514e+003, 6.371968e-002
1.066442e+003, 5.919486e-002
1.068371e+003, 5.488330e-002
1.070299e+003, 5.099983e-002
1.072228e+003, 4.727403e-002
1.074156e+003, 4.358479e-002
1.076084e+003, 4.026454e-002
1.078013e+003, 3.738366e-002
1.079941e+003, 3.487245e-002
1.081870e+003, 3.281727e-002
1.083798e+003, 3.131790e-002
1.085727e+003, 2.997747e-002
1.087655e+003, 2.863249e-002
1.089584e+003, 2.765457e-002
1.091512e+003, 2.687508e-002
1.093441e+003, 2.616022e-002
1.095369e+003, 2.543965e-002
1.097298e+003, 2.475660e-002
1.099226e+003, 2.443772e-002
1.101155e+003, 2.406244e-002
1.103083e+003, 2.372704e-002
1.105011e+003, 2.351480e-002
1.106940e+003, 2.340458e-002
1.108868e+003, 2.333113e-002
1.110797e+003, 2.328268e-002
1.112725e+003, 2.309374e-002
1.114654e+003, 2.293237e-002
1.116582e+003, 2.288448e-002
1.118511e+003, 2.275186e-002
1.120439e+003, 2.269732e-002
1.122368e+003, 2.261521e-002
1.124296e+003, 2.236724e-002
1.126225e+003, 2.217363e-002
1.128153e+003, 2.205859e-002
1.130082e+003, 2.187945e-002
1.132010e+003, 2.177846e-002
1.133938e+003, 2.173186e-002
1.135867e+003, 2.168354e-002
1.137795e+003, 2.158909e-002
1.139724e+003, 2.161686e-002
1.141652e+003, 2.158293e-002
1.143581e+003, 2.133690e-002
1.145509e+003, 2.123595e-002
1.147438e+003, 2.152823e-002
1.149366e+003, 2.170515e-002
1.151295e+003, 2.170788e-002
1.153223e+003, 2.168668e-002
1.155152e+003, 2.171314e-002
1.157080e+003, 2.169024e-002
1.159009e+003, 2.166699e-002
1.160937e+003, 2.163295e-002
1.162865e+003, 2.161964e-002
1.164794e+003, 2.176772e-002
1.166722e+003, 2.198886e-002
1.168651e+003, 2.201782e-002
1.170579e+003, 2.186380e-002
1.172508e+003, 2.188053e-002
1.174436e+003, 2.198040e-002
1.176365e+003, 2.197876e-002
1.178293e+003, 2.219247e-002
1.180222e+003, 2.227909e-002
1.182150e+003, 2.215508e-002
1.184079e+003, 2.232178e-002
1.186007e+003, 2.253454e-002
1.187936e+003, 2.265313e-002
1.189864e+003, 2.275119e-002
1.191792e+003, 2.294897e-002
1.193721e+003, 2.301143e-002
1.195649e+003, 2.304949e-002
1.197578e+003, 2.316054e-002
1.199506e+003, 2.323268e-002
1.201435e+003, 2.325415e-002
1.203363e+003, 2.330696e-002
1.205292e+003, 2.363435e-002
1.207220e+003, 2.379490e-002
1.209149e+003, 2.384320e-002
1.211077e+003, 2.412348e-002
1.213006e+003, 2.428362e-002
1.214934e+003, 2.429548e-002
1.216863e+003, 2.438605e-002
1.218791e+003, 2.455388e-002
1.220719e+003, 2.458687e-002
1.222648e+003, 2.467271e-002
1.224576e+003, 2.490712e-002
1.226505e+003, 2.513269e-002
1.228433e+003, 2.541759e-002
1.230362e+003, 2.563913e-002
1.232290e+003, 2.564704e-002
1.234219e+003, 2.561808e-002
1.236147e+003, 2.580763e-002
1.238076e+003, 2.624216e-002
1.240004e+003, 2.655808e-002
1.241933e+003, 2.661678e-002
1.243861e+003, 2.675422e-002
1.245790e+003, 2.680751e-002
1.247718e+003, 2.678733e-002
1.249646e+003, 2.700786e-002
1.251575e+003, 2.721169e-002
1.253503e+003, 2.749695e-002
1.255432e+003, 2.753682e-002
1.257360e+003, 2.763912e-002
1.259289e+003, 2.787868e-002
1.261217e+003, 2.802856e-002
1.263146e+003, 2.807703e-002
1.265074e+003, 2.833339e-002
1.267003e+003, 2.871087e-002
1.268931e+003, 2.890529e-002
1.270860e+003, 2.903809e-002
1.272788e+003, 2.920327e-002
1.274717e+003, 2.944653e-002
1.276645e+003, 2.966742e-002
1.278573e+003, 2.985963e-002
1.280502e+003, 3.010530e-002
1.282430e+003, 3.043901e-002
1.284359e+003, 3.084010e-002
1.286287e+003, 3.089823e-002
1.288216e+003, 3.107250e-002
1.290144e+003, 3.133483e-002
1.292073e+003, 3.161068e-002
1.294001e+003, 3.194023e-002
1.295930e+003, 3.211532e-002
1.297858e+003, 3.221310e-002
1.299787e+003, 3.236688e-002
1.301715e+003, 3.250718e-002
1.303644e+003, 3.275648e-002
1.305572e+003, 3.315926e-002
1.307500e+003, 3.322740e-002
1.309429e+003, 3.330717e-002
1.311357e+003, 3.355844e-002
1.313286e+003, 3.361277e-002
1.315214e+003, 3.372412e-002
1.317143e+003, 3.396374e-002
1.319071e+003, 3.441135e-002
1.321000e+003, 3.463593e-002
1.322928e+003, 3.474772e-002
1.324857e+003, 3.510538e-002
1.326785e+003, 3.535096e-002
1.328714e+003, 3.546752e-002
1.330642e+003, 3.564285e-002
1.332571e+003, 3.572367e-002
1.334499e+003, 3.605231e-002
1.336427e+003, 3.651308e-002
1.338356e+003, 3.686934e-002
1.340284e+003, 3.719996e-002
1.342213e+003, 3.744665e-002
1.344141e+003, 3.775337e-002
1.346070e+003, 3.800058e-002
1.347998e+003, 3.833159e-002
1.349927e+003, 3.854812e-002
1.351855e+003, 3.883381e-002
1.353784e+003, 3.935463e-002
1.355712e+003, 3.959048e-002
1.357641e+003, 3.964790e-002
1.359569e+003, 3.996665e-002
1.361498e+003, 4.037257e-002
1.363426e+003, 4.098864e-002
1.365354e+003, 4.136182e-002
1.367283e+003, 4.169079e-002
1.369211e+003, 4.225144e-002
1.371140e+003, 4.248874e-002
1.373068e+003, 4.283954e-002
1.374997e+003, 4.352579e-002
1.376925e+003, 4.412697e-002
1.378854e+003, 4.473729e-002
1.380782e+003, 4.545586e-002
1.382711e+003, 4.632071e-002
1.384639e+003, 4.729533e-002
1.386568e+003, 4.810391e-002
1.388496e+003, 4.942716e-002
1.390424e+003, 5.041060e-002
1.392353e+003, 5.157665e-002
1.394281e+003, 5.286017e-002
1.396210e+003, 5.445999e-002
1.398138e+003, 5.584085e-002
1.400067e+003, 5.741054e-002
1.401995e+003, 5.851775e-002
1.403924e+003, 5.982168e-002
1.405852e+003, 6.138529e-002
1.407781e+003, 6.252742e-002
1.409709e+003, 6.372568e-002
1.411638e+003, 6.478397e-002
1.413566e+003, 6.575795e-002
1.415495e+003, 6.659883e-002
1.417423e+003, 6.726068e-002
1.419351e+003, 6.825397e-002
1.421280e+003, 6.935433e-002
1.423208e+003, 6.998082e-002
1.425137e+003, 7.080649e-002
1.427065e+003, 7.153293e-002
1.428994e+003, 7.230551e-002
1.430922e+003, 7.315832e-002
1.432851e+003, 7.346170e-002
1.434779e+003, 7.378319e-002
1.436708e+003, 7.451952e-002
1.438636e+003, 7.519171e-002
1.440565e+003, 7.544743e-002
1.442493e+003, 7.562761e-002
1.444422e+003, 7.591254e-002
1.446350e+003, 7.595281e-002
1.448278e+003, 7.604402e-002
1.450207e+003, 7.609811e-002
1.452135e+003, 7.608066e-002
1.454064e+003, 7.573936e-002
1.455992e+003, 7.478696e-002
1.457921e+003, 7.532506e-002
1.459849e+003, 7.520641e-002
1.461778e+003, 7.515679e-002
1.463706e+003, 7.486250e-002
1.465635e+003, 7.477054e-002
1.467563e+003, 7.395871e-002
1.469492e+003, 7.320073e-002
1.471420e+003, 7.226255e-002
1.473349e+003, 7.225762e-002
1.475277e+003, 7.170705e-002
1.477205e+003, 7.158595e-002
1.479134e+003, 7.084012e-002
1.481062e+003, 6.996400e-002
1.482991e+003, 6.930230e-002
1.484919e+003, 6.848393e-002
1.486848e+003, 6.754098e-002
1.488776e+003, 6.669530e-002
1.490705e+003, 6.639769e-002
1.492633e+003, 6.552599e-002
1.494562e+003, 6.430899e-002
1.496490e+003, 6.352144e-002
1.498419e+003, 6.263839e-002
1.500347e+003, 6.224167e-002
1.502276e+003, 6.139983e-002
1.504204e+003, 5.982265e-002
1.506132e+003, 5.889087e-002
1.508061e+003, 5.921274e-002
1.509989e+003, 5.844995e-002
1.511918e+003, 5.750121e-002
1.513846e+003, 5.682594e-002
1.515775e+003, 5.609221e-002
1.517703e+003, 5.580709e-002
1.519632e+003, 5.445413e-002
1.521560e+003, 5.436491e-002
1.523489e+003, 5.410410e-002
1.525417e+003, 5.368620e-002
1.527346e+003, 5.360429e-002
1.529274e+003, 5.354809e-002
1.531203e+003, 5.308247e-002
1.533131e+003, 5.278576e-002
1.535059e+003, 5.324354e-002
1.536988e+003, 5.237634e-002
1.538916e+003, 5.161965e-002
1.540845e+003, 5.193506e-002
1.542773e+003, 5.214048e-002
1.544702e+003, 5.219111e-002
1.546630e+003, 5.258281e-002
1.548559e+003, 5.233384e-002
1.550487e+003, 5.244672e-002
1.552416e+003, 5.210903e-002
1.554344e+003, 5.222655e-002
1.556273e+003, 5.172498e-002
1.558201e+003, 5.137936e-002
1.560130e+003, 5.247288e-002
1.562058e+003, 5.288048e-002
1.563986e+003, 5.294698e-002
1.565915e+003, 5.352537e-002
1.567843e+003, 5.327191e-002
1.569772e+003, 5.331421e-002
1.571700e+003, 5.345423e-002
1.573629e+003, 5.354436e-002
1.575557e+003, 5.320465e-002
1.577486e+003, 5.429262e-002
1.579414e+003, 5.430805e-002
1.581343e+003, 5.450465e-002
1.583271e+003, 5.472000e-002
1.585200e+003, 5.479350e-002
1.587128e+003, 5.500376e-002
1.589057e+003, 5.528854e-002
1.590985e+003, 5.539116e-002
1.592913e+003, 5.552709e-002
1.594842e+003, 5.560880e-002
1.596770e+003, 5.545772e-002
1.598699e+003, 5.548659e-002
1.600627e+003, 5.566679e-002
1.602556e+003, 5.594673e-002
1.604484e+003, 5.609593e-002
1.606413e+003, 5.602952e-002
1.608341e+003, 5.599203e-002
1.610270e+003, 5.604873e-002
1.612198e+003, 5.608295e-002
1.614127e+003, 5.587531e-002
1.616055e+003, 5.530892e-002
1.617984e+003, 5.645895e-002
1.619912e+003, 5.629065e-002
1.621840e+003, 5.632212e-002
1.623769e+003, 5.690257e-002
1.625697e+003, 5.691915e-002
1.627626e+003, 5.687754e-002
1.629554e+003, 5.698669e-002
1.631483e+003, 5.707175e-002
1.633411e+003, 5.677945e-002
1.635340e+003, 5.692130e-002
1.637268e+003, 5.740848e-002
1.639197e+003, 5.758866e-002
1.641125e+003, 5.792778e-002
1.643054e+003, 5.827518e-002
1.644982e+003, 5.749243e-002
1.646911e+003, 5.800199e-002
1.648839e+003, 5.858940e-002
1.650767e+003, 5.786028e-002
1.652696e+003, 5.725528e-002
1.654624e+003, 5.896365e-002
1.656553e+003, 5.935531e-002
1.658481e+003, 5.966403e-002
1.660410e+003, 5.976955e-002
1.662338e+003, 5.988572e-002
1.664267e+003, 6.046455e-002
1.666195e+003, 6.051047e-002
1.668124e+003, 6.015751e-002
1.670052e+003, 6.074233e-002
1.671981e+003, 6.093867e-002
1.673909e+003, 6.053146e-002
1.675838e+003, 6.118124e-002
1.677766e+003, 6.102018e-002
1.679694e+003, 6.113014e-002
1.681623e+003, 6.086235e-002
1.683551e+003, 5.973066e-002
1.685480e+003, 6.107838e-002
1.687408e+003, 6.127368e-002
1.689337e+003, 6.146246e-002
1.691265e+003, 6.136482e-002
1.693194e+003, 6.109802e-002
1.695122e+003, 6.026749e-002
1.697051e+003, 6.138749e-002
1.698979e+003, 6.046800e-002
1.700908e+003, 6.221519e-002
1.702836e+003, 6.194927e-002
1.704765e+003, 6.203230e-002
1.706693e+003, 6.194377e-002
1.708621e+003, 6.209270e-002
1.710550e+003, 6.240857e-002
1.712478e+003, 6.244485e-002
1.714407e+003, 6.210020e-002
1.716335e+003, 6.147109e-002
1.718264e+003, 6.247833e-002
1.720192e+003, 6.284231e-002
1.722121e+003, 6.312578e-002
1.724049e+003, 6.344655e-002
1.725978e+003, 6.326889e-002
1.727906e+003, 6.326162e-002
1.729835e+003, 6.367899e-002
1.731763e+003, 6.336639e-002
1.733692e+003, 6.304900e-002
1.735620e+003, 6.453510e-002
1.737548e+003, 6.435605e-002
1.739477e+003, 6.443360e-002
1.741405e+003, 6.509113e-002
1.743334e+003, 6.480742e-002
1.745262e+003, 6.496353e-002
1.747191e+003, 6.516580e-002
1.749119e+003, 6.579265e-002
1.751048e+003, 6.599817e-002
1.752976e+003, 6.659235e-002
1.754905e+003, 6.683060e-002
1.756833e+003, 6.723884e-002
1.758762e+003, 6.755289e-002
1.760690e+003, 6.771021e-002
1.762619e+003, 6.875715e-002
1.764547e+003, 6.877050e-002
1.766475e+003, 6.890996e-002
1.768404e+003, 6.965031e-002
1.770332e+003, 6.970672e-002
1.772261e+003, 6.990504e-002
1.774189e+003, 7.063803e-002
1.776118e+003, 7.104313e-002
1.778046e+003, 7.146722e-002
1.779975e+003, 7.207090e-002
1.781903e+003, 7.259540e-002
1.783832e+003, 7.249656e-002
1.785760e+003, 7.291960e-002
1.787689e+003, 7.345801e-002
1.789617e+003, 7.348630e-002
1.791546e+003, 7.339581e-002
1.793474e+003, 7.416750e-002
1.795402e+003, 7.412361e-002
1.797331e+003, 7.418436e-002
1.799259e+003, 7.413875e-002
1.801188e+003, 7.431364e-002
1.803116e+003, 7.430171e-002
1.805045e+003, 7.374653e-002
1.806973e+003, 7.331752e-002
1.808902e+003, 7.306015e-002
1.810830e+003, 7.277815e-002
1.812759e+003, 7.268621e-002
1.814687e+003, 7.255851e-002
1.816616e+003, 7.222609e-002
1.818544e+003, 7.270310e-002
1.820473e+003, 7.253288e-002
1.822401e+003, 7.184712e-002
1.824329e+003, 7.146350e-002
1.826258e+003, 7.161497e-002
1.828186e+003, 7.129243e-002
1.830115e+003, 7.160664e-002
1.832043e+003, 7.137224e-002
1.833972e+003, 7.186525e-002
1.835900e+003, 7.188223e-002
1.837829e+003, 7.153392e-002
1.839757e+003, 7.125698e-002
1.841686e+003, 7.130878e-002
1.843614e+003, 7.098450e-002
1.845543e+003, 7.179610e-002
1.847471e+003, 7.205433e-002
1.849400e+003, 7.171637e-002
1.851328e+003, 7.095195e-002
1.853256e+003, 7.064277e-002
1.855185e+003, 7.116510e-002
1.857113e+003, 7.196544e-002
1.859042e+003, 7.186055e-002
1.860970e+003, 7.171490e-002
1.862899e+003, 7.178386e-002
1.864827e+003, 7.179067e-002
1.866756e+003, 7.188928e-002
1.868684e+003, 7.224828e-002
1.870613e+003, 7.265604e-002
1.872541e+003, 7.260317e-002
1.874470e+003, 7.291846e-002
1.876398e+003, 7.329081e-002
1.878327e+003, 7.320058e-002
1.880255e+003, 7.237307e-002
1.882183e+003, 7.190540e-002
1.884112e+003, 7.241266e-002
1.886040e+003, 7.268960e-002
1.887969e+003, 7.287605e-002
1.889897e+003, 7.285665e-002
1.891826e+003, 7.229527e-002
1.893754e+003, 7.181410e-002
1.895683e+003, 7.195674e-002
1.897611e+003, 7.208667e-002
1.899540e+003, 7.176988e-002
1.901468e+003, 7.196494e-002
1.903397e+003, 7.305446e-002
1.905325e+003, 7.368304e-002
1.907254e+003, 7.355621e-002
1.909182e+003, 7.340374e-002
1.911110e+003, 7.368416e-002
1.913039e+003, 7.383595e-002
1.914967e+003, 7.321156e-002
1.916896e+003, 7.256787e-002
1.918824e+003, 7.334725e-002
1.920753e+003, 7.341462e-002
1.922681e+003, 7.340934e-002
1.924610e+003, 7.420704e-002
1.926538e+003, 7.457648e-002
1.928467e+003, 7.308095e-002
1.930395e+003, 7.223179e-002
1.932324e+003, 7.352322e-002
1.934252e+003, 7.449049e-002
1.936181e+003, 7.388396e-002
1.938109e+003, 7.279079e-002
1.940037e+003, 7.345708e-002
1.941966e+003, 7.486333e-002
1.943894e+003, 7.488085e-002
1.945823e+003, 7.373555e-002
1.947751e+003, 7.311004e-002
1.949680e+003, 7.228035e-002
1.951608e+003, 7.134948e-002
1.953537e+003, 7.143466e-002
1.955465e+003, 7.212269e-002
1.957394e+003, 7.174926e-002
1.959322e+003, 7.164515e-002
1.961251e+003, 7.132617e-002
1.963179e+003, 6.948465e-002
1.965108e+003, 6.869914e-002
1.967036e+003, 7.024765e-002
1.968964e+003, 7.033887e-002
1.970893e+003, 6.977736e-002
1.972821e+003, 7.127588e-002
1.974750e+003, 7.090086e-002
1.976678e+003, 7.040125e-002
1.978607e+003, 7.308904e-002
1.980535e+003, 7.355337e-002
1.982464e+003, 7.243939e-002
1.984392e+003, 7.275403e-002
1.986321e+003, 7.406113e-002
1.988249e+003, 7.360557e-002
1.990178e+003, 7.290448e-002
1.992106e+003, 7.326640e-002
1.994035e+003, 7.295182e-002
1.995963e+003, 7.303395e-002
1.997891e+003, 7.240028e-002
1.999820e+003, 7.091178e-002
2.001748e+003, 6.975889e-002
2.003677e+003, 7.015727e-002
2.005605e+003, 7.197715e-002
2.007534e+003, 7.265403e-002
2.009462e+003, 7.106749e-002
2.011391e+003, 7.089257e-002
2.013319e+003, 7.071435e-002
2.015248e+003, 7.140364e-002
2.017176e+003, 7.326319e-002
2.019105e+003, 7.348646e-002
2.021033e+003, 7.195639e-002
2.022962e+003, 7.161032e-002
2.024890e+003, 7.207670e-002
2.026818e+003, 7.145998e-002
2.028747e+003, 7.105722e-002
2.030675e+003, 7.108842e-002
2.032604e+003, 7.080834e-002
2.034532e+003, 7.131191e-002
2.036461e+003, 7.104374e-002
2.038389e+003, 7.112136e-002
2.040318e+003, 7.128229e-002
2.042246e+003, 7.094100e-002
2.044175e+003, 7.253867e-002
2.046103e+003, 7.417591e-002
2.048032e+003, 7.386272e-002
2.049960e+003, 7.457174e-002
2.051889e+003, 7.474893e-002
2.053817e+003, 7.379628e-002
2.055746e+003, 7.461438e-002
2.057674e+003, 7.527720e-002
2.059603e+003, 7.482276e-002
2.061531e+003, 7.577187e-002
2.063459e+003, 7.634390e-002
2.065388e+003, 7.599623e-002
2.067316e+003, 7.624963e-002
2.069245e+003, 7.706954e-002
2.071173e+003, 7.635105e-002
2.073102e+003, 7.554072e-002
2.075030e+003, 7.455476e-002
2.076959e+003, 7.532859e-002
2.078887e+003, 7.736201e-002
2.080816e+003, 7.735656e-002
2.082744e+003, 7.651339e-002
2.084673e+003, 7.692596e-002
2.086601e+003, 7.703844e-002
2.088530e+003, 7.805933e-002
2.090458e+003, 7.816326e-002
2.092386e+003, 7.782075e-002
2.094315e+003, 7.729687e-002
2.096243e+003, 7.693885e-002
2.098172e+003, 7.709626e-002
2.100100e+003, 7.746395e-002
2.102029e+003, 7.829743e-002
2.103957e+003, 7.850052e-002
2.105886e+003, 7.858647e-002
2.107814e+003, 7.950424e-002
2.109743e+003, 7.970776e-002
2.111671e+003, 7.993427e-002
2.113600e+003, 7.982451e-002
2.115528e+003, 7.898653e-002
2.117457e+003, 7.903155e-002
2.119385e+003, 8.003519e-002
2.121313e+003, 7.943412e-002
2.123242e+003, 7.792369e-002
2.125170e+003, 7.879211e-002
2.127099e+003, 7.963147e-002
2.129027e+003, 7.779791e-002
2.130956e+003, 7.665900e-002
2.132884e+003, 7.736775e-002
2.134813e+003, 7.889223e-002
2.136741e+003, 7.992043e-002
2.138670e+003, 7.941346e-002
2.140598e+003, 7.823985e-002
2.142527e+003, 7.864748e-002
2.144455e+003, 7.913398e-002
2.146384e+003, 7.820848e-002
2.148312e+003, 7.827062e-002
2.150240e+003, 7.854251e-002
2.152169e+003, 7.753358e-002
2.154097e+003, 7.675776e-002
2.156026e+003, 7.806239e-002
2.157954e+003, 8.007498e-002
2.159883e+003, 8.417153e-002
2.161811e+003, 8.640403e-002
2.163740e+003, 8.590343e-002
2.165668e+003, 8.471226e-002
2.167597e+003, 8.525489e-002
2.169525e+003, 8.581172e-002
2.171454e+003, 8.470577e-002
2.173382e+003, 8.427913e-002
2.175311e+003, 8.513919e-002
2.177239e+003, 8.530600e-002
2.179167e+003, 8.453678e-002
2.181096e+003, 8.366853e-002
2.183024e+003, 8.499641e-002
2.184953e+003, 8.748879e-002
2.186881e+003, 8.703267e-002
2.188810e+003, 8.598257e-002
2.190738e+003, 8.734139e-002
2.192667e+003, 8.731155e-002
2.194595e+003, 8.619327e-002
2.196524e+003, 8.573934e-002
2.198452e+003, 8.507285e-002
2.200381e+003, 8.509400e-002
2.202309e+003, 8.631885e-002
2.204238e+003, 8.677655e-002
2.206166e+003, 8.660360e-002
2.208094e+003, 8.884966e-002
2.210023e+003, 8.955359e-002
2.211951e+003, 8.889993e-002
2.213880e+003, 8.835331e-002
2.215808e+003, 8.882789e-002
2.217737e+003, 8.836311e-002
2.219665e+003, 8.794896e-002
2.221594e+003, 8.765592e-002
2.223522e+003, 8.621393e-002
2.225451e+003, 8.657452e-002
2.227379e+003, 8.865982e-002
2.229308e+003, 8.880679e-002
2.231236e+003, 8.815504e-002
2.233165e+003, 8.785973e-002
2.235093e+003, 8.931930e-002
2.237021e+003, 9.128641e-002
2.238950e+003, 9.037732e-002
2.240878e+003, 8.829774e-002
2.242807e+003, 8.839465e-002
2.244735e+003, 8.853383e-002
2.246664e+003, 8.843044e-002
2.248592e+003, 8.873898e-002
2.250521e+003, 8.881463e-002
2.252449e+003, 8.948275e-002
2.254378e+003, 9.053790e-002
2.256306e+003, 9.087657e-002
2.258235e+003, 8.979248e-002
2.260163e+003, 8.964156e-002
2.262092e+003, 9.049056e-002
2.264020e+003, 9.080742e-002
2.265948e+003, 9.063393e-002
2.267877e+003, 9.098858e-002
2.269805e+003, 9.148221e-002
2.271734e+003, 9.191597e-002
2.273662e+003, 9.232681e-002
2.275591e+003, 9.234972e-002
2.277519e+003, 9.237982e-002
2.279448e+003, 9.213173e-002
2.281376e+003, 9.269733e-002
2.283305e+003, 9.330276e-002
2.285233e+003, 9.251591e-002
2.287162e+003, 9.206229e-002
2.289090e+003, 9.252445e-002
2.291019e+003, 9.315477e-002
2.292947e+003, 9.338279e-002
2.294875e+003, 9.384351e-002
2.296804e+003, 9.406373e-002
2.298732e+003, 9.333018e-002
2.300661e+003, 9.296100e-002
2.302589e+003, 9.308936e-002
2.304518e+003, 9.247057e-002
2.306446e+003, 9.231669e-002
2.308375e+003, 9.303147e-002
2.310303e+003, 9.355852e-002
2.312232e+003, 9.385613e-002
2.314160e+003, 9.425090e-002
2.316089e+003, 9.449779e-002
2.318017e+003, 9.437512e-002
2.319946e+003, 9.485462e-002
2.321874e+003, 9.513383e-002
2.323802e+003, 9.532185e-002
2.325731e+003, 9.437371e-002
2.327659e+003, 9.349102e-002
2.329588e+003, 9.354178e-002
2.331516e+003, 9.378459e-002
2.333445e+003, 9.373166e-002
2.335373e+003, 9.365831e-002
2.337302e+003, 9.413636e-002
2.339230e+003, 9.465438e-002
2.341159e+003, 9.448803e-002
2.343087e+003, 9.431548e-002
2.345016e+003, 9.438604e-002
2.346944e+003, 9.475616e-002
2.348873e+003, 9.506708e-002
2.350801e+003, 9.509849e-002
2.352729e+003, 9.484742e-002
2.354658e+003, 9.470426e-002
2.356586e+003, 9.446501e-002
2.358515e+003, 9.429964e-002
2.360443e+003, 9.398469e-002
2.362372e+003, 9.436540e-002
2.364300e+003, 9.455840e-002
2.366229e+003, 9.409963e-002
2.368157e+003, 9.398771e-002
2.370086e+003, 9.453629e-002
2.372014e+003, 9.490462e-002
2.373942e+003, 9.512664e-002
2.375871e+003, 9.498703e-002
2.377799e+003, 9.532207e-002
2.379728e+003, 9.572244e-002
2.381656e+003, 9.522947e-002
2.383585e+003, 9.555564e-002
2.385513e+003, 9.610762e-002
2.387442e+003, 9.601592e-002
2.389370e+003, 9.668482e-002
2.391299e+003, 9.720939e-002
2.393227e+003, 9.663120e-002
2.395156e+003, 9.601637e-002
2.397084e+003, 9.658201e-002
2.399012e+003, 9.719515e-002
2.400941e+003, 9.745042e-002
2.402869e+003, 9.774723e-002
2.404798e+003, 9.814025e-002
2.406726e+003, 9.883280e-002
2.408655e+003, 9.881104e-002
2.410583e+003, 9.918252e-002
2.412512e+003, 9.917092e-002
2.414440e+003, 9.881997e-002
2.416369e+003, 9.855039e-002
2.418297e+003, 9.891445e-002
2.420226e+003, 9.935492e-002
2.422154e+003, 9.994146e-002
2.424083e+003, 1.004658e-001
2.426011e+003, 1.000574e-001
2.427939e+003, 9.965800e-002
2.429868e+003, 9.972955e-002
2.431796e+003, 9.995263e-002
2.433725e+003, 1.002104e-001
2.435653e+003, 1.005694e-001
2.437582e+003, 1.007606e-001
2.439510e+003, 1.012123e-001
2.441439e+003, 1.007540e-001
2.443367e+003, 1.009344e-001
2.445296e+003, 1.012585e-001
2.447224e+003, 1.011546e-001
2.449153e+003, 1.021143e-001
2.451081e+003, 1.030599e-001
2.453010e+003, 1.025493e-001
2.454938e+003, 1.018755e-001
2.456866e+003, 1.018955e-001
2.458795e+003, 1.021989e-001
2.460723e+003, 1.021232e-001
2.462652e+003, 1.029330e-001
2.464580e+003, 1.033823e-001
2.466509e+003, 1.025670e-001
2.468437e+003, 1.018663e-001
2.470366e+003, 1.021317e-001
2.472294e+003, 1.025468e-001
2.474223e+003, 1.033773e-001
2.476151e+003, 1.037029e-001
2.478080e+003, 1.032767e-001
2.480008e+003, 1.028814e-001
2.481937e+003, 1.033033e-001
2.483865e+003, 1.039168e-001
2.485793e+003, 1.038124e-001
2.487722e+003, 1.039623e-001
2.489650e+003, 1.041850e-001
2.491579e+003, 1.053200e-001
2.493507e+003, 1.048863e-001
2.495436e+003, 1.035655e-001
2.497364e+003, 1.039651e-001
2.499293e+003, 1.048752e-001
2.501221e+003, 1.054526e-001
2.503150e+003, 1.054787e-001
2.505078e+003, 1.054894e-001
2.507007e+003, 1.051685e-001
2.508935e+003, 1.048232e-001
2.510864e+003, 1.058157e-001
2.512792e+003, 1.068231e-001
2.514720e+003, 1.072771e-001
2.516649e+003, 1.065346e-001
2.518577e+003, 1.056634e-001
2.520506e+003, 1.053281e-001
2.522434e+003, 1.051309e-001
2.524363e+003, 1.058369e-001
2.526291e+003, 1.066245e-001
2.528220e+003, 1.066501e-001
2.530148e+003, 1.078143e-001
2.532077e+003, 1.080955e-001
2.534005e+003, 1.065506e-001
2.535934e+003, 1.062354e-001
2.537862e+003, 1.069583e-001
2.539791e+003, 1.070015e-001
2.541719e+003, 1.073873e-001
2.543647e+003, 1.085986e-001
2.545576e+003, 1.090628e-001
2.547504e+003, 1.089425e-001
2.549433e+003, 1.089510e-001
2.551361e+003, 1.095285e-001
2.553290e+003, 1.088482e-001
2.555218e+003, 1.079517e-001
2.557147e+003, 1.077875e-001
2.559075e+003, 1.088146e-001
2.561004e+003, 1.093308e-001
2.562932e+003, 1.082770e-001
2.564861e+003, 1.088213e-001
2.566789e+003, 1.094926e-001
2.568718e+003, 1.096810e-001
2.570646e+003, 1.100486e-001
2.572574e+003, 1.104709e-001
2.574503e+003, 1.102259e-001
2.576431e+003, 1.101493e-001
2.578360e+003, 1.111814e-001
2.580288e+003, 1.119307e-001
2.582217e+003, 1.109579e-001
2.584145e+003, 1.099528e-001
2.586074e+003, 1.104320e-001
2.588002e+003, 1.116718e-001
2.589931e+003, 1.118596e-001
2.591859e+003, 1.118300e-001
2.593788e+003, 1.118008e-001
2.595716e+003, 1.123851e-001
2.597645e+003, 1.128160e-001
2.599573e+003, 1.127790e-001
2.601501e+003, 1.131093e-001
2.603430e+003, 1.135221e-001
2.605358e+003, 1.140053e-001
2.607287e+003, 1.143838e-001
2.609215e+003, 1.140310e-001
2.611144e+003, 1.135307e-001
2.613072e+003, 1.134429e-001
2.615001e+003, 1.136034e-001
2.616929e+003, 1.138108e-001
2.618858e+003, 1.137490e-001
2.620786e+003, 1.140288e-001
2.622715e+003, 1.142179e-001
2.624643e+003, 1.134910e-001
2.626572e+003, 1.139222e-001
2.628500e+003, 1.151259e-001
2.630428e+003, 1.153992e-001
2.632357e+003, 1.162662e-001
2.634285e+003, 1.165738e-001
2.636214e+003, 1.167328e-001
2.638142e+003, 1.168490e-001
2.640071e+003, 1.168168e-001
2.641999e+003, 1.164982e-001
2.643928e+003, 1.160593e-001
2.645856e+003, 1.161394e-001
2.647785e+003, 1.166390e-001
2.649713e+003, 1.166224e-001
2.651642e+003, 1.170359e-001
2.653570e+003, 1.175627e-001
2.655499e+003, 1.174877e-001
2.657427e+003, 1.175164e-001
2.659355e+003, 1.180621e-001
2.661284e+003, 1.181098e-001
2.663212e+003, 1.177121e-001
2.665141e+003, 1.170376e-001
2.667069e+003, 1.176263e-001
2.668998e+003, 1.182317e-001
2.670926e+003, 1.182019e-001
2.672855e+003, 1.179674e-001
2.674783e+003, 1.181416e-001
2.676712e+003, 1.182665e-001
2.678640e+003, 1.184829e-001
2.680569e+003, 1.192986e-001
2.682497e+003, 1.195189e-001
2.684426e+003, 1.194755e-001
2.686354e+003, 1.193950e-001
2.688282e+003, 1.189182e-001
2.690211e+003, 1.193316e-001
2.692139e+003, 1.202268e-001
2.694068e+003, 1.203735e-001
2.695996e+003, 1.202011e-001
2.697925e+003, 1.202786e-001
2.699853e+003, 1.205906e-001
2.701782e+003, 1.203562e-001
2.703710e+003, 1.203325e-001
2.705639e+003, 1.208275e-001
2.707567e+003, 1.216870e-001
2.709496e+003, 1.220781e-001
2.711424e+003, 1.222550e-001
2.713353e+003, 1.228666e-001
2.715281e+003, 1.226606e-001
2.717209e+003, 1.225403e-001
2.719138e+003, 1.231632e-001
2.721066e+003, 1.233523e-001
2.722995e+003, 1.228227e-001
2.724923e+003, 1.227781e-001
2.726852e+003, 1.232485e-001
2.728780e+003, 1.236317e-001
2.730709e+003, 1.240307e-001
2.732637e+003, 1.243583e-001
2.734566e+003, 1.246565e-001
2.736494e+003, 1.246801e-001
2.738423e+003, 1.246443e-001
2.740351e+003, 1.241417e-001
2.742280e+003, 1.242707e-001
2.744208e+003, 1.250014e-001
2.746136e+003, 1.255791e-001
2.748065e+003, 1.254926e-001
2.749993e+003, 1.253989e-001
2.751922e+003, 1.256580e-001
2.753850e+003, 1.262998e-001
2.755779e+003, 1.269923e-001
2.757707e+003, 1.269851e-001
2.759636e+003, 1.270639e-001
2.761564e+003, 1.275370e-001
2.763493e+003, 1.283090e-001
2.765421e+003, 1.285719e-001
2.767350e+003, 1.282649e-001
2.769278e+003, 1.281697e-001
2.771207e+003, 1.284823e-001
2.773135e+003, 1.286305e-001
2.775063e+003, 1.281932e-001
2.776992e+003, 1.279717e-001
2.778920e+003, 1.285293e-001
2.780849e+003, 1.291780e-001
2.782777e+003, 1.291191e-001
2.784706e+003, 1.286368e-001
2.786634e+003, 1.280274e-001
2.788563e+003, 1.285694e-001
2.790491e+003, 1.298090e-001
2.792420e+003, 1.301310e-001
2.794348e+003, 1.302876e-001
2.796277e+003, 1.309982e-001
2.798205e+003, 1.317606e-001
2.800134e+003, 1.317036e-001
2.802062e+003, 1.310390e-001
2.803990e+003, 1.309767e-001
2.805919e+003, 1.318428e-001
2.807847e+003, 1.325839e-001
2.809776e+003, 1.330997e-001
2.811704e+003, 1.329044e-001
2.813633e+003, 1.324163e-001
2.815561e+003, 1.324542e-001
2.817490e+003, 1.330494e-001
2.819418e+003, 1.326385e-001
2.821347e+003, 1.322350e-001
2.823275e+003, 1.331712e-001
2.825204e+003, 1.336294e-001
2.827132e+003, 1.339522e-001
2.829061e+003, 1.341453e-001
2.830989e+003, 1.347336e-001
2.832917e+003, 1.352690e-001
2.834846e+003, 1.357524e-001
2.836774e+003, 1.361911e-001
2.838703e+003, 1.356976e-001
2.840631e+003, 1.348081e-001
2.842560e+003, 1.354355e-001
2.844488e+003, 1.366424e-001
2.846417e+003, 1.365696e-001
2.848345e+003, 1.364512e-001
2.850274e+003, 1.370220e-001
2.852202e+003, 1.369330e-001
2.854131e+003, 1.362348e-001
2.856059e+003, 1.368392e-001
2.857988e+003, 1.373155e-001
2.859916e+003, 1.368613e-001
2.861844e+003, 1.371720e-001
2.863773e+003, 1.375109e-001
2.865701e+003, 1.375906e-001
2.867630e+003, 1.377982e-001
2.869558e+003, 1.381642e-001
2.871487e+003, 1.387185e-001
2.873415e+003, 1.388911e-001
2.875344e+003, 1.395555e-001
2.877272e+003, 1.397121e-001
2.879201e+003, 1.400206e-001
2.881129e+003, 1.409270e-001
2.883058e+003, 1.410680e-001
2.884986e+003, 1.405958e-001
2.886915e+003, 1.405571e-001
2.888843e+003, 1.410483e-001
2.890771e+003, 1.418348e-001
2.892700e+003, 1.423808e-001
2.894628e+003, 1.427367e-001
2.896557e+003, 1.429471e-001
2.898485e+003, 1.425881e-001
2.900414e+003, 1.422580e-001
2.902342e+003, 1.429552e-001
2.904271e+003, 1.437788e-001
2.906199e+003, 1.439541e-001
2.908128e+003, 1.443512e-001
2.910056e+003, 1.441852e-001
2.911985e+003, 1.443244e-001
2.913913e+003, 1.456261e-001
2.915842e+003, 1.460447e-001
2.917770e+003, 1.454170e-001
2.919698e+003, 1.454854e-001
2.921627e+003, 1.459072e-001
2.923555e+003, 1.459218e-001
2.925484e+003, 1.461841e-001
2.927412e+003, 1.463136e-001
2.929341e+003, 1.458408e-001
2.931269e+003, 1.464712e-001
2.933198e+003, 1.468478e-001
2.935126e+003, 1.471034e-001
2.937055e+003, 1.472796e-001
2.938983e+003, 1.473569e-001
2.940912e+003, 1.474340e-001
2.942840e+003, 1.479236e-001
2.944769e+003, 1.487401e-001
2.946697e+003, 1.488139e-001
2.948625e+003, 1.488468e-001
2.950554e+003, 1.487879e-001
2.952482e+003, 1.486710e-001
2.954411e+003, 1.490861e-001
2.956339e+003, 1.496324e-001
2.958268e+003, 1.498278e-001
2.960196e+003, 1.499836e-001
2.962125e+003, 1.506378e-001
2.964053e+003, 1.516688e-001
2.965982e+003, 1.516350e-001
2.967910e+003, 1.511222e-001
2.969839e+003, 1.513478e-001
2.971767e+003, 1.508197e-001
2.973696e+003, 1.503911e-001
2.975624e+003, 1.508627e-001
2.977552e+003, 1.513191e-001
2.979481e+003, 1.518825e-001
2.981409e+003, 1.525764e-001
2.983338e+003, 1.528414e-001
2.985266e+003, 1.531527e-001
2.987195e+003, 1.530645e-001
2.989123e+003, 1.527395e-001
2.991052e+003, 1.524841e-001
2.992980e+003, 1.525874e-001
2.994909e+003, 1.519495e-001
2.996837e+003, 1.530525e-001
2.998766e+003, 1.552451e-001
3.000694e+003, 1.545850e-001
3.002623e+003, 1.522959e-001
3.004551e+003, 1.522243e-001
3.006479e+003, 1.529651e-001
3.008408e+003, 1.527039e-001
3.010336e+003, 1.527941e-001
3.012265e+003, 1.526351e-001
3.014193e+003, 1.521424e-001
3.016122e+003, 1.522019e-001
3.018050e+003, 1.527803e-001
3.019979e+003, 1.525705e-001
3.021907e+003, 1.522206e-001
3.023836e+003, 1.519576e-001
3.025764e+003, 1.522988e-001
3.027693e+003, 1.515243e-001
3.029621e+003, 1.499292e-001
3.031550e+003, 1.503580e-001
3.033478e+003, 1.511824e-001
3.035406e+003, 1.505421e-001
3.037335e+003, 1.503186e-001
3.039263e+003, 1.511814e-001
3.041192e+003, 1.509822e-001
3.043120e+003, 1.492866e-001
3.045049e+003, 1.482878e-001
3.046977e+003, 1.484102e-001
3.048906e+003, 1.488121e-001
3.050834e+003, 1.484839e-001
3.052763e+003, 1.476100e-001
3.054691e+003, 1.464566e-001
3.056620e+003, 1.458089e-001
3.058548e+003, 1.458428e-001
3.060477e+003, 1.465144e-001
3.062405e+003, 1.463992e-001
3.064333e+003, 1.447129e-001
3.066262e+003, 1.426466e-001
3.068190e+003, 1.428149e-001
3.070119e+003, 1.437159e-001
3.072047e+003, 1.422877e-001
3.073976e+003, 1.416443e-001
3.075904e+003, 1.426107e-001
3.077833e+003, 1.424641e-001
3.079761e+003, 1.426626e-001
3.081690e+003, 1.434101e-001
3.083618e+003, 1.434889e-001
3.085547e+003, 1.419611e-001
3.087475e+003, 1.407776e-001
3.089404e+003, 1.393725e-001
3.091332e+003, 1.388440e-001
3.093260e+003, 1.395977e-001
3.095189e+003, 1.399803e-001
3.097117e+003, 1.394753e-001
3.099046e+003, 1.388690e-001
3.100974e+003, 1.391152e-001
3.102903e+003, 1.388180e-001
3.104831e+003, 1.387621e-001
3.106760e+003, 1.380967e-001
3.108688e+003, 1.378493e-001
3.110617e+003, 1.382366e-001
3.112545e+003, 1.372848e-001
3.114474e+003, 1.360683e-001
3.116402e+003, 1.358407e-001
3.118331e+003, 1.349865e-001
3.120259e+003, 1.344819e-001
3.122188e+003, 1.346545e-001
3.124116e+003, 1.350004e-001
3.126044e+003, 1.354848e-001
3.127973e+003, 1.352565e-001
3.129901e+003, 1.348414e-001
3.131830e+003, 1.343635e-001
3.133758e+003, 1.338004e-001
3.135687e+003, 1.329399e-001
3.137615e+003, 1.321584e-001
3.139544e+003, 1.318608e-001
3.141472e+003, 1.330348e-001
3.143401e+003, 1.339574e-001
3.145329e+003, 1.329550e-001
3.147258e+003, 1.315705e-001
3.149186e+003, 1.314276e-001
3.151115e+003, 1.316023e-001
3.153043e+003, 1.316423e-001
3.154971e+003, 1.314305e-001
3.156900e+003, 1.308164e-001
3.158828e+003, 1.301300e-001
3.160757e+003, 1.284930e-001
3.162685e+003, 1.278475e-001
3.164614e+003, 1.282685e-001
3.166542e+003, 1.281367e-001
3.168471e+003, 1.271548e-001
3.170399e+003, 1.268720e-001
3.172328e+003, 1.271321e-001
3.174256e+003, 1.275489e-001
3.176185e+003, 1.274782e-001
3.178113e+003, 1.267540e-001
3.180042e+003, 1.263022e-001
3.181970e+003, 1.267653e-001
3.183898e+003, 1.265305e-001
3.185827e+003, 1.257290e-001
3.187755e+003, 1.249132e-001
3.189684e+003, 1.255704e-001
3.191612e+003, 1.259557e-001
3.193541e+003, 1.247396e-001
3.195469e+003, 1.244074e-001
3.197398e+003, 1.248280e-001
3.199326e+003, 1.241219e-001
3.201255e+003, 1.232137e-001
3.203183e+003, 1.233975e-001
3.205112e+003, 1.233719e-001
3.207040e+003, 1.236789e-001
3.208969e+003, 1.234670e-001
3.210897e+003, 1.229167e-001
3.212825e+003, 1.240031e-001
3.214754e+003, 1.248001e-001
3.216682e+003, 1.234144e-001
3.218611e+003, 1.220036e-001
3.220539e+003, 1.221636e-001
3.222468e+003, 1.225670e-001
3.224396e+003, 1.220871e-001
3.226325e+003, 1.223231e-001
3.228253e+003, 1.223263e-001
3.230182e+003, 1.215202e-001
3.232110e+003, 1.214573e-001
3.234039e+003, 1.211190e-001
3.235967e+003, 1.201679e-001
3.237896e+003, 1.189190e-001
3.239824e+003, 1.196660e-001
3.241752e+003, 1.214129e-001
3.243681e+003, 1.222403e-001
3.245609e+003, 1.222109e-001
3.247538e+003, 1.213153e-001
3.249466e+003, 1.214823e-001
3.251395e+003, 1.214278e-001
3.253323e+003, 1.212157e-001
3.255252e+003, 1.206955e-001
3.257180e+003, 1.193514e-001
3.259109e+003, 1.189566e-001
3.261037e+003, 1.209033e-001
3.262966e+003, 1.202443e-001
3.264894e+003, 1.199051e-001
3.266823e+003, 1.206508e-001
3.268751e+003, 1.208646e-001
3.270679e+003, 1.202621e-001
3.272608e+003, 1.194064e-001
3.274536e+003, 1.191629e-001
3.276465e+003, 1.199628e-001
3.278393e+003, 1.192219e-001
3.280322e+003, 1.194417e-001
3.282250e+003, 1.200824e-001
3.284179e+003, 1.201737e-001
3.286107e+003, 1.219572e-001
3.288036e+003, 1.216498e-001
3.289964e+003, 1.200368e-001
3.291893e+003, 1.193005e-001
3.293821e+003, 1.199468e-001
3.295750e+003, 1.207537e-001
3.297678e+003, 1.203816e-001
3.299606e+003, 1.201287e-001
3.301535e+003, 1.195743e-001
3.303463e+003, 1.191160e-001
3.305392e+003, 1.202724e-001
3.307320e+003, 1.211483e-001
3.309249e+003, 1.203745e-001
3.311177e+003, 1.197219e-001
3.313106e+003, 1.194478e-001
3.315034e+003, 1.188705e-001
3.316963e+003, 1.192066e-001
3.318891e+003, 1.192890e-001
3.320820e+003, 1.195724e-001
3.322748e+003, 1.207028e-001
3.324677e+003, 1.211929e-001
3.326605e+003, 1.213057e-001
3.328533e+003, 1.209924e-001
3.330462e+003, 1.207483e-001
3.332390e+003, 1.214193e-001
3.334319e+003, 1.219746e-001
3.336247e+003, 1.214191e-001
3.338176e+003, 1.206250e-001
3.340104e+003, 1.196733e-001
3.342033e+003, 1.202489e-001
3.343961e+003, 1.218179e-001
3.345890e+003, 1.219799e-001
3.347818e+003, 1.212187e-001
3.349747e+003, 1.206296e-001
3.351675e+003, 1.203897e-001
3.353604e+003, 1.213621e-001
3.355532e+003, 1.219329e-001
3.357460e+003, 1.215835e-001
3.359389e+003, 1.220828e-001
3.361317e+003, 1.221887e-001
3.363246e+003, 1.223281e-001
3.365174e+003, 1.222137e-001
3.367103e+003, 1.221855e-001
3.369031e+003, 1.221700e-001
3.370960e+003, 1.219390e-001
3.372888e+003, 1.214036e-001
3.374817e+003, 1.211345e-001
3.376745e+003, 1.218859e-001
3.378674e+003, 1.231553e-001
3.380602e+003, 1.231306e-001
3.382531e+003, 1.224117e-001
3.384459e+003, 1.219947e-001
3.386387e+003, 1.228156e-001
3.388316e+003, 1.228165e-001
3.390244e+003, 1.219503e-001
3.392173e+003, 1.226838e-001
3.394101e+003, 1.238884e-001
3.396030e+003, 1.228742e-001
3.397958e+003, 1.212542e-001
3.399887e+003, 1.210570e-001
3.401815e+003, 1.213596e-001
3.403744e+003, 1.220431e-001
3.405672e+003, 1.214018e-001
3.407601e+003, 1.208284e-001
3.409529e+003, 1.217819e-001
3.411458e+003, 1.227750e-001
3.413386e+003, 1.229862e-001
3.415314e+003, 1.230495e-001
3.417243e+003, 1.229091e-001
3.419171e+003, 1.229613e-001
3.421100e+003, 1.233973e-001
3.423028e+003, 1.236282e-001
3.424957e+003, 1.232535e-001
3.426885e+003, 1.234481e-001
3.428814e+003, 1.238028e-001
3.430742e+003, 1.238275e-001
3.432671e+003, 1.231242e-001
3.434599e+003, 1.237297e-001
3.436528e+003, 1.241895e-001
3.438456e+003, 1.252183e-001
3.440385e+003, 1.264819e-001
3.442313e+003, 1.252860e-001
3.444241e+003, 1.236196e-001
3.446170e+003, 1.232056e-001
3.448098e+003, 1.233850e-001
3.450027e+003, 1.233304e-001
3.451955e+003, 1.234585e-001
3.453884e+003, 1.238886e-001
3.455812e+003, 1.246630e-001
3.457741e+003, 1.255528e-001
3.459669e+003, 1.251833e-001
3.461598e+003, 1.246397e-001
3.463526e+003, 1.241862e-001
3.465455e+003, 1.230006e-001
3.467383e+003, 1.230466e-001
3.469312e+003, 1.232088e-001
3.471240e+003, 1.249568e-001
3.473168e+003, 1.250799e-001
3.475097e+003, 1.242400e-001
3.477025e+003, 1.227794e-001
3.478954e+003, 1.223497e-001
3.480882e+003, 1.240875e-001
3.482811e+003, 1.264360e-001
3.484739e+003, 1.255397e-001
3.486668e+003, 1.235121e-001
3.488596e+003, 1.235529e-001
3.490525e+003, 1.249707e-001
3.492453e+003, 1.252704e-001
3.494382e+003, 1.261428e-001
3.496310e+003, 1.252329e-001
3.498239e+003, 1.232549e-001
3.500167e+003, 1.240296e-001
3.502095e+003, 1.259166e-001
3.504024e+003, 1.260778e-001
3.505952e+003, 1.248730e-001
3.507881e+003, 1.239932e-001
3.509809e+003, 1.245719e-001
3.511738e+003, 1.244531e-001
3.513666e+003, 1.257420e-001
3.515595e+003, 1.257744e-001
3.517523e+003, 1.241406e-001
3.519452e+003, 1.238554e-001
3.521380e+003, 1.248464e-001
3.523309e+003, 1.246835e-001
3.525237e+003, 1.258062e-001
3.527166e+003, 1.270489e-001
3.529094e+003, 1.254583e-001
3.531022e+003, 1.252947e-001
3.532951e+003, 1.254190e-001
3.534879e+003, 1.247644e-001
3.536808e+003, 1.251662e-001
3.538736e+003, 1.259613e-001
3.540665e+003, 1.265228e-001
3.542593e+003, 1.247565e-001
3.544522e+003, 1.251132e-001
3.546450e+003, 1.263001e-001
3.548379e+003, 1.265531e-001
3.550307e+003, 1.265501e-001
3.552236e+003, 1.274403e-001
3.554164e+003, 1.266055e-001
3.556093e+003, 1.245318e-001
3.558021e+003, 1.253075e-001
3.559949e+003, 1.275620e-001
3.561878e+003, 1.270837e-001
3.563806e+003, 1.265824e-001
3.565735e+003, 1.265408e-001
3.567663e+003, 1.261977e-001
3.569592e+003, 1.272025e-001
3.571520e+003, 1.280655e-001
3.573449e+003, 1.290487e-001
3.575377e+003, 1.284718e-001
3.577306e+003, 1.271629e-001
3.579234e+003, 1.263417e-001
3.581163e+003, 1.263093e-001
3.583091e+003, 1.261506e-001
3.585020e+003, 1.271618e-001
3.586948e+003, 1.285876e-001
3.588876e+003, 1.267073e-001
3.590805e+003, 1.247088e-001
3.592733e+003, 1.255765e-001
3.594662e+003, 1.263578e-001
3.596590e+003, 1.268646e-001
3.598519e+003, 1.270166e-001
3.600447e+003, 1.285991e-001
3.602376e+003, 1.285221e-001
3.604304e+003, 1.249275e-001
3.606233e+003, 1.239251e-001
3.608161e+003, 1.239415e-001
3.610090e+003, 1.255555e-001
3.612018e+003, 1.262481e-001
3.613947e+003, 1.285757e-001
3.615875e+003, 1.282622e-001
3.617803e+003, 1.264741e-001
3.619732e+003, 1.263216e-001
3.621660e+003, 1.275564e-001
3.623589e+003, 1.291145e-001
3.625517e+003, 1.279874e-001
3.627446e+003, 1.261812e-001
3.629374e+003, 1.280650e-001
3.631303e+003, 1.293315e-001
3.633231e+003, 1.293501e-001
3.635160e+003, 1.278856e-001
3.637088e+003, 1.265768e-001
3.639017e+003, 1.268295e-001
3.640945e+003, 1.280362e-001
3.642874e+003, 1.294413e-001
3.644802e+003, 1.296801e-001
3.646730e+003, 1.275709e-001
3.648659e+003, 1.254422e-001
3.650587e+003, 1.280173e-001
3.652516e+003, 1.283705e-001
3.654444e+003, 1.259816e-001
3.656373e+003, 1.285783e-001
3.658301e+003, 1.286943e-001
3.660230e+003, 1.294874e-001
3.662158e+003, 1.290160e-001
3.664087e+003, 1.270851e-001
3.666015e+003, 1.272779e-001
3.667944e+003, 1.266907e-001
3.669872e+003, 1.248202e-001
3.671801e+003, 1.256884e-001
3.673729e+003, 1.275136e-001
3.675657e+003, 1.310146e-001
3.677586e+003, 1.306920e-001
3.679514e+003, 1.300622e-001
3.681443e+003, 1.301438e-001
3.683371e+003, 1.308479e-001
3.685300e+003, 1.306722e-001
3.687228e+003, 1.285155e-001
3.689157e+003, 1.302854e-001
3.691085e+003, 1.296744e-001
3.693014e+003, 1.305291e-001
3.694942e+003, 1.327356e-001
3.696871e+003, 1.329984e-001
3.698799e+003, 1.303217e-001
3.700728e+003, 1.312836e-001
3.702656e+003, 1.335134e-001
3.704584e+003, 1.312991e-001
3.706513e+003, 1.291395e-001
3.708441e+003, 1.297480e-001
3.710370e+003, 1.321020e-001
3.712298e+003, 1.332588e-001
3.714227e+003, 1.307858e-001
3.716155e+003, 1.297165e-001
3.718084e+003, 1.312811e-001
3.720012e+003, 1.324702e-001
3.721941e+003, 1.314084e-001
3.723869e+003, 1.304937e-001
3.725798e+003, 1.320843e-001
3.727726e+003, 1.323429e-001
3.729655e+003, 1.320254e-001
3.731583e+003, 1.313571e-001
3.733511e+003, 1.289368e-001
3.735440e+003, 1.307075e-001
3.737368e+003, 1.349137e-001
3.739297e+003, 1.335425e-001
3.741225e+003, 1.319507e-001
3.743154e+003, 1.294240e-001
3.745082e+003, 1.343942e-001
3.747011e+003, 1.332674e-001
3.748939e+003, 1.332408e-001
3.750868e+003, 1.311129e-001
3.752796e+003, 1.315340e-001
3.754725e+003, 1.317563e-001
3.756653e+003, 1.358582e-001
3.758582e+003, 1.365618e-001
3.760510e+003, 1.354538e-001
3.762438e+003, 1.351846e-001
3.764367e+003, 1.349240e-001
3.766295e+003, 1.346901e-001
3.768224e+003, 1.330153e-001
3.770152e+003, 1.343393e-001
3.772081e+003, 1.347286e-001
3.774009e+003, 1.361157e-001
3.775938e+003, 1.356964e-001
3.777866e+003, 1.346881e-001
3.779795e+003, 1.343378e-001
3.781723e+003, 1.339540e-001
3.783652e+003, 1.360339e-001
3.785580e+003, 1.359138e-001
3.787509e+003, 1.335692e-001
3.789437e+003, 1.352819e-001
3.791365e+003, 1.378421e-001
3.793294e+003, 1.368100e-001
3.795222e+003, 1.365418e-001
3.797151e+003, 1.357298e-001
3.799079e+003, 1.323457e-001
3.801008e+003, 1.338360e-001
3.802936e+003, 1.341491e-001
3.804865e+003, 1.328222e-001
3.806793e+003, 1.352571e-001
3.808722e+003, 1.362978e-001
3.810650e+003, 1.370787e-001
3.812579e+003, 1.364146e-001
3.814507e+003, 1.337558e-001
3.816436e+003, 1.375327e-001
3.818364e+003, 1.385343e-001
3.820292e+003, 1.377501e-001
3.822221e+003, 1.364160e-001
3.824149e+003, 1.352937e-001
3.826078e+003, 1.379778e-001
3.828006e+003, 1.394168e-001
3.829935e+003, 1.390672e-001
3.831863e+003, 1.376624e-001
3.833792e+003, 1.374177e-001
3.835720e+003, 1.384901e-001
3.837649e+003, 1.361492e-001
3.839577e+003, 1.352538e-001
3.841506e+003, 1.366610e-001
3.843434e+003, 1.376318e-001
3.845363e+003, 1.380323e-001
3.847291e+003, 1.388445e-001
3.849219e+003, 1.386959e-001
3.851148e+003, 1.365597e-001
3.853076e+003, 1.369276e-001
3.855005e+003, 1.414377e-001
3.856933e+003, 1.383234e-001
3.858862e+003, 1.395139e-001
3.860790e+003, 1.390930e-001
3.862719e+003, 1.372717e-001
3.864647e+003, 1.388658e-001
3.866576e+003, 1.407425e-001
3.868504e+003, 1.382657e-001
3.870433e+003, 1.398485e-001
3.872361e+003, 1.385169e-001
3.874290e+003, 1.394479e-001
3.876218e+003, 1.379186e-001
3.878146e+003, 1.369324e-001
3.880075e+003, 1.387364e-001
3.882003e+003, 1.387073e-001
3.883932e+003, 1.397056e-001
3.885860e+003, 1.429818e-001
3.887789e+003, 1.419148e-001
3.889717e+003, 1.403337e-001
3.891646e+003, 1.410012e-001
3.893574e+003, 1.409062e-001
3.895503e+003, 1.414244e-001
3.897431e+003, 1.404817e-001
3.899360e+003, 1.416506e-001
3.901288e+003, 1.427468e-001
3.903217e+003, 1.441395e-001
3.905145e+003, 1.436682e-001
3.907073e+003, 1.403436e-001
3.909002e+003, 1.404352e-001
3.910930e+003, 1.404069e-001
3.912859e+003, 1.407344e-001
3.914787e+003, 1.413304e-001
3.916716e+003, 1.422842e-001
3.918644e+003, 1.416787e-001
3.920573e+003, 1.407832e-001
3.922501e+003, 1.419127e-001
3.924430e+003, 1.425829e-001
3.926358e+003, 1.428321e-001
3.928287e+003, 1.438857e-001
3.930215e+003, 1.444704e-001
3.932144e+003, 1.441664e-001
3.934072e+003, 1.415094e-001
3.936000e+003, 1.410120e-001
3.937929e+003, 1.434052e-001
3.939857e+003, 1.444581e-001
3.941786e+003, 1.437474e-001
3.943714e+003, 1.438309e-001
3.945643e+003, 1.431880e-001
3.947571e+003, 1.416222e-001
3.949500e+003, 1.433130e-001
3.951428e+003, 1.439202e-001
3.953357e+003, 1.439543e-001
3.955285e+003, 1.449036e-001
3.957214e+003, 1.454879e-001
3.959142e+003, 1.427911e-001
3.961071e+003, 1.435841e-001
3.962999e+003, 1.443534e-001
3.964927e+003, 1.437773e-001
3.966856e+003, 1.439955e-001
3.968784e+003, 1.443571e-001
3.970713e+003, 1.452580e-001
3.972641e+003, 1.458821e-001
3.974570e+003, 1.445891e-001
3.976498e+003, 1.435527e-001
3.978427e+003, 1.436614e-001
3.980355e+003, 1.434817e-001
3.982284e+003, 1.443149e-001
3.984212e+003, 1.456837e-001
3.986141e+003, 1.447258e-001
3.988069e+003, 1.425931e-001
3.989998e+003, 1.441147e-001
3.991926e+003, 1.457750e-001
3.993854e+003, 1.469458e-001
3.995783e+003, 1.495986e-001
3.997711e+003, 1.479174e-001
3.999640e+003, 1.479820e-001
##END=



