##NAMES=Inderite
##RRUFFID=R050195
##IDEAL CHEMISTRY=MgB_3_O_3_(OH)_5_&#183;5H_2_O
##LOCALITY=Boron, Kern County, California, USA
##OWNER=RRUFF
##SOURCE=Dave Bunk Minerals
##DESCRIPTION=Colorless prismatic crystal
##STATUS=The identification of this mineral has been confirmed by X-ray diffraction and chemical analysis
##URL=rruff.info/R050195
##MEASURED CHEMISTRY=Mg_1.00_B_3.00_O_3_(OH)_5_Â·5H_2_O ; Mg measured, only
5.014013e+001, 1.592588e-003
5.206860e+001, 3.105832e-003
5.399707e+001, 3.136172e-003
5.592553e+001, 4.345028e-003
5.785400e+001, 7.581603e-003
5.978246e+001, 9.070259e-003
6.171093e+001, 8.259962e-003
6.363940e+001, 9.664332e-003
6.556786e+001, 9.475766e-003
6.749633e+001, 9.751901e-003
6.942480e+001, 1.123795e-002
7.135326e+001, 1.163726e-002
7.328172e+001, 1.501951e-002
7.521019e+001, 1.623035e-002
7.713866e+001, 1.399420e-002
7.906712e+001, 1.111605e-002
8.099559e+001, 9.802316e-003
8.292406e+001, 1.031413e-002
8.485252e+001, 1.132710e-002
8.678099e+001, 1.123539e-002
8.870946e+001, 1.083861e-002
9.063792e+001, 1.093413e-002
9.256638e+001, 1.151134e-002
9.449485e+001, 1.282751e-002
9.642332e+001, 1.486536e-002
9.835178e+001, 1.619252e-002
1.002803e+002, 1.672733e-002
1.022087e+002, 1.705750e-002
1.041372e+002, 1.729237e-002
1.060657e+002, 1.839842e-002
1.079941e+002, 2.015979e-002
1.099226e+002, 2.095712e-002
1.118510e+002, 1.996891e-002
1.137795e+002, 1.841210e-002
1.157080e+002, 1.813340e-002
1.176364e+002, 1.876201e-002
1.195649e+002, 1.985970e-002
1.214934e+002, 1.930783e-002
1.234218e+002, 1.881953e-002
1.253503e+002, 1.932844e-002
1.272788e+002, 2.012711e-002
1.292072e+002, 2.001244e-002
1.311357e+002, 2.051708e-002
1.330642e+002, 2.135102e-002
1.349926e+002, 2.303521e-002
1.369211e+002, 2.506929e-002
1.388496e+002, 2.541247e-002
1.407780e+002, 2.417547e-002
1.427065e+002, 2.390167e-002
1.446350e+002, 2.481418e-002
1.465634e+002, 2.562532e-002
1.484919e+002, 2.529788e-002
1.504204e+002, 2.353941e-002
1.523488e+002, 2.137509e-002
1.542773e+002, 2.024632e-002
1.562058e+002, 2.014490e-002
1.581342e+002, 2.053225e-002
1.600627e+002, 2.058285e-002
1.619912e+002, 2.099046e-002
1.639196e+002, 2.132786e-002
1.658481e+002, 2.163204e-002
1.677766e+002, 2.233439e-002
1.697050e+002, 2.328877e-002
1.716335e+002, 2.453979e-002
1.735620e+002, 2.627154e-002
1.754904e+002, 2.809883e-002
1.774189e+002, 3.025461e-002
1.793474e+002, 3.291776e-002
1.812758e+002, 3.546212e-002
1.832043e+002, 3.642312e-002
1.851328e+002, 3.621074e-002
1.870612e+002, 3.577083e-002
1.889897e+002, 3.514185e-002
1.909182e+002, 3.381806e-002
1.928466e+002, 3.171365e-002
1.947751e+002, 2.931722e-002
1.967036e+002, 2.795330e-002
1.986320e+002, 2.759465e-002
2.005605e+002, 2.791149e-002
2.024890e+002, 2.794520e-002
2.044174e+002, 2.805748e-002
2.063459e+002, 2.882973e-002
2.082744e+002, 3.061752e-002
2.102028e+002, 3.303377e-002
2.121313e+002, 3.502195e-002
2.140598e+002, 3.633421e-002
2.159882e+002, 3.651538e-002
2.179167e+002, 3.559241e-002
2.198452e+002, 3.422381e-002
2.217736e+002, 3.284326e-002
2.237021e+002, 3.186866e-002
2.256305e+002, 3.174168e-002
2.275590e+002, 3.223111e-002
2.294875e+002, 3.177250e-002
2.314159e+002, 3.007149e-002
2.333444e+002, 2.811440e-002
2.352729e+002, 2.692517e-002
2.372013e+002, 2.672486e-002
2.391298e+002, 2.754904e-002
2.410583e+002, 2.895112e-002
2.429867e+002, 3.083516e-002
2.449152e+002, 3.291786e-002
2.468437e+002, 3.516909e-002
2.487721e+002, 3.725082e-002
2.507006e+002, 3.795061e-002
2.526291e+002, 3.727379e-002
2.545575e+002, 3.553692e-002
2.564860e+002, 3.342902e-002
2.584145e+002, 3.157587e-002
2.603429e+002, 3.001413e-002
2.622714e+002, 2.892215e-002
2.641999e+002, 2.793057e-002
2.661283e+002, 2.734963e-002
2.680568e+002, 2.720618e-002
2.699853e+002, 2.756488e-002
2.719137e+002, 2.823247e-002
2.738422e+002, 2.907616e-002
2.757707e+002, 2.985448e-002
2.776991e+002, 3.072595e-002
2.796276e+002, 3.123262e-002
2.815561e+002, 3.120327e-002
2.834845e+002, 3.073508e-002
2.854130e+002, 3.014423e-002
2.873415e+002, 2.940489e-002
2.892699e+002, 2.857882e-002
2.911984e+002, 2.799678e-002
2.931269e+002, 2.784371e-002
2.950553e+002, 2.767571e-002
2.969838e+002, 2.770152e-002
2.989123e+002, 2.781669e-002
3.008407e+002, 2.807689e-002
3.027692e+002, 2.860938e-002
3.046977e+002, 2.917773e-002
3.066261e+002, 2.949099e-002
3.085546e+002, 2.989989e-002
3.104831e+002, 3.038512e-002
3.124115e+002, 3.108997e-002
3.143400e+002, 3.191514e-002
3.162685e+002, 3.312809e-002
3.181969e+002, 3.467312e-002
3.201254e+002, 3.579202e-002
3.220539e+002, 3.650636e-002
3.239823e+002, 3.696413e-002
3.259108e+002, 3.691933e-002
3.278392e+002, 3.625884e-002
3.297677e+002, 3.558632e-002
3.316962e+002, 3.572547e-002
3.336246e+002, 3.613844e-002
3.355531e+002, 3.632040e-002
3.374816e+002, 3.616368e-002
3.394100e+002, 3.611640e-002
3.413385e+002, 3.644146e-002
3.432670e+002, 3.678488e-002
3.451954e+002, 3.722902e-002
3.471239e+002, 3.772415e-002
3.490524e+002, 3.830396e-002
3.509808e+002, 3.895333e-002
3.529093e+002, 3.940851e-002
3.548378e+002, 3.990561e-002
3.567662e+002, 4.030687e-002
3.586947e+002, 4.048550e-002
3.606232e+002, 4.037891e-002
3.625516e+002, 4.009420e-002
3.644801e+002, 3.964441e-002
3.664086e+002, 3.969935e-002
3.683370e+002, 3.993268e-002
3.702655e+002, 4.008291e-002
3.721940e+002, 4.033553e-002
3.741224e+002, 4.099023e-002
3.760509e+002, 4.137360e-002
3.779794e+002, 4.144042e-002
3.799078e+002, 4.167892e-002
3.818363e+002, 4.217228e-002
3.837648e+002, 4.252718e-002
3.856932e+002, 4.273485e-002
3.876217e+002, 4.318708e-002
3.895502e+002, 4.390489e-002
3.914786e+002, 4.467926e-002
3.934071e+002, 4.539888e-002
3.953356e+002, 4.605141e-002
3.972640e+002, 4.643649e-002
3.991925e+002, 4.669353e-002
4.011210e+002, 4.693810e-002
4.030494e+002, 4.710207e-002
4.049779e+002, 4.709867e-002
4.069064e+002, 4.702494e-002
4.088348e+002, 4.725080e-002
4.107633e+002, 4.782830e-002
4.126917e+002, 4.819499e-002
4.146202e+002, 4.815391e-002
4.165487e+002, 4.822120e-002
4.184771e+002, 4.850707e-002
4.204056e+002, 4.878581e-002
4.223341e+002, 4.913683e-002
4.242625e+002, 4.982936e-002
4.261910e+002, 5.052520e-002
4.281195e+002, 5.144028e-002
4.300479e+002, 5.271668e-002
4.319764e+002, 5.389709e-002
4.339049e+002, 5.447735e-002
4.358333e+002, 5.484530e-002
4.377618e+002, 5.485022e-002
4.396903e+002, 5.436151e-002
4.416187e+002, 5.351757e-002
4.435472e+002, 5.287719e-002
4.454757e+002, 5.241691e-002
4.474041e+002, 5.219262e-002
4.493326e+002, 5.248390e-002
4.512611e+002, 5.305286e-002
4.531895e+002, 5.369417e-002
4.551180e+002, 5.428226e-002
4.570465e+002, 5.410023e-002
4.589749e+002, 5.328567e-002
4.609034e+002, 5.204156e-002
4.628319e+002, 5.074561e-002
4.647603e+002, 4.985617e-002
4.666888e+002, 4.933330e-002
4.686173e+002, 4.884032e-002
4.705457e+002, 4.885800e-002
4.724742e+002, 4.907069e-002
4.744027e+002, 4.909884e-002
4.763311e+002, 4.945334e-002
4.782596e+002, 5.042018e-002
4.801881e+002, 5.108306e-002
4.821165e+002, 5.190789e-002
4.840450e+002, 5.350791e-002
4.859735e+002, 5.511984e-002
4.879019e+002, 5.577298e-002
4.898304e+002, 5.542828e-002
4.917589e+002, 5.461906e-002
4.936873e+002, 5.350099e-002
4.956158e+002, 5.249912e-002
4.975443e+002, 5.201044e-002
4.994727e+002, 5.193817e-002
5.014012e+002, 5.202783e-002
5.033297e+002, 5.217303e-002
5.052581e+002, 5.219800e-002
5.071866e+002, 5.239805e-002
5.091151e+002, 5.284073e-002
5.110435e+002, 5.268134e-002
5.129720e+002, 5.253541e-002
5.149005e+002, 5.264913e-002
5.168289e+002, 5.297564e-002
5.187574e+002, 5.324577e-002
5.206859e+002, 5.355643e-002
5.226143e+002, 5.377825e-002
5.245428e+002, 5.407077e-002
5.264713e+002, 5.389213e-002
5.283997e+002, 5.414759e-002
5.303282e+002, 5.463842e-002
5.322567e+002, 5.512051e-002
5.341851e+002, 5.543170e-002
5.361136e+002, 5.541844e-002
5.380421e+002, 5.574841e-002
5.399705e+002, 5.621799e-002
5.418990e+002, 5.654636e-002
5.438275e+002, 5.701632e-002
5.457559e+002, 5.740762e-002
5.476844e+002, 5.775310e-002
5.496129e+002, 5.833535e-002
5.515413e+002, 5.898722e-002
5.534698e+002, 5.964838e-002
5.553983e+002, 6.052589e-002
5.573267e+002, 6.153193e-002
5.592552e+002, 6.244408e-002
5.611837e+002, 6.300983e-002
5.631121e+002, 6.329286e-002
5.650406e+002, 6.327977e-002
5.669691e+002, 6.337316e-002
5.688975e+002, 6.320776e-002
5.708260e+002, 6.253608e-002
5.727545e+002, 6.217727e-002
5.746829e+002, 6.228263e-002
5.766114e+002, 6.219129e-002
5.785399e+002, 6.205191e-002
5.804683e+002, 6.207770e-002
5.823968e+002, 6.210792e-002
5.843253e+002, 6.153926e-002
5.862537e+002, 6.064078e-002
5.881822e+002, 5.889694e-002
5.901107e+002, 5.690735e-002
5.920391e+002, 5.543989e-002
5.939676e+002, 5.477668e-002
5.958961e+002, 5.459168e-002
5.978245e+002, 5.455666e-002
5.997530e+002, 5.462692e-002
6.016815e+002, 5.475810e-002
6.036099e+002, 5.497099e-002
6.055384e+002, 5.545240e-002
6.074669e+002, 5.556483e-002
6.093953e+002, 5.642108e-002
6.113238e+002, 5.737311e-002
6.132523e+002, 5.740236e-002
6.151807e+002, 5.792226e-002
6.171091e+002, 5.873332e-002
6.190376e+002, 5.944989e-002
6.209661e+002, 6.002513e-002
6.228945e+002, 6.022988e-002
6.248230e+002, 6.050088e-002
6.267515e+002, 6.165541e-002
6.286799e+002, 6.343784e-002
6.306084e+002, 6.469677e-002
6.325369e+002, 6.534425e-002
6.344653e+002, 6.572699e-002
6.363938e+002, 6.602341e-002
6.383223e+002, 6.651549e-002
6.402507e+002, 6.730305e-002
6.421792e+002, 6.777199e-002
6.441077e+002, 6.813864e-002
6.460361e+002, 6.848496e-002
6.479646e+002, 6.872780e-002
6.498931e+002, 6.907283e-002
6.518215e+002, 6.928819e-002
6.537500e+002, 6.954371e-002
6.556785e+002, 6.931665e-002
6.576069e+002, 6.905584e-002
6.595354e+002, 6.920443e-002
6.614639e+002, 6.909687e-002
6.633923e+002, 6.881860e-002
6.653208e+002, 6.873006e-002
6.672493e+002, 6.855454e-002
6.691777e+002, 6.835872e-002
6.711062e+002, 6.861717e-002
6.730347e+002, 6.837546e-002
6.749631e+002, 6.782805e-002
6.768916e+002, 6.779297e-002
6.788201e+002, 6.763523e-002
6.807485e+002, 6.694291e-002
6.826770e+002, 6.625453e-002
6.846055e+002, 6.602126e-002
6.865339e+002, 6.593946e-002
6.884624e+002, 6.548995e-002
6.903909e+002, 6.519879e-002
6.923193e+002, 6.493277e-002
6.942478e+002, 6.427176e-002
6.961763e+002, 6.344964e-002
6.981047e+002, 6.227962e-002
7.000332e+002, 6.193065e-002
##END=



