##NAMES=Kurnakovite
##RRUFFID=R050393
##IDEAL CHEMISTRY=MgB_3_O_3_(OH)_5_&#183;5H_2_O
##LOCALITY=Kramer deposit, Boron, Kern County, California, USA
##OWNER=RRUFF
##SOURCE=Marcus Origlieri
##DESCRIPTION=Colorless to gray cleavage fragment
##STATUS=The identification of this mineral has been confirmed by X-ray diffraction and chemical analysis
##URL=rruff.info/R050393
##MEASURED CHEMISTRY=Mg_1.00_B_3_O_3_(OH)_5_·5H_2_O ; = lighter phase. The darker phase: (Mg_0.97_Al_0.02_[box]_0.01_)_Σ=1_B_3_O_3_(OH)_5_·5H_2_O ; B not measured but estimated by stoichiometry
399.1926, 9.5632613E-02
401.1211, 8.7880768E-02
403.0496, 8.8303261E-02
404.9780, 8.9351408E-02
406.9065, 8.8642329E-02
408.8350, 9.3096219E-02
410.7634, 9.5662527E-02
412.6919, 9.5477380E-02
414.6204, 9.2393287E-02
416.5488, 8.7226689E-02
418.4773, 8.1188694E-02
420.4058, 7.6943427E-02
422.3342, 7.2662808E-02
424.2627, 6.8358369E-02
426.1912, 6.8389699E-02
428.1196, 7.1965829E-02
430.0481, 7.5823389E-02
431.9766, 7.7273987E-02
433.9050, 7.8649372E-02
435.8335, 8.1258409E-02
437.7620, 8.5033588E-02
439.6904, 8.8933617E-02
441.6189, 9.2734799E-02
443.5474, 9.5754758E-02
445.4758, 9.8461233E-02
447.4043, 0.1024530
449.3328, 0.1071117
451.2612, 0.1111523
453.1897, 0.1139610
455.1182, 0.1155635
457.0466, 0.1175396
458.9751, 0.1204186
460.9036, 0.1236174
462.8320, 0.1263046
464.7605, 0.1276861
466.6890, 0.1286653
468.6174, 0.1273961
470.5459, 0.1241469
472.4744, 0.1195690
474.4028, 0.1159971
476.3313, 0.1129795
478.2598, 0.1107978
480.1882, 0.1103621
482.1167, 0.1105697
484.0452, 0.1107707
485.9736, 0.1103542
487.9021, 0.1096946
489.8306, 0.1094323
491.7590, 0.1086666
493.6875, 0.1074492
495.6160, 0.1079298
497.5444, 0.1086441
499.4729, 0.1091320
501.4014, 0.1089570
503.3298, 0.1093936
505.2583, 0.1102639
507.1868, 0.1103825
509.1152, 0.1115908
511.0437, 0.1122318
512.9722, 0.1121636
514.9006, 0.1133690
516.8291, 0.1149220
518.7576, 0.1161112
520.6860, 0.1170191
522.6145, 0.1174837
524.5430, 0.1177324
526.4714, 0.1170130
528.3999, 0.1153281
530.3284, 0.1146453
532.2568, 0.1138527
534.1853, 0.1122362
536.1138, 0.1104242
538.0422, 0.1083564
539.9707, 0.1067082
541.8992, 0.1062009
543.8276, 0.1063690
545.7561, 0.1074303
547.6846, 0.1073176
549.6130, 0.1058682
551.5415, 0.1038172
553.4700, 0.1010262
555.3984, 9.8561034E-02
557.3269, 9.6889094E-02
559.2554, 9.7144566E-02
561.1838, 9.8421343E-02
563.1123, 9.9750876E-02
565.0408, 0.1011047
566.9692, 0.1033922
568.8977, 0.1058666
570.8262, 0.1077672
572.7546, 0.1104388
574.6831, 0.1133632
576.6116, 0.1157277
578.5400, 0.1171002
580.4685, 0.1174371
582.3970, 0.1176797
584.3254, 0.1176317
586.2539, 0.1178068
588.1824, 0.1190751
590.1108, 0.1204048
592.0393, 0.1216816
593.9678, 0.1232452
595.8962, 0.1253610
597.8247, 0.1272939
599.7532, 0.1284032
601.6816, 0.1290273
603.6101, 0.1299959
605.5386, 0.1314457
607.4670, 0.1332107
609.3955, 0.1343002
611.3240, 0.1347187
613.2524, 0.1356524
615.1809, 0.1366560
617.1094, 0.1374638
619.0378, 0.1382301
620.9663, 0.1385075
622.8948, 0.1384654
624.8232, 0.1389334
626.7517, 0.1393203
628.6802, 0.1393126
630.6086, 0.1392674
632.5371, 0.1396011
634.4656, 0.1397956
636.3940, 0.1403397
638.3225, 0.1419357
640.2510, 0.1439421
642.1794, 0.1458622
644.1079, 0.1477683
646.0364, 0.1501286
647.9648, 0.1519594
649.8933, 0.1529361
651.8218, 0.1540695
653.7502, 0.1542228
655.6787, 0.1525954
657.6072, 0.1498628
659.5356, 0.1467495
661.4641, 0.1424679
663.3926, 0.1371448
665.3210, 0.1319660
667.2495, 0.1273584
669.1780, 0.1235292
671.1064, 0.1203777
673.0349, 0.1186160
674.9634, 0.1178637
676.8918, 0.1174068
678.8203, 0.1174448
680.7488, 0.1176116
682.6772, 0.1186810
684.6057, 0.1198727
686.5342, 0.1206971
688.4626, 0.1216406
690.3911, 0.1230753
692.3196, 0.1247118
694.2480, 0.1262154
696.1765, 0.1276644
698.1050, 0.1294524
700.0334, 0.1308293
701.9619, 0.1316654
703.8904, 0.1321446
705.8188, 0.1324336
707.7473, 0.1329203
709.6758, 0.1335858
711.6042, 0.1338192
713.5327, 0.1337386
715.4612, 0.1336817
717.3896, 0.1331509
719.3181, 0.1321915
721.2466, 0.1317999
723.1750, 0.1318109
725.1035, 0.1321871
727.0320, 0.1328307
728.9604, 0.1339374
730.8889, 0.1355302
732.8174, 0.1369665
734.7458, 0.1384412
736.6743, 0.1393929
738.6028, 0.1393443
740.5313, 0.1393634
742.4597, 0.1390242
744.3882, 0.1382907
746.3167, 0.1373183
748.2451, 0.1363617
750.1736, 0.1354124
752.1021, 0.1343718
754.0305, 0.1325783
755.9590, 0.1305780
757.8875, 0.1284081
759.8159, 0.1257413
761.7444, 0.1234768
763.6729, 0.1219750
765.6013, 0.1200031
767.5298, 0.1177775
769.4583, 0.1157888
771.3867, 0.1139860
773.3152, 0.1123027
775.2437, 0.1105940
777.1721, 0.1097222
779.1006, 0.1087916
781.0291, 0.1075413
782.9575, 0.1065729
784.8860, 0.1061557
786.8145, 0.1063712
788.7429, 0.1065946
790.6714, 0.1073333
792.5999, 0.1084363
794.5283, 0.1100571
796.4568, 0.1128189
798.3853, 0.1162387
800.3137, 0.1197655
802.2422, 0.1238227
804.1707, 0.1286974
806.0991, 0.1336704
808.0276, 0.1377525
809.9561, 0.1404620
811.8845, 0.1416834
813.8130, 0.1418574
815.7415, 0.1406290
817.6699, 0.1388958
819.5984, 0.1369273
821.5269, 0.1354248
823.4553, 0.1342465
825.3838, 0.1326767
827.3123, 0.1315790
829.2407, 0.1313452
831.1692, 0.1311736
833.0977, 0.1315728
835.0261, 0.1323959
836.9546, 0.1335565
838.8831, 0.1347201
840.8115, 0.1362708
842.7400, 0.1381547
844.6685, 0.1395965
846.5969, 0.1406890
848.5254, 0.1416068
850.4539, 0.1423106
852.3823, 0.1428570
854.3108, 0.1427594
856.2393, 0.1422808
858.1677, 0.1417048
860.0962, 0.1411584
862.0247, 0.1404591
863.9531, 0.1400978
865.8816, 0.1400874
867.8101, 0.1395369
869.7385, 0.1387881
871.6670, 0.1381705
873.5955, 0.1369794
875.5239, 0.1351397
877.4524, 0.1333952
879.3809, 0.1317297
881.3093, 0.1303144
883.2378, 0.1292907
885.1663, 0.1290211
887.0947, 0.1285930
889.0232, 0.1272610
890.9517, 0.1255149
892.8801, 0.1233552
894.8085, 0.1211982
896.7370, 0.1185568
898.6655, 0.1152706
900.5939, 0.1115994
902.5224, 0.1079896
904.4509, 0.1045046
906.3793, 0.1005785
908.3078, 9.6179336E-02
910.2363, 9.2253722E-02
912.1647, 8.9027159E-02
914.0932, 8.5665382E-02
916.0217, 8.2516387E-02
917.9501, 7.9943269E-02
919.8786, 7.8260437E-02
921.8071, 7.7083133E-02
923.7355, 7.6041952E-02
925.6640, 7.5957723E-02
927.5925, 7.6603837E-02
929.5209, 7.7935457E-02
931.4494, 7.9908870E-02
933.3779, 8.2301587E-02
935.3063, 8.4728926E-02
937.2348, 8.6537682E-02
939.1633, 8.7380894E-02
941.0917, 8.8089220E-02
943.0202, 8.8651203E-02
944.9487, 8.9008383E-02
946.8771, 9.0052739E-02
948.8056, 9.2015810E-02
950.7341, 9.4896652E-02
952.6625, 9.8850287E-02
954.5910, 0.1038598
956.5195, 0.1097262
958.4479, 0.1165284
960.3764, 0.1244099
962.3049, 0.1320472
964.2333, 0.1391882
966.1618, 0.1458059
968.0903, 0.1520846
970.0187, 0.1579088
971.9472, 0.1629021
973.8757, 0.1677602
975.8041, 0.1720662
977.7326, 0.1751943
979.6611, 0.1775083
981.5895, 0.1791122
983.5180, 0.1801058
985.4465, 0.1803765
987.3749, 0.1807996
989.3034, 0.1815648
991.2319, 0.1822657
993.1603, 0.1829393
995.0888, 0.1836699
997.0173, 0.1846257
998.9457, 0.1856985
1000.874, 0.1866842
1002.803, 0.1877232
1004.731, 0.1890009
1006.660, 0.1898491
1008.588, 0.1900403
1010.517, 0.1896173
1012.445, 0.1884102
1014.373, 0.1864768
1016.302, 0.1828993
1018.230, 0.1790969
1020.159, 0.1751996
1022.087, 0.1708421
1024.016, 0.1667613
1025.944, 0.1633206
1027.873, 0.1596729
1029.801, 0.1560834
1031.730, 0.1526210
1033.658, 0.1490723
1035.587, 0.1458571
1037.515, 0.1432269
1039.444, 0.1406732
1041.372, 0.1381033
1043.301, 0.1355469
1045.229, 0.1326318
1047.157, 0.1297824
1049.086, 0.1270031
1051.014, 0.1240207
1052.943, 0.1213698
1054.871, 0.1190584
1056.800, 0.1167295
1058.728, 0.1138642
1060.657, 0.1108441
1062.585, 0.1077927
1064.514, 0.1048547
1066.442, 0.1021242
1068.371, 9.9193998E-02
1070.299, 9.6092820E-02
1072.228, 9.2847623E-02
1074.156, 8.9718081E-02
1076.084, 8.6417757E-02
1078.013, 8.3137721E-02
1079.941, 7.9961970E-02
1081.870, 7.6947071E-02
1083.798, 7.4474476E-02
1085.727, 7.2590530E-02
1087.655, 7.1223423E-02
1089.584, 7.0311673E-02
1091.512, 6.9674239E-02
1093.441, 6.9012754E-02
1095.369, 6.8897977E-02
1097.298, 6.8883769E-02
1099.226, 6.8413809E-02
1101.155, 6.7888997E-02
1103.083, 6.7325503E-02
1105.011, 6.6487327E-02
1106.940, 6.5482058E-02
1108.868, 6.4091638E-02
1110.797, 6.2570579E-02
1112.725, 6.1338581E-02
1114.654, 6.0361009E-02
1116.582, 5.9181388E-02
1118.511, 5.8008779E-02
1120.439, 5.7197969E-02
1122.368, 5.6356829E-02
1124.296, 5.5429529E-02
1126.225, 5.4902520E-02
1128.153, 5.4599602E-02
1130.082, 5.4383568E-02
1132.010, 5.4329019E-02
1133.938, 5.4136571E-02
1135.867, 5.3951290E-02
1137.795, 5.4158390E-02
1139.724, 5.4498270E-02
1141.652, 5.4943830E-02
1143.581, 5.5458911E-02
1145.509, 5.6074709E-02
1147.438, 5.7002749E-02
1149.366, 5.7890210E-02
1151.295, 5.8790680E-02
1153.223, 5.9970882E-02
1155.152, 6.0792979E-02
1157.080, 6.1041940E-02
1159.009, 6.1269220E-02
1160.937, 6.1243441E-02
1162.865, 6.0334049E-02
1164.794, 5.8946669E-02
1166.722, 5.7535421E-02
1168.651, 5.6285180E-02
1170.579, 5.5045221E-02
1172.508, 5.3854842E-02
1174.436, 5.2868590E-02
1176.365, 5.2316502E-02
1178.293, 5.1876761E-02
1180.222, 5.1766351E-02
1182.150, 5.2351359E-02
1184.079, 5.3156361E-02
1186.007, 5.4428112E-02
1187.936, 5.5740550E-02
1189.864, 5.7392281E-02
1191.792, 5.9589460E-02
1193.721, 6.2045511E-02
1195.649, 6.4599030E-02
1197.578, 6.7761637E-02
1199.506, 7.1229883E-02
1201.435, 7.5177282E-02
1203.363, 7.9488032E-02
1205.292, 8.4247723E-02
1207.220, 8.9019053E-02
1209.149, 9.3786687E-02
1211.077, 9.8199531E-02
1213.006, 0.1019945
1214.934, 0.1047730
1216.863, 0.1061433
1218.791, 0.1062416
1220.719, 0.1047804
1222.648, 0.1016863
1224.576, 9.8225363E-02
1226.505, 9.4361737E-02
1228.433, 8.9846797E-02
1230.362, 8.5284509E-02
1232.290, 8.1326917E-02
1234.219, 7.8032456E-02
1236.147, 7.5525202E-02
1238.076, 7.3576480E-02
1240.004, 7.2402768E-02
1241.933, 7.1616948E-02
1243.861, 7.1393847E-02
1245.790, 7.1847238E-02
1247.718, 7.2654590E-02
1249.646, 7.3623873E-02
1251.575, 7.4854910E-02
1253.503, 7.6336503E-02
1255.432, 7.7645637E-02
1257.360, 7.8605346E-02
1259.289, 7.9314873E-02
1261.217, 7.9897508E-02
1263.146, 8.0106258E-02
1265.074, 7.9817623E-02
1267.003, 7.8956120E-02
1268.931, 7.7691182E-02
1270.860, 7.6273620E-02
1272.788, 7.4950859E-02
1274.717, 7.3286250E-02
1276.645, 7.1421489E-02
1278.573, 6.9779374E-02
1280.502, 6.8886511E-02
1282.430, 6.8391308E-02
1284.359, 6.7753837E-02
1286.287, 6.7044184E-02
1288.216, 6.6585109E-02
1290.144, 6.6270702E-02
1292.073, 6.5880872E-02
1294.001, 6.5233447E-02
1295.930, 6.4175762E-02
1297.858, 6.2693961E-02
1299.787, 6.1350990E-02
1301.715, 6.0240932E-02
1303.644, 5.9251420E-02
1305.572, 5.8608688E-02
1307.500, 5.8243729E-02
1309.429, 5.7910781E-02
1311.357, 5.8256879E-02
1313.286, 5.9058059E-02
1315.214, 6.0211651E-02
1317.143, 6.1593629E-02
1319.071, 6.3552126E-02
1321.000, 6.6317469E-02
1322.928, 6.9635883E-02
1324.857, 7.3197693E-02
1326.785, 7.7176817E-02
1328.714, 8.2105383E-02
1330.642, 8.7820180E-02
1332.571, 9.3765683E-02
1334.499, 0.1001002
1336.427, 0.1066458
1338.356, 0.1132651
1340.284, 0.1194071
1342.213, 0.1247230
1344.141, 0.1292352
1346.070, 0.1324484
1347.998, 0.1334489
1349.927, 0.1322720
1351.855, 0.1291085
1353.784, 0.1240494
1355.712, 0.1176482
1357.641, 0.1107503
1359.569, 0.1038893
1361.498, 9.7168162E-02
1363.426, 9.1263287E-02
1365.354, 8.6652860E-02
1367.283, 8.2891367E-02
1369.211, 8.0114879E-02
1371.140, 7.8754857E-02
1373.068, 7.8756534E-02
1374.997, 7.9760090E-02
1376.925, 8.2006402E-02
1378.854, 8.5311003E-02
1380.782, 8.9415871E-02
1382.711, 9.4157249E-02
1384.639, 9.9027090E-02
1386.568, 0.1031621
1388.496, 0.1061315
1390.424, 0.1078123
1392.353, 0.1083641
1394.281, 0.1081648
1396.210, 0.1075225
1398.138, 0.1063374
1400.067, 0.1049718
1401.995, 0.1041562
1403.924, 0.1035438
1405.852, 0.1030957
1407.781, 0.1030748
1409.709, 0.1031153
1411.638, 0.1025321
1413.566, 0.1015143
1415.495, 0.1000293
1417.423, 9.7424529E-02
1419.351, 9.3789563E-02
1421.280, 8.9857988E-02
1423.208, 8.5300520E-02
1425.137, 8.0424666E-02
1427.065, 7.5231113E-02
1428.994, 7.0212051E-02
1430.922, 6.5573931E-02
1432.851, 6.1509758E-02
1434.779, 5.8142379E-02
1436.708, 5.5411790E-02
1438.636, 5.3491261E-02
1440.565, 5.2406602E-02
1442.493, 5.2449308E-02
1444.422, 5.2730180E-02
1446.350, 5.3169999E-02
1448.278, 5.4388300E-02
1450.207, 5.5728070E-02
1452.135, 5.6486711E-02
1454.064, 5.6308109E-02
1455.992, 5.5256430E-02
1457.921, 5.3336691E-02
1459.849, 5.0785370E-02
1461.778, 4.7819890E-02
1463.706, 4.5060109E-02
1465.635, 4.2046979E-02
1467.563, 3.8729660E-02
1469.492, 3.5650380E-02
1471.420, 3.3124540E-02
1473.349, 3.1136220E-02
1475.277, 2.9032290E-02
1477.205, 2.7076120E-02
1479.134, 2.5559019E-02
1481.062, 2.4259390E-02
1482.991, 2.3182159E-02
1484.919, 2.2524070E-02
1486.848, 2.2029741E-02
1488.776, 2.1414040E-02
1490.705, 2.1010850E-02
1492.633, 2.0673109E-02
1494.562, 2.0438870E-02
1496.490, 2.0375710E-02
1498.419, 2.0044530E-02
1500.347, 1.9800151E-02
1502.276, 1.9773159E-02
1504.204, 1.9950161E-02
1506.132, 2.0103460E-02
1508.061, 1.9991379E-02
1509.989, 1.9708080E-02
1511.918, 1.9753030E-02
1513.846, 1.9651899E-02
1515.775, 1.9671241E-02
1517.703, 1.9912001E-02
1519.632, 1.9888779E-02
1521.560, 1.9703830E-02
1523.489, 1.9551020E-02
1525.417, 1.9753780E-02
1527.346, 1.9800181E-02
1529.274, 1.9831920E-02
1531.203, 1.9880550E-02
1533.131, 1.9980760E-02
1535.059, 2.0030160E-02
1536.988, 2.0240290E-02
1538.916, 2.0491051E-02
1540.845, 2.0389389E-02
1542.773, 2.0513410E-02
1544.702, 2.1056270E-02
1546.630, 2.1321990E-02
1548.559, 2.1177210E-02
1550.487, 2.1318421E-02
1552.416, 2.1330290E-02
1554.344, 2.1593161E-02
1556.273, 2.1520879E-02
1558.201, 2.1541741E-02
1560.130, 2.1515559E-02
1562.058, 2.1471690E-02
1563.986, 2.1777039E-02
1565.915, 2.2116359E-02
1567.843, 2.2153851E-02
1569.772, 2.2209311E-02
1571.700, 2.2378590E-02
1573.629, 2.2509390E-02
1575.557, 2.2619100E-02
1577.486, 2.2895450E-02
1579.414, 2.3283970E-02
1581.343, 2.3015359E-02
1583.271, 2.2762811E-02
1585.200, 2.3372190E-02
1587.128, 2.3775630E-02
1589.057, 2.3932330E-02
1590.985, 2.4348700E-02
1592.913, 2.4888109E-02
1594.842, 2.5325481E-02
1596.770, 2.5707630E-02
1598.699, 2.6390189E-02
1600.627, 2.6823411E-02
1602.556, 2.7097991E-02
1604.484, 2.7426150E-02
1606.413, 2.7819689E-02
1608.341, 2.7946429E-02
1610.270, 2.8812140E-02
1612.198, 2.9551560E-02
1614.127, 2.9782360E-02
1616.055, 3.0206570E-02
1617.984, 3.0589931E-02
1619.912, 3.0761009E-02
1621.840, 3.0833339E-02
1623.769, 3.1121019E-02
1625.697, 3.1244570E-02
1627.626, 3.1469591E-02
1629.554, 3.1547811E-02
1631.483, 3.1787690E-02
1633.411, 3.2115079E-02
1635.340, 3.2233231E-02
1637.268, 3.2682762E-02
1639.197, 3.2591719E-02
1641.125, 3.2526530E-02
1643.054, 3.2958612E-02
1644.982, 3.3257969E-02
1646.911, 3.2976720E-02
1648.839, 3.2477930E-02
1650.767, 3.2583971E-02
1652.696, 3.2911260E-02
1654.624, 3.2837629E-02
1656.553, 3.2595981E-02
1658.481, 3.2616619E-02
1660.410, 3.2880001E-02
1662.338, 3.3221088E-02
1664.267, 3.3122160E-02
1666.195, 3.3221580E-02
1668.124, 3.3786070E-02
1670.052, 3.4958079E-02
1671.981, 3.6150899E-02
1673.909, 3.6959510E-02
1675.838, 3.7733391E-02
1677.766, 3.8741760E-02
1679.694, 3.9934669E-02
1681.623, 4.0768709E-02
1683.551, 4.0738910E-02
1685.480, 4.0295590E-02
1687.408, 3.8792789E-02
1689.337, 3.6809091E-02
1691.265, 3.5002880E-02
1693.194, 3.3119049E-02
1695.122, 3.1355061E-02
1697.051, 2.9359089E-02
1698.979, 2.7455350E-02
1700.908, 2.6083220E-02
1702.836, 2.4789739E-02
1704.765, 2.3672789E-02
1706.693, 2.2472359E-02
1708.621, 2.1057460E-02
1710.550, 1.9941110E-02
1712.478, 1.9576620E-02
1714.407, 1.9156680E-02
1716.335, 1.8350560E-02
1718.264, 1.8079070E-02
1720.192, 1.7792789E-02
1722.121, 1.7367059E-02
1724.049, 1.7039180E-02
1725.978, 1.6935620E-02
1727.906, 1.6396079E-02
1729.835, 1.5840139E-02
1731.763, 1.5571870E-02
1733.692, 1.5282150E-02
1735.620, 1.5050180E-02
1737.548, 1.4759500E-02
1739.477, 1.4376030E-02
1741.405, 1.4442890E-02
1743.334, 1.4579600E-02
1745.262, 1.3905000E-02
1747.191, 1.3001330E-02
1749.119, 1.2597320E-02
1751.048, 1.2437390E-02
1752.976, 1.2389750E-02
1754.905, 1.1781120E-02
1756.833, 1.1188640E-02
1758.762, 1.1063390E-02
1760.690, 1.1308700E-02
1762.619, 1.1702250E-02
1764.547, 1.1663400E-02
1766.475, 1.1201640E-02
1768.404, 1.1088730E-02
1770.332, 1.1229260E-02
1772.261, 1.0817590E-02
1774.189, 1.0508620E-02
1776.118, 1.0972740E-02
1778.046, 1.0840890E-02
1779.975, 1.0586720E-02
1781.903, 1.0671030E-02
1783.832, 1.0182660E-02
1785.760, 9.6353544E-03
1787.689, 9.9300276E-03
1789.617, 1.0010350E-02
1791.546, 9.8059028E-03
1793.474, 1.0039750E-02
1795.402, 1.0114730E-02
1797.331, 9.6333912E-03
1799.259, 9.7118141E-03
1801.188, 9.9021345E-03
1803.116, 9.9218134E-03
1805.045, 1.0277270E-02
1806.973, 1.0004400E-02
1808.902, 9.8534971E-03
1810.830, 9.8479027E-03
1812.759, 9.7810291E-03
1814.687, 9.3995892E-03
1816.616, 9.1686388E-03
1818.544, 9.7931493E-03
1820.473, 9.9233072E-03
1822.401, 9.9631082E-03
1824.329, 1.0073430E-02
1826.258, 1.0008150E-02
1828.186, 1.0305560E-02
1830.115, 1.0624570E-02
1832.043, 9.7736605E-03
1833.972, 9.3344403E-03
1835.900, 9.3536107E-03
1837.829, 9.8054484E-03
1839.757, 9.5947776E-03
1841.686, 9.5430780E-03
1843.614, 9.0232668E-03
1845.543, 8.2662143E-03
1847.471, 8.6907065E-03
1849.400, 9.4701918E-03
1851.328, 9.7769387E-03
1853.256, 9.6644340E-03
1855.185, 9.4980756E-03
1857.113, 9.4461236E-03
1859.042, 8.6025549E-03
1860.970, 7.7005350E-03
1862.899, 8.3571747E-03
1864.827, 9.2359548E-03
1866.756, 9.5995618E-03
1868.684, 9.3099829E-03
1870.613, 9.1500795E-03
1872.541, 8.6899810E-03
1874.470, 8.6974241E-03
1876.398, 9.4451439E-03
1878.327, 9.4271488E-03
1880.255, 8.4934542E-03
1882.183, 8.3239740E-03
1884.112, 8.5321981E-03
1886.040, 9.1124857E-03
1887.969, 9.6820621E-03
1889.897, 9.7499313E-03
1891.826, 9.6047390E-03
1893.754, 9.0649920E-03
1895.683, 8.6477520E-03
1897.611, 9.2132147E-03
1899.540, 9.1302944E-03
1901.468, 8.3808741E-03
1903.397, 8.5123451E-03
1905.325, 8.9108478E-03
1907.254, 9.5465677E-03
1909.182, 9.1667278E-03
1911.110, 8.0787819E-03
1913.039, 7.7032391E-03
1914.967, 8.3821099E-03
1916.896, 8.7719290E-03
1918.824, 7.7468762E-03
1920.753, 6.9019720E-03
1922.681, 6.9254730E-03
1924.610, 7.7684312E-03
1926.538, 8.2196761E-03
1928.467, 8.1098899E-03
1930.395, 6.7522530E-03
1932.324, 6.5313210E-03
1934.252, 6.9546788E-03
1936.181, 7.1760118E-03
1938.109, 8.1595816E-03
1940.037, 6.9389902E-03
1941.966, 5.8727870E-03
1943.894, 5.8786189E-03
1945.823, 6.2375139E-03
1947.751, 5.8451821E-03
1949.680, 5.1293662E-03
1951.608, 5.8174301E-03
1953.537, 4.4773528E-03
1955.465, 2.7025130E-03
1957.394, 4.0340228E-03
1959.322, 6.2025702E-03
1961.251, 5.7576480E-03
1963.179, 3.8699571E-03
1965.108, 3.2207121E-03
1967.036, 2.2452581E-03
1968.964, 8.8197412E-04
1970.893, 3.3933639E-03
1972.821, 4.9801571E-03
1974.750, 5.9956498E-03
1976.678, 7.9741050E-03
1978.607, 7.0590288E-03
1980.535, 4.9768570E-03
1982.464, 6.2818499E-03
1984.392, 8.5353730E-03
1986.321, 9.3974955E-03
1988.249, 8.8552134E-03
1990.178, 6.1699320E-03
1992.106, 6.0494770E-03
1994.035, 6.5837079E-03
1995.963, 5.5466690E-03
1997.891, 5.4664221E-03
1999.820, 5.6538219E-03
2001.748, 5.8167079E-03
2003.677, 3.8518240E-03
2005.605, 4.2318078E-03
2007.534, 5.7839672E-03
2009.462, 4.5122290E-03
2011.391, 3.9187348E-03
2013.319, 2.6651621E-03
2015.248, 2.6534491E-03
2017.176, 3.3786439E-03
2019.105, 3.2853710E-03
2021.033, 3.1299600E-03
2022.962, 4.4105612E-03
2024.890, 4.9539031E-03
2026.818, 2.4124139E-03
2028.747, 3.7541219E-03
2030.675, 6.6684140E-03
2032.604, 7.5723738E-03
2034.532, 6.7020678E-03
2036.461, 5.7705208E-03
2038.389, 6.0536680E-03
2040.318, 5.3168139E-03
2042.246, 4.5051780E-03
2044.175, 4.1031758E-03
2046.103, 5.0932770E-03
2048.032, 6.4002108E-03
2049.960, 6.7967610E-03
2051.889, 6.2549142E-03
2053.817, 7.5915521E-03
2055.746, 8.5914284E-03
2057.674, 6.8026888E-03
2059.603, 6.3872938E-03
2061.531, 7.3994361E-03
2063.459, 9.3762912E-03
2065.388, 1.0345570E-02
2067.316, 1.0911480E-02
2069.245, 1.0217720E-02
2071.173, 8.1057725E-03
2073.102, 8.6336564E-03
2075.030, 9.0423804E-03
2076.959, 9.0306252E-03
2078.887, 8.9024454E-03
2080.816, 8.8153873E-03
2082.744, 8.6318702E-03
2084.673, 8.3864788E-03
2086.601, 9.3721142E-03
2088.530, 1.0323520E-02
2090.458, 9.6566826E-03
2092.386, 9.3753347E-03
2094.315, 9.6340319E-03
2096.243, 9.7989636E-03
2098.172, 9.2609953E-03
2100.100, 9.4347876E-03
2102.029, 1.0353900E-02
2103.957, 1.0345060E-02
2105.886, 9.5214816E-03
2107.814, 1.0143390E-02
2109.743, 1.0960720E-02
2111.671, 1.0725910E-02
2113.600, 9.8588578E-03
2115.528, 9.6301017E-03
2117.457, 9.4314516E-03
2119.385, 9.7415503E-03
2121.313, 1.0454290E-02
2123.242, 9.6615907E-03
2125.170, 9.4083305E-03
2127.099, 9.3219616E-03
2129.027, 8.4781256E-03
2130.956, 9.3686078E-03
2132.884, 9.5832124E-03
2134.813, 8.7275580E-03
2136.741, 7.8951381E-03
2138.670, 8.0793789E-03
2140.598, 9.0135084E-03
2142.527, 7.9194512E-03
2144.455, 6.0610138E-03
2146.384, 7.9950346E-03
2148.312, 9.3242619E-03
2150.240, 8.9908047E-03
2152.169, 8.8442964E-03
2154.097, 7.7903378E-03
2156.026, 7.6923631E-03
2157.954, 6.0921870E-03
2159.883, 9.1598947E-03
2161.811, 1.4818510E-02
2163.740, 1.3715410E-02
2165.668, 1.3721010E-02
2167.597, 1.2271800E-02
2169.525, 7.4679758E-03
2171.454, 7.9821115E-03
2173.382, 1.0391930E-02
2175.311, 1.2362790E-02
2177.239, 1.3201650E-02
2179.167, 1.2359840E-02
2181.096, 1.0455780E-02
2183.024, 9.4393454E-03
2184.953, 1.0028000E-02
2186.881, 1.0806440E-02
2188.810, 1.0860500E-02
2190.738, 9.0106372E-03
2192.667, 6.3896920E-03
2194.595, 8.2266927E-03
2196.524, 1.2959820E-02
2198.452, 1.2726300E-02
2200.381, 1.2083280E-02
2202.309, 1.1633140E-02
2204.238, 1.2453570E-02
2206.166, 1.1867530E-02
2208.094, 1.1195250E-02
2210.023, 1.0938940E-02
2211.951, 1.1329750E-02
2213.880, 1.3676770E-02
2215.808, 1.3474450E-02
2217.737, 1.3722060E-02
2219.665, 1.2132800E-02
2221.594, 1.0751890E-02
2223.522, 1.1623270E-02
2225.451, 1.3089310E-02
2227.379, 1.3889000E-02
2229.308, 1.3537740E-02
2231.236, 1.4174080E-02
2233.165, 1.5140370E-02
2235.093, 1.5488170E-02
2237.021, 1.5672740E-02
2238.950, 1.4864820E-02
2240.878, 1.4589670E-02
2242.807, 1.3737510E-02
2244.735, 1.3663480E-02
2246.664, 1.4468960E-02
2248.592, 1.5002980E-02
2250.521, 1.4988210E-02
2252.449, 1.4620230E-02
2254.378, 1.4723050E-02
2256.306, 1.5822509E-02
2258.235, 1.6186500E-02
2260.163, 1.6024999E-02
2262.092, 1.6685020E-02
2264.020, 1.7344430E-02
2265.948, 1.7918879E-02
2267.877, 1.7606661E-02
2269.805, 1.6847949E-02
2271.734, 1.6393770E-02
2273.662, 1.7021580E-02
2275.591, 1.7868521E-02
2277.519, 1.7390089E-02
2279.448, 1.6923441E-02
2281.376, 1.7656980E-02
2283.305, 1.8341390E-02
2285.233, 1.8100221E-02
2287.162, 1.7501039E-02
2289.090, 1.7783700E-02
2291.019, 1.8948819E-02
2292.947, 1.8879600E-02
2294.875, 1.8519940E-02
2296.804, 1.8406959E-02
2298.732, 1.7688191E-02
2300.661, 1.7833941E-02
2302.589, 1.7573200E-02
2304.518, 1.7287141E-02
2306.446, 1.8016109E-02
2308.375, 1.9311851E-02
2310.303, 1.9924531E-02
2312.232, 1.9357780E-02
2314.160, 1.9654520E-02
2316.089, 1.9464079E-02
2318.017, 1.9111849E-02
2319.946, 1.9584199E-02
2321.874, 1.9600241E-02
2323.802, 1.9874459E-02
2325.731, 1.9182520E-02
2327.659, 1.8572539E-02
2329.588, 1.8691709E-02
2331.516, 1.9138910E-02
2333.445, 1.9285619E-02
2335.373, 1.9159220E-02
2337.302, 1.9336760E-02
2339.230, 1.9163290E-02
2341.159, 1.8902609E-02
2343.087, 1.8949190E-02
2345.016, 1.8858001E-02
2346.944, 1.9270699E-02
2348.873, 1.8956089E-02
2350.801, 1.8065689E-02
2352.729, 1.8214861E-02
2354.658, 1.8480079E-02
2356.586, 1.8396789E-02
2358.515, 1.8926680E-02
2360.443, 1.8825520E-02
2362.372, 1.7712450E-02
2364.300, 1.7427189E-02
2366.229, 1.7573951E-02
2368.157, 1.8119210E-02
2370.086, 1.8476270E-02
2372.014, 1.8337199E-02
2373.942, 1.7773589E-02
2375.871, 1.7379411E-02
2377.799, 1.6824311E-02
2379.728, 1.7475789E-02
2381.656, 1.8031839E-02
2383.585, 1.7350620E-02
2385.513, 1.6614281E-02
2387.442, 1.6931931E-02
2389.370, 1.7896591E-02
2391.299, 1.8609690E-02
2393.227, 1.8874750E-02
2395.156, 1.8367941E-02
2397.084, 1.8447811E-02
2399.012, 1.8321229E-02
2400.941, 1.7744930E-02
2402.869, 1.7802989E-02
2404.798, 1.6688110E-02
2406.726, 1.5888929E-02
2408.655, 1.7332099E-02
2410.583, 1.7656481E-02
2412.512, 1.7553950E-02
2414.440, 1.7422371E-02
2416.369, 1.7337140E-02
2418.297, 1.7223010E-02
2420.226, 1.7548680E-02
2422.154, 1.6616769E-02
2424.083, 1.5366310E-02
2426.011, 1.5931290E-02
2427.939, 1.7684530E-02
2429.868, 1.8686431E-02
2431.796, 1.7741300E-02
2433.725, 1.7706910E-02
2435.653, 1.8411919E-02
2437.582, 1.7569739E-02
2439.510, 1.6953640E-02
2441.439, 1.7059850E-02
2443.367, 1.7342880E-02
2445.296, 1.7485140E-02
2447.224, 1.7803559E-02
2449.153, 1.7447460E-02
2451.081, 1.6747490E-02
2453.010, 1.7108411E-02
2454.938, 1.7697230E-02
2456.866, 1.6730949E-02
2458.795, 1.6436180E-02
2460.723, 1.6639439E-02
2462.652, 1.7134950E-02
2464.580, 1.7371271E-02
2466.509, 1.6552150E-02
2468.437, 1.5733290E-02
2470.366, 1.5797170E-02
2472.294, 1.6968660E-02
2474.223, 1.6246719E-02
2476.151, 1.5193650E-02
2478.080, 1.5530400E-02
2480.008, 1.6566720E-02
2481.937, 1.6800599E-02
2483.865, 1.7103510E-02
2485.793, 1.7655570E-02
2487.722, 1.6995329E-02
2489.650, 1.6614210E-02
2491.579, 1.6613331E-02
2493.507, 1.6417390E-02
2495.436, 1.6452409E-02
2497.364, 1.7104410E-02
2499.293, 1.8061610E-02
2501.221, 1.7938869E-02
2503.150, 1.7629800E-02
2505.078, 1.6671229E-02
2507.007, 1.5919110E-02
2508.935, 1.6729230E-02
2510.864, 1.6837981E-02
2512.792, 1.5715679E-02
2514.720, 1.5055160E-02
2516.649, 1.6389020E-02
2518.577, 1.6767420E-02
2520.506, 1.7598679E-02
2522.434, 1.7798500E-02
2524.363, 1.7218200E-02
2526.291, 1.8080300E-02
2528.220, 1.8135400E-02
2530.148, 1.6515730E-02
2532.077, 1.5478190E-02
2534.005, 1.5252940E-02
2535.934, 1.5053700E-02
2537.862, 1.5340100E-02
2539.791, 1.6937099E-02
2541.719, 1.6865561E-02
2543.647, 1.6049581E-02
2545.576, 1.7015260E-02
2547.504, 1.7251290E-02
2549.433, 1.7221451E-02
2551.361, 1.7658120E-02
2553.290, 1.7631579E-02
2555.218, 1.6627990E-02
2557.147, 1.6558399E-02
2559.075, 1.7740890E-02
2561.004, 1.8211240E-02
2562.932, 1.9092310E-02
2564.861, 1.9689010E-02
2566.789, 1.9107290E-02
2568.718, 1.8766360E-02
2570.646, 1.7997241E-02
2572.574, 1.8028671E-02
2574.503, 1.8322490E-02
2576.431, 1.7937720E-02
2578.360, 1.7820330E-02
2580.288, 1.8321000E-02
2582.217, 1.8473670E-02
2584.145, 1.8520899E-02
2586.074, 1.9225821E-02
2588.002, 1.9567590E-02
2589.931, 1.8729361E-02
2591.859, 1.7731100E-02
2593.788, 1.8149650E-02
2595.716, 1.9017480E-02
2597.645, 1.9293020E-02
2599.573, 1.8978469E-02
2601.501, 1.8704791E-02
2603.430, 1.8968729E-02
2605.358, 1.9371999E-02
2607.287, 1.9101640E-02
2609.215, 1.9297790E-02
2611.144, 1.9718969E-02
2613.072, 1.9993359E-02
2615.001, 1.9829649E-02
2616.929, 1.8976800E-02
2618.858, 1.8105689E-02
2620.786, 1.8471301E-02
2622.715, 1.8973330E-02
2624.643, 1.9622440E-02
2626.572, 2.0428330E-02
2628.500, 2.0322660E-02
2630.428, 2.0070011E-02
2632.357, 2.0241860E-02
2634.285, 2.0136129E-02
2636.214, 2.0181719E-02
2638.142, 1.9527471E-02
2640.071, 1.9276621E-02
2641.999, 1.8968830E-02
2643.928, 1.8523110E-02
2645.856, 1.8993219E-02
2647.785, 1.9953270E-02
2649.713, 2.0216979E-02
2651.642, 1.9651610E-02
2653.570, 1.9413630E-02
2655.499, 1.9320371E-02
2657.427, 1.9025980E-02
2659.355, 1.8961580E-02
2661.284, 1.9122889E-02
2663.212, 1.9055551E-02
2665.141, 1.9566270E-02
2667.069, 2.0455981E-02
2668.998, 1.9722400E-02
2670.926, 1.8615941E-02
2672.855, 1.8677980E-02
2674.783, 1.8657681E-02
2676.712, 1.8116361E-02
2678.640, 1.8621629E-02
2680.569, 1.9790471E-02
2682.497, 1.9629421E-02
2684.426, 1.9570259E-02
2686.354, 1.9807290E-02
2688.282, 1.9284921E-02
2690.211, 1.9102581E-02
2692.139, 1.9036300E-02
2694.068, 1.9075790E-02
2695.996, 1.8725770E-02
2697.925, 1.8662050E-02
2699.853, 1.9329909E-02
2701.782, 1.9430820E-02
2703.710, 2.0130809E-02
2705.639, 2.0576529E-02
2707.567, 2.0408889E-02
2709.496, 2.0210421E-02
2711.424, 2.0309810E-02
2713.353, 2.0130180E-02
2715.281, 2.0171121E-02
2717.209, 2.0866480E-02
2719.138, 2.1274401E-02
2721.066, 2.1784849E-02
2722.995, 2.1583959E-02
2724.923, 2.1482021E-02
2726.852, 2.1088419E-02
2728.780, 2.0817490E-02
2730.709, 2.1953100E-02
2732.637, 2.2594860E-02
2734.566, 2.1929290E-02
2736.494, 2.1183020E-02
2738.423, 2.2151090E-02
2740.351, 2.2987779E-02
2742.280, 2.3848251E-02
2744.208, 2.4524029E-02
2746.136, 2.3790920E-02
2748.065, 2.2830360E-02
2749.993, 2.2272630E-02
2751.922, 2.2623381E-02
2753.850, 2.3135070E-02
2755.779, 2.3744140E-02
2757.707, 2.3676321E-02
2759.636, 2.4155360E-02
2761.564, 2.5160540E-02
2763.493, 2.4614301E-02
2765.421, 2.3793289E-02
2767.350, 2.3942700E-02
2769.278, 2.3948429E-02
2771.207, 2.4901310E-02
2773.135, 2.5463870E-02
2775.063, 2.4997180E-02
2776.992, 2.4671430E-02
2778.920, 2.4563950E-02
2780.849, 2.5021071E-02
2782.777, 2.6013769E-02
2784.706, 2.6359830E-02
2786.634, 2.6026240E-02
2788.563, 2.5849510E-02
2790.491, 2.5104430E-02
2792.420, 2.5536809E-02
2794.348, 2.6973560E-02
2796.277, 2.6899621E-02
2798.205, 2.6291000E-02
2800.134, 2.6902391E-02
2802.062, 2.7844271E-02
2803.990, 2.7614130E-02
2805.919, 2.7256280E-02
2807.847, 2.7281670E-02
2809.776, 2.6812861E-02
2811.704, 2.7407089E-02
2813.633, 2.8714171E-02
2815.561, 2.9388070E-02
2817.490, 2.9298911E-02
2819.418, 2.8819790E-02
2821.347, 2.9291719E-02
2823.275, 2.9956231E-02
2825.204, 2.9431861E-02
2827.132, 2.8517770E-02
2829.061, 2.8645160E-02
2830.989, 2.9603390E-02
2832.917, 3.0504160E-02
2834.846, 3.1250950E-02
2836.774, 3.1366799E-02
2838.703, 3.1334091E-02
2840.631, 3.2927260E-02
2842.560, 3.4408331E-02
2844.488, 3.4403861E-02
2846.417, 3.4133870E-02
2848.345, 3.4972619E-02
2850.274, 3.5198569E-02
2852.202, 3.5429411E-02
2854.131, 3.6382370E-02
2856.059, 3.6074199E-02
2857.988, 3.4464609E-02
2859.916, 3.3999059E-02
2861.844, 3.4370150E-02
2863.773, 3.4812361E-02
2865.701, 3.4922902E-02
2867.630, 3.4227200E-02
2869.558, 3.3389911E-02
2871.487, 3.3704389E-02
2873.415, 3.4931820E-02
2875.344, 3.5208270E-02
2877.272, 3.5643410E-02
2879.201, 3.6603309E-02
2881.129, 3.6682978E-02
2883.058, 3.6694750E-02
2884.986, 3.8158931E-02
2886.915, 4.0124271E-02
2888.843, 4.0183499E-02
2890.771, 4.0629439E-02
2892.700, 3.9960269E-02
2894.628, 3.9871469E-02
2896.557, 4.0524788E-02
2898.485, 4.0472720E-02
2900.414, 4.2173490E-02
2902.342, 4.3674510E-02
2904.271, 4.4908259E-02
2906.199, 4.6479490E-02
2908.128, 4.8436768E-02
2910.056, 4.9394291E-02
2911.985, 4.9276941E-02
2913.913, 4.9132209E-02
2915.842, 5.1321160E-02
2917.770, 5.2413050E-02
2919.698, 5.2478138E-02
2921.627, 5.2839849E-02
2923.555, 5.1373709E-02
2925.484, 5.0848741E-02
2927.412, 5.2545112E-02
2929.341, 5.3207651E-02
2931.269, 5.2147690E-02
2933.198, 5.2825522E-02
2935.126, 5.3827181E-02
2937.055, 5.4119401E-02
2938.983, 5.3930011E-02
2940.912, 5.3384911E-02
2942.840, 5.3712148E-02
2944.769, 5.5872541E-02
2946.697, 5.7302229E-02
2948.625, 5.7378970E-02
2950.554, 5.7452891E-02
2952.482, 5.8305532E-02
2954.411, 5.9241761E-02
2956.339, 5.9253149E-02
2958.268, 5.9062600E-02
2960.196, 5.9389722E-02
2962.125, 5.9059151E-02
2964.053, 5.7600919E-02
2965.982, 5.6930799E-02
2967.910, 5.7830039E-02
2969.839, 5.7753690E-02
2971.767, 5.6149971E-02
2973.696, 5.6615941E-02
2975.624, 5.7652779E-02
2977.552, 5.8797821E-02
2979.481, 6.1033830E-02
2981.409, 6.4248867E-02
2983.338, 6.6936553E-02
2985.266, 6.7510910E-02
2987.195, 6.8672143E-02
2989.123, 7.1191840E-02
2991.052, 7.2765082E-02
2992.980, 7.4189954E-02
2994.909, 7.4723758E-02
2996.837, 7.5075313E-02
2998.766, 7.6292552E-02
3000.694, 7.7120088E-02
3002.623, 7.7875987E-02
3004.551, 7.9180397E-02
3006.479, 7.9932652E-02
3008.408, 8.0395058E-02
3010.336, 8.2039110E-02
3012.265, 8.2855783E-02
3014.193, 8.3048649E-02
3016.122, 8.5206702E-02
3018.050, 8.6416297E-02
3019.979, 8.4681369E-02
3021.907, 8.3337680E-02
3023.836, 8.5230239E-02
3025.764, 8.6992867E-02
3027.693, 8.6297147E-02
3029.621, 8.5740939E-02
3031.550, 8.6731046E-02
3033.478, 8.8737354E-02
3035.406, 9.0558559E-02
3037.335, 8.9047842E-02
3039.263, 8.9212127E-02
3041.192, 8.9935943E-02
3043.120, 9.0367772E-02
3045.049, 9.0757512E-02
3046.977, 8.9682803E-02
3048.906, 8.8855550E-02
3050.834, 8.9629970E-02
3052.763, 9.0857312E-02
3054.691, 9.1930747E-02
3056.620, 9.2116646E-02
3058.548, 9.3031883E-02
3060.477, 9.5246769E-02
3062.405, 9.5385157E-02
3064.333, 9.3472943E-02
3066.262, 9.5163263E-02
3068.190, 9.6080773E-02
3070.119, 9.6316323E-02
3072.047, 9.6635930E-02
3073.976, 9.6664511E-02
3075.904, 9.7345240E-02
3077.833, 9.9106349E-02
3079.761, 9.9341981E-02
3081.690, 9.8525949E-02
3083.618, 9.9422708E-02
3085.547, 0.1010376
3087.475, 0.1018765
3089.404, 0.1046067
3091.332, 0.1060879
3093.260, 0.1043816
3095.189, 0.1026369
3097.117, 0.1030268
3099.046, 0.1064616
3100.974, 0.1095509
3102.903, 0.1090313
3104.831, 0.1086627
3106.760, 0.1104031
3108.688, 0.1118798
3110.617, 0.1116623
3112.545, 0.1116834
3114.474, 0.1129009
3116.402, 0.1147126
3118.331, 0.1165580
3120.259, 0.1175191
3122.188, 0.1176844
3124.116, 0.1182143
3126.044, 0.1188609
3127.973, 0.1207465
3129.901, 0.1242583
3131.830, 0.1262776
3133.758, 0.1270883
3135.687, 0.1290280
3137.615, 0.1318261
3139.544, 0.1319668
3141.472, 0.1325298
3143.401, 0.1343656
3145.329, 0.1347199
3147.258, 0.1360240
3149.186, 0.1396099
3151.115, 0.1425533
3153.043, 0.1446705
3154.971, 0.1468478
3156.900, 0.1483027
3158.828, 0.1490365
3160.757, 0.1507102
3162.685, 0.1530290
3164.614, 0.1539918
3166.542, 0.1536336
3168.471, 0.1554008
3170.399, 0.1602846
3172.328, 0.1624307
3174.256, 0.1624849
3176.185, 0.1640630
3178.113, 0.1664198
3180.042, 0.1684648
3181.970, 0.1696168
3183.898, 0.1702352
3185.827, 0.1704982
3187.755, 0.1721792
3189.684, 0.1738829
3191.612, 0.1751336
3193.541, 0.1762701
3195.469, 0.1773805
3197.398, 0.1782142
3199.326, 0.1801119
3201.255, 0.1815451
3203.183, 0.1824575
3205.112, 0.1850106
3207.040, 0.1876412
3208.969, 0.1884444
3210.897, 0.1874918
3212.825, 0.1883756
3214.754, 0.1900890
3216.682, 0.1916559
3218.611, 0.1915270
3220.539, 0.1909720
3222.468, 0.1925282
3224.396, 0.1947708
3226.325, 0.1966138
3228.253, 0.1975732
3230.182, 0.1974065
3232.110, 0.1963016
3234.039, 0.1950602
3235.967, 0.1942239
3237.896, 0.1953681
3239.824, 0.1957441
3241.752, 0.1954418
3243.681, 0.1948135
3245.609, 0.1920472
3247.538, 0.1895716
3249.466, 0.1877764
3251.395, 0.1886663
3253.323, 0.1897007
3255.252, 0.1882223
3257.180, 0.1867499
3259.109, 0.1846385
3261.037, 0.1816602
3262.966, 0.1802158
3264.894, 0.1772140
3266.823, 0.1741486
3268.751, 0.1724194
3270.679, 0.1723088
3272.608, 0.1713766
3274.536, 0.1690173
3276.465, 0.1694120
3278.393, 0.1703591
3280.322, 0.1699880
3282.250, 0.1676605
3284.179, 0.1654828
3286.107, 0.1638564
3288.036, 0.1658507
3289.964, 0.1651824
3291.893, 0.1631029
3293.821, 0.1632887
3295.750, 0.1649565
3297.678, 0.1659506
3299.606, 0.1647165
3301.535, 0.1646054
3303.463, 0.1662749
3305.392, 0.1657338
3307.320, 0.1645331
3309.249, 0.1622273
3311.177, 0.1617822
3313.106, 0.1620550
3315.034, 0.1627048
3316.963, 0.1646687
3318.891, 0.1652866
3320.820, 0.1634070
3322.748, 0.1627553
3324.677, 0.1638161
3326.605, 0.1623130
3328.533, 0.1598031
3330.462, 0.1603655
3332.390, 0.1602995
3334.319, 0.1579012
3336.247, 0.1561723
3338.176, 0.1545576
3340.104, 0.1535207
3342.033, 0.1505313
3343.961, 0.1489348
3345.890, 0.1497624
3347.818, 0.1498663
3349.747, 0.1481441
3351.675, 0.1458452
3353.604, 0.1421067
3355.532, 0.1386305
3357.460, 0.1373885
3359.389, 0.1364915
3361.317, 0.1333618
3363.246, 0.1309890
3365.174, 0.1304667
3367.103, 0.1288702
3369.031, 0.1267013
3370.960, 0.1259153
3372.888, 0.1253434
3374.817, 0.1233921
3376.745, 0.1216289
3378.674, 0.1186701
3380.602, 0.1179181
3382.531, 0.1177893
3384.459, 0.1173552
3386.387, 0.1157924
3388.316, 0.1140214
3390.244, 0.1116482
3392.173, 0.1104794
3394.101, 0.1081320
3396.030, 0.1078371
3397.958, 0.1091811
3399.887, 0.1103271
3401.815, 0.1094474
3403.744, 0.1079316
3405.672, 0.1059522
3407.601, 0.1037189
3409.529, 0.1026183
3411.458, 0.1038640
3413.386, 0.1047990
3415.314, 0.1033456
3417.243, 0.1021021
3419.171, 0.1010337
3421.100, 0.1020344
3423.028, 0.1043171
3424.957, 0.1062060
3426.885, 0.1075169
3428.814, 0.1103887
3430.742, 0.1109615
3432.671, 0.1120518
3434.599, 0.1135062
3436.528, 0.1130807
3438.456, 0.1149229
3440.385, 0.1174674
3442.313, 0.1212826
3444.241, 0.1233927
3446.170, 0.1242948
3448.098, 0.1250433
3450.027, 0.1236412
3451.955, 0.1256412
3453.884, 0.1290239
3455.812, 0.1281287
3457.741, 0.1252499
3459.669, 0.1249425
3461.598, 0.1241200
3463.526, 0.1227138
3465.455, 0.1198979
3467.383, 0.1160413
3469.312, 0.1127497
3471.240, 0.1109235
3473.168, 0.1057865
3475.097, 9.8893568E-02
3477.025, 9.4162107E-02
3478.954, 8.8690937E-02
3480.882, 8.3032712E-02
3482.811, 7.7521428E-02
3484.739, 7.5972468E-02
3486.668, 7.5467370E-02
3488.596, 7.2280332E-02
3490.525, 6.7398630E-02
3492.453, 6.3984253E-02
3494.382, 6.0468331E-02
3496.310, 5.6835212E-02
3498.239, 5.7768591E-02
3500.167, 5.8016449E-02
3502.095, 5.3169031E-02
3504.024, 5.2679479E-02
3505.952, 5.8015071E-02
3507.881, 6.1438851E-02
3509.809, 6.0455769E-02
3511.738, 5.7779890E-02
3513.666, 6.0449529E-02
3515.595, 6.1843451E-02
3517.523, 6.3339353E-02
3519.452, 6.6872276E-02
3521.380, 7.0755526E-02
3523.309, 7.3015593E-02
3525.237, 7.6509804E-02
3527.166, 7.7372819E-02
3529.094, 7.8199387E-02
3531.022, 8.1391349E-02
3532.951, 8.3287694E-02
3534.879, 7.8839429E-02
3536.808, 7.2900087E-02
3538.736, 6.9562383E-02
3540.665, 6.5498233E-02
3542.593, 6.2401630E-02
3544.522, 5.9912190E-02
3546.450, 5.8177602E-02
3548.379, 5.8450159E-02
3550.307, 6.0665060E-02
3552.236, 6.3490428E-02
3554.164, 6.5975308E-02
3556.093, 6.5263607E-02
3558.021, 6.4430267E-02
3559.949, 6.6698983E-02
3561.878, 6.7959428E-02
3563.806, 6.9111682E-02
3565.735, 7.0177160E-02
3567.663, 6.6498697E-02
3569.592, 5.6181349E-02
3571.520, 4.4962030E-02
3573.449, 3.8828101E-02
3575.377, 3.4798771E-02
3577.306, 3.1598810E-02
3579.234, 2.9365920E-02
3581.163, 2.3975929E-02
3583.091, 2.1094440E-02
3585.020, 2.1316521E-02
3586.948, 2.0960540E-02
3588.876, 2.0889610E-02
3590.805, 2.1576861E-02
3592.733, 2.0078730E-02
3594.662, 1.7291529E-02
3596.590, 1.7020190E-02
3598.519, 1.6702570E-02
3600.447, 1.6389489E-02
3602.376, 1.6735191E-02
3604.304, 1.4594460E-02
3606.233, 1.2310340E-02
3608.161, 1.1288100E-02
3610.090, 1.3374060E-02
3612.018, 1.5707610E-02
3613.947, 1.4261160E-02
3615.875, 1.1571950E-02
3617.803, 9.9939564E-03
3619.732, 1.1032710E-02
3621.660, 1.4031870E-02
3623.589, 1.3138930E-02
3625.517, 1.0387910E-02
3627.446, 8.9213392E-03
3629.374, 7.9140291E-03
3631.303, 8.1561124E-03
3633.231, 8.7861782E-03
3635.160, 1.1141230E-02
3637.088, 9.6006170E-03
3639.017, 5.7325270E-03
3640.945, 4.7933781E-03
3642.874, 6.5983371E-03
3644.802, 8.3001805E-03
3646.730, 7.5771580E-03
3648.659, 4.2139459E-03
3650.587, 6.2829331E-03
3652.516, 6.1139688E-03
3654.444, 3.3169959E-03
3656.373, 4.5820922E-03
3658.301, 7.6204441E-03
3660.230, 6.0182880E-03
3662.158, 4.2814892E-03
3664.087, 4.3360898E-03
3666.015, 6.1763190E-03
3667.944, 1.0810810E-02
3669.872, 8.6505460E-03
3671.801, 6.3132131E-03
3673.729, 7.4232649E-03
3675.657, 7.3673292E-03
3677.586, 5.7700500E-03
3679.514, 5.7891039E-03
3681.443, 5.3287088E-03
3683.371, 2.1561570E-03
3685.300, -8.9625413E-05
3687.228, 2.3895269E-03
3689.157, 5.3534880E-03
3691.085, 6.2259221E-03
3693.014, 5.5411691E-03
3694.942, 5.0677131E-03
3696.871, 5.7519940E-03
3698.799, 6.1151660E-03
3700.728, 5.1014801E-03
3702.656, 5.6260559E-03
3704.584, 8.5164066E-03
3706.513, 8.7385206E-03
3708.441, 6.4060660E-03
3710.370, 3.6549550E-03
3712.298, 3.8813681E-03
3714.227, 5.9225219E-03
3716.155, 7.1944399E-03
3718.084, 6.0871970E-03
3720.012, 4.1841408E-03
3721.941, 1.8096670E-03
3723.869, 1.6917780E-03
3725.798, 2.3409601E-03
3727.726, 2.8055939E-03
3729.655, 5.0439169E-03
3731.583, 5.8643250E-03
3733.511, 3.2462080E-03
3735.440, 7.0287678E-03
3737.368, 9.7056059E-03
3739.297, 7.1644480E-03
3741.225, 4.9014022E-03
3743.154, 5.3107692E-03
3745.082, 3.1122919E-03
3747.011, -8.1300299E-04
3748.939, 5.5348303E-04
3750.868, 3.5725310E-03
3752.796, 3.2143849E-03
3754.725, 8.8839920E-04
3756.653, 3.2590961E-03
3758.582, 5.0092079E-03
3760.510, 3.9505111E-03
3762.438, 5.7645580E-03
3764.367, 7.2241328E-03
3766.295, 7.4291509E-03
3768.224, 8.5924175E-03
3770.152, 9.7816940E-03
3772.081, 8.7581454E-03
3774.009, 6.6717509E-03
3775.938, 6.9334600E-03
3777.866, 8.2921721E-03
3779.795, 5.2998052E-03
3781.723, 4.3531782E-03
3783.652, 6.1425720E-03
3785.580, 4.1741370E-03
3787.509, 2.9847301E-03
3789.437, 3.1112870E-03
3791.365, 4.5534750E-03
3793.294, 9.4624581E-03
3795.222, 1.0350680E-02
3797.151, 7.0544132E-03
3799.079, 3.6352291E-03
3801.008, 6.0485108E-03
3802.936, 8.0090910E-03
3804.865, 6.8247830E-03
3806.793, 4.0835962E-03
3808.722, 5.2882042E-03
3810.650, 7.2206310E-03
3812.579, 6.4458149E-03
3814.507, 3.9366670E-03
3816.436, 4.3845139E-03
3818.364, 4.4228840E-03
3820.292, 5.2395081E-03
3822.221, 8.9769335E-03
3824.149, 7.5416151E-03
3826.078, 4.3483078E-03
3828.006, 3.6485440E-03
3829.935, 4.4023129E-03
3831.863, 6.3617970E-03
3833.792, 5.6833122E-03
3835.720, 6.8440130E-03
3837.649, 4.5548719E-03
3839.577, 2.3623800E-03
3841.506, 6.8120318E-03
3843.434, 7.6260851E-03
3845.363, 7.7754501E-03
3847.291, 8.4970854E-03
3849.219, 5.1296209E-03
3851.148, 4.0315301E-03
3853.076, 5.3363401E-03
3855.005, 7.3327720E-03
3856.933, 8.4230760E-03
3858.862, 9.6111018E-03
3860.790, 6.3894051E-03
3862.719, 2.9597599E-03
3864.647, 4.0291031E-03
3866.576, 3.9074458E-03
3868.504, 3.5917000E-03
3870.433, 3.8185390E-03
3872.361, 5.9758518E-03
3874.290, 7.0642950E-03
3876.218, 6.6350261E-03
3878.146, 3.5563549E-03
3880.075, 3.4573770E-03
3882.003, 9.0375505E-03
3883.932, 1.0049320E-02
3885.860, 9.7107198E-03
3887.789, 9.0604741E-03
3889.717, 1.0029030E-02
3891.646, 1.0436420E-02
3893.574, 7.9575740E-03
3895.503, 5.0131581E-03
3897.431, 4.9054208E-03
3899.360, 7.2227600E-03
3901.288, 6.9452990E-03
3903.217, 6.4492319E-03
3905.145, 4.4442639E-03
3907.073, 6.2705660E-03
3909.002, 6.1903321E-03
3910.930, 8.4650721E-03
3912.859, 1.0971610E-02
3914.787, 1.0262780E-02
3916.716, 6.9942661E-03
3918.644, 2.2364140E-03
3920.573, 2.4436959E-03
3922.501, 5.4066749E-03
3924.430, 6.3694222E-03
3926.358, 8.1533296E-03
3928.287, 1.0531540E-02
3930.215, 7.5036930E-03
3932.144, 6.2737940E-03
3934.072, 8.5392669E-03
3936.000, 1.1583420E-02
3937.929, 1.0382260E-02
3939.857, 7.2824340E-03
3941.786, 3.4245499E-03
3943.714, 6.8059238E-03
3945.643, 9.1433851E-03
3947.571, 6.0215602E-03
3949.500, 4.7281738E-03
3951.428, 6.6107721E-03
3953.357, 5.7053370E-03
3955.285, 6.2475801E-03
3957.214, 8.1374347E-03
3959.142, 1.0681180E-02
3961.071, 1.3844420E-02
3962.999, 1.0457070E-02
3964.927, 5.8017829E-03
3966.856, 9.0211639E-03
3968.784, 1.2494860E-02
3970.713, 1.0384770E-02
3972.641, 6.6919820E-03
3974.570, 4.9684350E-03
3976.498, 7.8947414E-03
3978.427, 7.5810440E-03
3980.355, 5.8602202E-03
3982.284, 6.9513102E-03
3984.212, 8.8952901E-03
3986.141, 9.7788079E-03
3988.069, 1.0411820E-02
3989.998, 9.2541436E-03
3991.926, 8.6659072E-03
3993.854, 1.1333780E-02
3995.783, 8.4592681E-03
3997.711, 7.2324090E-03
3999.640, 7.2358982E-03
##END=



