##NAMES=Leightonite
##RRUFFID=R050211
##IDEAL CHEMISTRY=K_2_Ca_2_Cu^2+^(S^6+^O_4_)_4_&#183;2H_2_O
##LOCALITY=Chuquicamata mine, Calama, Antofagasta Province, Chile
##OWNER=RRUFF
##SOURCE=John Dagenais
##DESCRIPTION=Blue lathlike crystals
##STATUS=The identification of this mineral has been confirmed by X-ray diffraction and chemical analysis
##URL=rruff.info/R050211
##MEASURED CHEMISTRY=(K_1.91_Na_0.09_)_Σ=2_Ca_2.00_Cu_1.00_(S_1.00_O_4_)_4_·1.96H_2_O
3.741225e+002, 1.521483e-002
3.760510e+002, 2.393035e-002
3.779795e+002, 2.052655e-002
3.799079e+002, 1.262534e-002
3.818364e+002, 1.168560e-002
3.837649e+002, 1.208038e-002
3.856933e+002, 1.381648e-002
3.876218e+002, 1.099261e-002
3.895503e+002, 1.010012e-002
3.914787e+002, 1.208781e-002
3.934072e+002, 1.758867e-002
3.953357e+002, 2.102506e-002
3.972641e+002, 2.149454e-002
3.991926e+002, 2.397413e-002
4.011211e+002, 2.530633e-002
4.030495e+002, 2.256073e-002
4.049780e+002, 1.961373e-002
4.069065e+002, 1.904159e-002
4.088349e+002, 1.978859e-002
4.107634e+002, 2.202684e-002
4.126919e+002, 2.443654e-002
4.146203e+002, 2.681245e-002
4.165488e+002, 2.866697e-002
4.184773e+002, 2.945290e-002
4.204057e+002, 3.003572e-002
4.223342e+002, 3.011096e-002
4.242627e+002, 3.098702e-002
4.261911e+002, 3.301265e-002
4.281196e+002, 3.548844e-002
4.300481e+002, 3.866734e-002
4.319765e+002, 4.371659e-002
4.339050e+002, 5.036006e-002
4.358335e+002, 5.702459e-002
4.377619e+002, 5.894638e-002
4.396904e+002, 5.513743e-002
4.416189e+002, 5.043260e-002
4.435473e+002, 4.804297e-002
4.454758e+002, 4.660632e-002
4.474043e+002, 4.502365e-002
4.493327e+002, 4.391258e-002
4.512612e+002, 4.344983e-002
4.531897e+002, 4.340969e-002
4.551181e+002, 4.438765e-002
4.570466e+002, 4.598796e-002
4.589751e+002, 4.880118e-002
4.609035e+002, 5.338513e-002
4.628320e+002, 5.986787e-002
4.647605e+002, 6.639144e-002
4.666889e+002, 7.136171e-002
4.686174e+002, 7.408229e-002
4.705459e+002, 7.511853e-002
4.724743e+002, 7.684336e-002
4.744028e+002, 7.913959e-002
4.763313e+002, 8.113427e-002
4.782597e+002, 8.343264e-002
4.801882e+002, 8.406287e-002
4.821167e+002, 8.155654e-002
4.840451e+002, 7.760023e-002
4.859736e+002, 7.393822e-002
4.879021e+002, 7.106870e-002
4.898305e+002, 6.965321e-002
4.917590e+002, 6.996908e-002
4.936875e+002, 7.146978e-002
4.956159e+002, 7.329755e-002
4.975444e+002, 7.697323e-002
4.994729e+002, 8.108198e-002
5.014013e+002, 8.541528e-002
5.033298e+002, 8.965281e-002
5.052583e+002, 9.354888e-002
5.071867e+002, 9.771750e-002
5.091152e+002, 1.006812e-001
5.110437e+002, 1.029011e-001
5.129721e+002, 1.047534e-001
5.149006e+002, 1.058126e-001
5.168290e+002, 1.064293e-001
5.187575e+002, 1.081771e-001
5.206860e+002, 1.100469e-001
5.226144e+002, 1.117202e-001
5.245429e+002, 1.143460e-001
5.264714e+002, 1.169518e-001
5.283998e+002, 1.195468e-001
5.303283e+002, 1.224020e-001
5.322568e+002, 1.250553e-001
5.341852e+002, 1.275364e-001
5.361137e+002, 1.299940e-001
5.380422e+002, 1.317954e-001
5.399706e+002, 1.327650e-001
5.418991e+002, 1.343862e-001
5.438276e+002, 1.355159e-001
5.457560e+002, 1.354546e-001
5.476845e+002, 1.360006e-001
5.496130e+002, 1.366600e-001
5.515414e+002, 1.370079e-001
5.534699e+002, 1.374586e-001
5.553984e+002, 1.365937e-001
5.573268e+002, 1.354026e-001
5.592553e+002, 1.337208e-001
5.611838e+002, 1.316706e-001
5.631122e+002, 1.292546e-001
5.650407e+002, 1.263299e-001
5.669692e+002, 1.235141e-001
5.688976e+002, 1.213193e-001
5.708261e+002, 1.199779e-001
5.727546e+002, 1.192411e-001
5.746830e+002, 1.198460e-001
5.766115e+002, 1.214519e-001
5.785400e+002, 1.251472e-001
5.804684e+002, 1.308210e-001
5.823969e+002, 1.386571e-001
5.843254e+002, 1.495839e-001
5.862538e+002, 1.651542e-001
5.881823e+002, 1.857225e-001
5.901108e+002, 2.087664e-001
5.920392e+002, 2.253920e-001
5.939677e+002, 2.242771e-001
5.958962e+002, 2.056799e-001
5.978246e+002, 1.808421e-001
5.997531e+002, 1.598783e-001
6.016816e+002, 1.480298e-001
6.036100e+002, 1.459344e-001
6.055385e+002, 1.494802e-001
6.074670e+002, 1.523614e-001
6.093954e+002, 1.502153e-001
6.113239e+002, 1.439659e-001
6.132524e+002, 1.366656e-001
6.151808e+002, 1.329781e-001
6.171093e+002, 1.343327e-001
6.190378e+002, 1.379211e-001
6.209662e+002, 1.408011e-001
6.228947e+002, 1.430104e-001
6.248232e+002, 1.453285e-001
6.267516e+002, 1.465620e-001
6.286801e+002, 1.451064e-001
6.306086e+002, 1.420739e-001
6.325370e+002, 1.393555e-001
6.344655e+002, 1.378623e-001
6.363940e+002, 1.384370e-001
6.383224e+002, 1.417273e-001
6.402509e+002, 1.454978e-001
6.421794e+002, 1.455357e-001
6.441078e+002, 1.412571e-001
6.460363e+002, 1.353423e-001
6.479648e+002, 1.279580e-001
6.498932e+002, 1.151024e-001
6.518217e+002, 9.686220e-002
6.537502e+002, 8.021139e-002
6.556786e+002, 7.216457e-002
6.576071e+002, 7.195913e-002
6.595356e+002, 7.372104e-002
6.614641e+002, 7.199517e-002
6.633925e+002, 6.427530e-002
6.653210e+002, 5.230321e-002
6.672495e+002, 4.029988e-002
6.691779e+002, 3.182790e-002
6.711064e+002, 2.724374e-002
6.730349e+002, 2.503958e-002
6.749633e+002, 2.414484e-002
6.768918e+002, 2.389897e-002
6.788203e+002, 2.389573e-002
6.807487e+002, 2.397623e-002
6.826772e+002, 2.411492e-002
6.846057e+002, 2.459624e-002
6.865341e+002, 2.515529e-002
6.884626e+002, 2.548330e-002
6.903911e+002, 2.594560e-002
6.923195e+002, 2.672966e-002
6.942480e+002, 2.742415e-002
6.961765e+002, 2.804055e-002
6.981049e+002, 2.865698e-002
7.000334e+002, 2.959769e-002
7.019619e+002, 3.028863e-002
7.038903e+002, 3.112243e-002
7.058188e+002, 3.201647e-002
7.077473e+002, 3.298914e-002
7.096757e+002, 3.406179e-002
7.116042e+002, 3.508622e-002
7.135327e+002, 3.622742e-002
7.154611e+002, 3.750264e-002
7.173896e+002, 3.876601e-002
7.193181e+002, 4.009790e-002
7.212465e+002, 4.164913e-002
7.231750e+002, 4.339749e-002
7.251035e+002, 4.505386e-002
7.270319e+002, 4.656480e-002
7.289604e+002, 4.847303e-002
7.308889e+002, 5.048590e-002
7.328173e+002, 5.238830e-002
7.347458e+002, 5.433903e-002
7.366743e+002, 5.646341e-002
7.386027e+002, 5.879897e-002
7.405312e+002, 6.113420e-002
7.424597e+002, 6.356933e-002
7.443881e+002, 6.640524e-002
7.463166e+002, 6.935965e-002
7.482451e+002, 7.223106e-002
7.501735e+002, 7.530438e-002
7.521020e+002, 7.852796e-002
7.540305e+002, 8.159891e-002
7.559589e+002, 8.493254e-002
7.578874e+002, 8.811527e-002
7.598159e+002, 9.138419e-002
7.617443e+002, 9.476589e-002
7.636728e+002, 9.787552e-002
7.656013e+002, 1.011534e-001
7.675297e+002, 1.047636e-001
7.694582e+002, 1.081070e-001
7.713867e+002, 1.113403e-001
7.733151e+002, 1.145112e-001
7.752436e+002, 1.178398e-001
7.771721e+002, 1.211829e-001
7.791005e+002, 1.243668e-001
7.810290e+002, 1.269819e-001
7.829575e+002, 1.293921e-001
7.848859e+002, 1.315074e-001
7.868144e+002, 1.333993e-001
7.887429e+002, 1.350688e-001
7.906713e+002, 1.365867e-001
7.925998e+002, 1.374817e-001
7.945283e+002, 1.377445e-001
7.964567e+002, 1.376808e-001
7.983852e+002, 1.369553e-001
8.003137e+002, 1.356654e-001
8.022421e+002, 1.339461e-001
8.041706e+002, 1.319803e-001
8.060991e+002, 1.295213e-001
8.080275e+002, 1.266979e-001
8.099560e+002, 1.238850e-001
8.118845e+002, 1.207281e-001
8.138129e+002, 1.171723e-001
8.157414e+002, 1.136252e-001
8.176699e+002, 1.102072e-001
8.195983e+002, 1.066320e-001
8.215268e+002, 1.030370e-001
8.234553e+002, 9.959539e-002
8.253837e+002, 9.609409e-002
8.273122e+002, 9.241065e-002
8.292407e+002, 8.873425e-002
8.311691e+002, 8.512092e-002
8.330976e+002, 8.165282e-002
8.350261e+002, 7.855105e-002
8.369545e+002, 7.539365e-002
8.388830e+002, 7.247820e-002
8.408115e+002, 7.004863e-002
8.427399e+002, 6.791573e-002
8.446684e+002, 6.621441e-002
8.465969e+002, 6.496323e-002
8.485253e+002, 6.363927e-002
8.504538e+002, 6.253599e-002
8.523823e+002, 6.185523e-002
8.543107e+002, 6.144864e-002
8.562392e+002, 6.104994e-002
8.581677e+002, 6.106311e-002
8.600961e+002, 6.082370e-002
8.620246e+002, 6.058870e-002
8.639531e+002, 6.050564e-002
8.658815e+002, 6.024959e-002
8.678100e+002, 5.996731e-002
8.697385e+002, 5.931766e-002
8.716669e+002, 5.847572e-002
8.735954e+002, 5.769898e-002
8.755239e+002, 5.689960e-002
8.774523e+002, 5.575815e-002
8.793808e+002, 5.450580e-002
8.813093e+002, 5.333249e-002
8.832377e+002, 5.212561e-002
8.851662e+002, 5.110166e-002
8.870947e+002, 5.049430e-002
8.890231e+002, 5.018802e-002
8.909516e+002, 5.002185e-002
8.928801e+002, 4.991020e-002
8.948085e+002, 5.024083e-002
8.967370e+002, 5.077594e-002
8.986655e+002, 5.139565e-002
9.005939e+002, 5.225277e-002
9.025224e+002, 5.328748e-002
9.044509e+002, 5.441095e-002
9.063793e+002, 5.543253e-002
9.083078e+002, 5.666994e-002
9.102363e+002, 5.814992e-002
9.121647e+002, 5.940352e-002
9.140932e+002, 6.065449e-002
9.160217e+002, 6.199393e-002
9.179501e+002, 6.313213e-002
9.198786e+002, 6.432193e-002
9.218071e+002, 6.562396e-002
9.237355e+002, 6.683344e-002
9.256640e+002, 6.814684e-002
9.275925e+002, 6.964349e-002
9.295209e+002, 7.119048e-002
9.314494e+002, 7.265931e-002
9.333779e+002, 7.430973e-002
9.353063e+002, 7.613913e-002
9.372348e+002, 7.798175e-002
9.391633e+002, 7.974256e-002
9.410917e+002, 8.156824e-002
9.430202e+002, 8.356583e-002
9.449487e+002, 8.583625e-002
9.468771e+002, 8.816791e-002
9.488056e+002, 9.046991e-002
9.507341e+002, 9.295410e-002
9.526625e+002, 9.580436e-002
9.545910e+002, 9.908795e-002
9.565195e+002, 1.026753e-001
9.584479e+002, 1.066643e-001
9.603764e+002, 1.112114e-001
9.623049e+002, 1.160206e-001
9.642333e+002, 1.214416e-001
9.661618e+002, 1.277345e-001
9.680903e+002, 1.346645e-001
9.700187e+002, 1.425014e-001
9.719472e+002, 1.512400e-001
9.738757e+002, 1.608234e-001
9.758041e+002, 1.713942e-001
9.777326e+002, 1.830058e-001
9.796611e+002, 1.957775e-001
9.815895e+002, 2.099224e-001
9.835180e+002, 2.261339e-001
9.854465e+002, 2.446219e-001
9.873749e+002, 2.655855e-001
9.893034e+002, 2.901344e-001
9.912319e+002, 3.181339e-001
9.931603e+002, 3.446412e-001
9.950888e+002, 3.619688e-001
9.970173e+002, 3.624285e-001
9.989457e+002, 3.426503e-001
1.000874e+003, 3.102403e-001
1.002803e+003, 2.804793e-001
1.004731e+003, 2.605057e-001
1.006660e+003, 2.443897e-001
1.008588e+003, 2.249857e-001
1.010517e+003, 2.071627e-001
1.012445e+003, 2.016075e-001
1.014373e+003, 2.104567e-001
1.016302e+003, 2.276584e-001
1.018230e+003, 2.474495e-001
1.020159e+003, 2.676511e-001
1.022087e+003, 2.876947e-001
1.024016e+003, 3.075545e-001
1.025944e+003, 3.274117e-001
1.027873e+003, 3.467354e-001
1.029801e+003, 3.655250e-001
1.031730e+003, 3.845531e-001
1.033658e+003, 4.036282e-001
1.035587e+003, 4.223272e-001
1.037515e+003, 4.403670e-001
1.039443e+003, 4.576276e-001
1.041372e+003, 4.743332e-001
1.043300e+003, 4.908892e-001
1.045229e+003, 5.064039e-001
1.047157e+003, 5.208828e-001
1.049086e+003, 5.337428e-001
1.051014e+003, 5.430642e-001
1.052943e+003, 5.487204e-001
1.054871e+003, 5.512704e-001
1.056800e+003, 5.495209e-001
1.058728e+003, 5.432839e-001
1.060657e+003, 5.330514e-001
1.062585e+003, 5.203125e-001
1.064514e+003, 5.055295e-001
1.066442e+003, 4.901246e-001
1.068370e+003, 4.747988e-001
1.070299e+003, 4.603003e-001
1.072227e+003, 4.462224e-001
1.074156e+003, 4.319140e-001
1.076084e+003, 4.175891e-001
1.078013e+003, 4.040264e-001
1.079941e+003, 3.917857e-001
1.081870e+003, 3.812793e-001
1.083798e+003, 3.736645e-001
1.085727e+003, 3.698143e-001
1.087655e+003, 3.694468e-001
1.089584e+003, 3.713463e-001
1.091512e+003, 3.743618e-001
1.093441e+003, 3.777349e-001
1.095369e+003, 3.807366e-001
1.097297e+003, 3.826272e-001
1.099226e+003, 3.835516e-001
1.101154e+003, 3.844113e-001
1.103083e+003, 3.858261e-001
1.105011e+003, 3.880655e-001
1.106940e+003, 3.916235e-001
1.108868e+003, 3.969285e-001
1.110797e+003, 4.032968e-001
1.112725e+003, 4.092891e-001
1.114654e+003, 4.129377e-001
1.116582e+003, 4.130228e-001
1.118511e+003, 4.098989e-001
1.120439e+003, 4.050685e-001
1.122368e+003, 3.997682e-001
1.124296e+003, 3.942952e-001
1.126224e+003, 3.883829e-001
1.128153e+003, 3.821615e-001
1.130081e+003, 3.762891e-001
1.132010e+003, 3.715297e-001
1.133938e+003, 3.676313e-001
1.135867e+003, 3.643237e-001
1.137795e+003, 3.610881e-001
1.139724e+003, 3.577757e-001
1.141652e+003, 3.536543e-001
1.143581e+003, 3.482279e-001
1.145509e+003, 3.416534e-001
1.147438e+003, 3.344668e-001
1.149366e+003, 3.269340e-001
1.151295e+003, 3.198135e-001
1.153223e+003, 3.138406e-001
1.155151e+003, 3.093510e-001
1.157080e+003, 3.059747e-001
1.159008e+003, 3.032629e-001
1.160937e+003, 3.001313e-001
1.162865e+003, 2.961443e-001
1.164794e+003, 2.910293e-001
1.166722e+003, 2.843656e-001
1.168651e+003, 2.759762e-001
1.170579e+003, 2.656834e-001
1.172508e+003, 2.530025e-001
1.174436e+003, 2.380753e-001
1.176365e+003, 2.222061e-001
1.178293e+003, 2.068477e-001
1.180222e+003, 1.923587e-001
1.182150e+003, 1.788475e-001
1.184078e+003, 1.667286e-001
1.186007e+003, 1.559596e-001
1.187935e+003, 1.467683e-001
1.189864e+003, 1.388973e-001
1.191792e+003, 1.318393e-001
1.193721e+003, 1.251797e-001
1.195649e+003, 1.184336e-001
1.197578e+003, 1.114963e-001
1.199506e+003, 1.045321e-001
1.201435e+003, 9.754536e-002
1.203363e+003, 9.054225e-002
1.205292e+003, 8.378270e-002
1.207220e+003, 7.733760e-002
1.209149e+003, 7.123873e-002
1.211077e+003, 6.558051e-002
1.213005e+003, 6.021166e-002
1.214934e+003, 5.522334e-002
1.216862e+003, 5.068996e-002
1.218791e+003, 4.674233e-002
1.220719e+003, 4.323499e-002
1.222648e+003, 4.011404e-002
1.224576e+003, 3.729212e-002
1.226505e+003, 3.474969e-002
1.228433e+003, 3.213725e-002
1.230362e+003, 2.934295e-002
1.232290e+003, 2.627646e-002
1.234219e+003, 2.306496e-002
1.236147e+003, 1.987175e-002
1.238076e+003, 1.719744e-002
1.240004e+003, 1.522322e-002
1.241932e+003, 1.376287e-002
1.243861e+003, 1.264685e-002
1.245789e+003, 1.175211e-002
1.247718e+003, 1.101743e-002
1.249646e+003, 1.041190e-002
1.251575e+003, 9.959589e-003
1.253503e+003, 9.633508e-003
1.255432e+003, 9.263606e-003
1.257360e+003, 9.003486e-003
1.259289e+003, 8.658595e-003
1.261217e+003, 8.182917e-003
1.263146e+003, 7.781895e-003
1.265074e+003, 7.410644e-003
1.267003e+003, 7.023101e-003
1.268931e+003, 6.786262e-003
1.270859e+003, 6.651810e-003
1.272788e+003, 6.429885e-003
1.274716e+003, 6.199068e-003
1.276645e+003, 5.998882e-003
1.278573e+003, 5.841500e-003
1.280502e+003, 5.741660e-003
1.282430e+003, 5.597571e-003
1.284359e+003, 5.530118e-003
1.286287e+003, 5.329742e-003
1.288216e+003, 5.060372e-003
1.290144e+003, 4.814676e-003
1.292073e+003, 4.639804e-003
1.294001e+003, 4.557287e-003
1.295930e+003, 4.465812e-003
1.297858e+003, 4.439163e-003
1.299786e+003, 4.309087e-003
1.301715e+003, 4.142144e-003
1.303643e+003, 3.921157e-003
1.305572e+003, 3.816626e-003
1.307500e+003, 3.927371e-003
1.309429e+003, 3.886935e-003
1.311357e+003, 3.864177e-003
1.313286e+003, 3.820179e-003
1.315214e+003, 3.732836e-003
1.317143e+003, 3.682611e-003
1.319071e+003, 3.634597e-003
1.321000e+003, 3.581462e-003
1.322928e+003, 3.613858e-003
1.324857e+003, 3.692756e-003
1.326785e+003, 3.748339e-003
1.328714e+003, 3.745020e-003
1.330642e+003, 3.756047e-003
1.332570e+003, 3.890279e-003
1.334499e+003, 3.983866e-003
1.336427e+003, 3.880851e-003
1.338356e+003, 3.892472e-003
1.340284e+003, 3.942923e-003
1.342213e+003, 3.965792e-003
1.344141e+003, 4.016146e-003
1.346070e+003, 4.022047e-003
1.347998e+003, 4.018776e-003
1.349927e+003, 3.921637e-003
1.351855e+003, 3.887560e-003
1.353784e+003, 3.985904e-003
1.355712e+003, 4.129030e-003
1.357641e+003, 4.165622e-003
1.359569e+003, 4.218637e-003
1.361497e+003, 4.302733e-003
1.363426e+003, 4.400076e-003
1.365354e+003, 4.538937e-003
1.367283e+003, 4.600960e-003
1.369211e+003, 4.684681e-003
1.371140e+003, 4.793811e-003
1.373068e+003, 4.858488e-003
1.374997e+003, 4.899771e-003
1.376925e+003, 4.945891e-003
1.378854e+003, 5.068823e-003
1.380782e+003, 5.137098e-003
1.382711e+003, 5.212537e-003
1.384639e+003, 5.276043e-003
1.386568e+003, 5.452541e-003
1.388496e+003, 5.522767e-003
1.390424e+003, 5.614601e-003
1.392353e+003, 5.836350e-003
1.394281e+003, 5.923469e-003
1.396210e+003, 6.043710e-003
1.398138e+003, 6.193148e-003
1.400067e+003, 6.219940e-003
1.401995e+003, 6.172684e-003
1.403924e+003, 6.220941e-003
1.405852e+003, 6.369138e-003
1.407781e+003, 6.526237e-003
1.409709e+003, 6.743892e-003
1.411638e+003, 6.813475e-003
1.413566e+003, 6.746849e-003
1.415495e+003, 6.805296e-003
1.417423e+003, 7.000610e-003
1.419351e+003, 7.176655e-003
1.421280e+003, 7.209918e-003
1.423208e+003, 7.230604e-003
1.425137e+003, 7.338745e-003
1.427065e+003, 7.531970e-003
1.428994e+003, 7.701400e-003
1.430922e+003, 7.735911e-003
1.432851e+003, 7.847748e-003
1.434779e+003, 8.041492e-003
1.436708e+003, 8.105902e-003
1.438636e+003, 8.073299e-003
1.440565e+003, 8.129794e-003
1.442493e+003, 8.340270e-003
1.444422e+003, 8.494967e-003
1.446350e+003, 8.431053e-003
1.448278e+003, 8.479094e-003
1.450207e+003, 8.505555e-003
1.452135e+003, 8.543867e-003
1.454064e+003, 8.670161e-003
1.455992e+003, 8.822415e-003
1.457921e+003, 8.868514e-003
1.459849e+003, 8.956950e-003
1.461778e+003, 9.061075e-003
1.463706e+003, 9.118511e-003
1.465635e+003, 9.268854e-003
1.467563e+003, 9.463462e-003
1.469492e+003, 9.635025e-003
1.471420e+003, 9.855059e-003
1.473349e+003, 1.007397e-002
1.475277e+003, 1.019640e-002
1.477205e+003, 1.040890e-002
1.479134e+003, 1.068378e-002
1.481062e+003, 1.088463e-002
1.482991e+003, 1.088345e-002
1.484919e+003, 1.091925e-002
1.486848e+003, 1.119582e-002
1.488776e+003, 1.149718e-002
1.490705e+003, 1.150085e-002
1.492633e+003, 1.142587e-002
1.494562e+003, 1.158866e-002
1.496490e+003, 1.188189e-002
1.498419e+003, 1.204525e-002
1.500347e+003, 1.213296e-002
1.502276e+003, 1.222969e-002
1.504204e+003, 1.235625e-002
1.506132e+003, 1.247101e-002
1.508061e+003, 1.250422e-002
1.509989e+003, 1.247248e-002
1.511918e+003, 1.248606e-002
1.513846e+003, 1.259094e-002
1.515775e+003, 1.263861e-002
1.517703e+003, 1.270888e-002
1.519632e+003, 1.273832e-002
1.521560e+003, 1.274794e-002
1.523489e+003, 1.284736e-002
1.525417e+003, 1.285332e-002
1.527346e+003, 1.280234e-002
1.529274e+003, 1.271433e-002
1.531203e+003, 1.265300e-002
1.533131e+003, 1.259822e-002
1.535059e+003, 1.266600e-002
1.536988e+003, 1.269717e-002
1.538916e+003, 1.275618e-002
1.540845e+003, 1.274272e-002
1.542773e+003, 1.255535e-002
1.544702e+003, 1.240421e-002
1.546630e+003, 1.237975e-002
1.548559e+003, 1.235504e-002
1.550487e+003, 1.221730e-002
1.552416e+003, 1.214121e-002
1.554344e+003, 1.217003e-002
1.556273e+003, 1.220499e-002
1.558201e+003, 1.215903e-002
1.560130e+003, 1.212534e-002
1.562058e+003, 1.216342e-002
1.563986e+003, 1.223431e-002
1.565915e+003, 1.218765e-002
1.567843e+003, 1.209469e-002
1.569772e+003, 1.230406e-002
1.571700e+003, 1.235683e-002
1.573629e+003, 1.218736e-002
1.575557e+003, 1.210002e-002
1.577486e+003, 1.213335e-002
1.579414e+003, 1.227258e-002
1.581343e+003, 1.236503e-002
1.583271e+003, 1.241906e-002
1.585200e+003, 1.242302e-002
1.587128e+003, 1.240998e-002
1.589057e+003, 1.247808e-002
1.590985e+003, 1.257482e-002
1.592913e+003, 1.268452e-002
1.594842e+003, 1.284431e-002
1.596770e+003, 1.306808e-002
1.598699e+003, 1.317667e-002
1.600627e+003, 1.320312e-002
1.602556e+003, 1.336927e-002
1.604484e+003, 1.352856e-002
1.606413e+003, 1.348732e-002
1.608341e+003, 1.338434e-002
1.610270e+003, 1.343554e-002
1.612198e+003, 1.354117e-002
1.614127e+003, 1.354430e-002
1.616055e+003, 1.343237e-002
1.617984e+003, 1.342596e-002
1.619912e+003, 1.345643e-002
1.621840e+003, 1.331851e-002
1.623769e+003, 1.323388e-002
1.625697e+003, 1.316592e-002
1.627626e+003, 1.309128e-002
1.629554e+003, 1.311429e-002
1.631483e+003, 1.308567e-002
1.633411e+003, 1.303043e-002
1.635340e+003, 1.290369e-002
1.637268e+003, 1.261449e-002
1.639197e+003, 1.242408e-002
1.641125e+003, 1.239682e-002
1.643054e+003, 1.238591e-002
1.644982e+003, 1.233154e-002
1.646911e+003, 1.212566e-002
1.648839e+003, 1.193882e-002
1.650767e+003, 1.176024e-002
1.652696e+003, 1.152422e-002
1.654624e+003, 1.144303e-002
1.656553e+003, 1.135022e-002
1.658481e+003, 1.120388e-002
1.660410e+003, 1.103909e-002
1.662338e+003, 1.102812e-002
1.664267e+003, 1.103791e-002
1.666195e+003, 1.092613e-002
1.668124e+003, 1.093189e-002
1.670052e+003, 1.088821e-002
1.671981e+003, 1.078520e-002
1.673909e+003, 1.069781e-002
1.675838e+003, 1.062125e-002
1.677766e+003, 1.061540e-002
1.679694e+003, 1.069353e-002
1.681623e+003, 1.078329e-002
1.683551e+003, 1.082003e-002
1.685480e+003, 1.090795e-002
1.687408e+003, 1.098760e-002
1.689337e+003, 1.110127e-002
1.691265e+003, 1.121537e-002
1.693194e+003, 1.122762e-002
1.695122e+003, 1.129466e-002
1.697051e+003, 1.148948e-002
1.698979e+003, 1.164438e-002
1.700908e+003, 1.154600e-002
1.702836e+003, 1.153705e-002
1.704765e+003, 1.163375e-002
1.706693e+003, 1.175621e-002
1.708621e+003, 1.180431e-002
1.710550e+003, 1.164367e-002
1.712478e+003, 1.142442e-002
1.714407e+003, 1.131701e-002
1.716335e+003, 1.115941e-002
1.718264e+003, 1.085911e-002
1.720192e+003, 1.064745e-002
1.722121e+003, 1.052728e-002
1.724049e+003, 1.033075e-002
1.725978e+003, 1.023109e-002
1.727906e+003, 1.001995e-002
1.729835e+003, 9.502375e-003
1.731763e+003, 8.992993e-003
1.733692e+003, 8.638053e-003
1.735620e+003, 8.324444e-003
1.737548e+003, 8.051102e-003
1.739477e+003, 7.816912e-003
1.741405e+003, 7.506032e-003
1.743334e+003, 7.213768e-003
1.745262e+003, 6.941907e-003
1.747191e+003, 6.556417e-003
1.749119e+003, 6.209279e-003
1.751048e+003, 6.150305e-003
1.752976e+003, 6.261411e-003
1.754905e+003, 6.112470e-003
1.756833e+003, 5.817857e-003
1.758762e+003, 5.688773e-003
1.760690e+003, 5.421686e-003
1.762619e+003, 5.264159e-003
1.764547e+003, 5.370870e-003
1.766475e+003, 5.332107e-003
1.768404e+003, 5.155973e-003
1.770332e+003, 4.987868e-003
1.772261e+003, 4.683293e-003
1.774189e+003, 4.428778e-003
1.776118e+003, 4.435161e-003
1.778046e+003, 4.436230e-003
1.779975e+003, 4.355143e-003
1.781903e+003, 4.287652e-003
1.783832e+003, 4.227085e-003
1.785760e+003, 4.270729e-003
1.787689e+003, 4.100645e-003
1.789617e+003, 3.969635e-003
1.791546e+003, 3.861442e-003
1.793474e+003, 3.601491e-003
1.795402e+003, 3.596149e-003
1.797331e+003, 3.745992e-003
1.799259e+003, 3.612895e-003
1.801188e+003, 3.557089e-003
1.803116e+003, 3.584833e-003
1.805045e+003, 3.559457e-003
1.806973e+003, 3.531195e-003
1.808902e+003, 3.465600e-003
1.810830e+003, 3.331171e-003
1.812759e+003, 3.146178e-003
1.814687e+003, 3.156142e-003
1.816616e+003, 3.069508e-003
1.818544e+003, 3.264716e-003
1.820473e+003, 3.536413e-003
1.822401e+003, 3.594256e-003
1.824329e+003, 3.742522e-003
1.826258e+003, 3.691999e-003
1.828186e+003, 3.464957e-003
1.830115e+003, 3.404416e-003
1.832043e+003, 3.316863e-003
1.833972e+003, 3.264625e-003
1.835900e+003, 3.366518e-003
1.837829e+003, 3.006402e-003
1.839757e+003, 2.853171e-003
1.841686e+003, 3.157683e-003
1.843614e+003, 3.301498e-003
1.845543e+003, 3.218558e-003
1.847471e+003, 3.042598e-003
1.849400e+003, 2.957876e-003
1.851328e+003, 3.080345e-003
1.853256e+003, 2.942035e-003
1.855185e+003, 2.876971e-003
1.857113e+003, 3.228568e-003
1.859042e+003, 3.517688e-003
1.860970e+003, 3.351602e-003
1.862899e+003, 3.365052e-003
1.864827e+003, 3.341854e-003
1.866756e+003, 3.410152e-003
1.868684e+003, 3.453454e-003
1.870613e+003, 3.343801e-003
1.872541e+003, 3.088681e-003
1.874470e+003, 2.843083e-003
1.876398e+003, 3.029770e-003
1.878327e+003, 3.088227e-003
1.880255e+003, 3.017570e-003
1.882183e+003, 3.060392e-003
1.884112e+003, 3.034773e-003
1.886040e+003, 3.339183e-003
1.887969e+003, 3.386216e-003
1.889897e+003, 3.082750e-003
1.891826e+003, 3.227199e-003
1.893754e+003, 3.545949e-003
1.895683e+003, 3.629522e-003
1.897611e+003, 3.602224e-003
1.899540e+003, 3.504912e-003
1.901468e+003, 2.948538e-003
1.903397e+003, 2.602609e-003
1.905325e+003, 3.201047e-003
1.907254e+003, 3.679251e-003
1.909182e+003, 3.385321e-003
1.911110e+003, 3.268928e-003
1.913039e+003, 3.121830e-003
1.914967e+003, 2.749070e-003
1.916896e+003, 2.564163e-003
1.918824e+003, 3.124571e-003
1.920753e+003, 3.195271e-003
1.922681e+003, 2.926593e-003
1.924610e+003, 2.692419e-003
1.926538e+003, 3.073520e-003
1.928467e+003, 3.079153e-003
1.930395e+003, 3.059356e-003
1.932324e+003, 3.026682e-003
1.934252e+003, 2.916487e-003
1.936181e+003, 3.094801e-003
1.938109e+003, 3.399285e-003
1.940037e+003, 3.383995e-003
1.941966e+003, 2.988609e-003
1.943894e+003, 2.526531e-003
1.945823e+003, 2.590898e-003
1.947751e+003, 3.077285e-003
1.949680e+003, 3.087878e-003
1.951608e+003, 2.822633e-003
1.953537e+003, 2.918630e-003
1.955465e+003, 2.386159e-003
1.957394e+003, 1.771720e-003
1.959322e+003, 2.105369e-003
1.961251e+003, 2.714411e-003
1.963179e+003, 2.281161e-003
1.965108e+003, 2.115983e-003
1.967036e+003, 1.728424e-003
1.968964e+003, 1.232940e-003
1.970893e+003, 1.303643e-003
1.972821e+003, 9.749471e-004
1.974750e+003, 1.372475e-003
1.976678e+003, 2.723395e-003
1.978607e+003, 3.723358e-003
1.980535e+003, 3.955417e-003
1.982464e+003, 3.839925e-003
1.984392e+003, 3.027494e-003
1.986321e+003, 2.501370e-003
1.988249e+003, 2.615007e-003
1.990178e+003, 2.505768e-003
1.992106e+003, 2.603569e-003
1.994035e+003, 2.242817e-003
1.995963e+003, 2.414275e-003
1.997891e+003, 2.437176e-003
1.999820e+003, 2.438293e-003
2.001748e+003, 2.338813e-003
2.003677e+003, 1.963875e-003
2.005605e+003, 1.995432e-003
2.007534e+003, 2.978455e-003
2.009462e+003, 2.832599e-003
2.011391e+003, 2.501103e-003
2.013319e+003, 2.787577e-003
2.015248e+003, 2.891449e-003
2.017176e+003, 2.500737e-003
2.019105e+003, 1.930391e-003
2.021033e+003, 1.874069e-003
2.022962e+003, 2.902278e-003
2.024890e+003, 3.127361e-003
2.026818e+003, 3.127552e-003
2.028747e+003, 3.657622e-003
2.030675e+003, 3.706797e-003
2.032604e+003, 3.951944e-003
2.034532e+003, 4.162483e-003
2.036461e+003, 3.893599e-003
2.038389e+003, 3.954765e-003
2.040318e+003, 4.181795e-003
2.042246e+003, 4.422732e-003
2.044175e+003, 4.024952e-003
2.046103e+003, 3.264872e-003
2.048031e+003, 4.019572e-003
2.049960e+003, 5.334530e-003
2.051888e+003, 4.902271e-003
2.053817e+003, 4.909929e-003
2.055745e+003, 5.400521e-003
2.057674e+003, 4.851231e-003
2.059602e+003, 4.392147e-003
2.061531e+003, 4.576345e-003
2.063459e+003, 4.567148e-003
2.065388e+003, 3.836235e-003
2.067316e+003, 3.902990e-003
2.069245e+003, 4.474638e-003
2.071173e+003, 4.645268e-003
2.073102e+003, 5.172314e-003
2.075030e+003, 5.038467e-003
2.076958e+003, 4.151173e-003
2.078887e+003, 4.171137e-003
2.080815e+003, 4.843774e-003
2.082744e+003, 4.225347e-003
2.084672e+003, 3.827539e-003
2.086601e+003, 3.785416e-003
2.088529e+003, 3.705577e-003
2.090458e+003, 3.909287e-003
2.092386e+003, 3.996075e-003
2.094315e+003, 3.679400e-003
2.096243e+003, 3.983086e-003
2.098172e+003, 4.305562e-003
2.100100e+003, 4.622121e-003
2.102029e+003, 4.938378e-003
2.103957e+003, 5.451229e-003
2.105885e+003, 5.246443e-003
2.107814e+003, 4.767186e-003
2.109742e+003, 4.393084e-003
2.111671e+003, 4.390772e-003
2.113599e+003, 4.517634e-003
2.115528e+003, 4.779960e-003
2.117456e+003, 4.726897e-003
2.119385e+003, 4.264837e-003
2.121313e+003, 4.296957e-003
2.123242e+003, 4.366808e-003
2.125170e+003, 4.334795e-003
2.127099e+003, 4.397476e-003
2.129027e+003, 3.973602e-003
2.130956e+003, 3.527318e-003
2.132884e+003, 2.978132e-003
2.134813e+003, 2.731518e-003
2.136741e+003, 2.556673e-003
2.138669e+003, 2.840575e-003
2.140598e+003, 3.373487e-003
2.142526e+003, 3.792485e-003
2.144455e+003, 3.002245e-003
2.146383e+003, 2.795052e-003
2.148312e+003, 3.740222e-003
2.150240e+003, 4.140947e-003
2.152169e+003, 3.243245e-003
2.154097e+003, 2.264539e-003
2.156026e+003, 2.063475e-003
2.157954e+003, 2.672398e-003
2.159883e+003, 4.905099e-003
2.161811e+003, 6.544811e-003
2.163740e+003, 6.587756e-003
2.165668e+003, 6.077772e-003
2.167596e+003, 5.514809e-003
2.169525e+003, 6.094285e-003
2.171453e+003, 5.697463e-003
2.173382e+003, 4.921053e-003
2.175310e+003, 4.960834e-003
2.177239e+003, 4.977933e-003
2.179167e+003, 3.500070e-003
2.181096e+003, 3.352788e-003
2.183024e+003, 4.886838e-003
2.184953e+003, 5.602562e-003
2.186881e+003, 5.149854e-003
2.188810e+003, 5.782417e-003
2.190738e+003, 6.147908e-003
2.192667e+003, 5.629146e-003
2.194595e+003, 5.886917e-003
2.196523e+003, 5.983578e-003
2.198452e+003, 6.069382e-003
2.200380e+003, 5.796946e-003
2.202309e+003, 5.172632e-003
2.204237e+003, 4.927616e-003
2.206166e+003, 4.959679e-003
2.208094e+003, 5.035589e-003
2.210023e+003, 5.873553e-003
2.211951e+003, 6.617634e-003
2.213880e+003, 6.153890e-003
2.215808e+003, 5.655878e-003
2.217737e+003, 5.664848e-003
2.219665e+003, 5.657560e-003
2.221594e+003, 5.509406e-003
2.223522e+003, 5.152782e-003
2.225450e+003, 4.585580e-003
2.227379e+003, 4.602924e-003
2.229307e+003, 5.468698e-003
2.231236e+003, 5.522627e-003
2.233164e+003, 4.810981e-003
2.235093e+003, 4.471826e-003
2.237021e+003, 5.353376e-003
2.238950e+003, 5.736040e-003
2.240878e+003, 5.169000e-003
2.242807e+003, 4.889225e-003
2.244735e+003, 4.898650e-003
2.246664e+003, 4.860571e-003
2.248592e+003, 5.232451e-003
2.250521e+003, 5.325453e-003
2.252449e+003, 5.318882e-003
2.254377e+003, 5.304373e-003
2.256306e+003, 4.812175e-003
2.258234e+003, 4.761142e-003
2.260163e+003, 5.110659e-003
2.262091e+003, 4.819233e-003
2.264020e+003, 5.309779e-003
2.265948e+003, 5.632926e-003
2.267877e+003, 5.142370e-003
2.269805e+003, 5.503071e-003
2.271734e+003, 6.277662e-003
2.273662e+003, 6.884392e-003
2.275591e+003, 6.339680e-003
2.277519e+003, 6.240346e-003
2.279448e+003, 6.478786e-003
2.281376e+003, 7.266780e-003
2.283304e+003, 7.511273e-003
2.285233e+003, 7.225593e-003
2.287161e+003, 7.028691e-003
2.289090e+003, 6.810267e-003
2.291018e+003, 6.635525e-003
2.292947e+003, 6.716114e-003
2.294875e+003, 6.546270e-003
2.296804e+003, 6.363423e-003
2.298732e+003, 6.392793e-003
2.300661e+003, 6.621674e-003
2.302589e+003, 6.149864e-003
2.304518e+003, 6.145725e-003
2.306446e+003, 6.414198e-003
2.308375e+003, 6.234652e-003
2.310303e+003, 6.218784e-003
2.312231e+003, 6.450233e-003
2.314160e+003, 6.458526e-003
2.316088e+003, 6.587248e-003
2.318017e+003, 6.853823e-003
2.319945e+003, 7.023341e-003
2.321874e+003, 7.527336e-003
2.323802e+003, 7.898476e-003
2.325731e+003, 7.109744e-003
2.327659e+003, 6.450128e-003
2.329588e+003, 6.016691e-003
2.331516e+003, 5.777298e-003
2.333445e+003, 5.782722e-003
2.335373e+003, 5.874448e-003
2.337302e+003, 5.865498e-003
2.339230e+003, 5.716239e-003
2.341158e+003, 5.673717e-003
2.343087e+003, 5.944526e-003
2.345015e+003, 5.816207e-003
2.346944e+003, 5.911698e-003
2.348872e+003, 6.052189e-003
2.350801e+003, 6.173705e-003
2.352729e+003, 6.186191e-003
2.354658e+003, 6.001903e-003
2.356586e+003, 5.701047e-003
2.358515e+003, 5.516798e-003
2.360443e+003, 5.627159e-003
2.362372e+003, 5.663654e-003
2.364300e+003, 5.770670e-003
2.366229e+003, 5.747281e-003
2.368157e+003, 5.563988e-003
2.370085e+003, 5.604939e-003
2.372014e+003, 5.936147e-003
2.373942e+003, 6.050880e-003
2.375871e+003, 6.170857e-003
2.377799e+003, 6.200294e-003
2.379728e+003, 6.383896e-003
2.381656e+003, 6.491310e-003
2.383585e+003, 6.400898e-003
2.385513e+003, 6.508789e-003
2.387442e+003, 6.446076e-003
2.389370e+003, 6.387429e-003
2.391299e+003, 6.249067e-003
2.393227e+003, 6.370438e-003
2.395156e+003, 6.600881e-003
2.397084e+003, 6.491436e-003
2.399012e+003, 6.086427e-003
2.400941e+003, 6.185663e-003
2.402869e+003, 6.450750e-003
2.404798e+003, 6.561587e-003
2.406726e+003, 6.718646e-003
2.408655e+003, 6.891641e-003
2.410583e+003, 7.226356e-003
2.412512e+003, 7.565700e-003
2.414440e+003, 7.663165e-003
2.416369e+003, 7.457139e-003
2.418297e+003, 7.042596e-003
2.420226e+003, 7.075360e-003
2.422154e+003, 7.431881e-003
2.424083e+003, 7.737900e-003
2.426011e+003, 7.772874e-003
2.427939e+003, 7.594077e-003
2.429868e+003, 7.855678e-003
2.431796e+003, 8.409005e-003
2.433725e+003, 7.966862e-003
2.435653e+003, 7.823243e-003
2.437582e+003, 8.301379e-003
2.439510e+003, 8.519044e-003
2.441439e+003, 8.126772e-003
2.443367e+003, 8.155222e-003
2.445296e+003, 8.590118e-003
2.447224e+003, 8.480589e-003
2.449153e+003, 8.457668e-003
2.451081e+003, 8.838803e-003
2.453010e+003, 9.139027e-003
2.454938e+003, 8.896836e-003
2.456866e+003, 8.663600e-003
2.458795e+003, 8.735358e-003
2.460723e+003, 8.920193e-003
2.462652e+003, 8.657124e-003
2.464580e+003, 8.611212e-003
2.466509e+003, 8.909214e-003
2.468437e+003, 9.105700e-003
2.470366e+003, 9.223523e-003
2.472294e+003, 9.131660e-003
2.474223e+003, 8.987255e-003
2.476151e+003, 8.939502e-003
2.478080e+003, 8.911852e-003
2.480008e+003, 8.828492e-003
2.481937e+003, 8.954581e-003
2.483865e+003, 9.083952e-003
2.485793e+003, 8.843934e-003
2.487722e+003, 8.885043e-003
2.489650e+003, 9.162869e-003
2.491579e+003, 9.323076e-003
2.493507e+003, 9.216895e-003
2.495436e+003, 9.344351e-003
2.497364e+003, 9.664685e-003
2.499293e+003, 9.348357e-003
2.501221e+003, 9.277679e-003
2.503150e+003, 9.496404e-003
2.505078e+003, 9.718161e-003
2.507007e+003, 9.467304e-003
2.508935e+003, 9.098819e-003
2.510864e+003, 9.301383e-003
2.512792e+003, 9.473449e-003
2.514720e+003, 9.611610e-003
2.516649e+003, 9.855546e-003
2.518577e+003, 1.016493e-002
2.520506e+003, 1.024505e-002
2.522434e+003, 1.010383e-002
2.524363e+003, 9.813543e-003
2.526291e+003, 9.954398e-003
2.528220e+003, 9.978239e-003
2.530148e+003, 9.707989e-003
2.532077e+003, 9.827973e-003
2.534005e+003, 1.002685e-002
2.535934e+003, 9.922306e-003
2.537862e+003, 1.006987e-002
2.539791e+003, 1.032120e-002
2.541719e+003, 1.040878e-002
2.543647e+003, 1.040307e-002
2.545576e+003, 1.070653e-002
2.547504e+003, 1.076954e-002
2.549433e+003, 1.036698e-002
2.551361e+003, 1.007887e-002
2.553290e+003, 1.021046e-002
2.555218e+003, 1.047070e-002
2.557147e+003, 1.036699e-002
2.559075e+003, 1.024970e-002
2.561004e+003, 1.056278e-002
2.562932e+003, 1.080848e-002
2.564861e+003, 1.081457e-002
2.566789e+003, 1.061715e-002
2.568718e+003, 1.039068e-002
2.570646e+003, 1.062719e-002
2.572574e+003, 1.085015e-002
2.574503e+003, 1.081401e-002
2.576431e+003, 1.101177e-002
2.578360e+003, 1.100354e-002
2.580288e+003, 1.081797e-002
2.582217e+003, 1.077735e-002
2.584145e+003, 1.095251e-002
2.586074e+003, 1.115254e-002
2.588002e+003, 1.123881e-002
2.589931e+003, 1.101520e-002
2.591859e+003, 1.097946e-002
2.593788e+003, 1.132031e-002
2.595716e+003, 1.140936e-002
2.597645e+003, 1.130995e-002
2.599573e+003, 1.128634e-002
2.601501e+003, 1.125554e-002
2.603430e+003, 1.139607e-002
2.605358e+003, 1.169336e-002
2.607287e+003, 1.150591e-002
2.609215e+003, 1.140126e-002
2.611144e+003, 1.158781e-002
2.613072e+003, 1.162464e-002
2.615001e+003, 1.177792e-002
2.616929e+003, 1.191963e-002
2.618858e+003, 1.174650e-002
2.620786e+003, 1.145277e-002
2.622715e+003, 1.166856e-002
2.624643e+003, 1.166309e-002
2.626572e+003, 1.136136e-002
2.628500e+003, 1.147967e-002
2.630428e+003, 1.165714e-002
2.632357e+003, 1.185181e-002
2.634285e+003, 1.214397e-002
2.636214e+003, 1.214052e-002
2.638142e+003, 1.188628e-002
2.640071e+003, 1.186547e-002
2.641999e+003, 1.204523e-002
2.643928e+003, 1.182309e-002
2.645856e+003, 1.157108e-002
2.647785e+003, 1.161844e-002
2.649713e+003, 1.177130e-002
2.651642e+003, 1.202470e-002
2.653570e+003, 1.207744e-002
2.655499e+003, 1.192504e-002
2.657427e+003, 1.190329e-002
2.659355e+003, 1.181795e-002
2.661284e+003, 1.174840e-002
2.663212e+003, 1.186000e-002
2.665141e+003, 1.198903e-002
2.667069e+003, 1.183694e-002
2.668998e+003, 1.166112e-002
2.670926e+003, 1.163318e-002
2.672855e+003, 1.178178e-002
2.674783e+003, 1.167266e-002
2.676712e+003, 1.164240e-002
2.678640e+003, 1.166979e-002
2.680569e+003, 1.180409e-002
2.682497e+003, 1.187508e-002
2.684426e+003, 1.193890e-002
2.686354e+003, 1.191395e-002
2.688282e+003, 1.207452e-002
2.690211e+003, 1.211364e-002
2.692139e+003, 1.201518e-002
2.694068e+003, 1.206087e-002
2.695996e+003, 1.217457e-002
2.697925e+003, 1.225773e-002
2.699853e+003, 1.231108e-002
2.701782e+003, 1.244952e-002
2.703710e+003, 1.260330e-002
2.705639e+003, 1.278646e-002
2.707567e+003, 1.296239e-002
2.709496e+003, 1.293950e-002
2.711424e+003, 1.286817e-002
2.713353e+003, 1.288389e-002
2.715281e+003, 1.307872e-002
2.717209e+003, 1.321312e-002
2.719138e+003, 1.302445e-002
2.721066e+003, 1.339438e-002
2.722995e+003, 1.380499e-002
2.724923e+003, 1.391299e-002
2.726852e+003, 1.396498e-002
2.728780e+003, 1.394543e-002
2.730709e+003, 1.389608e-002
2.732637e+003, 1.385799e-002
2.734566e+003, 1.384873e-002
2.736494e+003, 1.395143e-002
2.738423e+003, 1.420882e-002
2.740351e+003, 1.438480e-002
2.742280e+003, 1.450862e-002
2.744208e+003, 1.461909e-002
2.746136e+003, 1.478136e-002
2.748065e+003, 1.506688e-002
2.749993e+003, 1.491129e-002
2.751922e+003, 1.455964e-002
2.753850e+003, 1.469104e-002
2.755779e+003, 1.500060e-002
2.757707e+003, 1.503019e-002
2.759636e+003, 1.504913e-002
2.761564e+003, 1.526696e-002
2.763493e+003, 1.550513e-002
2.765421e+003, 1.539961e-002
2.767350e+003, 1.527171e-002
2.769278e+003, 1.551044e-002
2.771207e+003, 1.572311e-002
2.773135e+003, 1.580770e-002
2.775063e+003, 1.583866e-002
2.776992e+003, 1.609069e-002
2.778920e+003, 1.627145e-002
2.780849e+003, 1.648907e-002
2.782777e+003, 1.648641e-002
2.784706e+003, 1.668616e-002
2.786634e+003, 1.696923e-002
2.788563e+003, 1.727656e-002
2.790491e+003, 1.729322e-002
2.792420e+003, 1.710776e-002
2.794348e+003, 1.723011e-002
2.796277e+003, 1.743028e-002
2.798205e+003, 1.751295e-002
2.800134e+003, 1.757634e-002
2.802062e+003, 1.772487e-002
2.803990e+003, 1.772822e-002
2.805919e+003, 1.802809e-002
2.807847e+003, 1.836619e-002
2.809776e+003, 1.868952e-002
2.811704e+003, 1.885032e-002
2.813633e+003, 1.863788e-002
2.815561e+003, 1.871500e-002
2.817490e+003, 1.927786e-002
2.819418e+003, 1.962830e-002
2.821347e+003, 1.955920e-002
2.823275e+003, 1.968951e-002
2.825204e+003, 2.006080e-002
2.827132e+003, 2.021172e-002
2.829061e+003, 2.039783e-002
2.830989e+003, 2.062015e-002
2.832917e+003, 2.065112e-002
2.834846e+003, 2.056443e-002
2.836774e+003, 2.072698e-002
2.838703e+003, 2.107649e-002
2.840631e+003, 2.142147e-002
2.842560e+003, 2.195145e-002
2.844488e+003, 2.252541e-002
2.846417e+003, 2.243276e-002
2.848345e+003, 2.208131e-002
2.850274e+003, 2.206399e-002
2.852202e+003, 2.256341e-002
2.854131e+003, 2.310394e-002
2.856059e+003, 2.359121e-002
2.857988e+003, 2.388070e-002
2.859916e+003, 2.399151e-002
2.861844e+003, 2.409790e-002
2.863773e+003, 2.432713e-002
2.865701e+003, 2.457621e-002
2.867630e+003, 2.476405e-002
2.869558e+003, 2.522860e-002
2.871487e+003, 2.540665e-002
2.873415e+003, 2.533853e-002
2.875344e+003, 2.550218e-002
2.877272e+003, 2.595909e-002
2.879201e+003, 2.640201e-002
2.881129e+003, 2.669450e-002
2.883058e+003, 2.687011e-002
2.884986e+003, 2.735374e-002
2.886915e+003, 2.737968e-002
2.888843e+003, 2.729567e-002
2.890771e+003, 2.779689e-002
2.892700e+003, 2.822697e-002
2.894628e+003, 2.859213e-002
2.896557e+003, 2.860856e-002
2.898485e+003, 2.888712e-002
2.900414e+003, 2.941140e-002
2.902342e+003, 2.990443e-002
2.904271e+003, 3.045221e-002
2.906199e+003, 3.060632e-002
2.908128e+003, 3.081375e-002
2.910056e+003, 3.116109e-002
2.911985e+003, 3.166810e-002
2.913913e+003, 3.185840e-002
2.915842e+003, 3.182165e-002
2.917770e+003, 3.189103e-002
2.919698e+003, 3.219449e-002
2.921627e+003, 3.294529e-002
2.923555e+003, 3.391493e-002
2.925484e+003, 3.416772e-002
2.927412e+003, 3.414544e-002
2.929341e+003, 3.506127e-002
2.931269e+003, 3.601070e-002
2.933198e+003, 3.616429e-002
2.935126e+003, 3.591830e-002
2.937055e+003, 3.601839e-002
2.938983e+003, 3.661777e-002
2.940912e+003, 3.706728e-002
2.942840e+003, 3.752210e-002
2.944769e+003, 3.793472e-002
2.946697e+003, 3.768948e-002
2.948625e+003, 3.794985e-002
2.950554e+003, 3.880191e-002
2.952482e+003, 3.959003e-002
2.954411e+003, 3.976131e-002
2.956339e+003, 3.991419e-002
2.958268e+003, 4.027003e-002
2.960196e+003, 4.068832e-002
2.962125e+003, 4.113939e-002
2.964053e+003, 4.175942e-002
2.965982e+003, 4.173670e-002
2.967910e+003, 4.169125e-002
2.969839e+003, 4.222389e-002
2.971767e+003, 4.293440e-002
2.973696e+003, 4.343724e-002
2.975624e+003, 4.369663e-002
2.977552e+003, 4.405299e-002
2.979481e+003, 4.459819e-002
2.981409e+003, 4.487405e-002
2.983338e+003, 4.526193e-002
2.985266e+003, 4.572067e-002
2.987195e+003, 4.605857e-002
2.989123e+003, 4.667709e-002
2.991052e+003, 4.760953e-002
2.992980e+003, 4.822766e-002
2.994909e+003, 4.876905e-002
2.996837e+003, 4.958624e-002
2.998766e+003, 5.001647e-002
3.000694e+003, 5.005681e-002
3.002623e+003, 5.068474e-002
3.004551e+003, 5.150921e-002
3.006479e+003, 5.182076e-002
3.008408e+003, 5.229261e-002
3.010336e+003, 5.315590e-002
3.012265e+003, 5.346860e-002
3.014193e+003, 5.334204e-002
3.016122e+003, 5.360368e-002
3.018050e+003, 5.457848e-002
3.019979e+003, 5.609979e-002
3.021907e+003, 5.702702e-002
3.023836e+003, 5.747004e-002
3.025764e+003, 5.770417e-002
3.027693e+003, 5.801040e-002
3.029621e+003, 5.871246e-002
3.031550e+003, 5.945563e-002
3.033478e+003, 5.978164e-002
3.035406e+003, 6.029557e-002
3.037335e+003, 6.085104e-002
3.039263e+003, 6.184347e-002
3.041192e+003, 6.254596e-002
3.043120e+003, 6.281340e-002
3.045049e+003, 6.310233e-002
3.046977e+003, 6.365398e-002
3.048906e+003, 6.396326e-002
3.050834e+003, 6.454681e-002
3.052763e+003, 6.497405e-002
3.054691e+003, 6.533086e-002
3.056620e+003, 6.524439e-002
3.058548e+003, 6.535403e-002
3.060477e+003, 6.596622e-002
3.062405e+003, 6.635155e-002
3.064333e+003, 6.653969e-002
3.066262e+003, 6.680848e-002
3.068190e+003, 6.719029e-002
3.070119e+003, 6.780227e-002
3.072047e+003, 6.817628e-002
3.073976e+003, 6.839214e-002
3.075904e+003, 6.857047e-002
3.077833e+003, 6.873320e-002
3.079761e+003, 6.893949e-002
3.081690e+003, 6.925515e-002
3.083618e+003, 6.935211e-002
3.085547e+003, 6.919701e-002
3.087475e+003, 6.937775e-002
3.089404e+003, 6.950565e-002
3.091332e+003, 6.970972e-002
3.093260e+003, 7.062967e-002
3.095189e+003, 7.072476e-002
3.097117e+003, 7.115592e-002
3.099046e+003, 7.180167e-002
3.100974e+003, 7.249930e-002
3.102903e+003, 7.249538e-002
3.104831e+003, 7.241207e-002
3.106760e+003, 7.321718e-002
3.108688e+003, 7.381649e-002
3.110617e+003, 7.403793e-002
3.112545e+003, 7.416384e-002
3.114474e+003, 7.462817e-002
3.116402e+003, 7.484628e-002
3.118331e+003, 7.517649e-002
3.120259e+003, 7.577186e-002
3.122188e+003, 7.630158e-002
3.124116e+003, 7.670622e-002
3.126044e+003, 7.743154e-002
3.127973e+003, 7.774579e-002
3.129901e+003, 7.789533e-002
3.131830e+003, 7.832232e-002
3.133758e+003, 7.864989e-002
3.135687e+003, 7.863614e-002
3.137615e+003, 7.921254e-002
3.139544e+003, 7.967685e-002
3.141472e+003, 7.991312e-002
3.143401e+003, 8.069029e-002
3.145329e+003, 8.081326e-002
3.147258e+003, 8.091319e-002
3.149186e+003, 8.174162e-002
3.151115e+003, 8.234380e-002
3.153043e+003, 8.272435e-002
3.154971e+003, 8.293059e-002
3.156900e+003, 8.330272e-002
3.158828e+003, 8.339426e-002
3.160757e+003, 8.324335e-002
3.162685e+003, 8.343727e-002
3.164614e+003, 8.404987e-002
3.166542e+003, 8.473288e-002
3.168471e+003, 8.493597e-002
3.170399e+003, 8.541849e-002
3.172328e+003, 8.584186e-002
3.174256e+003, 8.590695e-002
3.176185e+003, 8.606728e-002
3.178113e+003, 8.650936e-002
3.180042e+003, 8.719652e-002
3.181970e+003, 8.764087e-002
3.183898e+003, 8.783318e-002
3.185827e+003, 8.802254e-002
3.187755e+003, 8.865994e-002
3.189684e+003, 8.940100e-002
3.191612e+003, 8.956700e-002
3.193541e+003, 8.938528e-002
3.195469e+003, 8.966259e-002
3.197398e+003, 9.076700e-002
3.199326e+003, 9.134653e-002
3.201255e+003, 9.199747e-002
3.203183e+003, 9.252927e-002
3.205112e+003, 9.287518e-002
3.207040e+003, 9.376214e-002
3.208969e+003, 9.440133e-002
3.210897e+003, 9.456022e-002
3.212825e+003, 9.449347e-002
3.214754e+003, 9.524568e-002
3.216682e+003, 9.596802e-002
3.218611e+003, 9.627647e-002
3.220539e+003, 9.712470e-002
3.222468e+003, 9.839647e-002
3.224396e+003, 9.907044e-002
3.226325e+003, 9.878651e-002
3.228253e+003, 9.840688e-002
3.230182e+003, 9.859616e-002
3.232110e+003, 9.928481e-002
3.234039e+003, 9.966280e-002
3.235967e+003, 9.981184e-002
3.237896e+003, 1.002422e-001
3.239824e+003, 1.007682e-001
3.241752e+003, 1.012467e-001
3.243681e+003, 1.014077e-001
3.245609e+003, 1.013357e-001
3.247538e+003, 1.013542e-001
3.249466e+003, 1.015780e-001
3.251395e+003, 1.019193e-001
3.253323e+003, 1.019055e-001
3.255252e+003, 1.017814e-001
3.257180e+003, 1.013483e-001
3.259109e+003, 1.010314e-001
3.261037e+003, 1.015815e-001
3.262966e+003, 1.020736e-001
3.264894e+003, 1.015799e-001
3.266823e+003, 1.013493e-001
3.268751e+003, 1.018422e-001
3.270679e+003, 1.016742e-001
3.272608e+003, 1.012321e-001
3.274536e+003, 1.012769e-001
3.276465e+003, 1.011849e-001
3.278393e+003, 1.012782e-001
3.280322e+003, 1.017174e-001
3.282250e+003, 1.014701e-001
3.284179e+003, 1.011363e-001
3.286107e+003, 1.012899e-001
3.288036e+003, 1.014797e-001
3.289964e+003, 1.016540e-001
3.291893e+003, 1.017198e-001
3.293821e+003, 1.015052e-001
3.295750e+003, 1.011123e-001
3.297678e+003, 1.009887e-001
3.299606e+003, 1.012930e-001
3.301535e+003, 1.013383e-001
3.303463e+003, 1.010055e-001
3.305392e+003, 1.010987e-001
3.307320e+003, 1.008843e-001
3.309249e+003, 9.971324e-002
3.311177e+003, 9.964618e-002
3.313106e+003, 9.965003e-002
3.315034e+003, 9.946621e-002
3.316963e+003, 9.928840e-002
3.318891e+003, 9.919715e-002
3.320820e+003, 9.817737e-002
3.322748e+003, 9.732516e-002
3.324677e+003, 9.659179e-002
3.326605e+003, 9.622274e-002
3.328533e+003, 9.585039e-002
3.330462e+003, 9.501178e-002
3.332390e+003, 9.392417e-002
3.334319e+003, 9.324236e-002
3.336247e+003, 9.224618e-002
3.338176e+003, 9.106724e-002
3.340104e+003, 9.016509e-002
3.342033e+003, 8.910118e-002
3.343961e+003, 8.783448e-002
3.345890e+003, 8.662924e-002
3.347818e+003, 8.563246e-002
3.349747e+003, 8.433197e-002
3.351675e+003, 8.348156e-002
3.353604e+003, 8.238842e-002
3.355532e+003, 8.131627e-002
3.357460e+003, 8.030892e-002
3.359389e+003, 7.885776e-002
3.361317e+003, 7.723358e-002
3.363246e+003, 7.596781e-002
3.365174e+003, 7.473471e-002
3.367103e+003, 7.379292e-002
3.369031e+003, 7.226065e-002
3.370960e+003, 7.068246e-002
3.372888e+003, 6.909925e-002
3.374817e+003, 6.786427e-002
3.376745e+003, 6.732971e-002
3.378674e+003, 6.588305e-002
3.380602e+003, 6.431084e-002
3.382531e+003, 6.309360e-002
3.384459e+003, 6.140027e-002
3.386387e+003, 6.005190e-002
3.388316e+003, 5.836866e-002
3.390244e+003, 5.699835e-002
3.392173e+003, 5.631905e-002
3.394101e+003, 5.496477e-002
3.396030e+003, 5.304418e-002
3.397958e+003, 5.168934e-002
3.399887e+003, 5.072684e-002
3.401815e+003, 4.952015e-002
3.403744e+003, 4.822953e-002
3.405672e+003, 4.727165e-002
3.407601e+003, 4.669185e-002
3.409529e+003, 4.529115e-002
3.411458e+003, 4.360848e-002
3.413386e+003, 4.227292e-002
3.415314e+003, 4.128354e-002
3.417243e+003, 4.108875e-002
3.419171e+003, 4.045236e-002
3.421100e+003, 3.953622e-002
3.423028e+003, 3.850823e-002
3.424957e+003, 3.724763e-002
3.426885e+003, 3.622763e-002
3.428814e+003, 3.522231e-002
3.430742e+003, 3.432342e-002
3.432671e+003, 3.419579e-002
3.434599e+003, 3.358385e-002
3.436528e+003, 3.236467e-002
3.438456e+003, 3.166273e-002
3.440385e+003, 3.135400e-002
3.442313e+003, 3.063838e-002
3.444241e+003, 2.993731e-002
3.446170e+003, 2.922545e-002
3.448098e+003, 2.913467e-002
3.450027e+003, 2.905838e-002
3.451955e+003, 2.830894e-002
3.453884e+003, 2.709511e-002
3.455812e+003, 2.637283e-002
3.457741e+003, 2.561778e-002
3.459669e+003, 2.507826e-002
3.461598e+003, 2.509369e-002
3.463526e+003, 2.471350e-002
3.465455e+003, 2.387395e-002
3.467383e+003, 2.299289e-002
3.469312e+003, 2.210915e-002
3.471240e+003, 2.133599e-002
3.473168e+003, 2.108789e-002
3.475097e+003, 2.026993e-002
3.477025e+003, 1.972567e-002
3.478954e+003, 1.948326e-002
3.480882e+003, 1.986733e-002
3.482811e+003, 1.930744e-002
3.484739e+003, 1.822739e-002
3.486668e+003, 1.816435e-002
3.488596e+003, 1.807349e-002
3.490525e+003, 1.767280e-002
3.492453e+003, 1.716512e-002
3.494382e+003, 1.669663e-002
3.496310e+003, 1.620727e-002
3.498239e+003, 1.573627e-002
3.500167e+003, 1.566451e-002
3.502095e+003, 1.563684e-002
3.504024e+003, 1.560986e-002
3.505952e+003, 1.522493e-002
3.507881e+003, 1.442672e-002
3.509809e+003, 1.490838e-002
3.511738e+003, 1.506338e-002
3.513666e+003, 1.440416e-002
3.515595e+003, 1.398228e-002
3.517523e+003, 1.389251e-002
3.519452e+003, 1.363379e-002
3.521380e+003, 1.316124e-002
3.523309e+003, 1.328460e-002
3.525237e+003, 1.332210e-002
3.527166e+003, 1.274920e-002
3.529094e+003, 1.246066e-002
3.531022e+003, 1.154710e-002
3.532951e+003, 1.125345e-002
3.534879e+003, 1.163808e-002
3.536808e+003, 1.200950e-002
3.538736e+003, 1.119257e-002
3.540665e+003, 1.027516e-002
3.542593e+003, 1.081075e-002
3.544522e+003, 1.120195e-002
3.546450e+003, 1.119011e-002
3.548379e+003, 1.157600e-002
3.550307e+003, 1.144344e-002
3.552236e+003, 1.054836e-002
3.554164e+003, 1.003775e-002
3.556093e+003, 1.007835e-002
3.558021e+003, 1.018558e-002
3.559949e+003, 1.007682e-002
3.561878e+003, 9.902395e-003
3.563806e+003, 1.023014e-002
3.565735e+003, 1.023729e-002
3.567663e+003, 9.568115e-003
3.569592e+003, 9.125829e-003
3.571520e+003, 9.014654e-003
3.573449e+003, 8.351520e-003
3.575377e+003, 7.699977e-003
3.577306e+003, 8.138428e-003
3.579234e+003, 8.926796e-003
3.581163e+003, 9.171804e-003
3.583091e+003, 8.642836e-003
3.585020e+003, 8.478552e-003
3.586948e+003, 9.074546e-003
3.588876e+003, 8.991348e-003
3.590805e+003, 8.651643e-003
3.592733e+003, 8.728899e-003
3.594662e+003, 9.174219e-003
3.596590e+003, 9.769798e-003
3.598519e+003, 9.659706e-003
3.600447e+003, 9.563273e-003
3.602376e+003, 9.893344e-003
3.604304e+003, 1.010614e-002
3.606233e+003, 1.003670e-002
3.608161e+003, 9.788269e-003
3.610090e+003, 1.003420e-002
3.612018e+003, 1.008600e-002
3.613947e+003, 1.060648e-002
3.615875e+003, 1.109693e-002
3.617803e+003, 1.045659e-002
3.619732e+003, 9.750182e-003
3.621660e+003, 1.018353e-002
3.623589e+003, 1.124482e-002
3.625517e+003, 1.149904e-002
3.627446e+003, 1.092128e-002
3.629374e+003, 1.021240e-002
3.631303e+003, 1.088468e-002
3.633231e+003, 1.141851e-002
3.635160e+003, 1.157483e-002
3.637088e+003, 1.164113e-002
3.639017e+003, 1.147320e-002
3.640945e+003, 1.060212e-002
3.642874e+003, 9.944616e-003
3.644802e+003, 1.002869e-002
3.646730e+003, 1.033468e-002
3.648659e+003, 1.009602e-002
3.650587e+003, 9.503487e-003
3.652516e+003, 9.753797e-003
3.654444e+003, 1.037973e-002
3.656373e+003, 1.059065e-002
3.658301e+003, 1.032103e-002
3.660230e+003, 1.001958e-002
3.662158e+003, 9.295376e-003
3.664087e+003, 9.047465e-003
3.666015e+003, 8.743877e-003
3.667944e+003, 8.659454e-003
3.669872e+003, 9.054008e-003
3.671801e+003, 9.248359e-003
3.673729e+003, 9.104803e-003
3.675657e+003, 8.408333e-003
3.677586e+003, 7.894018e-003
3.679514e+003, 8.242668e-003
3.681443e+003, 8.469843e-003
3.683371e+003, 8.203723e-003
3.685300e+003, 7.518338e-003
3.687228e+003, 6.520937e-003
3.689157e+003, 6.398242e-003
3.691085e+003, 6.905045e-003
3.693014e+003, 7.476701e-003
3.694942e+003, 7.854130e-003
3.696871e+003, 7.808823e-003
3.698799e+003, 7.303576e-003
3.700728e+003, 7.555678e-003
3.702656e+003, 8.138113e-003
3.704584e+003, 8.050026e-003
3.706513e+003, 7.636908e-003
3.708441e+003, 7.071179e-003
3.710370e+003, 7.215456e-003
3.712298e+003, 7.820710e-003
3.714227e+003, 7.794922e-003
3.716155e+003, 7.708095e-003
3.718084e+003, 7.611292e-003
3.720012e+003, 7.539032e-003
3.721941e+003, 7.902715e-003
3.723869e+003, 7.908264e-003
3.725798e+003, 8.022584e-003
3.727726e+003, 8.266394e-003
3.729655e+003, 7.465192e-003
3.731583e+003, 7.080271e-003
3.733511e+003, 7.777303e-003
3.735440e+003, 8.296589e-003
3.737368e+003, 8.409891e-003
3.739297e+003, 8.757712e-003
3.741225e+003, 8.924490e-003
3.743154e+003, 8.793134e-003
3.745082e+003, 8.460956e-003
3.747011e+003, 8.173531e-003
3.748939e+003, 8.387717e-003
3.750868e+003, 8.473594e-003
3.752796e+003, 8.548683e-003
3.754725e+003, 8.377613e-003
3.756653e+003, 7.918038e-003
3.758582e+003, 7.283749e-003
3.760510e+003, 7.608266e-003
3.762438e+003, 7.930309e-003
3.764367e+003, 7.447390e-003
3.766295e+003, 7.394142e-003
3.768224e+003, 8.078088e-003
3.770152e+003, 7.952147e-003
3.772081e+003, 7.491713e-003
3.774009e+003, 7.890138e-003
3.775938e+003, 8.524487e-003
3.777866e+003, 8.184232e-003
3.779795e+003, 7.841417e-003
3.781723e+003, 8.232102e-003
3.783652e+003, 8.173157e-003
3.785580e+003, 8.482794e-003
3.787509e+003, 8.507026e-003
3.789437e+003, 8.344514e-003
3.791365e+003, 8.249269e-003
3.793294e+003, 8.402760e-003
3.795222e+003, 8.563890e-003
3.797151e+003, 8.605788e-003
3.799079e+003, 8.697975e-003
3.801008e+003, 8.370572e-003
3.802936e+003, 8.230576e-003
3.804865e+003, 7.844436e-003
3.806793e+003, 8.425135e-003
3.808722e+003, 9.119187e-003
3.810650e+003, 8.950248e-003
3.812579e+003, 8.584461e-003
3.814507e+003, 8.278067e-003
3.816436e+003, 8.631780e-003
3.818364e+003, 9.190365e-003
3.820292e+003, 9.449328e-003
3.822221e+003, 8.940254e-003
3.824149e+003, 8.410048e-003
3.826078e+003, 7.923305e-003
3.828006e+003, 8.135673e-003
3.829935e+003, 8.164008e-003
3.831863e+003, 8.154219e-003
3.833792e+003, 8.341124e-003
3.835720e+003, 8.494269e-003
3.837649e+003, 7.798943e-003
3.839577e+003, 7.630966e-003
3.841506e+003, 8.053998e-003
3.843434e+003, 8.071743e-003
3.845363e+003, 7.690209e-003
3.847291e+003, 8.318251e-003
3.849219e+003, 1.001547e-002
3.851148e+003, 9.917040e-003
3.853076e+003, 8.861166e-003
3.855005e+003, 8.782265e-003
3.856933e+003, 8.614920e-003
3.858862e+003, 8.592624e-003
3.860790e+003, 8.395331e-003
3.862719e+003, 7.840994e-003
3.864647e+003, 8.096314e-003
3.866576e+003, 8.389276e-003
3.868504e+003, 8.864885e-003
3.870433e+003, 8.937008e-003
3.872361e+003, 8.355947e-003
3.874290e+003, 8.131279e-003
3.876218e+003, 8.211620e-003
3.878146e+003, 8.483671e-003
3.880075e+003, 8.445269e-003
3.882003e+003, 9.067253e-003
3.883932e+003, 9.258103e-003
3.885860e+003, 8.793871e-003
3.887789e+003, 8.413324e-003
3.889717e+003, 9.032493e-003
3.891646e+003, 9.884115e-003
3.893574e+003, 9.254077e-003
3.895503e+003, 8.366262e-003
3.897431e+003, 8.997764e-003
3.899360e+003, 9.197982e-003
3.901288e+003, 8.784106e-003
3.903217e+003, 8.919002e-003
3.905145e+003, 8.766295e-003
3.907073e+003, 8.876320e-003
3.909002e+003, 9.100249e-003
3.910930e+003, 9.432718e-003
3.912859e+003, 9.663985e-003
3.914787e+003, 9.453936e-003
3.916716e+003, 9.388153e-003
3.918644e+003, 9.059780e-003
3.920573e+003, 8.754387e-003
3.922501e+003, 9.410071e-003
3.924430e+003, 9.780094e-003
3.926358e+003, 9.589840e-003
3.928287e+003, 1.002227e-002
3.930215e+003, 9.866242e-003
3.932144e+003, 9.590298e-003
3.934072e+003, 9.511143e-003
3.936000e+003, 9.528284e-003
3.937929e+003, 9.362555e-003
3.939857e+003, 9.187081e-003
3.941786e+003, 9.501801e-003
3.943714e+003, 9.529613e-003
3.945643e+003, 9.992780e-003
3.947571e+003, 1.019454e-002
3.949500e+003, 1.005355e-002
3.951428e+003, 9.200322e-003
3.953357e+003, 8.476841e-003
3.955285e+003, 8.555432e-003
3.957214e+003, 8.931275e-003
3.959142e+003, 9.187553e-003
3.961071e+003, 9.617533e-003
3.962999e+003, 1.010614e-002
3.964927e+003, 9.818806e-003
3.966856e+003, 9.573919e-003
3.968784e+003, 9.633893e-003
3.970713e+003, 9.916202e-003
3.972641e+003, 1.000249e-002
3.974570e+003, 1.039316e-002
3.976498e+003, 1.007668e-002
3.978427e+003, 9.731600e-003
3.980355e+003, 9.990623e-003
3.982284e+003, 9.817018e-003
3.984212e+003, 9.711627e-003
3.986141e+003, 9.992270e-003
3.988069e+003, 1.035750e-002
3.989998e+003, 1.096222e-002
3.991926e+003, 1.064666e-002
3.993854e+003, 1.011174e-002
3.995783e+003, 9.917588e-003
3.997711e+003, 9.844078e-003
3.999640e+003, 9.985763e-003
##END=



