##NAMES=Leucophanite
##RRUFFID=R050004
##IDEAL CHEMISTRY=NaCaBeSi_2_O_6_F
##LOCALITY=Langesundfjord, Norway
##OWNER=RRUFF
##SOURCE=University of Arizona Mineral Museum
##DESCRIPTION=Pale green massive
##STATUS=The identification of this mineral has been confirmed by X-ray diffraction and chemical analysis
##URL=rruff.info/R050004
##MEASURED CHEMISTRY=Ca_1.00_Ca_1.00_Na_2.00_Be_2.00_Si_4.00_O_12_(F_0.96_(OH)_0.04_)_2_
3.991926e+002, 3.735117e-002
4.011211e+002, 4.421633e-002
4.030496e+002, 4.442890e-002
4.049780e+002, 4.848881e-002
4.069065e+002, 5.321662e-002
4.088350e+002, 5.303318e-002
4.107634e+002, 5.163574e-002
4.126919e+002, 5.454353e-002
4.146204e+002, 5.759364e-002
4.165488e+002, 6.068677e-002
4.184773e+002, 6.484622e-002
4.204058e+002, 6.944286e-002
4.223342e+002, 7.344982e-002
4.242627e+002, 7.773370e-002
4.261912e+002, 8.366211e-002
4.281196e+002, 9.124872e-002
4.300481e+002, 9.969444e-002
4.319766e+002, 1.066641e-001
4.339050e+002, 1.159698e-001
4.358335e+002, 1.266781e-001
4.377620e+002, 1.350603e-001
4.396904e+002, 1.421724e-001
4.416189e+002, 1.461791e-001
4.435474e+002, 1.421985e-001
4.454758e+002, 1.334033e-001
4.474043e+002, 1.224726e-001
4.493328e+002, 1.119202e-001
4.512612e+002, 1.044095e-001
4.531897e+002, 9.950323e-002
4.551182e+002, 9.758522e-002
4.570466e+002, 9.856395e-002
4.589751e+002, 1.024312e-001
4.609036e+002, 1.085478e-001
4.628320e+002, 1.151842e-001
4.647605e+002, 1.224825e-001
4.666890e+002, 1.296598e-001
4.686174e+002, 1.340078e-001
4.705459e+002, 1.336465e-001
4.724744e+002, 1.275040e-001
4.744028e+002, 1.175473e-001
4.763313e+002, 1.082249e-001
4.782598e+002, 1.015168e-001
4.801882e+002, 9.580224e-002
4.821167e+002, 8.950950e-002
4.840452e+002, 8.087344e-002
4.859736e+002, 6.953880e-002
4.879021e+002, 5.803882e-002
4.898306e+002, 4.803695e-002
4.917590e+002, 4.169886e-002
4.936875e+002, 3.840936e-002
4.956160e+002, 3.601709e-002
4.975444e+002, 3.388510e-002
4.994729e+002, 3.336234e-002
5.014014e+002, 3.501762e-002
5.033298e+002, 3.880374e-002
5.052583e+002, 4.240399e-002
5.071868e+002, 4.261325e-002
5.091152e+002, 4.023011e-002
5.110437e+002, 3.827325e-002
5.129722e+002, 3.791410e-002
5.149006e+002, 3.874778e-002
5.168291e+002, 4.066122e-002
5.187576e+002, 4.424932e-002
5.206860e+002, 4.945467e-002
5.226145e+002, 5.584180e-002
5.245430e+002, 6.371614e-002
5.264714e+002, 7.329116e-002
5.283999e+002, 8.411008e-002
5.303284e+002, 9.498550e-002
5.322568e+002, 1.045598e-001
5.341853e+002, 1.127020e-001
5.361138e+002, 1.184156e-001
5.380422e+002, 1.205709e-001
5.399707e+002, 1.191053e-001
5.418992e+002, 1.136483e-001
5.438276e+002, 1.050115e-001
5.457561e+002, 9.478825e-002
5.476846e+002, 8.398107e-002
5.496130e+002, 7.316963e-002
5.515415e+002, 6.211503e-002
5.534700e+002, 5.200021e-002
5.553984e+002, 4.390526e-002
5.573269e+002, 3.827370e-002
5.592554e+002, 3.494446e-002
5.611838e+002, 3.257488e-002
5.631123e+002, 3.179254e-002
5.650408e+002, 3.277620e-002
5.669692e+002, 3.412417e-002
5.688977e+002, 3.438222e-002
5.708262e+002, 3.422896e-002
5.727546e+002, 3.591160e-002
5.746831e+002, 3.803532e-002
5.766116e+002, 3.559833e-002
5.785400e+002, 2.876917e-002
5.804685e+002, 2.218559e-002
5.823970e+002, 1.844197e-002
5.843254e+002, 1.644760e-002
5.862539e+002, 1.529374e-002
5.881824e+002, 1.518234e-002
5.901108e+002, 1.538401e-002
5.920393e+002, 1.546188e-002
5.939678e+002, 1.561823e-002
5.958962e+002, 1.617111e-002
5.978247e+002, 1.676208e-002
5.997532e+002, 1.698718e-002
6.016816e+002, 1.705832e-002
6.036101e+002, 1.766835e-002
6.055386e+002, 1.831092e-002
6.074670e+002, 1.909933e-002
6.093955e+002, 2.001509e-002
6.113240e+002, 2.115081e-002
6.132524e+002, 2.231523e-002
6.151809e+002, 2.348910e-002
6.171094e+002, 2.484134e-002
6.190378e+002, 2.678047e-002
6.209663e+002, 2.886757e-002
6.228948e+002, 3.083959e-002
6.248232e+002, 3.321983e-002
6.267517e+002, 3.639471e-002
6.286802e+002, 4.003644e-002
6.306086e+002, 4.404280e-002
6.325371e+002, 4.813762e-002
6.344656e+002, 5.229425e-002
6.363940e+002, 5.666516e-002
6.383225e+002, 6.060100e-002
6.402510e+002, 6.307027e-002
6.421794e+002, 6.386390e-002
6.441079e+002, 6.269941e-002
6.460364e+002, 6.007420e-002
6.479648e+002, 5.742593e-002
6.498933e+002, 5.627008e-002
6.518218e+002, 5.695745e-002
6.537502e+002, 5.908104e-002
6.556787e+002, 6.260037e-002
6.576072e+002, 6.708051e-002
6.595356e+002, 7.222599e-002
6.614641e+002, 7.824304e-002
6.633926e+002, 8.484869e-002
6.653210e+002, 9.142568e-002
6.672495e+002, 9.832911e-002
6.691780e+002, 1.052332e-001
6.711064e+002, 1.119372e-001
6.730349e+002, 1.180212e-001
6.749634e+002, 1.233997e-001
6.768918e+002, 1.276041e-001
6.788203e+002, 1.292694e-001
6.807488e+002, 1.274152e-001
6.826772e+002, 1.227019e-001
6.846057e+002, 1.164622e-001
6.865342e+002, 1.104769e-001
6.884626e+002, 1.055405e-001
6.903911e+002, 1.019227e-001
6.923196e+002, 9.912809e-002
6.942480e+002, 9.632400e-002
6.961765e+002, 9.264728e-002
6.981050e+002, 8.811462e-002
7.000334e+002, 8.430433e-002
7.019619e+002, 8.165829e-002
7.038904e+002, 8.093793e-002
7.058188e+002, 8.289415e-002
7.077473e+002, 8.681655e-002
7.096758e+002, 9.195071e-002
7.116042e+002, 9.693564e-002
7.135327e+002, 1.012829e-001
7.154612e+002, 1.045979e-001
7.173896e+002, 1.063182e-001
7.193181e+002, 1.062136e-001
7.212466e+002, 1.042896e-001
7.231750e+002, 1.012719e-001
7.251035e+002, 9.760776e-002
7.270320e+002, 9.384199e-002
7.289604e+002, 9.059911e-002
7.308889e+002, 8.811842e-002
7.328174e+002, 8.666334e-002
7.347458e+002, 8.612566e-002
7.366743e+002, 8.647465e-002
7.386028e+002, 8.747328e-002
7.405313e+002, 8.897294e-002
7.424597e+002, 9.135628e-002
7.443882e+002, 9.375433e-002
7.463167e+002, 9.625946e-002
7.482451e+002, 9.808708e-002
7.501736e+002, 9.802489e-002
7.521021e+002, 9.610315e-002
7.540305e+002, 9.308670e-002
7.559590e+002, 8.980770e-002
7.578875e+002, 8.709277e-002
7.598159e+002, 8.595802e-002
7.617444e+002, 8.647024e-002
7.636729e+002, 8.786105e-002
7.656013e+002, 9.020048e-002
7.675298e+002, 9.378562e-002
7.694583e+002, 9.812889e-002
7.713867e+002, 1.027324e-001
7.733152e+002, 1.073839e-001
7.752437e+002, 1.118567e-001
7.771721e+002, 1.154570e-001
7.791006e+002, 1.183291e-001
7.810291e+002, 1.195501e-001
7.829575e+002, 1.174148e-001
7.848860e+002, 1.119696e-001
7.868145e+002, 1.049604e-001
7.887429e+002, 9.755829e-002
7.906714e+002, 9.027512e-002
7.925999e+002, 8.430082e-002
7.945283e+002, 8.040605e-002
7.964568e+002, 7.857536e-002
7.983853e+002, 7.861227e-002
8.003137e+002, 7.986593e-002
8.022422e+002, 8.103088e-002
8.041707e+002, 8.107778e-002
8.060991e+002, 8.005533e-002
8.080276e+002, 7.843711e-002
8.099561e+002, 7.672508e-002
8.118845e+002, 7.513162e-002
8.138130e+002, 7.331698e-002
8.157415e+002, 7.075487e-002
8.176699e+002, 6.707135e-002
8.195984e+002, 6.207341e-002
8.215269e+002, 5.640827e-002
8.234553e+002, 5.080723e-002
8.253838e+002, 4.612237e-002
8.273123e+002, 4.258119e-002
8.292407e+002, 3.970218e-002
8.311692e+002, 3.798782e-002
8.330977e+002, 3.708233e-002
8.350261e+002, 3.665644e-002
8.369546e+002, 3.707261e-002
8.388831e+002, 3.793090e-002
8.408115e+002, 3.904461e-002
8.427400e+002, 4.058780e-002
8.446685e+002, 4.298317e-002
8.465969e+002, 4.566450e-002
8.485254e+002, 4.870462e-002
8.504539e+002, 5.198022e-002
8.523823e+002, 5.519008e-002
8.543108e+002, 5.849678e-002
8.562393e+002, 6.194444e-002
8.581677e+002, 6.587786e-002
8.600962e+002, 7.031219e-002
8.620247e+002, 7.568661e-002
8.639531e+002, 8.210019e-002
8.658816e+002, 8.894352e-002
8.678101e+002, 9.652555e-002
8.697385e+002, 1.048328e-001
8.716670e+002, 1.131951e-001
8.735955e+002, 1.209112e-001
8.755239e+002, 1.278358e-001
8.774524e+002, 1.332920e-001
8.793809e+002, 1.363942e-001
8.813093e+002, 1.361982e-001
8.832378e+002, 1.324450e-001
8.851663e+002, 1.255064e-001
8.870947e+002, 1.163030e-001
8.890232e+002, 1.067764e-001
8.909517e+002, 9.877120e-002
8.928801e+002, 9.332061e-002
8.948085e+002, 9.118194e-002
8.967370e+002, 9.228366e-002
8.986655e+002, 9.640708e-002
9.005939e+002, 1.031950e-001
9.025224e+002, 1.116015e-001
9.044509e+002, 1.211854e-001
9.063793e+002, 1.318150e-001
9.083078e+002, 1.429068e-001
9.102363e+002, 1.535975e-001
9.121647e+002, 1.634469e-001
9.140932e+002, 1.718948e-001
9.160217e+002, 1.790098e-001
9.179501e+002, 1.852546e-001
9.198786e+002, 1.905991e-001
9.218071e+002, 1.946024e-001
9.237355e+002, 1.968856e-001
9.256640e+002, 1.972943e-001
9.275925e+002, 1.952039e-001
9.295209e+002, 1.904779e-001
9.314494e+002, 1.836245e-001
9.333779e+002, 1.751859e-001
9.353063e+002, 1.665437e-001
9.372348e+002, 1.594783e-001
9.391633e+002, 1.556199e-001
9.410917e+002, 1.550554e-001
9.430202e+002, 1.561472e-001
9.449487e+002, 1.567259e-001
9.468771e+002, 1.552636e-001
9.488056e+002, 1.516259e-001
9.507341e+002, 1.472733e-001
9.526625e+002, 1.438886e-001
9.545910e+002, 1.424771e-001
9.565195e+002, 1.429463e-001
9.584479e+002, 1.446759e-001
9.603764e+002, 1.474961e-001
9.623049e+002, 1.514872e-001
9.642333e+002, 1.563063e-001
9.661618e+002, 1.605878e-001
9.680903e+002, 1.638573e-001
9.700187e+002, 1.652226e-001
9.719472e+002, 1.644747e-001
9.738757e+002, 1.620481e-001
9.758041e+002, 1.588626e-001
9.777326e+002, 1.554282e-001
9.796611e+002, 1.518859e-001
9.815895e+002, 1.488555e-001
9.835180e+002, 1.468692e-001
9.854465e+002, 1.460216e-001
9.873749e+002, 1.458018e-001
9.893034e+002, 1.457307e-001
9.912319e+002, 1.446870e-001
9.931603e+002, 1.418311e-001
9.950888e+002, 1.372440e-001
9.970173e+002, 1.315317e-001
9.989457e+002, 1.253573e-001
1.000874e+003, 1.192349e-001
1.002803e+003, 1.137065e-001
1.004731e+003, 1.088822e-001
1.006660e+003, 1.048702e-001
1.008588e+003, 1.014483e-001
1.010517e+003, 9.834620e-002
1.012445e+003, 9.573172e-002
1.014373e+003, 9.349515e-002
1.016302e+003, 9.128706e-002
1.018230e+003, 8.891345e-002
1.020159e+003, 8.684868e-002
1.022087e+003, 8.523276e-002
1.024016e+003, 8.405495e-002
1.025944e+003, 8.338337e-002
1.027873e+003, 8.288837e-002
1.029801e+003, 8.134260e-002
1.031730e+003, 7.783211e-002
1.033658e+003, 7.332364e-002
1.035587e+003, 6.847469e-002
1.037515e+003, 6.408782e-002
1.039444e+003, 6.081303e-002
1.041372e+003, 5.835328e-002
1.043301e+003, 5.638104e-002
1.045229e+003, 5.501840e-002
1.047157e+003, 5.420422e-002
1.049086e+003, 5.369475e-002
1.051014e+003, 5.373423e-002
1.052943e+003, 5.471593e-002
1.054871e+003, 5.629163e-002
1.056800e+003, 5.838152e-002
1.058728e+003, 6.156956e-002
1.060657e+003, 6.584167e-002
1.062585e+003, 7.102898e-002
1.064514e+003, 7.696404e-002
1.066442e+003, 8.335190e-002
1.068371e+003, 9.002011e-002
1.070299e+003, 9.604076e-002
1.072228e+003, 9.994129e-002
1.074156e+003, 1.010736e-001
1.076084e+003, 9.969724e-002
1.078013e+003, 9.603413e-002
1.079941e+003, 9.117091e-002
1.081870e+003, 8.598085e-002
1.083798e+003, 8.087635e-002
1.085727e+003, 7.632570e-002
1.087655e+003, 7.222924e-002
1.089584e+003, 6.860784e-002
1.091512e+003, 6.522389e-002
1.093441e+003, 6.187224e-002
1.095369e+003, 5.849501e-002
1.097298e+003, 5.505321e-002
1.099226e+003, 5.142530e-002
1.101155e+003, 4.765761e-002
1.103083e+003, 4.408616e-002
1.105011e+003, 4.066749e-002
1.106940e+003, 3.725288e-002
1.108868e+003, 3.390693e-002
1.110797e+003, 3.055097e-002
1.112725e+003, 2.744766e-002
1.114654e+003, 2.475350e-002
1.116582e+003, 2.240551e-002
1.118511e+003, 2.047474e-002
1.120439e+003, 1.900959e-002
1.122368e+003, 1.787801e-002
1.124296e+003, 1.719328e-002
1.126225e+003, 1.689864e-002
1.128153e+003, 1.681491e-002
1.130082e+003, 1.684801e-002
1.132010e+003, 1.631015e-002
1.133938e+003, 1.518403e-002
1.135867e+003, 1.408203e-002
1.137795e+003, 1.297520e-002
1.139724e+003, 1.187772e-002
1.141652e+003, 1.089319e-002
1.143581e+003, 1.012341e-002
1.145509e+003, 9.396952e-003
1.147438e+003, 8.606768e-003
1.149366e+003, 8.264394e-003
1.151295e+003, 8.036336e-003
1.153223e+003, 7.508920e-003
1.155152e+003, 7.086272e-003
1.157080e+003, 6.769967e-003
1.159009e+003, 6.477707e-003
1.160937e+003, 6.287382e-003
1.162865e+003, 6.079282e-003
1.164794e+003, 5.808584e-003
1.166722e+003, 5.545816e-003
1.168651e+003, 5.239271e-003
1.170579e+003, 4.935457e-003
1.172508e+003, 4.766944e-003
1.174436e+003, 4.773543e-003
1.176365e+003, 4.733706e-003
1.178293e+003, 4.715879e-003
1.180222e+003, 4.652637e-003
1.182150e+003, 4.493387e-003
1.184079e+003, 4.270642e-003
1.186007e+003, 4.291768e-003
1.187936e+003, 4.337486e-003
1.189864e+003, 4.087567e-003
1.191792e+003, 3.956073e-003
1.193721e+003, 3.810326e-003
1.195649e+003, 3.559568e-003
1.197578e+003, 3.664761e-003
1.199506e+003, 3.594223e-003
1.201435e+003, 3.325389e-003
1.203363e+003, 3.129935e-003
1.205292e+003, 2.991307e-003
1.207220e+003, 3.008144e-003
1.209149e+003, 3.161963e-003
1.211077e+003, 3.211753e-003
1.213006e+003, 3.123654e-003
1.214934e+003, 3.257664e-003
1.216863e+003, 3.211718e-003
1.218791e+003, 3.145339e-003
1.220719e+003, 3.118451e-003
1.222648e+003, 3.076556e-003
1.224576e+003, 2.824758e-003
1.226505e+003, 2.726239e-003
1.228433e+003, 2.741732e-003
1.230362e+003, 2.705199e-003
1.232290e+003, 2.670148e-003
1.234219e+003, 2.724518e-003
1.236147e+003, 2.772319e-003
1.238076e+003, 2.843963e-003
1.240004e+003, 2.714881e-003
1.241933e+003, 2.530969e-003
1.243861e+003, 2.360043e-003
1.245790e+003, 2.321902e-003
1.247718e+003, 2.412531e-003
1.249646e+003, 2.539079e-003
1.251575e+003, 2.361787e-003
1.253503e+003, 2.096113e-003
1.255432e+003, 2.025091e-003
1.257360e+003, 2.030485e-003
1.259289e+003, 1.934997e-003
1.261217e+003, 1.940276e-003
1.263146e+003, 1.894069e-003
1.265074e+003, 1.760236e-003
1.267003e+003, 1.672347e-003
1.268931e+003, 1.683541e-003
1.270860e+003, 1.768306e-003
1.272788e+003, 1.739062e-003
1.274717e+003, 1.657434e-003
1.276645e+003, 1.673613e-003
1.278573e+003, 1.725474e-003
1.280502e+003, 1.730087e-003
1.282430e+003, 1.805708e-003
1.284359e+003, 1.658435e-003
1.286287e+003, 1.533610e-003
1.288216e+003, 1.513190e-003
1.290144e+003, 1.539030e-003
1.292073e+003, 1.565922e-003
1.294001e+003, 1.517653e-003
1.295930e+003, 1.596394e-003
1.297858e+003, 1.608108e-003
1.299787e+003, 1.616261e-003
1.301715e+003, 1.624481e-003
1.303644e+003, 1.507200e-003
1.305572e+003, 1.574748e-003
1.307500e+003, 1.832523e-003
1.309429e+003, 1.856100e-003
1.311357e+003, 1.681633e-003
1.313286e+003, 1.629252e-003
1.315214e+003, 1.679468e-003
1.317143e+003, 1.582989e-003
1.319071e+003, 1.325412e-003
1.321000e+003, 1.372804e-003
1.322928e+003, 1.712655e-003
1.324857e+003, 1.774515e-003
1.326785e+003, 1.654570e-003
1.328714e+003, 1.432691e-003
1.330642e+003, 1.416567e-003
1.332571e+003, 1.525273e-003
1.334499e+003, 1.727941e-003
1.336427e+003, 1.691250e-003
1.338356e+003, 1.501771e-003
1.340284e+003, 1.492754e-003
1.342213e+003, 1.728642e-003
1.344141e+003, 1.876515e-003
1.346070e+003, 1.568376e-003
1.347998e+003, 1.488237e-003
1.349927e+003, 1.933931e-003
1.351855e+003, 2.177903e-003
1.353784e+003, 2.044224e-003
1.355712e+003, 1.983593e-003
1.357641e+003, 2.120423e-003
1.359569e+003, 2.254735e-003
1.361498e+003, 2.294428e-003
1.363426e+003, 2.394558e-003
1.365354e+003, 2.494952e-003
1.367283e+003, 2.387118e-003
1.369211e+003, 2.352417e-003
1.371140e+003, 2.408374e-003
1.373068e+003, 2.437585e-003
1.374997e+003, 2.589752e-003
1.376925e+003, 2.733631e-003
1.378854e+003, 2.754508e-003
1.380782e+003, 2.676727e-003
1.382711e+003, 2.617938e-003
1.384639e+003, 2.808444e-003
1.386568e+003, 2.862775e-003
1.388496e+003, 3.005781e-003
1.390424e+003, 3.202137e-003
1.392353e+003, 3.228398e-003
1.394281e+003, 3.154754e-003
1.396210e+003, 3.299203e-003
1.398138e+003, 3.406526e-003
1.400067e+003, 3.385062e-003
1.401995e+003, 3.424458e-003
1.403924e+003, 3.643465e-003
1.405852e+003, 3.717049e-003
1.407781e+003, 3.697189e-003
1.409709e+003, 3.572304e-003
1.411638e+003, 3.558294e-003
1.413566e+003, 3.589803e-003
1.415495e+003, 3.594141e-003
1.417423e+003, 3.543363e-003
1.419351e+003, 3.481800e-003
1.421280e+003, 3.532377e-003
1.423208e+003, 3.700690e-003
1.425137e+003, 3.721848e-003
1.427065e+003, 3.593612e-003
1.428994e+003, 3.610949e-003
1.430922e+003, 3.655109e-003
1.432851e+003, 3.686880e-003
1.434779e+003, 3.789122e-003
1.436708e+003, 3.928169e-003
1.438636e+003, 3.851092e-003
1.440565e+003, 3.848221e-003
1.442493e+003, 3.979477e-003
1.444422e+003, 3.926029e-003
1.446350e+003, 3.797527e-003
1.448278e+003, 3.899539e-003
1.450207e+003, 4.105798e-003
1.452135e+003, 4.188192e-003
1.454064e+003, 4.007613e-003
1.455992e+003, 3.833267e-003
1.457921e+003, 3.899748e-003
1.459849e+003, 4.187128e-003
1.461778e+003, 4.324672e-003
1.463706e+003, 4.193667e-003
1.465635e+003, 4.051177e-003
1.467563e+003, 4.343403e-003
1.469492e+003, 4.610896e-003
1.471420e+003, 4.413820e-003
1.473349e+003, 4.131583e-003
1.475277e+003, 4.063951e-003
1.477205e+003, 3.975807e-003
1.479134e+003, 3.980469e-003
1.481062e+003, 4.034381e-003
1.482991e+003, 3.950265e-003
1.484919e+003, 3.869428e-003
1.486848e+003, 4.044299e-003
1.488776e+003, 4.152188e-003
1.490705e+003, 4.220399e-003
1.492633e+003, 4.438673e-003
1.494562e+003, 4.455418e-003
1.496490e+003, 4.400544e-003
1.498419e+003, 4.358560e-003
1.500347e+003, 4.334078e-003
1.502276e+003, 4.308941e-003
1.504204e+003, 4.291005e-003
1.506132e+003, 4.227374e-003
1.508061e+003, 4.244157e-003
1.509989e+003, 4.165752e-003
1.511918e+003, 3.956951e-003
1.513846e+003, 3.934318e-003
1.515775e+003, 3.836402e-003
1.517703e+003, 3.602755e-003
1.519632e+003, 3.860524e-003
1.521560e+003, 4.022281e-003
1.523489e+003, 4.014724e-003
1.525417e+003, 3.992472e-003
1.527346e+003, 4.026849e-003
1.529274e+003, 4.023575e-003
1.531203e+003, 4.024695e-003
1.533131e+003, 4.025500e-003
1.535059e+003, 4.010635e-003
1.536988e+003, 3.913907e-003
1.538916e+003, 3.733596e-003
1.540845e+003, 3.628453e-003
1.542773e+003, 3.744362e-003
1.544702e+003, 4.014802e-003
1.546630e+003, 4.119806e-003
1.548559e+003, 4.174426e-003
1.550487e+003, 4.287951e-003
1.552416e+003, 4.299853e-003
1.554344e+003, 4.130090e-003
1.556273e+003, 4.032933e-003
1.558201e+003, 4.228836e-003
1.560130e+003, 4.388045e-003
1.562058e+003, 4.373413e-003
1.563986e+003, 4.312851e-003
1.565915e+003, 4.293616e-003
1.567843e+003, 4.433168e-003
1.569772e+003, 4.371379e-003
1.571700e+003, 4.274323e-003
1.573629e+003, 4.310489e-003
1.575557e+003, 4.157205e-003
1.577486e+003, 4.178958e-003
1.579414e+003, 4.488145e-003
1.581343e+003, 4.684464e-003
1.583271e+003, 4.713280e-003
1.585200e+003, 4.667956e-003
1.587128e+003, 4.652357e-003
1.589057e+003, 4.598759e-003
1.590985e+003, 4.522682e-003
1.592913e+003, 4.429126e-003
1.594842e+003, 4.470779e-003
1.596770e+003, 4.306627e-003
1.598699e+003, 4.088446e-003
1.600627e+003, 4.227921e-003
1.602556e+003, 4.342095e-003
1.604484e+003, 4.447642e-003
1.606413e+003, 4.415452e-003
1.608341e+003, 4.247549e-003
1.610270e+003, 4.280732e-003
1.612198e+003, 4.372958e-003
1.614127e+003, 4.425399e-003
1.616055e+003, 4.385340e-003
1.617984e+003, 4.339973e-003
1.619912e+003, 4.198533e-003
1.621840e+003, 4.038014e-003
1.623769e+003, 3.977948e-003
1.625697e+003, 4.143661e-003
1.627626e+003, 4.417793e-003
1.629554e+003, 4.476177e-003
1.631483e+003, 4.367315e-003
1.633411e+003, 4.019262e-003
1.635340e+003, 3.934617e-003
1.637268e+003, 4.068361e-003
1.639197e+003, 4.134383e-003
1.641125e+003, 4.069137e-003
1.643054e+003, 3.937142e-003
1.644982e+003, 3.929096e-003
1.646911e+003, 3.919349e-003
1.648839e+003, 4.016818e-003
1.650767e+003, 4.053786e-003
1.652696e+003, 3.990510e-003
1.654624e+003, 3.945927e-003
1.656553e+003, 3.993664e-003
1.658481e+003, 4.052682e-003
1.660410e+003, 4.127203e-003
1.662338e+003, 4.290667e-003
1.664267e+003, 4.346979e-003
1.666195e+003, 4.169531e-003
1.668124e+003, 3.891908e-003
1.670052e+003, 3.913772e-003
1.671981e+003, 3.982217e-003
1.673909e+003, 4.124817e-003
1.675838e+003, 4.126644e-003
1.677766e+003, 4.059047e-003
1.679694e+003, 4.100530e-003
1.681623e+003, 3.935264e-003
1.683551e+003, 3.644691e-003
1.685480e+003, 3.730436e-003
1.687408e+003, 3.907987e-003
1.689337e+003, 3.929619e-003
1.691265e+003, 4.024723e-003
1.693194e+003, 4.051066e-003
1.695122e+003, 3.633680e-003
1.697051e+003, 3.362896e-003
1.698979e+003, 3.436356e-003
1.700908e+003, 3.290729e-003
1.702836e+003, 3.271418e-003
1.704765e+003, 3.206659e-003
1.706693e+003, 3.060326e-003
1.708621e+003, 3.107848e-003
1.710550e+003, 3.080853e-003
1.712478e+003, 2.952441e-003
1.714407e+003, 3.042835e-003
1.716335e+003, 3.085663e-003
1.718264e+003, 3.149720e-003
1.720192e+003, 3.336216e-003
1.722121e+003, 3.429623e-003
1.724049e+003, 3.451448e-003
1.725978e+003, 3.260768e-003
1.727906e+003, 3.058619e-003
1.729835e+003, 3.119131e-003
1.731763e+003, 3.169798e-003
1.733692e+003, 3.210623e-003
1.735620e+003, 3.142885e-003
1.737548e+003, 2.927440e-003
1.739477e+003, 2.667869e-003
1.741405e+003, 2.460838e-003
1.743334e+003, 2.344568e-003
1.745262e+003, 2.434784e-003
1.747191e+003, 2.721350e-003
1.749119e+003, 2.889587e-003
1.751048e+003, 2.865653e-003
1.752976e+003, 2.795102e-003
1.754905e+003, 2.812108e-003
1.756833e+003, 2.940173e-003
1.758762e+003, 3.071109e-003
1.760690e+003, 2.842027e-003
1.762619e+003, 2.699126e-003
1.764547e+003, 2.946615e-003
1.766475e+003, 3.029252e-003
1.768404e+003, 2.954020e-003
1.770332e+003, 3.058227e-003
1.772261e+003, 3.112481e-003
1.774189e+003, 3.028963e-003
1.776118e+003, 2.925936e-003
1.778046e+003, 2.854708e-003
1.779975e+003, 2.867712e-003
1.781903e+003, 2.890145e-003
1.783832e+003, 3.195844e-003
1.785760e+003, 3.111269e-003
1.787689e+003, 2.908404e-003
1.789617e+003, 2.855998e-003
1.791546e+003, 2.712826e-003
1.793474e+003, 2.533619e-003
1.795402e+003, 2.166580e-003
1.797331e+003, 1.952285e-003
1.799259e+003, 2.128179e-003
1.801188e+003, 2.246364e-003
1.803116e+003, 2.151085e-003
1.805045e+003, 1.990344e-003
1.806973e+003, 1.963263e-003
1.808902e+003, 1.951505e-003
1.810830e+003, 1.950963e-003
1.812759e+003, 1.713722e-003
1.814687e+003, 1.442467e-003
1.816616e+003, 1.610115e-003
1.818544e+003, 1.847590e-003
1.820473e+003, 1.965776e-003
1.822401e+003, 1.911896e-003
1.824329e+003, 1.613470e-003
1.826258e+003, 1.676210e-003
1.828186e+003, 1.830921e-003
1.830115e+003, 1.699973e-003
1.832043e+003, 1.729414e-003
1.833972e+003, 1.644997e-003
1.835900e+003, 1.466116e-003
1.837829e+003, 1.157256e-003
1.839757e+003, 1.390053e-003
1.841686e+003, 1.656675e-003
1.843614e+003, 1.617662e-003
1.845543e+003, 1.651313e-003
1.847471e+003, 1.592090e-003
1.849400e+003, 1.693088e-003
1.851328e+003, 1.550440e-003
1.853256e+003, 1.285764e-003
1.855185e+003, 1.770170e-003
1.857113e+003, 1.876914e-003
1.859042e+003, 1.306583e-003
1.860970e+003, 1.461170e-003
1.862899e+003, 1.459906e-003
1.864827e+003, 8.331260e-004
1.866756e+003, 1.334531e-003
1.868684e+003, 1.523370e-003
1.870613e+003, 1.127484e-003
1.872541e+003, 1.048794e-003
1.874470e+003, 1.149315e-003
1.876398e+003, 1.469270e-003
1.878327e+003, 1.609349e-003
1.880255e+003, 1.522726e-003
1.882183e+003, 7.946600e-004
1.884112e+003, 6.998472e-004
1.886040e+003, 8.420679e-004
1.887969e+003, 1.004112e-003
1.889897e+003, 1.278309e-003
1.891826e+003, 1.255953e-003
1.893754e+003, 9.388591e-004
1.895683e+003, 6.533462e-004
1.897611e+003, 8.878245e-004
1.899540e+003, 1.083207e-003
1.901468e+003, 1.153275e-003
1.903397e+003, 1.587737e-003
1.905325e+003, 1.678104e-003
1.907254e+003, 2.094678e-003
1.909182e+003, 1.862384e-003
1.911110e+003, 1.043472e-003
1.913039e+003, 1.497628e-003
1.914967e+003, 1.881598e-003
1.916896e+003, 1.389061e-003
1.918824e+003, 4.291636e-004
1.920753e+003, 3.776109e-004
1.922681e+003, 5.757129e-004
1.924610e+003, 3.256976e-004
1.926538e+003, 3.783471e-004
1.928467e+003, 6.322594e-004
1.930395e+003, 9.874287e-004
1.932324e+003, 3.612423e-004
1.934252e+003, -3.223065e-004
1.936181e+003, 5.916343e-006
1.938109e+003, 3.318572e-004
1.940037e+003, -7.015525e-005
1.941966e+003, -4.951427e-004
1.943894e+003, -8.627429e-004
1.945823e+003, -1.521446e-003
1.947751e+003, -1.445717e-003
1.949680e+003, -1.661892e-003
1.951608e+003, -1.103183e-003
1.953537e+003, -2.385803e-004
1.955465e+003, -1.704152e-004
1.957394e+003, -3.581023e-004
1.959322e+003, -9.561512e-004
1.961251e+003, -4.782535e-004
1.963179e+003, -3.473947e-004
1.965108e+003, -7.636724e-004
1.967036e+003, -2.806177e-003
1.968964e+003, -3.497915e-003
1.970893e+003, -2.805066e-003
1.972821e+003, -2.223978e-003
1.974750e+003, -2.084877e-003
1.976678e+003, -1.965552e-003
1.978607e+003, 2.678379e-005
1.980535e+003, 1.519584e-004
1.982464e+003, 1.880375e-004
1.984392e+003, 8.877699e-005
1.986321e+003, -1.228232e-003
1.988249e+003, -8.769222e-004
1.990178e+003, 3.907896e-004
1.992106e+003, -9.630213e-005
1.994035e+003, -1.176066e-003
1.995963e+003, -8.884184e-004
1.997891e+003, -2.337699e-004
1.999820e+003, -1.261299e-004
2.001748e+003, -3.185486e-004
2.003677e+003, -2.120624e-004
2.005605e+003, 4.733975e-004
2.007534e+003, 8.269247e-004
2.009462e+003, -2.986001e-004
2.011391e+003, 8.010293e-004
2.013319e+003, 1.060160e-003
2.015248e+003, -7.769741e-004
2.017176e+003, -8.275714e-004
2.019105e+003, -3.576715e-004
2.021033e+003, -1.894707e-003
2.022962e+003, -2.206445e-003
2.024890e+003, -2.448420e-003
2.026818e+003, -1.268878e-003
2.028747e+003, 3.067042e-004
2.030675e+003, -2.718968e-004
2.032604e+003, 6.055192e-005
2.034532e+003, -8.162185e-005
2.036461e+003, -1.639614e-005
2.038389e+003, -5.104669e-004
2.040318e+003, -1.354518e-003
2.042246e+003, -5.931926e-004
2.044175e+003, 4.752433e-004
2.046103e+003, 5.834321e-004
2.048032e+003, 2.120636e-003
2.049960e+003, 2.796005e-003
2.051889e+003, 2.451460e-003
2.053817e+003, 2.785337e-003
2.055746e+003, 2.200934e-003
2.057674e+003, 1.905545e-003
2.059603e+003, 2.800416e-003
2.061531e+003, 2.656956e-003
2.063459e+003, 1.441899e-003
2.065388e+003, -1.959164e-004
2.067316e+003, -7.604639e-005
2.069245e+003, 1.363296e-003
2.071173e+003, 2.193805e-003
2.073102e+003, 2.954602e-003
2.075030e+003, 4.016708e-003
2.076959e+003, 3.264101e-003
2.078887e+003, 2.720092e-003
2.080816e+003, 2.954753e-003
2.082744e+003, 3.054964e-003
2.084673e+003, 2.709483e-003
2.086601e+003, 2.693513e-003
2.088530e+003, 3.200430e-003
2.090458e+003, 2.858975e-003
2.092386e+003, 2.213716e-003
2.094315e+003, 2.991408e-003
2.096243e+003, 4.067793e-003
2.098172e+003, 4.129253e-003
2.100100e+003, 3.627359e-003
2.102029e+003, 2.817054e-003
2.103957e+003, 2.182095e-003
2.105886e+003, 2.216280e-003
2.107814e+003, 2.636180e-003
2.109743e+003, 3.383359e-003
2.111671e+003, 3.400556e-003
2.113600e+003, 2.584623e-003
2.115528e+003, 2.410806e-003
2.117457e+003, 2.195834e-003
2.119385e+003, 1.814939e-003
2.121313e+003, 1.442066e-003
2.123242e+003, 1.871783e-003
2.125170e+003, 2.157424e-003
2.127099e+003, 2.197287e-003
2.129027e+003, 1.365144e-003
2.130956e+003, -5.284085e-004
2.132884e+003, -5.285259e-004
2.134813e+003, 4.015036e-004
2.136741e+003, 5.638988e-004
2.138670e+003, 7.730213e-004
2.140598e+003, 6.012148e-004
2.142527e+003, -4.751846e-004
2.144455e+003, -1.308444e-003
2.146384e+003, -1.438701e-003
2.148312e+003, -8.168413e-004
2.150240e+003, -2.176083e-003
2.152169e+003, -4.091064e-003
2.154097e+003, -4.232471e-003
2.156026e+003, -4.969025e-003
2.157954e+003, -2.730989e-003
2.159883e+003, 1.561748e-003
2.161811e+003, 2.000100e-003
2.163740e+003, 1.922550e-003
2.165668e+003, 9.277082e-004
2.167597e+003, 1.029531e-004
2.169525e+003, 3.199636e-004
2.171454e+003, 1.182432e-003
2.173382e+003, 2.815188e-003
2.175311e+003, 2.493638e-003
2.177239e+003, 1.620267e-003
2.179167e+003, -2.041898e-004
2.181096e+003, 2.024015e-004
2.183024e+003, 2.594383e-004
2.184953e+003, 1.311892e-004
2.186881e+003, 3.054264e-004
2.188810e+003, 8.348371e-004
2.190738e+003, 1.786332e-003
2.192667e+003, 4.114409e-003
2.194595e+003, 4.490061e-003
2.196524e+003, 2.997708e-003
2.198452e+003, 2.399153e-003
2.200381e+003, 2.335947e-003
2.202309e+003, 2.336633e-003
2.204238e+003, 2.407352e-003
2.206166e+003, 2.786487e-003
2.208094e+003, 2.953464e-003
2.210023e+003, 2.647079e-003
2.211951e+003, 2.794605e-003
2.213880e+003, 3.084715e-003
2.215808e+003, 3.778998e-003
2.217737e+003, 4.232955e-003
2.219665e+003, 4.219337e-003
2.221594e+003, 4.128783e-003
2.223522e+003, 4.777041e-003
2.225451e+003, 4.985533e-003
2.227379e+003, 3.606411e-003
2.229308e+003, 2.444563e-003
2.231236e+003, 3.295566e-003
2.233165e+003, 5.412266e-003
2.235093e+003, 6.255395e-003
2.237021e+003, 5.349337e-003
2.238950e+003, 4.487374e-003
2.240878e+003, 4.632618e-003
2.242807e+003, 4.932851e-003
2.244735e+003, 4.859944e-003
2.246664e+003, 4.678631e-003
2.248592e+003, 4.266738e-003
2.250521e+003, 4.427216e-003
2.252449e+003, 4.450375e-003
2.254378e+003, 4.247707e-003
2.256306e+003, 4.617922e-003
2.258235e+003, 5.483245e-003
2.260163e+003, 5.923842e-003
2.262092e+003, 5.663852e-003
2.264020e+003, 4.841400e-003
2.265948e+003, 4.926409e-003
2.267877e+003, 5.563906e-003
2.269805e+003, 5.407948e-003
2.271734e+003, 5.451654e-003
2.273662e+003, 5.806628e-003
2.275591e+003, 6.299458e-003
2.277519e+003, 5.892750e-003
2.279448e+003, 5.210494e-003
2.281376e+003, 5.177457e-003
2.283305e+003, 4.891844e-003
2.285233e+003, 4.871067e-003
2.287162e+003, 4.711747e-003
2.289090e+003, 5.049579e-003
2.291019e+003, 5.193821e-003
2.292947e+003, 5.213852e-003
2.294875e+003, 5.192128e-003
2.296804e+003, 5.537983e-003
2.298732e+003, 5.441491e-003
2.300661e+003, 4.943024e-003
2.302589e+003, 4.875520e-003
2.304518e+003, 5.150891e-003
2.306446e+003, 5.529531e-003
2.308375e+003, 5.819835e-003
2.310303e+003, 5.669611e-003
2.312232e+003, 5.396312e-003
2.314160e+003, 5.189930e-003
2.316089e+003, 5.296509e-003
2.318017e+003, 5.671251e-003
2.319946e+003, 5.912667e-003
2.321874e+003, 6.383120e-003
2.323802e+003, 5.893504e-003
2.325731e+003, 4.749158e-003
2.327659e+003, 4.483514e-003
2.329588e+003, 4.665505e-003
2.331516e+003, 4.502939e-003
2.333445e+003, 4.398019e-003
2.335373e+003, 4.583972e-003
2.337302e+003, 4.438797e-003
2.339230e+003, 4.204473e-003
2.341159e+003, 4.047006e-003
2.343087e+003, 4.487618e-003
2.345016e+003, 4.933830e-003
2.346944e+003, 4.683994e-003
2.348873e+003, 4.232479e-003
2.350801e+003, 4.421668e-003
2.352729e+003, 4.579307e-003
2.354658e+003, 4.494970e-003
2.356586e+003, 4.694838e-003
2.358515e+003, 4.631645e-003
2.360443e+003, 4.452065e-003
2.362372e+003, 4.377520e-003
2.364300e+003, 3.837513e-003
2.366229e+003, 3.880067e-003
2.368157e+003, 3.925535e-003
2.370086e+003, 3.671377e-003
2.372014e+003, 4.272411e-003
2.373942e+003, 4.828601e-003
2.375871e+003, 5.123478e-003
2.377799e+003, 4.996900e-003
2.379728e+003, 4.457522e-003
2.381656e+003, 4.517254e-003
2.383585e+003, 4.508524e-003
2.385513e+003, 3.815361e-003
2.387442e+003, 3.702989e-003
2.389370e+003, 4.183741e-003
2.391299e+003, 4.606010e-003
2.393227e+003, 4.465281e-003
2.395156e+003, 4.263773e-003
2.397084e+003, 4.033701e-003
2.399012e+003, 4.105669e-003
2.400941e+003, 4.306218e-003
2.402869e+003, 4.103278e-003
2.404798e+003, 4.339281e-003
2.406726e+003, 4.817196e-003
2.408655e+003, 5.096750e-003
2.410583e+003, 4.851856e-003
2.412512e+003, 4.509041e-003
2.414440e+003, 4.773660e-003
2.416369e+003, 5.126455e-003
2.418297e+003, 4.757338e-003
2.420226e+003, 4.142755e-003
2.422154e+003, 4.662526e-003
2.424083e+003, 4.733545e-003
2.426011e+003, 4.198091e-003
2.427939e+003, 4.683142e-003
2.429868e+003, 5.625214e-003
2.431796e+003, 6.069871e-003
2.433725e+003, 5.259838e-003
2.435653e+003, 4.884395e-003
2.437582e+003, 5.263406e-003
2.439510e+003, 4.924690e-003
2.441439e+003, 4.851149e-003
2.443367e+003, 4.543774e-003
2.445296e+003, 4.839157e-003
2.447224e+003, 4.950649e-003
2.449153e+003, 5.078140e-003
2.451081e+003, 5.581672e-003
2.453010e+003, 5.114255e-003
2.454938e+003, 4.993557e-003
2.456866e+003, 5.292068e-003
2.458795e+003, 5.555503e-003
2.460723e+003, 5.870176e-003
2.462652e+003, 5.743827e-003
2.464580e+003, 5.394253e-003
2.466509e+003, 5.068304e-003
2.468437e+003, 5.029803e-003
2.470366e+003, 4.566804e-003
2.472294e+003, 4.444421e-003
2.474223e+003, 5.174142e-003
2.476151e+003, 4.589368e-003
2.478080e+003, 3.878465e-003
2.480008e+003, 4.675681e-003
2.481937e+003, 4.852962e-003
2.483865e+003, 4.419887e-003
2.485793e+003, 4.372006e-003
2.487722e+003, 4.307670e-003
2.489650e+003, 4.441882e-003
2.491579e+003, 4.813930e-003
2.493507e+003, 4.680172e-003
2.495436e+003, 4.921066e-003
2.497364e+003, 5.295628e-003
2.499293e+003, 5.333814e-003
2.501221e+003, 5.223280e-003
2.503150e+003, 5.009893e-003
2.505078e+003, 4.522090e-003
2.507007e+003, 4.852613e-003
2.508935e+003, 5.050077e-003
2.510864e+003, 4.493123e-003
2.512792e+003, 3.753967e-003
2.514720e+003, 3.744976e-003
2.516649e+003, 4.235478e-003
2.518577e+003, 4.130179e-003
2.520506e+003, 4.214121e-003
2.522434e+003, 4.550165e-003
2.524363e+003, 4.763029e-003
2.526291e+003, 4.461652e-003
2.528220e+003, 4.157011e-003
2.530148e+003, 4.029199e-003
2.532077e+003, 3.627410e-003
2.534005e+003, 4.116138e-003
2.535934e+003, 4.803490e-003
2.537862e+003, 4.983395e-003
2.539791e+003, 4.836377e-003
2.541719e+003, 4.635217e-003
2.543647e+003, 4.457300e-003
2.545576e+003, 4.522947e-003
2.547504e+003, 4.532908e-003
2.549433e+003, 5.198054e-003
2.551361e+003, 5.498941e-003
2.553290e+003, 4.551023e-003
2.555218e+003, 4.176742e-003
2.557147e+003, 4.644831e-003
2.559075e+003, 5.055991e-003
2.561004e+003, 5.545849e-003
2.562932e+003, 5.603540e-003
2.564861e+003, 5.038073e-003
2.566789e+003, 5.047756e-003
2.568718e+003, 4.972171e-003
2.570646e+003, 4.668137e-003
2.572574e+003, 4.530939e-003
2.574503e+003, 4.916522e-003
2.576431e+003, 4.481280e-003
2.578360e+003, 4.331263e-003
2.580288e+003, 4.750441e-003
2.582217e+003, 4.405734e-003
2.584145e+003, 3.793725e-003
2.586074e+003, 4.931873e-003
2.588002e+003, 5.248523e-003
2.589931e+003, 4.905391e-003
2.591859e+003, 5.396989e-003
2.593788e+003, 5.973588e-003
2.595716e+003, 5.635723e-003
2.597645e+003, 5.010576e-003
2.599573e+003, 5.251834e-003
2.601501e+003, 5.531009e-003
2.603430e+003, 5.028931e-003
2.605358e+003, 4.957498e-003
2.607287e+003, 5.212348e-003
2.609215e+003, 5.304728e-003
2.611144e+003, 5.409868e-003
2.613072e+003, 4.919434e-003
2.615001e+003, 4.597943e-003
2.616929e+003, 5.049782e-003
2.618858e+003, 5.568617e-003
2.620786e+003, 5.847005e-003
2.622715e+003, 5.024469e-003
2.624643e+003, 5.136555e-003
2.626572e+003, 6.032148e-003
2.628500e+003, 5.223025e-003
2.630428e+003, 4.355201e-003
2.632357e+003, 4.373599e-003
2.634285e+003, 4.352796e-003
2.636214e+003, 4.448530e-003
2.638142e+003, 4.513618e-003
2.640071e+003, 4.771736e-003
2.641999e+003, 5.277492e-003
2.643928e+003, 5.274287e-003
2.645856e+003, 5.217232e-003
2.647785e+003, 4.921686e-003
2.649713e+003, 4.981992e-003
2.651642e+003, 5.427223e-003
2.653570e+003, 5.522593e-003
2.655499e+003, 5.270917e-003
2.657427e+003, 5.101981e-003
2.659355e+003, 5.208722e-003
2.661284e+003, 4.911318e-003
2.663212e+003, 4.594618e-003
2.665141e+003, 4.254767e-003
2.667069e+003, 4.192649e-003
2.668998e+003, 4.668952e-003
2.670926e+003, 4.216991e-003
2.672855e+003, 3.790873e-003
2.674783e+003, 4.179498e-003
2.676712e+003, 4.184402e-003
2.678640e+003, 4.243186e-003
2.680569e+003, 4.615079e-003
2.682497e+003, 4.865656e-003
2.684426e+003, 4.803794e-003
2.686354e+003, 4.082726e-003
2.688282e+003, 3.932876e-003
2.690211e+003, 4.715796e-003
2.692139e+003, 4.802703e-003
2.694068e+003, 4.318254e-003
2.695996e+003, 4.471248e-003
2.697925e+003, 4.688235e-003
2.699853e+003, 4.584211e-003
2.701782e+003, 4.252431e-003
2.703710e+003, 4.315648e-003
2.705639e+003, 4.528204e-003
2.707567e+003, 4.605811e-003
2.709496e+003, 4.423680e-003
2.711424e+003, 4.205978e-003
2.713353e+003, 3.896408e-003
2.715281e+003, 4.611439e-003
2.717209e+003, 5.241095e-003
2.719138e+003, 4.743284e-003
2.721066e+003, 4.289394e-003
2.722995e+003, 4.565015e-003
2.724923e+003, 4.994754e-003
2.726852e+003, 4.782182e-003
2.728780e+003, 4.479227e-003
2.730709e+003, 4.853563e-003
2.732637e+003, 5.123015e-003
2.734566e+003, 5.159610e-003
2.736494e+003, 4.835156e-003
2.738423e+003, 4.548766e-003
2.740351e+003, 4.516349e-003
2.742280e+003, 4.637131e-003
2.744208e+003, 4.900774e-003
2.746136e+003, 5.089967e-003
2.748065e+003, 5.202155e-003
2.749993e+003, 5.458508e-003
2.751922e+003, 5.374047e-003
2.753850e+003, 5.139544e-003
2.755779e+003, 5.263867e-003
2.757707e+003, 5.070180e-003
2.759636e+003, 4.634182e-003
2.761564e+003, 4.485057e-003
2.763493e+003, 4.727584e-003
2.765421e+003, 4.844567e-003
2.767350e+003, 5.081934e-003
2.769278e+003, 4.772672e-003
2.771207e+003, 4.433816e-003
2.773135e+003, 4.348870e-003
2.775063e+003, 4.248714e-003
2.776992e+003, 4.251740e-003
2.778920e+003, 4.378416e-003
2.780849e+003, 4.917332e-003
2.782777e+003, 5.086777e-003
2.784706e+003, 5.235881e-003
2.786634e+003, 5.216142e-003
2.788563e+003, 4.730379e-003
2.790491e+003, 4.564494e-003
2.792420e+003, 4.580119e-003
2.794348e+003, 4.505126e-003
2.796277e+003, 4.433667e-003
2.798205e+003, 4.596906e-003
2.800134e+003, 4.691164e-003
2.802062e+003, 4.787180e-003
2.803990e+003, 5.046849e-003
2.805919e+003, 5.428279e-003
2.807847e+003, 4.922948e-003
2.809776e+003, 4.450192e-003
2.811704e+003, 4.618045e-003
2.813633e+003, 5.060842e-003
2.815561e+003, 5.121952e-003
2.817490e+003, 4.971315e-003
2.819418e+003, 5.078536e-003
2.821347e+003, 4.792584e-003
2.823275e+003, 4.883619e-003
2.825204e+003, 5.030049e-003
2.827132e+003, 4.852261e-003
2.829061e+003, 4.953166e-003
2.830989e+003, 5.368402e-003
2.832917e+003, 5.530453e-003
2.834846e+003, 5.788139e-003
2.836774e+003, 6.002733e-003
2.838703e+003, 6.034887e-003
2.840631e+003, 6.358136e-003
2.842560e+003, 6.034893e-003
2.844488e+003, 5.536684e-003
2.846417e+003, 4.905196e-003
2.848345e+003, 4.945580e-003
2.850274e+003, 5.631938e-003
2.852202e+003, 5.399711e-003
2.854131e+003, 5.167293e-003
2.856059e+003, 5.504274e-003
2.857988e+003, 5.325676e-003
2.859916e+003, 5.301115e-003
2.861844e+003, 5.058118e-003
2.863773e+003, 5.131664e-003
2.865701e+003, 5.482248e-003
2.867630e+003, 5.224436e-003
2.869558e+003, 5.286699e-003
2.871487e+003, 5.299427e-003
2.873415e+003, 4.941915e-003
2.875344e+003, 4.624783e-003
2.877272e+003, 5.080551e-003
2.879201e+003, 5.936490e-003
2.881129e+003, 5.629274e-003
2.883058e+003, 5.008354e-003
2.884986e+003, 5.224073e-003
2.886915e+003, 4.904974e-003
2.888843e+003, 4.506286e-003
2.890771e+003, 5.449706e-003
2.892700e+003, 6.091452e-003
2.894628e+003, 5.800791e-003
2.896557e+003, 5.931738e-003
2.898485e+003, 5.694351e-003
2.900414e+003, 5.041027e-003
2.902342e+003, 5.390098e-003
2.904271e+003, 5.304300e-003
2.906199e+003, 5.212612e-003
2.908128e+003, 5.846959e-003
2.910056e+003, 5.798722e-003
2.911985e+003, 5.850662e-003
2.913913e+003, 6.182238e-003
2.915842e+003, 6.109322e-003
2.917770e+003, 6.757964e-003
2.919698e+003, 6.708661e-003
2.921627e+003, 5.822076e-003
2.923555e+003, 5.625417e-003
2.925484e+003, 5.298014e-003
2.927412e+003, 4.625399e-003
2.929341e+003, 4.098750e-003
2.931269e+003, 4.408392e-003
2.933198e+003, 4.857885e-003
2.935126e+003, 5.122410e-003
2.937055e+003, 4.789615e-003
2.938983e+003, 4.525361e-003
2.940912e+003, 4.327949e-003
2.942840e+003, 4.704182e-003
2.944769e+003, 4.619315e-003
2.946697e+003, 4.458922e-003
2.948625e+003, 4.308695e-003
2.950554e+003, 4.245501e-003
2.952482e+003, 4.551045e-003
2.954411e+003, 4.633231e-003
2.956339e+003, 4.674746e-003
2.958268e+003, 4.762524e-003
2.960196e+003, 4.509815e-003
2.962125e+003, 4.720241e-003
2.964053e+003, 5.007605e-003
2.965982e+003, 5.246430e-003
2.967910e+003, 5.083433e-003
2.969839e+003, 5.104409e-003
2.971767e+003, 5.655678e-003
2.973696e+003, 5.701995e-003
2.975624e+003, 4.554778e-003
2.977552e+003, 4.186320e-003
2.979481e+003, 5.130182e-003
2.981409e+003, 5.597950e-003
2.983338e+003, 4.937748e-003
2.985266e+003, 4.852612e-003
2.987195e+003, 5.444138e-003
2.989123e+003, 5.399967e-003
2.991052e+003, 4.951227e-003
2.992980e+003, 5.765536e-003
2.994909e+003, 6.357168e-003
2.996837e+003, 5.611981e-003
2.998766e+003, 5.196059e-003
3.000694e+003, 5.172919e-003
3.002623e+003, 5.444723e-003
3.004551e+003, 4.944090e-003
3.006479e+003, 4.580766e-003
3.008408e+003, 5.198375e-003
3.010336e+003, 5.491723e-003
3.012265e+003, 5.687367e-003
3.014193e+003, 5.700489e-003
3.016122e+003, 5.506616e-003
3.018050e+003, 5.410705e-003
3.019979e+003, 5.999769e-003
3.021907e+003, 5.725510e-003
3.023836e+003, 5.756398e-003
3.025764e+003, 5.102822e-003
3.027693e+003, 5.275031e-003
3.029621e+003, 6.111848e-003
3.031550e+003, 6.053635e-003
3.033478e+003, 5.638913e-003
3.035406e+003, 5.029126e-003
3.037335e+003, 4.779088e-003
3.039263e+003, 4.933408e-003
3.041192e+003, 5.169501e-003
3.043120e+003, 5.069316e-003
3.045049e+003, 4.725208e-003
3.046977e+003, 4.750672e-003
3.048906e+003, 5.260938e-003
3.050834e+003, 5.191830e-003
3.052763e+003, 5.411907e-003
3.054691e+003, 5.317904e-003
3.056620e+003, 5.536263e-003
3.058548e+003, 6.305154e-003
3.060477e+003, 6.345306e-003
3.062405e+003, 6.142679e-003
3.064333e+003, 5.184723e-003
3.066262e+003, 5.096399e-003
3.068190e+003, 5.634998e-003
3.070119e+003, 5.530813e-003
3.072047e+003, 5.352786e-003
3.073976e+003, 5.452309e-003
3.075904e+003, 4.913409e-003
3.077833e+003, 4.898826e-003
3.079761e+003, 5.980644e-003
3.081690e+003, 5.839488e-003
3.083618e+003, 4.948507e-003
3.085547e+003, 4.917149e-003
3.087475e+003, 5.322305e-003
3.089404e+003, 5.417308e-003
3.091332e+003, 5.512040e-003
3.093260e+003, 5.218820e-003
3.095189e+003, 5.075532e-003
3.097117e+003, 5.600784e-003
3.099046e+003, 5.345560e-003
3.100974e+003, 4.519588e-003
3.102903e+003, 4.495909e-003
3.104831e+003, 4.977217e-003
3.106760e+003, 5.421247e-003
3.108688e+003, 5.059734e-003
3.110617e+003, 4.979051e-003
3.112545e+003, 5.188084e-003
3.114474e+003, 5.996327e-003
3.116402e+003, 5.426053e-003
3.118331e+003, 4.752981e-003
3.120259e+003, 5.170248e-003
3.122188e+003, 5.651072e-003
3.124116e+003, 6.123219e-003
3.126044e+003, 5.809402e-003
3.127973e+003, 5.466541e-003
3.129901e+003, 5.646386e-003
3.131830e+003, 6.179119e-003
3.133758e+003, 5.824334e-003
3.135687e+003, 6.034842e-003
3.137615e+003, 6.245576e-003
3.139544e+003, 5.726019e-003
3.141472e+003, 5.767973e-003
3.143401e+003, 5.740258e-003
3.145329e+003, 5.531851e-003
3.147258e+003, 5.426665e-003
3.149186e+003, 4.991727e-003
3.151115e+003, 4.781985e-003
3.153043e+003, 5.597105e-003
3.154971e+003, 6.946540e-003
3.156900e+003, 6.846115e-003
3.158828e+003, 5.450644e-003
3.160757e+003, 4.725916e-003
3.162685e+003, 5.260930e-003
3.164614e+003, 6.141000e-003
3.166542e+003, 5.884848e-003
3.168471e+003, 5.425208e-003
3.170399e+003, 5.815290e-003
3.172328e+003, 6.245724e-003
3.174256e+003, 6.341562e-003
3.176185e+003, 5.988042e-003
3.178113e+003, 5.709364e-003
3.180042e+003, 5.790702e-003
3.181970e+003, 6.568838e-003
3.183898e+003, 6.750316e-003
3.185827e+003, 6.889648e-003
3.187755e+003, 5.987033e-003
3.189684e+003, 4.709159e-003
3.191612e+003, 4.926752e-003
3.193541e+003, 5.473820e-003
3.195469e+003, 6.159189e-003
3.197398e+003, 6.181199e-003
3.199326e+003, 5.742324e-003
3.201255e+003, 5.463007e-003
3.203183e+003, 5.214335e-003
3.205112e+003, 5.810885e-003
3.207040e+003, 5.258239e-003
3.208969e+003, 4.619183e-003
3.210897e+003, 5.288631e-003
3.212825e+003, 6.195615e-003
3.214754e+003, 5.662559e-003
3.216682e+003, 4.452071e-003
3.218611e+003, 4.517633e-003
3.220539e+003, 5.306272e-003
3.222468e+003, 6.396197e-003
3.224396e+003, 5.947794e-003
3.226325e+003, 6.061560e-003
3.228253e+003, 6.417538e-003
3.230182e+003, 6.385392e-003
3.232110e+003, 6.768622e-003
3.234039e+003, 5.903495e-003
3.235967e+003, 5.986367e-003
3.237896e+003, 6.731743e-003
3.239824e+003, 6.103758e-003
3.241752e+003, 5.732315e-003
3.243681e+003, 5.383795e-003
3.245609e+003, 4.807191e-003
3.247538e+003, 4.785621e-003
3.249466e+003, 5.698864e-003
3.251395e+003, 5.905718e-003
3.253323e+003, 5.153643e-003
3.255252e+003, 5.283035e-003
3.257180e+003, 6.166657e-003
3.259109e+003, 5.700507e-003
3.261037e+003, 4.651433e-003
3.262966e+003, 4.521908e-003
3.264894e+003, 4.767742e-003
3.266823e+003, 5.125773e-003
3.268751e+003, 5.651833e-003
3.270679e+003, 5.390924e-003
3.272608e+003, 5.346258e-003
3.274536e+003, 5.629852e-003
3.276465e+003, 5.418406e-003
3.278393e+003, 5.830815e-003
3.280322e+003, 5.903295e-003
3.282250e+003, 5.484987e-003
3.284179e+003, 4.923109e-003
3.286107e+003, 4.994938e-003
3.288036e+003, 5.700347e-003
3.289964e+003, 5.816335e-003
3.291893e+003, 5.721279e-003
3.293821e+003, 6.194757e-003
3.295750e+003, 6.939769e-003
3.297678e+003, 6.619737e-003
3.299606e+003, 5.625369e-003
3.301535e+003, 5.442407e-003
3.303463e+003, 5.306235e-003
3.305392e+003, 4.545451e-003
3.307320e+003, 4.444188e-003
3.309249e+003, 5.094116e-003
3.311177e+003, 5.959648e-003
3.313106e+003, 6.472357e-003
3.315034e+003, 5.481193e-003
3.316963e+003, 5.030486e-003
3.318891e+003, 4.992140e-003
3.320820e+003, 5.200952e-003
3.322748e+003, 6.286460e-003
3.324677e+003, 6.283478e-003
3.326605e+003, 5.103868e-003
3.328533e+003, 5.313400e-003
3.330462e+003, 5.309603e-003
3.332390e+003, 5.105178e-003
3.334319e+003, 5.299838e-003
3.336247e+003, 4.670623e-003
3.338176e+003, 4.940503e-003
3.340104e+003, 5.972948e-003
3.342033e+003, 6.161050e-003
3.343961e+003, 6.120528e-003
3.345890e+003, 6.043758e-003
3.347818e+003, 5.178130e-003
3.349747e+003, 5.158410e-003
3.351675e+003, 6.046153e-003
3.353604e+003, 5.850480e-003
3.355532e+003, 5.366036e-003
3.357460e+003, 6.419582e-003
3.359389e+003, 6.369619e-003
3.361317e+003, 5.427495e-003
3.363246e+003, 5.228286e-003
3.365174e+003, 5.142645e-003
3.367103e+003, 5.436444e-003
3.369031e+003, 5.576164e-003
3.370960e+003, 5.298411e-003
3.372888e+003, 4.826952e-003
3.374817e+003, 5.153623e-003
3.376745e+003, 5.195494e-003
3.378674e+003, 4.824228e-003
3.380602e+003, 5.237909e-003
3.382531e+003, 5.719360e-003
3.384459e+003, 6.484582e-003
3.386387e+003, 6.382375e-003
3.388316e+003, 6.317305e-003
3.390244e+003, 6.551375e-003
3.392173e+003, 6.444101e-003
3.394101e+003, 4.897242e-003
3.396030e+003, 4.621518e-003
3.397958e+003, 5.864146e-003
3.399887e+003, 6.124990e-003
3.401815e+003, 6.555852e-003
3.403744e+003, 6.646488e-003
3.405672e+003, 5.545278e-003
3.407601e+003, 4.699803e-003
3.409529e+003, 5.084337e-003
3.411458e+003, 6.138758e-003
3.413386e+003, 6.717309e-003
3.415314e+003, 6.154408e-003
3.417243e+003, 5.822514e-003
3.419171e+003, 5.995878e-003
3.421100e+003, 5.143811e-003
3.423028e+003, 5.284844e-003
3.424957e+003, 6.434380e-003
3.426885e+003, 6.719925e-003
3.428814e+003, 6.414044e-003
3.430742e+003, 6.012292e-003
3.432671e+003, 6.688094e-003
3.434599e+003, 6.622645e-003
3.436528e+003, 6.254741e-003
3.438456e+003, 7.015109e-003
3.440385e+003, 7.538552e-003
3.442313e+003, 6.922943e-003
3.444241e+003, 5.629804e-003
3.446170e+003, 4.582245e-003
3.448098e+003, 4.738854e-003
3.450027e+003, 5.780744e-003
3.451955e+003, 5.953514e-003
3.453884e+003, 5.584308e-003
3.455812e+003, 4.632953e-003
3.457741e+003, 3.000758e-003
3.459669e+003, 4.209084e-003
3.461598e+003, 7.256743e-003
3.463526e+003, 8.050896e-003
3.465455e+003, 6.592870e-003
3.467383e+003, 5.622904e-003
3.469312e+003, 5.175599e-003
3.471240e+003, 5.183179e-003
3.473168e+003, 5.133473e-003
3.475097e+003, 6.137163e-003
3.477025e+003, 6.770965e-003
3.478954e+003, 6.158363e-003
3.480882e+003, 5.763141e-003
3.482811e+003, 6.117436e-003
3.484739e+003, 6.830845e-003
3.486668e+003, 6.734518e-003
3.488596e+003, 6.267693e-003
3.490525e+003, 5.293122e-003
3.492453e+003, 4.666109e-003
3.494382e+003, 5.333512e-003
3.496310e+003, 6.770601e-003
3.498239e+003, 8.362865e-003
3.500167e+003, 7.341060e-003
3.502095e+003, 5.237227e-003
3.504024e+003, 5.165066e-003
3.505952e+003, 6.115504e-003
3.507881e+003, 7.258469e-003
3.509809e+003, 7.793613e-003
3.511738e+003, 6.906599e-003
3.513666e+003, 5.492539e-003
3.515595e+003, 6.004496e-003
3.517523e+003, 6.284840e-003
3.519452e+003, 6.134188e-003
3.521380e+003, 6.270985e-003
3.523309e+003, 6.198082e-003
3.525237e+003, 7.013668e-003
3.527166e+003, 6.582865e-003
3.529094e+003, 6.013072e-003
3.531022e+003, 6.712593e-003
3.532951e+003, 6.873598e-003
3.534879e+003, 5.455210e-003
3.536808e+003, 5.413210e-003
3.538736e+003, 5.359585e-003
3.540665e+003, 5.827064e-003
3.542593e+003, 6.393970e-003
3.544522e+003, 6.173621e-003
3.546450e+003, 6.452185e-003
3.548379e+003, 6.994748e-003
3.550307e+003, 6.833381e-003
3.552236e+003, 5.309988e-003
3.554164e+003, 5.556312e-003
3.556093e+003, 6.708642e-003
3.558021e+003, 7.211054e-003
3.559949e+003, 6.645771e-003
3.561878e+003, 6.051921e-003
3.563806e+003, 6.410703e-003
3.565735e+003, 6.271244e-003
3.567663e+003, 5.364520e-003
3.569592e+003, 5.785453e-003
3.571520e+003, 5.735728e-003
3.573449e+003, 5.412640e-003
3.575377e+003, 6.126311e-003
3.577306e+003, 5.932429e-003
3.579234e+003, 5.370734e-003
3.581163e+003, 5.450479e-003
3.583091e+003, 5.913164e-003
3.585020e+003, 5.916722e-003
3.586948e+003, 5.668459e-003
3.588876e+003, 5.840040e-003
3.590805e+003, 6.017311e-003
3.592733e+003, 6.710615e-003
3.594662e+003, 6.812541e-003
3.596590e+003, 5.827715e-003
3.598519e+003, 4.930543e-003
3.600447e+003, 5.373992e-003
3.602376e+003, 6.574701e-003
3.604304e+003, 6.786415e-003
3.606233e+003, 5.700437e-003
3.608161e+003, 5.760096e-003
3.610090e+003, 5.778829e-003
3.612018e+003, 5.205442e-003
3.613947e+003, 4.106835e-003
3.615875e+003, 3.229723e-003
3.617803e+003, 4.320003e-003
3.619732e+003, 4.895275e-003
3.621660e+003, 4.398190e-003
3.623589e+003, 4.739665e-003
3.625517e+003, 5.629026e-003
3.627446e+003, 5.626007e-003
3.629374e+003, 6.426681e-003
3.631303e+003, 7.941167e-003
3.633231e+003, 7.185961e-003
3.635160e+003, 7.016822e-003
3.637088e+003, 6.669640e-003
3.639017e+003, 4.967508e-003
3.640945e+003, 3.832247e-003
3.642874e+003, 5.185790e-003
3.644802e+003, 5.449771e-003
3.646730e+003, 4.793664e-003
3.648659e+003, 5.423501e-003
3.650587e+003, 4.037980e-003
3.652516e+003, 2.840621e-003
3.654444e+003, 4.128756e-003
3.656373e+003, 5.593608e-003
3.658301e+003, 5.946225e-003
3.660230e+003, 5.889901e-003
3.662158e+003, 5.673598e-003
3.664087e+003, 5.375337e-003
3.666015e+003, 4.658046e-003
3.667944e+003, 3.712496e-003
3.669872e+003, 4.705813e-003
3.671801e+003, 5.137420e-003
3.673729e+003, 5.279835e-003
3.675657e+003, 6.131359e-003
3.677586e+003, 5.113644e-003
3.679514e+003, 4.153052e-003
3.681443e+003, 5.378152e-003
3.683371e+003, 6.278282e-003
3.685300e+003, 5.438166e-003
3.687228e+003, 5.168364e-003
3.689157e+003, 4.429634e-003
3.691085e+003, 3.808414e-003
3.693014e+003, 5.136000e-003
3.694942e+003, 6.051775e-003
3.696871e+003, 5.443712e-003
3.698799e+003, 4.442909e-003
3.700728e+003, 3.855344e-003
3.702656e+003, 4.446936e-003
3.704584e+003, 3.819961e-003
3.706513e+003, 3.752020e-003
3.708441e+003, 3.842255e-003
3.710370e+003, 4.039075e-003
3.712298e+003, 3.294852e-003
3.714227e+003, 2.888492e-003
3.716155e+003, 4.963561e-003
3.718084e+003, 4.993070e-003
3.720012e+003, 3.477185e-003
3.721941e+003, 3.789457e-003
3.723869e+003, 4.474847e-003
3.725798e+003, 4.434592e-003
3.727726e+003, 4.566891e-003
3.729655e+003, 5.439423e-003
3.731583e+003, 4.720753e-003
3.733511e+003, 3.491860e-003
3.735440e+003, 3.296605e-003
3.737368e+003, 4.385032e-003
3.739297e+003, 3.772278e-003
3.741225e+003, 2.787045e-003
3.743154e+003, 3.243824e-003
3.745082e+003, 4.230900e-003
3.747011e+003, 5.251551e-003
3.748939e+003, 5.367846e-003
3.750868e+003, 3.256387e-003
3.752796e+003, 2.345291e-003
3.754725e+003, 4.089241e-003
3.756653e+003, 6.724458e-003
3.758582e+003, 7.616773e-003
3.760510e+003, 5.956450e-003
3.762438e+003, 4.854769e-003
3.764367e+003, 4.315434e-003
3.766295e+003, 4.347564e-003
3.768224e+003, 4.159976e-003
3.770152e+003, 3.666269e-003
3.772081e+003, 3.583241e-003
3.774009e+003, 3.917767e-003
3.775938e+003, 4.300953e-003
3.777866e+003, 6.514411e-003
3.779795e+003, 6.932582e-003
3.781723e+003, 6.717931e-003
3.783652e+003, 6.638072e-003
3.785580e+003, 6.984346e-003
3.787509e+003, 5.659349e-003
3.789437e+003, 4.090760e-003
3.791365e+003, 4.418833e-003
3.793294e+003, 4.681764e-003
3.795222e+003, 5.214058e-003
3.797151e+003, 5.670352e-003
3.799079e+003, 5.551367e-003
3.801008e+003, 5.908893e-003
3.802936e+003, 6.247820e-003
3.804865e+003, 5.445403e-003
3.806793e+003, 4.028297e-003
3.808722e+003, 3.351283e-003
3.810650e+003, 5.204137e-003
3.812579e+003, 6.452237e-003
3.814507e+003, 6.798199e-003
3.816436e+003, 6.444888e-003
3.818364e+003, 6.240309e-003
3.820292e+003, 5.479524e-003
3.822221e+003, 5.154076e-003
3.824149e+003, 5.477701e-003
3.826078e+003, 4.748815e-003
3.828006e+003, 5.576616e-003
3.829935e+003, 6.074510e-003
3.831863e+003, 5.120757e-003
3.833792e+003, 5.293734e-003
3.835720e+003, 6.308335e-003
3.837649e+003, 6.705007e-003
3.839577e+003, 6.378765e-003
3.841506e+003, 6.273798e-003
3.843434e+003, 4.943043e-003
3.845363e+003, 4.299165e-003
3.847291e+003, 4.990994e-003
3.849219e+003, 5.763364e-003
3.851148e+003, 5.559130e-003
3.853076e+003, 5.545256e-003
3.855005e+003, 5.092167e-003
3.856933e+003, 3.933791e-003
3.858862e+003, 2.461498e-003
3.860790e+003, 2.148408e-003
3.862719e+003, 3.633401e-003
3.864647e+003, 3.612591e-003
3.866576e+003, 3.788819e-003
3.868504e+003, 4.355738e-003
3.870433e+003, 4.575324e-003
3.872361e+003, 4.827917e-003
3.874290e+003, 4.020047e-003
3.876218e+003, 4.552985e-003
3.878146e+003, 6.446791e-003
3.880075e+003, 5.755316e-003
3.882003e+003, 4.335960e-003
3.883932e+003, 4.398928e-003
3.885860e+003, 5.092238e-003
3.887789e+003, 6.007968e-003
3.889717e+003, 6.651331e-003
3.891646e+003, 6.245498e-003
3.893574e+003, 4.884150e-003
3.895503e+003, 3.610068e-003
3.897431e+003, 3.553813e-003
3.899360e+003, 3.560117e-003
3.901288e+003, 4.691142e-003
3.903217e+003, 4.567545e-003
3.905145e+003, 4.358318e-003
3.907073e+003, 5.423064e-003
3.909002e+003, 5.113887e-003
3.910930e+003, 3.747311e-003
3.912859e+003, 4.296569e-003
3.914787e+003, 4.764790e-003
3.916716e+003, 4.860667e-003
3.918644e+003, 4.768972e-003
3.920573e+003, 4.526454e-003
3.922501e+003, 4.138736e-003
3.924430e+003, 4.493852e-003
3.926358e+003, 4.482981e-003
3.928287e+003, 4.204058e-003
3.930215e+003, 4.525631e-003
3.932144e+003, 4.544911e-003
3.934072e+003, 4.576421e-003
3.936000e+003, 5.153863e-003
3.937929e+003, 4.746457e-003
3.939857e+003, 5.001199e-003
3.941786e+003, 4.837783e-003
3.943714e+003, 4.267759e-003
3.945643e+003, 4.491643e-003
3.947571e+003, 3.862590e-003
3.949500e+003, 3.613035e-003
3.951428e+003, 4.927323e-003
3.953357e+003, 5.619436e-003
3.955285e+003, 4.183385e-003
3.957214e+003, 4.813069e-003
3.959142e+003, 6.621898e-003
3.961071e+003, 5.295929e-003
3.962999e+003, 3.917901e-003
3.964927e+003, 4.484954e-003
3.966856e+003, 5.286859e-003
3.968784e+003, 6.193250e-003
3.970713e+003, 6.552997e-003
3.972641e+003, 5.200139e-003
3.974570e+003, 4.886390e-003
3.976498e+003, 5.166382e-003
3.978427e+003, 4.069571e-003
3.980355e+003, 3.762092e-003
3.982284e+003, 3.777490e-003
3.984212e+003, 4.490035e-003
3.986141e+003, 5.794000e-003
3.988069e+003, 5.325925e-003
3.989998e+003, 3.803923e-003
3.991926e+003, 3.239203e-003
3.993854e+003, 4.848425e-003
3.995783e+003, 6.528763e-003
3.997711e+003, 7.004039e-003
3.999640e+003, 7.007418e-003
4.001568e+003, 0.000000e+000
##END=



