##NAMES=Lindgrenite
##RRUFFID=R050213
##IDEAL CHEMISTRY=Cu^2+^_3_(Mo^6+^O_4_)_2_(OH)_2_
##LOCALITY=Chuquicamata mine, Calama, Antofagasta Province, Chile
##OWNER=RRUFF
##SOURCE=John Dagenais
##DESCRIPTION=Green tabular single crystals
##STATUS=The identification of this mineral is confirmed by single-crystal X-ray diffraction and chemical analysis.
##URL=rruff.info/R050213
##MEASURED CHEMISTRY=(Cu_2.99_Fe_0.01_)_Î£=3.00_(Mo^6+^_1.00_O_4_)_2_(OH)_2.00_ ; OH not measured but estimated by difference and charge balance
3.991926e+002, 1.768611e-001
4.011211e+002, 1.797344e-001
4.030495e+002, 1.762004e-001
4.049780e+002, 1.757670e-001
4.069065e+002, 1.785165e-001
4.088349e+002, 1.801696e-001
4.107634e+002, 1.762631e-001
4.126919e+002, 1.743016e-001
4.146203e+002, 1.724623e-001
4.165488e+002, 1.678394e-001
4.184773e+002, 1.649437e-001
4.204057e+002, 1.628792e-001
4.223342e+002, 1.595667e-001
4.242627e+002, 1.568741e-001
4.261911e+002, 1.560948e-001
4.281196e+002, 1.582669e-001
4.300481e+002, 1.633328e-001
4.319765e+002, 1.667747e-001
4.339050e+002, 1.703492e-001
4.358335e+002, 1.748328e-001
4.377619e+002, 1.782855e-001
4.396904e+002, 1.831087e-001
4.416189e+002, 1.863143e-001
4.435473e+002, 1.880751e-001
4.454758e+002, 1.873839e-001
4.474043e+002, 1.839681e-001
4.493327e+002, 1.772869e-001
4.512612e+002, 1.683926e-001
4.531897e+002, 1.582066e-001
4.551181e+002, 1.496411e-001
4.570466e+002, 1.421758e-001
4.589751e+002, 1.343831e-001
4.609035e+002, 1.266736e-001
4.628320e+002, 1.189406e-001
4.647605e+002, 1.098231e-001
4.666889e+002, 1.020450e-001
4.686174e+002, 9.489375e-002
4.705459e+002, 8.682395e-002
4.724743e+002, 8.045465e-002
4.744028e+002, 7.656567e-002
4.763313e+002, 7.403453e-002
4.782597e+002, 7.228687e-002
4.801882e+002, 7.141031e-002
4.821167e+002, 7.134154e-002
4.840451e+002, 7.183774e-002
4.859736e+002, 7.302031e-002
4.879021e+002, 7.427209e-002
4.898305e+002, 7.561253e-002
4.917590e+002, 7.678691e-002
4.936875e+002, 7.848285e-002
4.956159e+002, 8.074745e-002
4.975444e+002, 8.306695e-002
4.994729e+002, 8.503003e-002
5.014013e+002, 8.729096e-002
5.033298e+002, 8.981185e-002
5.052583e+002, 9.209143e-002
5.071867e+002, 9.455458e-002
5.091152e+002, 9.707783e-002
5.110437e+002, 9.915107e-002
5.129721e+002, 1.016414e-001
5.149006e+002, 1.042449e-001
5.168290e+002, 1.069905e-001
5.187575e+002, 1.093101e-001
5.206860e+002, 1.116134e-001
5.226144e+002, 1.144925e-001
5.245429e+002, 1.173121e-001
5.264714e+002, 1.197247e-001
5.283998e+002, 1.223641e-001
5.303283e+002, 1.251396e-001
5.322568e+002, 1.279692e-001
5.341852e+002, 1.309330e-001
5.361137e+002, 1.339299e-001
5.380422e+002, 1.368509e-001
5.399706e+002, 1.399288e-001
5.418991e+002, 1.431827e-001
5.438276e+002, 1.461943e-001
5.457560e+002, 1.493996e-001
5.476845e+002, 1.522553e-001
5.496130e+002, 1.546033e-001
5.515414e+002, 1.574460e-001
5.534699e+002, 1.607123e-001
5.553984e+002, 1.641267e-001
5.573268e+002, 1.672683e-001
5.592553e+002, 1.698447e-001
5.611838e+002, 1.721581e-001
5.631122e+002, 1.748658e-001
5.650407e+002, 1.778744e-001
5.669692e+002, 1.805134e-001
5.688976e+002, 1.827786e-001
5.708261e+002, 1.845979e-001
5.727546e+002, 1.865847e-001
5.746830e+002, 1.893107e-001
5.766115e+002, 1.915998e-001
5.785400e+002, 1.933994e-001
5.804684e+002, 1.953220e-001
5.823969e+002, 1.973525e-001
5.843254e+002, 1.995032e-001
5.862538e+002, 2.016504e-001
5.881823e+002, 2.036606e-001
5.901108e+002, 2.054961e-001
5.920392e+002, 2.070422e-001
5.939677e+002, 2.085634e-001
5.958962e+002, 2.103045e-001
5.978246e+002, 2.117504e-001
5.997531e+002, 2.131817e-001
6.016816e+002, 2.148595e-001
6.036100e+002, 2.166551e-001
6.055385e+002, 2.180188e-001
6.074670e+002, 2.189961e-001
6.093954e+002, 2.202451e-001
6.113239e+002, 2.217058e-001
6.132524e+002, 2.230106e-001
6.151808e+002, 2.242642e-001
6.171093e+002, 2.257136e-001
6.190378e+002, 2.273308e-001
6.209662e+002, 2.282397e-001
6.228947e+002, 2.291698e-001
6.248232e+002, 2.307681e-001
6.267516e+002, 2.318949e-001
6.286801e+002, 2.323597e-001
6.306086e+002, 2.334674e-001
6.325370e+002, 2.351231e-001
6.344655e+002, 2.364670e-001
6.363940e+002, 2.376274e-001
6.383224e+002, 2.384573e-001
6.402509e+002, 2.392563e-001
6.421794e+002, 2.402741e-001
6.441078e+002, 2.415014e-001
6.460363e+002, 2.426561e-001
6.479648e+002, 2.435306e-001
6.498932e+002, 2.445863e-001
6.518217e+002, 2.455728e-001
6.537502e+002, 2.462986e-001
6.556786e+002, 2.476199e-001
6.576071e+002, 2.489284e-001
6.595356e+002, 2.496427e-001
6.614641e+002, 2.503954e-001
6.633925e+002, 2.515771e-001
6.653210e+002, 2.527804e-001
6.672495e+002, 2.539997e-001
6.691779e+002, 2.547826e-001
6.711064e+002, 2.552842e-001
6.730349e+002, 2.559764e-001
6.749633e+002, 2.569442e-001
6.768918e+002, 2.580402e-001
6.788203e+002, 2.588000e-001
6.807487e+002, 2.594348e-001
6.826772e+002, 2.603878e-001
6.846057e+002, 2.612704e-001
6.865341e+002, 2.620182e-001
6.884626e+002, 2.629769e-001
6.903911e+002, 2.636959e-001
6.923195e+002, 2.643087e-001
6.942480e+002, 2.648870e-001
6.961765e+002, 2.656876e-001
6.981049e+002, 2.666342e-001
7.000334e+002, 2.674829e-001
7.019619e+002, 2.680978e-001
7.038903e+002, 2.687306e-001
7.058188e+002, 2.694433e-001
7.077473e+002, 2.699657e-001
7.096757e+002, 2.706018e-001
7.116042e+002, 2.714331e-001
7.135327e+002, 2.722862e-001
7.154611e+002, 2.727410e-001
7.173896e+002, 2.729917e-001
7.193181e+002, 2.737248e-001
7.212465e+002, 2.742173e-001
7.231750e+002, 2.743879e-001
7.251035e+002, 2.747177e-001
7.270319e+002, 2.751274e-001
7.289604e+002, 2.754902e-001
7.308889e+002, 2.760547e-001
7.328173e+002, 2.763742e-001
7.347458e+002, 2.765119e-001
7.366743e+002, 2.764816e-001
7.386027e+002, 2.765154e-001
7.405312e+002, 2.767213e-001
7.424597e+002, 2.767613e-001
7.443881e+002, 2.764040e-001
7.463166e+002, 2.762972e-001
7.482451e+002, 2.761164e-001
7.501735e+002, 2.756504e-001
7.521020e+002, 2.750487e-001
7.540305e+002, 2.741551e-001
7.559589e+002, 2.732251e-001
7.578874e+002, 2.722569e-001
7.598159e+002, 2.708744e-001
7.617443e+002, 2.692335e-001
7.636728e+002, 2.670752e-001
7.656013e+002, 2.645544e-001
7.675297e+002, 2.619927e-001
7.694582e+002, 2.588968e-001
7.713867e+002, 2.549542e-001
7.733151e+002, 2.503017e-001
7.752436e+002, 2.451745e-001
7.771721e+002, 2.397849e-001
7.791005e+002, 2.345939e-001
7.810290e+002, 2.302004e-001
7.829575e+002, 2.263075e-001
7.848859e+002, 2.231535e-001
7.868144e+002, 2.209487e-001
7.887429e+002, 2.194707e-001
7.906713e+002, 2.183623e-001
7.925998e+002, 2.176097e-001
7.945283e+002, 2.168740e-001
7.964567e+002, 2.162738e-001
7.983852e+002, 2.157054e-001
8.003137e+002, 2.148053e-001
8.022421e+002, 2.134668e-001
8.041706e+002, 2.118759e-001
8.060991e+002, 2.101243e-001
8.080275e+002, 2.079605e-001
8.099560e+002, 2.051846e-001
8.118845e+002, 2.019289e-001
8.138129e+002, 1.985414e-001
8.157414e+002, 1.951385e-001
8.176699e+002, 1.916482e-001
8.195983e+002, 1.875793e-001
8.215268e+002, 1.830466e-001
8.234553e+002, 1.788142e-001
8.253837e+002, 1.752564e-001
8.273122e+002, 1.725126e-001
8.292407e+002, 1.703117e-001
8.311691e+002, 1.686238e-001
8.330976e+002, 1.672983e-001
8.350261e+002, 1.664481e-001
8.369545e+002, 1.657765e-001
8.388830e+002, 1.653919e-001
8.408115e+002, 1.650902e-001
8.427399e+002, 1.643791e-001
8.446684e+002, 1.627397e-001
8.465969e+002, 1.604716e-001
8.485253e+002, 1.580881e-001
8.504538e+002, 1.562917e-001
8.523823e+002, 1.553032e-001
8.543107e+002, 1.549425e-001
8.562392e+002, 1.553804e-001
8.581677e+002, 1.569530e-001
8.600961e+002, 1.595432e-001
8.620246e+002, 1.618821e-001
8.639531e+002, 1.627369e-001
8.658815e+002, 1.614444e-001
8.678100e+002, 1.582891e-001
8.697385e+002, 1.543115e-001
8.716669e+002, 1.500647e-001
8.735954e+002, 1.459083e-001
8.755239e+002, 1.417367e-001
8.774523e+002, 1.375727e-001
8.793808e+002, 1.333832e-001
8.813093e+002, 1.293804e-001
8.832377e+002, 1.252604e-001
8.851662e+002, 1.210433e-001
8.870947e+002, 1.166077e-001
8.890231e+002, 1.120583e-001
8.909516e+002, 1.080280e-001
8.928801e+002, 1.053453e-001
8.948085e+002, 1.049581e-001
8.967370e+002, 1.073199e-001
8.986655e+002, 1.117615e-001
9.005939e+002, 1.167528e-001
9.025224e+002, 1.205237e-001
9.044509e+002, 1.213216e-001
9.063793e+002, 1.189024e-001
9.083078e+002, 1.139929e-001
9.102363e+002, 1.079108e-001
9.121647e+002, 1.015321e-001
9.140932e+002, 9.553713e-002
9.160217e+002, 9.034158e-002
9.179501e+002, 8.581677e-002
9.198786e+002, 8.169840e-002
9.218071e+002, 7.791869e-002
9.237355e+002, 7.545878e-002
9.256640e+002, 7.593384e-002
9.275925e+002, 8.078256e-002
9.295209e+002, 9.078626e-002
9.314494e+002, 1.054419e-001
9.333779e+002, 1.207176e-001
9.353063e+002, 1.257901e-001
9.372348e+002, 1.140828e-001
9.391633e+002, 9.711660e-002
9.410917e+002, 8.920277e-002
9.430202e+002, 9.005268e-002
9.449487e+002, 9.305552e-002
9.468771e+002, 9.495168e-002
9.488056e+002, 9.535006e-002
9.507341e+002, 9.467471e-002
9.526625e+002, 9.333608e-002
9.545910e+002, 9.150510e-002
9.565195e+002, 8.931550e-002
9.584479e+002, 8.687518e-002
9.603764e+002, 8.419293e-002
9.623049e+002, 8.142345e-002
9.642333e+002, 7.850392e-002
9.661618e+002, 7.540070e-002
9.680903e+002, 7.198793e-002
9.700187e+002, 6.842281e-002
9.719472e+002, 6.461117e-002
9.738757e+002, 6.063781e-002
9.758041e+002, 5.641544e-002
9.777326e+002, 5.182471e-002
9.796611e+002, 4.691713e-002
9.815895e+002, 4.166917e-002
9.835180e+002, 3.626645e-002
9.854465e+002, 3.104913e-002
9.873749e+002, 2.689845e-002
9.893034e+002, 2.411018e-002
9.912319e+002, 2.224539e-002
9.931603e+002, 2.091194e-002
9.950888e+002, 1.996951e-002
9.970173e+002, 1.939195e-002
9.989457e+002, 1.899961e-002
1.000874e+003, 1.870938e-002
1.002803e+003, 1.853180e-002
1.004731e+003, 1.820412e-002
1.006660e+003, 1.778510e-002
1.008588e+003, 1.748756e-002
1.010517e+003, 1.712062e-002
1.012445e+003, 1.674029e-002
1.014373e+003, 1.643293e-002
1.016302e+003, 1.619382e-002
1.018230e+003, 1.582147e-002
1.020159e+003, 1.563365e-002
1.022087e+003, 1.548134e-002
1.024016e+003, 1.526714e-002
1.025944e+003, 1.514661e-002
1.027873e+003, 1.500753e-002
1.029801e+003, 1.490740e-002
1.031730e+003, 1.476591e-002
1.033658e+003, 1.444449e-002
1.035587e+003, 1.414116e-002
1.037515e+003, 1.383646e-002
1.039443e+003, 1.353151e-002
1.041372e+003, 1.330503e-002
1.043300e+003, 1.313245e-002
1.045229e+003, 1.288104e-002
1.047157e+003, 1.255014e-002
1.049086e+003, 1.238073e-002
1.051014e+003, 1.224013e-002
1.052943e+003, 1.211568e-002
1.054871e+003, 1.209663e-002
1.056800e+003, 1.195293e-002
1.058728e+003, 1.178485e-002
1.060657e+003, 1.178883e-002
1.062585e+003, 1.194920e-002
1.064514e+003, 1.198457e-002
1.066442e+003, 1.199341e-002
1.068370e+003, 1.210069e-002
1.070299e+003, 1.216694e-002
1.072227e+003, 1.217738e-002
1.074156e+003, 1.214529e-002
1.076084e+003, 1.209069e-002
1.078013e+003, 1.204414e-002
1.079941e+003, 1.190509e-002
1.081870e+003, 1.173045e-002
1.083798e+003, 1.174190e-002
1.085727e+003, 1.172285e-002
1.087655e+003, 1.166266e-002
1.089584e+003, 1.169592e-002
1.091512e+003, 1.167744e-002
1.093441e+003, 1.164968e-002
1.095369e+003, 1.157680e-002
1.097297e+003, 1.139919e-002
1.099226e+003, 1.139333e-002
1.101154e+003, 1.152644e-002
1.103083e+003, 1.158123e-002
1.105011e+003, 1.159123e-002
1.106940e+003, 1.155939e-002
1.108868e+003, 1.150547e-002
1.110797e+003, 1.140528e-002
1.112725e+003, 1.150723e-002
1.114654e+003, 1.158857e-002
1.116582e+003, 1.156860e-002
1.118511e+003, 1.172023e-002
1.120439e+003, 1.184694e-002
1.122368e+003, 1.192178e-002
1.124296e+003, 1.206337e-002
1.126224e+003, 1.215571e-002
1.128153e+003, 1.231918e-002
1.130081e+003, 1.252815e-002
1.132010e+003, 1.268230e-002
1.133938e+003, 1.288772e-002
1.135867e+003, 1.307591e-002
1.137795e+003, 1.315475e-002
1.139724e+003, 1.343083e-002
1.141652e+003, 1.365960e-002
1.143581e+003, 1.392492e-002
1.145509e+003, 1.433660e-002
1.147438e+003, 1.465888e-002
1.149366e+003, 1.502237e-002
1.151295e+003, 1.544708e-002
1.153223e+003, 1.597386e-002
1.155151e+003, 1.627627e-002
1.157080e+003, 1.626713e-002
1.159008e+003, 1.624521e-002
1.160937e+003, 1.622104e-002
1.162865e+003, 1.629144e-002
1.164794e+003, 1.631136e-002
1.166722e+003, 1.622411e-002
1.168651e+003, 1.626464e-002
1.170579e+003, 1.636506e-002
1.172508e+003, 1.639186e-002
1.174436e+003, 1.646600e-002
1.176365e+003, 1.655673e-002
1.178293e+003, 1.676848e-002
1.180222e+003, 1.696288e-002
1.182150e+003, 1.717238e-002
1.184078e+003, 1.736460e-002
1.186007e+003, 1.751983e-002
1.187935e+003, 1.780587e-002
1.189864e+003, 1.812697e-002
1.191792e+003, 1.832730e-002
1.193721e+003, 1.863539e-002
1.195649e+003, 1.886582e-002
1.197578e+003, 1.911307e-002
1.199506e+003, 1.937814e-002
1.201435e+003, 1.958881e-002
1.203363e+003, 1.980902e-002
1.205292e+003, 2.007040e-002
1.207220e+003, 2.020352e-002
1.209149e+003, 2.023217e-002
1.211077e+003, 2.029180e-002
1.213005e+003, 2.022942e-002
1.214934e+003, 2.023929e-002
1.216862e+003, 2.042771e-002
1.218791e+003, 2.061444e-002
1.220719e+003, 2.072036e-002
1.222648e+003, 2.080959e-002
1.224576e+003, 2.094682e-002
1.226505e+003, 2.101198e-002
1.228433e+003, 2.096572e-002
1.230362e+003, 2.096259e-002
1.232290e+003, 2.121601e-002
1.234219e+003, 2.150065e-002
1.236147e+003, 2.153621e-002
1.238076e+003, 2.150242e-002
1.240004e+003, 2.158159e-002
1.241932e+003, 2.167379e-002
1.243861e+003, 2.180575e-002
1.245789e+003, 2.183530e-002
1.247718e+003, 2.181999e-002
1.249646e+003, 2.192804e-002
1.251575e+003, 2.221100e-002
1.253503e+003, 2.243467e-002
1.255432e+003, 2.254175e-002
1.257360e+003, 2.253092e-002
1.259289e+003, 2.267141e-002
1.261217e+003, 2.287686e-002
1.263146e+003, 2.301654e-002
1.265074e+003, 2.317868e-002
1.267003e+003, 2.335534e-002
1.268931e+003, 2.347280e-002
1.270859e+003, 2.362545e-002
1.272788e+003, 2.376066e-002
1.274716e+003, 2.390995e-002
1.276645e+003, 2.411610e-002
1.278573e+003, 2.410169e-002
1.280502e+003, 2.419738e-002
1.282430e+003, 2.447668e-002
1.284359e+003, 2.455489e-002
1.286287e+003, 2.459644e-002
1.288216e+003, 2.480271e-002
1.290144e+003, 2.503778e-002
1.292073e+003, 2.519874e-002
1.294001e+003, 2.536354e-002
1.295930e+003, 2.558182e-002
1.297858e+003, 2.578516e-002
1.299786e+003, 2.594224e-002
1.301715e+003, 2.609373e-002
1.303643e+003, 2.626598e-002
1.305572e+003, 2.659804e-002
1.307500e+003, 2.676843e-002
1.309429e+003, 2.686335e-002
1.311357e+003, 2.700857e-002
1.313286e+003, 2.718956e-002
1.315214e+003, 2.719174e-002
1.317143e+003, 2.730457e-002
1.319071e+003, 2.736389e-002
1.321000e+003, 2.734082e-002
1.322928e+003, 2.749973e-002
1.324857e+003, 2.773160e-002
1.326785e+003, 2.784273e-002
1.328714e+003, 2.795210e-002
1.330642e+003, 2.803075e-002
1.332570e+003, 2.808046e-002
1.334499e+003, 2.812249e-002
1.336427e+003, 2.825815e-002
1.338356e+003, 2.844872e-002
1.340284e+003, 2.861789e-002
1.342213e+003, 2.872246e-002
1.344141e+003, 2.882357e-002
1.346070e+003, 2.890082e-002
1.347998e+003, 2.894250e-002
1.349927e+003, 2.912830e-002
1.351855e+003, 2.930785e-002
1.353784e+003, 2.945911e-002
1.355712e+003, 2.955747e-002
1.357641e+003, 2.971253e-002
1.359569e+003, 2.996289e-002
1.361497e+003, 3.013474e-002
1.363426e+003, 3.019549e-002
1.365354e+003, 3.029647e-002
1.367283e+003, 3.061829e-002
1.369211e+003, 3.091097e-002
1.371140e+003, 3.113361e-002
1.373068e+003, 3.145963e-002
1.374997e+003, 3.175807e-002
1.376925e+003, 3.200343e-002
1.378854e+003, 3.220526e-002
1.380782e+003, 3.235725e-002
1.382711e+003, 3.258994e-002
1.384639e+003, 3.270152e-002
1.386568e+003, 3.299088e-002
1.388496e+003, 3.331373e-002
1.390424e+003, 3.352371e-002
1.392353e+003, 3.379409e-002
1.394281e+003, 3.419709e-002
1.396210e+003, 3.452611e-002
1.398138e+003, 3.474419e-002
1.400067e+003, 3.502205e-002
1.401995e+003, 3.526164e-002
1.403924e+003, 3.544172e-002
1.405852e+003, 3.560722e-002
1.407781e+003, 3.580986e-002
1.409709e+003, 3.623627e-002
1.411638e+003, 3.653596e-002
1.413566e+003, 3.670569e-002
1.415495e+003, 3.695755e-002
1.417423e+003, 3.735244e-002
1.419351e+003, 3.787656e-002
1.421280e+003, 3.804607e-002
1.423208e+003, 3.819836e-002
1.425137e+003, 3.842897e-002
1.427065e+003, 3.861487e-002
1.428994e+003, 3.905449e-002
1.430922e+003, 3.940496e-002
1.432851e+003, 3.975451e-002
1.434779e+003, 4.025823e-002
1.436708e+003, 4.069881e-002
1.438636e+003, 4.086126e-002
1.440565e+003, 4.118296e-002
1.442493e+003, 4.155329e-002
1.444422e+003, 4.189739e-002
1.446350e+003, 4.231812e-002
1.448278e+003, 4.266263e-002
1.450207e+003, 4.286617e-002
1.452135e+003, 4.330225e-002
1.454064e+003, 4.379538e-002
1.455992e+003, 4.451402e-002
1.457921e+003, 4.477623e-002
1.459849e+003, 4.469769e-002
1.461778e+003, 4.495395e-002
1.463706e+003, 4.531167e-002
1.465635e+003, 4.557448e-002
1.467563e+003, 4.575789e-002
1.469492e+003, 4.584815e-002
1.471420e+003, 4.610516e-002
1.473349e+003, 4.639665e-002
1.475277e+003, 4.651798e-002
1.477205e+003, 4.669460e-002
1.479134e+003, 4.695952e-002
1.481062e+003, 4.730083e-002
1.482991e+003, 4.765696e-002
1.484919e+003, 4.809515e-002
1.486848e+003, 4.842705e-002
1.488776e+003, 4.876412e-002
1.490705e+003, 4.915573e-002
1.492633e+003, 4.951611e-002
1.494562e+003, 5.005689e-002
1.496490e+003, 5.057294e-002
1.498419e+003, 5.092551e-002
1.500347e+003, 5.127006e-002
1.502276e+003, 5.164713e-002
1.504204e+003, 5.240955e-002
1.506132e+003, 5.326110e-002
1.508061e+003, 5.341484e-002
1.509989e+003, 5.349569e-002
1.511918e+003, 5.380239e-002
1.513846e+003, 5.424188e-002
1.515775e+003, 5.498389e-002
1.517703e+003, 5.546618e-002
1.519632e+003, 5.590548e-002
1.521560e+003, 5.641473e-002
1.523489e+003, 5.660246e-002
1.525417e+003, 5.687053e-002
1.527346e+003, 5.722073e-002
1.529274e+003, 5.766743e-002
1.531203e+003, 5.817590e-002
1.533131e+003, 5.875889e-002
1.535059e+003, 5.904890e-002
1.536988e+003, 5.954705e-002
1.538916e+003, 6.055391e-002
1.540845e+003, 6.099802e-002
1.542773e+003, 6.099329e-002
1.544702e+003, 6.114499e-002
1.546630e+003, 6.148050e-002
1.548559e+003, 6.206593e-002
1.550487e+003, 6.258215e-002
1.552416e+003, 6.298085e-002
1.554344e+003, 6.345989e-002
1.556273e+003, 6.403380e-002
1.558201e+003, 6.502686e-002
1.560130e+003, 6.543487e-002
1.562058e+003, 6.527101e-002
1.563986e+003, 6.556598e-002
1.565915e+003, 6.607211e-002
1.567843e+003, 6.664159e-002
1.569772e+003, 6.724086e-002
1.571700e+003, 6.760775e-002
1.573629e+003, 6.798656e-002
1.575557e+003, 6.864515e-002
1.577486e+003, 6.902856e-002
1.579414e+003, 6.940605e-002
1.581343e+003, 7.001307e-002
1.583271e+003, 7.064500e-002
1.585200e+003, 7.137891e-002
1.587128e+003, 7.193648e-002
1.589057e+003, 7.227875e-002
1.590985e+003, 7.277236e-002
1.592913e+003, 7.332910e-002
1.594842e+003, 7.373039e-002
1.596770e+003, 7.413176e-002
1.598699e+003, 7.473958e-002
1.600627e+003, 7.534867e-002
1.602556e+003, 7.573861e-002
1.604484e+003, 7.608592e-002
1.606413e+003, 7.652143e-002
1.608341e+003, 7.710891e-002
1.610270e+003, 7.770591e-002
1.612198e+003, 7.824869e-002
1.614127e+003, 7.870068e-002
1.616055e+003, 7.940011e-002
1.617984e+003, 7.993178e-002
1.619912e+003, 8.020774e-002
1.621840e+003, 8.073542e-002
1.623769e+003, 8.131905e-002
1.625697e+003, 8.168946e-002
1.627626e+003, 8.198722e-002
1.629554e+003, 8.241180e-002
1.631483e+003, 8.264835e-002
1.633411e+003, 8.307339e-002
1.635340e+003, 8.368165e-002
1.637268e+003, 8.374664e-002
1.639197e+003, 8.379744e-002
1.641125e+003, 8.407589e-002
1.643054e+003, 8.437355e-002
1.644982e+003, 8.490827e-002
1.646911e+003, 8.545708e-002
1.648839e+003, 8.538053e-002
1.650767e+003, 8.584135e-002
1.652696e+003, 8.690359e-002
1.654624e+003, 8.666468e-002
1.656553e+003, 8.626267e-002
1.658481e+003, 8.655064e-002
1.660410e+003, 8.697967e-002
1.662338e+003, 8.737847e-002
1.664267e+003, 8.753710e-002
1.666195e+003, 8.765349e-002
1.668124e+003, 8.810690e-002
1.670052e+003, 8.837363e-002
1.671981e+003, 8.838119e-002
1.673909e+003, 8.879716e-002
1.675838e+003, 8.930884e-002
1.677766e+003, 8.937240e-002
1.679694e+003, 8.962023e-002
1.681623e+003, 8.993496e-002
1.683551e+003, 9.067291e-002
1.685480e+003, 9.089614e-002
1.687408e+003, 9.063150e-002
1.689337e+003, 9.082174e-002
1.691265e+003, 9.110600e-002
1.693194e+003, 9.130769e-002
1.695122e+003, 9.178583e-002
1.697051e+003, 9.203084e-002
1.698979e+003, 9.243289e-002
1.700908e+003, 9.258074e-002
1.702836e+003, 9.208725e-002
1.704765e+003, 9.209239e-002
1.706693e+003, 9.218741e-002
1.708621e+003, 9.221407e-002
1.710550e+003, 9.226495e-002
1.712478e+003, 9.244941e-002
1.714407e+003, 9.281395e-002
1.716335e+003, 9.333390e-002
1.718264e+003, 9.342645e-002
1.720192e+003, 9.316240e-002
1.722121e+003, 9.297145e-002
1.724049e+003, 9.289802e-002
1.725978e+003, 9.289557e-002
1.727906e+003, 9.317753e-002
1.729835e+003, 9.340198e-002
1.731763e+003, 9.362775e-002
1.733692e+003, 9.390600e-002
1.735620e+003, 9.351452e-002
1.737548e+003, 9.337751e-002
1.739477e+003, 9.358200e-002
1.741405e+003, 9.341920e-002
1.743334e+003, 9.324408e-002
1.745262e+003, 9.323748e-002
1.747191e+003, 9.339282e-002
1.749119e+003, 9.357443e-002
1.751048e+003, 9.387798e-002
1.752976e+003, 9.396974e-002
1.754905e+003, 9.410667e-002
1.756833e+003, 9.426851e-002
1.758762e+003, 9.435498e-002
1.760690e+003, 9.477720e-002
1.762619e+003, 9.521004e-002
1.764547e+003, 9.544703e-002
1.766475e+003, 9.564582e-002
1.768404e+003, 9.577718e-002
1.770332e+003, 9.611597e-002
1.772261e+003, 9.658613e-002
1.774189e+003, 9.671450e-002
1.776118e+003, 9.680874e-002
1.778046e+003, 9.713764e-002
1.779975e+003, 9.761274e-002
1.781903e+003, 9.791755e-002
1.783832e+003, 9.813931e-002
1.785760e+003, 9.838712e-002
1.787689e+003, 9.853177e-002
1.789617e+003, 9.873413e-002
1.791546e+003, 9.915354e-002
1.793474e+003, 9.944066e-002
1.795402e+003, 9.949569e-002
1.797331e+003, 9.957468e-002
1.799259e+003, 9.972148e-002
1.801188e+003, 9.970734e-002
1.803116e+003, 9.961961e-002
1.805045e+003, 9.951033e-002
1.806973e+003, 9.957395e-002
1.808902e+003, 9.981347e-002
1.810830e+003, 1.002070e-001
1.812759e+003, 1.002178e-001
1.814687e+003, 1.002311e-001
1.816616e+003, 1.006072e-001
1.818544e+003, 1.015008e-001
1.820473e+003, 1.023795e-001
1.822401e+003, 1.028394e-001
1.824329e+003, 1.031915e-001
1.826258e+003, 1.034382e-001
1.828186e+003, 1.038002e-001
1.830115e+003, 1.041862e-001
1.832043e+003, 1.044133e-001
1.833972e+003, 1.046927e-001
1.835900e+003, 1.047688e-001
1.837829e+003, 1.050696e-001
1.839757e+003, 1.052473e-001
1.841686e+003, 1.052809e-001
1.843614e+003, 1.054193e-001
1.845543e+003, 1.055157e-001
1.847471e+003, 1.053811e-001
1.849400e+003, 1.053428e-001
1.851328e+003, 1.055512e-001
1.853256e+003, 1.058236e-001
1.855185e+003, 1.057599e-001
1.857113e+003, 1.058830e-001
1.859042e+003, 1.061684e-001
1.860970e+003, 1.068133e-001
1.862899e+003, 1.070616e-001
1.864827e+003, 1.069651e-001
1.866756e+003, 1.071982e-001
1.868684e+003, 1.077236e-001
1.870613e+003, 1.081566e-001
1.872541e+003, 1.085952e-001
1.874470e+003, 1.087152e-001
1.876398e+003, 1.089478e-001
1.878327e+003, 1.092628e-001
1.880255e+003, 1.097042e-001
1.882183e+003, 1.099928e-001
1.884112e+003, 1.101196e-001
1.886040e+003, 1.104035e-001
1.887969e+003, 1.100865e-001
1.889897e+003, 1.099973e-001
1.891826e+003, 1.104058e-001
1.893754e+003, 1.105383e-001
1.895683e+003, 1.105971e-001
1.897611e+003, 1.107573e-001
1.899540e+003, 1.111389e-001
1.901468e+003, 1.110758e-001
1.903397e+003, 1.108878e-001
1.905325e+003, 1.108490e-001
1.907254e+003, 1.109414e-001
1.909182e+003, 1.114827e-001
1.911110e+003, 1.121304e-001
1.913039e+003, 1.123328e-001
1.914967e+003, 1.123931e-001
1.916896e+003, 1.125537e-001
1.918824e+003, 1.129403e-001
1.920753e+003, 1.125633e-001
1.922681e+003, 1.126729e-001
1.924610e+003, 1.130686e-001
1.926538e+003, 1.132226e-001
1.928467e+003, 1.134539e-001
1.930395e+003, 1.138924e-001
1.932324e+003, 1.147232e-001
1.934252e+003, 1.147835e-001
1.936181e+003, 1.143703e-001
1.938109e+003, 1.146289e-001
1.940037e+003, 1.154345e-001
1.941966e+003, 1.159304e-001
1.943894e+003, 1.164621e-001
1.945823e+003, 1.168287e-001
1.947751e+003, 1.173847e-001
1.949680e+003, 1.184608e-001
1.951608e+003, 1.178587e-001
1.953537e+003, 1.173353e-001
1.955465e+003, 1.177596e-001
1.957394e+003, 1.179381e-001
1.959322e+003, 1.191785e-001
1.961251e+003, 1.198862e-001
1.963179e+003, 1.205498e-001
1.965108e+003, 1.213506e-001
1.967036e+003, 1.217723e-001
1.968964e+003, 1.223401e-001
1.970893e+003, 1.225147e-001
1.972821e+003, 1.230206e-001
1.974750e+003, 1.228996e-001
1.976678e+003, 1.242943e-001
1.978607e+003, 1.275741e-001
1.980535e+003, 1.279785e-001
1.982464e+003, 1.270694e-001
1.984392e+003, 1.267274e-001
1.986321e+003, 1.266561e-001
1.988249e+003, 1.265379e-001
1.990178e+003, 1.265243e-001
1.992106e+003, 1.269216e-001
1.994035e+003, 1.275394e-001
1.995963e+003, 1.277235e-001
1.997891e+003, 1.278138e-001
1.999820e+003, 1.275454e-001
2.001748e+003, 1.269907e-001
2.003677e+003, 1.270556e-001
2.005605e+003, 1.266978e-001
2.007534e+003, 1.270325e-001
2.009462e+003, 1.277994e-001
2.011391e+003, 1.283080e-001
2.013319e+003, 1.297990e-001
2.015248e+003, 1.304524e-001
2.017176e+003, 1.305003e-001
2.019105e+003, 1.307688e-001
2.021033e+003, 1.305584e-001
2.022962e+003, 1.301595e-001
2.024890e+003, 1.304661e-001
2.026818e+003, 1.311414e-001
2.028747e+003, 1.322344e-001
2.030675e+003, 1.327717e-001
2.032604e+003, 1.328493e-001
2.034532e+003, 1.332160e-001
2.036461e+003, 1.331341e-001
2.038389e+003, 1.333878e-001
2.040318e+003, 1.337923e-001
2.042246e+003, 1.342860e-001
2.044175e+003, 1.349244e-001
2.046103e+003, 1.347478e-001
2.048031e+003, 1.351018e-001
2.049960e+003, 1.360545e-001
2.051888e+003, 1.351900e-001
2.053817e+003, 1.344989e-001
2.055745e+003, 1.350991e-001
2.057674e+003, 1.349717e-001
2.059602e+003, 1.349448e-001
2.061531e+003, 1.349337e-001
2.063459e+003, 1.351385e-001
2.065388e+003, 1.357562e-001
2.067316e+003, 1.361450e-001
2.069245e+003, 1.361782e-001
2.071173e+003, 1.364988e-001
2.073102e+003, 1.369019e-001
2.075030e+003, 1.366652e-001
2.076958e+003, 1.367464e-001
2.078887e+003, 1.374518e-001
2.080815e+003, 1.378521e-001
2.082744e+003, 1.382344e-001
2.084672e+003, 1.382682e-001
2.086601e+003, 1.375130e-001
2.088529e+003, 1.372961e-001
2.090458e+003, 1.372729e-001
2.092386e+003, 1.376277e-001
2.094315e+003, 1.383196e-001
2.096243e+003, 1.392271e-001
2.098172e+003, 1.401662e-001
2.100100e+003, 1.406085e-001
2.102029e+003, 1.407564e-001
2.103957e+003, 1.409561e-001
2.105885e+003, 1.409333e-001
2.107814e+003, 1.409556e-001
2.109742e+003, 1.415725e-001
2.111671e+003, 1.418056e-001
2.113599e+003, 1.417075e-001
2.115528e+003, 1.420204e-001
2.117456e+003, 1.414863e-001
2.119385e+003, 1.405628e-001
2.121313e+003, 1.403338e-001
2.123242e+003, 1.408941e-001
2.125170e+003, 1.412701e-001
2.127099e+003, 1.413480e-001
2.129027e+003, 1.411407e-001
2.130956e+003, 1.411318e-001
2.132884e+003, 1.410760e-001
2.134813e+003, 1.414449e-001
2.136741e+003, 1.428851e-001
2.138669e+003, 1.438890e-001
2.140598e+003, 1.437213e-001
2.142526e+003, 1.428231e-001
2.144455e+003, 1.426318e-001
2.146383e+003, 1.433623e-001
2.148312e+003, 1.442779e-001
2.150240e+003, 1.448617e-001
2.152169e+003, 1.441713e-001
2.154097e+003, 1.437836e-001
2.156026e+003, 1.430540e-001
2.157954e+003, 1.443718e-001
2.159883e+003, 1.478210e-001
2.161811e+003, 1.501715e-001
2.163740e+003, 1.515744e-001
2.165668e+003, 1.517428e-001
2.167596e+003, 1.510323e-001
2.169525e+003, 1.505666e-001
2.171453e+003, 1.500195e-001
2.173382e+003, 1.500350e-001
2.175310e+003, 1.498803e-001
2.177239e+003, 1.500554e-001
2.179167e+003, 1.508882e-001
2.181096e+003, 1.516020e-001
2.183024e+003, 1.518078e-001
2.184953e+003, 1.521101e-001
2.186881e+003, 1.531300e-001
2.188810e+003, 1.533408e-001
2.190738e+003, 1.528759e-001
2.192667e+003, 1.530028e-001
2.194595e+003, 1.523858e-001
2.196523e+003, 1.527890e-001
2.198452e+003, 1.538169e-001
2.200380e+003, 1.546501e-001
2.202309e+003, 1.553429e-001
2.204237e+003, 1.551751e-001
2.206166e+003, 1.539943e-001
2.208094e+003, 1.543927e-001
2.210023e+003, 1.549283e-001
2.211951e+003, 1.549388e-001
2.213880e+003, 1.545601e-001
2.215808e+003, 1.545901e-001
2.217737e+003, 1.548361e-001
2.219665e+003, 1.551419e-001
2.221594e+003, 1.555325e-001
2.223522e+003, 1.561248e-001
2.225450e+003, 1.568949e-001
2.227379e+003, 1.569313e-001
2.229307e+003, 1.566083e-001
2.231236e+003, 1.564964e-001
2.233164e+003, 1.576022e-001
2.235093e+003, 1.582351e-001
2.237021e+003, 1.574662e-001
2.238950e+003, 1.572783e-001
2.240878e+003, 1.578958e-001
2.242807e+003, 1.588069e-001
2.244735e+003, 1.592294e-001
2.246664e+003, 1.589941e-001
2.248592e+003, 1.584414e-001
2.250521e+003, 1.577632e-001
2.252449e+003, 1.574828e-001
2.254377e+003, 1.583988e-001
2.256306e+003, 1.596013e-001
2.258234e+003, 1.598016e-001
2.260163e+003, 1.596776e-001
2.262091e+003, 1.597289e-001
2.264020e+003, 1.598317e-001
2.265948e+003, 1.603103e-001
2.267877e+003, 1.610301e-001
2.269805e+003, 1.613547e-001
2.271734e+003, 1.615398e-001
2.273662e+003, 1.619534e-001
2.275591e+003, 1.622130e-001
2.277519e+003, 1.622102e-001
2.279448e+003, 1.623877e-001
2.281376e+003, 1.621006e-001
2.283304e+003, 1.623635e-001
2.285233e+003, 1.634266e-001
2.287161e+003, 1.633319e-001
2.289090e+003, 1.630431e-001
2.291018e+003, 1.629277e-001
2.292947e+003, 1.629959e-001
2.294875e+003, 1.629025e-001
2.296804e+003, 1.628823e-001
2.298732e+003, 1.630815e-001
2.300661e+003, 1.630018e-001
2.302589e+003, 1.631188e-001
2.304518e+003, 1.636225e-001
2.306446e+003, 1.639770e-001
2.308375e+003, 1.640562e-001
2.310303e+003, 1.641997e-001
2.312231e+003, 1.645882e-001
2.314160e+003, 1.650829e-001
2.316088e+003, 1.654966e-001
2.318017e+003, 1.656073e-001
2.319945e+003, 1.662290e-001
2.321874e+003, 1.671784e-001
2.323802e+003, 1.678126e-001
2.325731e+003, 1.669673e-001
2.327659e+003, 1.660877e-001
2.329588e+003, 1.662214e-001
2.331516e+003, 1.664742e-001
2.333445e+003, 1.666675e-001
2.335373e+003, 1.669842e-001
2.337302e+003, 1.670626e-001
2.339230e+003, 1.672264e-001
2.341158e+003, 1.676145e-001
2.343087e+003, 1.673995e-001
2.345015e+003, 1.673766e-001
2.346944e+003, 1.673436e-001
2.348872e+003, 1.671776e-001
2.350801e+003, 1.676701e-001
2.352729e+003, 1.682841e-001
2.354658e+003, 1.688107e-001
2.356586e+003, 1.692522e-001
2.358515e+003, 1.700284e-001
2.360443e+003, 1.706589e-001
2.362372e+003, 1.705365e-001
2.364300e+003, 1.703605e-001
2.366229e+003, 1.701234e-001
2.368157e+003, 1.702193e-001
2.370085e+003, 1.701995e-001
2.372014e+003, 1.699144e-001
2.373942e+003, 1.698874e-001
2.375871e+003, 1.699363e-001
2.377799e+003, 1.701487e-001
2.379728e+003, 1.703742e-001
2.381656e+003, 1.703690e-001
2.383585e+003, 1.704441e-001
2.385513e+003, 1.706468e-001
2.387442e+003, 1.708734e-001
2.389370e+003, 1.711445e-001
2.391299e+003, 1.714493e-001
2.393227e+003, 1.718419e-001
2.395156e+003, 1.720787e-001
2.397084e+003, 1.724149e-001
2.399012e+003, 1.725946e-001
2.400941e+003, 1.729853e-001
2.402869e+003, 1.732340e-001
2.404798e+003, 1.730939e-001
2.406726e+003, 1.734614e-001
2.408655e+003, 1.744636e-001
2.410583e+003, 1.749982e-001
2.412512e+003, 1.751061e-001
2.414440e+003, 1.753370e-001
2.416369e+003, 1.755757e-001
2.418297e+003, 1.755974e-001
2.420226e+003, 1.758667e-001
2.422154e+003, 1.759453e-001
2.424083e+003, 1.760779e-001
2.426011e+003, 1.761194e-001
2.427939e+003, 1.766289e-001
2.429868e+003, 1.773740e-001
2.431796e+003, 1.773441e-001
2.433725e+003, 1.772497e-001
2.435653e+003, 1.778465e-001
2.437582e+003, 1.782161e-001
2.439510e+003, 1.781126e-001
2.441439e+003, 1.780718e-001
2.443367e+003, 1.781568e-001
2.445296e+003, 1.789615e-001
2.447224e+003, 1.797972e-001
2.449153e+003, 1.799504e-001
2.451081e+003, 1.801252e-001
2.453010e+003, 1.805179e-001
2.454938e+003, 1.807969e-001
2.456866e+003, 1.807399e-001
2.458795e+003, 1.808660e-001
2.460723e+003, 1.808379e-001
2.462652e+003, 1.809283e-001
2.464580e+003, 1.809549e-001
2.466509e+003, 1.809358e-001
2.468437e+003, 1.816412e-001
2.470366e+003, 1.822185e-001
2.472294e+003, 1.821156e-001
2.474223e+003, 1.817884e-001
2.476151e+003, 1.821257e-001
2.478080e+003, 1.826047e-001
2.480008e+003, 1.828460e-001
2.481937e+003, 1.830796e-001
2.483865e+003, 1.832236e-001
2.485793e+003, 1.832820e-001
2.487722e+003, 1.834530e-001
2.489650e+003, 1.838852e-001
2.491579e+003, 1.841679e-001
2.493507e+003, 1.845859e-001
2.495436e+003, 1.851343e-001
2.497364e+003, 1.852184e-001
2.499293e+003, 1.849072e-001
2.501221e+003, 1.849544e-001
2.503150e+003, 1.853650e-001
2.505078e+003, 1.858944e-001
2.507007e+003, 1.862387e-001
2.508935e+003, 1.859911e-001
2.510864e+003, 1.861991e-001
2.512792e+003, 1.868371e-001
2.514720e+003, 1.870194e-001
2.516649e+003, 1.870375e-001
2.518577e+003, 1.871178e-001
2.520506e+003, 1.873215e-001
2.522434e+003, 1.876298e-001
2.524363e+003, 1.879172e-001
2.526291e+003, 1.881767e-001
2.528220e+003, 1.886963e-001
2.530148e+003, 1.889309e-001
2.532077e+003, 1.889357e-001
2.534005e+003, 1.891918e-001
2.535934e+003, 1.896032e-001
2.537862e+003, 1.896995e-001
2.539791e+003, 1.897120e-001
2.541719e+003, 1.897049e-001
2.543647e+003, 1.897265e-001
2.545576e+003, 1.901575e-001
2.547504e+003, 1.904006e-001
2.549433e+003, 1.906186e-001
2.551361e+003, 1.911697e-001
2.553290e+003, 1.918117e-001
2.555218e+003, 1.919306e-001
2.557147e+003, 1.918963e-001
2.559075e+003, 1.920730e-001
2.561004e+003, 1.917893e-001
2.562932e+003, 1.920621e-001
2.564861e+003, 1.928913e-001
2.566789e+003, 1.927589e-001
2.568718e+003, 1.928853e-001
2.570646e+003, 1.934345e-001
2.572574e+003, 1.935725e-001
2.574503e+003, 1.936754e-001
2.576431e+003, 1.938634e-001
2.578360e+003, 1.935948e-001
2.580288e+003, 1.936495e-001
2.582217e+003, 1.941210e-001
2.584145e+003, 1.941424e-001
2.586074e+003, 1.944616e-001
2.588002e+003, 1.948109e-001
2.589931e+003, 1.951992e-001
2.591859e+003, 1.954848e-001
2.593788e+003, 1.954808e-001
2.595716e+003, 1.956423e-001
2.597645e+003, 1.956545e-001
2.599573e+003, 1.959142e-001
2.601501e+003, 1.960876e-001
2.603430e+003, 1.960266e-001
2.605358e+003, 1.965975e-001
2.607287e+003, 1.970190e-001
2.609215e+003, 1.970429e-001
2.611144e+003, 1.970128e-001
2.613072e+003, 1.971700e-001
2.615001e+003, 1.974422e-001
2.616929e+003, 1.976497e-001
2.618858e+003, 1.977965e-001
2.620786e+003, 1.980280e-001
2.622715e+003, 1.981797e-001
2.624643e+003, 1.985021e-001
2.626572e+003, 1.986100e-001
2.628500e+003, 1.985388e-001
2.630428e+003, 1.990977e-001
2.632357e+003, 1.993710e-001
2.634285e+003, 1.991916e-001
2.636214e+003, 1.993665e-001
2.638142e+003, 1.998375e-001
2.640071e+003, 2.000460e-001
2.641999e+003, 1.997431e-001
2.643928e+003, 1.998182e-001
2.645856e+003, 2.000135e-001
2.647785e+003, 2.001967e-001
2.649713e+003, 2.007615e-001
2.651642e+003, 2.010191e-001
2.653570e+003, 2.009473e-001
2.655499e+003, 2.010481e-001
2.657427e+003, 2.013606e-001
2.659355e+003, 2.014068e-001
2.661284e+003, 2.011949e-001
2.663212e+003, 2.013275e-001
2.665141e+003, 2.016344e-001
2.667069e+003, 2.018005e-001
2.668998e+003, 2.018016e-001
2.670926e+003, 2.018666e-001
2.672855e+003, 2.021671e-001
2.674783e+003, 2.025310e-001
2.676712e+003, 2.027900e-001
2.678640e+003, 2.027187e-001
2.680569e+003, 2.029410e-001
2.682497e+003, 2.030765e-001
2.684426e+003, 2.029017e-001
2.686354e+003, 2.031504e-001
2.688282e+003, 2.034338e-001
2.690211e+003, 2.036005e-001
2.692139e+003, 2.038821e-001
2.694068e+003, 2.043130e-001
2.695996e+003, 2.047082e-001
2.697925e+003, 2.049367e-001
2.699853e+003, 2.050995e-001
2.701782e+003, 2.050644e-001
2.703710e+003, 2.053162e-001
2.705639e+003, 2.057086e-001
2.707567e+003, 2.057644e-001
2.709496e+003, 2.058799e-001
2.711424e+003, 2.063446e-001
2.713353e+003, 2.064257e-001
2.715281e+003, 2.064069e-001
2.717209e+003, 2.067055e-001
2.719138e+003, 2.068891e-001
2.721066e+003, 2.069557e-001
2.722995e+003, 2.072489e-001
2.724923e+003, 2.075675e-001
2.726852e+003, 2.080525e-001
2.728780e+003, 2.082708e-001
2.730709e+003, 2.085070e-001
2.732637e+003, 2.087397e-001
2.734566e+003, 2.088059e-001
2.736494e+003, 2.087532e-001
2.738423e+003, 2.089865e-001
2.740351e+003, 2.093685e-001
2.742280e+003, 2.097695e-001
2.744208e+003, 2.099642e-001
2.746136e+003, 2.099420e-001
2.748065e+003, 2.099655e-001
2.749993e+003, 2.101989e-001
2.751922e+003, 2.106097e-001
2.753850e+003, 2.109465e-001
2.755779e+003, 2.111881e-001
2.757707e+003, 2.114259e-001
2.759636e+003, 2.115344e-001
2.761564e+003, 2.115424e-001
2.763493e+003, 2.115698e-001
2.765421e+003, 2.117056e-001
2.767350e+003, 2.120034e-001
2.769278e+003, 2.123100e-001
2.771207e+003, 2.126968e-001
2.773135e+003, 2.131653e-001
2.775063e+003, 2.133233e-001
2.776992e+003, 2.132787e-001
2.778920e+003, 2.134874e-001
2.780849e+003, 2.138619e-001
2.782777e+003, 2.140652e-001
2.784706e+003, 2.141502e-001
2.786634e+003, 2.146167e-001
2.788563e+003, 2.147607e-001
2.790491e+003, 2.148104e-001
2.792420e+003, 2.151589e-001
2.794348e+003, 2.154810e-001
2.796277e+003, 2.156644e-001
2.798205e+003, 2.159450e-001
2.800134e+003, 2.164079e-001
2.802062e+003, 2.167995e-001
2.803990e+003, 2.171674e-001
2.805919e+003, 2.173318e-001
2.807847e+003, 2.173475e-001
2.809776e+003, 2.175473e-001
2.811704e+003, 2.177145e-001
2.813633e+003, 2.179609e-001
2.815561e+003, 2.182134e-001
2.817490e+003, 2.185382e-001
2.819418e+003, 2.187840e-001
2.821347e+003, 2.190517e-001
2.823275e+003, 2.194833e-001
2.825204e+003, 2.196114e-001
2.827132e+003, 2.199077e-001
2.829061e+003, 2.205780e-001
2.830989e+003, 2.208403e-001
2.832917e+003, 2.212099e-001
2.834846e+003, 2.216990e-001
2.836774e+003, 2.220600e-001
2.838703e+003, 2.227076e-001
2.840631e+003, 2.233738e-001
2.842560e+003, 2.242168e-001
2.844488e+003, 2.249726e-001
2.846417e+003, 2.254501e-001
2.848345e+003, 2.257560e-001
2.850274e+003, 2.262187e-001
2.852202e+003, 2.265258e-001
2.854131e+003, 2.262560e-001
2.856059e+003, 2.260508e-001
2.857988e+003, 2.258148e-001
2.859916e+003, 2.254411e-001
2.861844e+003, 2.255130e-001
2.863773e+003, 2.257326e-001
2.865701e+003, 2.261395e-001
2.867630e+003, 2.264197e-001
2.869558e+003, 2.266473e-001
2.871487e+003, 2.267434e-001
2.873415e+003, 2.268024e-001
2.875344e+003, 2.272909e-001
2.877272e+003, 2.274789e-001
2.879201e+003, 2.274527e-001
2.881129e+003, 2.274747e-001
2.883058e+003, 2.276965e-001
2.884986e+003, 2.282967e-001
2.886915e+003, 2.287454e-001
2.888843e+003, 2.287041e-001
2.890771e+003, 2.289799e-001
2.892700e+003, 2.298561e-001
2.894628e+003, 2.305602e-001
2.896557e+003, 2.312343e-001
2.898485e+003, 2.317172e-001
2.900414e+003, 2.320246e-001
2.902342e+003, 2.325958e-001
2.904271e+003, 2.333870e-001
2.906199e+003, 2.339187e-001
2.908128e+003, 2.344881e-001
2.910056e+003, 2.349751e-001
2.911985e+003, 2.357062e-001
2.913913e+003, 2.364183e-001
2.915842e+003, 2.372385e-001
2.917770e+003, 2.376199e-001
2.919698e+003, 2.379410e-001
2.921627e+003, 2.385158e-001
2.923555e+003, 2.386460e-001
2.925484e+003, 2.381650e-001
2.927412e+003, 2.373523e-001
2.929341e+003, 2.369145e-001
2.931269e+003, 2.369460e-001
2.933198e+003, 2.366049e-001
2.935126e+003, 2.358674e-001
2.937055e+003, 2.353880e-001
2.938983e+003, 2.351501e-001
2.940912e+003, 2.348851e-001
2.942840e+003, 2.349502e-001
2.944769e+003, 2.352987e-001
2.946697e+003, 2.357703e-001
2.948625e+003, 2.358929e-001
2.950554e+003, 2.359519e-001
2.952482e+003, 2.362975e-001
2.954411e+003, 2.368792e-001
2.956339e+003, 2.370462e-001
2.958268e+003, 2.368975e-001
2.960196e+003, 2.369481e-001
2.962125e+003, 2.370629e-001
2.964053e+003, 2.366196e-001
2.965982e+003, 2.361233e-001
2.967910e+003, 2.360008e-001
2.969839e+003, 2.361596e-001
2.971767e+003, 2.361470e-001
2.973696e+003, 2.360083e-001
2.975624e+003, 2.358418e-001
2.977552e+003, 2.358393e-001
2.979481e+003, 2.361489e-001
2.981409e+003, 2.363470e-001
2.983338e+003, 2.362474e-001
2.985266e+003, 2.363729e-001
2.987195e+003, 2.366854e-001
2.989123e+003, 2.370065e-001
2.991052e+003, 2.373294e-001
2.992980e+003, 2.375208e-001
2.994909e+003, 2.377927e-001
2.996837e+003, 2.384854e-001
2.998766e+003, 2.390571e-001
3.000694e+003, 2.388963e-001
3.002623e+003, 2.389801e-001
3.004551e+003, 2.396566e-001
3.006479e+003, 2.400859e-001
3.008408e+003, 2.406006e-001
3.010336e+003, 2.408198e-001
3.012265e+003, 2.409933e-001
3.014193e+003, 2.413114e-001
3.016122e+003, 2.418898e-001
3.018050e+003, 2.421501e-001
3.019979e+003, 2.422382e-001
3.021907e+003, 2.428688e-001
3.023836e+003, 2.432169e-001
3.025764e+003, 2.431483e-001
3.027693e+003, 2.431247e-001
3.029621e+003, 2.437194e-001
3.031550e+003, 2.444661e-001
3.033478e+003, 2.446096e-001
3.035406e+003, 2.448702e-001
3.037335e+003, 2.457777e-001
3.039263e+003, 2.461786e-001
3.041192e+003, 2.459984e-001
3.043120e+003, 2.461297e-001
3.045049e+003, 2.463704e-001
3.046977e+003, 2.466015e-001
3.048906e+003, 2.470719e-001
3.050834e+003, 2.476394e-001
3.052763e+003, 2.481329e-001
3.054691e+003, 2.485245e-001
3.056620e+003, 2.489675e-001
3.058548e+003, 2.487594e-001
3.060477e+003, 2.487384e-001
3.062405e+003, 2.495658e-001
3.064333e+003, 2.506019e-001
3.066262e+003, 2.503771e-001
3.068190e+003, 2.501809e-001
3.070119e+003, 2.504880e-001
3.072047e+003, 2.511860e-001
3.073976e+003, 2.522227e-001
3.075904e+003, 2.528816e-001
3.077833e+003, 2.530795e-001
3.079761e+003, 2.533948e-001
3.081690e+003, 2.538893e-001
3.083618e+003, 2.540068e-001
3.085547e+003, 2.544598e-001
3.087475e+003, 2.547219e-001
3.089404e+003, 2.548724e-001
3.091332e+003, 2.549987e-001
3.093260e+003, 2.554067e-001
3.095189e+003, 2.562580e-001
3.097117e+003, 2.569116e-001
3.099046e+003, 2.574141e-001
3.100974e+003, 2.580333e-001
3.102903e+003, 2.582971e-001
3.104831e+003, 2.583806e-001
3.106760e+003, 2.589814e-001
3.108688e+003, 2.592320e-001
3.110617e+003, 2.594046e-001
3.112545e+003, 2.600167e-001
3.114474e+003, 2.603196e-001
3.116402e+003, 2.607042e-001
3.118331e+003, 2.612350e-001
3.120259e+003, 2.618980e-001
3.122188e+003, 2.624784e-001
3.124116e+003, 2.623709e-001
3.126044e+003, 2.624713e-001
3.127973e+003, 2.633536e-001
3.129901e+003, 2.640693e-001
3.131830e+003, 2.647192e-001
3.133758e+003, 2.650784e-001
3.135687e+003, 2.653105e-001
3.137615e+003, 2.661115e-001
3.139544e+003, 2.664387e-001
3.141472e+003, 2.670207e-001
3.143401e+003, 2.675851e-001
3.145329e+003, 2.678553e-001
3.147258e+003, 2.682725e-001
3.149186e+003, 2.689353e-001
3.151115e+003, 2.694018e-001
3.153043e+003, 2.699950e-001
3.154971e+003, 2.712615e-001
3.156900e+003, 2.723072e-001
3.158828e+003, 2.721170e-001
3.160757e+003, 2.720988e-001
3.162685e+003, 2.729300e-001
3.164614e+003, 2.735845e-001
3.166542e+003, 2.738768e-001
3.168471e+003, 2.743380e-001
3.170399e+003, 2.749456e-001
3.172328e+003, 2.757932e-001
3.174256e+003, 2.762498e-001
3.176185e+003, 2.766312e-001
3.178113e+003, 2.772742e-001
3.180042e+003, 2.777607e-001
3.181970e+003, 2.782547e-001
3.183898e+003, 2.788174e-001
3.185827e+003, 2.793840e-001
3.187755e+003, 2.795760e-001
3.189684e+003, 2.799838e-001
3.191612e+003, 2.804045e-001
3.193541e+003, 2.807738e-001
3.195469e+003, 2.817436e-001
3.197398e+003, 2.828427e-001
3.199326e+003, 2.830936e-001
3.201255e+003, 2.834016e-001
3.203183e+003, 2.840718e-001
3.205112e+003, 2.845286e-001
3.207040e+003, 2.852682e-001
3.208969e+003, 2.854289e-001
3.210897e+003, 2.854091e-001
3.212825e+003, 2.864555e-001
3.214754e+003, 2.879015e-001
3.216682e+003, 2.887778e-001
3.218611e+003, 2.891191e-001
3.220539e+003, 2.893606e-001
3.222468e+003, 2.898026e-001
3.224396e+003, 2.911035e-001
3.226325e+003, 2.924305e-001
3.228253e+003, 2.934609e-001
3.230182e+003, 2.943791e-001
3.232110e+003, 2.952749e-001
3.234039e+003, 2.957849e-001
3.235967e+003, 2.961127e-001
3.237896e+003, 2.972002e-001
3.239824e+003, 2.980244e-001
3.241752e+003, 2.983533e-001
3.243681e+003, 2.993303e-001
3.245609e+003, 3.009559e-001
3.247538e+003, 3.020499e-001
3.249466e+003, 3.022903e-001
3.251395e+003, 3.021100e-001
3.253323e+003, 3.025237e-001
3.255252e+003, 3.032322e-001
3.257180e+003, 3.037135e-001
3.259109e+003, 3.036691e-001
3.261037e+003, 3.035676e-001
3.262966e+003, 3.042666e-001
3.264894e+003, 3.042107e-001
3.266823e+003, 3.037705e-001
3.268751e+003, 3.040678e-001
3.270679e+003, 3.044221e-001
3.272608e+003, 3.044201e-001
3.274536e+003, 3.038490e-001
3.276465e+003, 3.039473e-001
3.278393e+003, 3.043986e-001
3.280322e+003, 3.046078e-001
3.282250e+003, 3.047649e-001
3.284179e+003, 3.051286e-001
3.286107e+003, 3.049482e-001
3.288036e+003, 3.051724e-001
3.289964e+003, 3.056595e-001
3.291893e+003, 3.065017e-001
3.293821e+003, 3.075165e-001
3.295750e+003, 3.083737e-001
3.297678e+003, 3.095154e-001
3.299606e+003, 3.107743e-001
3.301535e+003, 3.120556e-001
3.303463e+003, 3.138374e-001
3.305392e+003, 3.157434e-001
3.307320e+003, 3.174028e-001
3.309249e+003, 3.188404e-001
3.311177e+003, 3.209477e-001
3.313106e+003, 3.231904e-001
3.315034e+003, 3.248968e-001
3.316963e+003, 3.266873e-001
3.318891e+003, 3.290069e-001
3.320820e+003, 3.319998e-001
3.322748e+003, 3.346353e-001
3.324677e+003, 3.375218e-001
3.326605e+003, 3.402713e-001
3.328533e+003, 3.422597e-001
3.330462e+003, 3.444690e-001
3.332390e+003, 3.466286e-001
3.334319e+003, 3.481724e-001
3.336247e+003, 3.486657e-001
3.338176e+003, 3.477486e-001
3.340104e+003, 3.457286e-001
3.342033e+003, 3.420526e-001
3.343961e+003, 3.360257e-001
3.345890e+003, 3.280133e-001
3.347818e+003, 3.189477e-001
3.349747e+003, 3.105743e-001
3.351675e+003, 3.028424e-001
3.353604e+003, 2.948067e-001
3.355532e+003, 2.875726e-001
3.357460e+003, 2.816171e-001
3.359389e+003, 2.771696e-001
3.361317e+003, 2.737400e-001
3.363246e+003, 2.708845e-001
3.365174e+003, 2.689925e-001
3.367103e+003, 2.664432e-001
3.369031e+003, 2.648343e-001
3.370960e+003, 2.648243e-001
3.372888e+003, 2.641758e-001
3.374817e+003, 2.635787e-001
3.376745e+003, 2.639419e-001
3.378674e+003, 2.638675e-001
3.380602e+003, 2.641677e-001
3.382531e+003, 2.646658e-001
3.384459e+003, 2.648738e-001
3.386387e+003, 2.655745e-001
3.388316e+003, 2.661932e-001
3.390244e+003, 2.665369e-001
3.392173e+003, 2.670723e-001
3.394101e+003, 2.677073e-001
3.396030e+003, 2.679953e-001
3.397958e+003, 2.680837e-001
3.399887e+003, 2.683260e-001
3.401815e+003, 2.678638e-001
3.403744e+003, 2.668331e-001
3.405672e+003, 2.658783e-001
3.407601e+003, 2.653288e-001
3.409529e+003, 2.642020e-001
3.411458e+003, 2.623591e-001
3.413386e+003, 2.603923e-001
3.415314e+003, 2.590777e-001
3.417243e+003, 2.579556e-001
3.419171e+003, 2.558056e-001
3.421100e+003, 2.538706e-001
3.423028e+003, 2.519708e-001
3.424957e+003, 2.499763e-001
3.426885e+003, 2.481487e-001
3.428814e+003, 2.468573e-001
3.430742e+003, 2.457721e-001
3.432671e+003, 2.443760e-001
3.434599e+003, 2.434605e-001
3.436528e+003, 2.424156e-001
3.438456e+003, 2.410552e-001
3.440385e+003, 2.400120e-001
3.442313e+003, 2.394558e-001
3.444241e+003, 2.395822e-001
3.446170e+003, 2.398492e-001
3.448098e+003, 2.392924e-001
3.450027e+003, 2.388365e-001
3.451955e+003, 2.384462e-001
3.453884e+003, 2.380616e-001
3.455812e+003, 2.378089e-001
3.457741e+003, 2.375671e-001
3.459669e+003, 2.374322e-001
3.461598e+003, 2.376708e-001
3.463526e+003, 2.379723e-001
3.465455e+003, 2.378318e-001
3.467383e+003, 2.383409e-001
3.469312e+003, 2.385279e-001
3.471240e+003, 2.379575e-001
3.473168e+003, 2.373901e-001
3.475097e+003, 2.367934e-001
3.477025e+003, 2.366613e-001
3.478954e+003, 2.367658e-001
3.480882e+003, 2.369755e-001
3.482811e+003, 2.371190e-001
3.484739e+003, 2.370538e-001
3.486668e+003, 2.368642e-001
3.488596e+003, 2.368895e-001
3.490525e+003, 2.363784e-001
3.492453e+003, 2.359492e-001
3.494382e+003, 2.363901e-001
3.496310e+003, 2.369002e-001
3.498239e+003, 2.363477e-001
3.500167e+003, 2.357141e-001
3.502095e+003, 2.358281e-001
3.504024e+003, 2.364017e-001
3.505952e+003, 2.365470e-001
3.507881e+003, 2.362266e-001
3.509809e+003, 2.362066e-001
3.511738e+003, 2.363563e-001
3.513666e+003, 2.368014e-001
3.515595e+003, 2.368172e-001
3.517523e+003, 2.359949e-001
3.519452e+003, 2.361003e-001
3.521380e+003, 2.367621e-001
3.523309e+003, 2.368411e-001
3.525237e+003, 2.364216e-001
3.527166e+003, 2.364490e-001
3.529094e+003, 2.367598e-001
3.531022e+003, 2.372531e-001
3.532951e+003, 2.374183e-001
3.534879e+003, 2.371590e-001
3.536808e+003, 2.374163e-001
3.538736e+003, 2.376907e-001
3.540665e+003, 2.378369e-001
3.542593e+003, 2.377193e-001
3.544522e+003, 2.376319e-001
3.546450e+003, 2.379834e-001
3.548379e+003, 2.387367e-001
3.550307e+003, 2.393648e-001
3.552236e+003, 2.390981e-001
3.554164e+003, 2.388458e-001
3.556093e+003, 2.386296e-001
3.558021e+003, 2.387900e-001
3.559949e+003, 2.392614e-001
3.561878e+003, 2.393390e-001
3.563806e+003, 2.398812e-001
3.565735e+003, 2.405430e-001
3.567663e+003, 2.400697e-001
3.569592e+003, 2.396091e-001
3.571520e+003, 2.399564e-001
3.573449e+003, 2.407571e-001
3.575377e+003, 2.404452e-001
3.577306e+003, 2.400529e-001
3.579234e+003, 2.405290e-001
3.581163e+003, 2.411260e-001
3.583091e+003, 2.412674e-001
3.585020e+003, 2.415051e-001
3.586948e+003, 2.419714e-001
3.588876e+003, 2.416753e-001
3.590805e+003, 2.415451e-001
3.592733e+003, 2.417371e-001
3.594662e+003, 2.419764e-001
3.596590e+003, 2.425481e-001
3.598519e+003, 2.427257e-001
3.600447e+003, 2.433296e-001
3.602376e+003, 2.432857e-001
3.604304e+003, 2.434695e-001
3.606233e+003, 2.443048e-001
3.608161e+003, 2.448216e-001
3.610090e+003, 2.447543e-001
3.612018e+003, 2.448316e-001
3.613947e+003, 2.448817e-001
3.615875e+003, 2.449490e-001
3.617803e+003, 2.456085e-001
3.619732e+003, 2.465316e-001
3.621660e+003, 2.468544e-001
3.623589e+003, 2.465860e-001
3.625517e+003, 2.465196e-001
3.627446e+003, 2.475810e-001
3.629374e+003, 2.481541e-001
3.631303e+003, 2.475348e-001
3.633231e+003, 2.471606e-001
3.635160e+003, 2.471371e-001
3.637088e+003, 2.475684e-001
3.639017e+003, 2.475433e-001
3.640945e+003, 2.482391e-001
3.642874e+003, 2.487779e-001
3.644802e+003, 2.485195e-001
3.646730e+003, 2.486768e-001
3.648659e+003, 2.505096e-001
3.650587e+003, 2.506678e-001
3.652516e+003, 2.492607e-001
3.654444e+003, 2.494040e-001
3.656373e+003, 2.499343e-001
3.658301e+003, 2.499775e-001
3.660230e+003, 2.499435e-001
3.662158e+003, 2.490170e-001
3.664087e+003, 2.491408e-001
3.666015e+003, 2.496169e-001
3.667944e+003, 2.506886e-001
3.669872e+003, 2.519524e-001
3.671801e+003, 2.516760e-001
3.673729e+003, 2.520692e-001
3.675657e+003, 2.521366e-001
3.677586e+003, 2.509781e-001
3.679514e+003, 2.513110e-001
3.681443e+003, 2.513238e-001
3.683371e+003, 2.510139e-001
3.685300e+003, 2.516663e-001
3.687228e+003, 2.531588e-001
3.689157e+003, 2.532247e-001
3.691085e+003, 2.529337e-001
3.693014e+003, 2.531366e-001
3.694942e+003, 2.532380e-001
3.696871e+003, 2.532337e-001
3.698799e+003, 2.538763e-001
3.700728e+003, 2.538334e-001
3.702656e+003, 2.534663e-001
3.704584e+003, 2.536641e-001
3.706513e+003, 2.542559e-001
3.708441e+003, 2.542086e-001
3.710370e+003, 2.545902e-001
3.712298e+003, 2.555865e-001
3.714227e+003, 2.557699e-001
3.716155e+003, 2.557862e-001
3.718084e+003, 2.558386e-001
3.720012e+003, 2.559388e-001
3.721941e+003, 2.559546e-001
3.723869e+003, 2.567967e-001
3.725798e+003, 2.578144e-001
3.727726e+003, 2.581029e-001
3.729655e+003, 2.578866e-001
3.731583e+003, 2.572528e-001
3.733511e+003, 2.569689e-001
3.735440e+003, 2.584802e-001
3.737368e+003, 2.591833e-001
3.739297e+003, 2.589768e-001
3.741225e+003, 2.587366e-001
3.743154e+003, 2.591178e-001
3.745082e+003, 2.596153e-001
3.747011e+003, 2.594403e-001
3.748939e+003, 2.599221e-001
3.750868e+003, 2.595475e-001
3.752796e+003, 2.590328e-001
3.754725e+003, 2.587093e-001
3.756653e+003, 2.589354e-001
3.758582e+003, 2.592611e-001
3.760510e+003, 2.590245e-001
3.762438e+003, 2.592891e-001
3.764367e+003, 2.599687e-001
3.766295e+003, 2.599362e-001
3.768224e+003, 2.598860e-001
3.770152e+003, 2.601794e-001
3.772081e+003, 2.607325e-001
3.774009e+003, 2.611007e-001
3.775938e+003, 2.606572e-001
3.777866e+003, 2.603799e-001
3.779795e+003, 2.607977e-001
3.781723e+003, 2.607701e-001
3.783652e+003, 2.603350e-001
3.785580e+003, 2.600242e-001
3.787509e+003, 2.601702e-001
3.789437e+003, 2.605021e-001
3.791365e+003, 2.608506e-001
3.793294e+003, 2.608083e-001
3.795222e+003, 2.608696e-001
3.797151e+003, 2.604080e-001
3.799079e+003, 2.611880e-001
3.801008e+003, 2.625037e-001
3.802936e+003, 2.620930e-001
3.804865e+003, 2.621526e-001
3.806793e+003, 2.628652e-001
3.808722e+003, 2.623977e-001
3.810650e+003, 2.626671e-001
3.812579e+003, 2.628616e-001
3.814507e+003, 2.630627e-001
3.816436e+003, 2.633640e-001
3.818364e+003, 2.634208e-001
3.820292e+003, 2.641127e-001
3.822221e+003, 2.637776e-001
3.824149e+003, 2.631345e-001
3.826078e+003, 2.629207e-001
3.828006e+003, 2.629125e-001
3.829935e+003, 2.637577e-001
3.831863e+003, 2.648695e-001
3.833792e+003, 2.651482e-001
3.835720e+003, 2.647558e-001
3.837649e+003, 2.651816e-001
3.839577e+003, 2.649117e-001
3.841506e+003, 2.645701e-001
3.843434e+003, 2.643085e-001
3.845363e+003, 2.639505e-001
3.847291e+003, 2.643354e-001
3.849219e+003, 2.660130e-001
3.851148e+003, 2.675157e-001
3.853076e+003, 2.678189e-001
3.855005e+003, 2.664651e-001
3.856933e+003, 2.656082e-001
3.858862e+003, 2.659791e-001
3.860790e+003, 2.659371e-001
3.862719e+003, 2.658400e-001
3.864647e+003, 2.663106e-001
3.866576e+003, 2.668132e-001
3.868504e+003, 2.677146e-001
3.870433e+003, 2.672198e-001
3.872361e+003, 2.657168e-001
3.874290e+003, 2.653658e-001
3.876218e+003, 2.658212e-001
3.878146e+003, 2.663612e-001
3.880075e+003, 2.662232e-001
3.882003e+003, 2.662885e-001
3.883932e+003, 2.671669e-001
3.885860e+003, 2.672976e-001
3.887789e+003, 2.673153e-001
3.889717e+003, 2.679163e-001
3.891646e+003, 2.675068e-001
3.893574e+003, 2.669731e-001
3.895503e+003, 2.669216e-001
3.897431e+003, 2.677913e-001
3.899360e+003, 2.687369e-001
3.901288e+003, 2.685941e-001
3.903217e+003, 2.680735e-001
3.905145e+003, 2.684926e-001
3.907073e+003, 2.682095e-001
3.909002e+003, 2.678685e-001
3.910930e+003, 2.678539e-001
3.912859e+003, 2.685792e-001
3.914787e+003, 2.690201e-001
3.916716e+003, 2.693047e-001
3.918644e+003, 2.691370e-001
3.920573e+003, 2.685895e-001
3.922501e+003, 2.689888e-001
3.924430e+003, 2.693883e-001
3.926358e+003, 2.693046e-001
3.928287e+003, 2.691453e-001
3.930215e+003, 2.694376e-001
3.932144e+003, 2.700689e-001
3.934072e+003, 2.702290e-001
3.936000e+003, 2.703499e-001
3.937929e+003, 2.696943e-001
3.939857e+003, 2.693896e-001
3.941786e+003, 2.700923e-001
3.943714e+003, 2.704498e-001
3.945643e+003, 2.699131e-001
3.947571e+003, 2.700829e-001
3.949500e+003, 2.709590e-001
3.951428e+003, 2.712123e-001
3.953357e+003, 2.708468e-001
3.955285e+003, 2.705672e-001
3.957214e+003, 2.707366e-001
3.959142e+003, 2.712626e-001
3.961071e+003, 2.715901e-001
3.962999e+003, 2.717186e-001
3.964927e+003, 2.720419e-001
3.966856e+003, 2.719415e-001
3.968784e+003, 2.716232e-001
3.970713e+003, 2.719727e-001
3.972641e+003, 2.719943e-001
3.974570e+003, 2.720230e-001
3.976498e+003, 2.725862e-001
3.978427e+003, 2.725347e-001
3.980355e+003, 2.728228e-001
3.982284e+003, 2.732812e-001
3.984212e+003, 2.734868e-001
3.986141e+003, 2.740440e-001
3.988069e+003, 2.734923e-001
3.989998e+003, 2.729959e-001
3.991926e+003, 2.735905e-001
3.993854e+003, 2.737177e-001
3.995783e+003, 2.737083e-001
3.997711e+003, 2.747310e-001
3.999640e+003, 2.748561e-001
4.001568e+003, 0.000000e+000
##END=



