##NAMES=Lizardite
##RRUFFID=R060006
##IDEAL CHEMISTRY=Mg_3_Si_2_O_5_(OH)_4_
##LOCALITY=Snarum, Norway
##OWNER=RRUFF
##SOURCE=University of Arizona Mineral Museum
##DESCRIPTION=Green blebs of fine-grained serpentine habit, polytype 1T, associated with pearly hydrotalcite
##STATUS=The identification of this mineral has been confirmed by X-ray diffraction and chemical analysis
##URL=rruff.info/R060006
##MEASURED CHEMISTRY=(Mg_0.94_Fe^2+^_0.04_Al_0.02_)_3_(Si_0.97_Al_0.03_)_2_O_5_(OH)_4_
3.991926e+002, 5.168979e-001
4.011211e+002, 5.135905e-001
4.030495e+002, 5.176713e-001
4.049780e+002, 4.941384e-001
4.069065e+002, 4.653055e-001
4.088349e+002, 5.056343e-001
4.107634e+002, 5.161591e-001
4.126919e+002, 5.175485e-001
4.146203e+002, 5.240165e-001
4.165488e+002, 5.214825e-001
4.184773e+002, 5.130008e-001
4.204057e+002, 5.174624e-001
4.223342e+002, 5.196399e-001
4.242627e+002, 5.234820e-001
4.261911e+002, 4.996669e-001
4.281196e+002, 4.764664e-001
4.300481e+002, 4.546435e-001
4.319765e+002, 4.421912e-001
4.339050e+002, 4.345676e-001
4.358335e+002, 4.178665e-001
4.377619e+002, 3.917868e-001
4.396904e+002, 3.716515e-001
4.416189e+002, 3.541047e-001
4.435473e+002, 3.413643e-001
4.454758e+002, 3.295473e-001
4.474043e+002, 3.179358e-001
4.493327e+002, 3.079188e-001
4.512612e+002, 3.012106e-001
4.531897e+002, 2.978140e-001
4.551181e+002, 2.956146e-001
4.570466e+002, 2.941784e-001
4.589751e+002, 2.930561e-001
4.609035e+002, 2.883597e-001
4.628320e+002, 2.806991e-001
4.647605e+002, 2.728444e-001
4.666889e+002, 2.645267e-001
4.686174e+002, 2.554973e-001
4.705459e+002, 2.476273e-001
4.724743e+002, 2.403843e-001
4.744028e+002, 2.357321e-001
4.763313e+002, 2.295410e-001
4.782597e+002, 2.219734e-001
4.801882e+002, 2.164650e-001
4.821167e+002, 2.114705e-001
4.840451e+002, 2.055804e-001
4.859736e+002, 2.011707e-001
4.879021e+002, 1.967324e-001
4.898305e+002, 1.920953e-001
4.917590e+002, 1.873767e-001
4.936875e+002, 1.825057e-001
4.956159e+002, 1.783715e-001
4.975444e+002, 1.752421e-001
4.994729e+002, 1.724044e-001
5.014013e+002, 1.690576e-001
5.033298e+002, 1.645923e-001
5.052583e+002, 1.604026e-001
5.071867e+002, 1.562840e-001
5.091152e+002, 1.520966e-001
5.110437e+002, 1.476595e-001
5.129721e+002, 1.446919e-001
5.149006e+002, 1.431357e-001
5.168290e+002, 1.432286e-001
5.187575e+002, 1.442329e-001
5.206860e+002, 1.477692e-001
5.226144e+002, 1.536714e-001
5.245429e+002, 1.615469e-001
5.264714e+002, 1.715223e-001
5.283998e+002, 1.817847e-001
5.303283e+002, 1.911050e-001
5.322568e+002, 1.988658e-001
5.341852e+002, 2.051815e-001
5.361137e+002, 2.104765e-001
5.380422e+002, 2.143720e-001
5.399706e+002, 2.179144e-001
5.418991e+002, 2.214085e-001
5.438276e+002, 2.227100e-001
5.457560e+002, 2.227227e-001
5.476845e+002, 2.224336e-001
5.496130e+002, 2.221588e-001
5.515414e+002, 2.227754e-001
5.534699e+002, 2.229773e-001
5.553984e+002, 2.230222e-001
5.573268e+002, 2.227383e-001
5.592553e+002, 2.213982e-001
5.611838e+002, 2.205380e-001
5.631122e+002, 2.200837e-001
5.650407e+002, 2.187976e-001
5.669692e+002, 2.174034e-001
5.688976e+002, 2.161881e-001
5.708261e+002, 2.157473e-001
5.727546e+002, 2.158062e-001
5.746830e+002, 2.151676e-001
5.766115e+002, 2.145460e-001
5.785400e+002, 2.152156e-001
5.804684e+002, 2.162662e-001
5.823969e+002, 2.175354e-001
5.843254e+002, 2.194286e-001
5.862538e+002, 2.206902e-001
5.881823e+002, 2.227624e-001
5.901108e+002, 2.268964e-001
5.920392e+002, 2.319725e-001
5.939677e+002, 2.384647e-001
5.958962e+002, 2.475171e-001
5.978246e+002, 2.568826e-001
5.997531e+002, 2.663713e-001
6.016816e+002, 2.760607e-001
6.036100e+002, 2.840148e-001
6.055385e+002, 2.894022e-001
6.074670e+002, 2.914189e-001
6.093954e+002, 2.903780e-001
6.113239e+002, 2.874535e-001
6.132524e+002, 2.832365e-001
6.151808e+002, 2.776443e-001
6.171093e+002, 2.711007e-001
6.190378e+002, 2.648374e-001
6.209662e+002, 2.591591e-001
6.228947e+002, 2.532111e-001
6.248232e+002, 2.466907e-001
6.267516e+002, 2.395072e-001
6.286801e+002, 2.324240e-001
6.306086e+002, 2.253379e-001
6.325370e+002, 2.182212e-001
6.344655e+002, 2.112290e-001
6.363940e+002, 2.040367e-001
6.383224e+002, 1.966578e-001
6.402509e+002, 1.895884e-001
6.421794e+002, 1.828366e-001
6.441078e+002, 1.761028e-001
6.460363e+002, 1.697197e-001
6.479648e+002, 1.630850e-001
6.498932e+002, 1.560203e-001
6.518217e+002, 1.497377e-001
6.537502e+002, 1.437845e-001
6.556786e+002, 1.376981e-001
6.576071e+002, 1.320803e-001
6.595356e+002, 1.265847e-001
6.614641e+002, 1.210276e-001
6.633925e+002, 1.157068e-001
6.653210e+002, 1.110008e-001
6.672495e+002, 1.063852e-001
6.691779e+002, 1.019059e-001
6.711064e+002, 9.744026e-002
6.730349e+002, 9.349099e-002
6.749633e+002, 9.017770e-002
6.768918e+002, 8.735144e-002
6.788203e+002, 8.442307e-002
6.807487e+002, 8.180638e-002
6.826772e+002, 7.958202e-002
6.846057e+002, 7.796585e-002
6.865341e+002, 7.631574e-002
6.884626e+002, 7.398771e-002
6.903911e+002, 7.122655e-002
6.923195e+002, 6.827851e-002
6.942480e+002, 6.573062e-002
6.961765e+002, 6.401122e-002
6.981049e+002, 6.266247e-002
7.000334e+002, 6.159584e-002
7.019619e+002, 6.060456e-002
7.038903e+002, 6.021018e-002
7.058188e+002, 6.018721e-002
7.077473e+002, 5.993893e-002
7.096757e+002, 5.958736e-002
7.116042e+002, 5.919590e-002
7.135327e+002, 5.880861e-002
7.154611e+002, 5.818720e-002
7.173896e+002, 5.746473e-002
7.193181e+002, 5.696538e-002
7.212465e+002, 5.665151e-002
7.231750e+002, 5.619480e-002
7.251035e+002, 5.559954e-002
7.270319e+002, 5.479776e-002
7.289604e+002, 5.404009e-002
7.308889e+002, 5.374031e-002
7.328173e+002, 5.341361e-002
7.347458e+002, 5.264601e-002
7.366743e+002, 5.189931e-002
7.386027e+002, 5.140132e-002
7.405312e+002, 5.095186e-002
7.424597e+002, 5.044447e-002
7.443881e+002, 4.993083e-002
7.463166e+002, 4.971739e-002
7.482451e+002, 4.958756e-002
7.501735e+002, 4.922285e-002
7.521020e+002, 4.896246e-002
7.540305e+002, 4.909154e-002
7.559589e+002, 4.894833e-002
7.578874e+002, 4.864384e-002
7.598159e+002, 4.862496e-002
7.617443e+002, 4.918798e-002
7.636728e+002, 4.943276e-002
7.656013e+002, 4.967795e-002
7.675297e+002, 4.994666e-002
7.694582e+002, 4.993268e-002
7.713867e+002, 4.983202e-002
7.733151e+002, 4.962528e-002
7.752436e+002, 4.948699e-002
7.771721e+002, 4.960492e-002
7.791005e+002, 4.951467e-002
7.810290e+002, 4.926719e-002
7.829575e+002, 4.894428e-002
7.848859e+002, 4.886981e-002
7.868144e+002, 4.905452e-002
7.887429e+002, 4.916302e-002
7.906713e+002, 4.919117e-002
7.925998e+002, 4.951816e-002
7.945283e+002, 4.977303e-002
7.964567e+002, 5.040028e-002
7.983852e+002, 5.089116e-002
8.003137e+002, 5.140600e-002
8.022421e+002, 5.218116e-002
8.041706e+002, 5.276314e-002
8.060991e+002, 5.306579e-002
8.080275e+002, 5.319237e-002
8.099560e+002, 5.286120e-002
8.118845e+002, 5.245472e-002
8.138129e+002, 5.221631e-002
8.157414e+002, 5.210935e-002
8.176699e+002, 5.178849e-002
8.195983e+002, 5.122403e-002
8.215268e+002, 5.112886e-002
8.234553e+002, 5.139257e-002
8.253837e+002, 5.144154e-002
8.273122e+002, 5.138151e-002
8.292407e+002, 5.125318e-002
8.311691e+002, 5.141696e-002
8.330976e+002, 5.187742e-002
8.350261e+002, 5.228022e-002
8.369545e+002, 5.276015e-002
8.388830e+002, 5.350972e-002
8.408115e+002, 5.400101e-002
8.427399e+002, 5.446199e-002
8.446684e+002, 5.540784e-002
8.465969e+002, 5.645558e-002
8.485253e+002, 5.750076e-002
8.504538e+002, 5.858945e-002
8.523823e+002, 5.963170e-002
8.543107e+002, 6.131278e-002
8.562392e+002, 6.298456e-002
8.581677e+002, 6.475227e-002
8.600961e+002, 6.669634e-002
8.620246e+002, 6.903381e-002
8.639531e+002, 7.150549e-002
8.658815e+002, 7.405245e-002
8.678100e+002, 7.692224e-002
8.697385e+002, 8.051675e-002
8.716669e+002, 8.460873e-002
8.735954e+002, 8.889625e-002
8.755239e+002, 9.349950e-002
8.774523e+002, 9.919806e-002
8.793808e+002, 1.058763e-001
8.813093e+002, 1.132957e-001
8.832377e+002, 1.220045e-001
8.851662e+002, 1.322047e-001
8.870947e+002, 1.434884e-001
8.890231e+002, 1.564440e-001
8.909516e+002, 1.714446e-001
8.928801e+002, 1.883363e-001
8.948085e+002, 2.071502e-001
8.967370e+002, 2.282287e-001
8.986655e+002, 2.522078e-001
9.005939e+002, 2.791969e-001
9.025224e+002, 3.090173e-001
9.044509e+002, 3.417445e-001
9.063793e+002, 3.765831e-001
9.083078e+002, 4.138484e-001
9.102363e+002, 4.522410e-001
9.121647e+002, 4.910862e-001
9.140932e+002, 5.289744e-001
9.160217e+002, 5.653567e-001
9.179501e+002, 6.006125e-001
9.198786e+002, 6.345626e-001
9.218071e+002, 6.655107e-001
9.237355e+002, 6.933435e-001
9.256640e+002, 7.178848e-001
9.275925e+002, 7.368438e-001
9.295209e+002, 7.492167e-001
9.314494e+002, 7.559758e-001
9.333779e+002, 7.561474e-001
9.353063e+002, 7.518865e-001
9.372348e+002, 7.437355e-001
9.391633e+002, 7.315012e-001
9.410917e+002, 7.174375e-001
9.430202e+002, 7.030213e-001
9.449487e+002, 6.869117e-001
9.468771e+002, 6.700233e-001
9.488056e+002, 6.514704e-001
9.507341e+002, 6.315118e-001
9.526625e+002, 6.104829e-001
9.545910e+002, 5.895140e-001
9.565195e+002, 5.679323e-001
9.584479e+002, 5.458439e-001
9.603764e+002, 5.240062e-001
9.623049e+002, 5.031100e-001
9.642333e+002, 4.831448e-001
9.661618e+002, 4.649645e-001
9.680903e+002, 4.473084e-001
9.700187e+002, 4.312647e-001
9.719472e+002, 4.166180e-001
9.738757e+002, 4.032691e-001
9.758041e+002, 3.914250e-001
9.777326e+002, 3.809395e-001
9.796611e+002, 3.712753e-001
9.815895e+002, 3.626801e-001
9.835180e+002, 3.545705e-001
9.854465e+002, 3.466935e-001
9.873749e+002, 3.388135e-001
9.893034e+002, 3.313678e-001
9.912319e+002, 3.238845e-001
9.931603e+002, 3.161721e-001
9.950888e+002, 3.084867e-001
9.970173e+002, 3.005639e-001
9.989457e+002, 2.925828e-001
1.000874e+003, 2.845970e-001
1.002803e+003, 2.763295e-001
1.004731e+003, 2.680969e-001
1.006660e+003, 2.601624e-001
1.008588e+003, 2.526376e-001
1.010517e+003, 2.450718e-001
1.012445e+003, 2.375438e-001
1.014373e+003, 2.302496e-001
1.016302e+003, 2.231681e-001
1.018230e+003, 2.161523e-001
1.020159e+003, 2.096281e-001
1.022087e+003, 2.027950e-001
1.024016e+003, 1.952280e-001
1.025944e+003, 1.877019e-001
1.027873e+003, 1.805031e-001
1.029801e+003, 1.738233e-001
1.031730e+003, 1.681035e-001
1.033658e+003, 1.635410e-001
1.035587e+003, 1.602115e-001
1.037515e+003, 1.576155e-001
1.039443e+003, 1.555769e-001
1.041372e+003, 1.536933e-001
1.043300e+003, 1.512547e-001
1.045229e+003, 1.486547e-001
1.047157e+003, 1.466106e-001
1.049086e+003, 1.446554e-001
1.051014e+003, 1.425419e-001
1.052943e+003, 1.403735e-001
1.054871e+003, 1.383047e-001
1.056800e+003, 1.360668e-001
1.058728e+003, 1.340619e-001
1.060657e+003, 1.320693e-001
1.062585e+003, 1.300298e-001
1.064514e+003, 1.280125e-001
1.066442e+003, 1.262988e-001
1.068370e+003, 1.243303e-001
1.070299e+003, 1.221123e-001
1.072227e+003, 1.193811e-001
1.074156e+003, 1.162223e-001
1.076084e+003, 1.130650e-001
1.078013e+003, 1.093384e-001
1.079941e+003, 1.051798e-001
1.081870e+003, 1.007828e-001
1.083798e+003, 9.590505e-002
1.085727e+003, 9.092337e-002
1.087655e+003, 8.585023e-002
1.089584e+003, 8.054673e-002
1.091512e+003, 7.495043e-002
1.093441e+003, 6.914495e-002
1.095369e+003, 6.324939e-002
1.097297e+003, 5.731573e-002
1.099226e+003, 5.144632e-002
1.101154e+003, 4.576429e-002
1.103083e+003, 4.010142e-002
1.105011e+003, 3.491387e-002
1.106940e+003, 3.042939e-002
1.108868e+003, 2.668735e-002
1.110797e+003, 2.353769e-002
1.112725e+003, 2.115130e-002
1.114654e+003, 1.943699e-002
1.116582e+003, 1.809237e-002
1.118511e+003, 1.713826e-002
1.120439e+003, 1.639703e-002
1.122368e+003, 1.568490e-002
1.124296e+003, 1.500792e-002
1.126224e+003, 1.448680e-002
1.128153e+003, 1.427144e-002
1.130081e+003, 1.399107e-002
1.132010e+003, 1.364630e-002
1.133938e+003, 1.336080e-002
1.135867e+003, 1.334191e-002
1.137795e+003, 1.345323e-002
1.139724e+003, 1.330377e-002
1.141652e+003, 1.264680e-002
1.143581e+003, 1.186668e-002
1.145509e+003, 1.114365e-002
1.147438e+003, 1.047540e-002
1.149366e+003, 9.987231e-003
1.151295e+003, 9.786329e-003
1.153223e+003, 9.615564e-003
1.155151e+003, 9.388549e-003
1.157080e+003, 9.232531e-003
1.159008e+003, 9.227540e-003
1.160937e+003, 9.207557e-003
1.162865e+003, 9.147084e-003
1.164794e+003, 9.180960e-003
1.166722e+003, 8.979732e-003
1.168651e+003, 8.807232e-003
1.170579e+003, 8.851169e-003
1.172508e+003, 8.849265e-003
1.174436e+003, 8.789266e-003
1.176365e+003, 8.690338e-003
1.178293e+003, 8.655938e-003
1.180222e+003, 8.767677e-003
1.182150e+003, 8.914308e-003
1.184078e+003, 8.982146e-003
1.186007e+003, 9.101678e-003
1.187935e+003, 9.301960e-003
1.189864e+003, 9.374669e-003
1.191792e+003, 9.316282e-003
1.193721e+003, 9.396438e-003
1.195649e+003, 9.238623e-003
1.197578e+003, 9.217979e-003
1.199506e+003, 9.308723e-003
1.201435e+003, 9.342575e-003
1.203363e+003, 9.434418e-003
1.205292e+003, 9.538964e-003
1.207220e+003, 9.410164e-003
1.209149e+003, 9.213501e-003
1.211077e+003, 9.168453e-003
1.213005e+003, 9.278927e-003
1.214934e+003, 9.165905e-003
1.216862e+003, 9.104849e-003
1.218791e+003, 9.339869e-003
1.220719e+003, 9.542279e-003
1.222648e+003, 9.453299e-003
1.224576e+003, 9.204219e-003
1.226505e+003, 9.148096e-003
1.228433e+003, 9.337207e-003
1.230362e+003, 9.370037e-003
1.232290e+003, 9.363035e-003
1.234219e+003, 9.224811e-003
1.236147e+003, 9.268017e-003
1.238076e+003, 9.235733e-003
1.240004e+003, 9.219774e-003
1.241932e+003, 9.234449e-003
1.243861e+003, 9.070339e-003
1.245789e+003, 9.037221e-003
1.247718e+003, 9.111707e-003
1.249646e+003, 8.952838e-003
1.251575e+003, 9.019190e-003
1.253503e+003, 9.012014e-003
1.255432e+003, 9.178869e-003
1.257360e+003, 9.277289e-003
1.259289e+003, 8.958463e-003
1.261217e+003, 8.728617e-003
1.263146e+003, 8.685451e-003
1.265074e+003, 8.808295e-003
1.267003e+003, 9.089091e-003
1.268931e+003, 9.226130e-003
1.270859e+003, 9.301643e-003
1.272788e+003, 9.371990e-003
1.274716e+003, 9.416520e-003
1.276645e+003, 9.406973e-003
1.278573e+003, 9.784112e-003
1.280502e+003, 9.838770e-003
1.282430e+003, 9.605776e-003
1.284359e+003, 9.539782e-003
1.286287e+003, 9.714282e-003
1.288216e+003, 9.854596e-003
1.290144e+003, 9.812444e-003
1.292073e+003, 9.711191e-003
1.294001e+003, 9.609308e-003
1.295930e+003, 9.485397e-003
1.297858e+003, 9.484644e-003
1.299786e+003, 9.293405e-003
1.301715e+003, 9.164884e-003
1.303643e+003, 9.190404e-003
1.305572e+003, 9.334199e-003
1.307500e+003, 9.365295e-003
1.309429e+003, 9.368082e-003
1.311357e+003, 9.394512e-003
1.313286e+003, 9.436420e-003
1.315214e+003, 9.515543e-003
1.317143e+003, 9.516980e-003
1.319071e+003, 9.270781e-003
1.321000e+003, 9.267163e-003
1.322928e+003, 9.417337e-003
1.324857e+003, 9.366499e-003
1.326785e+003, 9.284028e-003
1.328714e+003, 9.259940e-003
1.330642e+003, 9.287582e-003
1.332570e+003, 9.661900e-003
1.334499e+003, 9.922731e-003
1.336427e+003, 9.992164e-003
1.338356e+003, 1.002120e-002
1.340284e+003, 1.009018e-002
1.342213e+003, 1.006578e-002
1.344141e+003, 1.021225e-002
1.346070e+003, 1.034810e-002
1.347998e+003, 1.032670e-002
1.349927e+003, 1.037589e-002
1.351855e+003, 1.066168e-002
1.353784e+003, 1.061198e-002
1.355712e+003, 1.048185e-002
1.357641e+003, 1.034869e-002
1.359569e+003, 1.036894e-002
1.361497e+003, 1.051607e-002
1.363426e+003, 1.076780e-002
1.365354e+003, 1.085126e-002
1.367283e+003, 1.093843e-002
1.369211e+003, 1.102359e-002
1.371140e+003, 1.096406e-002
1.373068e+003, 1.112292e-002
1.374997e+003, 1.138530e-002
1.376925e+003, 1.117685e-002
1.378854e+003, 1.117076e-002
1.380782e+003, 1.138471e-002
1.382711e+003, 1.148382e-002
1.384639e+003, 1.152224e-002
1.386568e+003, 1.172681e-002
1.388496e+003, 1.188500e-002
1.390424e+003, 1.188966e-002
1.392353e+003, 1.198902e-002
1.394281e+003, 1.237518e-002
1.396210e+003, 1.250034e-002
1.398138e+003, 1.255279e-002
1.400067e+003, 1.246053e-002
1.401995e+003, 1.243767e-002
1.403924e+003, 1.265864e-002
1.405852e+003, 1.297615e-002
1.407781e+003, 1.312228e-002
1.409709e+003, 1.321929e-002
1.411638e+003, 1.333034e-002
1.413566e+003, 1.324124e-002
1.415495e+003, 1.317410e-002
1.417423e+003, 1.319272e-002
1.419351e+003, 1.310598e-002
1.421280e+003, 1.294444e-002
1.423208e+003, 1.271602e-002
1.425137e+003, 1.246877e-002
1.427065e+003, 1.213432e-002
1.428994e+003, 1.209509e-002
1.430922e+003, 1.186026e-002
1.432851e+003, 1.161001e-002
1.434779e+003, 1.172983e-002
1.436708e+003, 1.185164e-002
1.438636e+003, 1.150062e-002
1.440565e+003, 1.124019e-002
1.442493e+003, 1.101236e-002
1.444422e+003, 1.068087e-002
1.446350e+003, 1.039409e-002
1.448278e+003, 1.024195e-002
1.450207e+003, 9.979747e-003
1.452135e+003, 9.748256e-003
1.454064e+003, 9.642706e-003
1.455992e+003, 1.027483e-002
1.457921e+003, 1.018116e-002
1.459849e+003, 9.406482e-003
1.461778e+003, 9.087911e-003
1.463706e+003, 9.210260e-003
1.465635e+003, 9.289014e-003
1.467563e+003, 9.074356e-003
1.469492e+003, 8.839140e-003
1.471420e+003, 8.550597e-003
1.473349e+003, 8.317342e-003
1.475277e+003, 8.221122e-003
1.477205e+003, 8.038050e-003
1.479134e+003, 7.935600e-003
1.481062e+003, 7.860744e-003
1.482991e+003, 7.895154e-003
1.484919e+003, 7.890729e-003
1.486848e+003, 7.789971e-003
1.488776e+003, 7.778856e-003
1.490705e+003, 7.849174e-003
1.492633e+003, 7.754009e-003
1.494562e+003, 7.785778e-003
1.496490e+003, 7.964011e-003
1.498419e+003, 7.976535e-003
1.500347e+003, 8.034511e-003
1.502276e+003, 8.171642e-003
1.504204e+003, 8.520965e-003
1.506132e+003, 9.080791e-003
1.508061e+003, 8.913689e-003
1.509989e+003, 8.467775e-003
1.511918e+003, 8.231346e-003
1.513846e+003, 8.521517e-003
1.515775e+003, 9.023080e-003
1.517703e+003, 9.445804e-003
1.519632e+003, 9.774312e-003
1.521560e+003, 9.980108e-003
1.523489e+003, 9.851892e-003
1.525417e+003, 1.019519e-002
1.527346e+003, 1.061188e-002
1.529274e+003, 1.081185e-002
1.531203e+003, 1.125275e-002
1.533131e+003, 1.197460e-002
1.535059e+003, 1.233615e-002
1.536988e+003, 1.270773e-002
1.538916e+003, 1.340166e-002
1.540845e+003, 1.372444e-002
1.542773e+003, 1.381645e-002
1.544702e+003, 1.426825e-002
1.546630e+003, 1.447737e-002
1.548559e+003, 1.478038e-002
1.550487e+003, 1.518761e-002
1.552416e+003, 1.561837e-002
1.554344e+003, 1.597798e-002
1.556273e+003, 1.635774e-002
1.558201e+003, 1.710162e-002
1.560130e+003, 1.741767e-002
1.562058e+003, 1.703424e-002
1.563986e+003, 1.665413e-002
1.565915e+003, 1.650528e-002
1.567843e+003, 1.667247e-002
1.569772e+003, 1.682892e-002
1.571700e+003, 1.663344e-002
1.573629e+003, 1.645422e-002
1.575557e+003, 1.654305e-002
1.577486e+003, 1.636976e-002
1.579414e+003, 1.628274e-002
1.581343e+003, 1.629865e-002
1.583271e+003, 1.606405e-002
1.585200e+003, 1.596889e-002
1.587128e+003, 1.596572e-002
1.589057e+003, 1.601200e-002
1.590985e+003, 1.614933e-002
1.592913e+003, 1.595034e-002
1.594842e+003, 1.561344e-002
1.596770e+003, 1.551707e-002
1.598699e+003, 1.559637e-002
1.600627e+003, 1.569666e-002
1.602556e+003, 1.544336e-002
1.604484e+003, 1.493380e-002
1.606413e+003, 1.488313e-002
1.608341e+003, 1.485744e-002
1.610270e+003, 1.514706e-002
1.612198e+003, 1.539112e-002
1.614127e+003, 1.534048e-002
1.616055e+003, 1.543522e-002
1.617984e+003, 1.517234e-002
1.619912e+003, 1.475273e-002
1.621840e+003, 1.480256e-002
1.623769e+003, 1.467649e-002
1.625697e+003, 1.439809e-002
1.627626e+003, 1.400326e-002
1.629554e+003, 1.373842e-002
1.631483e+003, 1.367636e-002
1.633411e+003, 1.402560e-002
1.635340e+003, 1.430732e-002
1.637268e+003, 1.402065e-002
1.639197e+003, 1.333067e-002
1.641125e+003, 1.293111e-002
1.643054e+003, 1.267648e-002
1.644982e+003, 1.257885e-002
1.646911e+003, 1.250913e-002
1.648839e+003, 1.223168e-002
1.650767e+003, 1.237931e-002
1.652696e+003, 1.302060e-002
1.654624e+003, 1.225508e-002
1.656553e+003, 1.126709e-002
1.658481e+003, 1.102844e-002
1.660410e+003, 1.074737e-002
1.662338e+003, 1.070378e-002
1.664267e+003, 1.066051e-002
1.666195e+003, 1.050401e-002
1.668124e+003, 1.055616e-002
1.670052e+003, 1.021309e-002
1.671981e+003, 9.960915e-003
1.673909e+003, 9.849440e-003
1.675838e+003, 9.834447e-003
1.677766e+003, 9.693698e-003
1.679694e+003, 9.451139e-003
1.681623e+003, 9.531026e-003
1.683551e+003, 1.001486e-002
1.685480e+003, 9.604940e-003
1.687408e+003, 8.952304e-003
1.689337e+003, 8.749742e-003
1.691265e+003, 8.558208e-003
1.693194e+003, 8.197077e-003
1.695122e+003, 8.601989e-003
1.697051e+003, 8.654103e-003
1.698979e+003, 8.789258e-003
1.700908e+003, 8.886158e-003
1.702836e+003, 8.149909e-003
1.704765e+003, 8.013119e-003
1.706693e+003, 8.014752e-003
1.708621e+003, 7.865416e-003
1.710550e+003, 7.653850e-003
1.712478e+003, 7.443514e-003
1.714407e+003, 7.647003e-003
1.716335e+003, 7.984154e-003
1.718264e+003, 7.780235e-003
1.720192e+003, 6.924458e-003
1.722121e+003, 6.876417e-003
1.724049e+003, 7.238416e-003
1.725978e+003, 7.066719e-003
1.727906e+003, 6.833765e-003
1.729835e+003, 6.792577e-003
1.731763e+003, 6.707165e-003
1.733692e+003, 6.742976e-003
1.735620e+003, 6.258001e-003
1.737548e+003, 5.802770e-003
1.739477e+003, 5.480139e-003
1.741405e+003, 4.558609e-003
1.743334e+003, 4.109002e-003
1.745262e+003, 4.313699e-003
1.747191e+003, 4.305715e-003
1.749119e+003, 4.004882e-003
1.751048e+003, 3.794921e-003
1.752976e+003, 3.935007e-003
1.754905e+003, 3.881532e-003
1.756833e+003, 3.605654e-003
1.758762e+003, 3.450663e-003
1.760690e+003, 3.734268e-003
1.762619e+003, 3.814246e-003
1.764547e+003, 3.612145e-003
1.766475e+003, 3.568225e-003
1.768404e+003, 3.666432e-003
1.770332e+003, 3.707740e-003
1.772261e+003, 3.852049e-003
1.774189e+003, 3.557112e-003
1.776118e+003, 3.257623e-003
1.778046e+003, 2.936541e-003
1.779975e+003, 2.921255e-003
1.781903e+003, 2.812950e-003
1.783832e+003, 3.139301e-003
1.785760e+003, 3.094455e-003
1.787689e+003, 3.231438e-003
1.789617e+003, 2.951187e-003
1.791546e+003, 2.731126e-003
1.793474e+003, 2.741461e-003
1.795402e+003, 2.786079e-003
1.797331e+003, 2.609018e-003
1.799259e+003, 2.744980e-003
1.801188e+003, 2.998664e-003
1.803116e+003, 3.001455e-003
1.805045e+003, 2.704892e-003
1.806973e+003, 2.338982e-003
1.808902e+003, 2.006948e-003
1.810830e+003, 2.144385e-003
1.812759e+003, 2.129745e-003
1.814687e+003, 1.907399e-003
1.816616e+003, 1.922097e-003
1.818544e+003, 1.809502e-003
1.820473e+003, 1.579961e-003
1.822401e+003, 1.494937e-003
1.824329e+003, 1.602266e-003
1.826258e+003, 1.881833e-003
1.828186e+003, 1.637885e-003
1.830115e+003, 1.309427e-003
1.832043e+003, 1.193831e-003
1.833972e+003, 1.450428e-003
1.835900e+003, 1.126957e-003
1.837829e+003, 3.324933e-004
1.839757e+003, -1.256258e-004
1.841686e+003, 2.679946e-004
1.843614e+003, 9.656248e-004
1.845543e+003, 7.518283e-004
1.847471e+003, 2.473434e-004
1.849400e+003, 2.636003e-004
1.851328e+003, 1.630022e-004
1.853256e+003, 3.660008e-004
1.855185e+003, 3.700565e-005
1.857113e+003, 3.295185e-004
1.859042e+003, 2.774215e-004
1.860970e+003, -2.484575e-004
1.862899e+003, -4.561453e-004
1.864827e+003, -3.216110e-004
1.866756e+003, -6.424615e-004
1.868684e+003, -5.198129e-004
1.870613e+003, -5.042445e-004
1.872541e+003, -7.812037e-004
1.874470e+003, -9.912109e-004
1.876398e+003, -1.358334e-003
1.878327e+003, -1.254657e-003
1.880255e+003, -1.399812e-003
1.882183e+003, -2.226304e-003
1.884112e+003, -2.177407e-003
1.886040e+003, -2.374070e-003
1.887969e+003, -2.270889e-003
1.889897e+003, -2.131193e-003
1.891826e+003, -1.746833e-003
1.893754e+003, -1.476007e-003
1.895683e+003, -1.776217e-003
1.897611e+003, -1.833045e-003
1.899540e+003, -1.853057e-003
1.901468e+003, -2.357869e-003
1.903397e+003, -3.223442e-003
1.905325e+003, -3.843824e-003
1.907254e+003, -3.119995e-003
1.909182e+003, -2.285933e-003
1.911110e+003, -2.362123e-003
1.913039e+003, -2.543045e-003
1.914967e+003, -2.765334e-003
1.916896e+003, -3.240356e-003
1.918824e+003, -3.587118e-003
1.920753e+003, -3.514868e-003
1.922681e+003, -3.479571e-003
1.924610e+003, -2.828514e-003
1.926538e+003, -2.377054e-003
1.928467e+003, -2.808709e-003
1.930395e+003, -3.858493e-003
1.932324e+003, -4.510185e-003
1.934252e+003, -4.486956e-003
1.936181e+003, -4.084085e-003
1.938109e+003, -5.131542e-003
1.940037e+003, -5.610901e-003
1.941966e+003, -5.217280e-003
1.943894e+003, -6.070192e-003
1.945823e+003, -6.206723e-003
1.947751e+003, -5.200368e-003
1.949680e+003, -5.300149e-003
1.951608e+003, -6.592851e-003
1.953537e+003, -6.095675e-003
1.955465e+003, -5.570365e-003
1.957394e+003, -7.254338e-003
1.959322e+003, -8.514142e-003
1.961251e+003, -8.390620e-003
1.963179e+003, -7.764837e-003
1.965108e+003, -7.672901e-003
1.967036e+003, -7.758067e-003
1.968964e+003, -7.381825e-003
1.970893e+003, -7.387437e-003
1.972821e+003, -7.452211e-003
1.974750e+003, -8.771550e-003
1.976678e+003, -1.060667e-002
1.978607e+003, -9.979081e-003
1.980535e+003, -7.265210e-003
1.982464e+003, -5.981654e-003
1.984392e+003, -5.986232e-003
1.986321e+003, -6.223913e-003
1.988249e+003, -6.648382e-003
1.990178e+003, -6.561904e-003
1.992106e+003, -6.421253e-003
1.994035e+003, -6.282848e-003
1.995963e+003, -5.396657e-003
1.997891e+003, -6.392524e-003
1.999820e+003, -7.440745e-003
2.001748e+003, -6.980372e-003
2.003677e+003, -6.878817e-003
2.005605e+003, -7.860072e-003
2.007534e+003, -7.661274e-003
2.009462e+003, -8.657268e-003
2.011391e+003, -9.021177e-003
2.013319e+003, -7.925010e-003
2.015248e+003, -6.368050e-003
2.017176e+003, -6.702792e-003
2.019105e+003, -7.068701e-003
2.021033e+003, -7.644020e-003
2.022962e+003, -7.310703e-003
2.024890e+003, -7.166022e-003
2.026818e+003, -6.555340e-003
2.028747e+003, -7.294478e-003
2.030675e+003, -7.094526e-003
2.032604e+003, -5.714628e-003
2.034532e+003, -3.307453e-003
2.036461e+003, -2.402664e-003
2.038389e+003, -4.158722e-003
2.040318e+003, -6.539949e-003
2.042246e+003, -6.741708e-003
2.044175e+003, -6.488236e-003
2.046103e+003, -6.312219e-003
2.048031e+003, -5.150326e-003
2.049960e+003, -4.908247e-003
2.051888e+003, -5.074784e-003
2.053817e+003, -3.482927e-003
2.055745e+003, -3.874146e-003
2.057674e+003, -4.256152e-003
2.059602e+003, -3.787099e-003
2.061531e+003, -2.890787e-003
2.063459e+003, -3.959954e-003
2.065388e+003, -3.862745e-003
2.067316e+003, -2.958504e-003
2.069245e+003, -1.701000e-003
2.071173e+003, -2.908600e-004
2.073102e+003, -9.935366e-004
2.075030e+003, -2.017255e-003
2.076958e+003, -1.612341e-003
2.078887e+003, -1.783656e-003
2.080815e+003, -2.096347e-003
2.082744e+003, -2.773041e-003
2.084672e+003, -2.782220e-003
2.086601e+003, -2.410106e-003
2.088529e+003, -2.352700e-003
2.090458e+003, -2.388586e-003
2.092386e+003, -2.410842e-003
2.094315e+003, -2.817848e-003
2.096243e+003, -2.505129e-003
2.098172e+003, -1.694525e-003
2.100100e+003, -1.984902e-003
2.102029e+003, -2.245774e-003
2.103957e+003, -2.382179e-003
2.105885e+003, -2.514077e-003
2.107814e+003, -2.749464e-003
2.109742e+003, -2.712183e-003
2.111671e+003, -1.509720e-003
2.113599e+003, -9.153530e-004
2.115528e+003, -1.094457e-003
2.117456e+003, -1.300546e-003
2.119385e+003, -2.060866e-003
2.121313e+003, -2.649336e-003
2.123242e+003, -2.774077e-003
2.125170e+003, -3.516811e-003
2.127099e+003, -3.897943e-003
2.129027e+003, -4.454501e-003
2.130956e+003, -5.279672e-003
2.132884e+003, -5.989613e-003
2.134813e+003, -6.477017e-003
2.136741e+003, -6.389637e-003
2.138669e+003, -5.697922e-003
2.140598e+003, -6.363908e-003
2.142526e+003, -6.010836e-003
2.144455e+003, -5.595606e-003
2.146383e+003, -5.910572e-003
2.148312e+003, -5.576659e-003
2.150240e+003, -6.522269e-003
2.152169e+003, -9.325248e-003
2.154097e+003, -9.680790e-003
2.156026e+003, -9.707061e-003
2.157954e+003, -9.100599e-003
2.159883e+003, -5.600791e-003
2.161811e+003, -4.894844e-003
2.163740e+003, -6.178758e-003
2.165668e+003, -6.792147e-003
2.167596e+003, -5.204405e-003
2.169525e+003, -3.331944e-003
2.171453e+003, -4.204810e-003
2.173382e+003, -4.794664e-003
2.175310e+003, -5.774482e-003
2.177239e+003, -4.581648e-003
2.179167e+003, -4.725815e-003
2.181096e+003, -5.693082e-003
2.183024e+003, -4.780815e-003
2.184953e+003, -2.185298e-003
2.186881e+003, -1.788444e-003
2.188810e+003, -2.552392e-003
2.190738e+003, -1.892881e-003
2.192667e+003, -1.375614e-003
2.194595e+003, -1.638768e-003
2.196523e+003, -7.570451e-004
2.198452e+003, -1.020649e-003
2.200380e+003, -1.140103e-003
2.202309e+003, -1.372045e-003
2.204237e+003, -1.152023e-003
2.206166e+003, -1.254438e-003
2.208094e+003, -1.955775e-003
2.210023e+003, -2.533310e-003
2.211951e+003, -1.363708e-003
2.213880e+003, -1.234648e-003
2.215808e+003, -1.907654e-003
2.217737e+003, -8.920326e-004
2.219665e+003, 2.166187e-004
2.221594e+003, -2.257366e-004
2.223522e+003, 4.748737e-004
2.225450e+003, 4.662852e-004
2.227379e+003, 6.134157e-004
2.229307e+003, 9.465377e-004
2.231236e+003, 8.524904e-004
2.233164e+003, 7.366656e-004
2.235093e+003, 6.980962e-004
2.237021e+003, -1.125841e-004
2.238950e+003, -5.578585e-005
2.240878e+003, 1.208267e-003
2.242807e+003, 7.393258e-004
2.244735e+003, -2.183468e-004
2.246664e+003, 1.337797e-004
2.248592e+003, 2.450030e-004
2.250521e+003, 1.916134e-003
2.252449e+003, 2.820702e-003
2.254377e+003, 2.225425e-003
2.256306e+003, 2.100179e-003
2.258234e+003, 2.512153e-003
2.260163e+003, 1.980171e-003
2.262091e+003, 2.109019e-003
2.264020e+003, 2.541678e-003
2.265948e+003, 2.225785e-003
2.267877e+003, 1.450970e-003
2.269805e+003, 1.432471e-003
2.271734e+003, 1.423285e-003
2.273662e+003, 1.999471e-003
2.275591e+003, 2.770212e-003
2.277519e+003, 3.295310e-003
2.279448e+003, 3.540852e-003
2.281376e+003, 3.490442e-003
2.283304e+003, 3.639553e-003
2.285233e+003, 3.967265e-003
2.287161e+003, 4.056594e-003
2.289090e+003, 4.167174e-003
2.291018e+003, 3.862003e-003
2.292947e+003, 3.247734e-003
2.294875e+003, 3.115523e-003
2.296804e+003, 3.390104e-003
2.298732e+003, 3.313623e-003
2.300661e+003, 3.157254e-003
2.302589e+003, 3.137552e-003
2.304518e+003, 3.373754e-003
2.306446e+003, 3.377421e-003
2.308375e+003, 2.883526e-003
2.310303e+003, 2.171766e-003
2.312231e+003, 2.869981e-003
2.314160e+003, 3.771856e-003
2.316088e+003, 4.169316e-003
2.318017e+003, 4.188443e-003
2.319945e+003, 3.969415e-003
2.321874e+003, 3.986231e-003
2.323802e+003, 4.649993e-003
2.325731e+003, 4.048171e-003
2.327659e+003, 3.468924e-003
2.329588e+003, 3.523306e-003
2.331516e+003, 3.638093e-003
2.333445e+003, 3.826027e-003
2.335373e+003, 3.735132e-003
2.337302e+003, 3.807087e-003
2.339230e+003, 3.838703e-003
2.341158e+003, 3.026551e-003
2.343087e+003, 3.015340e-003
2.345015e+003, 3.482081e-003
2.346944e+003, 3.220223e-003
2.348872e+003, 3.095773e-003
2.350801e+003, 3.501458e-003
2.352729e+003, 3.817036e-003
2.354658e+003, 3.945549e-003
2.356586e+003, 3.868125e-003
2.358515e+003, 4.045841e-003
2.360443e+003, 3.914888e-003
2.362372e+003, 3.817831e-003
2.364300e+003, 3.818667e-003
2.366229e+003, 4.124329e-003
2.368157e+003, 4.313869e-003
2.370085e+003, 4.311152e-003
2.372014e+003, 4.285222e-003
2.373942e+003, 3.439559e-003
2.375871e+003, 2.685162e-003
2.377799e+003, 2.511838e-003
2.379728e+003, 2.297955e-003
2.381656e+003, 2.088986e-003
2.383585e+003, 1.830664e-003
2.385513e+003, 2.524900e-003
2.387442e+003, 2.904471e-003
2.389370e+003, 3.002964e-003
2.391299e+003, 2.869118e-003
2.393227e+003, 2.714239e-003
2.395156e+003, 2.147665e-003
2.397084e+003, 2.538181e-003
2.399012e+003, 2.896547e-003
2.400941e+003, 2.328963e-003
2.402869e+003, 1.848985e-003
2.404798e+003, 1.939075e-003
2.406726e+003, 2.115450e-003
2.408655e+003, 2.863613e-003
2.410583e+003, 3.251937e-003
2.412512e+003, 3.208593e-003
2.414440e+003, 2.651194e-003
2.416369e+003, 2.944479e-003
2.418297e+003, 2.795214e-003
2.420226e+003, 1.854227e-003
2.422154e+003, 1.940366e-003
2.424083e+003, 2.862384e-003
2.426011e+003, 2.503302e-003
2.427939e+003, 2.417963e-003
2.429868e+003, 2.718421e-003
2.431796e+003, 2.407106e-003
2.433725e+003, 1.782417e-003
2.435653e+003, 1.556777e-003
2.437582e+003, 2.017783e-003
2.439510e+003, 2.374154e-003
2.441439e+003, 2.726987e-003
2.443367e+003, 2.487209e-003
2.445296e+003, 2.400410e-003
2.447224e+003, 2.150072e-003
2.449153e+003, 1.976385e-003
2.451081e+003, 2.431486e-003
2.453010e+003, 2.993367e-003
2.454938e+003, 3.469915e-003
2.456866e+003, 2.904442e-003
2.458795e+003, 1.332537e-003
2.460723e+003, 1.663358e-003
2.462652e+003, 2.288158e-003
2.464580e+003, 1.906124e-003
2.466509e+003, 1.740448e-003
2.468437e+003, 1.525638e-003
2.470366e+003, 1.624132e-003
2.472294e+003, 1.274075e-003
2.474223e+003, 1.276957e-003
2.476151e+003, 1.887622e-003
2.478080e+003, 2.128639e-003
2.480008e+003, 2.380377e-003
2.481937e+003, 2.187244e-003
2.483865e+003, 1.628721e-003
2.485793e+003, 2.049853e-003
2.487722e+003, 2.008582e-003
2.489650e+003, 1.427231e-003
2.491579e+003, 1.356999e-003
2.493507e+003, 1.672114e-003
2.495436e+003, 9.295999e-004
2.497364e+003, 9.930138e-004
2.499293e+003, 2.384778e-003
2.501221e+003, 3.129659e-003
2.503150e+003, 2.174358e-003
2.505078e+003, 1.049502e-003
2.507007e+003, 7.482777e-004
2.508935e+003, 1.318426e-003
2.510864e+003, 1.760080e-003
2.512792e+003, 1.934320e-003
2.514720e+003, 1.864106e-003
2.516649e+003, 1.920666e-003
2.518577e+003, 2.089596e-003
2.520506e+003, 1.718574e-003
2.522434e+003, 1.342925e-003
2.524363e+003, 9.278188e-004
2.526291e+003, 4.648355e-004
2.528220e+003, 8.864782e-004
2.530148e+003, 9.630042e-004
2.532077e+003, 1.674871e-003
2.534005e+003, 1.581213e-003
2.535934e+003, 1.351290e-003
2.537862e+003, 1.526274e-003
2.539791e+003, 1.115598e-003
2.541719e+003, 5.056729e-004
2.543647e+003, 8.486173e-004
2.545576e+003, 5.244142e-004
2.547504e+003, 3.225742e-004
2.549433e+003, 1.134209e-003
2.551361e+003, 1.791686e-003
2.553290e+003, 1.525979e-003
2.555218e+003, 1.348596e-003
2.557147e+003, 1.329085e-003
2.559075e+003, 1.227880e-003
2.561004e+003, 9.342369e-004
2.562932e+003, 1.531402e-003
2.564861e+003, 1.635446e-003
2.566789e+003, 2.235859e-003
2.568718e+003, 2.503141e-003
2.570646e+003, 2.551376e-003
2.572574e+003, 2.499894e-003
2.574503e+003, 2.047028e-003
2.576431e+003, 2.006998e-003
2.578360e+003, 2.395667e-003
2.580288e+003, 2.380324e-003
2.582217e+003, 2.642186e-003
2.584145e+003, 2.534394e-003
2.586074e+003, 2.365739e-003
2.588002e+003, 2.695381e-003
2.589931e+003, 2.377953e-003
2.591859e+003, 1.552900e-003
2.593788e+003, 1.856257e-003
2.595716e+003, 2.749367e-003
2.597645e+003, 2.921827e-003
2.599573e+003, 3.261274e-003
2.601501e+003, 3.284181e-003
2.603430e+003, 2.949264e-003
2.605358e+003, 3.225764e-003
2.607287e+003, 3.489218e-003
2.609215e+003, 2.936576e-003
2.611144e+003, 2.970234e-003
2.613072e+003, 3.509640e-003
2.615001e+003, 3.745879e-003
2.616929e+003, 3.520735e-003
2.618858e+003, 3.847958e-003
2.620786e+003, 3.718185e-003
2.622715e+003, 3.921465e-003
2.624643e+003, 4.147419e-003
2.626572e+003, 3.438905e-003
2.628500e+003, 3.077476e-003
2.630428e+003, 2.989899e-003
2.632357e+003, 3.474999e-003
2.634285e+003, 3.819305e-003
2.636214e+003, 3.668390e-003
2.638142e+003, 3.477727e-003
2.640071e+003, 4.031598e-003
2.641999e+003, 4.036915e-003
2.643928e+003, 3.435269e-003
2.645856e+003, 3.179991e-003
2.647785e+003, 3.524406e-003
2.649713e+003, 3.911089e-003
2.651642e+003, 4.766658e-003
2.653570e+003, 5.026189e-003
2.655499e+003, 4.209864e-003
2.657427e+003, 3.493169e-003
2.659355e+003, 3.894024e-003
2.661284e+003, 4.249039e-003
2.663212e+003, 3.923311e-003
2.665141e+003, 3.422089e-003
2.667069e+003, 3.382731e-003
2.668998e+003, 3.435999e-003
2.670926e+003, 3.825280e-003
2.672855e+003, 4.341737e-003
2.674783e+003, 4.219445e-003
2.676712e+003, 3.860439e-003
2.678640e+003, 3.426426e-003
2.680569e+003, 3.649832e-003
2.682497e+003, 3.881713e-003
2.684426e+003, 4.031228e-003
2.686354e+003, 4.356429e-003
2.688282e+003, 4.464345e-003
2.690211e+003, 4.231168e-003
2.692139e+003, 4.209492e-003
2.694068e+003, 4.084495e-003
2.695996e+003, 3.653544e-003
2.697925e+003, 3.797041e-003
2.699853e+003, 3.994165e-003
2.701782e+003, 4.473373e-003
2.703710e+003, 4.499498e-003
2.705639e+003, 4.315717e-003
2.707567e+003, 4.527981e-003
2.709496e+003, 4.910324e-003
2.711424e+003, 4.606402e-003
2.713353e+003, 4.196286e-003
2.715281e+003, 3.940076e-003
2.717209e+003, 4.178397e-003
2.719138e+003, 4.040142e-003
2.721066e+003, 3.924499e-003
2.722995e+003, 4.275849e-003
2.724923e+003, 4.511145e-003
2.726852e+003, 4.421741e-003
2.728780e+003, 4.627447e-003
2.730709e+003, 5.002284e-003
2.732637e+003, 4.899984e-003
2.734566e+003, 3.876243e-003
2.736494e+003, 3.577094e-003
2.738423e+003, 4.209561e-003
2.740351e+003, 4.822280e-003
2.742280e+003, 4.825217e-003
2.744208e+003, 4.524178e-003
2.746136e+003, 4.367803e-003
2.748065e+003, 4.208575e-003
2.749993e+003, 4.309648e-003
2.751922e+003, 4.942529e-003
2.753850e+003, 4.832751e-003
2.755779e+003, 4.714757e-003
2.757707e+003, 4.703654e-003
2.759636e+003, 4.839506e-003
2.761564e+003, 5.159246e-003
2.763493e+003, 5.149422e-003
2.765421e+003, 4.419995e-003
2.767350e+003, 4.375959e-003
2.769278e+003, 4.311967e-003
2.771207e+003, 4.557075e-003
2.773135e+003, 5.155578e-003
2.775063e+003, 5.776915e-003
2.776992e+003, 5.628019e-003
2.778920e+003, 5.749509e-003
2.780849e+003, 5.627318e-003
2.782777e+003, 5.862182e-003
2.784706e+003, 5.590443e-003
2.786634e+003, 4.846435e-003
2.788563e+003, 5.411345e-003
2.790491e+003, 6.131824e-003
2.792420e+003, 6.102213e-003
2.794348e+003, 5.835946e-003
2.796277e+003, 5.557173e-003
2.798205e+003, 5.085148e-003
2.800134e+003, 4.563480e-003
2.802062e+003, 4.306084e-003
2.803990e+003, 4.789312e-003
2.805919e+003, 5.037176e-003
2.807847e+003, 4.916208e-003
2.809776e+003, 5.151893e-003
2.811704e+003, 5.686856e-003
2.813633e+003, 5.578741e-003
2.815561e+003, 4.722913e-003
2.817490e+003, 4.762416e-003
2.819418e+003, 5.135706e-003
2.821347e+003, 5.269337e-003
2.823275e+003, 4.735571e-003
2.825204e+003, 4.791337e-003
2.827132e+003, 5.200931e-003
2.829061e+003, 5.583717e-003
2.830989e+003, 5.919445e-003
2.832917e+003, 6.375442e-003
2.834846e+003, 6.012929e-003
2.836774e+003, 5.782041e-003
2.838703e+003, 6.318500e-003
2.840631e+003, 6.566614e-003
2.842560e+003, 6.917301e-003
2.844488e+003, 7.192617e-003
2.846417e+003, 6.884861e-003
2.848345e+003, 7.253062e-003
2.850274e+003, 7.390691e-003
2.852202e+003, 8.127858e-003
2.854131e+003, 8.071576e-003
2.856059e+003, 7.918446e-003
2.857988e+003, 7.853176e-003
2.859916e+003, 8.055890e-003
2.861844e+003, 8.319995e-003
2.863773e+003, 8.455332e-003
2.865701e+003, 8.488942e-003
2.867630e+003, 8.701407e-003
2.869558e+003, 7.849472e-003
2.871487e+003, 7.686343e-003
2.873415e+003, 7.664874e-003
2.875344e+003, 7.569945e-003
2.877272e+003, 7.817809e-003
2.879201e+003, 8.438740e-003
2.881129e+003, 8.271215e-003
2.883058e+003, 7.777775e-003
2.884986e+003, 8.256595e-003
2.886915e+003, 9.003844e-003
2.888843e+003, 8.693581e-003
2.890771e+003, 7.782972e-003
2.892700e+003, 8.541223e-003
2.894628e+003, 9.256967e-003
2.896557e+003, 8.434245e-003
2.898485e+003, 8.683627e-003
2.900414e+003, 9.066177e-003
2.902342e+003, 9.296846e-003
2.904271e+003, 9.319891e-003
2.906199e+003, 9.092990e-003
2.908128e+003, 8.588813e-003
2.910056e+003, 9.147110e-003
2.911985e+003, 1.012055e-002
2.913913e+003, 1.032289e-002
2.915842e+003, 1.134967e-002
2.917770e+003, 1.175631e-002
2.919698e+003, 1.102504e-002
2.921627e+003, 1.144389e-002
2.923555e+003, 1.196922e-002
2.925484e+003, 1.173710e-002
2.927412e+003, 1.220259e-002
2.929341e+003, 1.309644e-002
2.931269e+003, 1.276303e-002
2.933198e+003, 1.214644e-002
2.935126e+003, 1.272668e-002
2.937055e+003, 1.325030e-002
2.938983e+003, 1.184817e-002
2.940912e+003, 1.003781e-002
2.942840e+003, 9.349854e-003
2.944769e+003, 1.035626e-002
2.946697e+003, 1.009091e-002
2.948625e+003, 1.003745e-002
2.950554e+003, 1.060104e-002
2.952482e+003, 1.138599e-002
2.954411e+003, 1.132706e-002
2.956339e+003, 1.078303e-002
2.958268e+003, 1.122289e-002
2.960196e+003, 1.141940e-002
2.962125e+003, 1.071605e-002
2.964053e+003, 1.102640e-002
2.965982e+003, 1.126781e-002
2.967910e+003, 1.096071e-002
2.969839e+003, 1.124117e-002
2.971767e+003, 1.133698e-002
2.973696e+003, 1.134622e-002
2.975624e+003, 1.047988e-002
2.977552e+003, 9.563303e-003
2.979481e+003, 9.780956e-003
2.981409e+003, 1.041312e-002
2.983338e+003, 1.058030e-002
2.985266e+003, 1.008562e-002
2.987195e+003, 1.027988e-002
2.989123e+003, 1.020266e-002
2.991052e+003, 1.074905e-002
2.992980e+003, 1.042854e-002
2.994909e+003, 1.007259e-002
2.996837e+003, 9.625142e-003
2.998766e+003, 9.839758e-003
3.000694e+003, 9.305432e-003
3.002623e+003, 9.361313e-003
3.004551e+003, 1.006288e-002
3.006479e+003, 1.123838e-002
3.008408e+003, 1.098200e-002
3.010336e+003, 1.000818e-002
3.012265e+003, 9.384338e-003
3.014193e+003, 1.051152e-002
3.016122e+003, 1.099574e-002
3.018050e+003, 1.008280e-002
3.019979e+003, 9.576085e-003
3.021907e+003, 1.042002e-002
3.023836e+003, 1.115734e-002
3.025764e+003, 1.104262e-002
3.027693e+003, 1.057487e-002
3.029621e+003, 1.090952e-002
3.031550e+003, 1.129238e-002
3.033478e+003, 1.183079e-002
3.035406e+003, 1.142493e-002
3.037335e+003, 1.068363e-002
3.039263e+003, 1.148323e-002
3.041192e+003, 1.206698e-002
3.043120e+003, 1.174194e-002
3.045049e+003, 1.025424e-002
3.046977e+003, 1.064172e-002
3.048906e+003, 1.138352e-002
3.050834e+003, 1.134505e-002
3.052763e+003, 1.150118e-002
3.054691e+003, 1.202096e-002
3.056620e+003, 1.298191e-002
3.058548e+003, 1.329254e-002
3.060477e+003, 1.370690e-002
3.062405e+003, 1.368519e-002
3.064333e+003, 1.310469e-002
3.066262e+003, 1.270218e-002
3.068190e+003, 1.287235e-002
3.070119e+003, 1.262543e-002
3.072047e+003, 1.229019e-002
3.073976e+003, 1.280304e-002
3.075904e+003, 1.268554e-002
3.077833e+003, 1.259280e-002
3.079761e+003, 1.302022e-002
3.081690e+003, 1.343210e-002
3.083618e+003, 1.403984e-002
3.085547e+003, 1.421962e-002
3.087475e+003, 1.426262e-002
3.089404e+003, 1.341278e-002
3.091332e+003, 1.241717e-002
3.093260e+003, 1.275391e-002
3.095189e+003, 1.388433e-002
3.097117e+003, 1.430685e-002
3.099046e+003, 1.389572e-002
3.100974e+003, 1.371274e-002
3.102903e+003, 1.313342e-002
3.104831e+003, 1.325856e-002
3.106760e+003, 1.467916e-002
3.108688e+003, 1.470910e-002
3.110617e+003, 1.409163e-002
3.112545e+003, 1.374890e-002
3.114474e+003, 1.444314e-002
3.116402e+003, 1.460875e-002
3.118331e+003, 1.434439e-002
3.120259e+003, 1.450613e-002
3.122188e+003, 1.493509e-002
3.124116e+003, 1.497488e-002
3.126044e+003, 1.552106e-002
3.127973e+003, 1.519385e-002
3.129901e+003, 1.458628e-002
3.131830e+003, 1.391292e-002
3.133758e+003, 1.398013e-002
3.135687e+003, 1.441708e-002
3.137615e+003, 1.587067e-002
3.139544e+003, 1.665419e-002
3.141472e+003, 1.705170e-002
3.143401e+003, 1.727565e-002
3.145329e+003, 1.628637e-002
3.147258e+003, 1.565043e-002
3.149186e+003, 1.554815e-002
3.151115e+003, 1.518220e-002
3.153043e+003, 1.562013e-002
3.154971e+003, 1.563487e-002
3.156900e+003, 1.633379e-002
3.158828e+003, 1.697371e-002
3.160757e+003, 1.751285e-002
3.162685e+003, 1.837237e-002
3.164614e+003, 1.885166e-002
3.166542e+003, 1.908601e-002
3.168471e+003, 1.902237e-002
3.170399e+003, 1.836033e-002
3.172328e+003, 1.855707e-002
3.174256e+003, 1.943541e-002
3.176185e+003, 1.880739e-002
3.178113e+003, 1.813322e-002
3.180042e+003, 1.877746e-002
3.181970e+003, 1.834624e-002
3.183898e+003, 1.803711e-002
3.185827e+003, 1.942939e-002
3.187755e+003, 1.944501e-002
3.189684e+003, 1.867853e-002
3.191612e+003, 1.900209e-002
3.193541e+003, 1.982739e-002
3.195469e+003, 2.104441e-002
3.197398e+003, 2.103969e-002
3.199326e+003, 1.963793e-002
3.201255e+003, 1.852021e-002
3.203183e+003, 1.841338e-002
3.205112e+003, 1.903724e-002
3.207040e+003, 2.088501e-002
3.208969e+003, 2.122950e-002
3.210897e+003, 2.008905e-002
3.212825e+003, 1.988384e-002
3.214754e+003, 2.036477e-002
3.216682e+003, 2.059471e-002
3.218611e+003, 1.996010e-002
3.220539e+003, 2.034544e-002
3.222468e+003, 2.081261e-002
3.224396e+003, 2.154463e-002
3.226325e+003, 2.240703e-002
3.228253e+003, 2.264086e-002
3.230182e+003, 2.261207e-002
3.232110e+003, 2.204833e-002
3.234039e+003, 2.283979e-002
3.235967e+003, 2.344114e-002
3.237896e+003, 2.330763e-002
3.239824e+003, 2.261684e-002
3.241752e+003, 2.286326e-002
3.243681e+003, 2.326918e-002
3.245609e+003, 2.279800e-002
3.247538e+003, 2.295142e-002
3.249466e+003, 2.328321e-002
3.251395e+003, 2.386480e-002
3.253323e+003, 2.517827e-002
3.255252e+003, 2.448385e-002
3.257180e+003, 2.282015e-002
3.259109e+003, 2.214069e-002
3.261037e+003, 2.303090e-002
3.262966e+003, 2.310760e-002
3.264894e+003, 2.301800e-002
3.266823e+003, 2.326496e-002
3.268751e+003, 2.432699e-002
3.270679e+003, 2.527696e-002
3.272608e+003, 2.507597e-002
3.274536e+003, 2.452767e-002
3.276465e+003, 2.492013e-002
3.278393e+003, 2.509333e-002
3.280322e+003, 2.633853e-002
3.282250e+003, 2.715321e-002
3.284179e+003, 2.715873e-002
3.286107e+003, 2.570624e-002
3.288036e+003, 2.468798e-002
3.289964e+003, 2.494493e-002
3.291893e+003, 2.504735e-002
3.293821e+003, 2.578592e-002
3.295750e+003, 2.683677e-002
3.297678e+003, 2.678500e-002
3.299606e+003, 2.550386e-002
3.301535e+003, 2.590300e-002
3.303463e+003, 2.779119e-002
3.305392e+003, 2.823917e-002
3.307320e+003, 2.784264e-002
3.309249e+003, 2.819441e-002
3.311177e+003, 2.826644e-002
3.313106e+003, 2.791082e-002
3.315034e+003, 2.783960e-002
3.316963e+003, 2.800135e-002
3.318891e+003, 2.771223e-002
3.320820e+003, 2.700727e-002
3.322748e+003, 2.798172e-002
3.324677e+003, 2.821497e-002
3.326605e+003, 2.850640e-002
3.328533e+003, 3.058479e-002
3.330462e+003, 3.146648e-002
3.332390e+003, 3.041601e-002
3.334319e+003, 3.012067e-002
3.336247e+003, 3.088196e-002
3.338176e+003, 3.132844e-002
3.340104e+003, 3.149017e-002
3.342033e+003, 3.217992e-002
3.343961e+003, 3.282122e-002
3.345890e+003, 3.294108e-002
3.347818e+003, 3.255038e-002
3.349747e+003, 3.162271e-002
3.351675e+003, 3.233453e-002
3.353604e+003, 3.346039e-002
3.355532e+003, 3.405096e-002
3.357460e+003, 3.404992e-002
3.359389e+003, 3.411984e-002
3.361317e+003, 3.475954e-002
3.363246e+003, 3.460660e-002
3.365174e+003, 3.501777e-002
3.367103e+003, 3.566738e-002
3.369031e+003, 3.608364e-002
3.370960e+003, 3.636052e-002
3.372888e+003, 3.601533e-002
3.374817e+003, 3.516427e-002
3.376745e+003, 3.569443e-002
3.378674e+003, 3.668590e-002
3.380602e+003, 3.729177e-002
3.382531e+003, 3.722303e-002
3.384459e+003, 3.720331e-002
3.386387e+003, 3.801947e-002
3.388316e+003, 3.760282e-002
3.390244e+003, 3.753768e-002
3.392173e+003, 3.807415e-002
3.394101e+003, 3.968636e-002
3.396030e+003, 4.119748e-002
3.397958e+003, 4.146785e-002
3.399887e+003, 4.054173e-002
3.401815e+003, 4.102462e-002
3.403744e+003, 4.071095e-002
3.405672e+003, 3.899315e-002
3.407601e+003, 3.947309e-002
3.409529e+003, 4.053422e-002
3.411458e+003, 4.103678e-002
3.413386e+003, 4.087081e-002
3.415314e+003, 4.068231e-002
3.417243e+003, 4.068015e-002
3.419171e+003, 4.226911e-002
3.421100e+003, 4.395419e-002
3.423028e+003, 4.376520e-002
3.424957e+003, 4.265451e-002
3.426885e+003, 4.213785e-002
3.428814e+003, 4.213164e-002
3.430742e+003, 4.205548e-002
3.432671e+003, 4.173812e-002
3.434599e+003, 4.284897e-002
3.436528e+003, 4.369073e-002
3.438456e+003, 4.342914e-002
3.440385e+003, 4.364058e-002
3.442313e+003, 4.420724e-002
3.444241e+003, 4.378081e-002
3.446170e+003, 4.311354e-002
3.448098e+003, 4.300339e-002
3.450027e+003, 4.353928e-002
3.451955e+003, 4.509667e-002
3.453884e+003, 4.612336e-002
3.455812e+003, 4.588652e-002
3.457741e+003, 4.549001e-002
3.459669e+003, 4.546788e-002
3.461598e+003, 4.557409e-002
3.463526e+003, 4.478372e-002
3.465455e+003, 4.473046e-002
3.467383e+003, 4.651666e-002
3.469312e+003, 4.649654e-002
3.471240e+003, 4.446157e-002
3.473168e+003, 4.350070e-002
3.475097e+003, 4.589152e-002
3.477025e+003, 4.753258e-002
3.478954e+003, 4.727751e-002
3.480882e+003, 4.736644e-002
3.482811e+003, 4.723385e-002
3.484739e+003, 4.715624e-002
3.486668e+003, 4.686689e-002
3.488596e+003, 4.693501e-002
3.490525e+003, 4.859498e-002
3.492453e+003, 4.969139e-002
3.494382e+003, 4.940840e-002
3.496310e+003, 4.922002e-002
3.498239e+003, 4.937504e-002
3.500167e+003, 4.958078e-002
3.502095e+003, 5.066754e-002
3.504024e+003, 5.105571e-002
3.505952e+003, 5.058631e-002
3.507881e+003, 5.103498e-002
3.509809e+003, 5.134879e-002
3.511738e+003, 5.149049e-002
3.513666e+003, 5.273995e-002
3.515595e+003, 5.404676e-002
3.517523e+003, 5.342788e-002
3.519452e+003, 5.416369e-002
3.521380e+003, 5.592145e-002
3.523309e+003, 5.473585e-002
3.525237e+003, 5.400260e-002
3.527166e+003, 5.552875e-002
3.529094e+003, 5.824034e-002
3.531022e+003, 6.033627e-002
3.532951e+003, 6.169050e-002
3.534879e+003, 6.132356e-002
3.536808e+003, 6.230705e-002
3.538736e+003, 6.407653e-002
3.540665e+003, 6.532476e-002
3.542593e+003, 6.745167e-002
3.544522e+003, 6.804939e-002
3.546450e+003, 6.846745e-002
3.548379e+003, 6.972609e-002
3.550307e+003, 7.173380e-002
3.552236e+003, 7.314637e-002
3.554164e+003, 7.422195e-002
3.556093e+003, 7.541601e-002
3.558021e+003, 7.710422e-002
3.559949e+003, 7.678413e-002
3.561878e+003, 7.601317e-002
3.563806e+003, 7.683815e-002
3.565735e+003, 7.925674e-002
3.567663e+003, 8.114459e-002
3.569592e+003, 8.067804e-002
3.571520e+003, 8.034233e-002
3.573449e+003, 8.158290e-002
3.575377e+003, 8.268110e-002
3.577306e+003, 8.443094e-002
3.579234e+003, 8.520426e-002
3.581163e+003, 8.281814e-002
3.583091e+003, 8.207596e-002
3.585020e+003, 8.378871e-002
3.586948e+003, 8.568635e-002
3.588876e+003, 8.699144e-002
3.590805e+003, 8.737338e-002
3.592733e+003, 8.789477e-002
3.594662e+003, 8.814987e-002
3.596590e+003, 8.788411e-002
3.598519e+003, 8.643825e-002
3.600447e+003, 8.657915e-002
3.602376e+003, 8.498987e-002
3.604304e+003, 8.302196e-002
3.606233e+003, 8.434187e-002
3.608161e+003, 8.487482e-002
3.610090e+003, 8.279617e-002
3.612018e+003, 8.091520e-002
3.613947e+003, 7.891479e-002
3.615875e+003, 7.663555e-002
3.617803e+003, 7.786947e-002
3.619732e+003, 8.168178e-002
3.621660e+003, 8.353513e-002
3.623589e+003, 8.657078e-002
3.625517e+003, 9.011132e-002
3.627446e+003, 9.408383e-002
3.629374e+003, 9.970388e-002
3.631303e+003, 1.038092e-001
3.633231e+003, 1.088566e-001
3.635160e+003, 1.169858e-001
3.637088e+003, 1.255521e-001
3.639017e+003, 1.335469e-001
3.640945e+003, 1.419563e-001
3.642874e+003, 1.509423e-001
3.644802e+003, 1.570612e-001
3.646730e+003, 1.591462e-001
3.648659e+003, 1.598034e-001
3.650587e+003, 1.620433e-001
3.652516e+003, 1.648820e-001
3.654444e+003, 1.691851e-001
3.656373e+003, 1.736958e-001
3.658301e+003, 1.803425e-001
3.660230e+003, 1.882040e-001
3.662158e+003, 1.973567e-001
3.664087e+003, 2.082880e-001
3.666015e+003, 2.229453e-001
3.667944e+003, 2.391898e-001
3.669872e+003, 2.556949e-001
3.671801e+003, 2.772309e-001
3.673729e+003, 3.082947e-001
3.675657e+003, 3.444964e-001
3.677586e+003, 3.802642e-001
3.679514e+003, 4.096829e-001
3.681443e+003, 4.183193e-001
3.683371e+003, 4.023534e-001
3.685300e+003, 3.690361e-001
3.687228e+003, 3.254454e-001
3.689157e+003, 2.783523e-001
3.691085e+003, 2.326801e-001
3.693014e+003, 1.913200e-001
3.694942e+003, 1.542038e-001
3.696871e+003, 1.225113e-001
3.698799e+003, 1.030322e-001
3.700728e+003, 9.508831e-002
3.702656e+003, 8.697640e-002
3.704584e+003, 6.849737e-002
3.706513e+003, 4.410947e-002
3.708441e+003, 2.716660e-002
3.710370e+003, 1.840052e-002
3.712298e+003, 1.232408e-002
3.714227e+003, 9.001601e-003
3.716155e+003, 7.412134e-003
3.718084e+003, 6.805205e-003
3.720012e+003, 4.891784e-003
3.721941e+003, 2.622863e-003
3.723869e+003, 1.007891e-003
3.725798e+003, 8.599394e-004
3.727726e+003, 4.768367e-004
3.729655e+003, -4.776841e-004
3.731583e+003, -8.621765e-004
3.733511e+003, -4.402110e-004
3.735440e+003, 1.072947e-003
3.737368e+003, 7.864133e-004
3.739297e+003, -9.565825e-004
3.741225e+003, -2.421279e-003
3.743154e+003, -6.403431e-004
3.745082e+003, 8.604174e-004
3.747011e+003, -2.215998e-003
3.748939e+003, -2.657823e-003
3.750868e+003, -7.344865e-005
3.752796e+003, 1.085647e-003
3.754725e+003, -9.660000e-004
3.756653e+003, -2.437602e-003
3.758582e+003, -2.727819e-003
3.760510e+003, -3.255067e-003
3.762438e+003, -2.094521e-003
3.764367e+003, -1.859395e-003
3.766295e+003, -1.562530e-003
3.768224e+003, -5.313029e-004
3.770152e+003, 4.402786e-004
3.772081e+003, 2.269786e-003
3.774009e+003, 9.929332e-004
3.775938e+003, -6.984770e-004
3.777866e+003, 2.979459e-004
3.779795e+003, 3.639874e-004
3.781723e+003, -2.181342e-003
3.783652e+003, -1.991887e-003
3.785580e+003, -4.038847e-005
3.787509e+003, 4.856746e-005
3.789437e+003, -8.752926e-004
3.791365e+003, -5.206261e-004
3.793294e+003, 1.944495e-004
3.795222e+003, 6.605769e-004
3.797151e+003, -9.248579e-004
3.799079e+003, 2.487554e-004
3.801008e+003, 3.718110e-003
3.802936e+003, 3.220213e-003
3.804865e+003, 8.982446e-004
3.806793e+003, 2.393619e-003
3.808722e+003, 2.446649e-003
3.810650e+003, -1.079507e-004
3.812579e+003, -1.908446e-003
3.814507e+003, -1.411717e-004
3.816436e+003, 6.140476e-004
3.818364e+003, 5.131091e-004
3.820292e+003, 2.682535e-003
3.822221e+003, 3.202282e-003
3.824149e+003, 2.166498e-003
3.826078e+003, 2.282220e-003
3.828006e+003, 7.793443e-004
3.829935e+003, 1.040408e-003
3.831863e+003, 1.448795e-003
3.833792e+003, 1.473543e-005
3.835720e+003, 1.438296e-003
3.837649e+003, 2.222402e-003
3.839577e+003, 1.991302e-003
3.841506e+003, 2.302512e-003
3.843434e+003, 2.573276e-003
3.845363e+003, 9.061479e-004
3.847291e+003, -1.080964e-004
3.849219e+003, 4.081785e-004
3.851148e+003, 1.533100e-003
3.853076e+003, 1.653479e-003
3.855005e+003, 1.864896e-005
3.856933e+003, -1.088083e-003
3.858862e+003, 1.126695e-003
3.860790e+003, 4.110229e-003
3.862719e+003, 4.708349e-003
3.864647e+003, 1.483747e-003
3.866576e+003, 8.057821e-004
3.868504e+003, 1.521021e-003
3.870433e+003, 2.555132e-003
3.872361e+003, 2.677844e-003
3.874290e+003, 1.148670e-003
3.876218e+003, -1.195685e-004
3.878146e+003, 2.392815e-004
3.880075e+003, 4.140223e-004
3.882003e+003, 1.437499e-003
3.883932e+003, 2.090969e-003
3.885860e+003, 2.029614e-003
3.887789e+003, 1.471745e-003
3.889717e+003, 1.113392e-003
3.891646e+003, 8.524187e-004
3.893574e+003, 3.554595e-004
3.895503e+003, 2.425355e-003
3.897431e+003, 5.412020e-003
3.899360e+003, 4.968880e-003
3.901288e+003, 2.640623e-003
3.903217e+003, 1.965911e-003
3.905145e+003, 2.944180e-003
3.907073e+003, 2.487788e-003
3.909002e+003, 1.734265e-003
3.910930e+003, 2.651822e-003
3.912859e+003, 2.948956e-003
3.914787e+003, 3.106343e-003
3.916716e+003, 3.977888e-003
3.918644e+003, 3.421879e-003
3.920573e+003, 3.431243e-003
3.922501e+003, 2.631681e-003
3.924430e+003, 8.257745e-004
3.926358e+003, 4.075097e-004
3.928287e+003, 1.707512e-003
3.930215e+003, 3.243050e-003
3.932144e+003, 2.143667e-003
3.934072e+003, 5.008846e-004
3.936000e+003, 1.374089e-003
3.937929e+003, 2.732465e-003
3.939857e+003, 3.334061e-003
3.941786e+003, 1.774305e-003
3.943714e+003, 1.397837e-003
3.945643e+003, 2.756150e-003
3.947571e+003, 3.998999e-003
3.949500e+003, 1.960137e-003
3.951428e+003, -3.257149e-004
3.953357e+003, -3.278384e-004
3.955285e+003, 1.925878e-003
3.957214e+003, 3.598772e-003
3.959142e+003, 4.121570e-003
3.961071e+003, 2.726307e-003
3.962999e+003, 3.684565e-003
3.964927e+003, 4.171182e-003
3.966856e+003, 3.050746e-003
3.968784e+003, 3.200042e-003
3.970713e+003, 4.988155e-003
3.972641e+003, 5.959811e-003
3.974570e+003, 2.726365e-003
3.976498e+003, 1.305024e-003
3.978427e+003, 2.502198e-003
3.980355e+003, 2.854902e-003
3.982284e+003, 2.674301e-003
3.984212e+003, 3.234701e-003
3.986141e+003, 3.067959e-003
3.988069e+003, 2.949383e-003
3.989998e+003, 4.702286e-003
3.991926e+003, 4.118575e-003
3.993854e+003, 2.231503e-003
3.995783e+003, 2.953363e-003
3.997711e+003, 6.901503e-003
3.999640e+003, 9.072405e-003
4.001568e+003, 0.000000e+000
##END=



