##NAMES=Magnetoplumbite
##RRUFFID=R060074
##IDEAL CHEMISTRY=Pb^2+^Fe^3+^_12_O_19_
##LOCALITY=Langban, Filipstad, Varmland, Sweden
##OWNER=RRUFF
##SOURCE=University of Arizona Mineral Museum
##DESCRIPTION=Black granular and massive
##STATUS=The identification of this mineral has been confirmed by X-ray diffraction and chemical analysis
##URL=rruff.info/R060074
##MEASURED CHEMISTRY=Pb_1.00_(Fe^3+^_7.48_Mn^3+^_3.09_Ti_0.60_Mn^2+^_0.48_Al_0.23_Zn_0.12_)_Î£=12_O_19_
3.991926e+002, 2.404108e-001
4.011211e+002, 2.444326e-001
4.030495e+002, 2.474422e-001
4.049780e+002, 2.430120e-001
4.069065e+002, 2.440487e-001
4.088349e+002, 2.446022e-001
4.107634e+002, 2.423295e-001
4.126919e+002, 2.413335e-001
4.146203e+002, 2.390792e-001
4.165488e+002, 2.407062e-001
4.184773e+002, 2.419021e-001
4.204057e+002, 2.388399e-001
4.223342e+002, 2.359073e-001
4.242627e+002, 2.366112e-001
4.261911e+002, 2.358289e-001
4.281196e+002, 2.325167e-001
4.300481e+002, 2.303318e-001
4.319765e+002, 2.293620e-001
4.339050e+002, 2.286490e-001
4.358335e+002, 2.281884e-001
4.377619e+002, 2.264926e-001
4.396904e+002, 2.246309e-001
4.416189e+002, 2.222982e-001
4.435473e+002, 2.202184e-001
4.454758e+002, 2.189005e-001
4.474043e+002, 2.167279e-001
4.493327e+002, 2.146346e-001
4.512612e+002, 2.136871e-001
4.531897e+002, 2.127792e-001
4.551181e+002, 2.107670e-001
4.570466e+002, 2.074700e-001
4.589751e+002, 2.050309e-001
4.609035e+002, 2.031204e-001
4.628320e+002, 2.011941e-001
4.647605e+002, 1.981497e-001
4.666889e+002, 1.947114e-001
4.686174e+002, 1.917370e-001
4.705459e+002, 1.886965e-001
4.724743e+002, 1.853023e-001
4.744028e+002, 1.821881e-001
4.763313e+002, 1.783792e-001
4.782597e+002, 1.753063e-001
4.801882e+002, 1.724739e-001
4.821167e+002, 1.701247e-001
4.840451e+002, 1.680520e-001
4.859736e+002, 1.663035e-001
4.879021e+002, 1.650529e-001
4.898305e+002, 1.641218e-001
4.917590e+002, 1.641970e-001
4.936875e+002, 1.649125e-001
4.956159e+002, 1.653787e-001
4.975444e+002, 1.659586e-001
4.994729e+002, 1.669080e-001
5.014013e+002, 1.680399e-001
5.033298e+002, 1.701552e-001
5.052583e+002, 1.725833e-001
5.071867e+002, 1.747999e-001
5.091152e+002, 1.771828e-001
5.110437e+002, 1.796742e-001
5.129721e+002, 1.825081e-001
5.149006e+002, 1.851044e-001
5.168290e+002, 1.872589e-001
5.187575e+002, 1.896662e-001
5.206860e+002, 1.926160e-001
5.226144e+002, 1.956038e-001
5.245429e+002, 1.985202e-001
5.264714e+002, 2.016053e-001
5.283998e+002, 2.043719e-001
5.303283e+002, 2.071047e-001
5.322568e+002, 2.101687e-001
5.341852e+002, 2.129827e-001
5.361137e+002, 2.155261e-001
5.380422e+002, 2.187475e-001
5.399706e+002, 2.219722e-001
5.418991e+002, 2.246491e-001
5.438276e+002, 2.267369e-001
5.457560e+002, 2.289705e-001
5.476845e+002, 2.309863e-001
5.496130e+002, 2.336141e-001
5.515414e+002, 2.360639e-001
5.534699e+002, 2.375379e-001
5.553984e+002, 2.388937e-001
5.573268e+002, 2.399386e-001
5.592553e+002, 2.405957e-001
5.611838e+002, 2.413229e-001
5.631122e+002, 2.423462e-001
5.650407e+002, 2.429855e-001
5.669692e+002, 2.430557e-001
5.688976e+002, 2.427480e-001
5.708261e+002, 2.421021e-001
5.727546e+002, 2.411904e-001
5.746830e+002, 2.402411e-001
5.766115e+002, 2.387856e-001
5.785400e+002, 2.373170e-001
5.804684e+002, 2.352621e-001
5.823969e+002, 2.330403e-001
5.843254e+002, 2.313132e-001
5.862538e+002, 2.290081e-001
5.881823e+002, 2.265932e-001
5.901108e+002, 2.242662e-001
5.920392e+002, 2.222479e-001
5.939677e+002, 2.199716e-001
5.958962e+002, 2.178103e-001
5.978246e+002, 2.159676e-001
5.997531e+002, 2.140602e-001
6.016816e+002, 2.120049e-001
6.036100e+002, 2.096822e-001
6.055385e+002, 2.071586e-001
6.074670e+002, 2.044452e-001
6.093954e+002, 2.016397e-001
6.113239e+002, 1.985054e-001
6.132524e+002, 1.948472e-001
6.151808e+002, 1.912475e-001
6.171093e+002, 1.875853e-001
6.190378e+002, 1.834576e-001
6.209662e+002, 1.798691e-001
6.228947e+002, 1.763064e-001
6.248232e+002, 1.724524e-001
6.267516e+002, 1.685675e-001
6.286801e+002, 1.647584e-001
6.306086e+002, 1.610760e-001
6.325370e+002, 1.573986e-001
6.344655e+002, 1.539374e-001
6.363940e+002, 1.504594e-001
6.383224e+002, 1.469483e-001
6.402509e+002, 1.436811e-001
6.421794e+002, 1.402498e-001
6.441078e+002, 1.365360e-001
6.460363e+002, 1.330908e-001
6.479648e+002, 1.298484e-001
6.498932e+002, 1.266617e-001
6.518217e+002, 1.234714e-001
6.537502e+002, 1.204848e-001
6.556786e+002, 1.174244e-001
6.576071e+002, 1.145435e-001
6.595356e+002, 1.119740e-001
6.614641e+002, 1.090372e-001
6.633925e+002, 1.062014e-001
6.653210e+002, 1.035042e-001
6.672495e+002, 1.007878e-001
6.691779e+002, 9.826820e-002
6.711064e+002, 9.564186e-002
6.730349e+002, 9.320228e-002
6.749633e+002, 9.078319e-002
6.768918e+002, 8.839054e-002
6.788203e+002, 8.606151e-002
6.807487e+002, 8.380774e-002
6.826772e+002, 8.172449e-002
6.846057e+002, 7.962617e-002
6.865341e+002, 7.758360e-002
6.884626e+002, 7.559432e-002
6.903911e+002, 7.365241e-002
6.923195e+002, 7.164131e-002
6.942480e+002, 6.966158e-002
6.961765e+002, 6.777570e-002
6.981049e+002, 6.604599e-002
7.000334e+002, 6.433323e-002
7.019619e+002, 6.249137e-002
7.038903e+002, 6.079391e-002
7.058188e+002, 5.927031e-002
7.077473e+002, 5.775028e-002
7.096757e+002, 5.618452e-002
7.116042e+002, 5.477776e-002
7.135327e+002, 5.350142e-002
7.154611e+002, 5.221090e-002
7.173896e+002, 5.103551e-002
7.193181e+002, 5.006686e-002
7.212465e+002, 4.906237e-002
7.231750e+002, 4.829895e-002
7.251035e+002, 4.756710e-002
7.270319e+002, 4.683689e-002
7.289604e+002, 4.610233e-002
7.308889e+002, 4.548595e-002
7.328173e+002, 4.513441e-002
7.347458e+002, 4.473972e-002
7.366743e+002, 4.430276e-002
7.386027e+002, 4.382851e-002
7.405312e+002, 4.344131e-002
7.424597e+002, 4.307471e-002
7.443881e+002, 4.264752e-002
7.463166e+002, 4.239792e-002
7.482451e+002, 4.205048e-002
7.501735e+002, 4.164192e-002
7.521020e+002, 4.128984e-002
7.540305e+002, 4.104452e-002
7.559589e+002, 4.067554e-002
7.578874e+002, 4.034481e-002
7.598159e+002, 4.006242e-002
7.617443e+002, 3.960462e-002
7.636728e+002, 3.900371e-002
7.656013e+002, 3.859787e-002
7.675297e+002, 3.827789e-002
7.694582e+002, 3.787746e-002
7.713867e+002, 3.734211e-002
7.733151e+002, 3.672387e-002
7.752436e+002, 3.641795e-002
7.771721e+002, 3.617128e-002
7.791005e+002, 3.575287e-002
7.810290e+002, 3.537016e-002
7.829575e+002, 3.499691e-002
7.848859e+002, 3.456754e-002
7.868144e+002, 3.426690e-002
7.887429e+002, 3.408597e-002
7.906713e+002, 3.391737e-002
7.925998e+002, 3.378209e-002
7.945283e+002, 3.365239e-002
7.964567e+002, 3.351739e-002
7.983852e+002, 3.344670e-002
8.003137e+002, 3.346155e-002
8.022421e+002, 3.346083e-002
8.041706e+002, 3.361956e-002
8.060991e+002, 3.367216e-002
8.080275e+002, 3.368746e-002
8.099560e+002, 3.383634e-002
8.118845e+002, 3.405737e-002
8.138129e+002, 3.418309e-002
8.157414e+002, 3.437326e-002
8.176699e+002, 3.460053e-002
8.195983e+002, 3.469264e-002
8.215268e+002, 3.468819e-002
8.234553e+002, 3.484971e-002
8.253837e+002, 3.500872e-002
8.273122e+002, 3.505978e-002
8.292407e+002, 3.505997e-002
8.311691e+002, 3.505921e-002
8.330976e+002, 3.510902e-002
8.350261e+002, 3.526856e-002
8.369545e+002, 3.536016e-002
8.388830e+002, 3.538018e-002
8.408115e+002, 3.553130e-002
8.427399e+002, 3.576846e-002
8.446684e+002, 3.600213e-002
8.465969e+002, 3.618868e-002
8.485253e+002, 3.624449e-002
8.504538e+002, 3.651159e-002
8.523823e+002, 3.692498e-002
8.543107e+002, 3.708104e-002
8.562392e+002, 3.715223e-002
8.581677e+002, 3.749646e-002
8.600961e+002, 3.780328e-002
8.620246e+002, 3.796762e-002
8.639531e+002, 3.825818e-002
8.658815e+002, 3.875184e-002
8.678100e+002, 3.909921e-002
8.697385e+002, 3.942650e-002
8.716669e+002, 3.971108e-002
8.735954e+002, 4.033808e-002
8.755239e+002, 4.103236e-002
8.774523e+002, 4.154004e-002
8.793808e+002, 4.188236e-002
8.813093e+002, 4.220821e-002
8.832377e+002, 4.256609e-002
8.851662e+002, 4.300218e-002
8.870947e+002, 4.357879e-002
8.890231e+002, 4.424951e-002
8.909516e+002, 4.493658e-002
8.928801e+002, 4.556093e-002
8.948085e+002, 4.613490e-002
8.967370e+002, 4.672061e-002
8.986655e+002, 4.751166e-002
9.005939e+002, 4.831989e-002
9.025224e+002, 4.899982e-002
9.044509e+002, 4.963165e-002
9.063793e+002, 5.042585e-002
9.083078e+002, 5.123514e-002
9.102363e+002, 5.188849e-002
9.121647e+002, 5.255287e-002
9.140932e+002, 5.327075e-002
9.160217e+002, 5.390392e-002
9.179501e+002, 5.452521e-002
9.198786e+002, 5.513834e-002
9.218071e+002, 5.586411e-002
9.237355e+002, 5.668893e-002
9.256640e+002, 5.749409e-002
9.275925e+002, 5.840427e-002
9.295209e+002, 5.932868e-002
9.314494e+002, 6.029202e-002
9.333779e+002, 6.141609e-002
9.353063e+002, 6.259277e-002
9.372348e+002, 6.385621e-002
9.391633e+002, 6.528751e-002
9.410917e+002, 6.681025e-002
9.430202e+002, 6.840864e-002
9.449487e+002, 7.001923e-002
9.468771e+002, 7.163584e-002
9.488056e+002, 7.335963e-002
9.507341e+002, 7.492703e-002
9.526625e+002, 7.631665e-002
9.545910e+002, 7.769235e-002
9.565195e+002, 7.895341e-002
9.584479e+002, 8.017487e-002
9.603764e+002, 8.135197e-002
9.623049e+002, 8.233760e-002
9.642333e+002, 8.328944e-002
9.661618e+002, 8.432462e-002
9.680903e+002, 8.518179e-002
9.700187e+002, 8.599852e-002
9.719472e+002, 8.674160e-002
9.738757e+002, 8.763757e-002
9.758041e+002, 8.869269e-002
9.777326e+002, 8.984523e-002
9.796611e+002, 9.097178e-002
9.815895e+002, 9.203268e-002
9.835180e+002, 9.305657e-002
9.854465e+002, 9.390825e-002
9.873749e+002, 9.476942e-002
9.893034e+002, 9.557501e-002
9.912319e+002, 9.598225e-002
9.931603e+002, 9.607070e-002
9.950888e+002, 9.576806e-002
9.970173e+002, 9.511047e-002
9.989457e+002, 9.438457e-002
1.000874e+003, 9.361101e-002
1.002803e+003, 9.259224e-002
1.004731e+003, 9.142371e-002
1.006660e+003, 9.040089e-002
1.008588e+003, 8.965438e-002
1.010517e+003, 8.889296e-002
1.012445e+003, 8.829654e-002
1.014373e+003, 8.807081e-002
1.016302e+003, 8.784609e-002
1.018230e+003, 8.752475e-002
1.020159e+003, 8.724286e-002
1.022087e+003, 8.703783e-002
1.024016e+003, 8.684318e-002
1.025944e+003, 8.652349e-002
1.027873e+003, 8.626114e-002
1.029801e+003, 8.599985e-002
1.031730e+003, 8.574696e-002
1.033658e+003, 8.549778e-002
1.035587e+003, 8.516369e-002
1.037515e+003, 8.498823e-002
1.039443e+003, 8.488199e-002
1.041372e+003, 8.472537e-002
1.043300e+003, 8.469424e-002
1.045229e+003, 8.464200e-002
1.047157e+003, 8.463063e-002
1.049086e+003, 8.454103e-002
1.051014e+003, 8.459713e-002
1.052943e+003, 8.471096e-002
1.054871e+003, 8.474597e-002
1.056800e+003, 8.470011e-002
1.058728e+003, 8.462863e-002
1.060657e+003, 8.474781e-002
1.062585e+003, 8.476606e-002
1.064514e+003, 8.466021e-002
1.066442e+003, 8.466733e-002
1.068370e+003, 8.467233e-002
1.070299e+003, 8.462956e-002
1.072227e+003, 8.444622e-002
1.074156e+003, 8.437666e-002
1.076084e+003, 8.433016e-002
1.078013e+003, 8.416873e-002
1.079941e+003, 8.393726e-002
1.081870e+003, 8.384331e-002
1.083798e+003, 8.386923e-002
1.085727e+003, 8.387592e-002
1.087655e+003, 8.375391e-002
1.089584e+003, 8.369823e-002
1.091512e+003, 8.349208e-002
1.093441e+003, 8.338041e-002
1.095369e+003, 8.345929e-002
1.097297e+003, 8.361836e-002
1.099226e+003, 8.378264e-002
1.101154e+003, 8.391032e-002
1.103083e+003, 8.403423e-002
1.105011e+003, 8.434881e-002
1.106940e+003, 8.475629e-002
1.108868e+003, 8.498793e-002
1.110797e+003, 8.517060e-002
1.112725e+003, 8.537891e-002
1.114654e+003, 8.563914e-002
1.116582e+003, 8.581949e-002
1.118511e+003, 8.606344e-002
1.120439e+003, 8.642507e-002
1.122368e+003, 8.673757e-002
1.124296e+003, 8.712665e-002
1.126224e+003, 8.740795e-002
1.128153e+003, 8.761229e-002
1.130081e+003, 8.796132e-002
1.132010e+003, 8.839221e-002
1.133938e+003, 8.882768e-002
1.135867e+003, 8.924066e-002
1.137795e+003, 8.954900e-002
1.139724e+003, 8.993866e-002
1.141652e+003, 9.041146e-002
1.143581e+003, 9.076129e-002
1.145509e+003, 9.102731e-002
1.147438e+003, 9.129525e-002
1.149366e+003, 9.165584e-002
1.151295e+003, 9.216499e-002
1.153223e+003, 9.256472e-002
1.155151e+003, 9.280498e-002
1.157080e+003, 9.309551e-002
1.159008e+003, 9.348130e-002
1.160937e+003, 9.391525e-002
1.162865e+003, 9.432612e-002
1.164794e+003, 9.456600e-002
1.166722e+003, 9.479672e-002
1.168651e+003, 9.518124e-002
1.170579e+003, 9.560055e-002
1.172508e+003, 9.594398e-002
1.174436e+003, 9.635541e-002
1.176365e+003, 9.673589e-002
1.178293e+003, 9.712962e-002
1.180222e+003, 9.755583e-002
1.182150e+003, 9.790089e-002
1.184078e+003, 9.818538e-002
1.186007e+003, 9.860019e-002
1.187935e+003, 9.904625e-002
1.189864e+003, 9.947438e-002
1.191792e+003, 9.991132e-002
1.193721e+003, 1.003094e-001
1.195649e+003, 1.007128e-001
1.197578e+003, 1.010876e-001
1.199506e+003, 1.013980e-001
1.201435e+003, 1.017336e-001
1.203363e+003, 1.021083e-001
1.205292e+003, 1.024402e-001
1.207220e+003, 1.028121e-001
1.209149e+003, 1.032552e-001
1.211077e+003, 1.036380e-001
1.213005e+003, 1.039454e-001
1.214934e+003, 1.041585e-001
1.216862e+003, 1.044969e-001
1.218791e+003, 1.048588e-001
1.220719e+003, 1.052049e-001
1.222648e+003, 1.055527e-001
1.224576e+003, 1.059649e-001
1.226505e+003, 1.063777e-001
1.228433e+003, 1.067763e-001
1.230362e+003, 1.070650e-001
1.232290e+003, 1.074321e-001
1.234219e+003, 1.079581e-001
1.236147e+003, 1.082173e-001
1.238076e+003, 1.084192e-001
1.240004e+003, 1.087653e-001
1.241932e+003, 1.092878e-001
1.243861e+003, 1.097559e-001
1.245789e+003, 1.101327e-001
1.247718e+003, 1.105126e-001
1.249646e+003, 1.110084e-001
1.251575e+003, 1.113817e-001
1.253503e+003, 1.117891e-001
1.255432e+003, 1.123294e-001
1.257360e+003, 1.126843e-001
1.259289e+003, 1.130518e-001
1.261217e+003, 1.134404e-001
1.263146e+003, 1.137261e-001
1.265074e+003, 1.141039e-001
1.267003e+003, 1.147398e-001
1.268931e+003, 1.153789e-001
1.270859e+003, 1.159675e-001
1.272788e+003, 1.165916e-001
1.274716e+003, 1.171966e-001
1.276645e+003, 1.177365e-001
1.278573e+003, 1.180460e-001
1.280502e+003, 1.182929e-001
1.282430e+003, 1.184087e-001
1.284359e+003, 1.185728e-001
1.286287e+003, 1.188545e-001
1.288216e+003, 1.190279e-001
1.290144e+003, 1.191599e-001
1.292073e+003, 1.193924e-001
1.294001e+003, 1.197280e-001
1.295930e+003, 1.201073e-001
1.297858e+003, 1.203696e-001
1.299786e+003, 1.206942e-001
1.301715e+003, 1.211912e-001
1.303643e+003, 1.216712e-001
1.305572e+003, 1.219915e-001
1.307500e+003, 1.222480e-001
1.309429e+003, 1.225362e-001
1.311357e+003, 1.228493e-001
1.313286e+003, 1.231939e-001
1.315214e+003, 1.235430e-001
1.317143e+003, 1.238231e-001
1.319071e+003, 1.240988e-001
1.321000e+003, 1.243866e-001
1.322928e+003, 1.247559e-001
1.324857e+003, 1.251974e-001
1.326785e+003, 1.256365e-001
1.328714e+003, 1.259393e-001
1.330642e+003, 1.262888e-001
1.332570e+003, 1.266944e-001
1.334499e+003, 1.269867e-001
1.336427e+003, 1.271640e-001
1.338356e+003, 1.274175e-001
1.340284e+003, 1.277719e-001
1.342213e+003, 1.283115e-001
1.344141e+003, 1.288040e-001
1.346070e+003, 1.291194e-001
1.347998e+003, 1.293988e-001
1.349927e+003, 1.297466e-001
1.351855e+003, 1.300596e-001
1.353784e+003, 1.303980e-001
1.355712e+003, 1.307614e-001
1.357641e+003, 1.310416e-001
1.359569e+003, 1.312068e-001
1.361497e+003, 1.312898e-001
1.363426e+003, 1.317173e-001
1.365354e+003, 1.323615e-001
1.367283e+003, 1.327308e-001
1.369211e+003, 1.331574e-001
1.371140e+003, 1.335457e-001
1.373068e+003, 1.336841e-001
1.374997e+003, 1.340795e-001
1.376925e+003, 1.348761e-001
1.378854e+003, 1.352991e-001
1.380782e+003, 1.355851e-001
1.382711e+003, 1.358942e-001
1.384639e+003, 1.361775e-001
1.386568e+003, 1.359829e-001
1.388496e+003, 1.364507e-001
1.390424e+003, 1.374464e-001
1.392353e+003, 1.377992e-001
1.394281e+003, 1.376394e-001
1.396210e+003, 1.382708e-001
1.398138e+003, 1.388999e-001
1.400067e+003, 1.394742e-001
1.401995e+003, 1.400352e-001
1.403924e+003, 1.402455e-001
1.405852e+003, 1.405763e-001
1.407781e+003, 1.411598e-001
1.409709e+003, 1.416786e-001
1.411638e+003, 1.420846e-001
1.413566e+003, 1.423800e-001
1.415495e+003, 1.425210e-001
1.417423e+003, 1.419890e-001
1.419351e+003, 1.416072e-001
1.421280e+003, 1.427843e-001
1.423208e+003, 1.436129e-001
1.425137e+003, 1.440299e-001
1.427065e+003, 1.443672e-001
1.428994e+003, 1.443914e-001
1.430922e+003, 1.447196e-001
1.432851e+003, 1.451744e-001
1.434779e+003, 1.448228e-001
1.436708e+003, 1.442945e-001
1.438636e+003, 1.454180e-001
1.440565e+003, 1.460395e-001
1.442493e+003, 1.463159e-001
1.444422e+003, 1.465899e-001
1.446350e+003, 1.464214e-001
1.448278e+003, 1.462737e-001
1.450207e+003, 1.468974e-001
1.452135e+003, 1.471758e-001
1.454064e+003, 1.467303e-001
1.455992e+003, 1.449447e-001
1.457921e+003, 1.452780e-001
1.459849e+003, 1.472443e-001
1.461778e+003, 1.479207e-001
1.463706e+003, 1.474032e-001
1.465635e+003, 1.473795e-001
1.467563e+003, 1.480260e-001
1.469492e+003, 1.479768e-001
1.471420e+003, 1.470418e-001
1.473349e+003, 1.469679e-001
1.475277e+003, 1.481893e-001
1.477205e+003, 1.490373e-001
1.479134e+003, 1.497160e-001
1.481062e+003, 1.500069e-001
1.482991e+003, 1.503703e-001
1.484919e+003, 1.504111e-001
1.486848e+003, 1.501934e-001
1.488776e+003, 1.499870e-001
1.490705e+003, 1.501576e-001
1.492633e+003, 1.510532e-001
1.494562e+003, 1.507840e-001
1.496490e+003, 1.501365e-001
1.498419e+003, 1.509504e-001
1.500347e+003, 1.520147e-001
1.502276e+003, 1.526239e-001
1.504204e+003, 1.511939e-001
1.506132e+003, 1.490567e-001
1.508061e+003, 1.502208e-001
1.509989e+003, 1.521738e-001
1.511918e+003, 1.526802e-001
1.513846e+003, 1.530095e-001
1.515775e+003, 1.528127e-001
1.517703e+003, 1.528606e-001
1.519632e+003, 1.522146e-001
1.521560e+003, 1.516723e-001
1.523489e+003, 1.532284e-001
1.525417e+003, 1.538874e-001
1.527346e+003, 1.545548e-001
1.529274e+003, 1.553535e-001
1.531203e+003, 1.554197e-001
1.533131e+003, 1.549269e-001
1.535059e+003, 1.555603e-001
1.536988e+003, 1.552022e-001
1.538916e+003, 1.528694e-001
1.540845e+003, 1.530028e-001
1.542773e+003, 1.548988e-001
1.544702e+003, 1.561251e-001
1.546630e+003, 1.572160e-001
1.548559e+003, 1.577021e-001
1.550487e+003, 1.578894e-001
1.552416e+003, 1.576948e-001
1.554344e+003, 1.571443e-001
1.556273e+003, 1.564468e-001
1.558201e+003, 1.539501e-001
1.560130e+003, 1.546555e-001
1.562058e+003, 1.580837e-001
1.563986e+003, 1.592108e-001
1.565915e+003, 1.593676e-001
1.567843e+003, 1.591468e-001
1.569772e+003, 1.590914e-001
1.571700e+003, 1.601019e-001
1.573629e+003, 1.598952e-001
1.575557e+003, 1.582791e-001
1.577486e+003, 1.593342e-001
1.579414e+003, 1.612352e-001
1.581343e+003, 1.617169e-001
1.583271e+003, 1.619748e-001
1.585200e+003, 1.620350e-001
1.587128e+003, 1.622472e-001
1.589057e+003, 1.624571e-001
1.590985e+003, 1.627251e-001
1.592913e+003, 1.628426e-001
1.594842e+003, 1.630991e-001
1.596770e+003, 1.634018e-001
1.598699e+003, 1.636403e-001
1.600627e+003, 1.637573e-001
1.602556e+003, 1.639944e-001
1.604484e+003, 1.642918e-001
1.606413e+003, 1.643952e-001
1.608341e+003, 1.642461e-001
1.610270e+003, 1.644337e-001
1.612198e+003, 1.648288e-001
1.614127e+003, 1.643906e-001
1.616055e+003, 1.627731e-001
1.617984e+003, 1.637843e-001
1.619912e+003, 1.654446e-001
1.621840e+003, 1.651101e-001
1.623769e+003, 1.649884e-001
1.625697e+003, 1.656232e-001
1.627626e+003, 1.659134e-001
1.629554e+003, 1.664694e-001
1.631483e+003, 1.670170e-001
1.633411e+003, 1.660810e-001
1.635340e+003, 1.646442e-001
1.637268e+003, 1.658479e-001
1.639197e+003, 1.673087e-001
1.641125e+003, 1.676728e-001
1.643054e+003, 1.676342e-001
1.644982e+003, 1.663895e-001
1.646911e+003, 1.661423e-001
1.648839e+003, 1.676308e-001
1.650767e+003, 1.662262e-001
1.652696e+003, 1.627490e-001
1.654624e+003, 1.652709e-001
1.656553e+003, 1.688146e-001
1.658481e+003, 1.695176e-001
1.660410e+003, 1.693655e-001
1.662338e+003, 1.689602e-001
1.664267e+003, 1.695454e-001
1.666195e+003, 1.700437e-001
1.668124e+003, 1.691912e-001
1.670052e+003, 1.688451e-001
1.671981e+003, 1.696879e-001
1.673909e+003, 1.695476e-001
1.675838e+003, 1.694587e-001
1.677766e+003, 1.705894e-001
1.679694e+003, 1.709684e-001
1.681623e+003, 1.704833e-001
1.683551e+003, 1.678410e-001
1.685480e+003, 1.683448e-001
1.687408e+003, 1.711570e-001
1.689337e+003, 1.719246e-001
1.691265e+003, 1.723099e-001
1.693194e+003, 1.718497e-001
1.695122e+003, 1.696579e-001
1.697051e+003, 1.699786e-001
1.698979e+003, 1.697007e-001
1.700908e+003, 1.694732e-001
1.702836e+003, 1.721569e-001
1.704765e+003, 1.724896e-001
1.706693e+003, 1.730146e-001
1.708621e+003, 1.735400e-001
1.710550e+003, 1.739183e-001
1.712478e+003, 1.737152e-001
1.714407e+003, 1.728451e-001
1.716335e+003, 1.713600e-001
1.718264e+003, 1.717923e-001
1.720192e+003, 1.739752e-001
1.722121e+003, 1.748335e-001
1.724049e+003, 1.750878e-001
1.725978e+003, 1.755385e-001
1.727906e+003, 1.755474e-001
1.729835e+003, 1.753854e-001
1.731763e+003, 1.740872e-001
1.733692e+003, 1.720240e-001
1.735620e+003, 1.733841e-001
1.737548e+003, 1.748046e-001
1.739477e+003, 1.741156e-001
1.741405e+003, 1.744075e-001
1.743334e+003, 1.746837e-001
1.745262e+003, 1.748876e-001
1.747191e+003, 1.748155e-001
1.749119e+003, 1.744548e-001
1.751048e+003, 1.742551e-001
1.752976e+003, 1.757051e-001
1.754905e+003, 1.765795e-001
1.756833e+003, 1.765639e-001
1.758762e+003, 1.769657e-001
1.760690e+003, 1.768936e-001
1.762619e+003, 1.771324e-001
1.764547e+003, 1.779429e-001
1.766475e+003, 1.777489e-001
1.768404e+003, 1.774887e-001
1.770332e+003, 1.771409e-001
1.772261e+003, 1.766088e-001
1.774189e+003, 1.778362e-001
1.776118e+003, 1.790708e-001
1.778046e+003, 1.793696e-001
1.779975e+003, 1.793573e-001
1.781903e+003, 1.797346e-001
1.783832e+003, 1.801057e-001
1.785760e+003, 1.803518e-001
1.787689e+003, 1.806334e-001
1.789617e+003, 1.802148e-001
1.791546e+003, 1.796554e-001
1.793474e+003, 1.801441e-001
1.795402e+003, 1.811119e-001
1.797331e+003, 1.813306e-001
1.799259e+003, 1.813203e-001
1.801188e+003, 1.815534e-001
1.803116e+003, 1.821364e-001
1.805045e+003, 1.824103e-001
1.806973e+003, 1.826538e-001
1.808902e+003, 1.826888e-001
1.810830e+003, 1.828908e-001
1.812759e+003, 1.830226e-001
1.814687e+003, 1.832738e-001
1.816616e+003, 1.833972e-001
1.818544e+003, 1.836716e-001
1.820473e+003, 1.840508e-001
1.822401e+003, 1.842229e-001
1.824329e+003, 1.839305e-001
1.826258e+003, 1.843626e-001
1.828186e+003, 1.845477e-001
1.830115e+003, 1.843896e-001
1.832043e+003, 1.850391e-001
1.833972e+003, 1.854406e-001
1.835900e+003, 1.853897e-001
1.837829e+003, 1.857537e-001
1.839757e+003, 1.861696e-001
1.841686e+003, 1.860773e-001
1.843614e+003, 1.851942e-001
1.845543e+003, 1.854981e-001
1.847471e+003, 1.862307e-001
1.849400e+003, 1.868539e-001
1.851328e+003, 1.871557e-001
1.853256e+003, 1.875551e-001
1.855185e+003, 1.879539e-001
1.857113e+003, 1.881752e-001
1.859042e+003, 1.882574e-001
1.860970e+003, 1.884158e-001
1.862899e+003, 1.884879e-001
1.864827e+003, 1.884403e-001
1.866756e+003, 1.880843e-001
1.868684e+003, 1.879743e-001
1.870613e+003, 1.887565e-001
1.872541e+003, 1.893348e-001
1.874470e+003, 1.890413e-001
1.876398e+003, 1.893924e-001
1.878327e+003, 1.897581e-001
1.880255e+003, 1.899964e-001
1.882183e+003, 1.900786e-001
1.884112e+003, 1.901461e-001
1.886040e+003, 1.902575e-001
1.887969e+003, 1.902793e-001
1.889897e+003, 1.905656e-001
1.891826e+003, 1.910771e-001
1.893754e+003, 1.911567e-001
1.895683e+003, 1.912640e-001
1.897611e+003, 1.913275e-001
1.899540e+003, 1.915546e-001
1.901468e+003, 1.917854e-001
1.903397e+003, 1.921283e-001
1.905325e+003, 1.925018e-001
1.907254e+003, 1.927456e-001
1.909182e+003, 1.929087e-001
1.911110e+003, 1.932048e-001
1.913039e+003, 1.933083e-001
1.914967e+003, 1.934954e-001
1.916896e+003, 1.927741e-001
1.918824e+003, 1.927260e-001
1.920753e+003, 1.932667e-001
1.922681e+003, 1.937309e-001
1.924610e+003, 1.940863e-001
1.926538e+003, 1.943287e-001
1.928467e+003, 1.946900e-001
1.930395e+003, 1.952813e-001
1.932324e+003, 1.956520e-001
1.934252e+003, 1.957342e-001
1.936181e+003, 1.951942e-001
1.938109e+003, 1.953320e-001
1.940037e+003, 1.953098e-001
1.941966e+003, 1.948949e-001
1.943894e+003, 1.955665e-001
1.945823e+003, 1.965648e-001
1.947751e+003, 1.959663e-001
1.949680e+003, 1.952177e-001
1.951608e+003, 1.953705e-001
1.953537e+003, 1.957053e-001
1.955465e+003, 1.960637e-001
1.957394e+003, 1.970725e-001
1.959322e+003, 1.972909e-001
1.961251e+003, 1.974700e-001
1.963179e+003, 1.979265e-001
1.965108e+003, 1.975231e-001
1.967036e+003, 1.968600e-001
1.968964e+003, 1.971184e-001
1.970893e+003, 1.972520e-001
1.972821e+003, 1.972864e-001
1.974750e+003, 1.973584e-001
1.976678e+003, 1.979043e-001
1.978607e+003, 1.984663e-001
1.980535e+003, 1.991288e-001
1.982464e+003, 1.984337e-001
1.984392e+003, 1.985602e-001
1.986321e+003, 1.996814e-001
1.988249e+003, 1.995787e-001
1.990178e+003, 1.984714e-001
1.992106e+003, 1.989954e-001
1.994035e+003, 2.001309e-001
1.995963e+003, 2.003707e-001
1.997891e+003, 1.999682e-001
1.999820e+003, 2.001341e-001
2.001748e+003, 1.992268e-001
2.003677e+003, 1.993574e-001
2.005605e+003, 2.003174e-001
2.007534e+003, 2.006992e-001
2.009462e+003, 2.004626e-001
2.011391e+003, 2.008801e-001
2.013319e+003, 2.013415e-001
2.015248e+003, 2.017999e-001
2.017176e+003, 2.016944e-001
2.019105e+003, 2.013190e-001
2.021033e+003, 2.011713e-001
2.022962e+003, 2.016245e-001
2.024890e+003, 2.019919e-001
2.026818e+003, 2.026109e-001
2.028747e+003, 2.022376e-001
2.030675e+003, 2.021240e-001
2.032604e+003, 2.025702e-001
2.034532e+003, 2.033819e-001
2.036461e+003, 2.038184e-001
2.038389e+003, 2.042100e-001
2.040318e+003, 2.039285e-001
2.042246e+003, 2.033981e-001
2.044175e+003, 2.030589e-001
2.046103e+003, 2.042717e-001
2.048031e+003, 2.053405e-001
2.049960e+003, 2.058467e-001
2.051888e+003, 2.054089e-001
2.053817e+003, 2.051432e-001
2.055745e+003, 2.052882e-001
2.057674e+003, 2.053128e-001
2.059602e+003, 2.058511e-001
2.061531e+003, 2.056580e-001
2.063459e+003, 2.053097e-001
2.065388e+003, 2.056461e-001
2.067316e+003, 2.056289e-001
2.069245e+003, 2.054628e-001
2.071173e+003, 2.054874e-001
2.073102e+003, 2.059252e-001
2.075030e+003, 2.062189e-001
2.076958e+003, 2.063456e-001
2.078887e+003, 2.060084e-001
2.080815e+003, 2.056044e-001
2.082744e+003, 2.058392e-001
2.084672e+003, 2.066619e-001
2.086601e+003, 2.069485e-001
2.088529e+003, 2.067110e-001
2.090458e+003, 2.065776e-001
2.092386e+003, 2.065458e-001
2.094315e+003, 2.067357e-001
2.096243e+003, 2.074862e-001
2.098172e+003, 2.078597e-001
2.100100e+003, 2.077576e-001
2.102029e+003, 2.074272e-001
2.103957e+003, 2.075752e-001
2.105885e+003, 2.078892e-001
2.107814e+003, 2.079968e-001
2.109742e+003, 2.083889e-001
2.111671e+003, 2.087706e-001
2.113599e+003, 2.086888e-001
2.115528e+003, 2.087792e-001
2.117456e+003, 2.083727e-001
2.119385e+003, 2.080696e-001
2.121313e+003, 2.082773e-001
2.123242e+003, 2.084647e-001
2.125170e+003, 2.085969e-001
2.127099e+003, 2.092804e-001
2.129027e+003, 2.096330e-001
2.130956e+003, 2.097169e-001
2.132884e+003, 2.098528e-001
2.134813e+003, 2.101689e-001
2.136741e+003, 2.101191e-001
2.138669e+003, 2.104466e-001
2.140598e+003, 2.106169e-001
2.142526e+003, 2.103831e-001
2.144455e+003, 2.106982e-001
2.146383e+003, 2.106729e-001
2.148312e+003, 2.104927e-001
2.150240e+003, 2.112342e-001
2.152169e+003, 2.111614e-001
2.154097e+003, 2.108806e-001
2.156026e+003, 2.107475e-001
2.157954e+003, 2.105876e-001
2.159883e+003, 2.107662e-001
2.161811e+003, 2.128517e-001
2.163740e+003, 2.132129e-001
2.165668e+003, 2.126079e-001
2.167596e+003, 2.122028e-001
2.169525e+003, 2.122670e-001
2.171453e+003, 2.125338e-001
2.173382e+003, 2.126266e-001
2.175310e+003, 2.126588e-001
2.177239e+003, 2.125592e-001
2.179167e+003, 2.129877e-001
2.181096e+003, 2.132258e-001
2.183024e+003, 2.130020e-001
2.184953e+003, 2.129427e-001
2.186881e+003, 2.128851e-001
2.188810e+003, 2.133974e-001
2.190738e+003, 2.136849e-001
2.192667e+003, 2.138591e-001
2.194595e+003, 2.131451e-001
2.196523e+003, 2.135419e-001
2.198452e+003, 2.143518e-001
2.200380e+003, 2.145901e-001
2.202309e+003, 2.144708e-001
2.204237e+003, 2.148780e-001
2.206166e+003, 2.156984e-001
2.208094e+003, 2.158127e-001
2.210023e+003, 2.158996e-001
2.211951e+003, 2.165327e-001
2.213880e+003, 2.161561e-001
2.215808e+003, 2.155265e-001
2.217737e+003, 2.162378e-001
2.219665e+003, 2.167631e-001
2.221594e+003, 2.165378e-001
2.223522e+003, 2.162201e-001
2.225450e+003, 2.164788e-001
2.227379e+003, 2.163015e-001
2.229307e+003, 2.166246e-001
2.231236e+003, 2.169685e-001
2.233164e+003, 2.163253e-001
2.235093e+003, 2.163703e-001
2.237021e+003, 2.166411e-001
2.238950e+003, 2.163700e-001
2.240878e+003, 2.168016e-001
2.242807e+003, 2.175088e-001
2.244735e+003, 2.170540e-001
2.246664e+003, 2.171786e-001
2.248592e+003, 2.174381e-001
2.250521e+003, 2.173863e-001
2.252449e+003, 2.172024e-001
2.254377e+003, 2.176979e-001
2.256306e+003, 2.183084e-001
2.258234e+003, 2.177767e-001
2.260163e+003, 2.177031e-001
2.262091e+003, 2.181349e-001
2.264020e+003, 2.182331e-001
2.265948e+003, 2.187763e-001
2.267877e+003, 2.189338e-001
2.269805e+003, 2.187967e-001
2.271734e+003, 2.185322e-001
2.273662e+003, 2.181771e-001
2.275591e+003, 2.187557e-001
2.277519e+003, 2.193634e-001
2.279448e+003, 2.192030e-001
2.281376e+003, 2.192458e-001
2.283304e+003, 2.190577e-001
2.285233e+003, 2.186170e-001
2.287161e+003, 2.187255e-001
2.289090e+003, 2.188386e-001
2.291018e+003, 2.186552e-001
2.292947e+003, 2.184291e-001
2.294875e+003, 2.182691e-001
2.296804e+003, 2.185994e-001
2.298732e+003, 2.187773e-001
2.300661e+003, 2.188415e-001
2.302589e+003, 2.188466e-001
2.304518e+003, 2.188457e-001
2.306446e+003, 2.188983e-001
2.308375e+003, 2.191546e-001
2.310303e+003, 2.192288e-001
2.312231e+003, 2.195208e-001
2.314160e+003, 2.197125e-001
2.316088e+003, 2.197898e-001
2.318017e+003, 2.199200e-001
2.319945e+003, 2.199627e-001
2.321874e+003, 2.199027e-001
2.323802e+003, 2.200579e-001
2.325731e+003, 2.201677e-001
2.327659e+003, 2.199830e-001
2.329588e+003, 2.199806e-001
2.331516e+003, 2.201676e-001
2.333445e+003, 2.205334e-001
2.335373e+003, 2.207865e-001
2.337302e+003, 2.207791e-001
2.339230e+003, 2.207438e-001
2.341158e+003, 2.206077e-001
2.343087e+003, 2.207257e-001
2.345015e+003, 2.206768e-001
2.346944e+003, 2.204862e-001
2.348872e+003, 2.206093e-001
2.350801e+003, 2.210462e-001
2.352729e+003, 2.213046e-001
2.354658e+003, 2.212183e-001
2.356586e+003, 2.215588e-001
2.358515e+003, 2.221541e-001
2.360443e+003, 2.221706e-001
2.362372e+003, 2.223161e-001
2.364300e+003, 2.224494e-001
2.366229e+003, 2.223670e-001
2.368157e+003, 2.223036e-001
2.370085e+003, 2.224854e-001
2.372014e+003, 2.225808e-001
2.373942e+003, 2.223639e-001
2.375871e+003, 2.223262e-001
2.377799e+003, 2.221751e-001
2.379728e+003, 2.218900e-001
2.381656e+003, 2.219680e-001
2.383585e+003, 2.222908e-001
2.385513e+003, 2.225157e-001
2.387442e+003, 2.227895e-001
2.389370e+003, 2.229482e-001
2.391299e+003, 2.226616e-001
2.393227e+003, 2.226973e-001
2.395156e+003, 2.230005e-001
2.397084e+003, 2.233870e-001
2.399012e+003, 2.238372e-001
2.400941e+003, 2.238561e-001
2.402869e+003, 2.234607e-001
2.404798e+003, 2.235209e-001
2.406726e+003, 2.238078e-001
2.408655e+003, 2.240623e-001
2.410583e+003, 2.238672e-001
2.412512e+003, 2.237750e-001
2.414440e+003, 2.238178e-001
2.416369e+003, 2.242996e-001
2.418297e+003, 2.248658e-001
2.420226e+003, 2.249162e-001
2.422154e+003, 2.245980e-001
2.424083e+003, 2.247223e-001
2.426011e+003, 2.252215e-001
2.427939e+003, 2.252685e-001
2.429868e+003, 2.253069e-001
2.431796e+003, 2.253996e-001
2.433725e+003, 2.249556e-001
2.435653e+003, 2.249202e-001
2.437582e+003, 2.252809e-001
2.439510e+003, 2.254971e-001
2.441439e+003, 2.257830e-001
2.443367e+003, 2.259643e-001
2.445296e+003, 2.259253e-001
2.447224e+003, 2.260393e-001
2.449153e+003, 2.260401e-001
2.451081e+003, 2.259007e-001
2.453010e+003, 2.260622e-001
2.454938e+003, 2.262560e-001
2.456866e+003, 2.263876e-001
2.458795e+003, 2.263144e-001
2.460723e+003, 2.263956e-001
2.462652e+003, 2.264324e-001
2.464580e+003, 2.262155e-001
2.466509e+003, 2.265442e-001
2.468437e+003, 2.266955e-001
2.470366e+003, 2.266650e-001
2.472294e+003, 2.266813e-001
2.474223e+003, 2.267490e-001
2.476151e+003, 2.265488e-001
2.478080e+003, 2.268337e-001
2.480008e+003, 2.270368e-001
2.481937e+003, 2.267904e-001
2.483865e+003, 2.265793e-001
2.485793e+003, 2.269639e-001
2.487722e+003, 2.274464e-001
2.489650e+003, 2.276628e-001
2.491579e+003, 2.275415e-001
2.493507e+003, 2.274838e-001
2.495436e+003, 2.276919e-001
2.497364e+003, 2.277531e-001
2.499293e+003, 2.276714e-001
2.501221e+003, 2.276981e-001
2.503150e+003, 2.279213e-001
2.505078e+003, 2.276210e-001
2.507007e+003, 2.275887e-001
2.508935e+003, 2.283078e-001
2.510864e+003, 2.283987e-001
2.512792e+003, 2.280283e-001
2.514720e+003, 2.276848e-001
2.516649e+003, 2.280437e-001
2.518577e+003, 2.285890e-001
2.520506e+003, 2.286962e-001
2.522434e+003, 2.283664e-001
2.524363e+003, 2.286327e-001
2.526291e+003, 2.292436e-001
2.528220e+003, 2.296433e-001
2.530148e+003, 2.294656e-001
2.532077e+003, 2.289057e-001
2.534005e+003, 2.289211e-001
2.535934e+003, 2.294751e-001
2.537862e+003, 2.295083e-001
2.539791e+003, 2.293689e-001
2.541719e+003, 2.294491e-001
2.543647e+003, 2.295433e-001
2.545576e+003, 2.298704e-001
2.547504e+003, 2.303557e-001
2.549433e+003, 2.301504e-001
2.551361e+003, 2.298408e-001
2.553290e+003, 2.298352e-001
2.555218e+003, 2.298067e-001
2.557147e+003, 2.299621e-001
2.559075e+003, 2.302445e-001
2.561004e+003, 2.302159e-001
2.562932e+003, 2.304448e-001
2.564861e+003, 2.310523e-001
2.566789e+003, 2.314323e-001
2.568718e+003, 2.314451e-001
2.570646e+003, 2.311861e-001
2.572574e+003, 2.309081e-001
2.574503e+003, 2.313892e-001
2.576431e+003, 2.315264e-001
2.578360e+003, 2.310678e-001
2.580288e+003, 2.311303e-001
2.582217e+003, 2.313373e-001
2.584145e+003, 2.312990e-001
2.586074e+003, 2.313888e-001
2.588002e+003, 2.317916e-001
2.589931e+003, 2.321680e-001
2.591859e+003, 2.322522e-001
2.593788e+003, 2.321969e-001
2.595716e+003, 2.317155e-001
2.597645e+003, 2.315490e-001
2.599573e+003, 2.321009e-001
2.601501e+003, 2.323757e-001
2.603430e+003, 2.325776e-001
2.605358e+003, 2.327678e-001
2.607287e+003, 2.325144e-001
2.609215e+003, 2.326723e-001
2.611144e+003, 2.328987e-001
2.613072e+003, 2.329163e-001
2.615001e+003, 2.329127e-001
2.616929e+003, 2.328514e-001
2.618858e+003, 2.327334e-001
2.620786e+003, 2.327308e-001
2.622715e+003, 2.327398e-001
2.624643e+003, 2.326635e-001
2.626572e+003, 2.327864e-001
2.628500e+003, 2.328547e-001
2.630428e+003, 2.329376e-001
2.632357e+003, 2.333415e-001
2.634285e+003, 2.332021e-001
2.636214e+003, 2.330392e-001
2.638142e+003, 2.332174e-001
2.640071e+003, 2.334997e-001
2.641999e+003, 2.333697e-001
2.643928e+003, 2.332883e-001
2.645856e+003, 2.334753e-001
2.647785e+003, 2.336986e-001
2.649713e+003, 2.337627e-001
2.651642e+003, 2.335960e-001
2.653570e+003, 2.333082e-001
2.655499e+003, 2.334243e-001
2.657427e+003, 2.336783e-001
2.659355e+003, 2.338642e-001
2.661284e+003, 2.339004e-001
2.663212e+003, 2.337247e-001
2.665141e+003, 2.336577e-001
2.667069e+003, 2.338887e-001
2.668998e+003, 2.340783e-001
2.670926e+003, 2.341265e-001
2.672855e+003, 2.343991e-001
2.674783e+003, 2.346003e-001
2.676712e+003, 2.344694e-001
2.678640e+003, 2.345083e-001
2.680569e+003, 2.346171e-001
2.682497e+003, 2.350946e-001
2.684426e+003, 2.352694e-001
2.686354e+003, 2.350433e-001
2.688282e+003, 2.352170e-001
2.690211e+003, 2.352565e-001
2.692139e+003, 2.349682e-001
2.694068e+003, 2.350788e-001
2.695996e+003, 2.353757e-001
2.697925e+003, 2.357232e-001
2.699853e+003, 2.360122e-001
2.701782e+003, 2.359816e-001
2.703710e+003, 2.360651e-001
2.705639e+003, 2.361776e-001
2.707567e+003, 2.360800e-001
2.709496e+003, 2.361089e-001
2.711424e+003, 2.364217e-001
2.713353e+003, 2.367994e-001
2.715281e+003, 2.369478e-001
2.717209e+003, 2.368027e-001
2.719138e+003, 2.367742e-001
2.721066e+003, 2.370553e-001
2.722995e+003, 2.369031e-001
2.724923e+003, 2.368800e-001
2.726852e+003, 2.372867e-001
2.728780e+003, 2.374343e-001
2.730709e+003, 2.372044e-001
2.732637e+003, 2.373074e-001
2.734566e+003, 2.374143e-001
2.736494e+003, 2.375663e-001
2.738423e+003, 2.378592e-001
2.740351e+003, 2.378430e-001
2.742280e+003, 2.379087e-001
2.744208e+003, 2.380279e-001
2.746136e+003, 2.381203e-001
2.748065e+003, 2.381716e-001
2.749993e+003, 2.381914e-001
2.751922e+003, 2.384965e-001
2.753850e+003, 2.385187e-001
2.755779e+003, 2.385543e-001
2.757707e+003, 2.389308e-001
2.759636e+003, 2.391435e-001
2.761564e+003, 2.391358e-001
2.763493e+003, 2.390538e-001
2.765421e+003, 2.390491e-001
2.767350e+003, 2.390293e-001
2.769278e+003, 2.391432e-001
2.771207e+003, 2.394845e-001
2.773135e+003, 2.395518e-001
2.775063e+003, 2.395193e-001
2.776992e+003, 2.397860e-001
2.778920e+003, 2.399164e-001
2.780849e+003, 2.401069e-001
2.782777e+003, 2.400961e-001
2.784706e+003, 2.400214e-001
2.786634e+003, 2.401040e-001
2.788563e+003, 2.403841e-001
2.790491e+003, 2.405020e-001
2.792420e+003, 2.403636e-001
2.794348e+003, 2.403898e-001
2.796277e+003, 2.404369e-001
2.798205e+003, 2.406832e-001
2.800134e+003, 2.406940e-001
2.802062e+003, 2.409394e-001
2.803990e+003, 2.412483e-001
2.805919e+003, 2.411413e-001
2.807847e+003, 2.409294e-001
2.809776e+003, 2.411628e-001
2.811704e+003, 2.414403e-001
2.813633e+003, 2.415029e-001
2.815561e+003, 2.417187e-001
2.817490e+003, 2.419297e-001
2.819418e+003, 2.419233e-001
2.821347e+003, 2.416643e-001
2.823275e+003, 2.417774e-001
2.825204e+003, 2.423092e-001
2.827132e+003, 2.424928e-001
2.829061e+003, 2.425772e-001
2.830989e+003, 2.425926e-001
2.832917e+003, 2.424935e-001
2.834846e+003, 2.427709e-001
2.836774e+003, 2.428929e-001
2.838703e+003, 2.428628e-001
2.840631e+003, 2.425004e-001
2.842560e+003, 2.420736e-001
2.844488e+003, 2.416975e-001
2.846417e+003, 2.406250e-001
2.848345e+003, 2.398241e-001
2.850274e+003, 2.396577e-001
2.852202e+003, 2.401203e-001
2.854131e+003, 2.407032e-001
2.856059e+003, 2.412887e-001
2.857988e+003, 2.418883e-001
2.859916e+003, 2.424094e-001
2.861844e+003, 2.429011e-001
2.863773e+003, 2.431899e-001
2.865701e+003, 2.433869e-001
2.867630e+003, 2.433251e-001
2.869558e+003, 2.431850e-001
2.871487e+003, 2.433729e-001
2.873415e+003, 2.437630e-001
2.875344e+003, 2.437457e-001
2.877272e+003, 2.436058e-001
2.879201e+003, 2.436047e-001
2.881129e+003, 2.437504e-001
2.883058e+003, 2.439622e-001
2.884986e+003, 2.441696e-001
2.886915e+003, 2.442500e-001
2.888843e+003, 2.441209e-001
2.890771e+003, 2.441100e-001
2.892700e+003, 2.441384e-001
2.894628e+003, 2.438448e-001
2.896557e+003, 2.437927e-001
2.898485e+003, 2.438701e-001
2.900414e+003, 2.438964e-001
2.902342e+003, 2.440392e-001
2.904271e+003, 2.438651e-001
2.906199e+003, 2.435840e-001
2.908128e+003, 2.433466e-001
2.910056e+003, 2.430090e-001
2.911985e+003, 2.422111e-001
2.913913e+003, 2.414252e-001
2.915842e+003, 2.408852e-001
2.917770e+003, 2.404984e-001
2.919698e+003, 2.400999e-001
2.921627e+003, 2.406567e-001
2.923555e+003, 2.417271e-001
2.925484e+003, 2.423291e-001
2.927412e+003, 2.426773e-001
2.929341e+003, 2.431430e-001
2.931269e+003, 2.434557e-001
2.933198e+003, 2.437181e-001
2.935126e+003, 2.437994e-001
2.937055e+003, 2.439786e-001
2.938983e+003, 2.439709e-001
2.940912e+003, 2.443719e-001
2.942840e+003, 2.443890e-001
2.944769e+003, 2.442755e-001
2.946697e+003, 2.446748e-001
2.948625e+003, 2.449768e-001
2.950554e+003, 2.451029e-001
2.952482e+003, 2.455110e-001
2.954411e+003, 2.460613e-001
2.956339e+003, 2.460476e-001
2.958268e+003, 2.456423e-001
2.960196e+003, 2.454385e-001
2.962125e+003, 2.458065e-001
2.964053e+003, 2.463240e-001
2.965982e+003, 2.462459e-001
2.967910e+003, 2.457917e-001
2.969839e+003, 2.455714e-001
2.971767e+003, 2.456351e-001
2.973696e+003, 2.459238e-001
2.975624e+003, 2.458324e-001
2.977552e+003, 2.457447e-001
2.979481e+003, 2.458149e-001
2.981409e+003, 2.463147e-001
2.983338e+003, 2.465026e-001
2.985266e+003, 2.465054e-001
2.987195e+003, 2.464878e-001
2.989123e+003, 2.461856e-001
2.991052e+003, 2.462099e-001
2.992980e+003, 2.465407e-001
2.994909e+003, 2.464381e-001
2.996837e+003, 2.464220e-001
2.998766e+003, 2.467963e-001
3.000694e+003, 2.468755e-001
3.002623e+003, 2.468076e-001
3.004551e+003, 2.471412e-001
3.006479e+003, 2.476401e-001
3.008408e+003, 2.478461e-001
3.010336e+003, 2.477425e-001
3.012265e+003, 2.477785e-001
3.014193e+003, 2.480320e-001
3.016122e+003, 2.483613e-001
3.018050e+003, 2.482453e-001
3.019979e+003, 2.477787e-001
3.021907e+003, 2.480775e-001
3.023836e+003, 2.482938e-001
3.025764e+003, 2.484206e-001
3.027693e+003, 2.484534e-001
3.029621e+003, 2.485320e-001
3.031550e+003, 2.483126e-001
3.033478e+003, 2.484549e-001
3.035406e+003, 2.485277e-001
3.037335e+003, 2.483909e-001
3.039263e+003, 2.484180e-001
3.041192e+003, 2.487948e-001
3.043120e+003, 2.490271e-001
3.045049e+003, 2.487002e-001
3.046977e+003, 2.488862e-001
3.048906e+003, 2.493108e-001
3.050834e+003, 2.494369e-001
3.052763e+003, 2.495801e-001
3.054691e+003, 2.497050e-001
3.056620e+003, 2.499020e-001
3.058548e+003, 2.497388e-001
3.060477e+003, 2.497703e-001
3.062405e+003, 2.500434e-001
3.064333e+003, 2.500469e-001
3.066262e+003, 2.501228e-001
3.068190e+003, 2.503257e-001
3.070119e+003, 2.502246e-001
3.072047e+003, 2.499365e-001
3.073976e+003, 2.499143e-001
3.075904e+003, 2.506160e-001
3.077833e+003, 2.511038e-001
3.079761e+003, 2.508667e-001
3.081690e+003, 2.505707e-001
3.083618e+003, 2.506460e-001
3.085547e+003, 2.507775e-001
3.087475e+003, 2.508170e-001
3.089404e+003, 2.507740e-001
3.091332e+003, 2.510010e-001
3.093260e+003, 2.515535e-001
3.095189e+003, 2.519631e-001
3.097117e+003, 2.515215e-001
3.099046e+003, 2.513189e-001
3.100974e+003, 2.513512e-001
3.102903e+003, 2.512013e-001
3.104831e+003, 2.510764e-001
3.106760e+003, 2.515323e-001
3.108688e+003, 2.518424e-001
3.110617e+003, 2.517858e-001
3.112545e+003, 2.516460e-001
3.114474e+003, 2.516221e-001
3.116402e+003, 2.517482e-001
3.118331e+003, 2.520530e-001
3.120259e+003, 2.521913e-001
3.122188e+003, 2.522091e-001
3.124116e+003, 2.523368e-001
3.126044e+003, 2.525608e-001
3.127973e+003, 2.526706e-001
3.129901e+003, 2.527706e-001
3.131830e+003, 2.524252e-001
3.133758e+003, 2.521935e-001
3.135687e+003, 2.520359e-001
3.137615e+003, 2.525017e-001
3.139544e+003, 2.531120e-001
3.141472e+003, 2.530990e-001
3.143401e+003, 2.532375e-001
3.145329e+003, 2.533549e-001
3.147258e+003, 2.532491e-001
3.149186e+003, 2.530695e-001
3.151115e+003, 2.534764e-001
3.153043e+003, 2.539414e-001
3.154971e+003, 2.538228e-001
3.156900e+003, 2.539391e-001
3.158828e+003, 2.542525e-001
3.160757e+003, 2.541448e-001
3.162685e+003, 2.539626e-001
3.164614e+003, 2.540794e-001
3.166542e+003, 2.544388e-001
3.168471e+003, 2.540564e-001
3.170399e+003, 2.536099e-001
3.172328e+003, 2.536917e-001
3.174256e+003, 2.540601e-001
3.176185e+003, 2.541218e-001
3.178113e+003, 2.544966e-001
3.180042e+003, 2.546665e-001
3.181970e+003, 2.545772e-001
3.183898e+003, 2.548914e-001
3.185827e+003, 2.550956e-001
3.187755e+003, 2.549475e-001
3.189684e+003, 2.543951e-001
3.191612e+003, 2.545919e-001
3.193541e+003, 2.546986e-001
3.195469e+003, 2.544355e-001
3.197398e+003, 2.544316e-001
3.199326e+003, 2.547999e-001
3.201255e+003, 2.548723e-001
3.203183e+003, 2.546962e-001
3.205112e+003, 2.546589e-001
3.207040e+003, 2.550315e-001
3.208969e+003, 2.552031e-001
3.210897e+003, 2.549276e-001
3.212825e+003, 2.549023e-001
3.214754e+003, 2.548561e-001
3.216682e+003, 2.549917e-001
3.218611e+003, 2.554315e-001
3.220539e+003, 2.558124e-001
3.222468e+003, 2.557516e-001
3.224396e+003, 2.554489e-001
3.226325e+003, 2.555337e-001
3.228253e+003, 2.560810e-001
3.230182e+003, 2.565416e-001
3.232110e+003, 2.564177e-001
3.234039e+003, 2.562644e-001
3.235967e+003, 2.561613e-001
3.237896e+003, 2.561005e-001
3.239824e+003, 2.561952e-001
3.241752e+003, 2.562484e-001
3.243681e+003, 2.560806e-001
3.245609e+003, 2.558088e-001
3.247538e+003, 2.557293e-001
3.249466e+003, 2.560493e-001
3.251395e+003, 2.559280e-001
3.253323e+003, 2.559767e-001
3.255252e+003, 2.564549e-001
3.257180e+003, 2.566416e-001
3.259109e+003, 2.567502e-001
3.261037e+003, 2.566397e-001
3.262966e+003, 2.566514e-001
3.264894e+003, 2.568422e-001
3.266823e+003, 2.571274e-001
3.268751e+003, 2.572298e-001
3.270679e+003, 2.575276e-001
3.272608e+003, 2.574277e-001
3.274536e+003, 2.572165e-001
3.276465e+003, 2.575527e-001
3.278393e+003, 2.576769e-001
3.280322e+003, 2.572930e-001
3.282250e+003, 2.568597e-001
3.284179e+003, 2.569429e-001
3.286107e+003, 2.578481e-001
3.288036e+003, 2.584459e-001
3.289964e+003, 2.580257e-001
3.291893e+003, 2.579440e-001
3.293821e+003, 2.582609e-001
3.295750e+003, 2.580450e-001
3.297678e+003, 2.577756e-001
3.299606e+003, 2.581381e-001
3.301535e+003, 2.581773e-001
3.303463e+003, 2.585015e-001
3.305392e+003, 2.587802e-001
3.307320e+003, 2.582757e-001
3.309249e+003, 2.581905e-001
3.311177e+003, 2.585751e-001
3.313106e+003, 2.588066e-001
3.315034e+003, 2.587260e-001
3.316963e+003, 2.582471e-001
3.318891e+003, 2.586271e-001
3.320820e+003, 2.585168e-001
3.322748e+003, 2.587496e-001
3.324677e+003, 2.591846e-001
3.326605e+003, 2.590976e-001
3.328533e+003, 2.593487e-001
3.330462e+003, 2.592013e-001
3.332390e+003, 2.589948e-001
3.334319e+003, 2.593969e-001
3.336247e+003, 2.595923e-001
3.338176e+003, 2.590441e-001
3.340104e+003, 2.590965e-001
3.342033e+003, 2.599868e-001
3.343961e+003, 2.600824e-001
3.345890e+003, 2.598506e-001
3.347818e+003, 2.601126e-001
3.349747e+003, 2.599833e-001
3.351675e+003, 2.596958e-001
3.353604e+003, 2.597221e-001
3.355532e+003, 2.594912e-001
3.357460e+003, 2.594349e-001
3.359389e+003, 2.597644e-001
3.361317e+003, 2.596656e-001
3.363246e+003, 2.596382e-001
3.365174e+003, 2.596041e-001
3.367103e+003, 2.592670e-001
3.369031e+003, 2.593096e-001
3.370960e+003, 2.596446e-001
3.372888e+003, 2.598211e-001
3.374817e+003, 2.597249e-001
3.376745e+003, 2.598332e-001
3.378674e+003, 2.600587e-001
3.380602e+003, 2.601912e-001
3.382531e+003, 2.600947e-001
3.384459e+003, 2.595399e-001
3.386387e+003, 2.597369e-001
3.388316e+003, 2.598563e-001
3.390244e+003, 2.602545e-001
3.392173e+003, 2.608816e-001
3.394101e+003, 2.607788e-001
3.396030e+003, 2.606267e-001
3.397958e+003, 2.603443e-001
3.399887e+003, 2.608356e-001
3.401815e+003, 2.607894e-001
3.403744e+003, 2.602364e-001
3.405672e+003, 2.604347e-001
3.407601e+003, 2.601992e-001
3.409529e+003, 2.600075e-001
3.411458e+003, 2.600424e-001
3.413386e+003, 2.604529e-001
3.415314e+003, 2.606400e-001
3.417243e+003, 2.604926e-001
3.419171e+003, 2.605383e-001
3.421100e+003, 2.603519e-001
3.423028e+003, 2.603725e-001
3.424957e+003, 2.606407e-001
3.426885e+003, 2.608413e-001
3.428814e+003, 2.608333e-001
3.430742e+003, 2.608205e-001
3.432671e+003, 2.609299e-001
3.434599e+003, 2.608613e-001
3.436528e+003, 2.608704e-001
3.438456e+003, 2.608451e-001
3.440385e+003, 2.607252e-001
3.442313e+003, 2.602889e-001
3.444241e+003, 2.600327e-001
3.446170e+003, 2.606686e-001
3.448098e+003, 2.606212e-001
3.450027e+003, 2.604118e-001
3.451955e+003, 2.606959e-001
3.453884e+003, 2.604631e-001
3.455812e+003, 2.604916e-001
3.457741e+003, 2.608305e-001
3.459669e+003, 2.610324e-001
3.461598e+003, 2.611477e-001
3.463526e+003, 2.615917e-001
3.465455e+003, 2.613519e-001
3.467383e+003, 2.606588e-001
3.469312e+003, 2.607942e-001
3.471240e+003, 2.605330e-001
3.473168e+003, 2.602324e-001
3.475097e+003, 2.607404e-001
3.477025e+003, 2.612691e-001
3.478954e+003, 2.618054e-001
3.480882e+003, 2.624031e-001
3.482811e+003, 2.622283e-001
3.484739e+003, 2.619518e-001
3.486668e+003, 2.618438e-001
3.488596e+003, 2.618128e-001
3.490525e+003, 2.618510e-001
3.492453e+003, 2.610503e-001
3.494382e+003, 2.604326e-001
3.496310e+003, 2.609766e-001
3.498239e+003, 2.615204e-001
3.500167e+003, 2.618548e-001
3.502095e+003, 2.621987e-001
3.504024e+003, 2.618510e-001
3.505952e+003, 2.617236e-001
3.507881e+003, 2.614880e-001
3.509809e+003, 2.614329e-001
3.511738e+003, 2.614587e-001
3.513666e+003, 2.613402e-001
3.515595e+003, 2.614234e-001
3.517523e+003, 2.615156e-001
3.519452e+003, 2.616917e-001
3.521380e+003, 2.622962e-001
3.523309e+003, 2.623518e-001
3.525237e+003, 2.618311e-001
3.527166e+003, 2.618591e-001
3.529094e+003, 2.619749e-001
3.531022e+003, 2.619730e-001
3.532951e+003, 2.617404e-001
3.534879e+003, 2.617111e-001
3.536808e+003, 2.618518e-001
3.538736e+003, 2.617682e-001
3.540665e+003, 2.617968e-001
3.542593e+003, 2.623467e-001
3.544522e+003, 2.632160e-001
3.546450e+003, 2.631670e-001
3.548379e+003, 2.626591e-001
3.550307e+003, 2.629676e-001
3.552236e+003, 2.627365e-001
3.554164e+003, 2.618865e-001
3.556093e+003, 2.620522e-001
3.558021e+003, 2.630304e-001
3.559949e+003, 2.636212e-001
3.561878e+003, 2.634179e-001
3.563806e+003, 2.632980e-001
3.565735e+003, 2.640803e-001
3.567663e+003, 2.637399e-001
3.569592e+003, 2.629993e-001
3.571520e+003, 2.632368e-001
3.573449e+003, 2.636597e-001
3.575377e+003, 2.636935e-001
3.577306e+003, 2.629347e-001
3.579234e+003, 2.624741e-001
3.581163e+003, 2.620499e-001
3.583091e+003, 2.626248e-001
3.585020e+003, 2.635467e-001
3.586948e+003, 2.636678e-001
3.588876e+003, 2.635855e-001
3.590805e+003, 2.632691e-001
3.592733e+003, 2.630355e-001
3.594662e+003, 2.637057e-001
3.596590e+003, 2.635947e-001
3.598519e+003, 2.637143e-001
3.600447e+003, 2.640777e-001
3.602376e+003, 2.636575e-001
3.604304e+003, 2.636891e-001
3.606233e+003, 2.650193e-001
3.608161e+003, 2.650985e-001
3.610090e+003, 2.642274e-001
3.612018e+003, 2.650006e-001
3.613947e+003, 2.644820e-001
3.615875e+003, 2.638123e-001
3.617803e+003, 2.645762e-001
3.619732e+003, 2.648680e-001
3.621660e+003, 2.639773e-001
3.623589e+003, 2.638459e-001
3.625517e+003, 2.647146e-001
3.627446e+003, 2.669379e-001
3.629374e+003, 2.670596e-001
3.631303e+003, 2.646830e-001
3.633231e+003, 2.640116e-001
3.635160e+003, 2.638325e-001
3.637088e+003, 2.647819e-001
3.639017e+003, 2.651021e-001
3.640945e+003, 2.650045e-001
3.642874e+003, 2.650560e-001
3.644802e+003, 2.658686e-001
3.646730e+003, 2.672320e-001
3.648659e+003, 2.675886e-001
3.650587e+003, 2.665697e-001
3.652516e+003, 2.653663e-001
3.654444e+003, 2.653760e-001
3.656373e+003, 2.656825e-001
3.658301e+003, 2.650258e-001
3.660230e+003, 2.645839e-001
3.662158e+003, 2.653162e-001
3.664087e+003, 2.656844e-001
3.666015e+003, 2.653943e-001
3.667944e+003, 2.672088e-001
3.669872e+003, 2.678680e-001
3.671801e+003, 2.664240e-001
3.673729e+003, 2.682538e-001
3.675657e+003, 2.685258e-001
3.677586e+003, 2.660464e-001
3.679514e+003, 2.658521e-001
3.681443e+003, 2.654917e-001
3.683371e+003, 2.656378e-001
3.685300e+003, 2.659467e-001
3.687228e+003, 2.661028e-001
3.689157e+003, 2.668498e-001
3.691085e+003, 2.670831e-001
3.693014e+003, 2.663697e-001
3.694942e+003, 2.658540e-001
3.696871e+003, 2.654581e-001
3.698799e+003, 2.661782e-001
3.700728e+003, 2.678691e-001
3.702656e+003, 2.676662e-001
3.704584e+003, 2.663761e-001
3.706513e+003, 2.667342e-001
3.708441e+003, 2.684339e-001
3.710370e+003, 2.691307e-001
3.712298e+003, 2.681374e-001
3.714227e+003, 2.674080e-001
3.716155e+003, 2.666058e-001
3.718084e+003, 2.667441e-001
3.720012e+003, 2.672208e-001
3.721941e+003, 2.675008e-001
3.723869e+003, 2.678419e-001
3.725798e+003, 2.673284e-001
3.727726e+003, 2.662244e-001
3.729655e+003, 2.670417e-001
3.731583e+003, 2.681074e-001
3.733511e+003, 2.684784e-001
3.735440e+003, 2.692974e-001
3.737368e+003, 2.680694e-001
3.739297e+003, 2.663913e-001
3.741225e+003, 2.662672e-001
3.743154e+003, 2.678748e-001
3.745082e+003, 2.675845e-001
3.747011e+003, 2.674135e-001
3.748939e+003, 2.681504e-001
3.750868e+003, 2.685295e-001
3.752796e+003, 2.678485e-001
3.754725e+003, 2.675787e-001
3.756653e+003, 2.682221e-001
3.758582e+003, 2.690617e-001
3.760510e+003, 2.685645e-001
3.762438e+003, 2.679166e-001
3.764367e+003, 2.684518e-001
3.766295e+003, 2.682263e-001
3.768224e+003, 2.681908e-001
3.770152e+003, 2.678485e-001
3.772081e+003, 2.670410e-001
3.774009e+003, 2.672359e-001
3.775938e+003, 2.672905e-001
3.777866e+003, 2.677301e-001
3.779795e+003, 2.678656e-001
3.781723e+003, 2.674844e-001
3.783652e+003, 2.677717e-001
3.785580e+003, 2.671277e-001
3.787509e+003, 2.666596e-001
3.789437e+003, 2.670096e-001
3.791365e+003, 2.672423e-001
3.793294e+003, 2.685236e-001
3.795222e+003, 2.693014e-001
3.797151e+003, 2.689711e-001
3.799079e+003, 2.691284e-001
3.801008e+003, 2.694738e-001
3.802936e+003, 2.688762e-001
3.804865e+003, 2.691896e-001
3.806793e+003, 2.695847e-001
3.808722e+003, 2.685638e-001
3.810650e+003, 2.685363e-001
3.812579e+003, 2.691065e-001
3.814507e+003, 2.697950e-001
3.816436e+003, 2.690978e-001
3.818364e+003, 2.697682e-001
3.820292e+003, 2.714180e-001
3.822221e+003, 2.703857e-001
3.824149e+003, 2.698268e-001
3.826078e+003, 2.700978e-001
3.828006e+003, 2.698696e-001
3.829935e+003, 2.700307e-001
3.831863e+003, 2.697139e-001
3.833792e+003, 2.704921e-001
3.835720e+003, 2.708065e-001
3.837649e+003, 2.705685e-001
3.839577e+003, 2.712603e-001
3.841506e+003, 2.714727e-001
3.843434e+003, 2.713401e-001
3.845363e+003, 2.699556e-001
3.847291e+003, 2.692350e-001
3.849219e+003, 2.700517e-001
3.851148e+003, 2.711727e-001
3.853076e+003, 2.724718e-001
3.855005e+003, 2.700322e-001
3.856933e+003, 2.693130e-001
3.858862e+003, 2.696212e-001
3.860790e+003, 2.703462e-001
3.862719e+003, 2.710827e-001
3.864647e+003, 2.716976e-001
3.866576e+003, 2.716218e-001
3.868504e+003, 2.724153e-001
3.870433e+003, 2.719658e-001
3.872361e+003, 2.713183e-001
3.874290e+003, 2.713047e-001
3.876218e+003, 2.706115e-001
3.878146e+003, 2.709731e-001
3.880075e+003, 2.718211e-001
3.882003e+003, 2.717117e-001
3.883932e+003, 2.721539e-001
3.885860e+003, 2.720969e-001
3.887789e+003, 2.710560e-001
3.889717e+003, 2.715630e-001
3.891646e+003, 2.723764e-001
3.893574e+003, 2.716108e-001
3.895503e+003, 2.698158e-001
3.897431e+003, 2.704409e-001
3.899360e+003, 2.720234e-001
3.901288e+003, 2.729599e-001
3.903217e+003, 2.735736e-001
3.905145e+003, 2.729550e-001
3.907073e+003, 2.719008e-001
3.909002e+003, 2.708539e-001
3.910930e+003, 2.705103e-001
3.912859e+003, 2.706229e-001
3.914787e+003, 2.710527e-001
3.916716e+003, 2.718827e-001
3.918644e+003, 2.721156e-001
3.920573e+003, 2.718583e-001
3.922501e+003, 2.724369e-001
3.924430e+003, 2.724659e-001
3.926358e+003, 2.715361e-001
3.928287e+003, 2.720450e-001
3.930215e+003, 2.729128e-001
3.932144e+003, 2.723966e-001
3.934072e+003, 2.717590e-001
3.936000e+003, 2.719156e-001
3.937929e+003, 2.719010e-001
3.939857e+003, 2.718374e-001
3.941786e+003, 2.720282e-001
3.943714e+003, 2.720541e-001
3.945643e+003, 2.725638e-001
3.947571e+003, 2.728223e-001
3.949500e+003, 2.725712e-001
3.951428e+003, 2.724171e-001
3.953357e+003, 2.723053e-001
3.955285e+003, 2.728141e-001
3.957214e+003, 2.728312e-001
3.959142e+003, 2.729585e-001
3.961071e+003, 2.728455e-001
3.962999e+003, 2.727317e-001
3.964927e+003, 2.731782e-001
3.966856e+003, 2.734024e-001
3.968784e+003, 2.731260e-001
3.970713e+003, 2.728614e-001
3.972641e+003, 2.726799e-001
3.974570e+003, 2.727813e-001
3.976498e+003, 2.739001e-001
3.978427e+003, 2.734935e-001
3.980355e+003, 2.727282e-001
3.982284e+003, 2.726049e-001
3.984212e+003, 2.733380e-001
3.986141e+003, 2.740052e-001
3.988069e+003, 2.741318e-001
3.989998e+003, 2.738470e-001
3.991926e+003, 2.733148e-001
3.993854e+003, 2.739688e-001
3.995783e+003, 2.744502e-001
3.997711e+003, 2.741081e-001
3.999640e+003, 2.739148e-001
4.001568e+003, 0.000000e+000
##END=



