##NAMES=Magnesio-fluoro-arfvedsonite
##RRUFFID=R050515
##IDEAL CHEMISTRY=NaNa_2_(Mg_4_Fe^3+^)Si_8_O_22_F_2_
##LOCALITY=unknown
##OWNER=RRUFF
##SOURCE=Frank Hawthorne
##DESCRIPTION=Numerous small dark green fragments
##STATUS=The identification of this mineral has been confirmed by X-ray diffraction and chemical analysis
##URL=rruff.info/R050515
##MEASURED CHEMISTRY=(Na_0.48_K_0.20_[box]_0.32_)(Na_1.50_Ca_0.50_)_Σ=2_(Mg_2.05_Fe^2+^_1.45_Mn_0.50_)_Σ=4_(Fe^3+^_0.80_Mn_0.05_Al_0.10_Ti_0.05_)(Si_0.97_Al_0.03_)_8_O_22_(F_0.65_(OH)_0.35_)_2_
3.741225e+002, 2.195232e-001
3.760510e+002, 2.062927e-001
3.779795e+002, 2.041291e-001
3.799079e+002, 2.099380e-001
3.818364e+002, 2.155141e-001
3.837649e+002, 2.182374e-001
3.856933e+002, 2.158695e-001
3.876218e+002, 2.144867e-001
3.895503e+002, 2.137111e-001
3.914787e+002, 2.095868e-001
3.934072e+002, 2.083290e-001
3.953357e+002, 2.097585e-001
3.972641e+002, 2.152792e-001
3.991926e+002, 2.149041e-001
4.011211e+002, 2.150978e-001
4.030495e+002, 2.092376e-001
4.049780e+002, 2.069231e-001
4.069065e+002, 2.140153e-001
4.088349e+002, 2.210297e-001
4.107634e+002, 2.212418e-001
4.126919e+002, 2.238492e-001
4.146203e+002, 2.292975e-001
4.165488e+002, 2.307416e-001
4.184773e+002, 2.300189e-001
4.204057e+002, 2.318190e-001
4.223342e+002, 2.329204e-001
4.242627e+002, 2.349494e-001
4.261911e+002, 2.353556e-001
4.281196e+002, 2.362633e-001
4.300481e+002, 2.375719e-001
4.319765e+002, 2.384088e-001
4.339050e+002, 2.393698e-001
4.358335e+002, 2.415986e-001
4.377619e+002, 2.437520e-001
4.396904e+002, 2.436082e-001
4.416189e+002, 2.443161e-001
4.435473e+002, 2.476138e-001
4.454758e+002, 2.485944e-001
4.474043e+002, 2.491138e-001
4.493327e+002, 2.491954e-001
4.512612e+002, 2.475454e-001
4.531897e+002, 2.446881e-001
4.551181e+002, 2.426064e-001
4.570466e+002, 2.388025e-001
4.589751e+002, 2.354564e-001
4.609035e+002, 2.315872e-001
4.628320e+002, 2.278475e-001
4.647605e+002, 2.242955e-001
4.666889e+002, 2.203257e-001
4.686174e+002, 2.164612e-001
4.705459e+002, 2.125260e-001
4.724743e+002, 2.096684e-001
4.744028e+002, 2.067659e-001
4.763313e+002, 2.042255e-001
4.782597e+002, 2.030931e-001
4.801882e+002, 2.012628e-001
4.821167e+002, 1.987675e-001
4.840451e+002, 1.966215e-001
4.859736e+002, 1.952231e-001
4.879021e+002, 1.944688e-001
4.898305e+002, 1.930595e-001
4.917590e+002, 1.906257e-001
4.936875e+002, 1.876476e-001
4.956159e+002, 1.843389e-001
4.975444e+002, 1.816332e-001
4.994729e+002, 1.786183e-001
5.014013e+002, 1.756718e-001
5.033298e+002, 1.724970e-001
5.052583e+002, 1.687026e-001
5.071867e+002, 1.646766e-001
5.091152e+002, 1.605477e-001
5.110437e+002, 1.566329e-001
5.129721e+002, 1.524418e-001
5.149006e+002, 1.480934e-001
5.168290e+002, 1.444853e-001
5.187575e+002, 1.403921e-001
5.206860e+002, 1.357906e-001
5.226144e+002, 1.318717e-001
5.245429e+002, 1.285979e-001
5.264714e+002, 1.257632e-001
5.283998e+002, 1.229570e-001
5.303283e+002, 1.200729e-001
5.322568e+002, 1.172933e-001
5.341852e+002, 1.152061e-001
5.361137e+002, 1.128353e-001
5.380422e+002, 1.101419e-001
5.399706e+002, 1.081416e-001
5.418991e+002, 1.059701e-001
5.438276e+002, 1.024699e-001
5.457560e+002, 9.792745e-002
5.476845e+002, 9.393599e-002
5.496130e+002, 9.068521e-002
5.515414e+002, 8.742560e-002
5.534699e+002, 8.369068e-002
5.553984e+002, 8.019502e-002
5.573268e+002, 7.740006e-002
5.592553e+002, 7.482482e-002
5.611838e+002, 7.250743e-002
5.631122e+002, 7.015067e-002
5.650407e+002, 6.820399e-002
5.669692e+002, 6.689472e-002
5.688976e+002, 6.608333e-002
5.708261e+002, 6.516007e-002
5.727546e+002, 6.416904e-002
5.746830e+002, 6.349996e-002
5.766115e+002, 6.279044e-002
5.785400e+002, 6.238431e-002
5.804684e+002, 6.217243e-002
5.823969e+002, 6.222375e-002
5.843254e+002, 6.247669e-002
5.862538e+002, 6.268810e-002
5.881823e+002, 6.272949e-002
5.901108e+002, 6.297813e-002
5.920392e+002, 6.351461e-002
5.939677e+002, 6.400275e-002
5.958962e+002, 6.400488e-002
5.978246e+002, 6.429154e-002
5.997531e+002, 6.474981e-002
6.016816e+002, 6.520186e-002
6.036100e+002, 6.588699e-002
6.055385e+002, 6.710643e-002
6.074670e+002, 6.833874e-002
6.093954e+002, 6.919392e-002
6.113239e+002, 7.014174e-002
6.132524e+002, 7.100926e-002
6.151808e+002, 7.159486e-002
6.171093e+002, 7.223606e-002
6.190378e+002, 7.291956e-002
6.209662e+002, 7.394776e-002
6.228947e+002, 7.484538e-002
6.248232e+002, 7.577174e-002
6.267516e+002, 7.714103e-002
6.286801e+002, 7.874100e-002
6.306086e+002, 8.064676e-002
6.325370e+002, 8.266345e-002
6.344655e+002, 8.464560e-002
6.363940e+002, 8.673903e-002
6.383224e+002, 8.884240e-002
6.402509e+002, 9.089494e-002
6.421794e+002, 9.253620e-002
6.441078e+002, 9.398121e-002
6.460363e+002, 9.511950e-002
6.479648e+002, 9.548455e-002
6.498932e+002, 9.520090e-002
6.518217e+002, 9.442285e-002
6.537502e+002, 9.311866e-002
6.556786e+002, 9.152165e-002
6.576071e+002, 8.994520e-002
6.595356e+002, 8.847626e-002
6.614641e+002, 8.710472e-002
6.633925e+002, 8.559973e-002
6.653210e+002, 8.444396e-002
6.672495e+002, 8.349705e-002
6.691779e+002, 8.228198e-002
6.711064e+002, 8.089635e-002
6.730349e+002, 7.948108e-002
6.749633e+002, 7.814869e-002
6.768918e+002, 7.697790e-002
6.788203e+002, 7.605125e-002
6.807487e+002, 7.540268e-002
6.826772e+002, 7.518646e-002
6.846057e+002, 7.512976e-002
6.865341e+002, 7.516037e-002
6.884626e+002, 7.517880e-002
6.903911e+002, 7.530557e-002
6.923195e+002, 7.545488e-002
6.942480e+002, 7.545968e-002
6.961765e+002, 7.487448e-002
6.981049e+002, 7.384714e-002
7.000334e+002, 7.284160e-002
7.019619e+002, 7.203117e-002
7.038903e+002, 7.177339e-002
7.058188e+002, 7.204103e-002
7.077473e+002, 7.224444e-002
7.096757e+002, 7.241676e-002
7.116042e+002, 7.296426e-002
7.135327e+002, 7.357810e-002
7.154611e+002, 7.433576e-002
7.173896e+002, 7.507425e-002
7.193181e+002, 7.556365e-002
7.212465e+002, 7.590201e-002
7.231750e+002, 7.619886e-002
7.251035e+002, 7.639754e-002
7.270319e+002, 7.620471e-002
7.289604e+002, 7.597614e-002
7.308889e+002, 7.595152e-002
7.328173e+002, 7.616680e-002
7.347458e+002, 7.668200e-002
7.366743e+002, 7.757807e-002
7.386027e+002, 7.868251e-002
7.405312e+002, 8.008928e-002
7.424597e+002, 8.166392e-002
7.443881e+002, 8.331032e-002
7.463166e+002, 8.470454e-002
7.482451e+002, 8.581994e-002
7.501735e+002, 8.717396e-002
7.521020e+002, 8.865383e-002
7.540305e+002, 8.976505e-002
7.559589e+002, 9.050702e-002
7.578874e+002, 9.099585e-002
7.598159e+002, 9.089456e-002
7.617443e+002, 9.018559e-002
7.636728e+002, 8.892002e-002
7.656013e+002, 8.757133e-002
7.675297e+002, 8.645839e-002
7.694582e+002, 8.528090e-002
7.713867e+002, 8.438519e-002
7.733151e+002, 8.396405e-002
7.752436e+002, 8.395925e-002
7.771721e+002, 8.386548e-002
7.791005e+002, 8.309541e-002
7.810290e+002, 8.155049e-002
7.829575e+002, 7.953706e-002
7.848859e+002, 7.782421e-002
7.868144e+002, 7.674925e-002
7.887429e+002, 7.627865e-002
7.906713e+002, 7.621662e-002
7.925998e+002, 7.648765e-002
7.945283e+002, 7.716834e-002
7.964567e+002, 7.813565e-002
7.983852e+002, 7.863574e-002
8.003137e+002, 7.792129e-002
8.022421e+002, 7.626175e-002
8.041706e+002, 7.418562e-002
8.060991e+002, 7.206357e-002
8.080275e+002, 7.045946e-002
8.099560e+002, 6.977784e-002
8.118845e+002, 6.984831e-002
8.138129e+002, 7.036323e-002
8.157414e+002, 7.118570e-002
8.176699e+002, 7.239043e-002
8.195983e+002, 7.384416e-002
8.215268e+002, 7.544386e-002
8.234553e+002, 7.733886e-002
8.253837e+002, 7.963746e-002
8.273122e+002, 8.233389e-002
8.292407e+002, 8.501458e-002
8.311691e+002, 8.773425e-002
8.330976e+002, 9.088252e-002
8.350261e+002, 9.434266e-002
8.369545e+002, 9.779663e-002
8.388830e+002, 1.015895e-001
8.408115e+002, 1.056757e-001
8.427399e+002, 1.099403e-001
8.446684e+002, 1.145407e-001
8.465969e+002, 1.192082e-001
8.485253e+002, 1.240506e-001
8.504538e+002, 1.293655e-001
8.523823e+002, 1.350187e-001
8.543107e+002, 1.408227e-001
8.562392e+002, 1.468141e-001
8.581677e+002, 1.531593e-001
8.600961e+002, 1.596213e-001
8.620246e+002, 1.663740e-001
8.639531e+002, 1.732870e-001
8.658815e+002, 1.803100e-001
8.678100e+002, 1.873469e-001
8.697385e+002, 1.945093e-001
8.716669e+002, 2.014937e-001
8.735954e+002, 2.081713e-001
8.755239e+002, 2.145189e-001
8.774523e+002, 2.203143e-001
8.793808e+002, 2.256533e-001
8.813093e+002, 2.310507e-001
8.832377e+002, 2.365044e-001
8.851662e+002, 2.416227e-001
8.870947e+002, 2.468777e-001
8.890231e+002, 2.522078e-001
8.909516e+002, 2.575011e-001
8.928801e+002, 2.628573e-001
8.948085e+002, 2.679878e-001
8.967370e+002, 2.729336e-001
8.986655e+002, 2.775303e-001
9.005939e+002, 2.819717e-001
9.025224e+002, 2.864179e-001
9.044509e+002, 2.906854e-001
9.063793e+002, 2.949621e-001
9.083078e+002, 2.993086e-001
9.102363e+002, 3.035470e-001
9.121647e+002, 3.077346e-001
9.140932e+002, 3.117180e-001
9.160217e+002, 3.155558e-001
9.179501e+002, 3.195538e-001
9.198786e+002, 3.238160e-001
9.218071e+002, 3.281335e-001
9.237355e+002, 3.328293e-001
9.256640e+002, 3.378631e-001
9.275925e+002, 3.431681e-001
9.295209e+002, 3.489967e-001
9.314494e+002, 3.554090e-001
9.333779e+002, 3.620381e-001
9.353063e+002, 3.688714e-001
9.372348e+002, 3.755527e-001
9.391633e+002, 3.818907e-001
9.410917e+002, 3.879126e-001
9.430202e+002, 3.934070e-001
9.449487e+002, 3.984096e-001
9.468771e+002, 4.025499e-001
9.488056e+002, 4.055357e-001
9.507341e+002, 4.078454e-001
9.526625e+002, 4.093394e-001
9.545910e+002, 4.100795e-001
9.565195e+002, 4.095990e-001
9.584479e+002, 4.081825e-001
9.603764e+002, 4.061362e-001
9.623049e+002, 4.035206e-001
9.642333e+002, 3.997760e-001
9.661618e+002, 3.951164e-001
9.680903e+002, 3.903239e-001
9.700187e+002, 3.851176e-001
9.719472e+002, 3.792327e-001
9.738757e+002, 3.729202e-001
9.758041e+002, 3.663767e-001
9.777326e+002, 3.595526e-001
9.796611e+002, 3.521485e-001
9.815895e+002, 3.445585e-001
9.835180e+002, 3.370727e-001
9.854465e+002, 3.294459e-001
9.873749e+002, 3.215285e-001
9.893034e+002, 3.137511e-001
9.912319e+002, 3.058360e-001
9.931603e+002, 2.977102e-001
9.950888e+002, 2.896910e-001
9.970173e+002, 2.819691e-001
9.989457e+002, 2.742796e-001
1.000874e+003, 2.667212e-001
1.002803e+003, 2.593701e-001
1.004731e+003, 2.524304e-001
1.006660e+003, 2.457297e-001
1.008588e+003, 2.395104e-001
1.010517e+003, 2.336826e-001
1.012445e+003, 2.285194e-001
1.014373e+003, 2.237642e-001
1.016302e+003, 2.191831e-001
1.018230e+003, 2.151146e-001
1.020159e+003, 2.115629e-001
1.022087e+003, 2.082080e-001
1.024016e+003, 2.053253e-001
1.025944e+003, 2.027272e-001
1.027873e+003, 2.002930e-001
1.029801e+003, 1.978758e-001
1.031730e+003, 1.955986e-001
1.033658e+003, 1.933050e-001
1.035587e+003, 1.909533e-001
1.037515e+003, 1.883284e-001
1.039443e+003, 1.856403e-001
1.041372e+003, 1.831026e-001
1.043300e+003, 1.804140e-001
1.045229e+003, 1.775387e-001
1.047157e+003, 1.749345e-001
1.049086e+003, 1.724893e-001
1.051014e+003, 1.701213e-001
1.052943e+003, 1.679690e-001
1.054871e+003, 1.662750e-001
1.056800e+003, 1.647108e-001
1.058728e+003, 1.631035e-001
1.060657e+003, 1.616060e-001
1.062585e+003, 1.603048e-001
1.064514e+003, 1.588359e-001
1.066442e+003, 1.571676e-001
1.068370e+003, 1.553878e-001
1.070299e+003, 1.536741e-001
1.072227e+003, 1.516521e-001
1.074156e+003, 1.492670e-001
1.076084e+003, 1.465905e-001
1.078013e+003, 1.436805e-001
1.079941e+003, 1.405227e-001
1.081870e+003, 1.373007e-001
1.083798e+003, 1.340025e-001
1.085727e+003, 1.306911e-001
1.087655e+003, 1.275759e-001
1.089584e+003, 1.247181e-001
1.091512e+003, 1.219609e-001
1.093441e+003, 1.192798e-001
1.095369e+003, 1.169142e-001
1.097297e+003, 1.146579e-001
1.099226e+003, 1.125404e-001
1.101154e+003, 1.106292e-001
1.103083e+003, 1.087295e-001
1.105011e+003, 1.070744e-001
1.106940e+003, 1.054284e-001
1.108868e+003, 1.037795e-001
1.110797e+003, 1.021494e-001
1.112725e+003, 1.006396e-001
1.114654e+003, 9.913537e-002
1.116582e+003, 9.776229e-002
1.118511e+003, 9.646282e-002
1.120439e+003, 9.511600e-002
1.122368e+003, 9.367876e-002
1.124296e+003, 9.205142e-002
1.126224e+003, 9.019532e-002
1.128153e+003, 8.804077e-002
1.130081e+003, 8.550715e-002
1.132010e+003, 8.239894e-002
1.133938e+003, 7.856879e-002
1.135867e+003, 7.455146e-002
1.137795e+003, 7.059530e-002
1.139724e+003, 6.656238e-002
1.141652e+003, 6.253772e-002
1.143581e+003, 5.886082e-002
1.145509e+003, 5.536730e-002
1.147438e+003, 5.194963e-002
1.149366e+003, 4.884772e-002
1.151295e+003, 4.607895e-002
1.153223e+003, 4.365279e-002
1.155151e+003, 4.158155e-002
1.157080e+003, 4.001939e-002
1.159008e+003, 3.880021e-002
1.160937e+003, 3.786813e-002
1.162865e+003, 3.694290e-002
1.164794e+003, 3.571279e-002
1.166722e+003, 3.441604e-002
1.168651e+003, 3.309131e-002
1.170579e+003, 3.181008e-002
1.172508e+003, 3.067544e-002
1.174436e+003, 2.957170e-002
1.176365e+003, 2.852521e-002
1.178293e+003, 2.741393e-002
1.180222e+003, 2.635540e-002
1.182150e+003, 2.538995e-002
1.184078e+003, 2.447943e-002
1.186007e+003, 2.351126e-002
1.187935e+003, 2.255815e-002
1.189864e+003, 2.167086e-002
1.191792e+003, 2.071458e-002
1.193721e+003, 1.985469e-002
1.195649e+003, 1.891987e-002
1.197578e+003, 1.787563e-002
1.199506e+003, 1.688607e-002
1.201435e+003, 1.601145e-002
1.203363e+003, 1.507254e-002
1.205292e+003, 1.406836e-002
1.207220e+003, 1.319686e-002
1.209149e+003, 1.242939e-002
1.211077e+003, 1.171418e-002
1.213005e+003, 1.098662e-002
1.214934e+003, 1.036558e-002
1.216862e+003, 9.808337e-003
1.218791e+003, 9.182512e-003
1.220719e+003, 8.694631e-003
1.222648e+003, 8.181651e-003
1.224576e+003, 7.738712e-003
1.226505e+003, 7.427648e-003
1.228433e+003, 7.116053e-003
1.230362e+003, 6.867512e-003
1.232290e+003, 6.637798e-003
1.234219e+003, 6.434338e-003
1.236147e+003, 6.243265e-003
1.238076e+003, 6.019372e-003
1.240004e+003, 5.782016e-003
1.241932e+003, 5.549823e-003
1.243861e+003, 5.368564e-003
1.245789e+003, 5.280387e-003
1.247718e+003, 5.168976e-003
1.249646e+003, 4.988519e-003
1.251575e+003, 4.853235e-003
1.253503e+003, 4.700372e-003
1.255432e+003, 4.549623e-003
1.257360e+003, 4.467943e-003
1.259289e+003, 4.370356e-003
1.261217e+003, 4.305872e-003
1.263146e+003, 4.264331e-003
1.265074e+003, 4.243391e-003
1.267003e+003, 4.251009e-003
1.268931e+003, 4.233124e-003
1.270859e+003, 4.214994e-003
1.272788e+003, 4.302101e-003
1.274716e+003, 4.331868e-003
1.276645e+003, 4.256711e-003
1.278573e+003, 4.177433e-003
1.280502e+003, 4.094362e-003
1.282430e+003, 3.952623e-003
1.284359e+003, 3.830404e-003
1.286287e+003, 3.767122e-003
1.288216e+003, 3.756018e-003
1.290144e+003, 3.571772e-003
1.292073e+003, 3.544117e-003
1.294001e+003, 3.511061e-003
1.295930e+003, 3.436287e-003
1.297858e+003, 3.414760e-003
1.299786e+003, 3.460574e-003
1.301715e+003, 3.560371e-003
1.303643e+003, 3.514195e-003
1.305572e+003, 3.368645e-003
1.307500e+003, 3.399956e-003
1.309429e+003, 3.439679e-003
1.311357e+003, 3.333038e-003
1.313286e+003, 3.394547e-003
1.315214e+003, 3.397090e-003
1.317143e+003, 3.289313e-003
1.319071e+003, 3.237789e-003
1.321000e+003, 3.164939e-003
1.322928e+003, 3.150312e-003
1.324857e+003, 3.229690e-003
1.326785e+003, 3.271538e-003
1.328714e+003, 3.285564e-003
1.330642e+003, 3.309946e-003
1.332570e+003, 3.390382e-003
1.334499e+003, 3.430438e-003
1.336427e+003, 3.330566e-003
1.338356e+003, 3.335072e-003
1.340284e+003, 3.487033e-003
1.342213e+003, 3.478465e-003
1.344141e+003, 3.423624e-003
1.346070e+003, 3.455066e-003
1.347998e+003, 3.538393e-003
1.349927e+003, 3.615249e-003
1.351855e+003, 3.539085e-003
1.353784e+003, 3.558636e-003
1.355712e+003, 3.631331e-003
1.357641e+003, 3.656249e-003
1.359569e+003, 3.759828e-003
1.361497e+003, 3.966285e-003
1.363426e+003, 4.050650e-003
1.365354e+003, 4.061725e-003
1.367283e+003, 4.117977e-003
1.369211e+003, 4.148747e-003
1.371140e+003, 4.159822e-003
1.373068e+003, 4.358230e-003
1.374997e+003, 4.461074e-003
1.376925e+003, 4.539978e-003
1.378854e+003, 4.644046e-003
1.380782e+003, 4.715664e-003
1.382711e+003, 4.757642e-003
1.384639e+003, 4.725223e-003
1.386568e+003, 4.709924e-003
1.388496e+003, 4.831172e-003
1.390424e+003, 5.040087e-003
1.392353e+003, 5.173693e-003
1.394281e+003, 5.293649e-003
1.396210e+003, 5.379912e-003
1.398138e+003, 5.457380e-003
1.400067e+003, 5.568478e-003
1.401995e+003, 5.655169e-003
1.403924e+003, 5.712175e-003
1.405852e+003, 5.682290e-003
1.407781e+003, 5.713461e-003
1.409709e+003, 5.817829e-003
1.411638e+003, 5.821702e-003
1.413566e+003, 5.732095e-003
1.415495e+003, 5.803000e-003
1.417423e+003, 5.965169e-003
1.419351e+003, 6.004272e-003
1.421280e+003, 5.834825e-003
1.423208e+003, 5.867238e-003
1.425137e+003, 5.904433e-003
1.427065e+003, 5.860177e-003
1.428994e+003, 5.804698e-003
1.430922e+003, 5.627379e-003
1.432851e+003, 5.573432e-003
1.434779e+003, 5.796751e-003
1.436708e+003, 6.003760e-003
1.438636e+003, 5.860453e-003
1.440565e+003, 5.711048e-003
1.442493e+003, 5.587493e-003
1.444422e+003, 5.338974e-003
1.446350e+003, 5.274313e-003
1.448278e+003, 5.356868e-003
1.450207e+003, 5.351331e-003
1.452135e+003, 5.328197e-003
1.454064e+003, 5.432338e-003
1.455992e+003, 5.675318e-003
1.457921e+003, 5.585630e-003
1.459849e+003, 5.275599e-003
1.461778e+003, 5.054955e-003
1.463706e+003, 5.025086e-003
1.465635e+003, 5.045590e-003
1.467563e+003, 4.888041e-003
1.469492e+003, 4.753648e-003
1.471420e+003, 4.826325e-003
1.473349e+003, 4.810791e-003
1.475277e+003, 4.574564e-003
1.477205e+003, 4.470552e-003
1.479134e+003, 4.371459e-003
1.481062e+003, 4.370570e-003
1.482991e+003, 4.396033e-003
1.484919e+003, 4.434474e-003
1.486848e+003, 4.632759e-003
1.488776e+003, 4.740014e-003
1.490705e+003, 4.731805e-003
1.492633e+003, 4.689338e-003
1.494562e+003, 4.780081e-003
1.496490e+003, 5.072513e-003
1.498419e+003, 5.097494e-003
1.500347e+003, 4.957956e-003
1.502276e+003, 4.886778e-003
1.504204e+003, 5.064791e-003
1.506132e+003, 5.403379e-003
1.508061e+003, 5.278994e-003
1.509989e+003, 4.945426e-003
1.511918e+003, 4.928207e-003
1.513846e+003, 4.864792e-003
1.515775e+003, 4.943634e-003
1.517703e+003, 5.134461e-003
1.519632e+003, 5.222775e-003
1.521560e+003, 5.285993e-003
1.523489e+003, 5.243731e-003
1.525417e+003, 5.316891e-003
1.527346e+003, 5.272792e-003
1.529274e+003, 5.302573e-003
1.531203e+003, 5.357116e-003
1.533131e+003, 5.373836e-003
1.535059e+003, 5.388473e-003
1.536988e+003, 5.624806e-003
1.538916e+003, 6.146980e-003
1.540845e+003, 6.257317e-003
1.542773e+003, 6.159982e-003
1.544702e+003, 6.150321e-003
1.546630e+003, 6.101250e-003
1.548559e+003, 6.224053e-003
1.550487e+003, 6.539182e-003
1.552416e+003, 6.763352e-003
1.554344e+003, 6.960185e-003
1.556273e+003, 7.088908e-003
1.558201e+003, 7.445451e-003
1.560130e+003, 7.514704e-003
1.562058e+003, 7.187299e-003
1.563986e+003, 7.159502e-003
1.565915e+003, 7.202612e-003
1.567843e+003, 7.363059e-003
1.569772e+003, 7.495990e-003
1.571700e+003, 7.378627e-003
1.573629e+003, 7.524715e-003
1.575557e+003, 7.906825e-003
1.577486e+003, 7.863514e-003
1.579414e+003, 7.685382e-003
1.581343e+003, 7.788865e-003
1.583271e+003, 7.849929e-003
1.585200e+003, 7.816132e-003
1.587128e+003, 7.838928e-003
1.589057e+003, 7.923262e-003
1.590985e+003, 8.068219e-003
1.592913e+003, 8.313732e-003
1.594842e+003, 8.352188e-003
1.596770e+003, 8.335238e-003
1.598699e+003, 8.395318e-003
1.600627e+003, 8.472756e-003
1.602556e+003, 8.437963e-003
1.604484e+003, 8.436646e-003
1.606413e+003, 8.365704e-003
1.608341e+003, 8.308112e-003
1.610270e+003, 8.317148e-003
1.612198e+003, 8.406462e-003
1.614127e+003, 8.541340e-003
1.616055e+003, 8.743705e-003
1.617984e+003, 8.531342e-003
1.619912e+003, 8.338504e-003
1.621840e+003, 8.411507e-003
1.623769e+003, 8.431466e-003
1.625697e+003, 8.378132e-003
1.627626e+003, 8.326776e-003
1.629554e+003, 8.338548e-003
1.631483e+003, 8.285237e-003
1.633411e+003, 8.348581e-003
1.635340e+003, 8.555559e-003
1.637268e+003, 8.323330e-003
1.639197e+003, 8.123408e-003
1.641125e+003, 8.099239e-003
1.643054e+003, 8.072956e-003
1.644982e+003, 8.054093e-003
1.646911e+003, 7.793057e-003
1.648839e+003, 7.456298e-003
1.650767e+003, 7.615305e-003
1.652696e+003, 8.004957e-003
1.654624e+003, 7.481167e-003
1.656553e+003, 6.992449e-003
1.658481e+003, 6.782549e-003
1.660410e+003, 6.636448e-003
1.662338e+003, 6.568222e-003
1.664267e+003, 6.352394e-003
1.666195e+003, 6.151373e-003
1.668124e+003, 6.145105e-003
1.670052e+003, 6.180054e-003
1.671981e+003, 5.895310e-003
1.673909e+003, 5.707438e-003
1.675838e+003, 5.741378e-003
1.677766e+003, 5.516835e-003
1.679694e+003, 5.351205e-003
1.681623e+003, 5.324730e-003
1.683551e+003, 5.450474e-003
1.685480e+003, 5.229332e-003
1.687408e+003, 4.778267e-003
1.689337e+003, 4.660239e-003
1.691265e+003, 4.626985e-003
1.693194e+003, 4.513710e-003
1.695122e+003, 4.710725e-003
1.697051e+003, 4.794804e-003
1.698979e+003, 4.814020e-003
1.700908e+003, 4.671670e-003
1.702836e+003, 4.304701e-003
1.704765e+003, 4.338438e-003
1.706693e+003, 4.334927e-003
1.708621e+003, 4.084578e-003
1.710550e+003, 3.931343e-003
1.712478e+003, 4.043363e-003
1.714407e+003, 4.032552e-003
1.716335e+003, 4.171067e-003
1.718264e+003, 4.138885e-003
1.720192e+003, 3.784090e-003
1.722121e+003, 3.699382e-003
1.724049e+003, 3.742276e-003
1.725978e+003, 3.785259e-003
1.727906e+003, 3.835178e-003
1.729835e+003, 3.741011e-003
1.731763e+003, 3.715428e-003
1.733692e+003, 3.801833e-003
1.735620e+003, 3.427975e-003
1.737548e+003, 3.028785e-003
1.739477e+003, 2.831144e-003
1.741405e+003, 2.452598e-003
1.743334e+003, 2.160172e-003
1.745262e+003, 2.133568e-003
1.747191e+003, 2.078688e-003
1.749119e+003, 2.163563e-003
1.751048e+003, 2.321143e-003
1.752976e+003, 2.159077e-003
1.754905e+003, 2.180055e-003
1.756833e+003, 2.414830e-003
1.758762e+003, 2.337399e-003
1.760690e+003, 2.295786e-003
1.762619e+003, 2.343286e-003
1.764547e+003, 2.327028e-003
1.766475e+003, 2.451286e-003
1.768404e+003, 2.391835e-003
1.770332e+003, 2.423103e-003
1.772261e+003, 2.611856e-003
1.774189e+003, 2.530593e-003
1.776118e+003, 2.316093e-003
1.778046e+003, 2.209243e-003
1.779975e+003, 2.249261e-003
1.781903e+003, 2.307602e-003
1.783832e+003, 2.418715e-003
1.785760e+003, 2.440861e-003
1.787689e+003, 2.258545e-003
1.789617e+003, 2.366373e-003
1.791546e+003, 2.533042e-003
1.793474e+003, 2.387278e-003
1.795402e+003, 2.198210e-003
1.797331e+003, 2.224525e-003
1.799259e+003, 2.256511e-003
1.801188e+003, 2.105661e-003
1.803116e+003, 1.869595e-003
1.805045e+003, 1.897019e-003
1.806973e+003, 2.094912e-003
1.808902e+003, 2.125459e-003
1.810830e+003, 2.120572e-003
1.812759e+003, 2.152166e-003
1.814687e+003, 2.055583e-003
1.816616e+003, 1.983850e-003
1.818544e+003, 1.936551e-003
1.820473e+003, 2.119490e-003
1.822401e+003, 2.009318e-003
1.824329e+003, 2.001148e-003
1.826258e+003, 2.015040e-003
1.828186e+003, 1.986015e-003
1.830115e+003, 1.996750e-003
1.832043e+003, 1.931558e-003
1.833972e+003, 1.528189e-003
1.835900e+003, 1.278680e-003
1.837829e+003, 1.332607e-003
1.839757e+003, 1.458708e-003
1.841686e+003, 1.521436e-003
1.843614e+003, 1.699258e-003
1.845543e+003, 1.581618e-003
1.847471e+003, 1.417263e-003
1.849400e+003, 1.389776e-003
1.851328e+003, 1.547266e-003
1.853256e+003, 1.566913e-003
1.855185e+003, 1.559554e-003
1.857113e+003, 1.590161e-003
1.859042e+003, 1.550594e-003
1.860970e+003, 1.307230e-003
1.862899e+003, 9.310551e-004
1.864827e+003, 8.547684e-004
1.866756e+003, 1.229672e-003
1.868684e+003, 1.270014e-003
1.870613e+003, 1.348128e-003
1.872541e+003, 1.349217e-003
1.874470e+003, 1.001186e-003
1.876398e+003, 8.937778e-004
1.878327e+003, 9.854387e-004
1.880255e+003, 1.003255e-003
1.882183e+003, 9.339891e-004
1.884112e+003, 8.652981e-004
1.886040e+003, 7.740888e-004
1.887969e+003, 7.740633e-004
1.889897e+003, 8.626822e-004
1.891826e+003, 8.394457e-004
1.893754e+003, 9.296236e-004
1.895683e+003, 1.208771e-003
1.897611e+003, 1.428132e-003
1.899540e+003, 1.016247e-003
1.901468e+003, 7.702315e-004
1.903397e+003, 7.093519e-004
1.905325e+003, 6.706570e-004
1.907254e+003, 6.852899e-004
1.909182e+003, 6.646415e-004
1.911110e+003, 6.453625e-004
1.913039e+003, 3.536109e-004
1.914967e+003, 5.558707e-004
1.916896e+003, 8.308623e-004
1.918824e+003, 4.708776e-004
1.920753e+003, 2.833052e-004
1.922681e+003, 3.440887e-004
1.924610e+003, 3.320911e-004
1.926538e+003, 4.959694e-004
1.928467e+003, 4.707539e-004
1.930395e+003, 1.015860e-004
1.932324e+003, -2.393496e-004
1.934252e+003, -4.273365e-004
1.936181e+003, -5.935294e-004
1.938109e+003, -7.259261e-004
1.940037e+003, -4.476106e-004
1.941966e+003, -6.521889e-004
1.943894e+003, -7.112475e-004
1.945823e+003, -4.927021e-004
1.947751e+003, -5.002517e-004
1.949680e+003, -8.862648e-004
1.951608e+003, -1.018818e-003
1.953537e+003, -1.371096e-003
1.955465e+003, -1.556214e-003
1.957394e+003, -1.265905e-003
1.959322e+003, -1.422940e-003
1.961251e+003, -1.185479e-003
1.963179e+003, -8.749468e-004
1.965108e+003, -1.272112e-004
1.967036e+003, -4.476240e-004
1.968964e+003, -1.366104e-003
1.970893e+003, -1.231153e-003
1.972821e+003, -6.480392e-004
1.974750e+003, -1.157662e-003
1.976678e+003, -1.152594e-003
1.978607e+003, -3.848046e-004
1.980535e+003, -5.942017e-004
1.982464e+003, -5.030769e-004
1.984392e+003, 2.272264e-005
1.986321e+003, 4.291901e-004
1.988249e+003, -3.054482e-004
1.990178e+003, -1.053957e-003
1.992106e+003, 1.802541e-004
1.994035e+003, 8.962040e-004
1.995963e+003, 2.727561e-004
1.997891e+003, -2.010448e-004
1.999820e+003, -7.229559e-004
2.001748e+003, -1.246321e-003
2.003677e+003, -1.365576e-003
2.005605e+003, -1.186975e-003
2.007534e+003, -4.510141e-004
2.009462e+003, 2.865745e-004
2.011391e+003, 4.083649e-004
2.013319e+003, 8.201227e-005
2.015248e+003, -6.596397e-004
2.017176e+003, -7.662645e-004
2.019105e+003, -7.259659e-006
2.021033e+003, -2.038863e-004
2.022962e+003, 4.949624e-004
2.024890e+003, 9.174999e-004
2.026818e+003, -2.897095e-004
2.028747e+003, 6.346062e-004
2.030675e+003, 1.490474e-003
2.032604e+003, 1.077088e-003
2.034532e+003, 1.262978e-003
2.036461e+003, 1.093949e-003
2.038389e+003, 7.126569e-004
2.040318e+003, 1.121385e-003
2.042246e+003, 1.423565e-003
2.044175e+003, 1.607495e-003
2.046103e+003, 1.227981e-003
2.048031e+003, 1.239694e-003
2.049960e+003, 1.758656e-003
2.051888e+003, 1.508777e-003
2.053817e+003, 1.006558e-003
2.055745e+003, 1.502882e-003
2.057674e+003, 1.854044e-003
2.059602e+003, 1.583948e-003
2.061531e+003, 1.485391e-003
2.063459e+003, 1.329746e-003
2.065388e+003, 1.066835e-003
2.067316e+003, 8.689525e-004
2.069245e+003, 8.400237e-004
2.071173e+003, 1.108043e-003
2.073102e+003, 1.475851e-003
2.075030e+003, 2.068133e-003
2.076958e+003, 1.877874e-003
2.078887e+003, 1.662443e-003
2.080815e+003, 1.827892e-003
2.082744e+003, 1.354493e-003
2.084672e+003, 1.166474e-003
2.086601e+003, 1.414031e-003
2.088529e+003, 1.925028e-003
2.090458e+003, 1.983224e-003
2.092386e+003, 2.207138e-003
2.094315e+003, 2.095256e-003
2.096243e+003, 1.998098e-003
2.098172e+003, 2.250043e-003
2.100100e+003, 1.945627e-003
2.102029e+003, 1.887807e-003
2.103957e+003, 2.180493e-003
2.105885e+003, 2.551661e-003
2.107814e+003, 2.577164e-003
2.109742e+003, 2.232488e-003
2.111671e+003, 1.645100e-003
2.113599e+003, 1.829829e-003
2.115528e+003, 2.122852e-003
2.117456e+003, 2.324873e-003
2.119385e+003, 2.133931e-003
2.121313e+003, 1.644399e-003
2.123242e+003, 1.843321e-003
2.125170e+003, 2.395940e-003
2.127099e+003, 1.844178e-003
2.129027e+003, 1.366866e-003
2.130956e+003, 1.122466e-003
2.132884e+003, 9.306834e-004
2.134813e+003, 8.785155e-004
2.136741e+003, 8.868382e-004
2.138669e+003, 9.336494e-004
2.140598e+003, 1.454935e-003
2.142526e+003, 1.599000e-003
2.144455e+003, 1.638525e-003
2.146383e+003, 1.885399e-003
2.148312e+003, 1.587062e-003
2.150240e+003, 8.111069e-004
2.152169e+003, 5.560464e-004
2.154097e+003, 4.002140e-004
2.156026e+003, 8.573250e-004
2.157954e+003, 2.735011e-003
2.159883e+003, 3.965373e-003
2.161811e+003, 2.902701e-003
2.163740e+003, 2.527029e-003
2.165668e+003, 2.504932e-003
2.167596e+003, 2.567136e-003
2.169525e+003, 2.306260e-003
2.171453e+003, 2.197123e-003
2.173382e+003, 2.845332e-003
2.175310e+003, 2.626292e-003
2.177239e+003, 2.716260e-003
2.179167e+003, 2.652846e-003
2.181096e+003, 2.190565e-003
2.183024e+003, 2.017510e-003
2.184953e+003, 2.135076e-003
2.186881e+003, 3.058615e-003
2.188810e+003, 3.684170e-003
2.190738e+003, 3.462415e-003
2.192667e+003, 3.197336e-003
2.194595e+003, 3.160057e-003
2.196523e+003, 2.990521e-003
2.198452e+003, 2.731346e-003
2.200380e+003, 2.482963e-003
2.202309e+003, 2.112418e-003
2.204237e+003, 2.179820e-003
2.206166e+003, 2.643195e-003
2.208094e+003, 2.604652e-003
2.210023e+003, 2.351539e-003
2.211951e+003, 1.897200e-003
2.213880e+003, 1.603209e-003
2.215808e+003, 2.152995e-003
2.217737e+003, 2.718482e-003
2.219665e+003, 3.027786e-003
2.221594e+003, 3.269738e-003
2.223522e+003, 3.159007e-003
2.225450e+003, 2.981117e-003
2.227379e+003, 3.328521e-003
2.229307e+003, 3.214840e-003
2.231236e+003, 3.008906e-003
2.233164e+003, 3.199461e-003
2.235093e+003, 3.602923e-003
2.237021e+003, 3.351229e-003
2.238950e+003, 2.605912e-003
2.240878e+003, 2.726680e-003
2.242807e+003, 2.774431e-003
2.244735e+003, 2.762421e-003
2.246664e+003, 3.224981e-003
2.248592e+003, 3.338235e-003
2.250521e+003, 3.332363e-003
2.252449e+003, 3.474376e-003
2.254377e+003, 3.455201e-003
2.256306e+003, 3.247463e-003
2.258234e+003, 3.179520e-003
2.260163e+003, 3.017636e-003
2.262091e+003, 3.203930e-003
2.264020e+003, 3.406164e-003
2.265948e+003, 3.452786e-003
2.267877e+003, 3.454983e-003
2.269805e+003, 3.267335e-003
2.271734e+003, 3.029482e-003
2.273662e+003, 3.372431e-003
2.275591e+003, 4.178769e-003
2.277519e+003, 4.540335e-003
2.279448e+003, 4.253309e-003
2.281376e+003, 4.160990e-003
2.283304e+003, 4.343164e-003
2.285233e+003, 4.514694e-003
2.287161e+003, 4.612410e-003
2.289090e+003, 4.546465e-003
2.291018e+003, 4.532466e-003
2.292947e+003, 4.524916e-003
2.294875e+003, 4.315226e-003
2.296804e+003, 4.368983e-003
2.298732e+003, 4.410661e-003
2.300661e+003, 4.539086e-003
2.302589e+003, 4.580214e-003
2.304518e+003, 4.321172e-003
2.306446e+003, 4.097966e-003
2.308375e+003, 3.990674e-003
2.310303e+003, 4.276973e-003
2.312231e+003, 4.600608e-003
2.314160e+003, 4.632937e-003
2.316088e+003, 4.972714e-003
2.318017e+003, 5.076851e-003
2.319945e+003, 5.102980e-003
2.321874e+003, 5.300893e-003
2.323802e+003, 5.586935e-003
2.325731e+003, 5.254328e-003
2.327659e+003, 4.826991e-003
2.329588e+003, 4.764126e-003
2.331516e+003, 4.725765e-003
2.333445e+003, 4.830823e-003
2.335373e+003, 5.051062e-003
2.337302e+003, 5.115235e-003
2.339230e+003, 5.157149e-003
2.341158e+003, 5.039871e-003
2.343087e+003, 4.969781e-003
2.345015e+003, 4.774348e-003
2.346944e+003, 4.716935e-003
2.348872e+003, 4.518897e-003
2.350801e+003, 4.500780e-003
2.352729e+003, 4.737517e-003
2.354658e+003, 4.818598e-003
2.356586e+003, 4.861135e-003
2.358515e+003, 5.028159e-003
2.360443e+003, 5.257250e-003
2.362372e+003, 5.313163e-003
2.364300e+003, 5.188368e-003
2.366229e+003, 5.307730e-003
2.368157e+003, 5.324400e-003
2.370085e+003, 5.110362e-003
2.372014e+003, 4.928866e-003
2.373942e+003, 4.816208e-003
2.375871e+003, 4.760535e-003
2.377799e+003, 4.774473e-003
2.379728e+003, 4.733966e-003
2.381656e+003, 4.590305e-003
2.383585e+003, 4.580551e-003
2.385513e+003, 4.673533e-003
2.387442e+003, 4.581445e-003
2.389370e+003, 4.582045e-003
2.391299e+003, 4.820007e-003
2.393227e+003, 4.981611e-003
2.395156e+003, 5.033808e-003
2.397084e+003, 4.821114e-003
2.399012e+003, 4.800231e-003
2.400941e+003, 4.967702e-003
2.402869e+003, 4.877029e-003
2.404798e+003, 4.889901e-003
2.406726e+003, 5.116038e-003
2.408655e+003, 5.359666e-003
2.410583e+003, 5.333318e-003
2.412512e+003, 5.143646e-003
2.414440e+003, 5.393556e-003
2.416369e+003, 5.310715e-003
2.418297e+003, 4.957264e-003
2.420226e+003, 4.757155e-003
2.422154e+003, 4.940980e-003
2.424083e+003, 5.061942e-003
2.426011e+003, 4.872723e-003
2.427939e+003, 4.817984e-003
2.429868e+003, 5.042849e-003
2.431796e+003, 5.259485e-003
2.433725e+003, 5.108743e-003
2.435653e+003, 4.895287e-003
2.437582e+003, 5.076442e-003
2.439510e+003, 5.412171e-003
2.441439e+003, 5.702733e-003
2.443367e+003, 5.498126e-003
2.445296e+003, 5.086751e-003
2.447224e+003, 5.156726e-003
2.449153e+003, 5.222897e-003
2.451081e+003, 4.835468e-003
2.453010e+003, 4.593024e-003
2.454938e+003, 4.556324e-003
2.456866e+003, 4.541478e-003
2.458795e+003, 4.923059e-003
2.460723e+003, 5.086377e-003
2.462652e+003, 4.672050e-003
2.464580e+003, 4.678542e-003
2.466509e+003, 5.473155e-003
2.468437e+003, 5.696746e-003
2.470366e+003, 5.391398e-003
2.472294e+003, 5.496838e-003
2.474223e+003, 5.344051e-003
2.476151e+003, 5.269941e-003
2.478080e+003, 5.338285e-003
2.480008e+003, 5.241584e-003
2.481937e+003, 5.043431e-003
2.483865e+003, 4.734651e-003
2.485793e+003, 4.624881e-003
2.487722e+003, 4.732663e-003
2.489650e+003, 4.944203e-003
2.491579e+003, 5.242695e-003
2.493507e+003, 5.247635e-003
2.495436e+003, 4.780177e-003
2.497364e+003, 5.099544e-003
2.499293e+003, 5.598266e-003
2.501221e+003, 5.428799e-003
2.503150e+003, 5.356523e-003
2.505078e+003, 5.171201e-003
2.507007e+003, 5.476822e-003
2.508935e+003, 5.808306e-003
2.510864e+003, 5.518208e-003
2.512792e+003, 5.136798e-003
2.514720e+003, 5.004689e-003
2.516649e+003, 5.283116e-003
2.518577e+003, 5.464330e-003
2.520506e+003, 5.189113e-003
2.522434e+003, 5.258212e-003
2.524363e+003, 5.548909e-003
2.526291e+003, 5.414308e-003
2.528220e+003, 5.221692e-003
2.530148e+003, 5.532622e-003
2.532077e+003, 5.820750e-003
2.534005e+003, 5.892342e-003
2.535934e+003, 5.912586e-003
2.537862e+003, 5.777062e-003
2.539791e+003, 5.500690e-003
2.541719e+003, 5.536152e-003
2.543647e+003, 5.812502e-003
2.545576e+003, 5.948731e-003
2.547504e+003, 5.712818e-003
2.549433e+003, 5.599685e-003
2.551361e+003, 5.369244e-003
2.553290e+003, 5.491777e-003
2.555218e+003, 5.739515e-003
2.557147e+003, 5.982812e-003
2.559075e+003, 5.857553e-003
2.561004e+003, 5.803591e-003
2.562932e+003, 6.073009e-003
2.564861e+003, 6.464606e-003
2.566789e+003, 6.362344e-003
2.568718e+003, 6.065404e-003
2.570646e+003, 6.247721e-003
2.572574e+003, 6.673154e-003
2.574503e+003, 6.450653e-003
2.576431e+003, 6.252587e-003
2.578360e+003, 6.415578e-003
2.580288e+003, 6.558784e-003
2.582217e+003, 6.214738e-003
2.584145e+003, 5.879139e-003
2.586074e+003, 6.081712e-003
2.588002e+003, 6.443117e-003
2.589931e+003, 6.741541e-003
2.591859e+003, 6.746791e-003
2.593788e+003, 6.350165e-003
2.595716e+003, 6.056935e-003
2.597645e+003, 6.108992e-003
2.599573e+003, 6.237949e-003
2.601501e+003, 6.430119e-003
2.603430e+003, 6.634839e-003
2.605358e+003, 6.674718e-003
2.607287e+003, 6.674235e-003
2.609215e+003, 6.407849e-003
2.611144e+003, 6.390457e-003
2.613072e+003, 6.628430e-003
2.615001e+003, 6.973575e-003
2.616929e+003, 6.874352e-003
2.618858e+003, 6.777429e-003
2.620786e+003, 6.797672e-003
2.622715e+003, 6.584727e-003
2.624643e+003, 6.710508e-003
2.626572e+003, 6.891030e-003
2.628500e+003, 6.824653e-003
2.630428e+003, 6.821558e-003
2.632357e+003, 6.742653e-003
2.634285e+003, 6.806823e-003
2.636214e+003, 6.806329e-003
2.638142e+003, 6.931664e-003
2.640071e+003, 7.167123e-003
2.641999e+003, 7.607739e-003
2.643928e+003, 7.571193e-003
2.645856e+003, 7.290357e-003
2.647785e+003, 7.243200e-003
2.649713e+003, 7.346871e-003
2.651642e+003, 7.421241e-003
2.653570e+003, 7.435371e-003
2.655499e+003, 7.180770e-003
2.657427e+003, 7.291395e-003
2.659355e+003, 7.217032e-003
2.661284e+003, 7.113098e-003
2.663212e+003, 7.244579e-003
2.665141e+003, 7.272716e-003
2.667069e+003, 7.298937e-003
2.668998e+003, 7.496774e-003
2.670926e+003, 7.508842e-003
2.672855e+003, 7.383748e-003
2.674783e+003, 7.386364e-003
2.676712e+003, 7.463245e-003
2.678640e+003, 7.490204e-003
2.680569e+003, 7.547326e-003
2.682497e+003, 7.461655e-003
2.684426e+003, 7.659376e-003
2.686354e+003, 7.819770e-003
2.688282e+003, 7.770657e-003
2.690211e+003, 7.725416e-003
2.692139e+003, 7.661781e-003
2.694068e+003, 7.700128e-003
2.695996e+003, 7.862970e-003
2.697925e+003, 8.155052e-003
2.699853e+003, 8.029073e-003
2.701782e+003, 8.085880e-003
2.703710e+003, 8.212772e-003
2.705639e+003, 8.059088e-003
2.707567e+003, 7.899786e-003
2.709496e+003, 7.858291e-003
2.711424e+003, 8.094412e-003
2.713353e+003, 8.263636e-003
2.715281e+003, 8.125346e-003
2.717209e+003, 8.232079e-003
2.719138e+003, 8.668184e-003
2.721066e+003, 8.856145e-003
2.722995e+003, 8.637884e-003
2.724923e+003, 8.569852e-003
2.726852e+003, 8.564780e-003
2.728780e+003, 8.597584e-003
2.730709e+003, 8.551412e-003
2.732637e+003, 8.515467e-003
2.734566e+003, 8.375627e-003
2.736494e+003, 8.568062e-003
2.738423e+003, 8.852114e-003
2.740351e+003, 8.913663e-003
2.742280e+003, 8.806856e-003
2.744208e+003, 8.857815e-003
2.746136e+003, 8.971170e-003
2.748065e+003, 9.030836e-003
2.749993e+003, 8.882728e-003
2.751922e+003, 8.786691e-003
2.753850e+003, 9.005716e-003
2.755779e+003, 9.052474e-003
2.757707e+003, 9.029966e-003
2.759636e+003, 9.087102e-003
2.761564e+003, 9.268242e-003
2.763493e+003, 9.049459e-003
2.765421e+003, 9.004978e-003
2.767350e+003, 9.255135e-003
2.769278e+003, 9.474801e-003
2.771207e+003, 9.430010e-003
2.773135e+003, 9.216155e-003
2.775063e+003, 9.237269e-003
2.776992e+003, 9.104490e-003
2.778920e+003, 9.104569e-003
2.780849e+003, 9.464151e-003
2.782777e+003, 9.604418e-003
2.784706e+003, 9.464390e-003
2.786634e+003, 9.434805e-003
2.788563e+003, 9.737271e-003
2.790491e+003, 9.813230e-003
2.792420e+003, 9.573578e-003
2.794348e+003, 9.528178e-003
2.796277e+003, 9.711322e-003
2.798205e+003, 9.666304e-003
2.800134e+003, 9.755706e-003
2.802062e+003, 9.838862e-003
2.803990e+003, 9.774889e-003
2.805919e+003, 9.896020e-003
2.807847e+003, 1.004883e-002
2.809776e+003, 1.009936e-002
2.811704e+003, 1.016948e-002
2.813633e+003, 1.032562e-002
2.815561e+003, 1.044990e-002
2.817490e+003, 1.059186e-002
2.819418e+003, 1.078087e-002
2.821347e+003, 1.061309e-002
2.823275e+003, 1.049351e-002
2.825204e+003, 1.074360e-002
2.827132e+003, 1.082272e-002
2.829061e+003, 1.072889e-002
2.830989e+003, 1.089505e-002
2.832917e+003, 1.119823e-002
2.834846e+003, 1.132317e-002
2.836774e+003, 1.123296e-002
2.838703e+003, 1.115923e-002
2.840631e+003, 1.126308e-002
2.842560e+003, 1.138743e-002
2.844488e+003, 1.148939e-002
2.846417e+003, 1.166804e-002
2.848345e+003, 1.170497e-002
2.850274e+003, 1.197469e-002
2.852202e+003, 1.218202e-002
2.854131e+003, 1.234973e-002
2.856059e+003, 1.254921e-002
2.857988e+003, 1.280314e-002
2.859916e+003, 1.268816e-002
2.861844e+003, 1.258843e-002
2.863773e+003, 1.233620e-002
2.865701e+003, 1.238619e-002
2.867630e+003, 1.250957e-002
2.869558e+003, 1.246754e-002
2.871487e+003, 1.263571e-002
2.873415e+003, 1.281191e-002
2.875344e+003, 1.281864e-002
2.877272e+003, 1.298586e-002
2.879201e+003, 1.308408e-002
2.881129e+003, 1.318842e-002
2.883058e+003, 1.309548e-002
2.884986e+003, 1.282846e-002
2.886915e+003, 1.292592e-002
2.888843e+003, 1.303568e-002
2.890771e+003, 1.320928e-002
2.892700e+003, 1.320537e-002
2.894628e+003, 1.326737e-002
2.896557e+003, 1.378520e-002
2.898485e+003, 1.396039e-002
2.900414e+003, 1.397004e-002
2.902342e+003, 1.391823e-002
2.904271e+003, 1.410688e-002
2.906199e+003, 1.447743e-002
2.908128e+003, 1.437103e-002
2.910056e+003, 1.451678e-002
2.911985e+003, 1.467287e-002
2.913913e+003, 1.465522e-002
2.915842e+003, 1.493301e-002
2.917770e+003, 1.516504e-002
2.919698e+003, 1.558140e-002
2.921627e+003, 1.601578e-002
2.923555e+003, 1.637031e-002
2.925484e+003, 1.636025e-002
2.927412e+003, 1.605782e-002
2.929341e+003, 1.580684e-002
2.931269e+003, 1.572557e-002
2.933198e+003, 1.552298e-002
2.935126e+003, 1.560896e-002
2.937055e+003, 1.533717e-002
2.938983e+003, 1.496882e-002
2.940912e+003, 1.520836e-002
2.942840e+003, 1.529142e-002
2.944769e+003, 1.474668e-002
2.946697e+003, 1.466999e-002
2.948625e+003, 1.500108e-002
2.950554e+003, 1.537135e-002
2.952482e+003, 1.552564e-002
2.954411e+003, 1.577714e-002
2.956339e+003, 1.604625e-002
2.958268e+003, 1.604469e-002
2.960196e+003, 1.604578e-002
2.962125e+003, 1.598436e-002
2.964053e+003, 1.560261e-002
2.965982e+003, 1.534121e-002
2.967910e+003, 1.511673e-002
2.969839e+003, 1.485215e-002
2.971767e+003, 1.468319e-002
2.973696e+003, 1.434165e-002
2.975624e+003, 1.439150e-002
2.977552e+003, 1.420278e-002
2.979481e+003, 1.423701e-002
2.981409e+003, 1.428265e-002
2.983338e+003, 1.424738e-002
2.985266e+003, 1.435248e-002
2.987195e+003, 1.425054e-002
2.989123e+003, 1.423748e-002
2.991052e+003, 1.425405e-002
2.992980e+003, 1.420016e-002
2.994909e+003, 1.422784e-002
2.996837e+003, 1.461870e-002
2.998766e+003, 1.457422e-002
3.000694e+003, 1.448665e-002
3.002623e+003, 1.445147e-002
3.004551e+003, 1.451699e-002
3.006479e+003, 1.474911e-002
3.008408e+003, 1.481147e-002
3.010336e+003, 1.474538e-002
3.012265e+003, 1.492894e-002
3.014193e+003, 1.502281e-002
3.016122e+003, 1.512844e-002
3.018050e+003, 1.489026e-002
3.019979e+003, 1.472842e-002
3.021907e+003, 1.511574e-002
3.023836e+003, 1.541364e-002
3.025764e+003, 1.551880e-002
3.027693e+003, 1.552308e-002
3.029621e+003, 1.546397e-002
3.031550e+003, 1.517715e-002
3.033478e+003, 1.507047e-002
3.035406e+003, 1.539553e-002
3.037335e+003, 1.575131e-002
3.039263e+003, 1.617327e-002
3.041192e+003, 1.622533e-002
3.043120e+003, 1.583358e-002
3.045049e+003, 1.558619e-002
3.046977e+003, 1.594688e-002
3.048906e+003, 1.635679e-002
3.050834e+003, 1.646157e-002
3.052763e+003, 1.667034e-002
3.054691e+003, 1.662539e-002
3.056620e+003, 1.641960e-002
3.058548e+003, 1.641997e-002
3.060477e+003, 1.660341e-002
3.062405e+003, 1.700659e-002
3.064333e+003, 1.704678e-002
3.066262e+003, 1.708043e-002
3.068190e+003, 1.688934e-002
3.070119e+003, 1.698678e-002
3.072047e+003, 1.717207e-002
3.073976e+003, 1.706625e-002
3.075904e+003, 1.699528e-002
3.077833e+003, 1.736849e-002
3.079761e+003, 1.775466e-002
3.081690e+003, 1.763838e-002
3.083618e+003, 1.783409e-002
3.085547e+003, 1.812415e-002
3.087475e+003, 1.791202e-002
3.089404e+003, 1.772463e-002
3.091332e+003, 1.738398e-002
3.093260e+003, 1.754910e-002
3.095189e+003, 1.764677e-002
3.097117e+003, 1.761168e-002
3.099046e+003, 1.789293e-002
3.100974e+003, 1.781356e-002
3.102903e+003, 1.772043e-002
3.104831e+003, 1.812924e-002
3.106760e+003, 1.848743e-002
3.108688e+003, 1.874596e-002
3.110617e+003, 1.880459e-002
3.112545e+003, 1.867129e-002
3.114474e+003, 1.830643e-002
3.116402e+003, 1.799656e-002
3.118331e+003, 1.841702e-002
3.120259e+003, 1.878162e-002
3.122188e+003, 1.872271e-002
3.124116e+003, 1.873005e-002
3.126044e+003, 1.922516e-002
3.127973e+003, 1.953179e-002
3.129901e+003, 1.938578e-002
3.131830e+003, 1.928961e-002
3.133758e+003, 1.924028e-002
3.135687e+003, 1.927516e-002
3.137615e+003, 1.930028e-002
3.139544e+003, 1.952072e-002
3.141472e+003, 1.950249e-002
3.143401e+003, 1.957127e-002
3.145329e+003, 1.992805e-002
3.147258e+003, 2.008786e-002
3.149186e+003, 1.983662e-002
3.151115e+003, 1.974440e-002
3.153043e+003, 1.968692e-002
3.154971e+003, 1.986990e-002
3.156900e+003, 2.002540e-002
3.158828e+003, 1.994883e-002
3.160757e+003, 2.004227e-002
3.162685e+003, 2.052199e-002
3.164614e+003, 2.065923e-002
3.166542e+003, 2.059979e-002
3.168471e+003, 2.078251e-002
3.170399e+003, 2.095906e-002
3.172328e+003, 2.085215e-002
3.174256e+003, 2.081803e-002
3.176185e+003, 2.109372e-002
3.178113e+003, 2.103689e-002
3.180042e+003, 2.068518e-002
3.181970e+003, 2.020913e-002
3.183898e+003, 2.039820e-002
3.185827e+003, 2.132087e-002
3.187755e+003, 2.139156e-002
3.189684e+003, 2.105946e-002
3.191612e+003, 2.148495e-002
3.193541e+003, 2.191795e-002
3.195469e+003, 2.208800e-002
3.197398e+003, 2.209086e-002
3.199326e+003, 2.167104e-002
3.201255e+003, 2.185344e-002
3.203183e+003, 2.239670e-002
3.205112e+003, 2.211158e-002
3.207040e+003, 2.197188e-002
3.208969e+003, 2.231185e-002
3.210897e+003, 2.268203e-002
3.212825e+003, 2.246550e-002
3.214754e+003, 2.200796e-002
3.216682e+003, 2.171454e-002
3.218611e+003, 2.166796e-002
3.220539e+003, 2.243379e-002
3.222468e+003, 2.277903e-002
3.224396e+003, 2.250066e-002
3.226325e+003, 2.243892e-002
3.228253e+003, 2.248111e-002
3.230182e+003, 2.257620e-002
3.232110e+003, 2.295155e-002
3.234039e+003, 2.301521e-002
3.235967e+003, 2.285716e-002
3.237896e+003, 2.286115e-002
3.239824e+003, 2.315256e-002
3.241752e+003, 2.301672e-002
3.243681e+003, 2.281957e-002
3.245609e+003, 2.275180e-002
3.247538e+003, 2.269684e-002
3.249466e+003, 2.307348e-002
3.251395e+003, 2.302429e-002
3.253323e+003, 2.291455e-002
3.255252e+003, 2.335120e-002
3.257180e+003, 2.366304e-002
3.259109e+003, 2.305994e-002
3.261037e+003, 2.285535e-002
3.262966e+003, 2.288400e-002
3.264894e+003, 2.261014e-002
3.266823e+003, 2.279077e-002
3.268751e+003, 2.340624e-002
3.270679e+003, 2.362573e-002
3.272608e+003, 2.388927e-002
3.274536e+003, 2.409333e-002
3.276465e+003, 2.396904e-002
3.278393e+003, 2.373447e-002
3.280322e+003, 2.384700e-002
3.282250e+003, 2.356929e-002
3.284179e+003, 2.313877e-002
3.286107e+003, 2.344163e-002
3.288036e+003, 2.391914e-002
3.289964e+003, 2.374450e-002
3.291893e+003, 2.348892e-002
3.293821e+003, 2.398746e-002
3.295750e+003, 2.453327e-002
3.297678e+003, 2.427931e-002
3.299606e+003, 2.408811e-002
3.301535e+003, 2.439410e-002
3.303463e+003, 2.480674e-002
3.305392e+003, 2.459278e-002
3.307320e+003, 2.405907e-002
3.309249e+003, 2.398823e-002
3.311177e+003, 2.406198e-002
3.313106e+003, 2.420133e-002
3.315034e+003, 2.430208e-002
3.316963e+003, 2.451125e-002
3.318891e+003, 2.505072e-002
3.320820e+003, 2.524844e-002
3.322748e+003, 2.473300e-002
3.324677e+003, 2.389971e-002
3.326605e+003, 2.426389e-002
3.328533e+003, 2.443059e-002
3.330462e+003, 2.433429e-002
3.332390e+003, 2.454936e-002
3.334319e+003, 2.498555e-002
3.336247e+003, 2.543314e-002
3.338176e+003, 2.523880e-002
3.340104e+003, 2.504121e-002
3.342033e+003, 2.523546e-002
3.343961e+003, 2.463603e-002
3.345890e+003, 2.462902e-002
3.347818e+003, 2.513845e-002
3.349747e+003, 2.497065e-002
3.351675e+003, 2.513414e-002
3.353604e+003, 2.525654e-002
3.355532e+003, 2.526131e-002
3.357460e+003, 2.499682e-002
3.359389e+003, 2.536867e-002
3.361317e+003, 2.536939e-002
3.363246e+003, 2.491285e-002
3.365174e+003, 2.502783e-002
3.367103e+003, 2.560358e-002
3.369031e+003, 2.588475e-002
3.370960e+003, 2.575734e-002
3.372888e+003, 2.518641e-002
3.374817e+003, 2.562642e-002
3.376745e+003, 2.598766e-002
3.378674e+003, 2.620737e-002
3.380602e+003, 2.683067e-002
3.382531e+003, 2.679128e-002
3.384459e+003, 2.565649e-002
3.386387e+003, 2.521456e-002
3.388316e+003, 2.548931e-002
3.390244e+003, 2.569181e-002
3.392173e+003, 2.504090e-002
3.394101e+003, 2.506163e-002
3.396030e+003, 2.556865e-002
3.397958e+003, 2.559231e-002
3.399887e+003, 2.541128e-002
3.401815e+003, 2.557854e-002
3.403744e+003, 2.592651e-002
3.405672e+003, 2.563585e-002
3.407601e+003, 2.568675e-002
3.409529e+003, 2.580151e-002
3.411458e+003, 2.566909e-002
3.413386e+003, 2.570486e-002
3.415314e+003, 2.567607e-002
3.417243e+003, 2.592384e-002
3.419171e+003, 2.596877e-002
3.421100e+003, 2.588465e-002
3.423028e+003, 2.597574e-002
3.424957e+003, 2.547989e-002
3.426885e+003, 2.488481e-002
3.428814e+003, 2.480441e-002
3.430742e+003, 2.527484e-002
3.432671e+003, 2.591465e-002
3.434599e+003, 2.585728e-002
3.436528e+003, 2.541908e-002
3.438456e+003, 2.556694e-002
3.440385e+003, 2.584961e-002
3.442313e+003, 2.571717e-002
3.444241e+003, 2.593718e-002
3.446170e+003, 2.548610e-002
3.448098e+003, 2.518707e-002
3.450027e+003, 2.531994e-002
3.451955e+003, 2.551020e-002
3.453884e+003, 2.561883e-002
3.455812e+003, 2.541602e-002
3.457741e+003, 2.505443e-002
3.459669e+003, 2.484379e-002
3.461598e+003, 2.476549e-002
3.463526e+003, 2.447702e-002
3.465455e+003, 2.444872e-002
3.467383e+003, 2.492221e-002
3.469312e+003, 2.498876e-002
3.471240e+003, 2.401295e-002
3.473168e+003, 2.363918e-002
3.475097e+003, 2.444876e-002
3.477025e+003, 2.514567e-002
3.478954e+003, 2.523132e-002
3.480882e+003, 2.517410e-002
3.482811e+003, 2.440887e-002
3.484739e+003, 2.387742e-002
3.486668e+003, 2.449151e-002
3.488596e+003, 2.485773e-002
3.490525e+003, 2.480832e-002
3.492453e+003, 2.491751e-002
3.494382e+003, 2.478825e-002
3.496310e+003, 2.444881e-002
3.498239e+003, 2.396469e-002
3.500167e+003, 2.390577e-002
3.502095e+003, 2.406922e-002
3.504024e+003, 2.394280e-002
3.505952e+003, 2.378709e-002
3.507881e+003, 2.353065e-002
3.509809e+003, 2.385787e-002
3.511738e+003, 2.392792e-002
3.513666e+003, 2.374568e-002
3.515595e+003, 2.370143e-002
3.517523e+003, 2.378768e-002
3.519452e+003, 2.366271e-002
3.521380e+003, 2.323220e-002
3.523309e+003, 2.290345e-002
3.525237e+003, 2.269770e-002
3.527166e+003, 2.283797e-002
3.529094e+003, 2.267466e-002
3.531022e+003, 2.234000e-002
3.532951e+003, 2.242439e-002
3.534879e+003, 2.302062e-002
3.536808e+003, 2.334009e-002
3.538736e+003, 2.289227e-002
3.540665e+003, 2.276458e-002
3.542593e+003, 2.264234e-002
3.544522e+003, 2.211520e-002
3.546450e+003, 2.224140e-002
3.548379e+003, 2.195960e-002
3.550307e+003, 2.209764e-002
3.552236e+003, 2.282223e-002
3.554164e+003, 2.302668e-002
3.556093e+003, 2.251002e-002
3.558021e+003, 2.209115e-002
3.559949e+003, 2.172085e-002
3.561878e+003, 2.149575e-002
3.563806e+003, 2.161034e-002
3.565735e+003, 2.196314e-002
3.567663e+003, 2.220031e-002
3.569592e+003, 2.165435e-002
3.571520e+003, 2.085658e-002
3.573449e+003, 2.070871e-002
3.575377e+003, 2.108319e-002
3.577306e+003, 2.154961e-002
3.579234e+003, 2.085130e-002
3.581163e+003, 2.072951e-002
3.583091e+003, 2.063959e-002
3.585020e+003, 2.034087e-002
3.586948e+003, 2.103467e-002
3.588876e+003, 2.147353e-002
3.590805e+003, 2.075879e-002
3.592733e+003, 2.029747e-002
3.594662e+003, 1.961346e-002
3.596590e+003, 1.883193e-002
3.598519e+003, 1.929740e-002
3.600447e+003, 1.974995e-002
3.602376e+003, 1.897343e-002
3.604304e+003, 1.889133e-002
3.606233e+003, 1.960750e-002
3.608161e+003, 1.971190e-002
3.610090e+003, 1.905453e-002
3.612018e+003, 1.915615e-002
3.613947e+003, 1.916393e-002
3.615875e+003, 1.942108e-002
3.617803e+003, 2.080098e-002
3.619732e+003, 2.131479e-002
3.621660e+003, 2.026641e-002
3.623589e+003, 1.906376e-002
3.625517e+003, 1.793366e-002
3.627446e+003, 1.700495e-002
3.629374e+003, 1.666197e-002
3.631303e+003, 1.648926e-002
3.633231e+003, 1.684935e-002
3.635160e+003, 1.719309e-002
3.637088e+003, 1.719720e-002
3.639017e+003, 1.697203e-002
3.640945e+003, 1.622308e-002
3.642874e+003, 1.541725e-002
3.644802e+003, 1.535222e-002
3.646730e+003, 1.604738e-002
3.648659e+003, 1.614426e-002
3.650587e+003, 1.583155e-002
3.652516e+003, 1.577499e-002
3.654444e+003, 1.560830e-002
3.656373e+003, 1.454830e-002
3.658301e+003, 1.372090e-002
3.660230e+003, 1.370279e-002
3.662158e+003, 1.361820e-002
3.664087e+003, 1.382091e-002
3.666015e+003, 1.409150e-002
3.667944e+003, 1.451595e-002
3.669872e+003, 1.448883e-002
3.671801e+003, 1.366474e-002
3.673729e+003, 1.361027e-002
3.675657e+003, 1.346238e-002
3.677586e+003, 1.290868e-002
3.679514e+003, 1.232608e-002
3.681443e+003, 1.215994e-002
3.683371e+003, 1.249172e-002
3.685300e+003, 1.281552e-002
3.687228e+003, 1.325540e-002
3.689157e+003, 1.323864e-002
3.691085e+003, 1.276050e-002
3.693014e+003, 1.253380e-002
3.694942e+003, 1.239572e-002
3.696871e+003, 1.199757e-002
3.698799e+003, 1.198221e-002
3.700728e+003, 1.275566e-002
3.702656e+003, 1.248369e-002
3.704584e+003, 1.183815e-002
3.706513e+003, 1.138820e-002
3.708441e+003, 1.167986e-002
3.710370e+003, 1.256153e-002
3.712298e+003, 1.230178e-002
3.714227e+003, 1.171971e-002
3.716155e+003, 1.146682e-002
3.718084e+003, 1.169547e-002
3.720012e+003, 1.196711e-002
3.721941e+003, 1.218488e-002
3.723869e+003, 1.215836e-002
3.725798e+003, 1.240060e-002
3.727726e+003, 1.215298e-002
3.729655e+003, 1.186556e-002
3.731583e+003, 1.192735e-002
3.733511e+003, 1.209836e-002
3.735440e+003, 1.217555e-002
3.737368e+003, 1.224263e-002
3.739297e+003, 1.227294e-002
3.741225e+003, 1.225708e-002
3.743154e+003, 1.307064e-002
3.745082e+003, 1.301136e-002
3.747011e+003, 1.204259e-002
3.748939e+003, 1.270932e-002
3.750868e+003, 1.338351e-002
3.752796e+003, 1.266795e-002
3.754725e+003, 1.156665e-002
3.756653e+003, 1.176080e-002
3.758582e+003, 1.209103e-002
3.760510e+003, 1.189167e-002
3.762438e+003, 1.239779e-002
3.764367e+003, 1.301208e-002
3.766295e+003, 1.246464e-002
3.768224e+003, 1.215745e-002
3.770152e+003, 1.247811e-002
3.772081e+003, 1.262861e-002
3.774009e+003, 1.232891e-002
3.775938e+003, 1.211441e-002
3.777866e+003, 1.249798e-002
3.779795e+003, 1.235209e-002
3.781723e+003, 1.269365e-002
3.783652e+003, 1.270345e-002
3.785580e+003, 1.247879e-002
3.787509e+003, 1.236088e-002
3.789437e+003, 1.234192e-002
3.791365e+003, 1.215536e-002
3.793294e+003, 1.176620e-002
3.795222e+003, 1.239192e-002
3.797151e+003, 1.318602e-002
3.799079e+003, 1.334884e-002
3.801008e+003, 1.380721e-002
3.802936e+003, 1.365441e-002
3.804865e+003, 1.352969e-002
3.806793e+003, 1.301069e-002
3.808722e+003, 1.242941e-002
3.810650e+003, 1.265622e-002
3.812579e+003, 1.306268e-002
3.814507e+003, 1.332667e-002
3.816436e+003, 1.315653e-002
3.818364e+003, 1.310495e-002
3.820292e+003, 1.376459e-002
3.822221e+003, 1.336567e-002
3.824149e+003, 1.287909e-002
3.826078e+003, 1.353401e-002
3.828006e+003, 1.394450e-002
3.829935e+003, 1.335533e-002
3.831863e+003, 1.291177e-002
3.833792e+003, 1.307822e-002
3.835720e+003, 1.290872e-002
3.837649e+003, 1.298676e-002
3.839577e+003, 1.271218e-002
3.841506e+003, 1.285969e-002
3.843434e+003, 1.313739e-002
3.845363e+003, 1.362489e-002
3.847291e+003, 1.296000e-002
3.849219e+003, 1.235484e-002
3.851148e+003, 1.291870e-002
3.853076e+003, 1.444406e-002
3.855005e+003, 1.450893e-002
3.856933e+003, 1.339910e-002
3.858862e+003, 1.281101e-002
3.860790e+003, 1.258545e-002
3.862719e+003, 1.327344e-002
3.864647e+003, 1.412546e-002
3.866576e+003, 1.402959e-002
3.868504e+003, 1.426504e-002
3.870433e+003, 1.450283e-002
3.872361e+003, 1.398215e-002
3.874290e+003, 1.330870e-002
3.876218e+003, 1.316689e-002
3.878146e+003, 1.315510e-002
3.880075e+003, 1.282471e-002
3.882003e+003, 1.268831e-002
3.883932e+003, 1.329485e-002
3.885860e+003, 1.402398e-002
3.887789e+003, 1.404463e-002
3.889717e+003, 1.399577e-002
3.891646e+003, 1.428856e-002
3.893574e+003, 1.407882e-002
3.895503e+003, 1.398485e-002
3.897431e+003, 1.401826e-002
3.899360e+003, 1.395581e-002
3.901288e+003, 1.315514e-002
3.903217e+003, 1.285491e-002
3.905145e+003, 1.305676e-002
3.907073e+003, 1.324956e-002
3.909002e+003, 1.353095e-002
3.910930e+003, 1.382678e-002
3.912859e+003, 1.351723e-002
3.914787e+003, 1.341464e-002
3.916716e+003, 1.358862e-002
3.918644e+003, 1.378738e-002
3.920573e+003, 1.350901e-002
3.922501e+003, 1.333834e-002
3.924430e+003, 1.351835e-002
3.926358e+003, 1.365421e-002
3.928287e+003, 1.364431e-002
3.930215e+003, 1.418043e-002
3.932144e+003, 1.449948e-002
3.934072e+003, 1.382252e-002
3.936000e+003, 1.357996e-002
3.937929e+003, 1.385066e-002
3.939857e+003, 1.371589e-002
3.941786e+003, 1.293486e-002
3.943714e+003, 1.294902e-002
3.945643e+003, 1.332191e-002
3.947571e+003, 1.368101e-002
3.949500e+003, 1.379262e-002
3.951428e+003, 1.370136e-002
3.953357e+003, 1.433541e-002
3.955285e+003, 1.488451e-002
3.957214e+003, 1.473233e-002
3.959142e+003, 1.406808e-002
3.961071e+003, 1.372728e-002
3.962999e+003, 1.407674e-002
3.964927e+003, 1.509683e-002
3.966856e+003, 1.516628e-002
3.968784e+003, 1.433455e-002
3.970713e+003, 1.408912e-002
3.972641e+003, 1.432099e-002
3.974570e+003, 1.428206e-002
3.976498e+003, 1.427629e-002
3.978427e+003, 1.395408e-002
3.980355e+003, 1.400810e-002
3.982284e+003, 1.481953e-002
3.984212e+003, 1.499748e-002
3.986141e+003, 1.505397e-002
3.988069e+003, 1.511716e-002
3.989998e+003, 1.462955e-002
3.991926e+003, 1.370654e-002
3.993854e+003, 1.351155e-002
3.995783e+003, 1.445323e-002
3.997711e+003, 1.437986e-002
3.999640e+003, 1.348457e-002
##END=



