##NAMES=Mangano-mangani-ungarettiite
##RRUFFID=R050244
##IDEAL CHEMISTRY=NaNa_2_(Mn^2+^_2_Mn^3+^_3_)Si_8_O_22_O_2_
##LOCALITY=Hoskins mine, near Grenfell, New South Wales, Australia
##OWNER=RRUFF
##SOURCE=Marcus Origlieri
##DESCRIPTION=Dark red granular, associated with namansilite, R070006
##STATUS=The identification of this mineral is confirmed by single-crystal X-ray diffraction and chemical analysis.
##URL=rruff.info/R050244
##MEASURED CHEMISTRY=Na_1.00_Na_2.00_(Mn^2+^_2.00_(Mn^3+^_2.35_Fe^3+^_0.63_Al_0.02_)_Î£=3_)Si_8.00_O_22_O_2_
3.741225e+002, 2.019423e-001
3.760510e+002, 2.071968e-001
3.779795e+002, 2.291963e-001
3.799079e+002, 2.208032e-001
3.818364e+002, 2.161770e-001
3.837649e+002, 2.352712e-001
3.856933e+002, 2.425743e-001
3.876218e+002, 2.370567e-001
3.895503e+002, 2.397287e-001
3.914787e+002, 2.535612e-001
3.934072e+002, 2.572781e-001
3.953357e+002, 2.577674e-001
3.972641e+002, 2.723373e-001
3.991926e+002, 2.823304e-001
4.011211e+002, 2.900782e-001
4.030495e+002, 2.862971e-001
4.049780e+002, 2.801123e-001
4.069065e+002, 2.772298e-001
4.088349e+002, 2.722029e-001
4.107634e+002, 2.632169e-001
4.126919e+002, 2.518624e-001
4.146203e+002, 2.426269e-001
4.165488e+002, 2.353978e-001
4.184773e+002, 2.335715e-001
4.204057e+002, 2.299139e-001
4.223342e+002, 2.255950e-001
4.242627e+002, 2.202494e-001
4.261911e+002, 2.147043e-001
4.281196e+002, 2.115465e-001
4.300481e+002, 2.089273e-001
4.319765e+002, 2.040371e-001
4.339050e+002, 2.004583e-001
4.358335e+002, 2.000920e-001
4.377619e+002, 1.993986e-001
4.396904e+002, 1.996022e-001
4.416189e+002, 2.032774e-001
4.435473e+002, 2.083221e-001
4.454758e+002, 2.113594e-001
4.474043e+002, 2.133211e-001
4.493327e+002, 2.145838e-001
4.512612e+002, 2.161057e-001
4.531897e+002, 2.164303e-001
4.551181e+002, 2.149026e-001
4.570466e+002, 2.146833e-001
4.589751e+002, 2.146193e-001
4.609035e+002, 2.125502e-001
4.628320e+002, 2.104534e-001
4.647605e+002, 2.065960e-001
4.666889e+002, 2.020088e-001
4.686174e+002, 1.976152e-001
4.705459e+002, 1.920693e-001
4.724743e+002, 1.861229e-001
4.744028e+002, 1.810381e-001
4.763313e+002, 1.758561e-001
4.782597e+002, 1.711538e-001
4.801882e+002, 1.650539e-001
4.821167e+002, 1.578072e-001
4.840451e+002, 1.498412e-001
4.859736e+002, 1.411999e-001
4.879021e+002, 1.338057e-001
4.898305e+002, 1.282276e-001
4.917590e+002, 1.244996e-001
4.936875e+002, 1.225206e-001
4.956159e+002, 1.216661e-001
4.975444e+002, 1.217772e-001
4.994729e+002, 1.226335e-001
5.014013e+002, 1.246137e-001
5.033298e+002, 1.264991e-001
5.052583e+002, 1.269086e-001
5.071867e+002, 1.246702e-001
5.091152e+002, 1.188410e-001
5.110437e+002, 1.124313e-001
5.129721e+002, 1.082725e-001
5.149006e+002, 1.071900e-001
5.168290e+002, 1.090779e-001
5.187575e+002, 1.137127e-001
5.206860e+002, 1.192764e-001
5.226144e+002, 1.255636e-001
5.245429e+002, 1.330772e-001
5.264714e+002, 1.410993e-001
5.283998e+002, 1.494939e-001
5.303283e+002, 1.588213e-001
5.322568e+002, 1.689777e-001
5.341852e+002, 1.792249e-001
5.361137e+002, 1.881184e-001
5.380422e+002, 1.955765e-001
5.399706e+002, 2.014233e-001
5.418991e+002, 2.054589e-001
5.438276e+002, 2.077759e-001
5.457560e+002, 2.077335e-001
5.476845e+002, 2.053561e-001
5.496130e+002, 2.008708e-001
5.515414e+002, 1.950762e-001
5.534699e+002, 1.873973e-001
5.553984e+002, 1.787164e-001
5.573268e+002, 1.707548e-001
5.592553e+002, 1.634280e-001
5.611838e+002, 1.566402e-001
5.631122e+002, 1.504495e-001
5.650407e+002, 1.450177e-001
5.669692e+002, 1.402192e-001
5.688976e+002, 1.356066e-001
5.708261e+002, 1.312836e-001
5.727546e+002, 1.270678e-001
5.746830e+002, 1.229556e-001
5.766115e+002, 1.185522e-001
5.785400e+002, 1.139259e-001
5.804684e+002, 1.089984e-001
5.823969e+002, 1.038337e-001
5.843254e+002, 9.854597e-002
5.862538e+002, 9.325556e-002
5.881823e+002, 8.767714e-002
5.901108e+002, 8.177254e-002
5.920392e+002, 7.633747e-002
5.939677e+002, 7.097691e-002
5.958962e+002, 6.591628e-002
5.978246e+002, 6.168685e-002
5.997531e+002, 5.801468e-002
6.016816e+002, 5.534237e-002
6.036100e+002, 5.385483e-002
6.055385e+002, 5.279292e-002
6.074670e+002, 5.177980e-002
6.093954e+002, 5.058008e-002
6.113239e+002, 4.947841e-002
6.132524e+002, 4.868317e-002
6.151808e+002, 4.864448e-002
6.171093e+002, 4.939637e-002
6.190378e+002, 5.072144e-002
6.209662e+002, 5.230581e-002
6.228947e+002, 5.414071e-002
6.248232e+002, 5.667839e-002
6.267516e+002, 6.016934e-002
6.286801e+002, 6.439609e-002
6.306086e+002, 6.971842e-002
6.325370e+002, 7.621588e-002
6.344655e+002, 8.340240e-002
6.363940e+002, 9.050044e-002
6.383224e+002, 9.589005e-002
6.402509e+002, 9.802986e-002
6.421794e+002, 9.584613e-002
6.441078e+002, 8.950911e-002
6.460363e+002, 8.055090e-002
6.479648e+002, 7.106852e-002
6.498932e+002, 6.234071e-002
6.518217e+002, 5.497929e-002
6.537502e+002, 4.943974e-002
6.556786e+002, 4.581188e-002
6.576071e+002, 4.339999e-002
6.595356e+002, 4.158763e-002
6.614641e+002, 4.022788e-002
6.633925e+002, 3.915691e-002
6.653210e+002, 3.796797e-002
6.672495e+002, 3.701969e-002
6.691779e+002, 3.624662e-002
6.711064e+002, 3.571128e-002
6.730349e+002, 3.586676e-002
6.749633e+002, 3.627946e-002
6.768918e+002, 3.678816e-002
6.788203e+002, 3.746749e-002
6.807487e+002, 3.789086e-002
6.826772e+002, 3.789365e-002
6.846057e+002, 3.730004e-002
6.865341e+002, 3.656540e-002
6.884626e+002, 3.599302e-002
6.903911e+002, 3.566412e-002
6.923195e+002, 3.545144e-002
6.942480e+002, 3.552113e-002
6.961765e+002, 3.583335e-002
6.981049e+002, 3.622970e-002
7.000334e+002, 3.666120e-002
7.019619e+002, 3.727768e-002
7.038903e+002, 3.813195e-002
7.058188e+002, 3.903707e-002
7.077473e+002, 3.991717e-002
7.096757e+002, 4.082534e-002
7.116042e+002, 4.166319e-002
7.135327e+002, 4.255518e-002
7.154611e+002, 4.371166e-002
7.173896e+002, 4.527497e-002
7.193181e+002, 4.705944e-002
7.212465e+002, 4.920338e-002
7.231750e+002, 5.174307e-002
7.251035e+002, 5.501386e-002
7.270319e+002, 5.852355e-002
7.289604e+002, 6.152774e-002
7.308889e+002, 6.331423e-002
7.328173e+002, 6.281405e-002
7.347458e+002, 6.014556e-002
7.366743e+002, 5.662965e-002
7.386027e+002, 5.350008e-002
7.405312e+002, 5.170993e-002
7.424597e+002, 5.105346e-002
7.443881e+002, 5.102439e-002
7.463166e+002, 5.157674e-002
7.482451e+002, 5.254496e-002
7.501735e+002, 5.383850e-002
7.521020e+002, 5.555957e-002
7.540305e+002, 5.739516e-002
7.559589e+002, 5.890472e-002
7.578874e+002, 5.999361e-002
7.598159e+002, 6.082464e-002
7.617443e+002, 6.164128e-002
7.636728e+002, 6.272105e-002
7.656013e+002, 6.441650e-002
7.675297e+002, 6.651378e-002
7.694582e+002, 6.807557e-002
7.713867e+002, 6.869523e-002
7.733151e+002, 6.863943e-002
7.752436e+002, 6.847796e-002
7.771721e+002, 6.847629e-002
7.791005e+002, 6.825215e-002
7.810290e+002, 6.762058e-002
7.829575e+002, 6.714015e-002
7.848859e+002, 6.711552e-002
7.868144e+002, 6.765449e-002
7.887429e+002, 6.873383e-002
7.906713e+002, 7.024533e-002
7.925998e+002, 7.203002e-002
7.945283e+002, 7.363632e-002
7.964567e+002, 7.522143e-002
7.983852e+002, 7.709065e-002
8.003137e+002, 7.912912e-002
8.022421e+002, 8.112781e-002
8.041706e+002, 8.307464e-002
8.060991e+002, 8.515470e-002
8.080275e+002, 8.731573e-002
8.099560e+002, 8.978455e-002
8.118845e+002, 9.251364e-002
8.138129e+002, 9.524590e-002
8.157414e+002, 9.801262e-002
8.176699e+002, 1.010016e-001
8.195983e+002, 1.042454e-001
8.215268e+002, 1.076166e-001
8.234553e+002, 1.111987e-001
8.253837e+002, 1.148895e-001
8.273122e+002, 1.187917e-001
8.292407e+002, 1.227355e-001
8.311691e+002, 1.268799e-001
8.330976e+002, 1.311277e-001
8.350261e+002, 1.356366e-001
8.369545e+002, 1.405224e-001
8.388830e+002, 1.456799e-001
8.408115e+002, 1.510787e-001
8.427399e+002, 1.566173e-001
8.446684e+002, 1.623412e-001
8.465969e+002, 1.680390e-001
8.485253e+002, 1.735056e-001
8.504538e+002, 1.787336e-001
8.523823e+002, 1.834457e-001
8.543107e+002, 1.877767e-001
8.562392e+002, 1.918277e-001
8.581677e+002, 1.958800e-001
8.600961e+002, 1.997091e-001
8.620246e+002, 2.035860e-001
8.639531e+002, 2.081636e-001
8.658815e+002, 2.135381e-001
8.678100e+002, 2.191684e-001
8.697385e+002, 2.249491e-001
8.716669e+002, 2.312628e-001
8.735954e+002, 2.377807e-001
8.755239e+002, 2.444380e-001
8.774523e+002, 2.511547e-001
8.793808e+002, 2.575980e-001
8.813093e+002, 2.641562e-001
8.832377e+002, 2.707082e-001
8.851662e+002, 2.773307e-001
8.870947e+002, 2.839593e-001
8.890231e+002, 2.906115e-001
8.909516e+002, 2.971052e-001
8.928801e+002, 3.035008e-001
8.948085e+002, 3.099903e-001
8.967370e+002, 3.162334e-001
8.986655e+002, 3.224873e-001
9.005939e+002, 3.283396e-001
9.025224e+002, 3.336469e-001
9.044509e+002, 3.386413e-001
9.063793e+002, 3.434888e-001
9.083078e+002, 3.480273e-001
9.102363e+002, 3.520277e-001
9.121647e+002, 3.560010e-001
9.140932e+002, 3.595835e-001
9.160217e+002, 3.628815e-001
9.179501e+002, 3.656446e-001
9.198786e+002, 3.677540e-001
9.218071e+002, 3.688138e-001
9.237355e+002, 3.686755e-001
9.256640e+002, 3.677507e-001
9.275925e+002, 3.660244e-001
9.295209e+002, 3.633937e-001
9.314494e+002, 3.605052e-001
9.333779e+002, 3.576036e-001
9.353063e+002, 3.547994e-001
9.372348e+002, 3.526947e-001
9.391633e+002, 3.521157e-001
9.410917e+002, 3.530369e-001
9.430202e+002, 3.556282e-001
9.449487e+002, 3.597334e-001
9.468771e+002, 3.652238e-001
9.488056e+002, 3.712703e-001
9.507341e+002, 3.767901e-001
9.526625e+002, 3.810518e-001
9.545910e+002, 3.832660e-001
9.565195e+002, 3.835346e-001
9.584479e+002, 3.828777e-001
9.603764e+002, 3.818531e-001
9.623049e+002, 3.809445e-001
9.642333e+002, 3.800623e-001
9.661618e+002, 3.793144e-001
9.680903e+002, 3.781435e-001
9.700187e+002, 3.762551e-001
9.719472e+002, 3.735055e-001
9.738757e+002, 3.700128e-001
9.758041e+002, 3.659345e-001
9.777326e+002, 3.611554e-001
9.796611e+002, 3.555095e-001
9.815895e+002, 3.494012e-001
9.835180e+002, 3.432169e-001
9.854465e+002, 3.367786e-001
9.873749e+002, 3.300697e-001
9.893034e+002, 3.233994e-001
9.912319e+002, 3.167213e-001
9.931603e+002, 3.100745e-001
9.950888e+002, 3.035108e-001
9.970173e+002, 2.969793e-001
9.989457e+002, 2.900777e-001
1.000874e+003, 2.830056e-001
1.002803e+003, 2.761271e-001
1.004731e+003, 2.691608e-001
1.006660e+003, 2.618779e-001
1.008588e+003, 2.544577e-001
1.010517e+003, 2.466670e-001
1.012445e+003, 2.380900e-001
1.014373e+003, 2.288087e-001
1.016302e+003, 2.195359e-001
1.018230e+003, 2.124344e-001
1.020159e+003, 2.098816e-001
1.022087e+003, 2.108277e-001
1.024016e+003, 2.119550e-001
1.025944e+003, 2.112507e-001
1.027873e+003, 2.090057e-001
1.029801e+003, 2.057434e-001
1.031730e+003, 2.017989e-001
1.033658e+003, 1.977993e-001
1.035587e+003, 1.935665e-001
1.037515e+003, 1.892383e-001
1.039443e+003, 1.851229e-001
1.041372e+003, 1.809188e-001
1.043300e+003, 1.768210e-001
1.045229e+003, 1.729036e-001
1.047157e+003, 1.689741e-001
1.049086e+003, 1.651897e-001
1.051014e+003, 1.612982e-001
1.052943e+003, 1.570981e-001
1.054871e+003, 1.528660e-001
1.056800e+003, 1.487306e-001
1.058728e+003, 1.446609e-001
1.060657e+003, 1.408966e-001
1.062585e+003, 1.375699e-001
1.064514e+003, 1.343414e-001
1.066442e+003, 1.313120e-001
1.068370e+003, 1.285854e-001
1.070299e+003, 1.259575e-001
1.072227e+003, 1.233870e-001
1.074156e+003, 1.209494e-001
1.076084e+003, 1.184771e-001
1.078013e+003, 1.161109e-001
1.079941e+003, 1.137567e-001
1.081870e+003, 1.110888e-001
1.083798e+003, 1.082932e-001
1.085727e+003, 1.054030e-001
1.087655e+003, 1.024165e-001
1.089584e+003, 9.943394e-002
1.091512e+003, 9.632415e-002
1.093441e+003, 9.328458e-002
1.095369e+003, 9.033126e-002
1.097297e+003, 8.720299e-002
1.099226e+003, 8.402423e-002
1.101154e+003, 8.104908e-002
1.103083e+003, 7.830045e-002
1.105011e+003, 7.552964e-002
1.106940e+003, 7.265397e-002
1.108868e+003, 6.997073e-002
1.110797e+003, 6.732760e-002
1.112725e+003, 6.463671e-002
1.114654e+003, 6.192828e-002
1.116582e+003, 5.916384e-002
1.118511e+003, 5.670756e-002
1.120439e+003, 5.436028e-002
1.122368e+003, 5.216965e-002
1.124296e+003, 5.016125e-002
1.126224e+003, 4.841557e-002
1.128153e+003, 4.714264e-002
1.130081e+003, 4.621402e-002
1.132010e+003, 4.570353e-002
1.133938e+003, 4.568047e-002
1.135867e+003, 4.565530e-002
1.137795e+003, 4.530751e-002
1.139724e+003, 4.447778e-002
1.141652e+003, 4.308573e-002
1.143581e+003, 4.106355e-002
1.145509e+003, 3.836453e-002
1.147438e+003, 3.544052e-002
1.149366e+003, 3.280444e-002
1.151295e+003, 3.043867e-002
1.153223e+003, 2.831146e-002
1.155151e+003, 2.635139e-002
1.157080e+003, 2.459909e-002
1.159008e+003, 2.299098e-002
1.160937e+003, 2.148363e-002
1.162865e+003, 2.000902e-002
1.164794e+003, 1.855510e-002
1.166722e+003, 1.718091e-002
1.168651e+003, 1.596094e-002
1.170579e+003, 1.485347e-002
1.172508e+003, 1.388159e-002
1.174436e+003, 1.300777e-002
1.176365e+003, 1.226587e-002
1.178293e+003, 1.157575e-002
1.180222e+003, 1.093794e-002
1.182150e+003, 1.040638e-002
1.184078e+003, 9.855007e-003
1.186007e+003, 9.361557e-003
1.187935e+003, 9.015454e-003
1.189864e+003, 8.597312e-003
1.191792e+003, 8.130481e-003
1.193721e+003, 7.767753e-003
1.195649e+003, 7.303114e-003
1.197578e+003, 6.902828e-003
1.199506e+003, 6.625104e-003
1.201435e+003, 6.304948e-003
1.203363e+003, 5.945585e-003
1.205292e+003, 5.524357e-003
1.207220e+003, 5.335772e-003
1.209149e+003, 5.195705e-003
1.211077e+003, 4.896378e-003
1.213005e+003, 4.453277e-003
1.214934e+003, 4.131963e-003
1.216862e+003, 4.039385e-003
1.218791e+003, 4.014461e-003
1.220719e+003, 3.846830e-003
1.222648e+003, 3.656269e-003
1.224576e+003, 3.342537e-003
1.226505e+003, 3.120978e-003
1.228433e+003, 3.060555e-003
1.230362e+003, 2.880856e-003
1.232290e+003, 2.693957e-003
1.234219e+003, 2.615780e-003
1.236147e+003, 2.429059e-003
1.238076e+003, 2.215002e-003
1.240004e+003, 2.117191e-003
1.241932e+003, 2.144699e-003
1.243861e+003, 2.121931e-003
1.245789e+003, 2.045836e-003
1.247718e+003, 1.990588e-003
1.249646e+003, 1.817666e-003
1.251575e+003, 1.761776e-003
1.253503e+003, 1.816463e-003
1.255432e+003, 1.778870e-003
1.257360e+003, 1.692010e-003
1.259289e+003, 1.596100e-003
1.261217e+003, 1.591138e-003
1.263146e+003, 1.578889e-003
1.265074e+003, 1.584297e-003
1.267003e+003, 1.567526e-003
1.268931e+003, 1.565793e-003
1.270859e+003, 1.618731e-003
1.272788e+003, 1.698606e-003
1.274716e+003, 1.694542e-003
1.276645e+003, 1.788942e-003
1.278573e+003, 1.813629e-003
1.280502e+003, 1.741550e-003
1.282430e+003, 1.803864e-003
1.284359e+003, 1.830756e-003
1.286287e+003, 1.862340e-003
1.288216e+003, 1.822877e-003
1.290144e+003, 1.708212e-003
1.292073e+003, 1.754408e-003
1.294001e+003, 1.807536e-003
1.295930e+003, 1.901271e-003
1.297858e+003, 1.923663e-003
1.299786e+003, 1.981723e-003
1.301715e+003, 2.027357e-003
1.303643e+003, 2.039264e-003
1.305572e+003, 2.112326e-003
1.307500e+003, 2.101158e-003
1.309429e+003, 2.080932e-003
1.311357e+003, 2.168011e-003
1.313286e+003, 2.248360e-003
1.315214e+003, 2.227224e-003
1.317143e+003, 2.233794e-003
1.319071e+003, 2.336293e-003
1.321000e+003, 2.392423e-003
1.322928e+003, 2.403638e-003
1.324857e+003, 2.373526e-003
1.326785e+003, 2.398452e-003
1.328714e+003, 2.492727e-003
1.330642e+003, 2.558758e-003
1.332570e+003, 2.551352e-003
1.334499e+003, 2.601297e-003
1.336427e+003, 2.622246e-003
1.338356e+003, 2.705120e-003
1.340284e+003, 2.726172e-003
1.342213e+003, 2.674670e-003
1.344141e+003, 2.759026e-003
1.346070e+003, 2.935823e-003
1.347998e+003, 2.931119e-003
1.349927e+003, 2.941628e-003
1.351855e+003, 2.951387e-003
1.353784e+003, 2.983662e-003
1.355712e+003, 3.061257e-003
1.357641e+003, 3.123108e-003
1.359569e+003, 3.152476e-003
1.361497e+003, 3.234711e-003
1.363426e+003, 3.232731e-003
1.365354e+003, 3.173829e-003
1.367283e+003, 3.199698e-003
1.369211e+003, 3.254137e-003
1.371140e+003, 3.310225e-003
1.373068e+003, 3.287138e-003
1.374997e+003, 3.243819e-003
1.376925e+003, 3.357439e-003
1.378854e+003, 3.371536e-003
1.380782e+003, 3.331465e-003
1.382711e+003, 3.313571e-003
1.384639e+003, 3.415470e-003
1.386568e+003, 3.519183e-003
1.388496e+003, 3.461451e-003
1.390424e+003, 3.462391e-003
1.392353e+003, 3.639059e-003
1.394281e+003, 3.821086e-003
1.396210e+003, 3.816949e-003
1.398138e+003, 3.818750e-003
1.400067e+003, 3.925400e-003
1.401995e+003, 3.971747e-003
1.403924e+003, 3.989128e-003
1.405852e+003, 3.912826e-003
1.407781e+003, 3.984512e-003
1.409709e+003, 4.169806e-003
1.411638e+003, 4.163670e-003
1.413566e+003, 4.084656e-003
1.415495e+003, 4.108578e-003
1.417423e+003, 4.371217e-003
1.419351e+003, 4.471028e-003
1.421280e+003, 4.219618e-003
1.423208e+003, 4.186634e-003
1.425137e+003, 4.300118e-003
1.427065e+003, 4.331821e-003
1.428994e+003, 4.298658e-003
1.430922e+003, 4.142191e-003
1.432851e+003, 4.067997e-003
1.434779e+003, 4.269006e-003
1.436708e+003, 4.489493e-003
1.438636e+003, 4.308670e-003
1.440565e+003, 4.125099e-003
1.442493e+003, 4.016017e-003
1.444422e+003, 4.066983e-003
1.446350e+003, 4.092513e-003
1.448278e+003, 4.039756e-003
1.450207e+003, 3.963251e-003
1.452135e+003, 3.962309e-003
1.454064e+003, 4.154239e-003
1.455992e+003, 4.544061e-003
1.457921e+003, 4.501362e-003
1.459849e+003, 4.099935e-003
1.461778e+003, 3.928749e-003
1.463706e+003, 3.993306e-003
1.465635e+003, 4.007693e-003
1.467563e+003, 3.732485e-003
1.469492e+003, 3.616322e-003
1.471420e+003, 3.910494e-003
1.473349e+003, 3.958386e-003
1.475277e+003, 3.669355e-003
1.477205e+003, 3.540844e-003
1.479134e+003, 3.490855e-003
1.481062e+003, 3.528157e-003
1.482991e+003, 3.507986e-003
1.484919e+003, 3.582586e-003
1.486848e+003, 3.719856e-003
1.488776e+003, 3.759747e-003
1.490705e+003, 3.658792e-003
1.492633e+003, 3.517108e-003
1.494562e+003, 3.624663e-003
1.496490e+003, 3.894947e-003
1.498419e+003, 3.907644e-003
1.500347e+003, 3.775097e-003
1.502276e+003, 3.590421e-003
1.504204e+003, 3.837368e-003
1.506132e+003, 4.301846e-003
1.508061e+003, 4.183468e-003
1.509989e+003, 3.876752e-003
1.511918e+003, 3.845311e-003
1.513846e+003, 3.805658e-003
1.515775e+003, 3.757963e-003
1.517703e+003, 3.794497e-003
1.519632e+003, 4.028704e-003
1.521560e+003, 4.286250e-003
1.523489e+003, 4.145822e-003
1.525417e+003, 3.995957e-003
1.527346e+003, 4.053340e-003
1.529274e+003, 4.141400e-003
1.531203e+003, 4.240147e-003
1.533131e+003, 4.295837e-003
1.535059e+003, 4.246302e-003
1.536988e+003, 4.564283e-003
1.538916e+003, 5.357141e-003
1.540845e+003, 5.506830e-003
1.542773e+003, 5.126036e-003
1.544702e+003, 4.977066e-003
1.546630e+003, 5.043363e-003
1.548559e+003, 5.140217e-003
1.550487e+003, 5.231256e-003
1.552416e+003, 5.411695e-003
1.554344e+003, 5.713877e-003
1.556273e+003, 6.019264e-003
1.558201e+003, 6.777080e-003
1.560130e+003, 6.746089e-003
1.562058e+003, 6.153637e-003
1.563986e+003, 6.025595e-003
1.565915e+003, 6.015117e-003
1.567843e+003, 6.079124e-003
1.569772e+003, 6.324943e-003
1.571700e+003, 6.227752e-003
1.573629e+003, 6.279898e-003
1.575557e+003, 6.734194e-003
1.577486e+003, 6.636290e-003
1.579414e+003, 6.239438e-003
1.581343e+003, 6.194287e-003
1.583271e+003, 6.083272e-003
1.585200e+003, 6.049505e-003
1.587128e+003, 5.977342e-003
1.589057e+003, 5.949597e-003
1.590985e+003, 6.083426e-003
1.592913e+003, 6.240965e-003
1.594842e+003, 6.228629e-003
1.596770e+003, 6.204928e-003
1.598699e+003, 6.110556e-003
1.600627e+003, 6.087695e-003
1.602556e+003, 6.036262e-003
1.604484e+003, 5.993064e-003
1.606413e+003, 5.957531e-003
1.608341e+003, 5.884388e-003
1.610270e+003, 5.869865e-003
1.612198e+003, 5.785108e-003
1.614127e+003, 5.889691e-003
1.616055e+003, 6.169298e-003
1.617984e+003, 5.924731e-003
1.619912e+003, 5.653357e-003
1.621840e+003, 5.674820e-003
1.623769e+003, 5.637093e-003
1.625697e+003, 5.506102e-003
1.627626e+003, 5.592038e-003
1.629554e+003, 5.621738e-003
1.631483e+003, 5.587470e-003
1.633411e+003, 5.779948e-003
1.635340e+003, 6.085705e-003
1.637268e+003, 5.782820e-003
1.639197e+003, 5.339405e-003
1.641125e+003, 5.284980e-003
1.643054e+003, 5.355137e-003
1.644982e+003, 5.733513e-003
1.646911e+003, 5.896970e-003
1.648839e+003, 5.422490e-003
1.650767e+003, 5.617118e-003
1.652696e+003, 6.256609e-003
1.654624e+003, 5.707433e-003
1.656553e+003, 5.046397e-003
1.658481e+003, 5.019679e-003
1.660410e+003, 5.042193e-003
1.662338e+003, 5.135413e-003
1.664267e+003, 5.014037e-003
1.666195e+003, 4.908285e-003
1.668124e+003, 4.996045e-003
1.670052e+003, 4.888446e-003
1.671981e+003, 4.613606e-003
1.673909e+003, 4.783829e-003
1.675838e+003, 4.829642e-003
1.677766e+003, 4.466570e-003
1.679694e+003, 4.448860e-003
1.681623e+003, 4.467979e-003
1.683551e+003, 4.915108e-003
1.685480e+003, 4.897352e-003
1.687408e+003, 4.443814e-003
1.689337e+003, 4.332559e-003
1.691265e+003, 4.163909e-003
1.693194e+003, 4.228242e-003
1.695122e+003, 4.820612e-003
1.697051e+003, 4.767918e-003
1.698979e+003, 4.615505e-003
1.700908e+003, 4.626532e-003
1.702836e+003, 4.026628e-003
1.704765e+003, 3.952196e-003
1.706693e+003, 4.041499e-003
1.708621e+003, 4.029272e-003
1.710550e+003, 3.973251e-003
1.712478e+003, 4.080593e-003
1.714407e+003, 4.253308e-003
1.716335e+003, 4.585034e-003
1.718264e+003, 4.475460e-003
1.720192e+003, 4.094752e-003
1.722121e+003, 4.053386e-003
1.724049e+003, 4.006413e-003
1.725978e+003, 3.950878e-003
1.727906e+003, 3.870697e-003
1.729835e+003, 3.968533e-003
1.731763e+003, 4.280768e-003
1.733692e+003, 4.364633e-003
1.735620e+003, 3.914989e-003
1.737548e+003, 3.570339e-003
1.739477e+003, 3.567301e-003
1.741405e+003, 3.557870e-003
1.743334e+003, 3.668725e-003
1.745262e+003, 3.584122e-003
1.747191e+003, 3.485608e-003
1.749119e+003, 3.289200e-003
1.751048e+003, 3.252861e-003
1.752976e+003, 3.295475e-003
1.754905e+003, 3.429348e-003
1.756833e+003, 3.552885e-003
1.758762e+003, 3.604392e-003
1.760690e+003, 3.691354e-003
1.762619e+003, 3.752384e-003
1.764547e+003, 3.790575e-003
1.766475e+003, 3.656098e-003
1.768404e+003, 3.557016e-003
1.770332e+003, 3.693743e-003
1.772261e+003, 3.940499e-003
1.774189e+003, 3.842284e-003
1.776118e+003, 3.661602e-003
1.778046e+003, 3.434292e-003
1.779975e+003, 3.297046e-003
1.781903e+003, 3.206889e-003
1.783832e+003, 3.292633e-003
1.785760e+003, 3.317117e-003
1.787689e+003, 3.152076e-003
1.789617e+003, 3.330786e-003
1.791546e+003, 3.488148e-003
1.793474e+003, 3.195420e-003
1.795402e+003, 2.820548e-003
1.797331e+003, 2.867279e-003
1.799259e+003, 2.919133e-003
1.801188e+003, 3.028901e-003
1.803116e+003, 3.035093e-003
1.805045e+003, 2.854527e-003
1.806973e+003, 2.560616e-003
1.808902e+003, 2.839593e-003
1.810830e+003, 2.881230e-003
1.812759e+003, 2.655504e-003
1.814687e+003, 2.588233e-003
1.816616e+003, 2.562551e-003
1.818544e+003, 2.512207e-003
1.820473e+003, 2.695348e-003
1.822401e+003, 2.720572e-003
1.824329e+003, 2.877177e-003
1.826258e+003, 2.794178e-003
1.828186e+003, 2.679882e-003
1.830115e+003, 2.818535e-003
1.832043e+003, 2.763829e-003
1.833972e+003, 2.698940e-003
1.835900e+003, 2.600658e-003
1.837829e+003, 2.536752e-003
1.839757e+003, 2.692994e-003
1.841686e+003, 2.760115e-003
1.843614e+003, 2.698474e-003
1.845543e+003, 2.650140e-003
1.847471e+003, 2.832155e-003
1.849400e+003, 2.767790e-003
1.851328e+003, 2.646730e-003
1.853256e+003, 2.439998e-003
1.855185e+003, 2.351545e-003
1.857113e+003, 2.295809e-003
1.859042e+003, 2.364121e-003
1.860970e+003, 2.398745e-003
1.862899e+003, 2.437771e-003
1.864827e+003, 2.453757e-003
1.866756e+003, 2.371875e-003
1.868684e+003, 2.436248e-003
1.870613e+003, 2.355352e-003
1.872541e+003, 2.394819e-003
1.874470e+003, 2.758609e-003
1.876398e+003, 2.630849e-003
1.878327e+003, 2.401992e-003
1.880255e+003, 2.394906e-003
1.882183e+003, 2.398109e-003
1.884112e+003, 2.395549e-003
1.886040e+003, 2.233286e-003
1.887969e+003, 2.315741e-003
1.889897e+003, 2.411880e-003
1.891826e+003, 2.452173e-003
1.893754e+003, 2.650058e-003
1.895683e+003, 2.280924e-003
1.897611e+003, 2.232210e-003
1.899540e+003, 2.509484e-003
1.901468e+003, 2.519433e-003
1.903397e+003, 2.216393e-003
1.905325e+003, 2.444283e-003
1.907254e+003, 2.354509e-003
1.909182e+003, 2.022206e-003
1.911110e+003, 2.096901e-003
1.913039e+003, 2.306454e-003
1.914967e+003, 2.634370e-003
1.916896e+003, 2.545341e-003
1.918824e+003, 1.880012e-003
1.920753e+003, 1.983732e-003
1.922681e+003, 2.002873e-003
1.924610e+003, 1.603690e-003
1.926538e+003, 1.735135e-003
1.928467e+003, 2.191580e-003
1.930395e+003, 2.017488e-003
1.932324e+003, 2.021798e-003
1.934252e+003, 2.174769e-003
1.936181e+003, 2.021818e-003
1.938109e+003, 1.673708e-003
1.940037e+003, 1.037397e-003
1.941966e+003, 1.102864e-003
1.943894e+003, 1.518710e-003
1.945823e+003, 1.328884e-003
1.947751e+003, 1.696546e-003
1.949680e+003, 2.224166e-003
1.951608e+003, 1.973647e-003
1.953537e+003, 9.727927e-004
1.955465e+003, 4.977428e-004
1.957394e+003, 8.920284e-004
1.959322e+003, 1.296463e-003
1.961251e+003, 8.726937e-004
1.963179e+003, 4.790754e-004
1.965108e+003, 6.998900e-004
1.967036e+003, 8.375089e-004
1.968964e+003, 2.478729e-004
1.970893e+003, 1.913465e-004
1.972821e+003, 4.028114e-004
1.974750e+003, 1.323784e-003
1.976678e+003, 2.220450e-003
1.978607e+003, 2.259834e-003
1.980535e+003, 1.535103e-003
1.982464e+003, 1.240600e-003
1.984392e+003, 1.688758e-003
1.986321e+003, 1.976005e-003
1.988249e+003, 1.164905e-003
1.990178e+003, 6.551903e-004
1.992106e+003, 6.499075e-004
1.994035e+003, 8.803282e-004
1.995963e+003, 1.517517e-003
1.997891e+003, 2.927989e-003
1.999820e+003, 2.949443e-003
2.001748e+003, 1.893469e-003
2.003677e+003, 1.627395e-003
2.005605e+003, 1.695817e-003
2.007534e+003, 2.558768e-003
2.009462e+003, 2.794850e-003
2.011391e+003, 2.265356e-003
2.013319e+003, 2.074737e-003
2.015248e+003, 1.726698e-003
2.017176e+003, 1.896178e-003
2.019105e+003, 2.521117e-003
2.021033e+003, 1.496275e-003
2.022962e+003, 7.991843e-004
2.024890e+003, 2.203180e-003
2.026818e+003, 2.799363e-003
2.028747e+003, 2.972028e-003
2.030675e+003, 3.025234e-003
2.032604e+003, 2.938142e-003
2.034532e+003, 2.506693e-003
2.036461e+003, 2.665936e-003
2.038389e+003, 2.453852e-003
2.040318e+003, 2.205283e-003
2.042246e+003, 1.923673e-003
2.044175e+003, 2.254270e-003
2.046103e+003, 2.254004e-003
2.048031e+003, 2.089041e-003
2.049960e+003, 2.455058e-003
2.051888e+003, 2.264613e-003
2.053817e+003, 2.488258e-003
2.055745e+003, 3.000342e-003
2.057674e+003, 3.044232e-003
2.059602e+003, 2.761852e-003
2.061531e+003, 2.763153e-003
2.063459e+003, 2.457737e-003
2.065388e+003, 1.932464e-003
2.067316e+003, 1.929342e-003
2.069245e+003, 2.027621e-003
2.071173e+003, 1.974714e-003
2.073102e+003, 1.877006e-003
2.075030e+003, 2.329791e-003
2.076958e+003, 2.655896e-003
2.078887e+003, 2.652076e-003
2.080815e+003, 2.202100e-003
2.082744e+003, 2.018415e-003
2.084672e+003, 2.297811e-003
2.086601e+003, 2.016197e-003
2.088529e+003, 1.778441e-003
2.090458e+003, 2.024307e-003
2.092386e+003, 1.881350e-003
2.094315e+003, 1.622995e-003
2.096243e+003, 1.880093e-003
2.098172e+003, 2.816368e-003
2.100100e+003, 2.656942e-003
2.102029e+003, 2.243620e-003
2.103957e+003, 2.234980e-003
2.105885e+003, 2.315818e-003
2.107814e+003, 2.129927e-003
2.109742e+003, 2.191192e-003
2.111671e+003, 2.770453e-003
2.113599e+003, 2.724317e-003
2.115528e+003, 2.190295e-003
2.117456e+003, 1.898291e-003
2.119385e+003, 2.152123e-003
2.121313e+003, 2.104842e-003
2.123242e+003, 2.042559e-003
2.125170e+003, 2.113888e-003
2.127099e+003, 1.489967e-003
2.129027e+003, 1.587557e-003
2.130956e+003, 1.884395e-003
2.132884e+003, 1.370511e-003
2.134813e+003, 1.768272e-003
2.136741e+003, 1.917442e-003
2.138669e+003, 1.580220e-003
2.140598e+003, 2.107026e-003
2.142526e+003, 2.933922e-003
2.144455e+003, 2.435575e-003
2.146383e+003, 1.936825e-003
2.148312e+003, 1.632844e-003
2.150240e+003, 1.141639e-003
2.152169e+003, 9.330262e-004
2.154097e+003, 9.142936e-004
2.156026e+003, 1.758881e-003
2.157954e+003, 1.674421e-003
2.159883e+003, 1.876537e-003
2.161811e+003, 2.363231e-003
2.163740e+003, 2.320888e-003
2.165668e+003, 2.412581e-003
2.167596e+003, 2.592989e-003
2.169525e+003, 2.663638e-003
2.171453e+003, 2.455584e-003
2.173382e+003, 2.707408e-003
2.175310e+003, 3.476335e-003
2.177239e+003, 3.699165e-003
2.179167e+003, 3.350991e-003
2.181096e+003, 2.687689e-003
2.183024e+003, 2.978837e-003
2.184953e+003, 4.386683e-003
2.186881e+003, 4.888662e-003
2.188810e+003, 4.558508e-003
2.190738e+003, 4.224681e-003
2.192667e+003, 3.784179e-003
2.194595e+003, 4.381779e-003
2.196523e+003, 4.385299e-003
2.198452e+003, 4.202607e-003
2.200380e+003, 4.403745e-003
2.202309e+003, 4.892302e-003
2.204237e+003, 4.728489e-003
2.206166e+003, 4.626747e-003
2.208094e+003, 4.875882e-003
2.210023e+003, 5.227122e-003
2.211951e+003, 5.099431e-003
2.213880e+003, 4.888024e-003
2.215808e+003, 5.178948e-003
2.217737e+003, 6.190874e-003
2.219665e+003, 6.546048e-003
2.221594e+003, 5.917980e-003
2.223522e+003, 5.090489e-003
2.225450e+003, 5.531372e-003
2.227379e+003, 5.830619e-003
2.229307e+003, 5.716437e-003
2.231236e+003, 5.348184e-003
2.233164e+003, 4.918792e-003
2.235093e+003, 4.941345e-003
2.237021e+003, 5.143695e-003
2.238950e+003, 5.339655e-003
2.240878e+003, 5.471250e-003
2.242807e+003, 5.599830e-003
2.244735e+003, 5.561048e-003
2.246664e+003, 5.276291e-003
2.248592e+003, 5.268325e-003
2.250521e+003, 5.612343e-003
2.252449e+003, 6.274084e-003
2.254377e+003, 6.736171e-003
2.256306e+003, 6.080863e-003
2.258234e+003, 6.098903e-003
2.260163e+003, 6.650285e-003
2.262091e+003, 6.206998e-003
2.264020e+003, 5.758643e-003
2.265948e+003, 5.837389e-003
2.267877e+003, 5.542247e-003
2.269805e+003, 5.252761e-003
2.271734e+003, 6.034709e-003
2.273662e+003, 6.474356e-003
2.275591e+003, 6.002977e-003
2.277519e+003, 5.947053e-003
2.279448e+003, 6.442245e-003
2.281376e+003, 6.195651e-003
2.283304e+003, 6.014352e-003
2.285233e+003, 5.907708e-003
2.287161e+003, 5.922384e-003
2.289090e+003, 5.939484e-003
2.291018e+003, 5.824872e-003
2.292947e+003, 5.787618e-003
2.294875e+003, 5.905679e-003
2.296804e+003, 5.937050e-003
2.298732e+003, 5.999732e-003
2.300661e+003, 6.140545e-003
2.302589e+003, 6.448061e-003
2.304518e+003, 6.035919e-003
2.306446e+003, 5.369988e-003
2.308375e+003, 5.495558e-003
2.310303e+003, 6.170673e-003
2.312231e+003, 6.464188e-003
2.314160e+003, 6.469156e-003
2.316088e+003, 6.372098e-003
2.318017e+003, 6.508339e-003
2.319945e+003, 7.035893e-003
2.321874e+003, 7.365899e-003
2.323802e+003, 7.345151e-003
2.325731e+003, 7.015855e-003
2.327659e+003, 6.948803e-003
2.329588e+003, 7.156492e-003
2.331516e+003, 7.228673e-003
2.333445e+003, 7.175527e-003
2.335373e+003, 7.193774e-003
2.337302e+003, 7.321916e-003
2.339230e+003, 7.200295e-003
2.341158e+003, 7.060057e-003
2.343087e+003, 6.903633e-003
2.345015e+003, 6.592059e-003
2.346944e+003, 6.279007e-003
2.348872e+003, 6.072965e-003
2.350801e+003, 6.238218e-003
2.352729e+003, 6.772143e-003
2.354658e+003, 7.249763e-003
2.356586e+003, 7.734815e-003
2.358515e+003, 8.163053e-003
2.360443e+003, 8.065563e-003
2.362372e+003, 7.916773e-003
2.364300e+003, 7.982103e-003
2.366229e+003, 7.838057e-003
2.368157e+003, 7.395589e-003
2.370085e+003, 6.893548e-003
2.372014e+003, 6.771185e-003
2.373942e+003, 6.804181e-003
2.375871e+003, 6.677500e-003
2.377799e+003, 6.341746e-003
2.379728e+003, 6.132065e-003
2.381656e+003, 6.049548e-003
2.383585e+003, 5.952100e-003
2.385513e+003, 5.913076e-003
2.387442e+003, 5.983396e-003
2.389370e+003, 6.088436e-003
2.391299e+003, 6.307789e-003
2.393227e+003, 6.134307e-003
2.395156e+003, 5.795724e-003
2.397084e+003, 5.793113e-003
2.399012e+003, 6.277891e-003
2.400941e+003, 6.312561e-003
2.402869e+003, 6.182590e-003
2.404798e+003, 6.083901e-003
2.406726e+003, 6.146768e-003
2.408655e+003, 6.069877e-003
2.410583e+003, 6.026604e-003
2.412512e+003, 6.301014e-003
2.414440e+003, 6.701350e-003
2.416369e+003, 6.605330e-003
2.418297e+003, 6.467871e-003
2.420226e+003, 6.727692e-003
2.422154e+003, 6.972639e-003
2.424083e+003, 6.936307e-003
2.426011e+003, 6.770285e-003
2.427939e+003, 6.806511e-003
2.429868e+003, 7.232997e-003
2.431796e+003, 7.204259e-003
2.433725e+003, 6.955447e-003
2.435653e+003, 7.081076e-003
2.437582e+003, 7.084870e-003
2.439510e+003, 7.242216e-003
2.441439e+003, 7.311438e-003
2.443367e+003, 7.328677e-003
2.445296e+003, 7.301223e-003
2.447224e+003, 7.080986e-003
2.449153e+003, 7.290293e-003
2.451081e+003, 7.478854e-003
2.453010e+003, 7.217342e-003
2.454938e+003, 6.804997e-003
2.456866e+003, 6.762225e-003
2.458795e+003, 7.023735e-003
2.460723e+003, 7.176541e-003
2.462652e+003, 7.185264e-003
2.464580e+003, 7.489485e-003
2.466509e+003, 7.462069e-003
2.468437e+003, 7.175203e-003
2.470366e+003, 7.180122e-003
2.472294e+003, 7.318800e-003
2.474223e+003, 7.326130e-003
2.476151e+003, 7.404424e-003
2.478080e+003, 7.325253e-003
2.480008e+003, 7.202781e-003
2.481937e+003, 6.969948e-003
2.483865e+003, 7.141510e-003
2.485793e+003, 7.096944e-003
2.487722e+003, 7.287875e-003
2.489650e+003, 7.063066e-003
2.491579e+003, 6.723380e-003
2.493507e+003, 6.957029e-003
2.495436e+003, 7.178091e-003
2.497364e+003, 7.061088e-003
2.499293e+003, 6.877733e-003
2.501221e+003, 6.996609e-003
2.503150e+003, 7.180457e-003
2.505078e+003, 7.086365e-003
2.507007e+003, 7.105922e-003
2.508935e+003, 7.348009e-003
2.510864e+003, 7.169465e-003
2.512792e+003, 7.253299e-003
2.514720e+003, 7.446827e-003
2.516649e+003, 7.376444e-003
2.518577e+003, 7.486166e-003
2.520506e+003, 7.694200e-003
2.522434e+003, 7.277031e-003
2.524363e+003, 6.720352e-003
2.526291e+003, 6.742296e-003
2.528220e+003, 7.133422e-003
2.530148e+003, 7.235701e-003
2.532077e+003, 6.902256e-003
2.534005e+003, 7.115262e-003
2.535934e+003, 7.360338e-003
2.537862e+003, 7.289808e-003
2.539791e+003, 7.195451e-003
2.541719e+003, 6.978989e-003
2.543647e+003, 7.198003e-003
2.545576e+003, 7.644634e-003
2.547504e+003, 7.553935e-003
2.549433e+003, 7.738835e-003
2.551361e+003, 7.822045e-003
2.553290e+003, 7.594675e-003
2.555218e+003, 7.342548e-003
2.557147e+003, 7.313087e-003
2.559075e+003, 7.242786e-003
2.561004e+003, 7.349602e-003
2.562932e+003, 7.386646e-003
2.564861e+003, 7.452233e-003
2.566789e+003, 7.510293e-003
2.568718e+003, 7.694406e-003
2.570646e+003, 7.642174e-003
2.572574e+003, 7.424504e-003
2.574503e+003, 7.552923e-003
2.576431e+003, 7.912702e-003
2.578360e+003, 8.172345e-003
2.580288e+003, 8.013861e-003
2.582217e+003, 7.757978e-003
2.584145e+003, 7.966106e-003
2.586074e+003, 8.263482e-003
2.588002e+003, 7.976041e-003
2.589931e+003, 7.816640e-003
2.591859e+003, 7.959679e-003
2.593788e+003, 8.023472e-003
2.595716e+003, 8.104772e-003
2.597645e+003, 8.272188e-003
2.599573e+003, 8.246633e-003
2.601501e+003, 7.930022e-003
2.603430e+003, 7.938392e-003
2.605358e+003, 8.087606e-003
2.607287e+003, 8.409355e-003
2.609215e+003, 8.569545e-003
2.611144e+003, 8.442137e-003
2.613072e+003, 8.365657e-003
2.615001e+003, 8.457166e-003
2.616929e+003, 8.296189e-003
2.618858e+003, 8.241441e-003
2.620786e+003, 8.333636e-003
2.622715e+003, 8.520346e-003
2.624643e+003, 8.606313e-003
2.626572e+003, 8.215806e-003
2.628500e+003, 8.004988e-003
2.630428e+003, 7.965717e-003
2.632357e+003, 8.122079e-003
2.634285e+003, 8.177400e-003
2.636214e+003, 8.132161e-003
2.638142e+003, 8.361886e-003
2.640071e+003, 8.361892e-003
2.641999e+003, 8.243999e-003
2.643928e+003, 8.157784e-003
2.645856e+003, 8.392488e-003
2.647785e+003, 8.514705e-003
2.649713e+003, 8.380524e-003
2.651642e+003, 8.157222e-003
2.653570e+003, 8.094594e-003
2.655499e+003, 8.493568e-003
2.657427e+003, 8.848799e-003
2.659355e+003, 8.697599e-003
2.661284e+003, 8.598777e-003
2.663212e+003, 8.518490e-003
2.665141e+003, 8.434692e-003
2.667069e+003, 8.561214e-003
2.668998e+003, 8.647912e-003
2.670926e+003, 8.512734e-003
2.672855e+003, 8.521799e-003
2.674783e+003, 8.570590e-003
2.676712e+003, 8.547707e-003
2.678640e+003, 8.562148e-003
2.680569e+003, 8.702412e-003
2.682497e+003, 8.698254e-003
2.684426e+003, 8.748122e-003
2.686354e+003, 8.843346e-003
2.688282e+003, 8.734165e-003
2.690211e+003, 8.753068e-003
2.692139e+003, 8.963244e-003
2.694068e+003, 9.012365e-003
2.695996e+003, 8.702142e-003
2.697925e+003, 8.513832e-003
2.699853e+003, 8.478892e-003
2.701782e+003, 8.516567e-003
2.703710e+003, 8.574146e-003
2.705639e+003, 8.664125e-003
2.707567e+003, 8.912324e-003
2.709496e+003, 8.903805e-003
2.711424e+003, 8.951575e-003
2.713353e+003, 9.045157e-003
2.715281e+003, 9.060988e-003
2.717209e+003, 8.900837e-003
2.719138e+003, 8.919831e-003
2.721066e+003, 9.073850e-003
2.722995e+003, 8.994062e-003
2.724923e+003, 8.894697e-003
2.726852e+003, 9.025772e-003
2.728780e+003, 9.301103e-003
2.730709e+003, 9.473904e-003
2.732637e+003, 9.251959e-003
2.734566e+003, 9.153363e-003
2.736494e+003, 9.295114e-003
2.738423e+003, 9.230496e-003
2.740351e+003, 9.143274e-003
2.742280e+003, 9.313499e-003
2.744208e+003, 9.493141e-003
2.746136e+003, 9.512712e-003
2.748065e+003, 9.396661e-003
2.749993e+003, 9.515730e-003
2.751922e+003, 9.811286e-003
2.753850e+003, 9.788968e-003
2.755779e+003, 9.718838e-003
2.757707e+003, 9.751591e-003
2.759636e+003, 9.812585e-003
2.761564e+003, 9.842018e-003
2.763493e+003, 9.722667e-003
2.765421e+003, 9.834372e-003
2.767350e+003, 9.885759e-003
2.769278e+003, 9.813526e-003
2.771207e+003, 9.987161e-003
2.773135e+003, 1.019737e-002
2.775063e+003, 1.019016e-002
2.776992e+003, 9.985470e-003
2.778920e+003, 9.800122e-003
2.780849e+003, 9.989621e-003
2.782777e+003, 1.019828e-002
2.784706e+003, 1.031355e-002
2.786634e+003, 1.024244e-002
2.788563e+003, 1.030000e-002
2.790491e+003, 1.036986e-002
2.792420e+003, 1.026204e-002
2.794348e+003, 1.007032e-002
2.796277e+003, 1.003997e-002
2.798205e+003, 1.023590e-002
2.800134e+003, 1.043559e-002
2.802062e+003, 1.048265e-002
2.803990e+003, 1.057717e-002
2.805919e+003, 1.048099e-002
2.807847e+003, 1.036055e-002
2.809776e+003, 1.049102e-002
2.811704e+003, 1.064130e-002
2.813633e+003, 1.070717e-002
2.815561e+003, 1.077848e-002
2.817490e+003, 1.066350e-002
2.819418e+003, 1.054064e-002
2.821347e+003, 1.057309e-002
2.823275e+003, 1.067352e-002
2.825204e+003, 1.069486e-002
2.827132e+003, 1.093394e-002
2.829061e+003, 1.091480e-002
2.830989e+003, 1.104742e-002
2.832917e+003, 1.136931e-002
2.834846e+003, 1.147941e-002
2.836774e+003, 1.166224e-002
2.838703e+003, 1.160663e-002
2.840631e+003, 1.146457e-002
2.842560e+003, 1.157947e-002
2.844488e+003, 1.196276e-002
2.846417e+003, 1.206827e-002
2.848345e+003, 1.192023e-002
2.850274e+003, 1.184503e-002
2.852202e+003, 1.211763e-002
2.854131e+003, 1.240266e-002
2.856059e+003, 1.211771e-002
2.857988e+003, 1.200940e-002
2.859916e+003, 1.221612e-002
2.861844e+003, 1.210875e-002
2.863773e+003, 1.184001e-002
2.865701e+003, 1.187403e-002
2.867630e+003, 1.167060e-002
2.869558e+003, 1.172747e-002
2.871487e+003, 1.191138e-002
2.873415e+003, 1.170867e-002
2.875344e+003, 1.150033e-002
2.877272e+003, 1.167814e-002
2.879201e+003, 1.161738e-002
2.881129e+003, 1.166252e-002
2.883058e+003, 1.173288e-002
2.884986e+003, 1.173269e-002
2.886915e+003, 1.186951e-002
2.888843e+003, 1.235678e-002
2.890771e+003, 1.262417e-002
2.892700e+003, 1.248745e-002
2.894628e+003, 1.250399e-002
2.896557e+003, 1.280351e-002
2.898485e+003, 1.289001e-002
2.900414e+003, 1.296119e-002
2.902342e+003, 1.305839e-002
2.904271e+003, 1.308610e-002
2.906199e+003, 1.316997e-002
2.908128e+003, 1.368734e-002
2.910056e+003, 1.358060e-002
2.911985e+003, 1.318695e-002
2.913913e+003, 1.333674e-002
2.915842e+003, 1.360712e-002
2.917770e+003, 1.411516e-002
2.919698e+003, 1.449175e-002
2.921627e+003, 1.439663e-002
2.923555e+003, 1.441570e-002
2.925484e+003, 1.456627e-002
2.927412e+003, 1.498888e-002
2.929341e+003, 1.490032e-002
2.931269e+003, 1.415701e-002
2.933198e+003, 1.363798e-002
2.935126e+003, 1.349005e-002
2.937055e+003, 1.338765e-002
2.938983e+003, 1.311285e-002
2.940912e+003, 1.294463e-002
2.942840e+003, 1.312035e-002
2.944769e+003, 1.336741e-002
2.946697e+003, 1.355600e-002
2.948625e+003, 1.331803e-002
2.950554e+003, 1.330557e-002
2.952482e+003, 1.353637e-002
2.954411e+003, 1.346367e-002
2.956339e+003, 1.328922e-002
2.958268e+003, 1.345574e-002
2.960196e+003, 1.348530e-002
2.962125e+003, 1.361268e-002
2.964053e+003, 1.356068e-002
2.965982e+003, 1.326234e-002
2.967910e+003, 1.322295e-002
2.969839e+003, 1.328440e-002
2.971767e+003, 1.291472e-002
2.973696e+003, 1.277121e-002
2.975624e+003, 1.258661e-002
2.977552e+003, 1.274867e-002
2.979481e+003, 1.290576e-002
2.981409e+003, 1.271436e-002
2.983338e+003, 1.260576e-002
2.985266e+003, 1.265604e-002
2.987195e+003, 1.243982e-002
2.989123e+003, 1.245253e-002
2.991052e+003, 1.269220e-002
2.992980e+003, 1.289014e-002
2.994909e+003, 1.274109e-002
2.996837e+003, 1.277333e-002
2.998766e+003, 1.282387e-002
3.000694e+003, 1.284243e-002
3.002623e+003, 1.282544e-002
3.004551e+003, 1.293590e-002
3.006479e+003, 1.279257e-002
3.008408e+003, 1.278796e-002
3.010336e+003, 1.284388e-002
3.012265e+003, 1.266593e-002
3.014193e+003, 1.248414e-002
3.016122e+003, 1.257565e-002
3.018050e+003, 1.261738e-002
3.019979e+003, 1.280790e-002
3.021907e+003, 1.291180e-002
3.023836e+003, 1.292346e-002
3.025764e+003, 1.297238e-002
3.027693e+003, 1.279442e-002
3.029621e+003, 1.256365e-002
3.031550e+003, 1.245064e-002
3.033478e+003, 1.281016e-002
3.035406e+003, 1.273196e-002
3.037335e+003, 1.288534e-002
3.039263e+003, 1.283299e-002
3.041192e+003, 1.266743e-002
3.043120e+003, 1.308821e-002
3.045049e+003, 1.333994e-002
3.046977e+003, 1.312728e-002
3.048906e+003, 1.293153e-002
3.050834e+003, 1.326739e-002
3.052763e+003, 1.350207e-002
3.054691e+003, 1.356364e-002
3.056620e+003, 1.335232e-002
3.058548e+003, 1.325866e-002
3.060477e+003, 1.341715e-002
3.062405e+003, 1.347397e-002
3.064333e+003, 1.338622e-002
3.066262e+003, 1.341484e-002
3.068190e+003, 1.300968e-002
3.070119e+003, 1.304177e-002
3.072047e+003, 1.359925e-002
3.073976e+003, 1.363873e-002
3.075904e+003, 1.368516e-002
3.077833e+003, 1.388175e-002
3.079761e+003, 1.408872e-002
3.081690e+003, 1.409906e-002
3.083618e+003, 1.399243e-002
3.085547e+003, 1.369157e-002
3.087475e+003, 1.360575e-002
3.089404e+003, 1.358361e-002
3.091332e+003, 1.333663e-002
3.093260e+003, 1.335414e-002
3.095189e+003, 1.369798e-002
3.097117e+003, 1.396237e-002
3.099046e+003, 1.396087e-002
3.100974e+003, 1.384745e-002
3.102903e+003, 1.384221e-002
3.104831e+003, 1.375300e-002
3.106760e+003, 1.368186e-002
3.108688e+003, 1.416998e-002
3.110617e+003, 1.472858e-002
3.112545e+003, 1.498741e-002
3.114474e+003, 1.454546e-002
3.116402e+003, 1.429082e-002
3.118331e+003, 1.452020e-002
3.120259e+003, 1.505269e-002
3.122188e+003, 1.514105e-002
3.124116e+003, 1.509438e-002
3.126044e+003, 1.464092e-002
3.127973e+003, 1.443539e-002
3.129901e+003, 1.457361e-002
3.131830e+003, 1.466889e-002
3.133758e+003, 1.482380e-002
3.135687e+003, 1.499056e-002
3.137615e+003, 1.523996e-002
3.139544e+003, 1.528433e-002
3.141472e+003, 1.500910e-002
3.143401e+003, 1.509706e-002
3.145329e+003, 1.496173e-002
3.147258e+003, 1.492638e-002
3.149186e+003, 1.501906e-002
3.151115e+003, 1.489006e-002
3.153043e+003, 1.493780e-002
3.154971e+003, 1.495505e-002
3.156900e+003, 1.495772e-002
3.158828e+003, 1.517942e-002
3.160757e+003, 1.517087e-002
3.162685e+003, 1.523499e-002
3.164614e+003, 1.501336e-002
3.166542e+003, 1.509991e-002
3.168471e+003, 1.529984e-002
3.170399e+003, 1.513823e-002
3.172328e+003, 1.521182e-002
3.174256e+003, 1.535153e-002
3.176185e+003, 1.537828e-002
3.178113e+003, 1.555820e-002
3.180042e+003, 1.575549e-002
3.181970e+003, 1.630878e-002
3.183898e+003, 1.662023e-002
3.185827e+003, 1.623280e-002
3.187755e+003, 1.551159e-002
3.189684e+003, 1.579320e-002
3.191612e+003, 1.588263e-002
3.193541e+003, 1.579523e-002
3.195469e+003, 1.547763e-002
3.197398e+003, 1.576712e-002
3.199326e+003, 1.601153e-002
3.201255e+003, 1.597191e-002
3.203183e+003, 1.633831e-002
3.205112e+003, 1.622037e-002
3.207040e+003, 1.633525e-002
3.208969e+003, 1.653924e-002
3.210897e+003, 1.588979e-002
3.212825e+003, 1.552445e-002
3.214754e+003, 1.555561e-002
3.216682e+003, 1.585281e-002
3.218611e+003, 1.603542e-002
3.220539e+003, 1.591700e-002
3.222468e+003, 1.587510e-002
3.224396e+003, 1.643544e-002
3.226325e+003, 1.661637e-002
3.228253e+003, 1.599148e-002
3.230182e+003, 1.570540e-002
3.232110e+003, 1.574497e-002
3.234039e+003, 1.559873e-002
3.235967e+003, 1.580817e-002
3.237896e+003, 1.585781e-002
3.239824e+003, 1.584357e-002
3.241752e+003, 1.609176e-002
3.243681e+003, 1.594163e-002
3.245609e+003, 1.580992e-002
3.247538e+003, 1.612520e-002
3.249466e+003, 1.590367e-002
3.251395e+003, 1.613689e-002
3.253323e+003, 1.626769e-002
3.255252e+003, 1.596977e-002
3.257180e+003, 1.591186e-002
3.259109e+003, 1.614887e-002
3.261037e+003, 1.652096e-002
3.262966e+003, 1.639683e-002
3.264894e+003, 1.643987e-002
3.266823e+003, 1.653498e-002
3.268751e+003, 1.660225e-002
3.270679e+003, 1.673932e-002
3.272608e+003, 1.674390e-002
3.274536e+003, 1.688286e-002
3.276465e+003, 1.697210e-002
3.278393e+003, 1.636308e-002
3.280322e+003, 1.591604e-002
3.282250e+003, 1.579935e-002
3.284179e+003, 1.575766e-002
3.286107e+003, 1.604434e-002
3.288036e+003, 1.677425e-002
3.289964e+003, 1.649898e-002
3.291893e+003, 1.610517e-002
3.293821e+003, 1.636372e-002
3.295750e+003, 1.652859e-002
3.297678e+003, 1.636471e-002
3.299606e+003, 1.588124e-002
3.301535e+003, 1.550220e-002
3.303463e+003, 1.555638e-002
3.305392e+003, 1.574724e-002
3.307320e+003, 1.604516e-002
3.309249e+003, 1.647312e-002
3.311177e+003, 1.610887e-002
3.313106e+003, 1.567780e-002
3.315034e+003, 1.593455e-002
3.316963e+003, 1.624742e-002
3.318891e+003, 1.643758e-002
3.320820e+003, 1.654194e-002
3.322748e+003, 1.653816e-002
3.324677e+003, 1.665772e-002
3.326605e+003, 1.653099e-002
3.328533e+003, 1.670723e-002
3.330462e+003, 1.701241e-002
3.332390e+003, 1.680842e-002
3.334319e+003, 1.682796e-002
3.336247e+003, 1.669497e-002
3.338176e+003, 1.623117e-002
3.340104e+003, 1.594341e-002
3.342033e+003, 1.618358e-002
3.343961e+003, 1.653904e-002
3.345890e+003, 1.667269e-002
3.347818e+003, 1.708908e-002
3.349747e+003, 1.686510e-002
3.351675e+003, 1.638526e-002
3.353604e+003, 1.666203e-002
3.355532e+003, 1.678720e-002
3.357460e+003, 1.662117e-002
3.359389e+003, 1.699101e-002
3.361317e+003, 1.691027e-002
3.363246e+003, 1.700495e-002
3.365174e+003, 1.713358e-002
3.367103e+003, 1.683016e-002
3.369031e+003, 1.674922e-002
3.370960e+003, 1.705901e-002
3.372888e+003, 1.734329e-002
3.374817e+003, 1.718935e-002
3.376745e+003, 1.680469e-002
3.378674e+003, 1.668597e-002
3.380602e+003, 1.659566e-002
3.382531e+003, 1.695347e-002
3.384459e+003, 1.705284e-002
3.386387e+003, 1.684314e-002
3.388316e+003, 1.705793e-002
3.390244e+003, 1.736890e-002
3.392173e+003, 1.719089e-002
3.394101e+003, 1.689916e-002
3.396030e+003, 1.660248e-002
3.397958e+003, 1.617666e-002
3.399887e+003, 1.624277e-002
3.401815e+003, 1.630871e-002
3.403744e+003, 1.642547e-002
3.405672e+003, 1.654441e-002
3.407601e+003, 1.661324e-002
3.409529e+003, 1.665804e-002
3.411458e+003, 1.688328e-002
3.413386e+003, 1.680380e-002
3.415314e+003, 1.642762e-002
3.417243e+003, 1.646389e-002
3.419171e+003, 1.657111e-002
3.421100e+003, 1.663408e-002
3.423028e+003, 1.660100e-002
3.424957e+003, 1.643820e-002
3.426885e+003, 1.632104e-002
3.428814e+003, 1.654800e-002
3.430742e+003, 1.627006e-002
3.432671e+003, 1.630851e-002
3.434599e+003, 1.660151e-002
3.436528e+003, 1.645953e-002
3.438456e+003, 1.622662e-002
3.440385e+003, 1.634023e-002
3.442313e+003, 1.610147e-002
3.444241e+003, 1.629055e-002
3.446170e+003, 1.658919e-002
3.448098e+003, 1.651146e-002
3.450027e+003, 1.634004e-002
3.451955e+003, 1.586277e-002
3.453884e+003, 1.558342e-002
3.455812e+003, 1.602060e-002
3.457741e+003, 1.559024e-002
3.459669e+003, 1.511935e-002
3.461598e+003, 1.559206e-002
3.463526e+003, 1.632168e-002
3.465455e+003, 1.600077e-002
3.467383e+003, 1.553807e-002
3.469312e+003, 1.602051e-002
3.471240e+003, 1.646840e-002
3.473168e+003, 1.608586e-002
3.475097e+003, 1.592509e-002
3.477025e+003, 1.601786e-002
3.478954e+003, 1.601856e-002
3.480882e+003, 1.650926e-002
3.482811e+003, 1.656108e-002
3.484739e+003, 1.615542e-002
3.486668e+003, 1.621373e-002
3.488596e+003, 1.621998e-002
3.490525e+003, 1.590831e-002
3.492453e+003, 1.592760e-002
3.494382e+003, 1.605748e-002
3.496310e+003, 1.564876e-002
3.498239e+003, 1.546626e-002
3.500167e+003, 1.567618e-002
3.502095e+003, 1.563438e-002
3.504024e+003, 1.569775e-002
3.505952e+003, 1.568348e-002
3.507881e+003, 1.554941e-002
3.509809e+003, 1.554313e-002
3.511738e+003, 1.510256e-002
3.513666e+003, 1.524876e-002
3.515595e+003, 1.590010e-002
3.517523e+003, 1.603023e-002
3.519452e+003, 1.576209e-002
3.521380e+003, 1.570859e-002
3.523309e+003, 1.578015e-002
3.525237e+003, 1.556774e-002
3.527166e+003, 1.525030e-002
3.529094e+003, 1.472701e-002
3.531022e+003, 1.491436e-002
3.532951e+003, 1.484837e-002
3.534879e+003, 1.501636e-002
3.536808e+003, 1.519814e-002
3.538736e+003, 1.511902e-002
3.540665e+003, 1.503341e-002
3.542593e+003, 1.466373e-002
3.544522e+003, 1.447003e-002
3.546450e+003, 1.439603e-002
3.548379e+003, 1.439198e-002
3.550307e+003, 1.436451e-002
3.552236e+003, 1.416749e-002
3.554164e+003, 1.419846e-002
3.556093e+003, 1.447182e-002
3.558021e+003, 1.437231e-002
3.559949e+003, 1.478647e-002
3.561878e+003, 1.460133e-002
3.563806e+003, 1.403977e-002
3.565735e+003, 1.408693e-002
3.567663e+003, 1.424842e-002
3.569592e+003, 1.431101e-002
3.571520e+003, 1.394278e-002
3.573449e+003, 1.372451e-002
3.575377e+003, 1.439883e-002
3.577306e+003, 1.454068e-002
3.579234e+003, 1.408542e-002
3.581163e+003, 1.376674e-002
3.583091e+003, 1.364178e-002
3.585020e+003, 1.379746e-002
3.586948e+003, 1.403474e-002
3.588876e+003, 1.349593e-002
3.590805e+003, 1.299751e-002
3.592733e+003, 1.362495e-002
3.594662e+003, 1.390235e-002
3.596590e+003, 1.266478e-002
3.598519e+003, 1.164800e-002
3.600447e+003, 1.235712e-002
3.602376e+003, 1.267198e-002
3.604304e+003, 1.221059e-002
3.606233e+003, 1.261732e-002
3.608161e+003, 1.282581e-002
3.610090e+003, 1.268070e-002
3.612018e+003, 1.339378e-002
3.613947e+003, 1.362544e-002
3.615875e+003, 1.308508e-002
3.617803e+003, 1.306254e-002
3.619732e+003, 1.285412e-002
3.621660e+003, 1.229169e-002
3.623589e+003, 1.183520e-002
3.625517e+003, 1.167277e-002
3.627446e+003, 1.278037e-002
3.629374e+003, 1.298319e-002
3.631303e+003, 1.189620e-002
3.633231e+003, 1.189679e-002
3.635160e+003, 1.155131e-002
3.637088e+003, 1.127459e-002
3.639017e+003, 1.097528e-002
3.640945e+003, 1.077494e-002
3.642874e+003, 1.146339e-002
3.644802e+003, 1.175046e-002
3.646730e+003, 1.252496e-002
3.648659e+003, 1.251219e-002
3.650587e+003, 1.228716e-002
3.652516e+003, 1.173758e-002
3.654444e+003, 1.133747e-002
3.656373e+003, 1.160238e-002
3.658301e+003, 1.157722e-002
3.660230e+003, 1.159613e-002
3.662158e+003, 1.174645e-002
3.664087e+003, 1.119831e-002
3.666015e+003, 1.120944e-002
3.667944e+003, 1.181710e-002
3.669872e+003, 1.198084e-002
3.671801e+003, 1.151330e-002
3.673729e+003, 1.177781e-002
3.675657e+003, 1.189770e-002
3.677586e+003, 1.133244e-002
3.679514e+003, 1.093716e-002
3.681443e+003, 1.022601e-002
3.683371e+003, 9.753381e-003
3.685300e+003, 9.822225e-003
3.687228e+003, 1.135085e-002
3.689157e+003, 1.222895e-002
3.691085e+003, 1.111735e-002
3.693014e+003, 1.023808e-002
3.694942e+003, 9.971376e-003
3.696871e+003, 1.042971e-002
3.698799e+003, 1.101808e-002
3.700728e+003, 1.129928e-002
3.702656e+003, 1.088242e-002
3.704584e+003, 1.017504e-002
3.706513e+003, 1.010777e-002
3.708441e+003, 1.102282e-002
3.710370e+003, 1.200499e-002
3.712298e+003, 1.159785e-002
3.714227e+003, 1.072055e-002
3.716155e+003, 1.074257e-002
3.718084e+003, 1.050942e-002
3.720012e+003, 9.896639e-003
3.721941e+003, 1.062206e-002
3.723869e+003, 1.158032e-002
3.725798e+003, 1.154128e-002
3.727726e+003, 1.090162e-002
3.729655e+003, 1.032322e-002
3.731583e+003, 1.032008e-002
3.733511e+003, 1.077887e-002
3.735440e+003, 1.123177e-002
3.737368e+003, 1.100895e-002
3.739297e+003, 1.081822e-002
3.741225e+003, 1.070930e-002
3.743154e+003, 1.228343e-002
3.745082e+003, 1.203914e-002
3.747011e+003, 1.111960e-002
3.748939e+003, 1.182228e-002
3.750868e+003, 1.206290e-002
3.752796e+003, 1.145821e-002
3.754725e+003, 1.037215e-002
3.756653e+003, 1.056518e-002
3.758582e+003, 1.062669e-002
3.760510e+003, 1.069741e-002
3.762438e+003, 1.035979e-002
3.764367e+003, 1.091917e-002
3.766295e+003, 1.146008e-002
3.768224e+003, 1.073163e-002
3.770152e+003, 1.036074e-002
3.772081e+003, 1.006024e-002
3.774009e+003, 1.002530e-002
3.775938e+003, 9.990193e-003
3.777866e+003, 1.012608e-002
3.779795e+003, 1.039016e-002
3.781723e+003, 1.061834e-002
3.783652e+003, 1.055454e-002
3.785580e+003, 1.001838e-002
3.787509e+003, 9.598716e-003
3.789437e+003, 8.732339e-003
3.791365e+003, 8.652480e-003
3.793294e+003, 9.857431e-003
3.795222e+003, 1.110196e-002
3.797151e+003, 1.129107e-002
3.799079e+003, 1.107483e-002
3.801008e+003, 1.078143e-002
3.802936e+003, 1.057161e-002
3.804865e+003, 1.052070e-002
3.806793e+003, 1.028301e-002
3.808722e+003, 9.527435e-003
3.810650e+003, 8.985451e-003
3.812579e+003, 9.258206e-003
3.814507e+003, 1.045873e-002
3.816436e+003, 1.053382e-002
3.818364e+003, 9.572972e-003
3.820292e+003, 1.032371e-002
3.822221e+003, 1.063218e-002
3.824149e+003, 1.006856e-002
3.826078e+003, 9.690728e-003
3.828006e+003, 9.368972e-003
3.829935e+003, 1.004376e-002
3.831863e+003, 1.051261e-002
3.833792e+003, 1.103526e-002
3.835720e+003, 1.126452e-002
3.837649e+003, 1.085090e-002
3.839577e+003, 1.050239e-002
3.841506e+003, 1.091497e-002
3.843434e+003, 1.094833e-002
3.845363e+003, 1.069201e-002
3.847291e+003, 1.077621e-002
3.849219e+003, 1.074997e-002
3.851148e+003, 1.095643e-002
3.853076e+003, 1.214993e-002
3.855005e+003, 1.197557e-002
3.856933e+003, 1.048124e-002
3.858862e+003, 1.008118e-002
3.860790e+003, 1.038771e-002
3.862719e+003, 9.717125e-003
3.864647e+003, 1.037193e-002
3.866576e+003, 1.110283e-002
3.868504e+003, 1.044406e-002
3.870433e+003, 9.701956e-003
3.872361e+003, 9.603615e-003
3.874290e+003, 9.980589e-003
3.876218e+003, 9.894930e-003
3.878146e+003, 9.987423e-003
3.880075e+003, 1.058255e-002
3.882003e+003, 1.064897e-002
3.883932e+003, 1.071364e-002
3.885860e+003, 1.077436e-002
3.887789e+003, 1.044637e-002
3.889717e+003, 1.019046e-002
3.891646e+003, 9.689716e-003
3.893574e+003, 9.646580e-003
3.895503e+003, 1.039099e-002
3.897431e+003, 1.056318e-002
3.899360e+003, 1.037009e-002
3.901288e+003, 1.008827e-002
3.903217e+003, 1.054067e-002
3.905145e+003, 1.086041e-002
3.907073e+003, 1.012948e-002
3.909002e+003, 9.922959e-003
3.910930e+003, 9.819089e-003
3.912859e+003, 9.912673e-003
3.914787e+003, 1.045474e-002
3.916716e+003, 1.072048e-002
3.918644e+003, 1.047002e-002
3.920573e+003, 1.061223e-002
3.922501e+003, 1.079866e-002
3.924430e+003, 1.006746e-002
3.926358e+003, 9.697971e-003
3.928287e+003, 1.005170e-002
3.930215e+003, 1.004610e-002
3.932144e+003, 1.029671e-002
3.934072e+003, 1.008534e-002
3.936000e+003, 9.519384e-003
3.937929e+003, 9.936693e-003
3.939857e+003, 9.878078e-003
3.941786e+003, 9.949853e-003
3.943714e+003, 1.022912e-002
3.945643e+003, 1.009111e-002
3.947571e+003, 1.005546e-002
3.949500e+003, 1.041510e-002
3.951428e+003, 1.021874e-002
3.953357e+003, 1.004367e-002
3.955285e+003, 9.836159e-003
3.957214e+003, 9.722871e-003
3.959142e+003, 1.020388e-002
3.961071e+003, 1.042599e-002
3.962999e+003, 1.051305e-002
3.964927e+003, 1.013206e-002
3.966856e+003, 9.886795e-003
3.968784e+003, 1.009458e-002
3.970713e+003, 1.038676e-002
3.972641e+003, 1.034341e-002
3.974570e+003, 9.974278e-003
3.976498e+003, 1.013465e-002
3.978427e+003, 9.610125e-003
3.980355e+003, 9.306139e-003
3.982284e+003, 9.717652e-003
3.984212e+003, 1.067683e-002
3.986141e+003, 1.062587e-002
3.988069e+003, 1.046889e-002
3.989998e+003, 1.068153e-002
3.991926e+003, 1.038402e-002
3.993854e+003, 1.002625e-002
3.995783e+003, 9.647429e-003
3.997711e+003, 9.784833e-003
3.999640e+003, 1.029508e-002
##END=



