##NAMES=Mesolite
##RRUFFID=R050013
##IDEAL CHEMISTRY=Na_2_Ca_2_(Si_9_Al_6_)O_30_&#183;8H_2_O
##LOCALITY=Poona, Maharashtra, India
##OWNER=RRUFF
##SOURCE=University of Arizona Mineral Museum
##DESCRIPTION=Clear to white elongated prismatic single crystal
##STATUS=The identification of this mineral has been confirmed by X-ray diffraction and chemical analysis
##URL=rruff.info/R050013
##MEASURED CHEMISTRY=Na_2.00_Ca_2.00_(Si_9.00_Al_6.00_)O_30_Â·8H_2_O
3.991926e+002, 1.271946e-001
4.011211e+002, 1.247588e-001
4.030496e+002, 1.253586e-001
4.049780e+002, 1.272200e-001
4.069065e+002, 1.319689e-001
4.088350e+002, 1.373239e-001
4.107634e+002, 1.409247e-001
4.126919e+002, 1.490665e-001
4.146204e+002, 1.599069e-001
4.165488e+002, 1.650080e-001
4.184773e+002, 1.655469e-001
4.204058e+002, 1.670971e-001
4.223342e+002, 1.663757e-001
4.242627e+002, 1.620326e-001
4.261912e+002, 1.547410e-001
4.281196e+002, 1.473269e-001
4.300481e+002, 1.410190e-001
4.319766e+002, 1.343194e-001
4.339050e+002, 1.298112e-001
4.358335e+002, 1.247345e-001
4.377620e+002, 1.170271e-001
4.396904e+002, 1.090885e-001
4.416189e+002, 1.025001e-001
4.435474e+002, 9.482171e-002
4.454758e+002, 8.676054e-002
4.474043e+002, 7.843960e-002
4.493328e+002, 7.250070e-002
4.512612e+002, 6.832238e-002
4.531897e+002, 6.577262e-002
4.551182e+002, 6.484413e-002
4.570466e+002, 6.534746e-002
4.589751e+002, 6.662569e-002
4.609036e+002, 6.679474e-002
4.628320e+002, 6.762137e-002
4.647605e+002, 7.039505e-002
4.666890e+002, 7.326064e-002
4.686174e+002, 7.603610e-002
4.705459e+002, 7.847879e-002
4.724744e+002, 8.127485e-002
4.744028e+002, 8.429565e-002
4.763313e+002, 8.673905e-002
4.782598e+002, 8.866182e-002
4.801882e+002, 9.048539e-002
4.821167e+002, 9.203108e-002
4.840452e+002, 9.388527e-002
4.859736e+002, 9.576247e-002
4.879021e+002, 9.799846e-002
4.898306e+002, 1.000292e-001
4.917590e+002, 1.025593e-001
4.936875e+002, 1.051268e-001
4.956160e+002, 1.058184e-001
4.975444e+002, 1.062436e-001
4.994729e+002, 1.064456e-001
5.014014e+002, 1.055935e-001
5.033298e+002, 1.047632e-001
5.052583e+002, 1.042910e-001
5.071868e+002, 1.033609e-001
5.091152e+002, 1.017281e-001
5.110437e+002, 1.003858e-001
5.129722e+002, 9.891524e-002
5.149006e+002, 9.661683e-002
5.168291e+002, 9.385310e-002
5.187576e+002, 9.197823e-002
5.206860e+002, 9.084950e-002
5.226145e+002, 9.061833e-002
5.245430e+002, 9.106679e-002
5.264714e+002, 9.196833e-002
5.283999e+002, 9.401166e-002
5.303284e+002, 9.679046e-002
5.322568e+002, 1.007399e-001
5.341853e+002, 1.053702e-001
5.361138e+002, 1.084794e-001
5.380422e+002, 1.108425e-001
5.399707e+002, 1.127238e-001
5.418992e+002, 1.126863e-001
5.438276e+002, 1.106744e-001
5.457561e+002, 1.065865e-001
5.476846e+002, 1.012625e-001
5.496130e+002, 9.641886e-002
5.515415e+002, 9.271950e-002
5.534700e+002, 8.990173e-002
5.553984e+002, 8.804321e-002
5.573269e+002, 8.709808e-002
5.592554e+002, 8.755057e-002
5.611838e+002, 8.848579e-002
5.631123e+002, 8.901335e-002
5.650408e+002, 9.048095e-002
5.669692e+002, 9.284233e-002
5.688977e+002, 9.428684e-002
5.708262e+002, 9.444320e-002
5.727546e+002, 9.400836e-002
5.746831e+002, 9.246852e-002
5.766116e+002, 8.982987e-002
5.785400e+002, 8.761579e-002
5.804685e+002, 8.621556e-002
5.823970e+002, 8.553312e-002
5.843254e+002, 8.519602e-002
5.862539e+002, 8.520246e-002
5.881824e+002, 8.545332e-002
5.901108e+002, 8.484052e-002
5.920393e+002, 8.378964e-002
5.939678e+002, 8.371454e-002
5.958962e+002, 8.463768e-002
5.978247e+002, 8.624566e-002
5.997532e+002, 8.899612e-002
6.016816e+002, 9.281605e-002
6.036101e+002, 9.701052e-002
6.055386e+002, 1.012915e-001
6.074670e+002, 1.057710e-001
6.093955e+002, 1.095560e-001
6.113240e+002, 1.120734e-001
6.132524e+002, 1.130412e-001
6.151809e+002, 1.137615e-001
6.171094e+002, 1.146617e-001
6.190378e+002, 1.155499e-001
6.209663e+002, 1.155792e-001
6.228948e+002, 1.149650e-001
6.248232e+002, 1.138033e-001
6.267517e+002, 1.121788e-001
6.286802e+002, 1.096888e-001
6.306086e+002, 1.062489e-001
6.325371e+002, 1.024912e-001
6.344656e+002, 9.812622e-002
6.363940e+002, 9.326622e-002
6.383225e+002, 8.843251e-002
6.402510e+002, 8.315282e-002
6.421794e+002, 7.879733e-002
6.441079e+002, 7.564738e-002
6.460364e+002, 7.295104e-002
6.479648e+002, 7.058157e-002
6.498933e+002, 6.901979e-002
6.518218e+002, 6.778538e-002
6.537502e+002, 6.692631e-002
6.556787e+002, 6.625064e-002
6.576072e+002, 6.594822e-002
6.595356e+002, 6.640895e-002
6.614641e+002, 6.730528e-002
6.633926e+002, 6.845264e-002
6.653210e+002, 6.988949e-002
6.672495e+002, 7.153530e-002
6.691780e+002, 7.170587e-002
6.711064e+002, 7.025042e-002
6.730349e+002, 6.857595e-002
6.749634e+002, 6.780849e-002
6.768918e+002, 6.811592e-002
6.788203e+002, 6.917279e-002
6.807488e+002, 7.169678e-002
6.826772e+002, 7.520863e-002
6.846057e+002, 7.903703e-002
6.865342e+002, 8.232593e-002
6.884626e+002, 8.322711e-002
6.903911e+002, 8.177175e-002
6.923196e+002, 7.876552e-002
6.942480e+002, 7.456143e-002
6.961765e+002, 7.014671e-002
6.981050e+002, 6.614226e-002
7.000334e+002, 6.263001e-002
7.019619e+002, 5.948062e-002
7.038904e+002, 5.722158e-002
7.058188e+002, 5.617027e-002
7.077473e+002, 5.605428e-002
7.096758e+002, 5.667194e-002
7.116042e+002, 5.808326e-002
7.135327e+002, 6.025640e-002
7.154612e+002, 6.191460e-002
7.173896e+002, 6.251518e-002
7.193181e+002, 6.201679e-002
7.212466e+002, 6.080685e-002
7.231750e+002, 5.923964e-002
7.251035e+002, 5.748525e-002
7.270320e+002, 5.549178e-002
7.289604e+002, 5.317453e-002
7.308889e+002, 4.992123e-002
7.328174e+002, 4.549674e-002
7.347458e+002, 4.028830e-002
7.366743e+002, 3.568207e-002
7.386028e+002, 3.224798e-002
7.405313e+002, 2.955956e-002
7.424597e+002, 2.761942e-002
7.443882e+002, 2.639086e-002
7.463167e+002, 2.527237e-002
7.482451e+002, 2.435763e-002
7.501736e+002, 2.365679e-002
7.521021e+002, 2.328570e-002
7.540305e+002, 2.306540e-002
7.559590e+002, 2.318275e-002
7.578875e+002, 2.338313e-002
7.598159e+002, 2.356191e-002
7.617444e+002, 2.374382e-002
7.636729e+002, 2.410647e-002
7.656013e+002, 2.459286e-002
7.675298e+002, 2.507773e-002
7.694583e+002, 2.538917e-002
7.713867e+002, 2.551155e-002
7.733152e+002, 2.592831e-002
7.752437e+002, 2.640941e-002
7.771721e+002, 2.680495e-002
7.791006e+002, 2.716152e-002
7.810291e+002, 2.764559e-002
7.829575e+002, 2.822309e-002
7.848860e+002, 2.867118e-002
7.868145e+002, 2.897925e-002
7.887429e+002, 2.896254e-002
7.906714e+002, 2.850215e-002
7.925999e+002, 2.794728e-002
7.945283e+002, 2.717439e-002
7.964568e+002, 2.677713e-002
7.983853e+002, 2.713807e-002
8.003137e+002, 2.784557e-002
8.022422e+002, 2.858874e-002
8.041707e+002, 2.877271e-002
8.060991e+002, 2.847048e-002
8.080276e+002, 2.840421e-002
8.099561e+002, 2.859745e-002
8.118845e+002, 2.887638e-002
8.138130e+002, 2.953202e-002
8.157415e+002, 3.047713e-002
8.176699e+002, 3.116154e-002
8.195984e+002, 3.125352e-002
8.215269e+002, 3.087958e-002
8.234553e+002, 3.010932e-002
8.253838e+002, 2.948307e-002
8.273123e+002, 2.877125e-002
8.292407e+002, 2.807122e-002
8.311692e+002, 2.753969e-002
8.330977e+002, 2.675159e-002
8.350261e+002, 2.638521e-002
8.369546e+002, 2.660110e-002
8.388831e+002, 2.698377e-002
8.408115e+002, 2.724955e-002
8.427400e+002, 2.743124e-002
8.446685e+002, 2.773307e-002
8.465969e+002, 2.831119e-002
8.485254e+002, 2.876810e-002
8.504539e+002, 2.922282e-002
8.523823e+002, 2.993026e-002
8.543108e+002, 3.065005e-002
8.562393e+002, 3.142727e-002
8.581677e+002, 3.250388e-002
8.600962e+002, 3.378536e-002
8.620247e+002, 3.515776e-002
8.639531e+002, 3.657403e-002
8.658816e+002, 3.818370e-002
8.678101e+002, 4.007492e-002
8.697385e+002, 4.209593e-002
8.716670e+002, 4.428427e-002
8.735955e+002, 4.652017e-002
8.755239e+002, 4.829030e-002
8.774524e+002, 4.930666e-002
8.793809e+002, 5.041090e-002
8.813093e+002, 5.214020e-002
8.832378e+002, 5.471336e-002
8.851663e+002, 5.770494e-002
8.870947e+002, 6.041310e-002
8.890232e+002, 6.326771e-002
8.909517e+002, 6.654105e-002
8.928801e+002, 6.990688e-002
8.948085e+002, 7.340346e-002
8.967370e+002, 7.774633e-002
8.986655e+002, 8.319003e-002
9.005939e+002, 8.930483e-002
9.025224e+002, 9.599423e-002
9.044509e+002, 1.032848e-001
9.063793e+002, 1.113961e-001
9.083078e+002, 1.204849e-001
9.102363e+002, 1.304617e-001
9.121647e+002, 1.412469e-001
9.140932e+002, 1.529410e-001
9.160217e+002, 1.657226e-001
9.179501e+002, 1.789265e-001
9.198786e+002, 1.921136e-001
9.218071e+002, 2.056202e-001
9.237355e+002, 2.190246e-001
9.256640e+002, 2.317827e-001
9.275925e+002, 2.440863e-001
9.295209e+002, 2.568106e-001
9.314494e+002, 2.694810e-001
9.333779e+002, 2.807448e-001
9.353063e+002, 2.905556e-001
9.372348e+002, 2.970139e-001
9.391633e+002, 2.981931e-001
9.410917e+002, 2.934453e-001
9.430202e+002, 2.815772e-001
9.449487e+002, 2.636985e-001
9.468771e+002, 2.430616e-001
9.488056e+002, 2.230500e-001
9.507341e+002, 2.076811e-001
9.526625e+002, 2.010900e-001
9.545910e+002, 2.053644e-001
9.565195e+002, 2.187700e-001
9.584479e+002, 2.380787e-001
9.603764e+002, 2.591893e-001
9.623049e+002, 2.779146e-001
9.642333e+002, 2.909247e-001
9.661618e+002, 2.963172e-001
9.680903e+002, 2.953360e-001
9.700187e+002, 2.924305e-001
9.719472e+002, 2.924254e-001
9.738757e+002, 2.963849e-001
9.758041e+002, 3.001482e-001
9.777326e+002, 2.998281e-001
9.796611e+002, 2.945381e-001
9.815895e+002, 2.856316e-001
9.835180e+002, 2.742494e-001
9.854465e+002, 2.626256e-001
9.873749e+002, 2.523087e-001
9.893034e+002, 2.430406e-001
9.912319e+002, 2.356064e-001
9.931603e+002, 2.306077e-001
9.950888e+002, 2.265652e-001
9.970173e+002, 2.220429e-001
9.989457e+002, 2.160613e-001
1.000874e+003, 2.106275e-001
1.002803e+003, 2.084519e-001
1.004731e+003, 2.095498e-001
1.006660e+003, 2.110458e-001
1.008588e+003, 2.103913e-001
1.010517e+003, 2.078815e-001
1.012445e+003, 2.052133e-001
1.014373e+003, 2.023314e-001
1.016302e+003, 1.982699e-001
1.018230e+003, 1.933728e-001
1.020159e+003, 1.874280e-001
1.022087e+003, 1.791341e-001
1.024016e+003, 1.692992e-001
1.025944e+003, 1.602665e-001
1.027873e+003, 1.529220e-001
1.029801e+003, 1.467381e-001
1.031730e+003, 1.412532e-001
1.033658e+003, 1.359370e-001
1.035587e+003, 1.304626e-001
1.037515e+003, 1.256859e-001
1.039444e+003, 1.220717e-001
1.041372e+003, 1.199573e-001
1.043301e+003, 1.194295e-001
1.045229e+003, 1.197937e-001
1.047157e+003, 1.204009e-001
1.049086e+003, 1.205263e-001
1.051014e+003, 1.192973e-001
1.052943e+003, 1.164895e-001
1.054871e+003, 1.124059e-001
1.056800e+003, 1.080246e-001
1.058728e+003, 1.049706e-001
1.060657e+003, 1.028560e-001
1.062585e+003, 1.005832e-001
1.064514e+003, 9.738486e-002
1.066442e+003, 9.268190e-002
1.068371e+003, 8.728345e-002
1.070299e+003, 8.235819e-002
1.072228e+003, 7.860906e-002
1.074156e+003, 7.603464e-002
1.076084e+003, 7.496623e-002
1.078013e+003, 7.569066e-002
1.079941e+003, 7.734738e-002
1.081870e+003, 7.961345e-002
1.083798e+003, 8.285315e-002
1.085727e+003, 8.806913e-002
1.087655e+003, 9.508962e-002
1.089584e+003, 1.036191e-001
1.091512e+003, 1.122795e-001
1.093441e+003, 1.188086e-001
1.095369e+003, 1.214459e-001
1.097298e+003, 1.196714e-001
1.099226e+003, 1.146063e-001
1.101155e+003, 1.085216e-001
1.103083e+003, 1.033496e-001
1.105011e+003, 9.904548e-002
1.106940e+003, 9.545151e-002
1.108868e+003, 9.251943e-002
1.110797e+003, 8.931087e-002
1.112725e+003, 8.545174e-002
1.114654e+003, 8.123139e-002
1.116582e+003, 7.666113e-002
1.118511e+003, 7.204776e-002
1.120439e+003, 6.770089e-002
1.122368e+003, 6.384471e-002
1.124296e+003, 6.075454e-002
1.126225e+003, 5.826481e-002
1.128153e+003, 5.658607e-002
1.130082e+003, 5.521749e-002
1.132010e+003, 5.336600e-002
1.133938e+003, 5.081469e-002
1.135867e+003, 4.776823e-002
1.137795e+003, 4.440676e-002
1.139724e+003, 4.106895e-002
1.141652e+003, 3.831642e-002
1.143581e+003, 3.584789e-002
1.145509e+003, 3.361018e-002
1.147438e+003, 3.181776e-002
1.149366e+003, 3.054797e-002
1.151295e+003, 2.951640e-002
1.153223e+003, 2.868887e-002
1.155152e+003, 2.782890e-002
1.157080e+003, 2.699129e-002
1.159009e+003, 2.622391e-002
1.160937e+003, 2.506999e-002
1.162865e+003, 2.378331e-002
1.164794e+003, 2.240091e-002
1.166722e+003, 2.094145e-002
1.168651e+003, 1.934918e-002
1.170579e+003, 1.781321e-002
1.172508e+003, 1.731769e-002
1.174436e+003, 1.739637e-002
1.176365e+003, 1.744121e-002
1.178293e+003, 1.759525e-002
1.180222e+003, 1.780857e-002
1.182150e+003, 1.796000e-002
1.184079e+003, 1.790415e-002
1.186007e+003, 1.785594e-002
1.187936e+003, 1.763785e-002
1.189864e+003, 1.734053e-002
1.191792e+003, 1.683372e-002
1.193721e+003, 1.605709e-002
1.195649e+003, 1.518741e-002
1.197578e+003, 1.427073e-002
1.199506e+003, 1.336449e-002
1.201435e+003, 1.247630e-002
1.203363e+003, 1.174717e-002
1.205292e+003, 1.119898e-002
1.207220e+003, 1.099557e-002
1.209149e+003, 1.101006e-002
1.211077e+003, 1.138504e-002
1.213006e+003, 1.193764e-002
1.214934e+003, 1.242331e-002
1.216863e+003, 1.258133e-002
1.218791e+003, 1.248268e-002
1.220719e+003, 1.220506e-002
1.222648e+003, 1.180584e-002
1.224576e+003, 1.141104e-002
1.226505e+003, 1.100760e-002
1.228433e+003, 1.079585e-002
1.230362e+003, 1.057923e-002
1.232290e+003, 1.027474e-002
1.234219e+003, 1.004560e-002
1.236147e+003, 9.731828e-003
1.238076e+003, 9.336378e-003
1.240004e+003, 9.003025e-003
1.241933e+003, 8.695409e-003
1.243861e+003, 8.378902e-003
1.245790e+003, 8.054152e-003
1.247718e+003, 7.922207e-003
1.249646e+003, 7.888373e-003
1.251575e+003, 7.485500e-003
1.253503e+003, 6.847495e-003
1.255432e+003, 6.409969e-003
1.257360e+003, 5.908480e-003
1.259289e+003, 5.086718e-003
1.261217e+003, 4.603295e-003
1.263146e+003, 4.296170e-003
1.265074e+003, 3.747708e-003
1.267003e+003, 3.372776e-003
1.268931e+003, 3.281618e-003
1.270860e+003, 3.181293e-003
1.272788e+003, 3.145863e-003
1.274717e+003, 3.167818e-003
1.276645e+003, 3.188908e-003
1.278573e+003, 3.317287e-003
1.280502e+003, 3.501431e-003
1.282430e+003, 3.612364e-003
1.284359e+003, 3.549783e-003
1.286287e+003, 3.583521e-003
1.288216e+003, 3.744963e-003
1.290144e+003, 3.679185e-003
1.292073e+003, 3.717624e-003
1.294001e+003, 3.725413e-003
1.295930e+003, 3.587404e-003
1.297858e+003, 3.520271e-003
1.299787e+003, 3.543046e-003
1.301715e+003, 3.463340e-003
1.303644e+003, 3.483995e-003
1.305572e+003, 3.740856e-003
1.307500e+003, 4.023685e-003
1.309429e+003, 4.113762e-003
1.311357e+003, 3.926660e-003
1.313286e+003, 3.780684e-003
1.315214e+003, 3.729872e-003
1.317143e+003, 3.611844e-003
1.319071e+003, 3.471990e-003
1.321000e+003, 3.438473e-003
1.322928e+003, 3.540560e-003
1.324857e+003, 3.566826e-003
1.326785e+003, 3.633076e-003
1.328714e+003, 3.332819e-003
1.330642e+003, 3.255914e-003
1.332571e+003, 3.368357e-003
1.334499e+003, 3.445396e-003
1.336427e+003, 3.553911e-003
1.338356e+003, 3.421757e-003
1.340284e+003, 3.059010e-003
1.342213e+003, 2.857087e-003
1.344141e+003, 2.941956e-003
1.346070e+003, 3.166360e-003
1.347998e+003, 3.219760e-003
1.349927e+003, 3.110839e-003
1.351855e+003, 2.981703e-003
1.353784e+003, 3.088617e-003
1.355712e+003, 3.238617e-003
1.357641e+003, 3.312158e-003
1.359569e+003, 3.551627e-003
1.361498e+003, 3.769865e-003
1.363426e+003, 4.006169e-003
1.365354e+003, 3.984305e-003
1.367283e+003, 3.657882e-003
1.369211e+003, 3.576785e-003
1.371140e+003, 3.507362e-003
1.373068e+003, 3.201216e-003
1.374997e+003, 3.091364e-003
1.376925e+003, 3.256139e-003
1.378854e+003, 3.285208e-003
1.380782e+003, 3.242223e-003
1.382711e+003, 3.423653e-003
1.384639e+003, 3.679447e-003
1.386568e+003, 3.669298e-003
1.388496e+003, 3.522580e-003
1.390424e+003, 3.596555e-003
1.392353e+003, 3.697255e-003
1.394281e+003, 3.478481e-003
1.396210e+003, 3.355437e-003
1.398138e+003, 3.510717e-003
1.400067e+003, 3.688558e-003
1.401995e+003, 3.785450e-003
1.403924e+003, 4.041915e-003
1.405852e+003, 4.470639e-003
1.407781e+003, 4.686820e-003
1.409709e+003, 4.572113e-003
1.411638e+003, 4.502775e-003
1.413566e+003, 4.293539e-003
1.415495e+003, 3.977043e-003
1.417423e+003, 3.782662e-003
1.419351e+003, 3.775777e-003
1.421280e+003, 3.634345e-003
1.423208e+003, 3.861413e-003
1.425137e+003, 3.892794e-003
1.427065e+003, 3.576789e-003
1.428994e+003, 3.592546e-003
1.430922e+003, 3.652980e-003
1.432851e+003, 3.752639e-003
1.434779e+003, 3.878372e-003
1.436708e+003, 3.955624e-003
1.438636e+003, 3.983613e-003
1.440565e+003, 3.962557e-003
1.442493e+003, 3.862765e-003
1.444422e+003, 3.804020e-003
1.446350e+003, 3.883589e-003
1.448278e+003, 4.010954e-003
1.450207e+003, 4.226154e-003
1.452135e+003, 4.377084e-003
1.454064e+003, 4.175483e-003
1.455992e+003, 3.895625e-003
1.457921e+003, 4.143459e-003
1.459849e+003, 4.357328e-003
1.461778e+003, 4.277684e-003
1.463706e+003, 4.237249e-003
1.465635e+003, 4.224482e-003
1.467563e+003, 4.268158e-003
1.469492e+003, 4.054635e-003
1.471420e+003, 3.761553e-003
1.473349e+003, 3.794524e-003
1.475277e+003, 3.753105e-003
1.477205e+003, 3.480358e-003
1.479134e+003, 3.576973e-003
1.481062e+003, 3.869845e-003
1.482991e+003, 3.868713e-003
1.484919e+003, 3.916837e-003
1.486848e+003, 3.958388e-003
1.488776e+003, 4.059422e-003
1.490705e+003, 4.545251e-003
1.492633e+003, 5.296145e-003
1.494562e+003, 5.870367e-003
1.496490e+003, 6.347301e-003
1.498419e+003, 6.664350e-003
1.500347e+003, 7.001776e-003
1.502276e+003, 7.410033e-003
1.504204e+003, 7.386462e-003
1.506132e+003, 6.993164e-003
1.508061e+003, 6.395571e-003
1.509989e+003, 5.490905e-003
1.511918e+003, 4.566181e-003
1.513846e+003, 3.989411e-003
1.515775e+003, 3.484763e-003
1.517703e+003, 3.104032e-003
1.519632e+003, 3.009267e-003
1.521560e+003, 3.156523e-003
1.523489e+003, 3.394536e-003
1.525417e+003, 3.449044e-003
1.527346e+003, 3.366278e-003
1.529274e+003, 3.405271e-003
1.531203e+003, 3.506361e-003
1.533131e+003, 3.664564e-003
1.535059e+003, 3.969900e-003
1.536988e+003, 4.085950e-003
1.538916e+003, 3.832539e-003
1.540845e+003, 3.811534e-003
1.542773e+003, 4.129755e-003
1.544702e+003, 4.441235e-003
1.546630e+003, 4.718784e-003
1.548559e+003, 4.942604e-003
1.550487e+003, 4.814758e-003
1.552416e+003, 4.764201e-003
1.554344e+003, 5.133045e-003
1.556273e+003, 5.553697e-003
1.558201e+003, 5.654581e-003
1.560130e+003, 5.799767e-003
1.562058e+003, 6.161537e-003
1.563986e+003, 6.323778e-003
1.565915e+003, 6.561860e-003
1.567843e+003, 6.703550e-003
1.569772e+003, 6.598331e-003
1.571700e+003, 6.706401e-003
1.573629e+003, 6.838586e-003
1.575557e+003, 7.122915e-003
1.577486e+003, 7.700516e-003
1.579414e+003, 8.239858e-003
1.581343e+003, 8.489073e-003
1.583271e+003, 8.826420e-003
1.585200e+003, 9.475012e-003
1.587128e+003, 1.002630e-002
1.589057e+003, 1.033398e-002
1.590985e+003, 1.052614e-002
1.592913e+003, 1.048810e-002
1.594842e+003, 1.005329e-002
1.596770e+003, 9.399360e-003
1.598699e+003, 9.003933e-003
1.600627e+003, 8.599319e-003
1.602556e+003, 8.241899e-003
1.604484e+003, 8.018315e-003
1.606413e+003, 7.710452e-003
1.608341e+003, 7.323080e-003
1.610270e+003, 7.080137e-003
1.612198e+003, 6.943586e-003
1.614127e+003, 6.844531e-003
1.616055e+003, 7.005534e-003
1.617984e+003, 7.072807e-003
1.619912e+003, 6.919683e-003
1.621840e+003, 7.034871e-003
1.623769e+003, 7.524193e-003
1.625697e+003, 8.198425e-003
1.627626e+003, 8.906128e-003
1.629554e+003, 9.340365e-003
1.631483e+003, 1.009141e-002
1.633411e+003, 1.087371e-002
1.635340e+003, 1.191631e-002
1.637268e+003, 1.391328e-002
1.639197e+003, 1.643192e-002
1.641125e+003, 1.875018e-002
1.643054e+003, 2.120852e-002
1.644982e+003, 2.290572e-002
1.646911e+003, 2.259165e-002
1.648839e+003, 2.085686e-002
1.650767e+003, 1.914485e-002
1.652696e+003, 1.873740e-002
1.654624e+003, 2.003212e-002
1.656553e+003, 2.278464e-002
1.658481e+003, 2.599193e-002
1.660410e+003, 2.853552e-002
1.662338e+003, 2.877887e-002
1.664267e+003, 2.573241e-002
1.666195e+003, 2.076936e-002
1.668124e+003, 1.595425e-002
1.670052e+003, 1.257855e-002
1.671981e+003, 1.009002e-002
1.673909e+003, 8.068150e-003
1.675838e+003, 6.598476e-003
1.677766e+003, 5.631162e-003
1.679694e+003, 4.857618e-003
1.681623e+003, 4.459926e-003
1.683551e+003, 4.115915e-003
1.685480e+003, 3.843951e-003
1.687408e+003, 3.646987e-003
1.689337e+003, 3.592875e-003
1.691265e+003, 3.520476e-003
1.693194e+003, 3.393980e-003
1.695122e+003, 3.196791e-003
1.697051e+003, 3.111087e-003
1.698979e+003, 3.103281e-003
1.700908e+003, 3.077986e-003
1.702836e+003, 3.232816e-003
1.704765e+003, 3.215631e-003
1.706693e+003, 3.453592e-003
1.708621e+003, 3.703689e-003
1.710550e+003, 3.633424e-003
1.712478e+003, 3.131073e-003
1.714407e+003, 2.790429e-003
1.716335e+003, 2.658474e-003
1.718264e+003, 2.706723e-003
1.720192e+003, 2.928870e-003
1.722121e+003, 3.129012e-003
1.724049e+003, 3.287696e-003
1.725978e+003, 3.350305e-003
1.727906e+003, 3.193110e-003
1.729835e+003, 3.021558e-003
1.731763e+003, 3.018960e-003
1.733692e+003, 2.760838e-003
1.735620e+003, 2.310715e-003
1.737548e+003, 2.136829e-003
1.739477e+003, 2.048288e-003
1.741405e+003, 1.963278e-003
1.743334e+003, 2.115714e-003
1.745262e+003, 2.290857e-003
1.747191e+003, 2.465855e-003
1.749119e+003, 2.706764e-003
1.751048e+003, 3.077277e-003
1.752976e+003, 3.489497e-003
1.754905e+003, 4.115395e-003
1.756833e+003, 4.936946e-003
1.758762e+003, 5.489985e-003
1.760690e+003, 5.731608e-003
1.762619e+003, 6.164663e-003
1.764547e+003, 7.375955e-003
1.766475e+003, 8.307614e-003
1.768404e+003, 8.137857e-003
1.770332e+003, 7.505628e-003
1.772261e+003, 7.012663e-003
1.774189e+003, 6.993894e-003
1.776118e+003, 6.749189e-003
1.778046e+003, 6.507370e-003
1.779975e+003, 6.096720e-003
1.781903e+003, 5.563859e-003
1.783832e+003, 5.180738e-003
1.785760e+003, 4.529408e-003
1.787689e+003, 3.892700e-003
1.789617e+003, 3.394629e-003
1.791546e+003, 2.895580e-003
1.793474e+003, 2.236624e-003
1.795402e+003, 1.598623e-003
1.797331e+003, 1.226190e-003
1.799259e+003, 1.001286e-003
1.801188e+003, 9.590135e-004
1.803116e+003, 1.001455e-003
1.805045e+003, 8.019246e-004
1.806973e+003, 3.736372e-004
1.808902e+003, -2.804966e-005
1.810830e+003, -1.375857e-004
1.812759e+003, -1.630503e-004
1.814687e+003, -4.382491e-004
1.816616e+003, -1.915450e-004
1.818544e+003, 5.084355e-004
1.820473e+003, 3.203519e-004
1.822401e+003, -4.782075e-004
1.824329e+003, -6.538205e-004
1.826258e+003, -5.146369e-004
1.828186e+003, -4.827519e-004
1.830115e+003, -5.882118e-004
1.832043e+003, -9.078767e-004
1.833972e+003, -1.043456e-003
1.835900e+003, -6.537242e-004
1.837829e+003, -7.273672e-004
1.839757e+003, -8.897381e-004
1.841686e+003, -6.829863e-004
1.843614e+003, -1.319361e-003
1.845543e+003, -1.490945e-003
1.847471e+003, -1.471716e-003
1.849400e+003, -1.756222e-003
1.851328e+003, -1.744918e-003
1.853256e+003, -1.403650e-003
1.855185e+003, -1.139981e-003
1.857113e+003, -1.321128e-003
1.859042e+003, -1.559858e-003
1.860970e+003, -2.033553e-003
1.862899e+003, -2.065425e-003
1.864827e+003, -1.783390e-003
1.866756e+003, -1.840850e-003
1.868684e+003, -2.002173e-003
1.870613e+003, -1.756219e-003
1.872541e+003, -1.613243e-003
1.874470e+003, -1.750174e-003
1.876398e+003, -2.055600e-003
1.878327e+003, -2.092362e-003
1.880255e+003, -2.318498e-003
1.882183e+003, -2.722355e-003
1.884112e+003, -3.045445e-003
1.886040e+003, -2.558520e-003
1.887969e+003, -2.166133e-003
1.889897e+003, -2.354814e-003
1.891826e+003, -2.893633e-003
1.893754e+003, -2.384221e-003
1.895683e+003, -2.323203e-003
1.897611e+003, -2.487117e-003
1.899540e+003, -2.277801e-003
1.901468e+003, -2.224672e-003
1.903397e+003, -1.963008e-003
1.905325e+003, -1.990984e-003
1.907254e+003, -1.946740e-003
1.909182e+003, -2.465785e-003
1.911110e+003, -2.949519e-003
1.913039e+003, -2.259318e-003
1.914967e+003, -2.510756e-003
1.916896e+003, -2.373939e-003
1.918824e+003, -2.715703e-003
1.920753e+003, -4.014559e-003
1.922681e+003, -3.731551e-003
1.924610e+003, -3.667301e-003
1.926538e+003, -4.298744e-003
1.928467e+003, -4.910742e-003
1.930395e+003, -5.096539e-003
1.932324e+003, -5.005788e-003
1.934252e+003, -4.807476e-003
1.936181e+003, -5.102122e-003
1.938109e+003, -5.999121e-003
1.940037e+003, -5.646328e-003
1.941966e+003, -5.606576e-003
1.943894e+003, -5.814145e-003
1.945823e+003, -5.856215e-003
1.947751e+003, -6.629218e-003
1.949680e+003, -6.812200e-003
1.951608e+003, -6.803515e-003
1.953537e+003, -7.220370e-003
1.955465e+003, -7.617440e-003
1.957394e+003, -8.367293e-003
1.959322e+003, -8.904268e-003
1.961251e+003, -8.242105e-003
1.963179e+003, -8.226937e-003
1.965108e+003, -8.239155e-003
1.967036e+003, -7.543311e-003
1.968964e+003, -8.350797e-003
1.970893e+003, -8.607097e-003
1.972821e+003, -8.097908e-003
1.974750e+003, -9.521360e-003
1.976678e+003, -1.016353e-002
1.978607e+003, -7.273605e-003
1.980535e+003, -5.122791e-003
1.982464e+003, -5.006448e-003
1.984392e+003, -5.783652e-003
1.986321e+003, -6.328622e-003
1.988249e+003, -6.820984e-003
1.990178e+003, -7.109044e-003
1.992106e+003, -7.346643e-003
1.994035e+003, -7.685111e-003
1.995963e+003, -8.704105e-003
1.997891e+003, -7.645661e-003
1.999820e+003, -6.390926e-003
2.001748e+003, -7.606723e-003
2.003677e+003, -6.631119e-003
2.005605e+003, -4.930498e-003
2.007534e+003, -6.351378e-003
2.009462e+003, -8.958605e-003
2.011391e+003, -8.782703e-003
2.013319e+003, -6.957455e-003
2.015248e+003, -6.649236e-003
2.017176e+003, -6.940113e-003
2.019105e+003, -7.016025e-003
2.021033e+003, -7.680362e-003
2.022962e+003, -7.542957e-003
2.024890e+003, -6.679995e-003
2.026818e+003, -6.810318e-003
2.028747e+003, -7.324066e-003
2.030675e+003, -7.620718e-003
2.032604e+003, -7.173146e-003
2.034532e+003, -5.245788e-003
2.036461e+003, -5.067863e-003
2.038389e+003, -6.174301e-003
2.040318e+003, -5.459536e-003
2.042246e+003, -3.351584e-003
2.044175e+003, -2.772580e-003
2.046103e+003, -2.652141e-003
2.048032e+003, -2.341616e-003
2.049960e+003, -2.379421e-003
2.051889e+003, -1.736594e-003
2.053817e+003, -1.567256e-003
2.055746e+003, -1.976352e-003
2.057674e+003, -2.232015e-003
2.059603e+003, -1.746770e-003
2.061531e+003, -2.354737e-003
2.063459e+003, -3.107841e-003
2.065388e+003, -2.820875e-003
2.067316e+003, -2.187085e-003
2.069245e+003, -2.398971e-003
2.071173e+003, -2.821759e-003
2.073102e+003, -1.478291e-003
2.075030e+003, 4.342193e-004
2.076959e+003, -2.523851e-004
2.078887e+003, -8.449169e-004
2.080816e+003, -4.537837e-004
2.082744e+003, -7.817782e-004
2.084673e+003, -1.218732e-003
2.086601e+003, -8.881221e-004
2.088530e+003, -4.452417e-004
2.090458e+003, -3.766434e-004
2.092386e+003, -9.699849e-004
2.094315e+003, -1.576937e-003
2.096243e+003, -1.557104e-003
2.098172e+003, -1.526155e-003
2.100100e+003, -1.635167e-003
2.102029e+003, -1.723360e-003
2.103957e+003, -9.290235e-004
2.105886e+003, -1.314728e-003
2.107814e+003, -2.229393e-003
2.109743e+003, -1.884098e-003
2.111671e+003, -1.926232e-003
2.113600e+003, -1.364019e-003
2.115528e+003, -7.364691e-004
2.117457e+003, -1.015847e-003
2.119385e+003, -8.988429e-004
2.121313e+003, -1.005126e-003
2.123242e+003, -2.012466e-003
2.125170e+003, -1.992757e-003
2.127099e+003, -1.078587e-003
2.129027e+003, -1.299411e-003
2.130956e+003, -3.046255e-003
2.132884e+003, -3.421319e-003
2.134813e+003, -2.917721e-003
2.136741e+003, -2.459181e-003
2.138670e+003, -1.579247e-003
2.140598e+003, -4.823967e-005
2.142527e+003, -3.219902e-005
2.144455e+003, -1.857859e-003
2.146384e+003, -3.645799e-003
2.148312e+003, -3.401838e-003
2.150240e+003, -3.402375e-003
2.152169e+003, -4.599986e-003
2.154097e+003, -4.623141e-003
2.156026e+003, -4.810682e-003
2.157954e+003, -3.976623e-003
2.159883e+003, -9.229480e-004
2.161811e+003, -2.211464e-003
2.163740e+003, -1.352110e-003
2.165668e+003, 1.892567e-004
2.167597e+003, -6.968656e-004
2.169525e+003, -1.929923e-003
2.171454e+003, -2.072488e-003
2.173382e+003, -1.673840e-003
2.175311e+003, -2.110016e-003
2.177239e+003, -3.271814e-003
2.179167e+003, -4.783597e-003
2.181096e+003, -5.836104e-003
2.183024e+003, -5.539423e-003
2.184953e+003, -4.548549e-003
2.186881e+003, -1.631276e-003
2.188810e+003, -1.865191e-003
2.190738e+003, -2.751809e-003
2.192667e+003, -2.335940e-003
2.194595e+003, -3.353021e-003
2.196524e+003, -3.648230e-003
2.198452e+003, -1.885418e-003
2.200381e+003, -1.045440e-003
2.202309e+003, -1.667709e-003
2.204238e+003, -2.275083e-003
2.206166e+003, -1.378803e-003
2.208094e+003, -1.073770e-003
2.210023e+003, -2.183956e-003
2.211951e+003, -2.992998e-003
2.213880e+003, -2.143149e-003
2.215808e+003, -1.697339e-003
2.217737e+003, -2.296910e-003
2.219665e+003, -5.982406e-004
2.221594e+003, 6.822406e-004
2.223522e+003, 2.146757e-004
2.225451e+003, -1.197296e-004
2.227379e+003, -2.662498e-004
2.229308e+003, 8.894195e-005
2.231236e+003, 1.515052e-003
2.233165e+003, 2.723234e-003
2.235093e+003, 2.300179e-003
2.237021e+003, 1.356807e-004
2.238950e+003, 6.096755e-004
2.240878e+003, 1.533024e-003
2.242807e+003, 1.328828e-003
2.244735e+003, 2.285161e-003
2.246664e+003, 2.236197e-003
2.248592e+003, 1.352975e-003
2.250521e+003, 1.071505e-003
2.252449e+003, 2.735605e-004
2.254378e+003, -1.419980e-004
2.256306e+003, 1.436691e-003
2.258235e+003, 2.351125e-003
2.260163e+003, 1.381976e-003
2.262092e+003, 7.609883e-004
2.264020e+003, 1.327784e-003
2.265948e+003, 1.399276e-003
2.267877e+003, 1.850936e-003
2.269805e+003, 2.527039e-003
2.271734e+003, 2.935326e-003
2.273662e+003, 2.053246e-003
2.275591e+003, 2.260169e-003
2.277519e+003, 2.914971e-003
2.279448e+003, 3.017368e-003
2.281376e+003, 3.101741e-003
2.283305e+003, 2.983320e-003
2.285233e+003, 3.471329e-003
2.287162e+003, 3.743860e-003
2.289090e+003, 3.647039e-003
2.291019e+003, 3.148474e-003
2.292947e+003, 2.826207e-003
2.294875e+003, 2.756468e-003
2.296804e+003, 3.360700e-003
2.298732e+003, 3.915172e-003
2.300661e+003, 3.335842e-003
2.302589e+003, 3.090245e-003
2.304518e+003, 2.816831e-003
2.306446e+003, 2.866219e-003
2.308375e+003, 3.487022e-003
2.310303e+003, 3.272616e-003
2.312232e+003, 3.458435e-003
2.314160e+003, 4.236987e-003
2.316089e+003, 4.072943e-003
2.318017e+003, 3.945968e-003
2.319946e+003, 3.896595e-003
2.321874e+003, 4.315545e-003
2.323802e+003, 4.504203e-003
2.325731e+003, 3.833249e-003
2.327659e+003, 3.398182e-003
2.329588e+003, 3.649496e-003
2.331516e+003, 3.592471e-003
2.333445e+003, 3.535716e-003
2.335373e+003, 3.787909e-003
2.337302e+003, 4.082522e-003
2.339230e+003, 4.114253e-003
2.341159e+003, 4.003105e-003
2.343087e+003, 3.689447e-003
2.345016e+003, 3.405515e-003
2.346944e+003, 3.150051e-003
2.348873e+003, 2.878190e-003
2.350801e+003, 3.214082e-003
2.352729e+003, 3.336512e-003
2.354658e+003, 3.068590e-003
2.356586e+003, 3.325991e-003
2.358515e+003, 3.631928e-003
2.360443e+003, 3.965823e-003
2.362372e+003, 3.944132e-003
2.364300e+003, 3.255472e-003
2.366229e+003, 3.011369e-003
2.368157e+003, 3.039630e-003
2.370086e+003, 2.971414e-003
2.372014e+003, 2.995814e-003
2.373942e+003, 2.723138e-003
2.375871e+003, 2.592056e-003
2.377799e+003, 2.715184e-003
2.379728e+003, 2.438366e-003
2.381656e+003, 2.570931e-003
2.383585e+003, 2.924594e-003
2.385513e+003, 3.032689e-003
2.387442e+003, 2.653908e-003
2.389370e+003, 2.202324e-003
2.391299e+003, 2.545350e-003
2.393227e+003, 2.666050e-003
2.395156e+003, 2.583611e-003
2.397084e+003, 2.492961e-003
2.399012e+003, 2.811665e-003
2.400941e+003, 2.265409e-003
2.402869e+003, 1.567798e-003
2.404798e+003, 2.113434e-003
2.406726e+003, 2.733610e-003
2.408655e+003, 3.025805e-003
2.410583e+003, 2.975852e-003
2.412512e+003, 2.667743e-003
2.414440e+003, 3.056336e-003
2.416369e+003, 3.010110e-003
2.418297e+003, 2.021888e-003
2.420226e+003, 1.763109e-003
2.422154e+003, 2.275958e-003
2.424083e+003, 2.591287e-003
2.426011e+003, 2.659574e-003
2.427939e+003, 2.941648e-003
2.429868e+003, 2.739850e-003
2.431796e+003, 1.926762e-003
2.433725e+003, 1.495244e-003
2.435653e+003, 2.024112e-003
2.437582e+003, 2.815572e-003
2.439510e+003, 2.893999e-003
2.441439e+003, 3.065220e-003
2.443367e+003, 2.662063e-003
2.445296e+003, 2.376867e-003
2.447224e+003, 2.549671e-003
2.449153e+003, 3.104201e-003
2.451081e+003, 3.310321e-003
2.453010e+003, 2.913202e-003
2.454938e+003, 2.813819e-003
2.456866e+003, 2.394363e-003
2.458795e+003, 1.953881e-003
2.460723e+003, 2.310816e-003
2.462652e+003, 2.764956e-003
2.464580e+003, 2.661749e-003
2.466509e+003, 2.496143e-003
2.468437e+003, 2.519407e-003
2.470366e+003, 2.242438e-003
2.472294e+003, 2.385762e-003
2.474223e+003, 2.007480e-003
2.476151e+003, 2.615481e-003
2.478080e+003, 2.570741e-003
2.480008e+003, 2.607416e-003
2.481937e+003, 2.311489e-003
2.483865e+003, 2.293378e-003
2.485793e+003, 2.455282e-003
2.487722e+003, 2.562052e-003
2.489650e+003, 2.692391e-003
2.491579e+003, 2.566882e-003
2.493507e+003, 1.754355e-003
2.495436e+003, 1.651982e-003
2.497364e+003, 2.068863e-003
2.499293e+003, 2.456412e-003
2.501221e+003, 2.499201e-003
2.503150e+003, 2.107599e-003
2.505078e+003, 1.618974e-003
2.507007e+003, 1.354812e-003
2.508935e+003, 1.836718e-003
2.510864e+003, 2.206614e-003
2.512792e+003, 1.924697e-003
2.514720e+003, 2.202631e-003
2.516649e+003, 2.594921e-003
2.518577e+003, 2.884400e-003
2.520506e+003, 2.787410e-003
2.522434e+003, 1.879629e-003
2.524363e+003, 1.977897e-003
2.526291e+003, 2.470620e-003
2.528220e+003, 2.769219e-003
2.530148e+003, 2.669679e-003
2.532077e+003, 2.326371e-003
2.534005e+003, 2.561813e-003
2.535934e+003, 2.478481e-003
2.537862e+003, 1.912052e-003
2.539791e+003, 1.928216e-003
2.541719e+003, 2.667913e-003
2.543647e+003, 2.768396e-003
2.545576e+003, 3.534359e-003
2.547504e+003, 4.024481e-003
2.549433e+003, 3.892460e-003
2.551361e+003, 3.666962e-003
2.553290e+003, 2.769036e-003
2.555218e+003, 2.350911e-003
2.557147e+003, 3.390012e-003
2.559075e+003, 3.588248e-003
2.561004e+003, 3.420690e-003
2.562932e+003, 2.999222e-003
2.564861e+003, 2.265867e-003
2.566789e+003, 3.384923e-003
2.568718e+003, 4.147368e-003
2.570646e+003, 3.163240e-003
2.572574e+003, 2.146803e-003
2.574503e+003, 2.062458e-003
2.576431e+003, 2.500677e-003
2.578360e+003, 2.717672e-003
2.580288e+003, 2.676182e-003
2.582217e+003, 2.352356e-003
2.584145e+003, 2.084560e-003
2.586074e+003, 3.245609e-003
2.588002e+003, 3.980120e-003
2.589931e+003, 3.156616e-003
2.591859e+003, 3.056324e-003
2.593788e+003, 3.641929e-003
2.595716e+003, 3.161615e-003
2.597645e+003, 3.141434e-003
2.599573e+003, 3.537731e-003
2.601501e+003, 3.933879e-003
2.603430e+003, 4.276106e-003
2.605358e+003, 3.811336e-003
2.607287e+003, 3.805907e-003
2.609215e+003, 4.162930e-003
2.611144e+003, 3.697344e-003
2.613072e+003, 3.310466e-003
2.615001e+003, 3.805825e-003
2.616929e+003, 4.044021e-003
2.618858e+003, 4.065366e-003
2.620786e+003, 4.440450e-003
2.622715e+003, 4.004562e-003
2.624643e+003, 4.216853e-003
2.626572e+003, 4.588942e-003
2.628500e+003, 4.227151e-003
2.630428e+003, 3.804774e-003
2.632357e+003, 3.740202e-003
2.634285e+003, 3.895421e-003
2.636214e+003, 4.079117e-003
2.638142e+003, 4.361920e-003
2.640071e+003, 4.605320e-003
2.641999e+003, 4.971883e-003
2.643928e+003, 4.598761e-003
2.645856e+003, 4.073369e-003
2.647785e+003, 3.880353e-003
2.649713e+003, 3.999716e-003
2.651642e+003, 4.710150e-003
2.653570e+003, 5.339909e-003
2.655499e+003, 4.869019e-003
2.657427e+003, 4.261206e-003
2.659355e+003, 4.096396e-003
2.661284e+003, 3.961867e-003
2.663212e+003, 4.027982e-003
2.665141e+003, 3.896839e-003
2.667069e+003, 3.835073e-003
2.668998e+003, 3.741684e-003
2.670926e+003, 3.475367e-003
2.672855e+003, 3.629990e-003
2.674783e+003, 3.671361e-003
2.676712e+003, 3.851029e-003
2.678640e+003, 4.047640e-003
2.680569e+003, 4.139983e-003
2.682497e+003, 3.697361e-003
2.684426e+003, 2.997229e-003
2.686354e+003, 3.231185e-003
2.688282e+003, 4.422330e-003
2.690211e+003, 4.501116e-003
2.692139e+003, 4.344154e-003
2.694068e+003, 3.961015e-003
2.695996e+003, 3.877393e-003
2.697925e+003, 3.869638e-003
2.699853e+003, 3.939863e-003
2.701782e+003, 4.500252e-003
2.703710e+003, 4.334641e-003
2.705639e+003, 3.979406e-003
2.707567e+003, 4.258554e-003
2.709496e+003, 4.174453e-003
2.711424e+003, 3.868771e-003
2.713353e+003, 3.509764e-003
2.715281e+003, 3.720263e-003
2.717209e+003, 4.205515e-003
2.719138e+003, 4.195683e-003
2.721066e+003, 4.066563e-003
2.722995e+003, 4.307819e-003
2.724923e+003, 4.868869e-003
2.726852e+003, 5.196250e-003
2.728780e+003, 4.457951e-003
2.730709e+003, 3.815143e-003
2.732637e+003, 4.032101e-003
2.734566e+003, 4.140618e-003
2.736494e+003, 4.110046e-003
2.738423e+003, 4.072184e-003
2.740351e+003, 4.150829e-003
2.742280e+003, 3.808609e-003
2.744208e+003, 3.947975e-003
2.746136e+003, 4.719542e-003
2.748065e+003, 4.582631e-003
2.749993e+003, 3.870687e-003
2.751922e+003, 3.974712e-003
2.753850e+003, 4.591902e-003
2.755779e+003, 4.166518e-003
2.757707e+003, 4.199827e-003
2.759636e+003, 5.070560e-003
2.761564e+003, 5.142275e-003
2.763493e+003, 4.598725e-003
2.765421e+003, 4.367889e-003
2.767350e+003, 4.433780e-003
2.769278e+003, 4.610235e-003
2.771207e+003, 5.066474e-003
2.773135e+003, 4.967859e-003
2.775063e+003, 4.426329e-003
2.776992e+003, 4.422656e-003
2.778920e+003, 4.142998e-003
2.780849e+003, 4.117975e-003
2.782777e+003, 4.207014e-003
2.784706e+003, 4.664118e-003
2.786634e+003, 4.868060e-003
2.788563e+003, 4.231314e-003
2.790491e+003, 4.117058e-003
2.792420e+003, 4.435105e-003
2.794348e+003, 4.106638e-003
2.796277e+003, 4.158538e-003
2.798205e+003, 4.608889e-003
2.800134e+003, 4.566900e-003
2.802062e+003, 4.449127e-003
2.803990e+003, 4.408619e-003
2.805919e+003, 4.588528e-003
2.807847e+003, 4.642127e-003
2.809776e+003, 4.934783e-003
2.811704e+003, 4.857319e-003
2.813633e+003, 4.740985e-003
2.815561e+003, 5.239435e-003
2.817490e+003, 5.231741e-003
2.819418e+003, 4.753568e-003
2.821347e+003, 4.646855e-003
2.823275e+003, 5.708138e-003
2.825204e+003, 5.947433e-003
2.827132e+003, 5.314433e-003
2.829061e+003, 5.186275e-003
2.830989e+003, 5.232355e-003
2.832917e+003, 5.648615e-003
2.834846e+003, 5.429441e-003
2.836774e+003, 4.813566e-003
2.838703e+003, 5.360986e-003
2.840631e+003, 6.378551e-003
2.842560e+003, 6.403093e-003
2.844488e+003, 5.364865e-003
2.846417e+003, 4.532408e-003
2.848345e+003, 5.081877e-003
2.850274e+003, 5.423340e-003
2.852202e+003, 4.361595e-003
2.854131e+003, 3.935805e-003
2.856059e+003, 4.903038e-003
2.857988e+003, 5.956884e-003
2.859916e+003, 6.236043e-003
2.861844e+003, 6.245890e-003
2.863773e+003, 6.055216e-003
2.865701e+003, 6.122212e-003
2.867630e+003, 6.413910e-003
2.869558e+003, 7.126083e-003
2.871487e+003, 6.733609e-003
2.873415e+003, 5.914095e-003
2.875344e+003, 6.028283e-003
2.877272e+003, 6.678609e-003
2.879201e+003, 7.235846e-003
2.881129e+003, 7.487457e-003
2.883058e+003, 7.611792e-003
2.884986e+003, 7.653744e-003
2.886915e+003, 7.280387e-003
2.888843e+003, 6.729363e-003
2.890771e+003, 7.184558e-003
2.892700e+003, 7.652206e-003
2.894628e+003, 7.458732e-003
2.896557e+003, 6.802232e-003
2.898485e+003, 6.248666e-003
2.900414e+003, 5.594437e-003
2.902342e+003, 6.831236e-003
2.904271e+003, 8.070402e-003
2.906199e+003, 7.697435e-003
2.908128e+003, 7.359167e-003
2.910056e+003, 7.027810e-003
2.911985e+003, 6.973178e-003
2.913913e+003, 6.962021e-003
2.915842e+003, 6.471628e-003
2.917770e+003, 6.954238e-003
2.919698e+003, 7.562403e-003
2.921627e+003, 6.922094e-003
2.923555e+003, 6.616183e-003
2.925484e+003, 7.463611e-003
2.927412e+003, 7.797185e-003
2.929341e+003, 7.571871e-003
2.931269e+003, 8.240769e-003
2.933198e+003, 8.320559e-003
2.935126e+003, 7.956196e-003
2.937055e+003, 7.989577e-003
2.938983e+003, 8.652955e-003
2.940912e+003, 9.373323e-003
2.942840e+003, 9.754593e-003
2.944769e+003, 9.443453e-003
2.946697e+003, 9.309737e-003
2.948625e+003, 8.758237e-003
2.950554e+003, 7.954394e-003
2.952482e+003, 7.752111e-003
2.954411e+003, 8.143796e-003
2.956339e+003, 8.305777e-003
2.958268e+003, 8.198207e-003
2.960196e+003, 8.591739e-003
2.962125e+003, 9.362383e-003
2.964053e+003, 9.747809e-003
2.965982e+003, 1.034216e-002
2.967910e+003, 1.088407e-002
2.969839e+003, 1.081949e-002
2.971767e+003, 1.055632e-002
2.973696e+003, 1.035726e-002
2.975624e+003, 9.401708e-003
2.977552e+003, 8.379593e-003
2.979481e+003, 8.700306e-003
2.981409e+003, 9.860438e-003
2.983338e+003, 1.063797e-002
2.985266e+003, 1.058375e-002
2.987195e+003, 1.009557e-002
2.989123e+003, 1.020962e-002
2.991052e+003, 1.032158e-002
2.992980e+003, 1.067215e-002
2.994909e+003, 1.084459e-002
2.996837e+003, 9.793439e-003
2.998766e+003, 9.104626e-003
3.000694e+003, 9.831608e-003
3.002623e+003, 1.006896e-002
3.004551e+003, 9.565096e-003
3.006479e+003, 9.816650e-003
3.008408e+003, 1.067342e-002
3.010336e+003, 1.089178e-002
3.012265e+003, 1.087450e-002
3.014193e+003, 1.052420e-002
3.016122e+003, 1.012712e-002
3.018050e+003, 1.035886e-002
3.019979e+003, 1.108529e-002
3.021907e+003, 1.094488e-002
3.023836e+003, 1.072068e-002
3.025764e+003, 1.073817e-002
3.027693e+003, 1.163651e-002
3.029621e+003, 1.199760e-002
3.031550e+003, 1.178438e-002
3.033478e+003, 1.155824e-002
3.035406e+003, 1.133352e-002
3.037335e+003, 1.136082e-002
3.039263e+003, 1.177076e-002
3.041192e+003, 1.164029e-002
3.043120e+003, 1.106635e-002
3.045049e+003, 1.100340e-002
3.046977e+003, 1.146144e-002
3.048906e+003, 1.191462e-002
3.050834e+003, 1.159485e-002
3.052763e+003, 1.119319e-002
3.054691e+003, 1.224787e-002
3.056620e+003, 1.263251e-002
3.058548e+003, 1.263375e-002
3.060477e+003, 1.292185e-002
3.062405e+003, 1.261839e-002
3.064333e+003, 1.216918e-002
3.066262e+003, 1.234216e-002
3.068190e+003, 1.292434e-002
3.070119e+003, 1.309234e-002
3.072047e+003, 1.214468e-002
3.073976e+003, 1.187184e-002
3.075904e+003, 1.276345e-002
3.077833e+003, 1.291971e-002
3.079761e+003, 1.290632e-002
3.081690e+003, 1.261115e-002
3.083618e+003, 1.261260e-002
3.085547e+003, 1.339505e-002
3.087475e+003, 1.374853e-002
3.089404e+003, 1.420957e-002
3.091332e+003, 1.392872e-002
3.093260e+003, 1.379114e-002
3.095189e+003, 1.371332e-002
3.097117e+003, 1.353309e-002
3.099046e+003, 1.376536e-002
3.100974e+003, 1.432815e-002
3.102903e+003, 1.440601e-002
3.104831e+003, 1.414400e-002
3.106760e+003, 1.404086e-002
3.108688e+003, 1.410812e-002
3.110617e+003, 1.402416e-002
3.112545e+003, 1.369454e-002
3.114474e+003, 1.461826e-002
3.116402e+003, 1.496005e-002
3.118331e+003, 1.489031e-002
3.120259e+003, 1.582685e-002
3.122188e+003, 1.552745e-002
3.124116e+003, 1.532945e-002
3.126044e+003, 1.477167e-002
3.127973e+003, 1.477808e-002
3.129901e+003, 1.544865e-002
3.131830e+003, 1.585640e-002
3.133758e+003, 1.589684e-002
3.135687e+003, 1.664304e-002
3.137615e+003, 1.744965e-002
3.139544e+003, 1.755877e-002
3.141472e+003, 1.790985e-002
3.143401e+003, 1.943882e-002
3.145329e+003, 1.983673e-002
3.147258e+003, 1.901371e-002
3.149186e+003, 1.812845e-002
3.151115e+003, 1.881598e-002
3.153043e+003, 2.045883e-002
3.154971e+003, 2.110800e-002
3.156900e+003, 2.091114e-002
3.158828e+003, 2.057891e-002
3.160757e+003, 2.035943e-002
3.162685e+003, 2.120351e-002
3.164614e+003, 2.255107e-002
3.166542e+003, 2.251842e-002
3.168471e+003, 2.271652e-002
3.170399e+003, 2.390450e-002
3.172328e+003, 2.496235e-002
3.174256e+003, 2.544501e-002
3.176185e+003, 2.569755e-002
3.178113e+003, 2.639516e-002
3.180042e+003, 2.743189e-002
3.181970e+003, 2.859856e-002
3.183898e+003, 2.909267e-002
3.185827e+003, 3.017812e-002
3.187755e+003, 3.153680e-002
3.189684e+003, 3.233164e-002
3.191612e+003, 3.168011e-002
3.193541e+003, 3.168654e-002
3.195469e+003, 3.222552e-002
3.197398e+003, 3.236590e-002
3.199326e+003, 3.214777e-002
3.201255e+003, 3.167104e-002
3.203183e+003, 3.122403e-002
3.205112e+003, 3.080167e-002
3.207040e+003, 3.063160e-002
3.208969e+003, 3.066255e-002
3.210897e+003, 3.066814e-002
3.212825e+003, 3.103822e-002
3.214754e+003, 3.027134e-002
3.216682e+003, 2.908983e-002
3.218611e+003, 2.898333e-002
3.220539e+003, 2.980557e-002
3.222468e+003, 2.947279e-002
3.224396e+003, 2.738420e-002
3.226325e+003, 2.692305e-002
3.228253e+003, 2.819767e-002
3.230182e+003, 2.885626e-002
3.232110e+003, 2.786458e-002
3.234039e+003, 2.752480e-002
3.235967e+003, 2.792926e-002
3.237896e+003, 2.935051e-002
3.239824e+003, 2.942673e-002
3.241752e+003, 2.820257e-002
3.243681e+003, 2.747415e-002
3.245609e+003, 2.741461e-002
3.247538e+003, 2.767088e-002
3.249466e+003, 2.821471e-002
3.251395e+003, 2.920877e-002
3.253323e+003, 2.940442e-002
3.255252e+003, 2.954365e-002
3.257180e+003, 3.017007e-002
3.259109e+003, 2.957153e-002
3.261037e+003, 2.914963e-002
3.262966e+003, 2.984536e-002
3.264894e+003, 2.979848e-002
3.266823e+003, 2.950947e-002
3.268751e+003, 2.997466e-002
3.270679e+003, 3.060780e-002
3.272608e+003, 3.013760e-002
3.274536e+003, 2.924683e-002
3.276465e+003, 2.885569e-002
3.278393e+003, 2.870664e-002
3.280322e+003, 2.805901e-002
3.282250e+003, 2.747639e-002
3.284179e+003, 2.658300e-002
3.286107e+003, 2.631743e-002
3.288036e+003, 2.640155e-002
3.289964e+003, 2.635318e-002
3.291893e+003, 2.589153e-002
3.293821e+003, 2.551904e-002
3.295750e+003, 2.610732e-002
3.297678e+003, 2.567085e-002
3.299606e+003, 2.531787e-002
3.301535e+003, 2.477092e-002
3.303463e+003, 2.440442e-002
3.305392e+003, 2.393232e-002
3.307320e+003, 2.517693e-002
3.309249e+003, 2.588865e-002
3.311177e+003, 2.522888e-002
3.313106e+003, 2.530133e-002
3.315034e+003, 2.526895e-002
3.316963e+003, 2.516003e-002
3.318891e+003, 2.580297e-002
3.320820e+003, 2.733696e-002
3.322748e+003, 2.847024e-002
3.324677e+003, 2.803172e-002
3.326605e+003, 2.757892e-002
3.328533e+003, 2.888888e-002
3.330462e+003, 2.948578e-002
3.332390e+003, 3.013845e-002
3.334319e+003, 3.215905e-002
3.336247e+003, 3.253805e-002
3.338176e+003, 3.322107e-002
3.340104e+003, 3.464663e-002
3.342033e+003, 3.538845e-002
3.343961e+003, 3.686232e-002
3.345890e+003, 3.930768e-002
3.347818e+003, 4.031953e-002
3.349747e+003, 3.990053e-002
3.351675e+003, 4.073144e-002
3.353604e+003, 4.153264e-002
3.355532e+003, 4.157878e-002
3.357460e+003, 4.190533e-002
3.359389e+003, 4.184156e-002
3.361317e+003, 4.141567e-002
3.363246e+003, 4.258545e-002
3.365174e+003, 4.373796e-002
3.367103e+003, 4.377286e-002
3.369031e+003, 4.378160e-002
3.370960e+003, 4.325341e-002
3.372888e+003, 4.262533e-002
3.374817e+003, 4.359755e-002
3.376745e+003, 4.381678e-002
3.378674e+003, 4.386312e-002
3.380602e+003, 4.361220e-002
3.382531e+003, 4.346129e-002
3.384459e+003, 4.494592e-002
3.386387e+003, 4.523914e-002
3.388316e+003, 4.488939e-002
3.390244e+003, 4.537253e-002
3.392173e+003, 4.597114e-002
3.394101e+003, 4.583191e-002
3.396030e+003, 4.422273e-002
3.397958e+003, 4.282819e-002
3.399887e+003, 4.322881e-002
3.401815e+003, 4.282399e-002
3.403744e+003, 4.139429e-002
3.405672e+003, 3.979337e-002
3.407601e+003, 3.775059e-002
3.409529e+003, 3.661451e-002
3.411458e+003, 3.598044e-002
3.413386e+003, 3.556130e-002
3.415314e+003, 3.481399e-002
3.417243e+003, 3.269497e-002
3.419171e+003, 3.220369e-002
3.421100e+003, 3.211127e-002
3.423028e+003, 3.214017e-002
3.424957e+003, 3.196263e-002
3.426885e+003, 3.070213e-002
3.428814e+003, 3.047856e-002
3.430742e+003, 2.978820e-002
3.432671e+003, 3.045537e-002
3.434599e+003, 3.074163e-002
3.436528e+003, 3.135969e-002
3.438456e+003, 3.206056e-002
3.440385e+003, 3.014156e-002
3.442313e+003, 2.908932e-002
3.444241e+003, 2.969015e-002
3.446170e+003, 3.078336e-002
3.448098e+003, 3.152038e-002
3.450027e+003, 3.127050e-002
3.451955e+003, 3.089328e-002
3.453884e+003, 3.113976e-002
3.455812e+003, 3.109658e-002
3.457741e+003, 3.069072e-002
3.459669e+003, 3.078031e-002
3.461598e+003, 3.202765e-002
3.463526e+003, 3.252558e-002
3.465455e+003, 3.256217e-002
3.467383e+003, 3.274943e-002
3.469312e+003, 3.251355e-002
3.471240e+003, 3.134593e-002
3.473168e+003, 3.028654e-002
3.475097e+003, 3.050262e-002
3.477025e+003, 3.148537e-002
3.478954e+003, 3.074139e-002
3.480882e+003, 2.995334e-002
3.482811e+003, 3.007850e-002
3.484739e+003, 2.932803e-002
3.486668e+003, 2.909470e-002
3.488596e+003, 2.948983e-002
3.490525e+003, 2.822548e-002
3.492453e+003, 2.706457e-002
3.494382e+003, 2.778970e-002
3.496310e+003, 3.019966e-002
3.498239e+003, 3.146762e-002
3.500167e+003, 3.126094e-002
3.502095e+003, 3.126232e-002
3.504024e+003, 3.088558e-002
3.505952e+003, 3.154109e-002
3.507881e+003, 3.360579e-002
3.509809e+003, 3.443418e-002
3.511738e+003, 3.422109e-002
3.513666e+003, 3.527501e-002
3.515595e+003, 3.725630e-002
3.517523e+003, 4.006749e-002
3.519452e+003, 4.117291e-002
3.521380e+003, 4.077712e-002
3.523309e+003, 4.304074e-002
3.525237e+003, 4.660056e-002
3.527166e+003, 4.719149e-002
3.529094e+003, 4.604125e-002
3.531022e+003, 4.630886e-002
3.532951e+003, 4.653302e-002
3.534879e+003, 4.614419e-002
3.536808e+003, 4.691922e-002
3.538736e+003, 4.528392e-002
3.540665e+003, 4.299837e-002
3.542593e+003, 4.016010e-002
3.544522e+003, 3.711964e-002
3.546450e+003, 3.684523e-002
3.548379e+003, 3.698019e-002
3.550307e+003, 3.566206e-002
3.552236e+003, 3.318045e-002
3.554164e+003, 3.174677e-002
3.556093e+003, 3.045320e-002
3.558021e+003, 3.042865e-002
3.559949e+003, 3.133000e-002
3.561878e+003, 3.079296e-002
3.563806e+003, 2.886843e-002
3.565735e+003, 2.631845e-002
3.567663e+003, 2.524918e-002
3.569592e+003, 2.618531e-002
3.571520e+003, 2.468424e-002
3.573449e+003, 2.370596e-002
3.575377e+003, 2.384755e-002
3.577306e+003, 2.290709e-002
3.579234e+003, 2.188630e-002
3.581163e+003, 2.007651e-002
3.583091e+003, 1.806586e-002
3.585020e+003, 1.817780e-002
3.586948e+003, 1.920057e-002
3.588876e+003, 1.845072e-002
3.590805e+003, 1.756459e-002
3.592733e+003, 1.772913e-002
3.594662e+003, 1.618898e-002
3.596590e+003, 1.504599e-002
3.598519e+003, 1.554353e-002
3.600447e+003, 1.630488e-002
3.602376e+003, 1.644395e-002
3.604304e+003, 1.533936e-002
3.606233e+003, 1.387041e-002
3.608161e+003, 1.299227e-002
3.610090e+003, 1.205448e-002
3.612018e+003, 1.068375e-002
3.613947e+003, 9.227416e-003
3.615875e+003, 8.709378e-003
3.617803e+003, 8.876728e-003
3.619732e+003, 8.578717e-003
3.621660e+003, 8.501000e-003
3.623589e+003, 8.699689e-003
3.625517e+003, 7.629641e-003
3.627446e+003, 7.069426e-003
3.629374e+003, 8.386220e-003
3.631303e+003, 8.866352e-003
3.633231e+003, 6.631660e-003
3.635160e+003, 6.762478e-003
3.637088e+003, 6.681717e-003
3.639017e+003, 5.388073e-003
3.640945e+003, 4.625536e-003
3.642874e+003, 5.546294e-003
3.644802e+003, 5.700086e-003
3.646730e+003, 4.402845e-003
3.648659e+003, 5.741146e-003
3.650587e+003, 6.183461e-003
3.652516e+003, 4.743808e-003
3.654444e+003, 4.629396e-003
3.656373e+003, 5.831836e-003
3.658301e+003, 5.098864e-003
3.660230e+003, 3.206232e-003
3.662158e+003, 2.420759e-003
3.664087e+003, 2.356811e-003
3.666015e+003, 3.176050e-003
3.667944e+003, 3.809535e-003
3.669872e+003, 3.907067e-003
3.671801e+003, 2.950389e-003
3.673729e+003, 2.082211e-003
3.675657e+003, 2.811507e-003
3.677586e+003, 3.664471e-003
3.679514e+003, 3.029602e-003
3.681443e+003, 3.078528e-003
3.683371e+003, 3.863899e-003
3.685300e+003, 3.568311e-003
3.687228e+003, 1.839280e-003
3.689157e+003, 1.664964e-004
3.691085e+003, 5.216955e-005
3.693014e+003, 2.063129e-003
3.694942e+003, 1.588498e-003
3.696871e+003, 2.389115e-004
3.698799e+003, 1.480768e-003
3.700728e+003, 2.934241e-003
3.702656e+003, 2.511616e-003
3.704584e+003, 3.635046e-003
3.706513e+003, 4.388788e-003
3.708441e+003, 3.915472e-003
3.710370e+003, 3.005966e-003
3.712298e+003, 2.660446e-003
3.714227e+003, 7.850711e-004
3.716155e+003, 1.029522e-003
3.718084e+003, 1.667751e-003
3.720012e+003, 2.645053e-003
3.721941e+003, 2.489422e-003
3.723869e+003, 2.194606e-003
3.725798e+003, 1.920549e-003
3.727726e+003, 2.328200e-003
3.729655e+003, 2.018231e-003
3.731583e+003, 2.501182e-003
3.733511e+003, 3.606424e-003
3.735440e+003, 1.998573e-003
3.737368e+003, 1.184789e-003
3.739297e+003, 2.226041e-003
3.741225e+003, 2.430909e-003
3.743154e+003, 1.522523e-003
3.745082e+003, 1.959807e-003
3.747011e+003, 3.313847e-003
3.748939e+003, 3.909192e-003
3.750868e+003, 2.878382e-003
3.752796e+003, 2.768756e-003
3.754725e+003, 4.090883e-003
3.756653e+003, 4.674259e-003
3.758582e+003, 3.072081e-003
3.760510e+003, 1.958032e-003
3.762438e+003, 1.775010e-003
3.764367e+003, 1.439089e-003
3.766295e+003, 2.052918e-003
3.768224e+003, 1.592582e-003
3.770152e+003, 1.064915e-003
3.772081e+003, 1.693721e-003
3.774009e+003, 3.246157e-003
3.775938e+003, 3.954311e-003
3.777866e+003, 4.791341e-003
3.779795e+003, 4.660149e-003
3.781723e+003, 3.659549e-003
3.783652e+003, 3.521746e-003
3.785580e+003, 4.368836e-003
3.787509e+003, 3.103854e-003
3.789437e+003, 2.356776e-003
3.791365e+003, 4.377255e-003
3.793294e+003, 3.598757e-003
3.795222e+003, 2.856777e-003
3.797151e+003, 3.931092e-003
3.799079e+003, 5.328998e-003
3.801008e+003, 6.359495e-003
3.802936e+003, 6.088847e-003
3.804865e+003, 3.788892e-003
3.806793e+003, 1.270900e-003
3.808722e+003, 6.233766e-004
3.810650e+003, 3.159408e-003
3.812579e+003, 5.319053e-003
3.814507e+003, 5.339669e-003
3.816436e+003, 6.329447e-003
3.818364e+003, 7.945299e-003
3.820292e+003, 6.771963e-003
3.822221e+003, 4.199846e-003
3.824149e+003, 3.880368e-003
3.826078e+003, 2.404585e-003
3.828006e+003, 2.239725e-003
3.829935e+003, 2.906725e-003
3.831863e+003, 2.972947e-003
3.833792e+003, 4.210636e-003
3.835720e+003, 5.206829e-003
3.837649e+003, 4.497797e-003
3.839577e+003, 3.289283e-003
3.841506e+003, 3.248001e-003
3.843434e+003, 3.303811e-003
3.845363e+003, 2.987115e-003
3.847291e+003, 3.319126e-003
3.849219e+003, 3.476023e-003
3.851148e+003, 3.343578e-003
3.853076e+003, 2.285499e-003
3.855005e+003, 3.028296e-003
3.856933e+003, 3.225275e-003
3.858862e+003, 2.040235e-003
3.860790e+003, 1.777301e-003
3.862719e+003, 1.140334e-003
3.864647e+003, 4.175821e-004
3.866576e+003, 1.270935e-004
3.868504e+003, 1.149176e-003
3.870433e+003, 1.907667e-003
3.872361e+003, 1.849771e-003
3.874290e+003, 2.652943e-003
3.876218e+003, 4.567630e-003
3.878146e+003, 6.389257e-003
3.880075e+003, 5.450540e-003
3.882003e+003, 4.825326e-003
3.883932e+003, 4.958477e-003
3.885860e+003, 5.313738e-003
3.887789e+003, 4.617108e-003
3.889717e+003, 3.853231e-003
3.891646e+003, 3.903834e-003
3.893574e+003, 3.549302e-003
3.895503e+003, 3.043542e-003
3.897431e+003, 2.820808e-003
3.899360e+003, 1.586300e-003
3.901288e+003, 1.374717e-003
3.903217e+003, 3.303448e-003
3.905145e+003, 4.307011e-003
3.907073e+003, 4.697446e-003
3.909002e+003, 3.334931e-003
3.910930e+003, 3.302941e-003
3.912859e+003, 4.067404e-003
3.914787e+003, 5.071913e-003
3.916716e+003, 5.249491e-003
3.918644e+003, 4.450245e-003
3.920573e+003, 4.483527e-003
3.922501e+003, 4.083065e-003
3.924430e+003, 3.611608e-003
3.926358e+003, 2.805808e-003
3.928287e+003, 3.195373e-003
3.930215e+003, 4.312677e-003
3.932144e+003, 2.966994e-003
3.934072e+003, 2.217900e-003
3.936000e+003, 1.448066e-003
3.937929e+003, 7.882516e-004
3.939857e+003, 1.602275e-003
3.941786e+003, 2.123781e-003
3.943714e+003, 2.577961e-003
3.945643e+003, 2.613284e-003
3.947571e+003, 2.710508e-003
3.949500e+003, 2.073369e-003
3.951428e+003, 2.646938e-003
3.953357e+003, 3.079116e-003
3.955285e+003, 4.017088e-003
3.957214e+003, 4.462463e-003
3.959142e+003, 5.004104e-003
3.961071e+003, 4.899364e-003
3.962999e+003, 3.197894e-003
3.964927e+003, 1.681685e-003
3.966856e+003, 2.554925e-003
3.968784e+003, 4.133909e-003
3.970713e+003, 5.029439e-003
3.972641e+003, 4.272827e-003
3.974570e+003, 3.092885e-003
3.976498e+003, 2.795172e-003
3.978427e+003, 2.292688e-003
3.980355e+003, 3.383174e-003
3.982284e+003, 3.547588e-003
3.984212e+003, 3.756654e-003
3.986141e+003, 4.523169e-003
3.988069e+003, 4.686785e-003
3.989998e+003, 2.973346e-003
3.991926e+003, 2.555789e-003
3.993854e+003, 3.894464e-003
3.995783e+003, 5.045111e-003
3.997711e+003, 5.418273e-003
3.999640e+003, 5.420887e-003
##END=



