##NAMES=Montebrasite
##RRUFFID=R040060
##IDEAL CHEMISTRY=LiAlPO_4_(OH)
##LOCALITY=Oxford County, Maine, USA
##OWNER=RRUFF
##SOURCE=University of Arizona Mineral Museum
##DESCRIPTION=White massive
##STATUS=The identification of this mineral has been confirmed by X-ray diffraction and chemical analysis
##URL=rruff.info/R040060
##MEASURED CHEMISTRY=LiAl(PO_4_)((OH)_0.79_F_0.21_)
3.991926e+002, 0.000000e+000
4.011211e+002, 2.390541e-001
4.030496e+002, 2.402010e-001
4.049780e+002, 2.394628e-001
4.069065e+002, 2.354637e-001
4.088350e+002, 2.343579e-001
4.107634e+002, 2.320724e-001
4.126919e+002, 2.245083e-001
4.146204e+002, 2.227975e-001
4.165488e+002, 2.206583e-001
4.184773e+002, 2.166651e-001
4.204058e+002, 2.093413e-001
4.223342e+002, 2.007753e-001
4.242627e+002, 1.935018e-001
4.261912e+002, 1.910117e-001
4.281196e+002, 1.903591e-001
4.300481e+002, 1.903332e-001
4.319766e+002, 1.879501e-001
4.339050e+002, 1.899247e-001
4.358335e+002, 1.912694e-001
4.377620e+002, 1.918721e-001
4.396904e+002, 1.917381e-001
4.416189e+002, 1.952774e-001
4.435474e+002, 1.971398e-001
4.454758e+002, 1.986253e-001
4.474043e+002, 1.993894e-001
4.493328e+002, 2.012994e-001
4.512612e+002, 2.026965e-001
4.531897e+002, 2.044290e-001
4.551182e+002, 2.072027e-001
4.570466e+002, 2.111251e-001
4.589751e+002, 2.141478e-001
4.609036e+002, 2.160393e-001
4.628320e+002, 2.196533e-001
4.647605e+002, 2.240740e-001
4.666890e+002, 2.251738e-001
4.686174e+002, 2.270671e-001
4.705459e+002, 2.275825e-001
4.724744e+002, 2.264932e-001
4.744028e+002, 2.241104e-001
4.763313e+002, 2.222767e-001
4.782598e+002, 2.211750e-001
4.801882e+002, 2.193161e-001
4.821167e+002, 2.158601e-001
4.840452e+002, 2.126306e-001
4.859736e+002, 2.087331e-001
4.879021e+002, 2.067210e-001
4.898306e+002, 2.044804e-001
4.917590e+002, 2.008514e-001
4.936875e+002, 1.970717e-001
4.956160e+002, 1.936959e-001
4.975444e+002, 1.897771e-001
4.994729e+002, 1.861806e-001
5.014014e+002, 1.819350e-001
5.033298e+002, 1.774813e-001
5.052583e+002, 1.746055e-001
5.071868e+002, 1.719126e-001
5.091152e+002, 1.694088e-001
5.110437e+002, 1.670116e-001
5.129722e+002, 1.638682e-001
5.149006e+002, 1.617242e-001
5.168291e+002, 1.598863e-001
5.187576e+002, 1.591795e-001
5.206860e+002, 1.598518e-001
5.226145e+002, 1.613056e-001
5.245430e+002, 1.638523e-001
5.264714e+002, 1.647791e-001
5.283999e+002, 1.644828e-001
5.303284e+002, 1.634752e-001
5.322568e+002, 1.609914e-001
5.341853e+002, 1.587073e-001
5.361138e+002, 1.557519e-001
5.380422e+002, 1.523459e-001
5.399707e+002, 1.497157e-001
5.418992e+002, 1.472086e-001
5.438276e+002, 1.446054e-001
5.457561e+002, 1.420736e-001
5.476846e+002, 1.396400e-001
5.496130e+002, 1.381748e-001
5.515415e+002, 1.370443e-001
5.534700e+002, 1.359655e-001
5.553984e+002, 1.350577e-001
5.573269e+002, 1.340005e-001
5.592554e+002, 1.338078e-001
5.611838e+002, 1.344896e-001
5.631123e+002, 1.345140e-001
5.650408e+002, 1.345027e-001
5.669692e+002, 1.356873e-001
5.688977e+002, 1.376825e-001
5.708262e+002, 1.412839e-001
5.727546e+002, 1.462259e-001
5.746831e+002, 1.503846e-001
5.766116e+002, 1.548859e-001
5.785400e+002, 1.603127e-001
5.804685e+002, 1.657167e-001
5.823970e+002, 1.706519e-001
5.843254e+002, 1.732965e-001
5.862539e+002, 1.738389e-001
5.881824e+002, 1.736926e-001
5.901108e+002, 1.720902e-001
5.920393e+002, 1.690608e-001
5.939678e+002, 1.656605e-001
5.958962e+002, 1.624344e-001
5.978247e+002, 1.593729e-001
5.997532e+002, 1.556401e-001
6.016816e+002, 1.511560e-001
6.036101e+002, 1.476724e-001
6.055386e+002, 1.459448e-001
6.074670e+002, 1.450667e-001
6.093955e+002, 1.439525e-001
6.113240e+002, 1.429294e-001
6.132524e+002, 1.418192e-001
6.151809e+002, 1.410060e-001
6.171094e+002, 1.403881e-001
6.190378e+002, 1.398153e-001
6.209663e+002, 1.385335e-001
6.228948e+002, 1.365262e-001
6.248232e+002, 1.344180e-001
6.267517e+002, 1.324483e-001
6.286802e+002, 1.299929e-001
6.306086e+002, 1.267103e-001
6.325371e+002, 1.235062e-001
6.344656e+002, 1.204849e-001
6.363940e+002, 1.172968e-001
6.383225e+002, 1.139679e-001
6.402510e+002, 1.102726e-001
6.421794e+002, 1.066923e-001
6.441079e+002, 1.034511e-001
6.460364e+002, 9.996433e-002
6.479648e+002, 9.627881e-002
6.498933e+002, 9.300251e-002
6.518218e+002, 9.053032e-002
6.537502e+002, 8.851720e-002
6.556787e+002, 8.654916e-002
6.576072e+002, 8.480822e-002
6.595356e+002, 8.336639e-002
6.614641e+002, 8.150627e-002
6.633926e+002, 7.923777e-002
6.653210e+002, 7.650995e-002
6.672495e+002, 7.414474e-002
6.691780e+002, 7.155582e-002
6.711064e+002, 6.900920e-002
6.730349e+002, 6.697892e-002
6.749634e+002, 6.533682e-002
6.768918e+002, 6.390399e-002
6.788203e+002, 6.228883e-002
6.807488e+002, 6.061786e-002
6.826772e+002, 5.865580e-002
6.846057e+002, 5.651482e-002
6.865342e+002, 5.489097e-002
6.884626e+002, 5.308955e-002
6.903911e+002, 5.108983e-002
6.923196e+002, 4.945051e-002
6.942480e+002, 4.786057e-002
6.961765e+002, 4.639214e-002
6.981050e+002, 4.515246e-002
7.000334e+002, 4.388949e-002
7.019619e+002, 4.283248e-002
7.038904e+002, 4.194620e-002
7.058188e+002, 4.122953e-002
7.077473e+002, 4.064451e-002
7.096758e+002, 4.020226e-002
7.116042e+002, 3.967186e-002
7.135327e+002, 3.935676e-002
7.154612e+002, 3.934008e-002
7.173896e+002, 3.916387e-002
7.193181e+002, 3.906745e-002
7.212466e+002, 3.894741e-002
7.231750e+002, 3.893156e-002
7.251035e+002, 3.907293e-002
7.270320e+002, 3.915480e-002
7.289604e+002, 3.924781e-002
7.308889e+002, 3.927692e-002
7.328174e+002, 3.936106e-002
7.347458e+002, 3.957818e-002
7.366743e+002, 3.985232e-002
7.386028e+002, 4.016438e-002
7.405313e+002, 3.992910e-002
7.424597e+002, 3.986049e-002
7.443882e+002, 3.997769e-002
7.463167e+002, 4.019835e-002
7.482451e+002, 4.017211e-002
7.501736e+002, 3.976691e-002
7.521021e+002, 3.988616e-002
7.540305e+002, 4.051897e-002
7.559590e+002, 4.113651e-002
7.578875e+002, 4.138119e-002
7.598159e+002, 4.172903e-002
7.617444e+002, 4.250819e-002
7.636729e+002, 4.353875e-002
7.656013e+002, 4.441101e-002
7.675298e+002, 4.533365e-002
7.694583e+002, 4.650105e-002
7.713867e+002, 4.783387e-002
7.733152e+002, 4.952486e-002
7.752437e+002, 5.136976e-002
7.771721e+002, 5.348048e-002
7.791006e+002, 5.605786e-002
7.810291e+002, 5.894504e-002
7.829575e+002, 6.162651e-002
7.848860e+002, 6.452163e-002
7.868145e+002, 6.793690e-002
7.887429e+002, 7.155690e-002
7.906714e+002, 7.516851e-002
7.925999e+002, 7.840921e-002
7.945283e+002, 8.184041e-002
7.964568e+002, 8.556429e-002
7.983853e+002, 8.867678e-002
8.003137e+002, 9.130010e-002
8.022422e+002, 9.342188e-002
8.041707e+002, 9.506010e-002
8.060991e+002, 9.644396e-002
8.080276e+002, 9.748860e-002
8.099561e+002, 9.733205e-002
8.118845e+002, 9.598206e-002
8.138130e+002, 9.426280e-002
8.157415e+002, 9.179632e-002
8.176699e+002, 8.895215e-002
8.195984e+002, 8.581024e-002
8.215269e+002, 8.200040e-002
8.234553e+002, 7.747558e-002
8.253838e+002, 7.281362e-002
8.273123e+002, 6.790348e-002
8.292407e+002, 6.287587e-002
8.311692e+002, 5.828651e-002
8.330977e+002, 5.408896e-002
8.350261e+002, 5.037937e-002
8.369546e+002, 4.730131e-002
8.388831e+002, 4.453958e-002
8.408115e+002, 4.219066e-002
8.427400e+002, 3.987604e-002
8.446685e+002, 3.807423e-002
8.465969e+002, 3.702506e-002
8.485254e+002, 3.610754e-002
8.504539e+002, 3.545053e-002
8.523823e+002, 3.541291e-002
8.543108e+002, 3.554614e-002
8.562393e+002, 3.537067e-002
8.581677e+002, 3.524406e-002
8.600962e+002, 3.530215e-002
8.620247e+002, 3.545011e-002
8.639531e+002, 3.600392e-002
8.658816e+002, 3.637957e-002
8.678101e+002, 3.676892e-002
8.697385e+002, 3.744426e-002
8.716670e+002, 3.826277e-002
8.735955e+002, 3.898506e-002
8.755239e+002, 3.992663e-002
8.774524e+002, 4.085036e-002
8.793809e+002, 4.192454e-002
8.813093e+002, 4.276288e-002
8.832378e+002, 4.378240e-002
8.851663e+002, 4.518720e-002
8.870947e+002, 4.644238e-002
8.890232e+002, 4.747985e-002
8.909517e+002, 4.875392e-002
8.928801e+002, 4.967562e-002
8.948085e+002, 5.037419e-002
8.967370e+002, 5.155711e-002
8.986655e+002, 5.264048e-002
9.005939e+002, 5.341790e-002
9.025224e+002, 5.402334e-002
9.044509e+002, 5.443835e-002
9.063793e+002, 5.471028e-002
9.083078e+002, 5.514494e-002
9.102363e+002, 5.563814e-002
9.121647e+002, 5.589632e-002
9.140932e+002, 5.602493e-002
9.160217e+002, 5.623455e-002
9.179501e+002, 5.673791e-002
9.198786e+002, 5.698480e-002
9.218071e+002, 5.728216e-002
9.237355e+002, 5.788532e-002
9.256640e+002, 5.866870e-002
9.275925e+002, 5.948547e-002
9.295209e+002, 6.040315e-002
9.314494e+002, 6.131235e-002
9.333779e+002, 6.204484e-002
9.353063e+002, 6.312484e-002
9.372348e+002, 6.425919e-002
9.391633e+002, 6.574335e-002
9.410917e+002, 6.762434e-002
9.430202e+002, 6.937794e-002
9.449487e+002, 7.122377e-002
9.468771e+002, 7.312275e-002
9.488056e+002, 7.539906e-002
9.507341e+002, 7.844868e-002
9.526625e+002, 8.170859e-002
9.545910e+002, 8.499425e-002
9.565195e+002, 8.872861e-002
9.584479e+002, 9.270547e-002
9.603764e+002, 9.704042e-002
9.623049e+002, 1.020193e-001
9.642333e+002, 1.079732e-001
9.661618e+002, 1.140793e-001
9.680903e+002, 1.207657e-001
9.700187e+002, 1.280158e-001
9.719472e+002, 1.358343e-001
9.738757e+002, 1.442460e-001
9.758041e+002, 1.530643e-001
9.777326e+002, 1.623524e-001
9.796611e+002, 1.722495e-001
9.815895e+002, 1.821697e-001
9.835180e+002, 1.925487e-001
9.854465e+002, 2.039604e-001
9.873749e+002, 2.156322e-001
9.893034e+002, 2.264986e-001
9.912319e+002, 2.362783e-001
9.931603e+002, 2.448883e-001
9.950888e+002, 2.515531e-001
9.970173e+002, 2.560881e-001
9.989457e+002, 2.591213e-001
1.000874e+003, 2.610757e-001
1.002803e+003, 2.625586e-001
1.004731e+003, 2.640179e-001
1.006660e+003, 2.653597e-001
1.008588e+003, 2.667349e-001
1.010517e+003, 2.678635e-001
1.012445e+003, 2.686372e-001
1.014373e+003, 2.691818e-001
1.016302e+003, 2.686657e-001
1.018230e+003, 2.666812e-001
1.020159e+003, 2.640262e-001
1.022087e+003, 2.602637e-001
1.024016e+003, 2.551704e-001
1.025944e+003, 2.501926e-001
1.027873e+003, 2.462432e-001
1.029801e+003, 2.435191e-001
1.031730e+003, 2.427169e-001
1.033658e+003, 2.450178e-001
1.035587e+003, 2.495465e-001
1.037515e+003, 2.553408e-001
1.039444e+003, 2.626544e-001
1.041372e+003, 2.715131e-001
1.043301e+003, 2.812255e-001
1.045229e+003, 2.914774e-001
1.047157e+003, 3.019767e-001
1.049086e+003, 3.118947e-001
1.051014e+003, 3.204547e-001
1.052943e+003, 3.274277e-001
1.054871e+003, 3.323714e-001
1.056800e+003, 3.355842e-001
1.058728e+003, 3.375596e-001
1.060657e+003, 3.381113e-001
1.062585e+003, 3.369728e-001
1.064514e+003, 3.346958e-001
1.066442e+003, 3.315589e-001
1.068371e+003, 3.271987e-001
1.070299e+003, 3.218710e-001
1.072228e+003, 3.164977e-001
1.074156e+003, 3.110978e-001
1.076084e+003, 3.050723e-001
1.078013e+003, 2.990274e-001
1.079941e+003, 2.933974e-001
1.081870e+003, 2.874599e-001
1.083798e+003, 2.807992e-001
1.085727e+003, 2.739203e-001
1.087655e+003, 2.666933e-001
1.089584e+003, 2.590992e-001
1.091512e+003, 2.508624e-001
1.093441e+003, 2.424401e-001
1.095369e+003, 2.338778e-001
1.097298e+003, 2.251905e-001
1.099226e+003, 2.166266e-001
1.101155e+003, 2.085523e-001
1.103083e+003, 2.008494e-001
1.105011e+003, 1.930378e-001
1.106940e+003, 1.857027e-001
1.108868e+003, 1.789400e-001
1.110797e+003, 1.722538e-001
1.112725e+003, 1.657922e-001
1.114654e+003, 1.600968e-001
1.116582e+003, 1.550880e-001
1.118511e+003, 1.506626e-001
1.120439e+003, 1.466224e-001
1.122368e+003, 1.427487e-001
1.124296e+003, 1.391224e-001
1.126225e+003, 1.351645e-001
1.128153e+003, 1.311546e-001
1.130082e+003, 1.273920e-001
1.132010e+003, 1.234992e-001
1.133938e+003, 1.195366e-001
1.135867e+003, 1.153582e-001
1.137795e+003, 1.111367e-001
1.139724e+003, 1.067767e-001
1.141652e+003, 1.023036e-001
1.143581e+003, 9.791350e-002
1.145509e+003, 9.360978e-002
1.147438e+003, 8.989646e-002
1.149366e+003, 8.672921e-002
1.151295e+003, 8.380116e-002
1.153223e+003, 8.098987e-002
1.155152e+003, 7.853467e-002
1.157080e+003, 7.681404e-002
1.159009e+003, 7.572382e-002
1.160937e+003, 7.483871e-002
1.162865e+003, 7.405851e-002
1.164794e+003, 7.316884e-002
1.166722e+003, 7.193410e-002
1.168651e+003, 7.055828e-002
1.170579e+003, 6.905677e-002
1.172508e+003, 6.743041e-002
1.174436e+003, 6.575875e-002
1.176365e+003, 6.415080e-002
1.178293e+003, 6.284384e-002
1.180222e+003, 6.149982e-002
1.182150e+003, 5.981397e-002
1.184079e+003, 5.796165e-002
1.186007e+003, 5.617216e-002
1.187936e+003, 5.426971e-002
1.189864e+003, 5.207290e-002
1.191792e+003, 4.964729e-002
1.193721e+003, 4.699147e-002
1.195649e+003, 4.419922e-002
1.197578e+003, 4.139930e-002
1.199506e+003, 3.838756e-002
1.201435e+003, 3.552851e-002
1.203363e+003, 3.271209e-002
1.205292e+003, 2.984355e-002
1.207220e+003, 2.726906e-002
1.209149e+003, 2.467917e-002
1.211077e+003, 2.243569e-002
1.213006e+003, 2.042322e-002
1.214934e+003, 1.840701e-002
1.216863e+003, 1.661884e-002
1.218791e+003, 1.528420e-002
1.220719e+003, 1.415736e-002
1.222648e+003, 1.295708e-002
1.224576e+003, 1.193200e-002
1.226505e+003, 1.093633e-002
1.228433e+003, 1.024113e-002
1.230362e+003, 9.844854e-003
1.232290e+003, 9.425800e-003
1.234219e+003, 9.146635e-003
1.236147e+003, 8.840594e-003
1.238076e+003, 8.424855e-003
1.240004e+003, 8.128239e-003
1.241933e+003, 7.839329e-003
1.243861e+003, 7.336708e-003
1.245790e+003, 7.115396e-003
1.247718e+003, 7.016840e-003
1.249646e+003, 6.842404e-003
1.251575e+003, 6.489480e-003
1.253503e+003, 6.097805e-003
1.255432e+003, 5.926393e-003
1.257360e+003, 5.685789e-003
1.259289e+003, 5.220124e-003
1.261217e+003, 5.021148e-003
1.263146e+003, 5.089201e-003
1.265074e+003, 4.986856e-003
1.267003e+003, 5.031560e-003
1.268931e+003, 5.249076e-003
1.270860e+003, 5.386170e-003
1.272788e+003, 5.572391e-003
1.274717e+003, 5.610123e-003
1.276645e+003, 5.595586e-003
1.278573e+003, 5.430073e-003
1.280502e+003, 5.414163e-003
1.282430e+003, 5.374864e-003
1.284359e+003, 5.070367e-003
1.286287e+003, 5.013478e-003
1.288216e+003, 5.089089e-003
1.290144e+003, 5.081949e-003
1.292073e+003, 5.203325e-003
1.294001e+003, 5.177540e-003
1.295930e+003, 5.041725e-003
1.297858e+003, 4.955993e-003
1.299787e+003, 5.081532e-003
1.301715e+003, 4.950546e-003
1.303644e+003, 4.638202e-003
1.305572e+003, 4.675034e-003
1.307500e+003, 5.034791e-003
1.309429e+003, 5.142218e-003
1.311357e+003, 4.983656e-003
1.313286e+003, 5.042187e-003
1.315214e+003, 5.308247e-003
1.317143e+003, 5.261922e-003
1.319071e+003, 5.057070e-003
1.321000e+003, 4.988895e-003
1.322928e+003, 4.986638e-003
1.324857e+003, 4.829568e-003
1.326785e+003, 4.602503e-003
1.328714e+003, 4.234527e-003
1.330642e+003, 4.478953e-003
1.332571e+003, 4.925842e-003
1.334499e+003, 4.971790e-003
1.336427e+003, 4.912953e-003
1.338356e+003, 4.910161e-003
1.340284e+003, 4.743292e-003
1.342213e+003, 4.665793e-003
1.344141e+003, 4.772001e-003
1.346070e+003, 4.804474e-003
1.347998e+003, 4.903200e-003
1.349927e+003, 4.991898e-003
1.351855e+003, 4.889268e-003
1.353784e+003, 4.945052e-003
1.355712e+003, 4.969004e-003
1.357641e+003, 5.047978e-003
1.359569e+003, 4.967409e-003
1.361498e+003, 4.848031e-003
1.363426e+003, 4.925797e-003
1.365354e+003, 5.052798e-003
1.367283e+003, 4.929372e-003
1.369211e+003, 5.059519e-003
1.371140e+003, 5.477324e-003
1.373068e+003, 5.416744e-003
1.374997e+003, 4.979762e-003
1.376925e+003, 5.142803e-003
1.378854e+003, 5.306355e-003
1.380782e+003, 5.291715e-003
1.382711e+003, 5.470429e-003
1.384639e+003, 5.674662e-003
1.386568e+003, 5.525530e-003
1.388496e+003, 5.507299e-003
1.390424e+003, 5.725217e-003
1.392353e+003, 5.736982e-003
1.394281e+003, 5.694046e-003
1.396210e+003, 5.678947e-003
1.398138e+003, 5.736891e-003
1.400067e+003, 5.668183e-003
1.401995e+003, 6.035935e-003
1.403924e+003, 6.215917e-003
1.405852e+003, 6.107315e-003
1.407781e+003, 5.979099e-003
1.409709e+003, 5.940540e-003
1.411638e+003, 6.167190e-003
1.413566e+003, 6.439194e-003
1.415495e+003, 6.380344e-003
1.417423e+003, 6.153729e-003
1.419351e+003, 6.109229e-003
1.421280e+003, 6.214299e-003
1.423208e+003, 6.361804e-003
1.425137e+003, 6.392567e-003
1.427065e+003, 6.464349e-003
1.428994e+003, 6.500909e-003
1.430922e+003, 6.573486e-003
1.432851e+003, 6.846541e-003
1.434779e+003, 6.763799e-003
1.436708e+003, 6.651587e-003
1.438636e+003, 6.780567e-003
1.440565e+003, 6.734826e-003
1.442493e+003, 6.719326e-003
1.444422e+003, 6.771497e-003
1.446350e+003, 6.983114e-003
1.448278e+003, 7.048346e-003
1.450207e+003, 7.116844e-003
1.452135e+003, 7.079653e-003
1.454064e+003, 7.046442e-003
1.455992e+003, 6.834378e-003
1.457921e+003, 6.790066e-003
1.459849e+003, 7.465720e-003
1.461778e+003, 7.481219e-003
1.463706e+003, 7.388989e-003
1.465635e+003, 7.359325e-003
1.467563e+003, 7.680860e-003
1.469492e+003, 7.947897e-003
1.471420e+003, 7.778415e-003
1.473349e+003, 7.403533e-003
1.475277e+003, 7.569478e-003
1.477205e+003, 7.255495e-003
1.479134e+003, 7.515260e-003
1.481062e+003, 7.944477e-003
1.482991e+003, 7.897859e-003
1.484919e+003, 7.551545e-003
1.486848e+003, 7.501135e-003
1.488776e+003, 7.569377e-003
1.490705e+003, 7.653820e-003
1.492633e+003, 7.774042e-003
1.494562e+003, 7.661890e-003
1.496490e+003, 7.619252e-003
1.498419e+003, 7.847388e-003
1.500347e+003, 7.787216e-003
1.502276e+003, 7.861565e-003
1.504204e+003, 7.714809e-003
1.506132e+003, 7.289971e-003
1.508061e+003, 7.369361e-003
1.509989e+003, 7.876243e-003
1.511918e+003, 8.082259e-003
1.513846e+003, 8.037026e-003
1.515775e+003, 8.027975e-003
1.517703e+003, 7.838465e-003
1.519632e+003, 8.291173e-003
1.521560e+003, 8.232056e-003
1.523489e+003, 8.597306e-003
1.525417e+003, 9.051478e-003
1.527346e+003, 9.110085e-003
1.529274e+003, 8.903245e-003
1.531203e+003, 8.966849e-003
1.533131e+003, 8.863118e-003
1.535059e+003, 9.075705e-003
1.536988e+003, 9.439341e-003
1.538916e+003, 8.863497e-003
1.540845e+003, 8.810028e-003
1.542773e+003, 9.537308e-003
1.544702e+003, 1.014499e-002
1.546630e+003, 1.006500e-002
1.548559e+003, 1.011145e-002
1.550487e+003, 1.021734e-002
1.552416e+003, 1.048262e-002
1.554344e+003, 1.047459e-002
1.556273e+003, 1.069085e-002
1.558201e+003, 1.054303e-002
1.560130e+003, 1.039655e-002
1.562058e+003, 1.121364e-002
1.563986e+003, 1.177864e-002
1.565915e+003, 1.184721e-002
1.567843e+003, 1.197465e-002
1.569772e+003, 1.162804e-002
1.571700e+003, 1.185483e-002
1.573629e+003, 1.203696e-002
1.575557e+003, 1.207640e-002
1.577486e+003, 1.216486e-002
1.579414e+003, 1.286237e-002
1.581343e+003, 1.310893e-002
1.583271e+003, 1.335115e-002
1.585200e+003, 1.367923e-002
1.587128e+003, 1.373302e-002
1.589057e+003, 1.381768e-002
1.590985e+003, 1.400034e-002
1.592913e+003, 1.399124e-002
1.594842e+003, 1.399974e-002
1.596770e+003, 1.391141e-002
1.598699e+003, 1.384925e-002
1.600627e+003, 1.379086e-002
1.602556e+003, 1.388069e-002
1.604484e+003, 1.440759e-002
1.606413e+003, 1.462874e-002
1.608341e+003, 1.454447e-002
1.610270e+003, 1.444569e-002
1.612198e+003, 1.462908e-002
1.614127e+003, 1.477933e-002
1.616055e+003, 1.490883e-002
1.617984e+003, 1.490107e-002
1.619912e+003, 1.517131e-002
1.621840e+003, 1.511880e-002
1.623769e+003, 1.528224e-002
1.625697e+003, 1.574304e-002
1.627626e+003, 1.611220e-002
1.629554e+003, 1.643551e-002
1.631483e+003, 1.689855e-002
1.633411e+003, 1.666720e-002
1.635340e+003, 1.605459e-002
1.637268e+003, 1.645081e-002
1.639197e+003, 1.710434e-002
1.641125e+003, 1.704235e-002
1.643054e+003, 1.701424e-002
1.644982e+003, 1.716924e-002
1.646911e+003, 1.675851e-002
1.648839e+003, 1.659184e-002
1.650767e+003, 1.642047e-002
1.652696e+003, 1.585790e-002
1.654624e+003, 1.582737e-002
1.656553e+003, 1.663063e-002
1.658481e+003, 1.638972e-002
1.660410e+003, 1.626874e-002
1.662338e+003, 1.630484e-002
1.664267e+003, 1.630844e-002
1.666195e+003, 1.605585e-002
1.668124e+003, 1.574607e-002
1.670052e+003, 1.536821e-002
1.671981e+003, 1.492855e-002
1.673909e+003, 1.445267e-002
1.675838e+003, 1.333080e-002
1.677766e+003, 1.323400e-002
1.679694e+003, 1.297903e-002
1.681623e+003, 1.223707e-002
1.683551e+003, 1.137953e-002
1.685480e+003, 1.064054e-002
1.687408e+003, 1.079929e-002
1.689337e+003, 1.056344e-002
1.691265e+003, 1.057128e-002
1.693194e+003, 1.048702e-002
1.695122e+003, 9.713268e-003
1.697051e+003, 8.861002e-003
1.698979e+003, 9.196116e-003
1.700908e+003, 8.160722e-003
1.702836e+003, 8.889646e-003
1.704765e+003, 8.714333e-003
1.706693e+003, 8.486367e-003
1.708621e+003, 8.933378e-003
1.710550e+003, 9.002883e-003
1.712478e+003, 8.631523e-003
1.714407e+003, 8.247532e-003
1.716335e+003, 7.961339e-003
1.718264e+003, 7.742537e-003
1.720192e+003, 8.370063e-003
1.722121e+003, 8.559064e-003
1.724049e+003, 8.377324e-003
1.725978e+003, 8.407187e-003
1.727906e+003, 7.804356e-003
1.729835e+003, 7.293602e-003
1.731763e+003, 7.018404e-003
1.733692e+003, 6.643549e-003
1.735620e+003, 6.685666e-003
1.737548e+003, 7.372850e-003
1.739477e+003, 7.000641e-003
1.741405e+003, 6.502837e-003
1.743334e+003, 6.617776e-003
1.745262e+003, 6.856241e-003
1.747191e+003, 6.627631e-003
1.749119e+003, 6.595992e-003
1.751048e+003, 6.810732e-003
1.752976e+003, 6.372682e-003
1.754905e+003, 6.197313e-003
1.756833e+003, 6.352434e-003
1.758762e+003, 6.480892e-003
1.760690e+003, 6.321238e-003
1.762619e+003, 5.925770e-003
1.764547e+003, 6.146758e-003
1.766475e+003, 6.208844e-003
1.768404e+003, 6.074370e-003
1.770332e+003, 6.166752e-003
1.772261e+003, 5.654737e-003
1.774189e+003, 5.767108e-003
1.776118e+003, 5.947778e-003
1.778046e+003, 6.131867e-003
1.779975e+003, 6.194426e-003
1.781903e+003, 5.851755e-003
1.783832e+003, 5.801070e-003
1.785760e+003, 6.062506e-003
1.787689e+003, 6.064905e-003
1.789617e+003, 5.925975e-003
1.791546e+003, 6.114705e-003
1.793474e+003, 5.661998e-003
1.795402e+003, 5.491099e-003
1.797331e+003, 5.749063e-003
1.799259e+003, 5.657687e-003
1.801188e+003, 5.623096e-003
1.803116e+003, 5.893257e-003
1.805045e+003, 5.599753e-003
1.806973e+003, 5.471295e-003
1.808902e+003, 5.148054e-003
1.810830e+003, 4.758747e-003
1.812759e+003, 5.038144e-003
1.814687e+003, 5.037765e-003
1.816616e+003, 5.550994e-003
1.818544e+003, 6.446341e-003
1.820473e+003, 6.190762e-003
1.822401e+003, 5.674695e-003
1.824329e+003, 5.473346e-003
1.826258e+003, 5.460320e-003
1.828186e+003, 5.792432e-003
1.830115e+003, 5.729900e-003
1.832043e+003, 5.696598e-003
1.833972e+003, 5.119774e-003
1.835900e+003, 5.171052e-003
1.837829e+003, 5.160990e-003
1.839757e+003, 5.442697e-003
1.841686e+003, 5.787555e-003
1.843614e+003, 5.632848e-003
1.845543e+003, 5.481502e-003
1.847471e+003, 5.380960e-003
1.849400e+003, 5.401906e-003
1.851328e+003, 5.312223e-003
1.853256e+003, 5.369449e-003
1.855185e+003, 5.773008e-003
1.857113e+003, 5.274882e-003
1.859042e+003, 4.867448e-003
1.860970e+003, 5.044742e-003
1.862899e+003, 5.071960e-003
1.864827e+003, 4.964720e-003
1.866756e+003, 5.580533e-003
1.868684e+003, 5.576801e-003
1.870613e+003, 5.145615e-003
1.872541e+003, 5.446176e-003
1.874470e+003, 5.839279e-003
1.876398e+003, 5.685974e-003
1.878327e+003, 5.284718e-003
1.880255e+003, 5.090017e-003
1.882183e+003, 5.121196e-003
1.884112e+003, 4.793640e-003
1.886040e+003, 4.743646e-003
1.887969e+003, 4.636351e-003
1.889897e+003, 4.285367e-003
1.891826e+003, 3.803713e-003
1.893754e+003, 4.061478e-003
1.895683e+003, 4.149953e-003
1.897611e+003, 3.912050e-003
1.899540e+003, 4.453670e-003
1.901468e+003, 4.604208e-003
1.903397e+003, 4.347765e-003
1.905325e+003, 4.444949e-003
1.907254e+003, 5.363171e-003
1.909182e+003, 5.508985e-003
1.911110e+003, 4.849106e-003
1.913039e+003, 4.811075e-003
1.914967e+003, 4.758378e-003
1.916896e+003, 5.537787e-003
1.918824e+003, 4.532264e-003
1.920753e+003, 3.550052e-003
1.922681e+003, 4.189488e-003
1.924610e+003, 4.686706e-003
1.926538e+003, 4.728938e-003
1.928467e+003, 3.654603e-003
1.930395e+003, 2.306812e-003
1.932324e+003, 2.394133e-003
1.934252e+003, 3.887576e-003
1.936181e+003, 4.174109e-003
1.938109e+003, 3.234718e-003
1.940037e+003, 2.475769e-003
1.941966e+003, 1.758000e-003
1.943894e+003, 1.381670e-003
1.945823e+003, 1.440900e-003
1.947751e+003, 1.702074e-003
1.949680e+003, 1.797030e-004
1.951608e+003, 5.629290e-004
1.953537e+003, 3.158327e-003
1.955465e+003, 2.532338e-003
1.957394e+003, 6.360548e-004
1.959322e+003, -1.133141e-004
1.961251e+003, 1.178352e-003
1.963179e+003, 1.514798e-003
1.965108e+003, 1.881631e-003
1.967036e+003, 1.186777e-003
1.968964e+003, 3.458215e-004
1.970893e+003, 4.552664e-004
1.972821e+003, 6.729874e-004
1.974750e+003, -1.334080e-003
1.976678e+003, -3.198544e-003
1.978607e+003, -5.709939e-005
1.980535e+003, 1.343893e-003
1.982464e+003, 9.098528e-004
1.984392e+003, -1.533552e-003
1.986321e+003, -3.491862e-003
1.988249e+003, -1.727746e-003
1.990178e+003, 1.111696e-003
1.992106e+003, -8.076313e-004
1.994035e+003, -1.720025e-003
1.995963e+003, -5.345282e-004
1.997891e+003, -1.028876e-004
1.999820e+003, -8.461798e-004
2.001748e+003, -2.208342e-003
2.003677e+003, -1.677027e-003
2.005605e+003, -2.041966e-003
2.007534e+003, -1.792566e-003
2.009462e+003, -1.122036e-003
2.011391e+003, -1.709685e-004
2.013319e+003, -5.445574e-004
2.015248e+003, -2.171913e-003
2.017176e+003, -1.239490e-003
2.019105e+003, -6.324798e-004
2.021033e+003, -2.145161e-003
2.022962e+003, -3.532149e-003
2.024890e+003, -3.497980e-003
2.026818e+003, -2.400104e-003
2.028747e+003, -1.156239e-003
2.030675e+003, 3.501316e-005
2.032604e+003, 1.206494e-003
2.034532e+003, 1.600267e-003
2.036461e+003, 2.433373e-003
2.038389e+003, 2.678791e-003
2.040318e+003, 8.070628e-004
2.042246e+003, 4.843810e-004
2.044175e+003, 5.852954e-004
2.046103e+003, 1.032200e-003
2.048032e+003, 3.519360e-003
2.049960e+003, 5.309183e-003
2.051889e+003, 5.429605e-003
2.053817e+003, 4.034929e-003
2.055746e+003, 2.680538e-003
2.057674e+003, 3.326633e-003
2.059603e+003, 5.351740e-003
2.061531e+003, 4.831095e-003
2.063459e+003, 3.626757e-003
2.065388e+003, 2.276795e-003
2.067316e+003, 2.957975e-003
2.069245e+003, 3.756979e-003
2.071173e+003, 3.796079e-003
2.073102e+003, 4.147124e-003
2.075030e+003, 5.045284e-003
2.076959e+003, 4.882693e-003
2.078887e+003, 5.026352e-003
2.080816e+003, 4.719886e-003
2.082744e+003, 5.084330e-003
2.084673e+003, 4.590039e-003
2.086601e+003, 3.713164e-003
2.088530e+003, 3.319661e-003
2.090458e+003, 2.678400e-003
2.092386e+003, 1.972145e-003
2.094315e+003, 2.362179e-003
2.096243e+003, 3.350979e-003
2.098172e+003, 2.706151e-003
2.100100e+003, 4.036050e-003
2.102029e+003, 4.845256e-003
2.103957e+003, 4.502252e-003
2.105886e+003, 4.044334e-003
2.107814e+003, 2.688780e-003
2.109743e+003, 2.659900e-003
2.111671e+003, 3.011276e-003
2.113600e+003, 2.920415e-003
2.115528e+003, 2.039375e-003
2.117457e+003, 6.591876e-004
2.119385e+003, 8.249534e-004
2.121313e+003, 1.936805e-003
2.123242e+003, 1.959229e-003
2.125170e+003, 1.939431e-003
2.127099e+003, 1.691590e-003
2.129027e+003, 1.649931e-003
2.130956e+003, -3.207022e-004
2.132884e+003, -1.039482e-003
2.134813e+003, -9.406434e-004
2.136741e+003, -8.425325e-004
2.138670e+003, -5.304191e-004
2.140598e+003, -2.309163e-004
2.142527e+003, -4.413212e-004
2.144455e+003, -1.835568e-003
2.146384e+003, -3.191397e-003
2.148312e+003, -4.711526e-003
2.150240e+003, -5.402170e-003
2.152169e+003, -6.606125e-003
2.154097e+003, -7.005098e-003
2.156026e+003, -6.163608e-003
2.157954e+003, -3.712238e-003
2.159883e+003, 1.783860e-003
2.161811e+003, 1.901490e-003
2.163740e+003, 1.319031e-003
2.165668e+003, 2.232488e-003
2.167597e+003, 1.203737e-003
2.169525e+003, -3.220675e-003
2.171454e+003, -2.437423e-003
2.173382e+003, 1.366871e-004
2.175311e+003, 4.311441e-007
2.177239e+003, 8.089978e-004
2.179167e+003, 7.595088e-004
2.181096e+003, 1.362152e-004
2.183024e+003, -7.400573e-004
2.184953e+003, -4.792861e-004
2.186881e+003, 2.791288e-003
2.188810e+003, 3.792775e-003
2.190738e+003, 2.228291e-003
2.192667e+003, 4.684292e-003
2.194595e+003, 4.199047e-003
2.196524e+003, 2.539927e-003
2.198452e+003, 3.666389e-003
2.200381e+003, 3.669297e-003
2.202309e+003, 3.638511e-003
2.204238e+003, 4.481586e-003
2.206166e+003, 4.874780e-003
2.208094e+003, 3.995346e-003
2.210023e+003, 4.346600e-003
2.211951e+003, 3.830307e-003
2.213880e+003, 4.725252e-003
2.215808e+003, 6.174065e-003
2.217737e+003, 6.092485e-003
2.219665e+003, 5.944638e-003
2.221594e+003, 5.825941e-003
2.223522e+003, 4.819774e-003
2.225451e+003, 5.887631e-003
2.227379e+003, 6.413377e-003
2.229308e+003, 5.866356e-003
2.231236e+003, 7.351912e-003
2.233165e+003, 9.233804e-003
2.235093e+003, 9.132605e-003
2.237021e+003, 8.106343e-003
2.238950e+003, 7.727095e-003
2.240878e+003, 7.505144e-003
2.242807e+003, 6.575014e-003
2.244735e+003, 7.178767e-003
2.246664e+003, 7.835900e-003
2.248592e+003, 8.112294e-003
2.250521e+003, 6.668403e-003
2.252449e+003, 5.058575e-003
2.254378e+003, 6.411118e-003
2.256306e+003, 9.066676e-003
2.258235e+003, 1.022538e-002
2.260163e+003, 9.262791e-003
2.262092e+003, 7.705429e-003
2.264020e+003, 7.916932e-003
2.265948e+003, 8.758144e-003
2.267877e+003, 8.604147e-003
2.269805e+003, 8.495333e-003
2.271734e+003, 9.230758e-003
2.273662e+003, 1.022840e-002
2.275591e+003, 1.112948e-002
2.277519e+003, 1.057323e-002
2.279448e+003, 1.065408e-002
2.281376e+003, 1.122661e-002
2.283305e+003, 1.053849e-002
2.285233e+003, 1.099308e-002
2.287162e+003, 1.164875e-002
2.289090e+003, 1.146657e-002
2.291019e+003, 1.127593e-002
2.292947e+003, 1.129198e-002
2.294875e+003, 1.078253e-002
2.296804e+003, 1.091534e-002
2.298732e+003, 1.174259e-002
2.300661e+003, 1.207974e-002
2.302589e+003, 1.168872e-002
2.304518e+003, 1.146375e-002
2.306446e+003, 1.145152e-002
2.308375e+003, 1.156872e-002
2.310303e+003, 1.141130e-002
2.312232e+003, 1.107962e-002
2.314160e+003, 1.160742e-002
2.316089e+003, 1.274926e-002
2.318017e+003, 1.299506e-002
2.319946e+003, 1.298454e-002
2.321874e+003, 1.320561e-002
2.323802e+003, 1.305231e-002
2.325731e+003, 1.185966e-002
2.327659e+003, 1.183339e-002
2.329588e+003, 1.238669e-002
2.331516e+003, 1.224579e-002
2.333445e+003, 1.181911e-002
2.335373e+003, 1.124221e-002
2.337302e+003, 1.123600e-002
2.339230e+003, 1.194471e-002
2.341159e+003, 1.164801e-002
2.343087e+003, 1.154294e-002
2.345016e+003, 1.145735e-002
2.346944e+003, 1.184732e-002
2.348873e+003, 1.203473e-002
2.350801e+003, 1.139443e-002
2.352729e+003, 1.138376e-002
2.354658e+003, 1.195726e-002
2.356586e+003, 1.145197e-002
2.358515e+003, 1.099627e-002
2.360443e+003, 1.154108e-002
2.362372e+003, 1.198436e-002
2.364300e+003, 1.130837e-002
2.366229e+003, 1.089833e-002
2.368157e+003, 1.065820e-002
2.370086e+003, 1.018218e-002
2.372014e+003, 1.071468e-002
2.373942e+003, 1.138343e-002
2.375871e+003, 1.157042e-002
2.377799e+003, 1.175069e-002
2.379728e+003, 1.135496e-002
2.381656e+003, 1.236453e-002
2.383585e+003, 1.294987e-002
2.385513e+003, 1.114354e-002
2.387442e+003, 1.046459e-002
2.389370e+003, 1.093261e-002
2.391299e+003, 1.151732e-002
2.393227e+003, 1.121333e-002
2.395156e+003, 1.103500e-002
2.397084e+003, 1.212543e-002
2.399012e+003, 1.232124e-002
2.400941e+003, 1.196000e-002
2.402869e+003, 1.224520e-002
2.404798e+003, 1.317627e-002
2.406726e+003, 1.329887e-002
2.408655e+003, 1.259481e-002
2.410583e+003, 1.170854e-002
2.412512e+003, 1.177787e-002
2.414440e+003, 1.231122e-002
2.416369e+003, 1.260944e-002
2.418297e+003, 1.213014e-002
2.420226e+003, 1.151785e-002
2.422154e+003, 1.215061e-002
2.424083e+003, 1.268008e-002
2.426011e+003, 1.234288e-002
2.427939e+003, 1.158386e-002
2.429868e+003, 1.160157e-002
2.431796e+003, 1.206092e-002
2.433725e+003, 1.211992e-002
2.435653e+003, 1.264513e-002
2.437582e+003, 1.251753e-002
2.439510e+003, 1.157180e-002
2.441439e+003, 1.218020e-002
2.443367e+003, 1.268000e-002
2.445296e+003, 1.282763e-002
2.447224e+003, 1.293172e-002
2.449153e+003, 1.263800e-002
2.451081e+003, 1.283784e-002
2.453010e+003, 1.286827e-002
2.454938e+003, 1.298247e-002
2.456866e+003, 1.246340e-002
2.458795e+003, 1.242083e-002
2.460723e+003, 1.451053e-002
2.462652e+003, 1.481112e-002
2.464580e+003, 1.391465e-002
2.466509e+003, 1.326282e-002
2.468437e+003, 1.273294e-002
2.470366e+003, 1.243532e-002
2.472294e+003, 1.241859e-002
2.474223e+003, 1.236487e-002
2.476151e+003, 1.187510e-002
2.478080e+003, 1.152044e-002
2.480008e+003, 1.269379e-002
2.481937e+003, 1.385028e-002
2.483865e+003, 1.347530e-002
2.485793e+003, 1.330332e-002
2.487722e+003, 1.294677e-002
2.489650e+003, 1.280797e-002
2.491579e+003, 1.292005e-002
2.493507e+003, 1.301406e-002
2.495436e+003, 1.279721e-002
2.497364e+003, 1.307456e-002
2.499293e+003, 1.326097e-002
2.501221e+003, 1.274491e-002
2.503150e+003, 1.259852e-002
2.505078e+003, 1.280782e-002
2.507007e+003, 1.349829e-002
2.508935e+003, 1.362325e-002
2.510864e+003, 1.362697e-002
2.512792e+003, 1.267137e-002
2.514720e+003, 1.251617e-002
2.516649e+003, 1.246464e-002
2.518577e+003, 1.260438e-002
2.520506e+003, 1.237198e-002
2.522434e+003, 1.249550e-002
2.524363e+003, 1.369753e-002
2.526291e+003, 1.343065e-002
2.528220e+003, 1.306674e-002
2.530148e+003, 1.304765e-002
2.532077e+003, 1.303660e-002
2.534005e+003, 1.317640e-002
2.535934e+003, 1.312631e-002
2.537862e+003, 1.395922e-002
2.539791e+003, 1.412071e-002
2.541719e+003, 1.423047e-002
2.543647e+003, 1.460294e-002
2.545576e+003, 1.397222e-002
2.547504e+003, 1.377199e-002
2.549433e+003, 1.461908e-002
2.551361e+003, 1.484827e-002
2.553290e+003, 1.324578e-002
2.555218e+003, 1.257454e-002
2.557147e+003, 1.366606e-002
2.559075e+003, 1.396392e-002
2.561004e+003, 1.443038e-002
2.562932e+003, 1.412974e-002
2.564861e+003, 1.346258e-002
2.566789e+003, 1.494672e-002
2.568718e+003, 1.582721e-002
2.570646e+003, 1.484519e-002
2.572574e+003, 1.380942e-002
2.574503e+003, 1.325920e-002
2.576431e+003, 1.394056e-002
2.578360e+003, 1.428653e-002
2.580288e+003, 1.422317e-002
2.582217e+003, 1.401167e-002
2.584145e+003, 1.376788e-002
2.586074e+003, 1.488880e-002
2.588002e+003, 1.561286e-002
2.589931e+003, 1.451672e-002
2.591859e+003, 1.361196e-002
2.593788e+003, 1.412596e-002
2.595716e+003, 1.404335e-002
2.597645e+003, 1.432137e-002
2.599573e+003, 1.508754e-002
2.601501e+003, 1.584802e-002
2.603430e+003, 1.623213e-002
2.605358e+003, 1.605505e-002
2.607287e+003, 1.535638e-002
2.609215e+003, 1.512748e-002
2.611144e+003, 1.532346e-002
2.613072e+003, 1.565101e-002
2.615001e+003, 1.599835e-002
2.616929e+003, 1.634106e-002
2.618858e+003, 1.669590e-002
2.620786e+003, 1.626727e-002
2.622715e+003, 1.558330e-002
2.624643e+003, 1.594375e-002
2.626572e+003, 1.644222e-002
2.628500e+003, 1.614436e-002
2.630428e+003, 1.554535e-002
2.632357e+003, 1.512653e-002
2.634285e+003, 1.630544e-002
2.636214e+003, 1.705883e-002
2.638142e+003, 1.652616e-002
2.640071e+003, 1.686416e-002
2.641999e+003, 1.677649e-002
2.643928e+003, 1.637082e-002
2.645856e+003, 1.642193e-002
2.647785e+003, 1.674650e-002
2.649713e+003, 1.699509e-002
2.651642e+003, 1.742522e-002
2.653570e+003, 1.807941e-002
2.655499e+003, 1.764907e-002
2.657427e+003, 1.691974e-002
2.659355e+003, 1.736021e-002
2.661284e+003, 1.720675e-002
2.663212e+003, 1.680023e-002
2.665141e+003, 1.640004e-002
2.667069e+003, 1.609103e-002
2.668998e+003, 1.584313e-002
2.670926e+003, 1.594285e-002
2.672855e+003, 1.619893e-002
2.674783e+003, 1.621268e-002
2.676712e+003, 1.637080e-002
2.678640e+003, 1.647433e-002
2.680569e+003, 1.618385e-002
2.682497e+003, 1.589627e-002
2.684426e+003, 1.648783e-002
2.686354e+003, 1.678249e-002
2.688282e+003, 1.699140e-002
2.690211e+003, 1.742709e-002
2.692139e+003, 1.767466e-002
2.694068e+003, 1.705065e-002
2.695996e+003, 1.718127e-002
2.697925e+003, 1.806771e-002
2.699853e+003, 1.822619e-002
2.701782e+003, 1.778881e-002
2.703710e+003, 1.792297e-002
2.705639e+003, 1.806870e-002
2.707567e+003, 1.781144e-002
2.709496e+003, 1.754927e-002
2.711424e+003, 1.760425e-002
2.713353e+003, 1.726347e-002
2.715281e+003, 1.736599e-002
2.717209e+003, 1.742302e-002
2.719138e+003, 1.739536e-002
2.721066e+003, 1.769336e-002
2.722995e+003, 1.791435e-002
2.724923e+003, 1.813269e-002
2.726852e+003, 1.887638e-002
2.728780e+003, 1.883566e-002
2.730709e+003, 1.832133e-002
2.732637e+003, 1.865513e-002
2.734566e+003, 1.904175e-002
2.736494e+003, 1.879092e-002
2.738423e+003, 1.911242e-002
2.740351e+003, 1.914572e-002
2.742280e+003, 1.820993e-002
2.744208e+003, 1.868357e-002
2.746136e+003, 1.974202e-002
2.748065e+003, 2.015176e-002
2.749993e+003, 2.019102e-002
2.751922e+003, 1.974196e-002
2.753850e+003, 1.949481e-002
2.755779e+003, 1.985256e-002
2.757707e+003, 2.004536e-002
2.759636e+003, 2.016401e-002
2.761564e+003, 2.060366e-002
2.763493e+003, 2.060948e-002
2.765421e+003, 2.074315e-002
2.767350e+003, 2.088451e-002
2.769278e+003, 2.061312e-002
2.771207e+003, 2.062487e-002
2.773135e+003, 2.026956e-002
2.775063e+003, 2.026529e-002
2.776992e+003, 2.082267e-002
2.778920e+003, 2.103170e-002
2.780849e+003, 2.104148e-002
2.782777e+003, 2.043047e-002
2.784706e+003, 2.092925e-002
2.786634e+003, 2.194384e-002
2.788563e+003, 2.164916e-002
2.790491e+003, 2.138790e-002
2.792420e+003, 2.124192e-002
2.794348e+003, 2.169551e-002
2.796277e+003, 2.302543e-002
2.798205e+003, 2.333106e-002
2.800134e+003, 2.301665e-002
2.802062e+003, 2.327870e-002
2.803990e+003, 2.331325e-002
2.805919e+003, 2.296385e-002
2.807847e+003, 2.258204e-002
2.809776e+003, 2.213073e-002
2.811704e+003, 2.280518e-002
2.813633e+003, 2.369154e-002
2.815561e+003, 2.426433e-002
2.817490e+003, 2.435706e-002
2.819418e+003, 2.437976e-002
2.821347e+003, 2.413838e-002
2.823275e+003, 2.471593e-002
2.825204e+003, 2.497230e-002
2.827132e+003, 2.439798e-002
2.829061e+003, 2.420116e-002
2.830989e+003, 2.436624e-002
2.832917e+003, 2.417503e-002
2.834846e+003, 2.353608e-002
2.836774e+003, 2.351235e-002
2.838703e+003, 2.443944e-002
2.840631e+003, 2.551947e-002
2.842560e+003, 2.572644e-002
2.844488e+003, 2.498885e-002
2.846417e+003, 2.430723e-002
2.848345e+003, 2.474476e-002
2.850274e+003, 2.507758e-002
2.852202e+003, 2.528313e-002
2.854131e+003, 2.574757e-002
2.856059e+003, 2.608696e-002
2.857988e+003, 2.548913e-002
2.859916e+003, 2.510175e-002
2.861844e+003, 2.570120e-002
2.863773e+003, 2.620124e-002
2.865701e+003, 2.660814e-002
2.867630e+003, 2.647461e-002
2.869558e+003, 2.697731e-002
2.871487e+003, 2.755017e-002
2.873415e+003, 2.771529e-002
2.875344e+003, 2.769173e-002
2.877272e+003, 2.776765e-002
2.879201e+003, 2.869152e-002
2.881129e+003, 2.901899e-002
2.883058e+003, 2.894820e-002
2.884986e+003, 2.866262e-002
2.886915e+003, 2.810755e-002
2.888843e+003, 2.818291e-002
2.890771e+003, 2.913989e-002
2.892700e+003, 2.958066e-002
2.894628e+003, 2.935511e-002
2.896557e+003, 2.929242e-002
2.898485e+003, 2.922419e-002
2.900414e+003, 2.827924e-002
2.902342e+003, 2.853714e-002
2.904271e+003, 2.879611e-002
2.906199e+003, 2.943799e-002
2.908128e+003, 3.020850e-002
2.910056e+003, 2.942633e-002
2.911985e+003, 2.921190e-002
2.913913e+003, 2.966701e-002
2.915842e+003, 2.955737e-002
2.917770e+003, 3.069392e-002
2.919698e+003, 3.119230e-002
2.921627e+003, 3.012482e-002
2.923555e+003, 2.999345e-002
2.925484e+003, 3.092418e-002
2.927412e+003, 3.053402e-002
2.929341e+003, 2.915400e-002
2.931269e+003, 2.880415e-002
2.933198e+003, 2.896866e-002
2.935126e+003, 2.991897e-002
2.937055e+003, 3.029759e-002
2.938983e+003, 2.980443e-002
2.940912e+003, 2.997262e-002
2.942840e+003, 3.024311e-002
2.944769e+003, 3.002560e-002
2.946697e+003, 3.042815e-002
2.948625e+003, 2.992131e-002
2.950554e+003, 2.906159e-002
2.952482e+003, 2.848798e-002
2.954411e+003, 2.827717e-002
2.956339e+003, 2.840471e-002
2.958268e+003, 2.956715e-002
2.960196e+003, 2.937205e-002
2.962125e+003, 2.904540e-002
2.964053e+003, 3.011754e-002
2.965982e+003, 3.111535e-002
2.967910e+003, 3.068582e-002
2.969839e+003, 3.068232e-002
2.971767e+003, 3.163886e-002
2.973696e+003, 3.152601e-002
2.975624e+003, 3.054960e-002
2.977552e+003, 3.063847e-002
2.979481e+003, 3.175128e-002
2.981409e+003, 3.157814e-002
2.983338e+003, 3.111852e-002
2.985266e+003, 3.139494e-002
2.987195e+003, 3.181230e-002
2.989123e+003, 3.243724e-002
2.991052e+003, 3.193734e-002
2.992980e+003, 3.239271e-002
2.994909e+003, 3.390168e-002
2.996837e+003, 3.359556e-002
2.998766e+003, 3.226497e-002
3.000694e+003, 3.267380e-002
3.002623e+003, 3.357199e-002
3.004551e+003, 3.256860e-002
3.006479e+003, 3.222508e-002
3.008408e+003, 3.299265e-002
3.010336e+003, 3.268101e-002
3.012265e+003, 3.202304e-002
3.014193e+003, 3.265589e-002
3.016122e+003, 3.357379e-002
3.018050e+003, 3.351117e-002
3.019979e+003, 3.328444e-002
3.021907e+003, 3.257431e-002
3.023836e+003, 3.196826e-002
3.025764e+003, 3.238899e-002
3.027693e+003, 3.269563e-002
3.029621e+003, 3.345354e-002
3.031550e+003, 3.421056e-002
3.033478e+003, 3.336484e-002
3.035406e+003, 3.282334e-002
3.037335e+003, 3.380092e-002
3.039263e+003, 3.366670e-002
3.041192e+003, 3.379025e-002
3.043120e+003, 3.448793e-002
3.045049e+003, 3.489983e-002
3.046977e+003, 3.467659e-002
3.048906e+003, 3.433548e-002
3.050834e+003, 3.423239e-002
3.052763e+003, 3.513280e-002
3.054691e+003, 3.526320e-002
3.056620e+003, 3.468250e-002
3.058548e+003, 3.531212e-002
3.060477e+003, 3.613270e-002
3.062405e+003, 3.560762e-002
3.064333e+003, 3.510972e-002
3.066262e+003, 3.601652e-002
3.068190e+003, 3.628686e-002
3.070119e+003, 3.556743e-002
3.072047e+003, 3.539608e-002
3.073976e+003, 3.554455e-002
3.075904e+003, 3.555391e-002
3.077833e+003, 3.548698e-002
3.079761e+003, 3.593677e-002
3.081690e+003, 3.548373e-002
3.083618e+003, 3.614119e-002
3.085547e+003, 3.713726e-002
3.087475e+003, 3.623892e-002
3.089404e+003, 3.670257e-002
3.091332e+003, 3.706828e-002
3.093260e+003, 3.650543e-002
3.095189e+003, 3.666636e-002
3.097117e+003, 3.716777e-002
3.099046e+003, 3.648167e-002
3.100974e+003, 3.522140e-002
3.102903e+003, 3.624252e-002
3.104831e+003, 3.682711e-002
3.106760e+003, 3.737796e-002
3.108688e+003, 3.696732e-002
3.110617e+003, 3.648636e-002
3.112545e+003, 3.645623e-002
3.114474e+003, 3.623823e-002
3.116402e+003, 3.675622e-002
3.118331e+003, 3.667317e-002
3.120259e+003, 3.714684e-002
3.122188e+003, 3.768666e-002
3.124116e+003, 3.691733e-002
3.126044e+003, 3.628638e-002
3.127973e+003, 3.581718e-002
3.129901e+003, 3.583971e-002
3.131830e+003, 3.618830e-002
3.133758e+003, 3.619916e-002
3.135687e+003, 3.719454e-002
3.137615e+003, 3.741783e-002
3.139544e+003, 3.726091e-002
3.141472e+003, 3.749050e-002
3.143401e+003, 3.750294e-002
3.145329e+003, 3.523848e-002
3.147258e+003, 3.526337e-002
3.149186e+003, 3.763743e-002
3.151115e+003, 3.766585e-002
3.153043e+003, 3.671137e-002
3.154971e+003, 3.634831e-002
3.156900e+003, 3.606049e-002
3.158828e+003, 3.553433e-002
3.160757e+003, 3.476670e-002
3.162685e+003, 3.590702e-002
3.164614e+003, 3.732972e-002
3.166542e+003, 3.677955e-002
3.168471e+003, 3.718722e-002
3.170399e+003, 3.760041e-002
3.172328e+003, 3.697718e-002
3.174256e+003, 3.670390e-002
3.176185e+003, 3.638178e-002
3.178113e+003, 3.632657e-002
3.180042e+003, 3.636759e-002
3.181970e+003, 3.588423e-002
3.183898e+003, 3.557122e-002
3.185827e+003, 3.577146e-002
3.187755e+003, 3.673580e-002
3.189684e+003, 3.841585e-002
3.191612e+003, 3.789299e-002
3.193541e+003, 3.743809e-002
3.195469e+003, 3.866288e-002
3.197398e+003, 3.855347e-002
3.199326e+003, 3.801960e-002
3.201255e+003, 3.760907e-002
3.203183e+003, 3.631982e-002
3.205112e+003, 3.620850e-002
3.207040e+003, 3.720137e-002
3.208969e+003, 3.719972e-002
3.210897e+003, 3.697274e-002
3.212825e+003, 3.683800e-002
3.214754e+003, 3.664003e-002
3.216682e+003, 3.637923e-002
3.218611e+003, 3.761819e-002
3.220539e+003, 3.946076e-002
3.222468e+003, 3.904470e-002
3.224396e+003, 3.778691e-002
3.226325e+003, 3.803248e-002
3.228253e+003, 3.935494e-002
3.230182e+003, 4.074403e-002
3.232110e+003, 4.098335e-002
3.234039e+003, 4.047379e-002
3.235967e+003, 4.066301e-002
3.237896e+003, 4.206003e-002
3.239824e+003, 4.179518e-002
3.241752e+003, 3.958755e-002
3.243681e+003, 3.776385e-002
3.245609e+003, 3.925778e-002
3.247538e+003, 4.132779e-002
3.249466e+003, 4.119813e-002
3.251395e+003, 4.013508e-002
3.253323e+003, 4.001544e-002
3.255252e+003, 4.066282e-002
3.257180e+003, 4.149854e-002
3.259109e+003, 4.275953e-002
3.261037e+003, 4.234482e-002
3.262966e+003, 4.262352e-002
3.264894e+003, 4.303871e-002
3.266823e+003, 4.328705e-002
3.268751e+003, 4.341391e-002
3.270679e+003, 4.339173e-002
3.272608e+003, 4.424696e-002
3.274536e+003, 4.559420e-002
3.276465e+003, 4.449007e-002
3.278393e+003, 4.434886e-002
3.280322e+003, 4.358051e-002
3.282250e+003, 4.211411e-002
3.284179e+003, 4.190469e-002
3.286107e+003, 4.318638e-002
3.288036e+003, 4.303606e-002
3.289964e+003, 4.208007e-002
3.291893e+003, 4.222348e-002
3.293821e+003, 4.367514e-002
3.295750e+003, 4.449611e-002
3.297678e+003, 4.531822e-002
3.299606e+003, 4.517449e-002
3.301535e+003, 4.440575e-002
3.303463e+003, 4.397122e-002
3.305392e+003, 4.364331e-002
3.307320e+003, 4.329570e-002
3.309249e+003, 4.229292e-002
3.311177e+003, 4.206511e-002
3.313106e+003, 4.389801e-002
3.315034e+003, 4.539663e-002
3.316963e+003, 4.580147e-002
3.318891e+003, 4.654684e-002
3.320820e+003, 4.686459e-002
3.322748e+003, 4.814566e-002
3.324677e+003, 4.931522e-002
3.326605e+003, 4.869545e-002
3.328533e+003, 4.855943e-002
3.330462e+003, 4.936495e-002
3.332390e+003, 5.083195e-002
3.334319e+003, 5.141611e-002
3.336247e+003, 5.081947e-002
3.338176e+003, 5.306150e-002
3.340104e+003, 5.598674e-002
3.342033e+003, 5.630026e-002
3.343961e+003, 5.783318e-002
3.345890e+003, 5.998096e-002
3.347818e+003, 6.154066e-002
3.349747e+003, 6.280393e-002
3.351675e+003, 6.493226e-002
3.353604e+003, 6.684303e-002
3.355532e+003, 6.806734e-002
3.357460e+003, 6.998812e-002
3.359389e+003, 7.001406e-002
3.361317e+003, 7.214152e-002
3.363246e+003, 7.468650e-002
3.365174e+003, 7.466361e-002
3.367103e+003, 7.635894e-002
3.369031e+003, 7.916407e-002
3.370960e+003, 7.973944e-002
3.372888e+003, 7.928451e-002
3.374817e+003, 8.099557e-002
3.376745e+003, 8.295371e-002
3.378674e+003, 8.441346e-002
3.380602e+003, 8.671296e-002
3.382531e+003, 8.692831e-002
3.384459e+003, 8.672909e-002
3.386387e+003, 8.545079e-002
3.388316e+003, 8.384567e-002
3.390244e+003, 8.106713e-002
3.392173e+003, 7.867340e-002
3.394101e+003, 7.463884e-002
3.396030e+003, 6.804559e-002
3.397958e+003, 6.399721e-002
3.399887e+003, 6.084024e-002
3.401815e+003, 5.651518e-002
3.403744e+003, 5.310974e-002
3.405672e+003, 4.972835e-002
3.407601e+003, 4.552363e-002
3.409529e+003, 4.208676e-002
3.411458e+003, 4.074316e-002
3.413386e+003, 3.920837e-002
3.415314e+003, 3.777420e-002
3.417243e+003, 3.493772e-002
3.419171e+003, 3.333520e-002
3.421100e+003, 3.239014e-002
3.423028e+003, 3.147295e-002
3.424957e+003, 3.255109e-002
3.426885e+003, 3.086394e-002
3.428814e+003, 2.810393e-002
3.430742e+003, 2.755445e-002
3.432671e+003, 2.928068e-002
3.434599e+003, 3.082876e-002
3.436528e+003, 2.962848e-002
3.438456e+003, 2.819561e-002
3.440385e+003, 2.773725e-002
3.442313e+003, 2.698472e-002
3.444241e+003, 2.605963e-002
3.446170e+003, 2.531287e-002
3.448098e+003, 2.438553e-002
3.450027e+003, 2.440639e-002
3.451955e+003, 2.565132e-002
3.453884e+003, 2.688306e-002
3.455812e+003, 2.560695e-002
3.457741e+003, 2.353156e-002
3.459669e+003, 2.385223e-002
3.461598e+003, 2.594897e-002
3.463526e+003, 2.577064e-002
3.465455e+003, 2.445852e-002
3.467383e+003, 2.429372e-002
3.469312e+003, 2.274090e-002
3.471240e+003, 2.305917e-002
3.473168e+003, 2.469411e-002
3.475097e+003, 2.540770e-002
3.477025e+003, 2.531914e-002
3.478954e+003, 2.437499e-002
3.480882e+003, 2.263997e-002
3.482811e+003, 2.372235e-002
3.484739e+003, 2.431646e-002
3.486668e+003, 2.387985e-002
3.488596e+003, 2.457812e-002
3.490525e+003, 2.460884e-002
3.492453e+003, 2.439205e-002
3.494382e+003, 2.495544e-002
3.496310e+003, 2.610528e-002
3.498239e+003, 2.708765e-002
3.500167e+003, 2.665959e-002
3.502095e+003, 2.455284e-002
3.504024e+003, 2.295058e-002
3.505952e+003, 2.369055e-002
3.507881e+003, 2.771568e-002
3.509809e+003, 2.840188e-002
3.511738e+003, 2.642036e-002
3.513666e+003, 2.673694e-002
3.515595e+003, 2.893973e-002
3.517523e+003, 2.929577e-002
3.519452e+003, 2.731172e-002
3.521380e+003, 2.656642e-002
3.523309e+003, 2.716034e-002
3.525237e+003, 2.823530e-002
3.527166e+003, 2.727374e-002
3.529094e+003, 2.717419e-002
3.531022e+003, 3.094392e-002
3.532951e+003, 3.197610e-002
3.534879e+003, 3.306529e-002
3.536808e+003, 3.711935e-002
3.538736e+003, 4.110369e-002
3.540665e+003, 4.625449e-002
3.542593e+003, 4.907051e-002
3.544522e+003, 4.925806e-002
3.546450e+003, 4.951253e-002
3.548379e+003, 4.704973e-002
3.550307e+003, 3.986524e-002
3.552236e+003, 3.325925e-002
3.554164e+003, 2.979272e-002
3.556093e+003, 2.746078e-002
3.558021e+003, 2.504500e-002
3.559949e+003, 2.127629e-002
3.561878e+003, 2.078759e-002
3.563806e+003, 2.117991e-002
3.565735e+003, 2.218965e-002
3.567663e+003, 2.373352e-002
3.569592e+003, 2.435063e-002
3.571520e+003, 2.217098e-002
3.573449e+003, 2.189896e-002
3.575377e+003, 2.473645e-002
3.577306e+003, 2.430233e-002
3.579234e+003, 2.244913e-002
3.581163e+003, 2.147353e-002
3.583091e+003, 2.044380e-002
3.585020e+003, 2.061585e-002
3.586948e+003, 2.144790e-002
3.588876e+003, 2.150005e-002
3.590805e+003, 2.028854e-002
3.592733e+003, 2.053662e-002
3.594662e+003, 2.160285e-002
3.596590e+003, 2.189505e-002
3.598519e+003, 2.052343e-002
3.600447e+003, 2.132005e-002
3.602376e+003, 2.562967e-002
3.604304e+003, 2.677426e-002
3.606233e+003, 2.602155e-002
3.608161e+003, 2.844064e-002
3.610090e+003, 3.080083e-002
3.612018e+003, 3.111019e-002
3.613947e+003, 3.089102e-002
3.615875e+003, 2.786179e-002
3.617803e+003, 2.469534e-002
3.619732e+003, 2.334012e-002
3.621660e+003, 2.110381e-002
3.623589e+003, 1.868581e-002
3.625517e+003, 1.753667e-002
3.627446e+003, 1.662212e-002
3.629374e+003, 1.789037e-002
3.631303e+003, 1.802655e-002
3.633231e+003, 1.465308e-002
3.635160e+003, 1.132435e-002
3.637088e+003, 1.085402e-002
3.639017e+003, 1.180806e-002
3.640945e+003, 1.049676e-002
3.642874e+003, 1.103124e-002
3.644802e+003, 1.327088e-002
3.646730e+003, 1.411297e-002
3.648659e+003, 1.370601e-002
3.650587e+003, 1.241351e-002
3.652516e+003, 1.057256e-002
3.654444e+003, 1.012669e-002
3.656373e+003, 1.239531e-002
3.658301e+003, 1.413708e-002
3.660230e+003, 1.198194e-002
3.662158e+003, 8.716490e-003
3.664087e+003, 8.442726e-003
3.666015e+003, 1.058052e-002
3.667944e+003, 9.397360e-003
3.669872e+003, 1.134916e-002
3.671801e+003, 1.448741e-002
3.673729e+003, 1.269618e-002
3.675657e+003, 1.156475e-002
3.677586e+003, 1.197278e-002
3.679514e+003, 1.118799e-002
3.681443e+003, 1.077788e-002
3.683371e+003, 1.132601e-002
3.685300e+003, 1.086623e-002
3.687228e+003, 9.278631e-003
3.689157e+003, 9.751558e-003
3.691085e+003, 1.007003e-002
3.693014e+003, 1.021453e-002
3.694942e+003, 1.048424e-002
3.696871e+003, 1.111472e-002
3.698799e+003, 1.018701e-002
3.700728e+003, 7.979672e-003
3.702656e+003, 8.502743e-003
3.704584e+003, 8.975876e-003
3.706513e+003, 1.006606e-002
3.708441e+003, 1.208274e-002
3.710370e+003, 1.249385e-002
3.712298e+003, 1.193068e-002
3.714227e+003, 1.109113e-002
3.716155e+003, 1.282576e-002
3.718084e+003, 1.175348e-002
3.720012e+003, 9.201862e-003
3.721941e+003, 1.125594e-002
3.723869e+003, 1.312943e-002
3.725798e+003, 1.172789e-002
3.727726e+003, 1.104724e-002
3.729655e+003, 9.221907e-003
3.731583e+003, 7.429549e-003
3.733511e+003, 7.347302e-003
3.735440e+003, 6.291668e-003
3.737368e+003, 8.342947e-003
3.739297e+003, 1.153304e-002
3.741225e+003, 1.276003e-002
3.743154e+003, 1.108854e-002
3.745082e+003, 1.072763e-002
3.747011e+003, 1.054916e-002
3.748939e+003, 1.086233e-002
3.750868e+003, 9.009144e-003
3.752796e+003, 1.005449e-002
3.754725e+003, 1.186240e-002
3.756653e+003, 1.459192e-002
3.758582e+003, 1.444455e-002
3.760510e+003, 1.272881e-002
3.762438e+003, 1.112417e-002
3.764367e+003, 9.315823e-003
3.766295e+003, 1.033521e-002
3.768224e+003, 1.078836e-002
3.770152e+003, 1.185853e-002
3.772081e+003, 1.214166e-002
3.774009e+003, 1.249993e-002
3.775938e+003, 1.183441e-002
3.777866e+003, 1.238039e-002
3.779795e+003, 1.166486e-002
3.781723e+003, 1.133219e-002
3.783652e+003, 1.228885e-002
3.785580e+003, 1.372624e-002
3.787509e+003, 1.238486e-002
3.789437e+003, 1.054708e-002
3.791365e+003, 1.107941e-002
3.793294e+003, 1.135352e-002
3.795222e+003, 9.963389e-003
3.797151e+003, 9.961714e-003
3.799079e+003, 1.092433e-002
3.801008e+003, 1.321859e-002
3.802936e+003, 1.168989e-002
3.804865e+003, 9.788062e-003
3.806793e+003, 9.890114e-003
3.808722e+003, 1.105119e-002
3.810650e+003, 1.288115e-002
3.812579e+003, 1.351446e-002
3.814507e+003, 1.430937e-002
3.816436e+003, 1.486713e-002
3.818364e+003, 1.391871e-002
3.820292e+003, 1.492987e-002
3.822221e+003, 1.314791e-002
3.824149e+003, 1.128391e-002
3.826078e+003, 1.019565e-002
3.828006e+003, 1.014815e-002
3.829935e+003, 1.079113e-002
3.831863e+003, 1.029971e-002
3.833792e+003, 1.050254e-002
3.835720e+003, 1.263891e-002
3.837649e+003, 1.112375e-002
3.839577e+003, 1.049937e-002
3.841506e+003, 1.228578e-002
3.843434e+003, 1.151621e-002
3.845363e+003, 1.058281e-002
3.847291e+003, 1.152437e-002
3.849219e+003, 1.095101e-002
3.851148e+003, 1.247619e-002
3.853076e+003, 1.408333e-002
3.855005e+003, 1.297039e-002
3.856933e+003, 1.040898e-002
3.858862e+003, 1.102419e-002
3.860790e+003, 1.096068e-002
3.862719e+003, 1.055045e-002
3.864647e+003, 9.054690e-003
3.866576e+003, 8.234037e-003
3.868504e+003, 1.029147e-002
3.870433e+003, 1.244977e-002
3.872361e+003, 1.108610e-002
3.874290e+003, 1.276621e-002
3.876218e+003, 1.287750e-002
3.878146e+003, 1.266767e-002
3.880075e+003, 1.183990e-002
3.882003e+003, 1.179684e-002
3.883932e+003, 1.226095e-002
3.885860e+003, 1.139963e-002
3.887789e+003, 1.114229e-002
3.889717e+003, 1.158066e-002
3.891646e+003, 1.476561e-002
3.893574e+003, 1.437675e-002
3.895503e+003, 1.332796e-002
3.897431e+003, 1.323674e-002
3.899360e+003, 1.249438e-002
3.901288e+003, 1.004327e-002
3.903217e+003, 9.815549e-003
3.905145e+003, 1.236883e-002
3.907073e+003, 1.401607e-002
3.909002e+003, 1.335878e-002
3.910930e+003, 1.215969e-002
3.912859e+003, 1.289832e-002
3.914787e+003, 1.435876e-002
3.916716e+003, 1.452397e-002
3.918644e+003, 1.283840e-002
3.920573e+003, 1.205555e-002
3.922501e+003, 1.211540e-002
3.924430e+003, 1.270023e-002
3.926358e+003, 1.261255e-002
3.928287e+003, 1.191987e-002
3.930215e+003, 1.100517e-002
3.932144e+003, 9.227083e-003
3.934072e+003, 9.045914e-003
3.936000e+003, 8.332165e-003
3.937929e+003, 1.099721e-002
3.939857e+003, 1.421355e-002
3.941786e+003, 1.479213e-002
3.943714e+003, 1.334390e-002
3.945643e+003, 1.347841e-002
3.947571e+003, 1.406695e-002
3.949500e+003, 1.390847e-002
3.951428e+003, 1.259801e-002
3.953357e+003, 1.347155e-002
3.955285e+003, 1.508263e-002
3.957214e+003, 1.475158e-002
3.959142e+003, 1.496673e-002
3.961071e+003, 1.364850e-002
3.962999e+003, 1.163535e-002
3.964927e+003, 1.192093e-002
3.966856e+003, 1.278784e-002
3.968784e+003, 1.501864e-002
3.970713e+003, 1.669520e-002
3.972641e+003, 1.693819e-002
3.974570e+003, 1.536966e-002
3.976498e+003, 1.360596e-002
3.978427e+003, 1.247294e-002
3.980355e+003, 1.228214e-002
3.982284e+003, 1.086131e-002
3.984212e+003, 1.342517e-002
3.986141e+003, 1.604203e-002
3.988069e+003, 1.556556e-002
3.989998e+003, 1.230955e-002
3.991926e+003, 1.230041e-002
3.993854e+003, 1.357347e-002
3.995783e+003, 1.378198e-002
3.997711e+003, 1.404572e-002
3.999640e+003, 1.405007e-002
##END=



