##NAMES=Natrolite
##RRUFFID=R040102
##IDEAL CHEMISTRY=Na_2_(Si_3_Al_2_)O_10_&#183;2H_2_O
##LOCALITY=Ross' Quarry, Northland, New Zealand
##OWNER=RRUFF
##SOURCE=University of Arizona Mineral Museum
##DESCRIPTION=Mass of colorless acicular crystals
##STATUS=The identification of this mineral has been confirmed by X-ray diffraction and chemical analysis
##URL=rruff.info/R040102
##MEASURED CHEMISTRY=(Na_0.92_Ca_0.02_)_2_(Si_3.03_Al_1.99_)O_10_Â·2H_2_O
3.991926e+002, 0.000000e+000
4.011211e+002, 2.257081e-001
4.030496e+002, 2.268220e-001
4.049780e+002, 2.433710e-001
4.069065e+002, 2.560990e-001
4.088350e+002, 2.620793e-001
4.107634e+002, 2.641304e-001
4.126919e+002, 2.668020e-001
4.146204e+002, 2.632526e-001
4.165488e+002, 2.574564e-001
4.184773e+002, 2.483969e-001
4.204058e+002, 2.258125e-001
4.223342e+002, 2.006800e-001
4.242627e+002, 1.779234e-001
4.261912e+002, 1.586343e-001
4.281196e+002, 1.420968e-001
4.300481e+002, 1.275778e-001
4.319766e+002, 1.142382e-001
4.339050e+002, 1.062796e-001
4.358335e+002, 1.039680e-001
4.377620e+002, 1.064568e-001
4.396904e+002, 1.115196e-001
4.416189e+002, 1.125597e-001
4.435474e+002, 1.043646e-001
4.454758e+002, 8.997975e-002
4.474043e+002, 7.651314e-002
4.493328e+002, 6.507354e-002
4.512612e+002, 5.716961e-002
4.531897e+002, 5.360146e-002
4.551182e+002, 5.313059e-002
4.570466e+002, 5.305272e-002
4.589751e+002, 5.392969e-002
4.609036e+002, 5.654458e-002
4.628320e+002, 5.996605e-002
4.647605e+002, 6.457019e-002
4.666890e+002, 7.047429e-002
4.686174e+002, 7.724856e-002
4.705459e+002, 8.449829e-002
4.724744e+002, 9.291835e-002
4.744028e+002, 1.032407e-001
4.763313e+002, 1.144705e-001
4.782598e+002, 1.264855e-001
4.801882e+002, 1.391133e-001
4.821167e+002, 1.496493e-001
4.840452e+002, 1.562236e-001
4.859736e+002, 1.597551e-001
4.879021e+002, 1.597778e-001
4.898306e+002, 1.563024e-001
4.917590e+002, 1.517422e-001
4.936875e+002, 1.485916e-001
4.956160e+002, 1.466037e-001
4.975444e+002, 1.449109e-001
4.994729e+002, 1.446411e-001
5.014014e+002, 1.444602e-001
5.033298e+002, 1.447194e-001
5.052583e+002, 1.455928e-001
5.071868e+002, 1.451517e-001
5.091152e+002, 1.418511e-001
5.110437e+002, 1.369415e-001
5.129722e+002, 1.311572e-001
5.149006e+002, 1.246767e-001
5.168291e+002, 1.172924e-001
5.187576e+002, 1.093054e-001
5.206860e+002, 1.021182e-001
5.226145e+002, 9.690823e-002
5.245430e+002, 9.365102e-002
5.264714e+002, 9.232611e-002
5.283999e+002, 9.210505e-002
5.303284e+002, 9.251120e-002
5.322568e+002, 9.385099e-002
5.341853e+002, 9.619689e-002
5.361138e+002, 9.859258e-002
5.380422e+002, 1.004369e-001
5.399707e+002, 1.016105e-001
5.418992e+002, 1.023691e-001
5.438276e+002, 1.020388e-001
5.457561e+002, 1.012090e-001
5.476846e+002, 1.002770e-001
5.496130e+002, 9.953123e-002
5.515415e+002, 9.861360e-002
5.534700e+002, 9.788732e-002
5.553984e+002, 9.740435e-002
5.573269e+002, 9.746324e-002
5.592554e+002, 9.841334e-002
5.611838e+002, 1.003077e-001
5.631123e+002, 1.038452e-001
5.650408e+002, 1.089123e-001
5.669692e+002, 1.154162e-001
5.688977e+002, 1.228449e-001
5.708262e+002, 1.316416e-001
5.727546e+002, 1.403530e-001
5.746831e+002, 1.465344e-001
5.766116e+002, 1.481394e-001
5.785400e+002, 1.446722e-001
5.804685e+002, 1.385849e-001
5.823970e+002, 1.327622e-001
5.843254e+002, 1.285211e-001
5.862539e+002, 1.268381e-001
5.881824e+002, 1.283980e-001
5.901108e+002, 1.328699e-001
5.920393e+002, 1.399546e-001
5.939678e+002, 1.488296e-001
5.958962e+002, 1.573285e-001
5.978247e+002, 1.633890e-001
5.997532e+002, 1.655259e-001
6.016816e+002, 1.643403e-001
6.036101e+002, 1.623606e-001
6.055386e+002, 1.596162e-001
6.074670e+002, 1.570789e-001
6.093955e+002, 1.571931e-001
6.113240e+002, 1.593350e-001
6.132524e+002, 1.629264e-001
6.151809e+002, 1.672231e-001
6.171094e+002, 1.707834e-001
6.190378e+002, 1.728321e-001
6.209663e+002, 1.725027e-001
6.228948e+002, 1.689606e-001
6.248232e+002, 1.622266e-001
6.267517e+002, 1.538682e-001
6.286802e+002, 1.441337e-001
6.306086e+002, 1.337923e-001
6.325371e+002, 1.236075e-001
6.344656e+002, 1.137099e-001
6.363940e+002, 1.049326e-001
6.383225e+002, 9.738573e-002
6.402510e+002, 9.120702e-002
6.421794e+002, 8.658504e-002
6.441079e+002, 8.338574e-002
6.460364e+002, 8.124352e-002
6.479648e+002, 8.013573e-002
6.498933e+002, 8.001339e-002
6.518218e+002, 7.994883e-002
6.537502e+002, 7.967677e-002
6.556787e+002, 7.920846e-002
6.576072e+002, 7.850336e-002
6.595356e+002, 7.764095e-002
6.614641e+002, 7.664876e-002
6.633926e+002, 7.615382e-002
6.653210e+002, 7.611280e-002
6.672495e+002, 7.694924e-002
6.691780e+002, 7.888430e-002
6.711064e+002, 8.170395e-002
6.730349e+002, 8.517155e-002
6.749634e+002, 8.855379e-002
6.768918e+002, 9.048766e-002
6.788203e+002, 8.988825e-002
6.807488e+002, 8.727178e-002
6.826772e+002, 8.335149e-002
6.846057e+002, 7.844405e-002
6.865342e+002, 7.385122e-002
6.884626e+002, 7.032719e-002
6.903911e+002, 6.762935e-002
6.923196e+002, 6.572464e-002
6.942480e+002, 6.425453e-002
6.961765e+002, 6.293644e-002
6.981050e+002, 6.165478e-002
7.000334e+002, 6.007354e-002
7.019619e+002, 5.776813e-002
7.038904e+002, 5.474653e-002
7.058188e+002, 5.167299e-002
7.077473e+002, 4.934392e-002
7.096758e+002, 4.777678e-002
7.116042e+002, 4.689413e-002
7.135327e+002, 4.663163e-002
7.154612e+002, 4.698727e-002
7.173896e+002, 4.786596e-002
7.193181e+002, 4.831882e-002
7.212466e+002, 4.739900e-002
7.231750e+002, 4.477366e-002
7.251035e+002, 4.110584e-002
7.270320e+002, 3.709080e-002
7.289604e+002, 3.341963e-002
7.308889e+002, 3.060687e-002
7.328174e+002, 2.826787e-002
7.347458e+002, 2.644313e-002
7.366743e+002, 2.520695e-002
7.386028e+002, 2.432673e-002
7.405313e+002, 2.334515e-002
7.424597e+002, 2.257565e-002
7.443882e+002, 2.200761e-002
7.463167e+002, 2.171415e-002
7.482451e+002, 2.124340e-002
7.501736e+002, 2.086726e-002
7.521021e+002, 2.082513e-002
7.540305e+002, 2.092485e-002
7.559590e+002, 2.116130e-002
7.578875e+002, 2.122599e-002
7.598159e+002, 2.127527e-002
7.617444e+002, 2.124557e-002
7.636729e+002, 2.127455e-002
7.656013e+002, 2.137879e-002
7.675298e+002, 2.103998e-002
7.694583e+002, 2.038156e-002
7.713867e+002, 1.995344e-002
7.733152e+002, 1.970924e-002
7.752437e+002, 1.969318e-002
7.771721e+002, 1.962584e-002
7.791006e+002, 1.924856e-002
7.810291e+002, 1.898157e-002
7.829575e+002, 1.867007e-002
7.848860e+002, 1.830070e-002
7.868145e+002, 1.801981e-002
7.887429e+002, 1.792096e-002
7.906714e+002, 1.793918e-002
7.925999e+002, 1.804472e-002
7.945283e+002, 1.798557e-002
7.964568e+002, 1.778553e-002
7.983853e+002, 1.773018e-002
8.003137e+002, 1.763301e-002
8.022422e+002, 1.748041e-002
8.041707e+002, 1.758202e-002
8.060991e+002, 1.782773e-002
8.080276e+002, 1.810066e-002
8.099561e+002, 1.807522e-002
8.118845e+002, 1.841167e-002
8.138130e+002, 1.888030e-002
8.157415e+002, 1.896392e-002
8.176699e+002, 1.905845e-002
8.195984e+002, 1.936403e-002
8.215269e+002, 1.956934e-002
8.234553e+002, 1.984883e-002
8.253838e+002, 2.035357e-002
8.273123e+002, 2.105957e-002
8.292407e+002, 2.168842e-002
8.311692e+002, 2.216896e-002
8.330977e+002, 2.260771e-002
8.350261e+002, 2.303390e-002
8.369546e+002, 2.359364e-002
8.388831e+002, 2.447428e-002
8.408115e+002, 2.542154e-002
8.427400e+002, 2.627917e-002
8.446685e+002, 2.696216e-002
8.465969e+002, 2.773486e-002
8.485254e+002, 2.865817e-002
8.504539e+002, 2.977769e-002
8.523823e+002, 3.103852e-002
8.543108e+002, 3.205019e-002
8.562393e+002, 3.315737e-002
8.581677e+002, 3.448891e-002
8.600962e+002, 3.587908e-002
8.620247e+002, 3.717672e-002
8.639531e+002, 3.873119e-002
8.658816e+002, 4.043401e-002
8.678101e+002, 4.192314e-002
8.697385e+002, 4.365307e-002
8.716670e+002, 4.533452e-002
8.735955e+002, 4.685822e-002
8.755239e+002, 4.877644e-002
8.774524e+002, 5.076888e-002
8.793809e+002, 5.271958e-002
8.813093e+002, 5.508835e-002
8.832378e+002, 5.766457e-002
8.851663e+002, 6.030790e-002
8.870947e+002, 6.318309e-002
8.890232e+002, 6.650054e-002
8.909517e+002, 7.007899e-002
8.928801e+002, 7.417543e-002
8.948085e+002, 7.879811e-002
8.967370e+002, 8.384649e-002
8.986655e+002, 8.916514e-002
9.005939e+002, 9.455959e-002
9.025224e+002, 1.001662e-001
9.044509e+002, 1.063717e-001
9.063793e+002, 1.130475e-001
9.083078e+002, 1.203919e-001
9.102363e+002, 1.283194e-001
9.121647e+002, 1.369976e-001
9.140932e+002, 1.466751e-001
9.160217e+002, 1.572846e-001
9.179501e+002, 1.690078e-001
9.198786e+002, 1.817891e-001
9.218071e+002, 1.950815e-001
9.237355e+002, 2.091365e-001
9.256640e+002, 2.243597e-001
9.275925e+002, 2.408193e-001
9.295209e+002, 2.580034e-001
9.314494e+002, 2.760414e-001
9.333779e+002, 2.951101e-001
9.353063e+002, 3.144182e-001
9.372348e+002, 3.333007e-001
9.391633e+002, 3.520029e-001
9.410917e+002, 3.702695e-001
9.430202e+002, 3.880841e-001
9.449487e+002, 4.047353e-001
9.468771e+002, 4.202614e-001
9.488056e+002, 4.354618e-001
9.507341e+002, 4.502363e-001
9.526625e+002, 4.650586e-001
9.545910e+002, 4.799878e-001
9.565195e+002, 4.928671e-001
9.584479e+002, 5.017471e-001
9.603764e+002, 5.053124e-001
9.623049e+002, 5.007960e-001
9.642333e+002, 4.868325e-001
9.661618e+002, 4.663037e-001
9.680903e+002, 4.467883e-001
9.700187e+002, 4.343016e-001
9.719472e+002, 4.277116e-001
9.738757e+002, 4.240082e-001
9.758041e+002, 4.201973e-001
9.777326e+002, 4.139884e-001
9.796611e+002, 4.051132e-001
9.815895e+002, 3.944533e-001
9.835180e+002, 3.828122e-001
9.854465e+002, 3.700114e-001
9.873749e+002, 3.558210e-001
9.893034e+002, 3.401371e-001
9.912319e+002, 3.241702e-001
9.931603e+002, 3.087057e-001
9.950888e+002, 2.953531e-001
9.970173e+002, 2.837425e-001
9.989457e+002, 2.703865e-001
1.000874e+003, 2.538035e-001
1.002803e+003, 2.362326e-001
1.004731e+003, 2.202477e-001
1.006660e+003, 2.065862e-001
1.008588e+003, 1.940364e-001
1.010517e+003, 1.813531e-001
1.012445e+003, 1.686936e-001
1.014373e+003, 1.565168e-001
1.016302e+003, 1.447195e-001
1.018230e+003, 1.338440e-001
1.020159e+003, 1.243867e-001
1.022087e+003, 1.168660e-001
1.024016e+003, 1.120496e-001
1.025944e+003, 1.104346e-001
1.027873e+003, 1.124136e-001
1.029801e+003, 1.180990e-001
1.031730e+003, 1.272139e-001
1.033658e+003, 1.403155e-001
1.035587e+003, 1.580458e-001
1.037515e+003, 1.780852e-001
1.039444e+003, 1.945697e-001
1.041372e+003, 2.026767e-001
1.043301e+003, 2.040637e-001
1.045229e+003, 2.037726e-001
1.047157e+003, 2.045889e-001
1.049086e+003, 2.069246e-001
1.051014e+003, 2.107941e-001
1.052943e+003, 2.150360e-001
1.054871e+003, 2.180843e-001
1.056800e+003, 2.193545e-001
1.058728e+003, 2.179192e-001
1.060657e+003, 2.123810e-001
1.062585e+003, 2.028070e-001
1.064514e+003, 1.904677e-001
1.066442e+003, 1.778332e-001
1.068371e+003, 1.668837e-001
1.070299e+003, 1.585802e-001
1.072228e+003, 1.535256e-001
1.074156e+003, 1.513705e-001
1.076084e+003, 1.513146e-001
1.078013e+003, 1.525788e-001
1.079941e+003, 1.546652e-001
1.081870e+003, 1.562278e-001
1.083798e+003, 1.561056e-001
1.085727e+003, 1.537919e-001
1.087655e+003, 1.498831e-001
1.089584e+003, 1.444017e-001
1.091512e+003, 1.377409e-001
1.093441e+003, 1.307842e-001
1.095369e+003, 1.238431e-001
1.097298e+003, 1.174053e-001
1.099226e+003, 1.113713e-001
1.101155e+003, 1.059602e-001
1.103083e+003, 1.010701e-001
1.105011e+003, 9.655568e-002
1.106940e+003, 9.202938e-002
1.108868e+003, 8.712271e-002
1.110797e+003, 8.148757e-002
1.112725e+003, 7.498145e-002
1.114654e+003, 6.821240e-002
1.116582e+003, 6.198606e-002
1.118511e+003, 5.631781e-002
1.120439e+003, 5.116052e-002
1.122368e+003, 4.694071e-002
1.124296e+003, 4.353639e-002
1.126225e+003, 4.062899e-002
1.128153e+003, 3.797870e-002
1.130082e+003, 3.560772e-002
1.132010e+003, 3.358509e-002
1.133938e+003, 3.177167e-002
1.135867e+003, 3.005982e-002
1.137795e+003, 2.844937e-002
1.139724e+003, 2.721078e-002
1.141652e+003, 2.602886e-002
1.143581e+003, 2.467122e-002
1.145509e+003, 2.328918e-002
1.147438e+003, 2.229705e-002
1.149366e+003, 2.132727e-002
1.151295e+003, 2.018736e-002
1.153223e+003, 1.933745e-002
1.155152e+003, 1.872431e-002
1.157080e+003, 1.805730e-002
1.159009e+003, 1.729660e-002
1.160937e+003, 1.656007e-002
1.162865e+003, 1.595099e-002
1.164794e+003, 1.523356e-002
1.166722e+003, 1.455848e-002
1.168651e+003, 1.392861e-002
1.170579e+003, 1.341434e-002
1.172508e+003, 1.304623e-002
1.174436e+003, 1.273663e-002
1.176365e+003, 1.244185e-002
1.178293e+003, 1.206104e-002
1.180222e+003, 1.149547e-002
1.182150e+003, 1.107905e-002
1.184079e+003, 1.068865e-002
1.186007e+003, 1.040330e-002
1.187936e+003, 1.013734e-002
1.189864e+003, 9.836530e-003
1.191792e+003, 9.458432e-003
1.193721e+003, 9.157454e-003
1.195649e+003, 8.847911e-003
1.197578e+003, 8.567978e-003
1.199506e+003, 8.385360e-003
1.201435e+003, 8.130088e-003
1.203363e+003, 7.930074e-003
1.205292e+003, 7.741219e-003
1.207220e+003, 7.612263e-003
1.209149e+003, 7.275760e-003
1.211077e+003, 6.990424e-003
1.213006e+003, 6.800141e-003
1.214934e+003, 6.706114e-003
1.216863e+003, 6.634682e-003
1.218791e+003, 6.343689e-003
1.220719e+003, 6.259537e-003
1.222648e+003, 6.127278e-003
1.224576e+003, 6.043566e-003
1.226505e+003, 5.992044e-003
1.228433e+003, 5.710186e-003
1.230362e+003, 5.436634e-003
1.232290e+003, 5.433229e-003
1.234219e+003, 5.351013e-003
1.236147e+003, 5.210129e-003
1.238076e+003, 5.207315e-003
1.240004e+003, 5.254336e-003
1.241933e+003, 5.283736e-003
1.243861e+003, 5.210574e-003
1.245790e+003, 5.037457e-003
1.247718e+003, 4.839418e-003
1.249646e+003, 4.708217e-003
1.251575e+003, 4.786116e-003
1.253503e+003, 4.894022e-003
1.255432e+003, 5.036169e-003
1.257360e+003, 4.959689e-003
1.259289e+003, 4.815969e-003
1.261217e+003, 4.846902e-003
1.263146e+003, 4.772779e-003
1.265074e+003, 4.694837e-003
1.267003e+003, 4.705243e-003
1.268931e+003, 4.804899e-003
1.270860e+003, 4.947451e-003
1.272788e+003, 4.966369e-003
1.274717e+003, 4.969578e-003
1.276645e+003, 4.867856e-003
1.278573e+003, 4.756137e-003
1.280502e+003, 4.702399e-003
1.282430e+003, 4.715682e-003
1.284359e+003, 4.739374e-003
1.286287e+003, 4.755461e-003
1.288216e+003, 4.727069e-003
1.290144e+003, 4.650604e-003
1.292073e+003, 4.676451e-003
1.294001e+003, 4.655196e-003
1.295930e+003, 4.684048e-003
1.297858e+003, 4.676781e-003
1.299787e+003, 4.746289e-003
1.301715e+003, 4.805354e-003
1.303644e+003, 4.658059e-003
1.305572e+003, 4.540363e-003
1.307500e+003, 4.661181e-003
1.309429e+003, 4.774462e-003
1.311357e+003, 4.683128e-003
1.313286e+003, 4.378086e-003
1.315214e+003, 4.327428e-003
1.317143e+003, 4.647621e-003
1.319071e+003, 4.726345e-003
1.321000e+003, 4.770201e-003
1.322928e+003, 4.725785e-003
1.324857e+003, 4.663117e-003
1.326785e+003, 4.666093e-003
1.328714e+003, 4.605400e-003
1.330642e+003, 4.665773e-003
1.332571e+003, 4.543865e-003
1.334499e+003, 4.471404e-003
1.336427e+003, 4.447557e-003
1.338356e+003, 4.260051e-003
1.340284e+003, 4.338912e-003
1.342213e+003, 4.602374e-003
1.344141e+003, 4.574950e-003
1.346070e+003, 4.527346e-003
1.347998e+003, 4.592698e-003
1.349927e+003, 4.554475e-003
1.351855e+003, 4.577621e-003
1.353784e+003, 4.708793e-003
1.355712e+003, 4.702454e-003
1.357641e+003, 4.616678e-003
1.359569e+003, 4.593760e-003
1.361498e+003, 4.695174e-003
1.363426e+003, 4.801899e-003
1.365354e+003, 4.734294e-003
1.367283e+003, 4.693564e-003
1.369211e+003, 4.625456e-003
1.371140e+003, 4.668366e-003
1.373068e+003, 4.632840e-003
1.374997e+003, 4.569601e-003
1.376925e+003, 4.484645e-003
1.378854e+003, 4.517317e-003
1.380782e+003, 4.626886e-003
1.382711e+003, 4.590159e-003
1.384639e+003, 4.646643e-003
1.386568e+003, 4.613592e-003
1.388496e+003, 4.639518e-003
1.390424e+003, 4.777003e-003
1.392353e+003, 4.732596e-003
1.394281e+003, 4.803712e-003
1.396210e+003, 5.125097e-003
1.398138e+003, 5.173426e-003
1.400067e+003, 5.016260e-003
1.401995e+003, 5.098227e-003
1.403924e+003, 5.134556e-003
1.405852e+003, 5.250179e-003
1.407781e+003, 5.216022e-003
1.409709e+003, 5.200404e-003
1.411638e+003, 5.289013e-003
1.413566e+003, 5.412665e-003
1.415495e+003, 5.241250e-003
1.417423e+003, 5.122343e-003
1.419351e+003, 5.329327e-003
1.421280e+003, 5.317874e-003
1.423208e+003, 5.039046e-003
1.425137e+003, 5.066923e-003
1.427065e+003, 5.323594e-003
1.428994e+003, 5.089620e-003
1.430922e+003, 4.936212e-003
1.432851e+003, 5.175560e-003
1.434779e+003, 5.244924e-003
1.436708e+003, 5.153896e-003
1.438636e+003, 5.035765e-003
1.440565e+003, 4.936978e-003
1.442493e+003, 4.935299e-003
1.444422e+003, 4.810722e-003
1.446350e+003, 4.864023e-003
1.448278e+003, 5.000862e-003
1.450207e+003, 4.999465e-003
1.452135e+003, 4.969009e-003
1.454064e+003, 4.890154e-003
1.455992e+003, 4.751361e-003
1.457921e+003, 4.700744e-003
1.459849e+003, 4.764696e-003
1.461778e+003, 4.842965e-003
1.463706e+003, 4.596485e-003
1.465635e+003, 4.445395e-003
1.467563e+003, 4.582543e-003
1.469492e+003, 4.564593e-003
1.471420e+003, 4.402386e-003
1.473349e+003, 4.164221e-003
1.475277e+003, 4.209485e-003
1.477205e+003, 4.221923e-003
1.479134e+003, 4.215057e-003
1.481062e+003, 4.313349e-003
1.482991e+003, 4.450644e-003
1.484919e+003, 4.376022e-003
1.486848e+003, 4.256214e-003
1.488776e+003, 4.292106e-003
1.490705e+003, 4.445636e-003
1.492633e+003, 4.363071e-003
1.494562e+003, 4.328137e-003
1.496490e+003, 4.410803e-003
1.498419e+003, 4.310464e-003
1.500347e+003, 4.170253e-003
1.502276e+003, 4.303289e-003
1.504204e+003, 4.368784e-003
1.506132e+003, 4.305982e-003
1.508061e+003, 4.402492e-003
1.509989e+003, 4.623801e-003
1.511918e+003, 4.529647e-003
1.513846e+003, 4.558867e-003
1.515775e+003, 4.710907e-003
1.517703e+003, 4.678429e-003
1.519632e+003, 4.617735e-003
1.521560e+003, 4.429332e-003
1.523489e+003, 4.383030e-003
1.525417e+003, 4.315432e-003
1.527346e+003, 4.379995e-003
1.529274e+003, 4.632261e-003
1.531203e+003, 4.836785e-003
1.533131e+003, 5.011285e-003
1.535059e+003, 5.234335e-003
1.536988e+003, 5.332830e-003
1.538916e+003, 5.262684e-003
1.540845e+003, 5.474769e-003
1.542773e+003, 5.691308e-003
1.544702e+003, 5.764199e-003
1.546630e+003, 5.888700e-003
1.548559e+003, 6.243709e-003
1.550487e+003, 6.513068e-003
1.552416e+003, 6.521909e-003
1.554344e+003, 6.448285e-003
1.556273e+003, 6.590047e-003
1.558201e+003, 6.780066e-003
1.560130e+003, 6.896201e-003
1.562058e+003, 7.103571e-003
1.563986e+003, 7.262912e-003
1.565915e+003, 7.225911e-003
1.567843e+003, 7.130760e-003
1.569772e+003, 7.254721e-003
1.571700e+003, 7.569369e-003
1.573629e+003, 7.588096e-003
1.575557e+003, 7.586847e-003
1.577486e+003, 7.903124e-003
1.579414e+003, 8.369733e-003
1.581343e+003, 8.550605e-003
1.583271e+003, 8.533555e-003
1.585200e+003, 8.742476e-003
1.587128e+003, 8.947778e-003
1.589057e+003, 8.941105e-003
1.590985e+003, 9.122333e-003
1.592913e+003, 9.221469e-003
1.594842e+003, 9.310687e-003
1.596770e+003, 9.585569e-003
1.598699e+003, 9.807182e-003
1.600627e+003, 9.889148e-003
1.602556e+003, 1.000133e-002
1.604484e+003, 1.010265e-002
1.606413e+003, 1.034395e-002
1.608341e+003, 1.075856e-002
1.610270e+003, 1.106540e-002
1.612198e+003, 1.129353e-002
1.614127e+003, 1.174818e-002
1.616055e+003, 1.238602e-002
1.617984e+003, 1.330014e-002
1.619912e+003, 1.449430e-002
1.621840e+003, 1.572972e-002
1.623769e+003, 1.683211e-002
1.625697e+003, 1.802796e-002
1.627626e+003, 1.895357e-002
1.629554e+003, 1.954703e-002
1.631483e+003, 1.983143e-002
1.633411e+003, 1.960545e-002
1.635340e+003, 1.850922e-002
1.637268e+003, 1.708596e-002
1.639197e+003, 1.596951e-002
1.641125e+003, 1.484227e-002
1.643054e+003, 1.368243e-002
1.644982e+003, 1.261591e-002
1.646911e+003, 1.147308e-002
1.648839e+003, 1.071540e-002
1.650767e+003, 1.027738e-002
1.652696e+003, 9.755081e-003
1.654624e+003, 9.154285e-003
1.656553e+003, 8.859621e-003
1.658481e+003, 8.830744e-003
1.660410e+003, 8.725449e-003
1.662338e+003, 8.246422e-003
1.664267e+003, 7.943546e-003
1.666195e+003, 7.649308e-003
1.668124e+003, 7.420085e-003
1.670052e+003, 7.133264e-003
1.671981e+003, 7.046934e-003
1.673909e+003, 6.833053e-003
1.675838e+003, 6.587124e-003
1.677766e+003, 6.473884e-003
1.679694e+003, 6.314608e-003
1.681623e+003, 6.132009e-003
1.683551e+003, 5.721520e-003
1.685480e+003, 5.220502e-003
1.687408e+003, 5.234386e-003
1.689337e+003, 5.185940e-003
1.691265e+003, 4.962211e-003
1.693194e+003, 5.135292e-003
1.695122e+003, 5.311784e-003
1.697051e+003, 5.079809e-003
1.698979e+003, 4.772163e-003
1.700908e+003, 4.713546e-003
1.702836e+003, 5.029803e-003
1.704765e+003, 4.738983e-003
1.706693e+003, 4.559080e-003
1.708621e+003, 4.496252e-003
1.710550e+003, 4.467067e-003
1.712478e+003, 4.422701e-003
1.714407e+003, 4.403997e-003
1.716335e+003, 4.238117e-003
1.718264e+003, 4.054780e-003
1.720192e+003, 4.143051e-003
1.722121e+003, 4.104055e-003
1.724049e+003, 3.849164e-003
1.725978e+003, 3.945332e-003
1.727906e+003, 4.177317e-003
1.729835e+003, 3.983843e-003
1.731763e+003, 3.747587e-003
1.733692e+003, 3.384563e-003
1.735620e+003, 3.285134e-003
1.737548e+003, 3.295479e-003
1.739477e+003, 3.257491e-003
1.741405e+003, 3.213186e-003
1.743334e+003, 3.096859e-003
1.745262e+003, 2.744575e-003
1.747191e+003, 2.730867e-003
1.749119e+003, 2.833929e-003
1.751048e+003, 2.842364e-003
1.752976e+003, 2.718714e-003
1.754905e+003, 2.632381e-003
1.756833e+003, 3.062169e-003
1.758762e+003, 3.318483e-003
1.760690e+003, 3.305410e-003
1.762619e+003, 3.046871e-003
1.764547e+003, 2.594627e-003
1.766475e+003, 2.736618e-003
1.768404e+003, 3.172114e-003
1.770332e+003, 3.105027e-003
1.772261e+003, 3.158299e-003
1.774189e+003, 3.195869e-003
1.776118e+003, 3.209495e-003
1.778046e+003, 3.119638e-003
1.779975e+003, 3.032478e-003
1.781903e+003, 3.178848e-003
1.783832e+003, 3.113052e-003
1.785760e+003, 2.917021e-003
1.787689e+003, 2.975370e-003
1.789617e+003, 2.845289e-003
1.791546e+003, 2.803814e-003
1.793474e+003, 3.015181e-003
1.795402e+003, 3.163250e-003
1.797331e+003, 2.945387e-003
1.799259e+003, 2.705866e-003
1.801188e+003, 2.696773e-003
1.803116e+003, 2.853844e-003
1.805045e+003, 2.818114e-003
1.806973e+003, 2.651363e-003
1.808902e+003, 2.693877e-003
1.810830e+003, 2.436077e-003
1.812759e+003, 2.195530e-003
1.814687e+003, 2.204225e-003
1.816616e+003, 2.073261e-003
1.818544e+003, 2.519545e-003
1.820473e+003, 2.789317e-003
1.822401e+003, 2.446973e-003
1.824329e+003, 2.198027e-003
1.826258e+003, 2.381522e-003
1.828186e+003, 2.140281e-003
1.830115e+003, 1.806517e-003
1.832043e+003, 1.861859e-003
1.833972e+003, 2.096143e-003
1.835900e+003, 1.721902e-003
1.837829e+003, 1.465361e-003
1.839757e+003, 1.831590e-003
1.841686e+003, 1.910542e-003
1.843614e+003, 1.715942e-003
1.845543e+003, 1.762985e-003
1.847471e+003, 1.830372e-003
1.849400e+003, 1.459685e-003
1.851328e+003, 1.296517e-003
1.853256e+003, 1.488929e-003
1.855185e+003, 1.647526e-003
1.857113e+003, 1.573714e-003
1.859042e+003, 1.221908e-003
1.860970e+003, 9.671180e-004
1.862899e+003, 1.136733e-003
1.864827e+003, 9.698127e-004
1.866756e+003, 6.961820e-004
1.868684e+003, 2.468427e-004
1.870613e+003, 3.889477e-004
1.872541e+003, 4.830188e-004
1.874470e+003, 1.312033e-004
1.876398e+003, 2.329595e-004
1.878327e+003, 5.170107e-005
1.880255e+003, -3.859150e-004
1.882183e+003, -5.531687e-004
1.884112e+003, -5.964271e-004
1.886040e+003, -1.182095e-004
1.887969e+003, -5.062885e-005
1.889897e+003, -1.739854e-004
1.891826e+003, -4.182281e-004
1.893754e+003, -7.417096e-004
1.895683e+003, -6.912773e-004
1.897611e+003, -8.925076e-004
1.899540e+003, -9.303367e-004
1.901468e+003, -9.449150e-004
1.903397e+003, -9.317707e-004
1.905325e+003, -9.339983e-004
1.907254e+003, -1.208489e-003
1.909182e+003, -1.205299e-003
1.911110e+003, -7.972499e-004
1.913039e+003, -7.974515e-004
1.914967e+003, -1.028185e-003
1.916896e+003, -1.158225e-003
1.918824e+003, -1.106200e-003
1.920753e+003, -1.890239e-003
1.922681e+003, -2.264975e-003
1.924610e+003, -1.709991e-003
1.926538e+003, -1.591306e-003
1.928467e+003, -2.285325e-003
1.930395e+003, -3.224092e-003
1.932324e+003, -2.691644e-003
1.934252e+003, -2.780195e-003
1.936181e+003, -3.579558e-003
1.938109e+003, -2.882128e-003
1.940037e+003, -2.556481e-003
1.941966e+003, -3.379120e-003
1.943894e+003, -3.197436e-003
1.945823e+003, -2.914838e-003
1.947751e+003, -3.541936e-003
1.949680e+003, -4.404610e-003
1.951608e+003, -4.919483e-003
1.953537e+003, -4.736505e-003
1.955465e+003, -4.543097e-003
1.957394e+003, -5.716118e-003
1.959322e+003, -6.868748e-003
1.961251e+003, -6.382081e-003
1.963179e+003, -5.675253e-003
1.965108e+003, -5.827483e-003
1.967036e+003, -6.808836e-003
1.968964e+003, -7.139486e-003
1.970893e+003, -7.817663e-003
1.972821e+003, -8.484814e-003
1.974750e+003, -7.530147e-003
1.976678e+003, -4.366546e-003
1.978607e+003, -2.529244e-003
1.980535e+003, -3.401669e-003
1.982464e+003, -3.457738e-003
1.984392e+003, -3.660560e-003
1.986321e+003, -4.731415e-003
1.988249e+003, -4.507897e-003
1.990178e+003, -4.579127e-003
1.992106e+003, -4.071252e-003
1.994035e+003, -3.764352e-003
1.995963e+003, -4.347527e-003
1.997891e+003, -4.933211e-003
1.999820e+003, -4.835614e-003
2.001748e+003, -5.761609e-003
2.003677e+003, -5.938246e-003
2.005605e+003, -6.026962e-003
2.007534e+003, -5.062361e-003
2.009462e+003, -5.013829e-003
2.011391e+003, -4.814101e-003
2.013319e+003, -4.255924e-003
2.015248e+003, -4.560224e-003
2.017176e+003, -4.142198e-003
2.019105e+003, -2.990511e-003
2.021033e+003, -2.333590e-003
2.022962e+003, -3.747076e-003
2.024890e+003, -3.696832e-003
2.026818e+003, -3.729530e-003
2.028747e+003, -3.815554e-003
2.030675e+003, -4.113796e-003
2.032604e+003, -4.963049e-003
2.034532e+003, -3.808139e-003
2.036461e+003, -7.160165e-004
2.038389e+003, -2.644681e-004
2.040318e+003, 1.108858e-004
2.042246e+003, 1.353593e-003
2.044175e+003, 1.017000e-003
2.046103e+003, 1.084163e-003
2.048032e+003, 7.412850e-004
2.049960e+003, -3.305083e-004
2.051889e+003, -3.956369e-004
2.053817e+003, 5.676092e-005
2.055746e+003, 5.266929e-004
2.057674e+003, 5.674025e-004
2.059603e+003, 5.642126e-004
2.061531e+003, 8.474499e-004
2.063459e+003, 1.376001e-003
2.065388e+003, 2.089474e-003
2.067316e+003, 2.064348e-003
2.069245e+003, 1.184194e-003
2.071173e+003, -2.090461e-004
2.073102e+003, -1.435608e-003
2.075030e+003, -1.239642e-003
2.076959e+003, -4.005422e-004
2.078887e+003, 2.461283e-005
2.080816e+003, -5.118929e-004
2.082744e+003, -4.767117e-004
2.084673e+003, 1.834214e-004
2.086601e+003, 2.455499e-004
2.088530e+003, 4.648809e-004
2.090458e+003, 8.624447e-005
2.092386e+003, -5.857744e-004
2.094315e+003, -8.833549e-004
2.096243e+003, -5.764478e-004
2.098172e+003, -3.971582e-004
2.100100e+003, -2.397638e-004
2.102029e+003, -1.045766e-005
2.103957e+003, 6.925601e-004
2.105886e+003, 1.248501e-003
2.107814e+003, 8.071276e-004
2.109743e+003, 4.114550e-004
2.111671e+003, 5.087123e-004
2.113600e+003, 1.408058e-003
2.115528e+003, 1.510578e-003
2.117457e+003, 1.005059e-003
2.119385e+003, 1.326385e-003
2.121313e+003, 7.885004e-004
2.123242e+003, 7.094687e-005
2.125170e+003, 5.720449e-004
2.127099e+003, -1.548746e-004
2.129027e+003, -7.643452e-004
2.130956e+003, -4.171011e-004
2.132884e+003, -2.733199e-005
2.134813e+003, 2.520049e-004
2.136741e+003, 4.006046e-004
2.138670e+003, 6.502563e-004
2.140598e+003, 5.766023e-004
2.142527e+003, -3.170546e-004
2.144455e+003, -1.393602e-003
2.146384e+003, -2.196518e-003
2.148312e+003, -2.589061e-003
2.150240e+003, -3.636916e-003
2.152169e+003, -4.741173e-003
2.154097e+003, -5.463580e-003
2.156026e+003, -7.840562e-003
2.157954e+003, -5.577430e-003
2.159883e+003, 1.087972e-003
2.161811e+003, 2.382371e-003
2.163740e+003, -1.389481e-003
2.165668e+003, -1.469105e-003
2.167597e+003, -5.768611e-004
2.169525e+003, -2.692502e-003
2.171454e+003, -3.700704e-003
2.173382e+003, -4.027154e-003
2.175311e+003, -3.494748e-003
2.177239e+003, -2.223169e-003
2.179167e+003, -2.087906e-003
2.181096e+003, -1.630745e-003
2.183024e+003, -1.418720e-003
2.184953e+003, -1.227816e-003
2.186881e+003, -5.780509e-005
2.188810e+003, -2.013633e-004
2.190738e+003, -2.110668e-003
2.192667e+003, -2.570558e-003
2.194595e+003, -8.801700e-004
2.196524e+003, -8.629131e-004
2.198452e+003, -7.852161e-004
2.200381e+003, -5.460772e-005
2.202309e+003, -8.164678e-004
2.204238e+003, -7.689774e-004
2.206166e+003, -8.832957e-005
2.208094e+003, -4.807674e-004
2.210023e+003, 4.843529e-004
2.211951e+003, 9.962789e-004
2.213880e+003, -4.937763e-004
2.215808e+003, -7.021729e-004
2.217737e+003, 2.559567e-004
2.219665e+003, -1.289311e-004
2.221594e+003, -7.556808e-004
2.223522e+003, 3.080771e-005
2.225451e+003, 1.565674e-003
2.227379e+003, 1.755147e-003
2.229308e+003, 1.002081e-003
2.231236e+003, 1.013718e-003
2.233165e+003, 2.130582e-003
2.235093e+003, 2.914731e-003
2.237021e+003, 3.136781e-003
2.238950e+003, 2.523270e-003
2.240878e+003, 1.923988e-003
2.242807e+003, 2.304816e-003
2.244735e+003, 2.334181e-003
2.246664e+003, 1.392207e-003
2.248592e+003, 1.762403e-003
2.250521e+003, 2.352667e-003
2.252449e+003, 1.587319e-003
2.254378e+003, 1.233116e-003
2.256306e+003, 2.307393e-003
2.258235e+003, 2.499713e-003
2.260163e+003, 3.191331e-003
2.262092e+003, 3.723306e-003
2.264020e+003, 2.060180e-003
2.265948e+003, 2.234644e-003
2.267877e+003, 3.752314e-003
2.269805e+003, 4.117039e-003
2.271734e+003, 4.155668e-003
2.273662e+003, 3.990591e-003
2.275591e+003, 4.208421e-003
2.277519e+003, 4.658105e-003
2.279448e+003, 4.777757e-003
2.281376e+003, 4.993415e-003
2.283305e+003, 4.813232e-003
2.285233e+003, 5.566462e-003
2.287162e+003, 5.450188e-003
2.289090e+003, 4.863984e-003
2.291019e+003, 4.748675e-003
2.292947e+003, 5.143175e-003
2.294875e+003, 5.209772e-003
2.296804e+003, 4.910027e-003
2.298732e+003, 4.837647e-003
2.300661e+003, 4.769125e-003
2.302589e+003, 4.691795e-003
2.304518e+003, 4.753926e-003
2.306446e+003, 4.788944e-003
2.308375e+003, 4.720075e-003
2.310303e+003, 5.402407e-003
2.312232e+003, 5.945010e-003
2.314160e+003, 5.873885e-003
2.316089e+003, 5.499831e-003
2.318017e+003, 4.915787e-003
2.319946e+003, 4.727840e-003
2.321874e+003, 5.684548e-003
2.323802e+003, 6.447338e-003
2.325731e+003, 5.498615e-003
2.327659e+003, 4.738099e-003
2.329588e+003, 4.672144e-003
2.331516e+003, 4.860919e-003
2.333445e+003, 5.075359e-003
2.335373e+003, 5.069426e-003
2.337302e+003, 4.720569e-003
2.339230e+003, 4.037324e-003
2.341159e+003, 3.880586e-003
2.343087e+003, 3.909518e-003
2.345016e+003, 4.235317e-003
2.346944e+003, 4.315195e-003
2.348873e+003, 4.236768e-003
2.350801e+003, 4.249838e-003
2.352729e+003, 4.360507e-003
2.354658e+003, 4.552992e-003
2.356586e+003, 4.461180e-003
2.358515e+003, 4.158646e-003
2.360443e+003, 3.967099e-003
2.362372e+003, 3.655594e-003
2.364300e+003, 3.688387e-003
2.366229e+003, 3.857380e-003
2.368157e+003, 3.429982e-003
2.370086e+003, 3.545692e-003
2.372014e+003, 3.547345e-003
2.373942e+003, 3.454450e-003
2.375871e+003, 3.510044e-003
2.377799e+003, 3.770230e-003
2.379728e+003, 4.084519e-003
2.381656e+003, 4.385806e-003
2.383585e+003, 4.311976e-003
2.385513e+003, 4.463197e-003
2.387442e+003, 4.211478e-003
2.389370e+003, 4.279871e-003
2.391299e+003, 4.204294e-003
2.393227e+003, 3.530725e-003
2.395156e+003, 3.292466e-003
2.397084e+003, 3.552297e-003
2.399012e+003, 3.712913e-003
2.400941e+003, 3.467500e-003
2.402869e+003, 3.022233e-003
2.404798e+003, 2.899401e-003
2.406726e+003, 3.493797e-003
2.408655e+003, 4.139636e-003
2.410583e+003, 3.900406e-003
2.412512e+003, 3.677449e-003
2.414440e+003, 3.602035e-003
2.416369e+003, 3.619774e-003
2.418297e+003, 4.394905e-003
2.420226e+003, 5.269755e-003
2.422154e+003, 4.450509e-003
2.424083e+003, 3.926991e-003
2.426011e+003, 4.301403e-003
2.427939e+003, 4.026826e-003
2.429868e+003, 4.304599e-003
2.431796e+003, 4.548327e-003
2.433725e+003, 3.676586e-003
2.435653e+003, 3.342415e-003
2.437582e+003, 3.648693e-003
2.439510e+003, 4.462902e-003
2.441439e+003, 4.471870e-003
2.443367e+003, 4.150981e-003
2.445296e+003, 3.952308e-003
2.447224e+003, 3.794937e-003
2.449153e+003, 4.141089e-003
2.451081e+003, 4.653626e-003
2.453010e+003, 5.108408e-003
2.454938e+003, 4.992118e-003
2.456866e+003, 4.477223e-003
2.458795e+003, 3.825706e-003
2.460723e+003, 4.087714e-003
2.462652e+003, 4.227714e-003
2.464580e+003, 4.146664e-003
2.466509e+003, 4.525808e-003
2.468437e+003, 4.289947e-003
2.470366e+003, 4.266177e-003
2.472294e+003, 4.254621e-003
2.474223e+003, 4.670945e-003
2.476151e+003, 4.693289e-003
2.478080e+003, 4.252288e-003
2.480008e+003, 3.383373e-003
2.481937e+003, 3.098052e-003
2.483865e+003, 3.743197e-003
2.485793e+003, 3.979365e-003
2.487722e+003, 4.109865e-003
2.489650e+003, 4.009878e-003
2.491579e+003, 4.288368e-003
2.493507e+003, 4.427480e-003
2.495436e+003, 4.811374e-003
2.497364e+003, 4.541843e-003
2.499293e+003, 4.259237e-003
2.501221e+003, 4.224499e-003
2.503150e+003, 3.714898e-003
2.505078e+003, 3.612322e-003
2.507007e+003, 4.161384e-003
2.508935e+003, 5.199675e-003
2.510864e+003, 5.045692e-003
2.512792e+003, 4.989510e-003
2.514720e+003, 4.676145e-003
2.516649e+003, 4.058358e-003
2.518577e+003, 3.720782e-003
2.520506e+003, 3.853189e-003
2.522434e+003, 3.873832e-003
2.524363e+003, 4.183376e-003
2.526291e+003, 4.484818e-003
2.528220e+003, 4.145198e-003
2.530148e+003, 3.328701e-003
2.532077e+003, 3.115492e-003
2.534005e+003, 3.874402e-003
2.535934e+003, 4.676838e-003
2.537862e+003, 4.644335e-003
2.539791e+003, 4.256742e-003
2.541719e+003, 4.517265e-003
2.543647e+003, 4.788227e-003
2.545576e+003, 5.364310e-003
2.547504e+003, 5.725095e-003
2.549433e+003, 5.605380e-003
2.551361e+003, 4.748403e-003
2.553290e+003, 4.524227e-003
2.555218e+003, 4.893756e-003
2.557147e+003, 5.082475e-003
2.559075e+003, 5.033241e-003
2.561004e+003, 4.665273e-003
2.562932e+003, 4.769842e-003
2.564861e+003, 5.026174e-003
2.566789e+003, 5.681904e-003
2.568718e+003, 5.619276e-003
2.570646e+003, 5.024587e-003
2.572574e+003, 4.569848e-003
2.574503e+003, 4.426473e-003
2.576431e+003, 4.601811e-003
2.578360e+003, 4.870526e-003
2.580288e+003, 5.164780e-003
2.582217e+003, 5.207662e-003
2.584145e+003, 5.400210e-003
2.586074e+003, 5.688921e-003
2.588002e+003, 5.716690e-003
2.589931e+003, 5.769939e-003
2.591859e+003, 5.760941e-003
2.593788e+003, 4.981227e-003
2.595716e+003, 4.198820e-003
2.597645e+003, 4.150450e-003
2.599573e+003, 4.997178e-003
2.601501e+003, 5.339980e-003
2.603430e+003, 5.889051e-003
2.605358e+003, 6.553711e-003
2.607287e+003, 6.336140e-003
2.609215e+003, 6.220683e-003
2.611144e+003, 5.847790e-003
2.613072e+003, 5.583307e-003
2.615001e+003, 6.105276e-003
2.616929e+003, 6.370812e-003
2.618858e+003, 5.812727e-003
2.620786e+003, 5.845896e-003
2.622715e+003, 6.120133e-003
2.624643e+003, 6.461298e-003
2.626572e+003, 6.626923e-003
2.628500e+003, 6.360698e-003
2.630428e+003, 5.670651e-003
2.632357e+003, 5.204202e-003
2.634285e+003, 5.837217e-003
2.636214e+003, 6.280722e-003
2.638142e+003, 5.789531e-003
2.640071e+003, 6.371446e-003
2.641999e+003, 7.158047e-003
2.643928e+003, 6.518182e-003
2.645856e+003, 6.089767e-003
2.647785e+003, 6.469721e-003
2.649713e+003, 6.391529e-003
2.651642e+003, 6.139203e-003
2.653570e+003, 6.488096e-003
2.655499e+003, 6.729438e-003
2.657427e+003, 6.211460e-003
2.659355e+003, 6.556557e-003
2.661284e+003, 6.526281e-003
2.663212e+003, 5.948829e-003
2.665141e+003, 5.917720e-003
2.667069e+003, 5.916493e-003
2.668998e+003, 5.226326e-003
2.670926e+003, 5.052496e-003
2.672855e+003, 5.122855e-003
2.674783e+003, 5.169368e-003
2.676712e+003, 5.370969e-003
2.678640e+003, 5.767048e-003
2.680569e+003, 5.750134e-003
2.682497e+003, 5.708448e-003
2.684426e+003, 5.562576e-003
2.686354e+003, 5.297135e-003
2.688282e+003, 5.592493e-003
2.690211e+003, 5.653826e-003
2.692139e+003, 5.379867e-003
2.694068e+003, 5.157128e-003
2.695996e+003, 5.029291e-003
2.697925e+003, 5.103005e-003
2.699853e+003, 5.326617e-003
2.701782e+003, 5.611838e-003
2.703710e+003, 5.907072e-003
2.705639e+003, 6.088885e-003
2.707567e+003, 5.861308e-003
2.709496e+003, 5.277905e-003
2.711424e+003, 5.355932e-003
2.713353e+003, 5.964003e-003
2.715281e+003, 6.085797e-003
2.717209e+003, 6.081882e-003
2.719138e+003, 6.116988e-003
2.721066e+003, 5.915256e-003
2.722995e+003, 5.755242e-003
2.724923e+003, 5.907032e-003
2.726852e+003, 5.748139e-003
2.728780e+003, 5.826160e-003
2.730709e+003, 5.926933e-003
2.732637e+003, 5.616311e-003
2.734566e+003, 6.251778e-003
2.736494e+003, 6.293193e-003
2.738423e+003, 5.819750e-003
2.740351e+003, 5.924218e-003
2.742280e+003, 6.433833e-003
2.744208e+003, 6.299774e-003
2.746136e+003, 5.948426e-003
2.748065e+003, 5.916547e-003
2.749993e+003, 6.209637e-003
2.751922e+003, 6.638162e-003
2.753850e+003, 6.652539e-003
2.755779e+003, 7.011485e-003
2.757707e+003, 6.960786e-003
2.759636e+003, 6.932818e-003
2.761564e+003, 6.377685e-003
2.763493e+003, 6.117329e-003
2.765421e+003, 6.484238e-003
2.767350e+003, 6.391871e-003
2.769278e+003, 5.780923e-003
2.771207e+003, 5.851563e-003
2.773135e+003, 6.252820e-003
2.775063e+003, 6.006623e-003
2.776992e+003, 5.858504e-003
2.778920e+003, 6.155631e-003
2.780849e+003, 6.191668e-003
2.782777e+003, 5.931116e-003
2.784706e+003, 6.695503e-003
2.786634e+003, 7.348181e-003
2.788563e+003, 6.910770e-003
2.790491e+003, 6.822284e-003
2.792420e+003, 7.138461e-003
2.794348e+003, 6.865323e-003
2.796277e+003, 6.655958e-003
2.798205e+003, 6.978857e-003
2.800134e+003, 7.355948e-003
2.802062e+003, 6.989873e-003
2.803990e+003, 7.146162e-003
2.805919e+003, 7.236554e-003
2.807847e+003, 6.939271e-003
2.809776e+003, 6.785061e-003
2.811704e+003, 6.685079e-003
2.813633e+003, 6.376055e-003
2.815561e+003, 5.954556e-003
2.817490e+003, 6.429461e-003
2.819418e+003, 6.862824e-003
2.821347e+003, 6.647465e-003
2.823275e+003, 6.650408e-003
2.825204e+003, 7.302658e-003
2.827132e+003, 7.873074e-003
2.829061e+003, 7.832028e-003
2.830989e+003, 7.120974e-003
2.832917e+003, 6.899352e-003
2.834846e+003, 6.497286e-003
2.836774e+003, 6.076854e-003
2.838703e+003, 6.728819e-003
2.840631e+003, 7.023104e-003
2.842560e+003, 7.086221e-003
2.844488e+003, 7.144016e-003
2.846417e+003, 6.833110e-003
2.848345e+003, 6.371015e-003
2.850274e+003, 5.788714e-003
2.852202e+003, 6.064969e-003
2.854131e+003, 6.652134e-003
2.856059e+003, 6.753294e-003
2.857988e+003, 7.115238e-003
2.859916e+003, 7.037888e-003
2.861844e+003, 6.342581e-003
2.863773e+003, 6.240231e-003
2.865701e+003, 6.797089e-003
2.867630e+003, 6.933891e-003
2.869558e+003, 7.095649e-003
2.871487e+003, 7.440150e-003
2.873415e+003, 7.623112e-003
2.875344e+003, 7.499978e-003
2.877272e+003, 7.747585e-003
2.879201e+003, 8.032241e-003
2.881129e+003, 8.493977e-003
2.883058e+003, 8.722620e-003
2.884986e+003, 7.877237e-003
2.886915e+003, 7.406692e-003
2.888843e+003, 8.037939e-003
2.890771e+003, 8.403883e-003
2.892700e+003, 7.778217e-003
2.894628e+003, 7.273471e-003
2.896557e+003, 7.315865e-003
2.898485e+003, 7.294268e-003
2.900414e+003, 7.730297e-003
2.902342e+003, 7.845744e-003
2.904271e+003, 8.196398e-003
2.906199e+003, 8.530153e-003
2.908128e+003, 8.494099e-003
2.910056e+003, 8.203208e-003
2.911985e+003, 7.650947e-003
2.913913e+003, 7.369400e-003
2.915842e+003, 7.354645e-003
2.917770e+003, 8.325274e-003
2.919698e+003, 7.922338e-003
2.921627e+003, 6.764718e-003
2.923555e+003, 6.879818e-003
2.925484e+003, 7.438920e-003
2.927412e+003, 7.846345e-003
2.929341e+003, 7.309902e-003
2.931269e+003, 6.587860e-003
2.933198e+003, 6.474772e-003
2.935126e+003, 7.233176e-003
2.937055e+003, 7.662164e-003
2.938983e+003, 7.875488e-003
2.940912e+003, 8.678121e-003
2.942840e+003, 9.570514e-003
2.944769e+003, 9.404469e-003
2.946697e+003, 9.008018e-003
2.948625e+003, 9.392571e-003
2.950554e+003, 9.508920e-003
2.952482e+003, 8.470277e-003
2.954411e+003, 8.409590e-003
2.956339e+003, 9.549271e-003
2.958268e+003, 9.552339e-003
2.960196e+003, 8.968479e-003
2.962125e+003, 9.072663e-003
2.964053e+003, 9.502548e-003
2.965982e+003, 9.252140e-003
2.967910e+003, 9.263206e-003
2.969839e+003, 9.431974e-003
2.971767e+003, 1.066942e-002
2.973696e+003, 1.067584e-002
2.975624e+003, 1.015490e-002
2.977552e+003, 1.045932e-002
2.979481e+003, 1.033204e-002
2.981409e+003, 9.994932e-003
2.983338e+003, 1.014654e-002
2.985266e+003, 1.064956e-002
2.987195e+003, 1.030940e-002
2.989123e+003, 1.043845e-002
2.991052e+003, 1.120648e-002
2.992980e+003, 1.155375e-002
2.994909e+003, 1.162817e-002
2.996837e+003, 1.175960e-002
2.998766e+003, 1.121323e-002
3.000694e+003, 1.102991e-002
3.002623e+003, 1.170068e-002
3.004551e+003, 1.114540e-002
3.006479e+003, 1.072602e-002
3.008408e+003, 1.108098e-002
3.010336e+003, 1.212028e-002
3.012265e+003, 1.259041e-002
3.014193e+003, 1.220748e-002
3.016122e+003, 1.244883e-002
3.018050e+003, 1.234079e-002
3.019979e+003, 1.233716e-002
3.021907e+003, 1.257187e-002
3.023836e+003, 1.305571e-002
3.025764e+003, 1.325360e-002
3.027693e+003, 1.279527e-002
3.029621e+003, 1.310755e-002
3.031550e+003, 1.352450e-002
3.033478e+003, 1.335957e-002
3.035406e+003, 1.311988e-002
3.037335e+003, 1.290685e-002
3.039263e+003, 1.278610e-002
3.041192e+003, 1.314346e-002
3.043120e+003, 1.373871e-002
3.045049e+003, 1.468884e-002
3.046977e+003, 1.445316e-002
3.048906e+003, 1.377871e-002
3.050834e+003, 1.346847e-002
3.052763e+003, 1.360431e-002
3.054691e+003, 1.378082e-002
3.056620e+003, 1.393463e-002
3.058548e+003, 1.442740e-002
3.060477e+003, 1.510464e-002
3.062405e+003, 1.496525e-002
3.064333e+003, 1.457140e-002
3.066262e+003, 1.477471e-002
3.068190e+003, 1.466312e-002
3.070119e+003, 1.501837e-002
3.072047e+003, 1.560265e-002
3.073976e+003, 1.522266e-002
3.075904e+003, 1.468164e-002
3.077833e+003, 1.547314e-002
3.079761e+003, 1.540149e-002
3.081690e+003, 1.575555e-002
3.083618e+003, 1.534863e-002
3.085547e+003, 1.538491e-002
3.087475e+003, 1.634441e-002
3.089404e+003, 1.593481e-002
3.091332e+003, 1.616276e-002
3.093260e+003, 1.693933e-002
3.095189e+003, 1.649258e-002
3.097117e+003, 1.695774e-002
3.099046e+003, 1.825117e-002
3.100974e+003, 1.829762e-002
3.102903e+003, 1.709146e-002
3.104831e+003, 1.631350e-002
3.106760e+003, 1.744374e-002
3.108688e+003, 1.842708e-002
3.110617e+003, 1.823886e-002
3.112545e+003, 1.834979e-002
3.114474e+003, 1.838417e-002
3.116402e+003, 1.843742e-002
3.118331e+003, 1.846569e-002
3.120259e+003, 1.879817e-002
3.122188e+003, 1.925419e-002
3.124116e+003, 2.024824e-002
3.126044e+003, 2.010556e-002
3.127973e+003, 1.941896e-002
3.129901e+003, 2.002512e-002
3.131830e+003, 2.054957e-002
3.133758e+003, 2.051616e-002
3.135687e+003, 2.078532e-002
3.137615e+003, 2.156289e-002
3.139544e+003, 2.193816e-002
3.141472e+003, 2.299954e-002
3.143401e+003, 2.296335e-002
3.145329e+003, 2.314172e-002
3.147258e+003, 2.406007e-002
3.149186e+003, 2.299977e-002
3.151115e+003, 2.228661e-002
3.153043e+003, 2.304281e-002
3.154971e+003, 2.381128e-002
3.156900e+003, 2.498507e-002
3.158828e+003, 2.625961e-002
3.160757e+003, 2.625728e-002
3.162685e+003, 2.616895e-002
3.164614e+003, 2.683121e-002
3.166542e+003, 2.758201e-002
3.168471e+003, 2.719902e-002
3.170399e+003, 2.700762e-002
3.172328e+003, 2.815422e-002
3.174256e+003, 2.901845e-002
3.176185e+003, 2.857272e-002
3.178113e+003, 2.853706e-002
3.180042e+003, 2.965298e-002
3.181970e+003, 2.995623e-002
3.183898e+003, 2.917254e-002
3.185827e+003, 2.971231e-002
3.187755e+003, 2.975663e-002
3.189684e+003, 3.024476e-002
3.191612e+003, 3.166799e-002
3.193541e+003, 3.139247e-002
3.195469e+003, 3.094407e-002
3.197398e+003, 3.023051e-002
3.199326e+003, 2.957796e-002
3.201255e+003, 2.938040e-002
3.203183e+003, 2.941263e-002
3.205112e+003, 3.057231e-002
3.207040e+003, 3.061753e-002
3.208969e+003, 2.984318e-002
3.210897e+003, 3.032324e-002
3.212825e+003, 3.104530e-002
3.214754e+003, 3.012780e-002
3.216682e+003, 2.919132e-002
3.218611e+003, 2.906410e-002
3.220539e+003, 2.870405e-002
3.222468e+003, 2.942220e-002
3.224396e+003, 3.032723e-002
3.226325e+003, 3.030855e-002
3.228253e+003, 2.981489e-002
3.230182e+003, 2.978197e-002
3.232110e+003, 3.013452e-002
3.234039e+003, 2.997187e-002
3.235967e+003, 2.968768e-002
3.237896e+003, 2.940375e-002
3.239824e+003, 2.957638e-002
3.241752e+003, 2.928698e-002
3.243681e+003, 2.968490e-002
3.245609e+003, 3.102970e-002
3.247538e+003, 3.091427e-002
3.249466e+003, 3.066060e-002
3.251395e+003, 3.068386e-002
3.253323e+003, 3.004101e-002
3.255252e+003, 3.064034e-002
3.257180e+003, 3.125395e-002
3.259109e+003, 3.072575e-002
3.261037e+003, 3.181211e-002
3.262966e+003, 3.273236e-002
3.264894e+003, 3.175658e-002
3.266823e+003, 3.174689e-002
3.268751e+003, 3.295222e-002
3.270679e+003, 3.451611e-002
3.272608e+003, 3.525502e-002
3.274536e+003, 3.417522e-002
3.276465e+003, 3.383243e-002
3.278393e+003, 3.528048e-002
3.280322e+003, 3.763074e-002
3.282250e+003, 3.889634e-002
3.284179e+003, 3.911591e-002
3.286107e+003, 4.057942e-002
3.288036e+003, 4.174574e-002
3.289964e+003, 4.223151e-002
3.291893e+003, 4.436913e-002
3.293821e+003, 4.643884e-002
3.295750e+003, 4.670576e-002
3.297678e+003, 4.688662e-002
3.299606e+003, 4.817666e-002
3.301535e+003, 5.065477e-002
3.303463e+003, 5.300532e-002
3.305392e+003, 5.463076e-002
3.307320e+003, 5.628319e-002
3.309249e+003, 5.760854e-002
3.311177e+003, 5.763228e-002
3.313106e+003, 5.926725e-002
3.315034e+003, 6.161934e-002
3.316963e+003, 6.237563e-002
3.318891e+003, 6.325112e-002
3.320820e+003, 6.480818e-002
3.322748e+003, 6.476027e-002
3.324677e+003, 6.231847e-002
3.326605e+003, 6.135499e-002
3.328533e+003, 6.101247e-002
3.330462e+003, 5.941617e-002
3.332390e+003, 5.711969e-002
3.334319e+003, 5.394834e-002
3.336247e+003, 5.209722e-002
3.338176e+003, 5.047791e-002
3.340104e+003, 4.828855e-002
3.342033e+003, 4.695565e-002
3.343961e+003, 4.592946e-002
3.345890e+003, 4.413351e-002
3.347818e+003, 4.308551e-002
3.349747e+003, 4.168147e-002
3.351675e+003, 4.050169e-002
3.353604e+003, 3.895346e-002
3.355532e+003, 3.805720e-002
3.357460e+003, 3.833294e-002
3.359389e+003, 3.957728e-002
3.361317e+003, 3.826707e-002
3.363246e+003, 3.621705e-002
3.365174e+003, 3.504066e-002
3.367103e+003, 3.488279e-002
3.369031e+003, 3.519815e-002
3.370960e+003, 3.534650e-002
3.372888e+003, 3.495829e-002
3.374817e+003, 3.434499e-002
3.376745e+003, 3.352054e-002
3.378674e+003, 3.433675e-002
3.380602e+003, 3.583798e-002
3.382531e+003, 3.467720e-002
3.384459e+003, 3.436258e-002
3.386387e+003, 3.463724e-002
3.388316e+003, 3.379015e-002
3.390244e+003, 3.428563e-002
3.392173e+003, 3.489453e-002
3.394101e+003, 3.427230e-002
3.396030e+003, 3.295708e-002
3.397958e+003, 3.235655e-002
3.399887e+003, 3.238073e-002
3.401815e+003, 3.281946e-002
3.403744e+003, 3.412941e-002
3.405672e+003, 3.389765e-002
3.407601e+003, 3.222175e-002
3.409529e+003, 3.147427e-002
3.411458e+003, 3.170343e-002
3.413386e+003, 3.080018e-002
3.415314e+003, 2.933413e-002
3.417243e+003, 3.019952e-002
3.419171e+003, 3.098460e-002
3.421100e+003, 3.135086e-002
3.423028e+003, 3.129423e-002
3.424957e+003, 3.012499e-002
3.426885e+003, 3.056155e-002
3.428814e+003, 3.186032e-002
3.430742e+003, 3.195301e-002
3.432671e+003, 3.233197e-002
3.434599e+003, 3.124235e-002
3.436528e+003, 3.065072e-002
3.438456e+003, 3.029126e-002
3.440385e+003, 2.982452e-002
3.442313e+003, 2.997643e-002
3.444241e+003, 3.021838e-002
3.446170e+003, 3.010211e-002
3.448098e+003, 3.018113e-002
3.450027e+003, 2.962768e-002
3.451955e+003, 3.021836e-002
3.453884e+003, 3.067864e-002
3.455812e+003, 2.968615e-002
3.457741e+003, 2.968268e-002
3.459669e+003, 3.025834e-002
3.461598e+003, 3.067448e-002
3.463526e+003, 3.131794e-002
3.465455e+003, 3.279633e-002
3.467383e+003, 3.201380e-002
3.469312e+003, 3.063027e-002
3.471240e+003, 2.991537e-002
3.473168e+003, 2.934464e-002
3.475097e+003, 2.939007e-002
3.477025e+003, 2.927464e-002
3.478954e+003, 3.056524e-002
3.480882e+003, 3.122634e-002
3.482811e+003, 3.150881e-002
3.484739e+003, 3.036792e-002
3.486668e+003, 3.003250e-002
3.488596e+003, 3.214576e-002
3.490525e+003, 3.179937e-002
3.492453e+003, 3.141186e-002
3.494382e+003, 3.186098e-002
3.496310e+003, 3.272423e-002
3.498239e+003, 3.327824e-002
3.500167e+003, 3.306104e-002
3.502095e+003, 3.394198e-002
3.504024e+003, 3.644725e-002
3.505952e+003, 3.772943e-002
3.507881e+003, 3.771142e-002
3.509809e+003, 3.979839e-002
3.511738e+003, 4.188583e-002
3.513666e+003, 4.448113e-002
3.515595e+003, 4.684304e-002
3.517523e+003, 4.917252e-002
3.519452e+003, 5.209241e-002
3.521380e+003, 5.679527e-002
3.523309e+003, 6.039499e-002
3.525237e+003, 6.372115e-002
3.527166e+003, 6.760176e-002
3.529094e+003, 7.222431e-002
3.531022e+003, 7.535455e-002
3.532951e+003, 7.750127e-002
3.534879e+003, 7.975481e-002
3.536808e+003, 8.028779e-002
3.538736e+003, 8.029598e-002
3.540665e+003, 7.847097e-002
3.542593e+003, 7.491433e-002
3.544522e+003, 7.171209e-002
3.546450e+003, 6.863520e-002
3.548379e+003, 6.422689e-002
3.550307e+003, 5.765564e-002
3.552236e+003, 5.294385e-002
3.554164e+003, 4.998338e-002
3.556093e+003, 4.655157e-002
3.558021e+003, 4.334607e-002
3.559949e+003, 4.133837e-002
3.561878e+003, 3.917586e-002
3.563806e+003, 3.658831e-002
3.565735e+003, 3.521919e-002
3.567663e+003, 3.356595e-002
3.569592e+003, 3.098688e-002
3.571520e+003, 2.916804e-002
3.573449e+003, 2.794194e-002
3.575377e+003, 2.665161e-002
3.577306e+003, 2.467788e-002
3.579234e+003, 2.240981e-002
3.581163e+003, 2.210906e-002
3.583091e+003, 2.154833e-002
3.585020e+003, 2.135348e-002
3.586948e+003, 2.075084e-002
3.588876e+003, 2.005094e-002
3.590805e+003, 1.989455e-002
3.592733e+003, 1.859595e-002
3.594662e+003, 1.748213e-002
3.596590e+003, 1.714689e-002
3.598519e+003, 1.756277e-002
3.600447e+003, 1.694815e-002
3.602376e+003, 1.610380e-002
3.604304e+003, 1.627055e-002
3.606233e+003, 1.904961e-002
3.608161e+003, 1.909954e-002
3.610090e+003, 1.605014e-002
3.612018e+003, 1.555792e-002
3.613947e+003, 1.543734e-002
3.615875e+003, 1.489981e-002
3.617803e+003, 1.339637e-002
3.619732e+003, 1.165484e-002
3.621660e+003, 1.183449e-002
3.623589e+003, 1.166155e-002
3.625517e+003, 1.075131e-002
3.627446e+003, 1.086829e-002
3.629374e+003, 9.348586e-003
3.631303e+003, 9.167438e-003
3.633231e+003, 1.053574e-002
3.635160e+003, 1.106601e-002
3.637088e+003, 1.046675e-002
3.639017e+003, 8.290220e-003
3.640945e+003, 7.687123e-003
3.642874e+003, 7.871299e-003
3.644802e+003, 7.510555e-003
3.646730e+003, 8.054457e-003
3.648659e+003, 8.523106e-003
3.650587e+003, 9.327112e-003
3.652516e+003, 1.146977e-002
3.654444e+003, 1.145288e-002
3.656373e+003, 8.552587e-003
3.658301e+003, 7.383388e-003
3.660230e+003, 7.461220e-003
3.662158e+003, 7.703919e-003
3.664087e+003, 8.064949e-003
3.666015e+003, 9.259638e-003
3.667944e+003, 1.077537e-002
3.669872e+003, 8.516081e-003
3.671801e+003, 6.844761e-003
3.673729e+003, 6.854361e-003
3.675657e+003, 4.847966e-003
3.677586e+003, 5.789962e-003
3.679514e+003, 5.414871e-003
3.681443e+003, 4.422400e-003
3.683371e+003, 5.281246e-003
3.685300e+003, 6.025903e-003
3.687228e+003, 5.652730e-003
3.689157e+003, 6.625085e-003
3.691085e+003, 6.482258e-003
3.693014e+003, 5.143772e-003
3.694942e+003, 5.359202e-003
3.696871e+003, 5.200597e-003
3.698799e+003, 4.735476e-003
3.700728e+003, 5.318468e-003
3.702656e+003, 5.453632e-003
3.704584e+003, 4.715943e-003
3.706513e+003, 4.177930e-003
3.708441e+003, 3.679942e-003
3.710370e+003, 4.301931e-003
3.712298e+003, 5.477470e-003
3.714227e+003, 5.907939e-003
3.716155e+003, 5.972831e-003
3.718084e+003, 6.472536e-003
3.720012e+003, 6.906415e-003
3.721941e+003, 5.598445e-003
3.723869e+003, 5.346941e-003
3.725798e+003, 4.982732e-003
3.727726e+003, 4.955091e-003
3.729655e+003, 4.286118e-003
3.731583e+003, 3.022048e-003
3.733511e+003, 2.275020e-003
3.735440e+003, 3.046875e-003
3.737368e+003, 4.171394e-003
3.739297e+003, 6.923518e-003
3.741225e+003, 7.157526e-003
3.743154e+003, 4.551605e-003
3.745082e+003, 4.060467e-003
3.747011e+003, 7.841086e-003
3.748939e+003, 8.131858e-003
3.750868e+003, 7.811809e-003
3.752796e+003, 6.619663e-003
3.754725e+003, 5.488141e-003
3.756653e+003, 6.445039e-003
3.758582e+003, 9.191580e-003
3.760510e+003, 9.269190e-003
3.762438e+003, 7.659989e-003
3.764367e+003, 6.853287e-003
3.766295e+003, 5.597526e-003
3.768224e+003, 3.008863e-003
3.770152e+003, 3.593944e-003
3.772081e+003, 7.084319e-003
3.774009e+003, 8.067684e-003
3.775938e+003, 7.535301e-003
3.777866e+003, 6.881382e-003
3.779795e+003, 5.496786e-003
3.781723e+003, 5.625528e-003
3.783652e+003, 5.830777e-003
3.785580e+003, 6.705435e-003
3.787509e+003, 6.510881e-003
3.789437e+003, 4.564592e-003
3.791365e+003, 5.109815e-003
3.793294e+003, 6.313525e-003
3.795222e+003, 7.776514e-003
3.797151e+003, 7.299894e-003
3.799079e+003, 7.443092e-003
3.801008e+003, 6.639449e-003
3.802936e+003, 6.446522e-003
3.804865e+003, 6.223543e-003
3.806793e+003, 7.267319e-003
3.808722e+003, 8.046124e-003
3.810650e+003, 6.706944e-003
3.812579e+003, 6.065059e-003
3.814507e+003, 5.765536e-003
3.816436e+003, 4.880064e-003
3.818364e+003, 7.048176e-003
3.820292e+003, 7.701983e-003
3.822221e+003, 5.761973e-003
3.824149e+003, 3.685443e-003
3.826078e+003, 5.352635e-003
3.828006e+003, 6.336898e-003
3.829935e+003, 6.828289e-003
3.831863e+003, 6.759216e-003
3.833792e+003, 6.294011e-003
3.835720e+003, 5.539534e-003
3.837649e+003, 6.070859e-003
3.839577e+003, 7.661015e-003
3.841506e+003, 6.210490e-003
3.843434e+003, 5.318427e-003
3.845363e+003, 6.243917e-003
3.847291e+003, 6.305919e-003
3.849219e+003, 4.572014e-003
3.851148e+003, 4.035782e-003
3.853076e+003, 4.686163e-003
3.855005e+003, 5.050254e-003
3.856933e+003, 8.586559e-003
3.858862e+003, 8.746470e-003
3.860790e+003, 7.077140e-003
3.862719e+003, 6.821453e-003
3.864647e+003, 5.877153e-003
3.866576e+003, 6.715506e-003
3.868504e+003, 7.056380e-003
3.870433e+003, 4.030507e-003
3.872361e+003, 3.814755e-003
3.874290e+003, 5.731852e-003
3.876218e+003, 7.514460e-003
3.878146e+003, 7.336266e-003
3.880075e+003, 6.732981e-003
3.882003e+003, 5.946659e-003
3.883932e+003, 4.738922e-003
3.885860e+003, 2.609820e-003
3.887789e+003, 4.073765e-003
3.889717e+003, 5.481014e-003
3.891646e+003, 4.999746e-003
3.893574e+003, 4.894527e-003
3.895503e+003, 5.331436e-003
3.897431e+003, 7.231599e-003
3.899360e+003, 7.632228e-003
3.901288e+003, 6.691654e-003
3.903217e+003, 5.461302e-003
3.905145e+003, 4.030440e-003
3.907073e+003, 6.022416e-003
3.909002e+003, 8.638272e-003
3.910930e+003, 6.914575e-003
3.912859e+003, 5.569781e-003
3.914787e+003, 6.038786e-003
3.916716e+003, 6.298108e-003
3.918644e+003, 6.399625e-003
3.920573e+003, 6.159774e-003
3.922501e+003, 6.171259e-003
3.924430e+003, 7.176452e-003
3.926358e+003, 7.170728e-003
3.928287e+003, 7.959055e-003
3.930215e+003, 1.074715e-002
3.932144e+003, 9.192762e-003
3.934072e+003, 8.104977e-003
3.936000e+003, 6.928094e-003
3.937929e+003, 6.896318e-003
3.939857e+003, 7.933256e-003
3.941786e+003, 8.529843e-003
3.943714e+003, 8.895832e-003
3.945643e+003, 9.781826e-003
3.947571e+003, 8.249452e-003
3.949500e+003, 6.042549e-003
3.951428e+003, 5.151317e-003
3.953357e+003, 6.766576e-003
3.955285e+003, 7.875402e-003
3.957214e+003, 7.699321e-003
3.959142e+003, 8.372809e-003
3.961071e+003, 7.359361e-003
3.962999e+003, 5.003344e-003
3.964927e+003, 3.819887e-003
3.966856e+003, 6.119768e-003
3.968784e+003, 7.533849e-003
3.970713e+003, 7.165695e-003
3.972641e+003, 8.778015e-003
3.974570e+003, 9.515855e-003
3.976498e+003, 7.573212e-003
3.978427e+003, 6.327793e-003
3.980355e+003, 7.837405e-003
3.982284e+003, 7.654944e-003
3.984212e+003, 7.196947e-003
3.986141e+003, 6.728770e-003
3.988069e+003, 6.004555e-003
3.989998e+003, 4.315575e-003
3.991926e+003, 6.267295e-003
3.993854e+003, 8.748295e-003
3.995783e+003, 7.690642e-003
3.997711e+003, 6.022322e-003
3.999640e+003, 6.027197e-003
##END=



