##NAMES=Norbergite
##RRUFFID=R050280
##IDEAL CHEMISTRY=Mg_3_SiO_4_F_2_
##LOCALITY=Sterling mine, Ogdensburg, New Jersey, USA
##OWNER=RRUFF
##SOURCE=Marcus Origlieri
##DESCRIPTION=Brownish-orange granular
##STATUS=The identification of this mineral has been confirmed by X-ray diffraction and chemical analysis
##URL=rruff.info/R050280
##MEASURED CHEMISTRY=(Mg_0.993_Fe_0.006_Ca_0.001_)_3_(SiO_4_)(F_0.704_OH_0.296_)_2_
399.1926, 0.2587505
401.1211, 0.2575331
403.0496, 0.2587712
404.9780, 0.2575458
406.9065, 0.2457882
408.8350, 0.2415812
410.7634, 0.2470555
412.6919, 0.2467884
414.6204, 0.2402268
416.5488, 0.2359999
418.4773, 0.2326413
420.4058, 0.2262039
422.3342, 0.2206336
424.2627, 0.2135925
426.1912, 0.2101470
428.1196, 0.2090134
430.0481, 0.2095461
431.9766, 0.2066343
433.9050, 0.2031667
435.8335, 0.2045896
437.7620, 0.2033288
439.6904, 0.2009324
441.6189, 0.2004412
443.5474, 0.1979568
445.4758, 0.1947127
447.4043, 0.1928569
449.3328, 0.1906063
451.2612, 0.1860956
453.1897, 0.1844349
455.1182, 0.1840492
457.0466, 0.1838484
458.9751, 0.1823541
460.9036, 0.1802319
462.8320, 0.1775765
464.7605, 0.1755645
466.6890, 0.1735012
468.6174, 0.1710706
470.5459, 0.1685405
472.4744, 0.1653195
474.4028, 0.1624071
476.3313, 0.1597279
478.2598, 0.1560006
480.1882, 0.1512814
482.1167, 0.1470498
484.0452, 0.1423153
485.9736, 0.1364306
487.9021, 0.1320496
489.8306, 0.1286691
491.7590, 0.1248569
493.6875, 0.1208689
495.6160, 0.1191871
497.5444, 0.1171529
499.4729, 0.1151087
501.4014, 0.1146273
503.3298, 0.1147090
505.2583, 0.1141377
507.1868, 0.1128102
509.1152, 0.1118030
511.0437, 0.1108053
512.9722, 0.1089609
514.9006, 0.1066839
516.8291, 0.1034398
518.7576, 0.1010856
520.6860, 9.9428117E-02
522.6145, 9.6411183E-02
524.5430, 9.3291618E-02
526.4714, 8.9853272E-02
528.3999, 8.7374583E-02
530.3284, 8.5077167E-02
532.2568, 8.2940519E-02
534.1853, 8.1512637E-02
536.1138, 8.1988797E-02
538.0422, 8.4732883E-02
539.9707, 8.8172242E-02
541.8992, 9.0609543E-02
543.8276, 9.3910493E-02
545.7561, 9.7779073E-02
547.6846, 0.1010212
549.6130, 0.1020530
551.5415, 0.1005574
553.4700, 9.8678298E-02
555.3984, 9.6430361E-02
557.3269, 9.4726592E-02
559.2554, 9.4140939E-02
561.1838, 9.4772033E-02
563.1123, 9.5449127E-02
565.0408, 9.5188983E-02
566.9692, 9.3031824E-02
568.8977, 8.9400373E-02
570.8262, 8.4736787E-02
572.7546, 7.9626396E-02
574.6831, 7.5032093E-02
576.6116, 7.0932902E-02
578.5400, 6.7047529E-02
580.4685, 6.3239790E-02
582.3970, 5.9768248E-02
584.3254, 5.7423528E-02
586.2539, 5.5189312E-02
588.1824, 5.2974600E-02
590.1108, 5.2732449E-02
592.0393, 5.3394120E-02
593.9678, 5.4204579E-02
595.8962, 5.5370089E-02
597.8247, 5.8006410E-02
599.7532, 6.1437272E-02
601.6816, 6.5048203E-02
603.6101, 6.9585517E-02
605.5386, 7.4736416E-02
607.4670, 8.0885522E-02
609.3955, 8.7516733E-02
611.3240, 9.3390942E-02
613.2524, 9.9100813E-02
615.1809, 0.1042653
617.1094, 0.1078408
619.0378, 0.1096556
620.9663, 0.1101561
622.8948, 0.1092210
624.8232, 0.1074879
626.7517, 0.1052194
628.6802, 0.1017065
630.6086, 9.8187111E-02
632.5371, 9.4988197E-02
634.4656, 9.1302663E-02
636.3940, 8.7111957E-02
638.3225, 8.3153993E-02
640.2510, 7.9022303E-02
642.1794, 7.4383780E-02
644.1079, 6.9918104E-02
646.0364, 6.5696567E-02
647.9648, 6.1133452E-02
649.8933, 5.7217240E-02
651.8218, 5.4434840E-02
653.7502, 5.1605608E-02
655.6787, 4.8410371E-02
657.6072, 4.5750640E-02
659.5356, 4.3875571E-02
661.4641, 4.2351339E-02
663.3926, 4.0825840E-02
665.3210, 3.9800301E-02
667.2495, 3.8633320E-02
669.1780, 3.7518568E-02
671.1064, 3.6434360E-02
673.0349, 3.5709690E-02
674.9634, 3.5011820E-02
676.8918, 3.4486320E-02
678.8203, 3.4530312E-02
680.7488, 3.5017870E-02
682.6772, 3.4882888E-02
684.6057, 3.4825340E-02
686.5342, 3.5266679E-02
688.4626, 3.5134401E-02
690.3911, 3.4706399E-02
692.3196, 3.4448121E-02
694.2480, 3.4076761E-02
696.1765, 3.3595219E-02
698.1050, 3.3250000E-02
700.0334, 3.3300400E-02
701.9619, 3.3505611E-02
703.8904, 3.3413772E-02
705.8188, 3.3363350E-02
707.7473, 3.3617519E-02
709.6758, 3.3698641E-02
711.6042, 3.4052219E-02
713.5327, 3.4793440E-02
715.4612, 3.5304300E-02
717.3896, 3.5745680E-02
719.3181, 3.6733631E-02
721.2466, 3.7801590E-02
723.1750, 3.8778789E-02
725.1035, 3.9598379E-02
727.0320, 4.0896662E-02
728.9604, 4.2162810E-02
730.8889, 4.3670539E-02
732.8174, 4.5786221E-02
734.7458, 4.7711469E-02
736.6743, 4.9847942E-02
738.6028, 5.3055011E-02
740.5313, 5.7127479E-02
742.4597, 6.1713420E-02
744.3882, 6.6498414E-02
746.3167, 7.0893168E-02
748.2451, 7.4961737E-02
750.1736, 7.8913957E-02
752.1021, 8.2416393E-02
754.0305, 8.5006163E-02
755.9590, 8.5939176E-02
757.8875, 8.4179901E-02
759.8159, 7.9678193E-02
761.7444, 7.4099079E-02
763.6729, 6.8671420E-02
765.6013, 6.4096928E-02
767.5298, 6.0025342E-02
769.4583, 5.6419831E-02
771.3867, 5.3599618E-02
773.3152, 5.1231489E-02
775.2437, 4.9636438E-02
777.1721, 4.8958190E-02
779.1006, 4.9103521E-02
781.0291, 4.9283810E-02
782.9575, 4.9769621E-02
784.8860, 5.0636049E-02
786.8145, 5.1352389E-02
788.7429, 5.2338932E-02
790.6714, 5.3144850E-02
792.5999, 5.3899240E-02
794.5283, 5.5261329E-02
796.4568, 5.6489859E-02
798.3853, 5.7360549E-02
800.3137, 5.8294769E-02
802.2422, 5.9628788E-02
804.1707, 6.1130371E-02
806.0991, 6.2374029E-02
808.0276, 6.3497446E-02
809.9561, 6.4959154E-02
811.8845, 6.6521473E-02
813.8130, 6.8048008E-02
815.7415, 6.9215491E-02
817.6699, 7.0573203E-02
819.5984, 7.2420679E-02
821.5269, 7.4275590E-02
823.4553, 7.6000161E-02
825.3838, 7.8298159E-02
827.3123, 8.1177227E-02
829.2407, 8.4018469E-02
831.1692, 8.6971723E-02
833.0977, 9.0506867E-02
835.0261, 9.4283767E-02
836.9546, 9.9141262E-02
838.8831, 0.1051386
840.8115, 0.1115550
842.7400, 0.1193669
844.6685, 0.1285261
846.5969, 0.1385617
848.5254, 0.1496960
850.4539, 0.1626511
852.3823, 0.1750099
854.3108, 0.1847518
856.2393, 0.1926021
858.1677, 0.1983997
860.0962, 0.2018740
862.0247, 0.2038482
863.9531, 0.2063500
865.8816, 0.2123516
867.8101, 0.2219113
869.7385, 0.2340337
871.6670, 0.2475138
873.5955, 0.2596864
875.5239, 0.2691693
877.4524, 0.2758641
879.3809, 0.2789293
881.3093, 0.2784652
883.2378, 0.2747761
885.1663, 0.2692871
887.0947, 0.2643332
889.0232, 0.2631117
890.9517, 0.2657794
892.8801, 0.2702231
894.8085, 0.2739423
896.7370, 0.2753192
898.6655, 0.2741765
900.5939, 0.2718581
902.5224, 0.2685013
904.4509, 0.2638450
906.3793, 0.2587192
908.3078, 0.2536834
910.2363, 0.2492926
912.1647, 0.2450882
914.0932, 0.2407102
916.0217, 0.2363985
917.9501, 0.2315540
919.8786, 0.2263286
921.8071, 0.2204071
923.7355, 0.2138757
925.6640, 0.2078989
927.5925, 0.2025460
929.5209, 0.1969149
931.4494, 0.1918806
933.3779, 0.1874193
935.3063, 0.1830653
937.2348, 0.1793626
939.1633, 0.1760825
941.0917, 0.1734793
943.0202, 0.1714457
944.9487, 0.1701211
946.8771, 0.1697049
948.8056, 0.1697452
950.7341, 0.1703131
952.6625, 0.1715336
954.5910, 0.1731248
956.5195, 0.1744349
958.4479, 0.1753243
960.3764, 0.1753237
962.3049, 0.1746479
964.2333, 0.1730253
966.1618, 0.1706166
968.0903, 0.1673053
970.0187, 0.1636126
971.9472, 0.1603178
973.8757, 0.1588537
975.8041, 0.1598703
977.7326, 0.1624468
979.6611, 0.1661478
981.5895, 0.1701281
983.5180, 0.1732804
985.4465, 0.1759899
987.3749, 0.1774697
989.3034, 0.1778314
991.2319, 0.1779226
993.1603, 0.1769629
995.0888, 0.1749516
997.0173, 0.1725469
998.9457, 0.1694441
1000.874, 0.1658417
1002.803, 0.1622111
1004.731, 0.1585630
1006.660, 0.1542052
1008.588, 0.1497264
1010.517, 0.1456176
1012.445, 0.1417309
1014.373, 0.1377103
1016.302, 0.1338046
1018.230, 0.1302370
1020.159, 0.1263758
1022.087, 0.1225778
1024.016, 0.1196685
1025.944, 0.1172933
1027.873, 0.1151073
1029.801, 0.1133439
1031.730, 0.1123002
1033.658, 0.1123607
1035.587, 0.1127020
1037.515, 0.1132914
1039.444, 0.1136889
1041.372, 0.1138494
1043.301, 0.1142128
1045.229, 0.1148928
1047.157, 0.1164020
1049.086, 0.1186702
1051.014, 0.1208903
1052.943, 0.1227728
1054.871, 0.1246773
1056.800, 0.1269028
1058.728, 0.1295700
1060.657, 0.1322089
1062.585, 0.1343842
1064.514, 0.1364952
1066.442, 0.1386263
1068.371, 0.1401502
1070.299, 0.1416371
1072.228, 0.1433830
1074.156, 0.1451047
1076.084, 0.1465732
1078.013, 0.1479667
1079.941, 0.1497714
1081.870, 0.1514965
1083.798, 0.1529953
1085.727, 0.1546262
1087.655, 0.1561172
1089.584, 0.1576026
1091.512, 0.1592071
1093.441, 0.1604076
1095.369, 0.1613490
1097.298, 0.1624045
1099.226, 0.1632265
1101.155, 0.1634690
1103.083, 0.1627802
1105.011, 0.1612292
1106.940, 0.1589579
1108.868, 0.1557238
1110.797, 0.1518821
1112.725, 0.1475634
1114.654, 0.1429857
1116.582, 0.1382664
1118.511, 0.1331301
1120.439, 0.1280246
1122.368, 0.1233628
1124.296, 0.1190024
1126.225, 0.1151586
1128.153, 0.1119549
1130.082, 0.1092352
1132.010, 0.1065640
1133.938, 0.1037553
1135.867, 0.1010214
1137.795, 9.8474547E-02
1139.724, 9.5958777E-02
1141.652, 9.3865588E-02
1143.581, 9.1827251E-02
1145.509, 9.0180382E-02
1147.438, 8.8603348E-02
1149.366, 8.7054193E-02
1151.295, 8.5875019E-02
1153.223, 8.4746540E-02
1155.152, 8.3583020E-02
1157.080, 8.2487591E-02
1159.009, 8.1582204E-02
1160.937, 8.0629364E-02
1162.865, 7.9840630E-02
1164.794, 7.9270877E-02
1166.722, 7.8615867E-02
1168.651, 7.7581793E-02
1170.579, 7.6393992E-02
1172.508, 7.5511903E-02
1174.436, 7.4998297E-02
1176.365, 7.4437462E-02
1178.293, 7.3568337E-02
1180.222, 7.2925702E-02
1182.150, 7.2189331E-02
1184.079, 7.1305677E-02
1186.007, 7.0343062E-02
1187.936, 6.9497213E-02
1189.864, 6.8791032E-02
1191.792, 6.7748681E-02
1193.721, 6.6719651E-02
1195.649, 6.6000298E-02
1197.578, 6.4955741E-02
1199.506, 6.3994087E-02
1201.435, 6.3019477E-02
1203.363, 6.2075268E-02
1205.292, 6.1220501E-02
1207.220, 6.0123481E-02
1209.149, 5.9044249E-02
1211.077, 5.8033079E-02
1213.006, 5.6888420E-02
1214.934, 5.5780940E-02
1216.863, 5.4516051E-02
1218.791, 5.3343039E-02
1220.719, 5.2248251E-02
1222.648, 5.1121499E-02
1224.576, 4.9941450E-02
1226.505, 4.8870921E-02
1228.433, 4.7398999E-02
1230.362, 4.5795269E-02
1232.290, 4.4485059E-02
1234.219, 4.2992730E-02
1236.147, 4.1399330E-02
1238.076, 3.9922651E-02
1240.004, 3.8053591E-02
1241.933, 3.6277521E-02
1243.861, 3.4768011E-02
1245.790, 3.3117559E-02
1247.718, 3.1718560E-02
1249.646, 3.0479889E-02
1251.575, 2.8825769E-02
1253.503, 2.7201770E-02
1255.432, 2.5922460E-02
1257.360, 2.4663569E-02
1259.289, 2.3523690E-02
1261.217, 2.2787251E-02
1263.146, 2.1688020E-02
1265.074, 2.0509010E-02
1267.003, 1.9963870E-02
1268.931, 1.9762410E-02
1270.860, 1.9360211E-02
1272.788, 1.9002991E-02
1274.717, 1.8669169E-02
1276.645, 1.8210020E-02
1278.573, 1.7906699E-02
1280.502, 1.7653471E-02
1282.430, 1.7318180E-02
1284.359, 1.7128579E-02
1286.287, 1.6922830E-02
1288.216, 1.6699890E-02
1290.144, 1.6497061E-02
1292.073, 1.6315321E-02
1294.001, 1.6232200E-02
1295.930, 1.6166059E-02
1297.858, 1.5986750E-02
1299.787, 1.5772101E-02
1301.715, 1.5805211E-02
1303.644, 1.5603650E-02
1305.572, 1.5279540E-02
1307.500, 1.5250530E-02
1309.429, 1.5310910E-02
1311.357, 1.5286590E-02
1313.286, 1.5088170E-02
1315.214, 1.5078330E-02
1317.143, 1.4755600E-02
1319.071, 1.4735410E-02
1321.000, 1.5205290E-02
1322.928, 1.5274390E-02
1324.857, 1.4995950E-02
1326.785, 1.4932730E-02
1328.714, 1.5113730E-02
1330.642, 1.5163000E-02
1332.571, 1.4992550E-02
1334.499, 1.4998590E-02
1336.427, 1.5198920E-02
1338.356, 1.5035520E-02
1340.284, 1.4705740E-02
1342.213, 1.4801070E-02
1344.141, 1.5221140E-02
1346.070, 1.5212170E-02
1347.998, 1.4973460E-02
1349.927, 1.5132880E-02
1351.855, 1.5222800E-02
1353.784, 1.4982360E-02
1355.712, 1.5329120E-02
1357.641, 1.5577760E-02
1359.569, 1.5120150E-02
1361.498, 1.4860030E-02
1363.426, 1.5169990E-02
1365.354, 1.5571190E-02
1367.283, 1.5440700E-02
1369.211, 1.5313730E-02
1371.140, 1.5364110E-02
1373.068, 1.5512150E-02
1374.997, 1.5779009E-02
1376.925, 1.5680060E-02
1378.854, 1.5812250E-02
1380.782, 1.5888760E-02
1382.711, 1.5853280E-02
1384.639, 1.6117141E-02
1386.568, 1.6129719E-02
1388.496, 1.6018961E-02
1390.424, 1.5642930E-02
1392.353, 1.5723290E-02
1394.281, 1.5831800E-02
1396.210, 1.5765850E-02
1398.138, 1.5891381E-02
1400.067, 1.5879110E-02
1401.995, 1.5935030E-02
1403.924, 1.6150709E-02
1405.852, 1.6352139E-02
1407.781, 1.6744230E-02
1409.709, 1.6790250E-02
1411.638, 1.6517591E-02
1413.566, 1.6470920E-02
1415.495, 1.6561089E-02
1417.423, 1.6612940E-02
1419.351, 1.6680710E-02
1421.280, 1.6576670E-02
1423.208, 1.6755790E-02
1425.137, 1.6878450E-02
1427.065, 1.6884239E-02
1428.994, 1.6957460E-02
1430.922, 1.7362369E-02
1432.851, 1.7749740E-02
1434.779, 1.7893780E-02
1436.708, 1.7689820E-02
1438.636, 1.7476220E-02
1440.565, 1.7727301E-02
1442.493, 1.8145639E-02
1444.422, 1.8197680E-02
1446.350, 1.7994590E-02
1448.278, 1.7963471E-02
1450.207, 1.7967859E-02
1452.135, 1.8184120E-02
1454.064, 1.8410331E-02
1455.992, 1.8518001E-02
1457.921, 1.8586850E-02
1459.849, 1.8524470E-02
1461.778, 1.8169090E-02
1463.706, 1.8057531E-02
1465.635, 1.8374911E-02
1467.563, 1.8457649E-02
1469.492, 1.8203940E-02
1471.420, 1.7946970E-02
1473.349, 1.7610550E-02
1475.277, 1.7130230E-02
1477.205, 1.7127490E-02
1479.134, 1.7310539E-02
1481.062, 1.7414739E-02
1482.991, 1.7382940E-02
1484.919, 1.7383199E-02
1486.848, 1.7054930E-02
1488.776, 1.7060639E-02
1490.705, 1.7085791E-02
1492.633, 1.7046699E-02
1494.562, 1.7283609E-02
1496.490, 1.7412201E-02
1498.419, 1.6931750E-02
1500.347, 1.6659260E-02
1502.276, 1.6579000E-02
1504.204, 1.6905461E-02
1506.132, 1.7190531E-02
1508.061, 1.6893171E-02
1509.989, 1.6539700E-02
1511.918, 1.6531430E-02
1513.846, 1.6600920E-02
1515.775, 1.6517211E-02
1517.703, 1.6363909E-02
1519.632, 1.6585570E-02
1521.560, 1.6913110E-02
1523.489, 1.6829580E-02
1525.417, 1.6489821E-02
1527.346, 1.6244780E-02
1529.274, 1.6166421E-02
1531.203, 1.6102910E-02
1533.131, 1.6194031E-02
1535.059, 1.6431540E-02
1536.988, 1.6352920E-02
1538.916, 1.6632879E-02
1540.845, 1.6828621E-02
1542.773, 1.6820110E-02
1544.702, 1.6671950E-02
1546.630, 1.6651159E-02
1548.559, 1.6777230E-02
1550.487, 1.6873920E-02
1552.416, 1.7054159E-02
1554.344, 1.7217770E-02
1556.273, 1.7295200E-02
1558.201, 1.7985050E-02
1560.130, 1.8026579E-02
1562.058, 1.7368579E-02
1563.986, 1.7274501E-02
1565.915, 1.7552810E-02
1567.843, 1.7780701E-02
1569.772, 1.7881321E-02
1571.700, 1.8095929E-02
1573.629, 1.8439360E-02
1575.557, 1.8656990E-02
1577.486, 1.8608181E-02
1579.414, 1.8610541E-02
1581.343, 1.8637680E-02
1583.271, 1.8715121E-02
1585.200, 1.9040400E-02
1587.128, 1.9393699E-02
1589.057, 1.9713219E-02
1590.985, 1.9649601E-02
1592.913, 1.9620860E-02
1594.842, 1.9610200E-02
1596.770, 1.9839240E-02
1598.699, 2.0244760E-02
1600.627, 2.0346889E-02
1602.556, 2.0357570E-02
1604.484, 2.0291749E-02
1606.413, 2.0384969E-02
1608.341, 2.0648610E-02
1610.270, 2.1011639E-02
1612.198, 2.1102980E-02
1614.127, 2.0935940E-02
1616.055, 2.0971760E-02
1617.984, 2.0784000E-02
1619.912, 2.0755811E-02
1621.840, 2.1372089E-02
1623.769, 2.1608450E-02
1625.697, 2.1463180E-02
1627.626, 2.1069361E-02
1629.554, 2.0716541E-02
1631.483, 2.0790990E-02
1633.411, 2.1229731E-02
1635.340, 2.1267530E-02
1637.268, 2.0850250E-02
1639.197, 2.0578220E-02
1641.125, 2.0629751E-02
1643.054, 2.0597730E-02
1644.982, 2.0307129E-02
1646.911, 2.0362940E-02
1648.839, 2.0295341E-02
1650.767, 2.0126659E-02
1652.696, 2.0427430E-02
1654.624, 2.0037809E-02
1656.553, 1.9273801E-02
1658.481, 1.9035570E-02
1660.410, 1.9001439E-02
1662.338, 1.9060440E-02
1664.267, 1.9039519E-02
1666.195, 1.8744631E-02
1668.124, 1.9057089E-02
1670.052, 1.9142980E-02
1671.981, 1.8767990E-02
1673.909, 1.8584490E-02
1675.838, 1.8266860E-02
1677.766, 1.7851820E-02
1679.694, 1.7998571E-02
1681.623, 1.7990511E-02
1683.551, 1.8701270E-02
1685.480, 1.8824279E-02
1687.408, 1.8042540E-02
1689.337, 1.7798681E-02
1691.265, 1.7394191E-02
1693.194, 1.7375940E-02
1695.122, 1.7689090E-02
1697.051, 1.7347820E-02
1698.979, 1.7428219E-02
1700.908, 1.7437560E-02
1702.836, 1.7340530E-02
1704.765, 1.7481670E-02
1706.693, 1.7395960E-02
1708.621, 1.7230410E-02
1710.550, 1.7021740E-02
1712.478, 1.7304840E-02
1714.407, 1.7349619E-02
1716.335, 1.7494760E-02
1718.264, 1.7442500E-02
1720.192, 1.6874310E-02
1722.121, 1.6713601E-02
1724.049, 1.6576720E-02
1725.978, 1.6588651E-02
1727.906, 1.6890479E-02
1729.835, 1.6965199E-02
1731.763, 1.7266409E-02
1733.692, 1.7391510E-02
1735.620, 1.6866960E-02
1737.548, 1.6924679E-02
1739.477, 1.6973710E-02
1741.405, 1.6534740E-02
1743.334, 1.6316570E-02
1745.262, 1.6074030E-02
1747.191, 1.6049450E-02
1749.119, 1.5831489E-02
1751.048, 1.5892610E-02
1752.976, 1.5947361E-02
1754.905, 1.5805490E-02
1756.833, 1.5835810E-02
1758.762, 1.5876640E-02
1760.690, 1.6129240E-02
1762.619, 1.5883669E-02
1764.547, 1.5381060E-02
1766.475, 1.5775681E-02
1768.404, 1.5858879E-02
1770.332, 1.5499900E-02
1772.261, 1.5699560E-02
1774.189, 1.5587000E-02
1776.118, 1.5519270E-02
1778.046, 1.5352980E-02
1779.975, 1.5766390E-02
1781.903, 1.5974389E-02
1783.832, 1.5674479E-02
1785.760, 1.5565490E-02
1787.689, 1.5317940E-02
1789.617, 1.5143800E-02
1791.546, 1.5188750E-02
1793.474, 1.5569250E-02
1795.402, 1.5595400E-02
1797.331, 1.4848030E-02
1799.259, 1.4508160E-02
1801.188, 1.4837620E-02
1803.116, 1.5141620E-02
1805.045, 1.5418050E-02
1806.973, 1.5267110E-02
1808.902, 1.5030740E-02
1810.830, 1.4754290E-02
1812.759, 1.4558400E-02
1814.687, 1.5181840E-02
1816.616, 1.5346240E-02
1818.544, 1.4630210E-02
1820.473, 1.4690460E-02
1822.401, 1.5609470E-02
1824.329, 1.6105101E-02
1826.258, 1.5857000E-02
1828.186, 1.5599710E-02
1830.115, 1.5441240E-02
1832.043, 1.5219870E-02
1833.972, 1.5109230E-02
1835.900, 1.5674161E-02
1837.829, 1.5899820E-02
1839.757, 1.5573500E-02
1841.686, 1.5703510E-02
1843.614, 1.5796529E-02
1845.543, 1.5559810E-02
1847.471, 1.4742150E-02
1849.400, 1.4214780E-02
1851.328, 1.4754180E-02
1853.256, 1.5449180E-02
1855.185, 1.5037210E-02
1857.113, 1.4941320E-02
1859.042, 1.4900670E-02
1860.970, 1.4901060E-02
1862.899, 1.5148470E-02
1864.827, 1.4512310E-02
1866.756, 1.5087450E-02
1868.684, 1.5884910E-02
1870.613, 1.5459300E-02
1872.541, 1.5494020E-02
1874.470, 1.5727140E-02
1876.398, 1.5253560E-02
1878.327, 1.4812660E-02
1880.255, 1.4894300E-02
1882.183, 1.4900620E-02
1884.112, 1.5123810E-02
1886.040, 1.5211350E-02
1887.969, 1.5029880E-02
1889.897, 1.4978970E-02
1891.826, 1.4225360E-02
1893.754, 1.3741080E-02
1895.683, 1.4157930E-02
1897.611, 1.4572220E-02
1899.540, 1.3955040E-02
1901.468, 1.3359220E-02
1903.397, 1.3538600E-02
1905.325, 1.3927370E-02
1907.254, 1.3804780E-02
1909.182, 1.3636400E-02
1911.110, 1.4425070E-02
1913.039, 1.5161160E-02
1914.967, 1.4922980E-02
1916.896, 1.3873990E-02
1918.824, 1.2453700E-02
1920.753, 1.1723960E-02
1922.681, 1.2957130E-02
1924.610, 1.3978970E-02
1926.538, 1.3816890E-02
1928.467, 1.3335020E-02
1930.395, 1.3940480E-02
1932.324, 1.3804750E-02
1934.252, 1.2954270E-02
1936.181, 1.2446270E-02
1938.109, 1.3451670E-02
1940.037, 1.5041060E-02
1941.966, 1.4424130E-02
1943.894, 1.2633870E-02
1945.823, 1.2538160E-02
1947.751, 1.2681730E-02
1949.680, 1.2440280E-02
1951.608, 1.2025830E-02
1953.537, 1.1703140E-02
1955.465, 1.1533200E-02
1957.394, 1.1708690E-02
1959.322, 9.3707768E-03
1961.251, 6.9728000E-03
1963.179, 8.7806890E-03
1965.108, 1.0959260E-02
1967.036, 1.0171370E-02
1968.964, 8.8623324E-03
1970.893, 8.8292425E-03
1972.821, 1.1138020E-02
1974.750, 1.3366310E-02
1976.678, 1.3165720E-02
1978.607, 1.3949950E-02
1980.535, 1.2331280E-02
1982.464, 1.1031830E-02
1984.392, 1.2156750E-02
1986.321, 1.1796850E-02
1988.249, 1.2174500E-02
1990.178, 1.2315190E-02
1992.106, 1.1404730E-02
1994.035, 1.1369780E-02
1995.963, 1.1059260E-02
1997.891, 1.0091120E-02
1999.820, 9.9647222E-03
2001.748, 8.5331285E-03
2003.677, 8.7487437E-03
2005.605, 8.8961245E-03
2007.534, 1.0466810E-02
2009.462, 1.3458580E-02
2011.391, 1.3045620E-02
2013.319, 8.9468528E-03
2015.248, 7.6607428E-03
2017.176, 9.1855684E-03
2019.105, 7.6523921E-03
2021.033, 5.9694229E-03
2022.962, 7.4299779E-03
2024.890, 8.3720461E-03
2026.818, 7.8513455E-03
2028.747, 1.0458160E-02
2030.675, 1.2111090E-02
2032.604, 1.0189600E-02
2034.532, 8.9884093E-03
2036.461, 1.1339080E-02
2038.389, 1.1970390E-02
2040.318, 1.3091680E-02
2042.246, 1.3286400E-02
2044.175, 1.4815860E-02
2046.103, 1.4806880E-02
2048.032, 1.5655991E-02
2049.960, 1.7222179E-02
2051.889, 1.6795980E-02
2053.817, 1.5644670E-02
2055.746, 1.4654990E-02
2057.674, 1.3852250E-02
2059.603, 1.3330750E-02
2061.531, 1.2044180E-02
2063.459, 1.4114960E-02
2065.388, 1.5958140E-02
2067.316, 1.6160980E-02
2069.245, 1.5598650E-02
2071.173, 1.4860060E-02
2073.102, 1.4033130E-02
2075.030, 1.3819810E-02
2076.959, 1.3482060E-02
2078.887, 1.3419630E-02
2080.816, 1.5179020E-02
2082.744, 1.4727860E-02
2084.673, 1.4176780E-02
2086.601, 1.4681980E-02
2088.530, 1.5778249E-02
2090.458, 1.4800640E-02
2092.386, 1.4163820E-02
2094.315, 1.4381720E-02
2096.243, 1.4756390E-02
2098.172, 1.5014260E-02
2100.100, 1.4136810E-02
2102.029, 1.3485030E-02
2103.957, 1.4296240E-02
2105.886, 1.4596370E-02
2107.814, 1.3609900E-02
2109.743, 1.3051870E-02
2111.671, 1.3784800E-02
2113.600, 1.5598660E-02
2115.528, 1.5605900E-02
2117.457, 1.4838910E-02
2119.385, 1.3592750E-02
2121.313, 1.2053140E-02
2123.242, 1.1351730E-02
2125.170, 1.1144780E-02
2127.099, 1.0342740E-02
2129.027, 9.7693298E-03
2130.956, 9.4514918E-03
2132.884, 1.1347260E-02
2134.813, 1.2399840E-02
2136.741, 1.1364630E-02
2138.670, 1.0820390E-02
2140.598, 9.8933904E-03
2142.527, 9.2320396E-03
2144.455, 8.9167543E-03
2146.384, 8.3226878E-03
2148.312, 8.2654580E-03
2150.240, 9.1441832E-03
2152.169, 7.9400605E-03
2154.097, 4.8808418E-03
2156.026, 4.8292000E-03
2157.954, 5.5771810E-03
2159.883, 1.1913800E-02
2161.811, 1.3962550E-02
2163.740, 1.2631010E-02
2165.668, 1.2182080E-02
2167.597, 1.0583160E-02
2169.525, 1.0129240E-02
2171.454, 9.6965339E-03
2173.382, 9.3062287E-03
2175.311, 1.2187840E-02
2177.239, 1.2832290E-02
2179.167, 1.0865750E-02
2181.096, 1.0198460E-02
2183.024, 1.0966060E-02
2184.953, 1.2732390E-02
2186.881, 1.4499850E-02
2188.810, 1.4099760E-02
2190.738, 1.2756020E-02
2192.667, 1.2372810E-02
2194.595, 1.0670420E-02
2196.524, 9.0916697E-03
2198.452, 9.3925372E-03
2200.381, 9.6054850E-03
2202.309, 8.8317329E-03
2204.238, 1.1080600E-02
2206.166, 1.1926440E-02
2208.094, 1.1211090E-02
2210.023, 1.1775590E-02
2211.951, 1.1921280E-02
2213.880, 1.2763050E-02
2215.808, 1.2307130E-02
2217.737, 1.1138870E-02
2219.665, 1.1908430E-02
2221.594, 1.4510290E-02
2223.522, 1.5688229E-02
2225.451, 1.3965400E-02
2227.379, 1.4431660E-02
2229.308, 1.5887920E-02
2231.236, 1.4435560E-02
2233.165, 1.2253050E-02
2235.093, 1.3975640E-02
2237.021, 1.6003709E-02
2238.950, 1.4690680E-02
2240.878, 1.5997410E-02
2242.807, 1.5673470E-02
2244.735, 1.4075930E-02
2246.664, 1.4458540E-02
2248.592, 1.4494090E-02
2250.521, 1.4226370E-02
2252.449, 1.5293480E-02
2254.378, 1.6443750E-02
2256.306, 1.6148200E-02
2258.235, 1.4359720E-02
2260.163, 1.5151900E-02
2262.092, 1.6499249E-02
2264.020, 1.6781500E-02
2265.948, 1.6366750E-02
2267.877, 1.5138520E-02
2269.805, 1.5065550E-02
2271.734, 1.6252421E-02
2273.662, 1.7518669E-02
2275.591, 1.8413540E-02
2277.519, 1.9249210E-02
2279.448, 1.8798551E-02
2281.376, 1.8996671E-02
2283.305, 1.9151160E-02
2285.233, 1.9215120E-02
2287.162, 1.8823080E-02
2289.090, 1.8641710E-02
2291.019, 1.9248441E-02
2292.947, 1.8835930E-02
2294.875, 1.8631799E-02
2296.804, 1.8468359E-02
2298.732, 1.8573020E-02
2300.661, 1.8802660E-02
2302.589, 1.9060150E-02
2304.518, 1.9191850E-02
2306.446, 1.8593850E-02
2308.375, 1.8214431E-02
2310.303, 1.8576590E-02
2312.232, 1.9971330E-02
2314.160, 1.9750930E-02
2316.089, 1.9046759E-02
2318.017, 1.9622659E-02
2319.946, 1.9635070E-02
2321.874, 1.9654060E-02
2323.802, 2.0470191E-02
2325.731, 2.0037539E-02
2327.659, 1.8456209E-02
2329.588, 1.7924910E-02
2331.516, 1.8634951E-02
2333.445, 1.8943289E-02
2335.373, 1.8053310E-02
2337.302, 1.7960610E-02
2339.230, 1.8394200E-02
2341.159, 1.8609460E-02
2343.087, 1.8535130E-02
2345.016, 1.8211460E-02
2346.944, 1.8218361E-02
2348.873, 1.8290460E-02
2350.801, 1.8064350E-02
2352.729, 1.7850511E-02
2354.658, 1.7774880E-02
2356.586, 1.7751699E-02
2358.515, 1.8259650E-02
2360.443, 1.8343849E-02
2362.372, 1.7931400E-02
2364.300, 1.7276609E-02
2366.229, 1.6755430E-02
2368.157, 1.7278221E-02
2370.086, 1.7585579E-02
2372.014, 1.8015390E-02
2373.942, 1.8006500E-02
2375.871, 1.7409669E-02
2377.799, 1.7395200E-02
2379.728, 1.6977500E-02
2381.656, 1.6167561E-02
2383.585, 1.7062660E-02
2385.513, 1.7886920E-02
2387.442, 1.7394060E-02
2389.370, 1.7444979E-02
2391.299, 1.6984981E-02
2393.227, 1.6174169E-02
2395.156, 1.6482100E-02
2397.084, 1.6783809E-02
2399.012, 1.6402369E-02
2400.941, 1.7616520E-02
2402.869, 1.8445900E-02
2404.798, 1.7838599E-02
2406.726, 1.7527910E-02
2408.655, 1.7635699E-02
2410.583, 1.7588900E-02
2412.512, 1.6765039E-02
2414.440, 1.7014939E-02
2416.369, 1.7764570E-02
2418.297, 1.8708540E-02
2420.226, 1.9415120E-02
2422.154, 1.8901620E-02
2424.083, 1.8403649E-02
2426.011, 1.8155251E-02
2427.939, 1.7887520E-02
2429.868, 1.8107779E-02
2431.796, 1.7774159E-02
2433.725, 1.7503319E-02
2435.653, 1.7648309E-02
2437.582, 1.8011300E-02
2439.510, 1.7986000E-02
2441.439, 1.8926680E-02
2443.367, 1.9068480E-02
2445.296, 1.8437071E-02
2447.224, 1.8013351E-02
2449.153, 1.7820310E-02
2451.081, 1.8836999E-02
2453.010, 1.8858520E-02
2454.938, 1.7715510E-02
2456.866, 1.7397819E-02
2458.795, 1.7926591E-02
2460.723, 1.7743580E-02
2462.652, 1.8003341E-02
2464.580, 1.8846910E-02
2466.509, 1.8934770E-02
2468.437, 1.8341711E-02
2470.366, 1.8089609E-02
2472.294, 1.7701590E-02
2474.223, 1.7370410E-02
2476.151, 1.7831059E-02
2478.080, 1.8585090E-02
2480.008, 1.9010970E-02
2481.937, 1.8309170E-02
2483.865, 1.8441100E-02
2485.793, 1.8834360E-02
2487.722, 1.9814180E-02
2489.650, 2.0882141E-02
2491.579, 1.9530380E-02
2493.507, 1.8427299E-02
2495.436, 1.8523730E-02
2497.364, 1.8870080E-02
2499.293, 1.9533260E-02
2501.221, 1.9052800E-02
2503.150, 2.0164991E-02
2505.078, 2.1762220E-02
2507.007, 2.1006711E-02
2508.935, 1.9556319E-02
2510.864, 1.9142671E-02
2512.792, 1.9617399E-02
2514.720, 1.9355850E-02
2516.649, 1.9725880E-02
2518.577, 1.9889019E-02
2520.506, 1.9386010E-02
2522.434, 1.9191589E-02
2524.363, 1.9488130E-02
2526.291, 1.9317281E-02
2528.220, 1.9020971E-02
2530.148, 1.9936260E-02
2532.077, 1.9745409E-02
2534.005, 1.9892870E-02
2535.934, 2.0774970E-02
2537.862, 2.0473329E-02
2539.791, 2.0107960E-02
2541.719, 1.9965431E-02
2543.647, 1.9271420E-02
2545.576, 1.9328430E-02
2547.504, 2.0867269E-02
2549.433, 2.0865761E-02
2551.361, 1.9673331E-02
2553.290, 1.9744691E-02
2555.218, 1.9772099E-02
2557.147, 2.0095591E-02
2559.075, 2.0359950E-02
2561.004, 2.0351009E-02
2562.932, 2.1357071E-02
2564.861, 2.1584360E-02
2566.789, 2.1033639E-02
2568.718, 2.1505751E-02
2570.646, 2.1457290E-02
2572.574, 1.9868311E-02
2574.503, 1.9258261E-02
2576.431, 1.9724140E-02
2578.360, 2.0229669E-02
2580.288, 2.1193311E-02
2582.217, 2.1340990E-02
2584.145, 2.1045949E-02
2586.074, 2.0881990E-02
2588.002, 2.0638561E-02
2589.931, 2.0906050E-02
2591.859, 2.0902811E-02
2593.788, 2.0692149E-02
2595.716, 2.0576131E-02
2597.645, 2.0671099E-02
2599.573, 2.1456691E-02
2601.501, 2.1607380E-02
2603.430, 2.1144031E-02
2605.358, 2.0811711E-02
2607.287, 2.0316780E-02
2609.215, 2.0527750E-02
2611.144, 2.1488620E-02
2613.072, 2.2924419E-02
2615.001, 2.2493090E-02
2616.929, 2.1513879E-02
2618.858, 2.2112381E-02
2620.786, 2.2575090E-02
2622.715, 2.3023380E-02
2624.643, 2.2845630E-02
2626.572, 2.2073429E-02
2628.500, 2.1612730E-02
2630.428, 2.1717951E-02
2632.357, 2.0941470E-02
2634.285, 2.0486990E-02
2636.214, 2.1646960E-02
2638.142, 2.2283500E-02
2640.071, 2.2161011E-02
2641.999, 2.2138201E-02
2643.928, 2.1879939E-02
2645.856, 2.1865251E-02
2647.785, 2.2556391E-02
2649.713, 2.1705830E-02
2651.642, 2.0952700E-02
2653.570, 2.1368871E-02
2655.499, 2.2251399E-02
2657.427, 2.3106471E-02
2659.355, 2.2498710E-02
2661.284, 2.2227069E-02
2663.212, 2.1854719E-02
2665.141, 2.1595201E-02
2667.069, 2.1861510E-02
2668.998, 2.2573611E-02
2670.926, 2.2179410E-02
2672.855, 2.0676680E-02
2674.783, 2.0455969E-02
2676.712, 2.0998809E-02
2678.640, 2.1246221E-02
2680.569, 2.1377930E-02
2682.497, 2.1397930E-02
2684.426, 2.0973381E-02
2686.354, 2.0685799E-02
2688.282, 2.1973310E-02
2690.211, 2.2691950E-02
2692.139, 2.2225820E-02
2694.068, 2.1566240E-02
2695.996, 2.1832289E-02
2697.925, 2.2310119E-02
2699.853, 2.2353970E-02
2701.782, 2.2812190E-02
2703.710, 2.2474671E-02
2705.639, 2.1790851E-02
2707.567, 2.2438830E-02
2709.496, 2.3109199E-02
2711.424, 2.2699390E-02
2713.353, 2.2051649E-02
2715.281, 2.1559849E-02
2717.209, 2.1413060E-02
2719.138, 2.1782480E-02
2721.066, 2.1489440E-02
2722.995, 2.2096081E-02
2724.923, 2.1978069E-02
2726.852, 2.1117181E-02
2728.780, 2.1023450E-02
2730.709, 2.1351069E-02
2732.637, 2.2441979E-02
2734.566, 2.3594581E-02
2736.494, 2.3096070E-02
2738.423, 2.2406081E-02
2740.351, 2.2267900E-02
2742.280, 2.2821350E-02
2744.208, 2.2758611E-02
2746.136, 2.2242490E-02
2748.065, 2.1647939E-02
2749.993, 2.1828471E-02
2751.922, 2.2426801E-02
2753.850, 2.1641830E-02
2755.779, 2.1700960E-02
2757.707, 2.1349600E-02
2759.636, 2.2061210E-02
2761.564, 2.2417299E-02
2763.493, 2.1827780E-02
2765.421, 2.1648370E-02
2767.350, 2.2019850E-02
2769.278, 2.3093360E-02
2771.207, 2.2881810E-02
2773.135, 2.2420820E-02
2775.063, 2.2187339E-02
2776.992, 2.2308661E-02
2778.920, 2.2733700E-02
2780.849, 2.2577170E-02
2782.777, 2.2346180E-02
2784.706, 2.2761460E-02
2786.634, 2.2842521E-02
2788.563, 2.2996491E-02
2790.491, 2.2371840E-02
2792.420, 2.1850260E-02
2794.348, 2.2566721E-02
2796.277, 2.2722580E-02
2798.205, 2.2138260E-02
2800.134, 2.2176640E-02
2802.062, 2.2703269E-02
2803.990, 2.2963289E-02
2805.919, 2.3162739E-02
2807.847, 2.3007009E-02
2809.776, 2.3611430E-02
2811.704, 2.3522871E-02
2813.633, 2.3421951E-02
2815.561, 2.3971070E-02
2817.490, 2.3225799E-02
2819.418, 2.2047181E-02
2821.347, 2.2313800E-02
2823.275, 2.2947360E-02
2825.204, 2.2658849E-02
2827.132, 2.3906270E-02
2829.061, 2.4747690E-02
2830.989, 2.4552820E-02
2832.917, 2.5018189E-02
2834.846, 2.4922190E-02
2836.774, 2.3401650E-02
2838.703, 2.2947300E-02
2840.631, 2.4609650E-02
2842.560, 2.5864700E-02
2844.488, 2.4651770E-02
2846.417, 2.3243019E-02
2848.345, 2.3126511E-02
2850.274, 2.3530081E-02
2852.202, 2.3883650E-02
2854.131, 2.3710649E-02
2856.059, 2.3737229E-02
2857.988, 2.4366191E-02
2859.916, 2.4472371E-02
2861.844, 2.3914451E-02
2863.773, 2.3584191E-02
2865.701, 2.3978040E-02
2867.630, 2.4204491E-02
2869.558, 2.5392851E-02
2871.487, 2.5416030E-02
2873.415, 2.5239799E-02
2875.344, 2.5427351E-02
2877.272, 2.4813240E-02
2879.201, 2.4360880E-02
2881.129, 2.5057100E-02
2883.058, 2.4976561E-02
2884.986, 2.4888379E-02
2886.915, 2.5511200E-02
2888.843, 2.4562230E-02
2890.771, 2.4759380E-02
2892.700, 2.5889629E-02
2894.628, 2.5717540E-02
2896.557, 2.5274871E-02
2898.485, 2.5905211E-02
2900.414, 2.5924699E-02
2902.342, 2.5316451E-02
2904.271, 2.4715399E-02
2906.199, 2.5146291E-02
2908.128, 2.5949240E-02
2910.056, 2.6081860E-02
2911.985, 2.6430840E-02
2913.913, 2.6336560E-02
2915.842, 2.6755190E-02
2917.770, 2.6550420E-02
2919.698, 2.5211111E-02
2921.627, 2.4279270E-02
2923.555, 2.4078101E-02
2925.484, 2.3730399E-02
2927.412, 2.4976211E-02
2929.341, 2.5121881E-02
2931.269, 2.4073619E-02
2933.198, 2.3194831E-02
2935.126, 2.4067881E-02
2937.055, 2.4592759E-02
2938.983, 2.4055570E-02
2940.912, 2.5223291E-02
2942.840, 2.5965819E-02
2944.769, 2.5735689E-02
2946.697, 2.6389200E-02
2948.625, 2.5936000E-02
2950.554, 2.6017400E-02
2952.482, 2.5651259E-02
2954.411, 2.5188280E-02
2956.339, 2.5874320E-02
2958.268, 2.5736449E-02
2960.196, 2.4930250E-02
2962.125, 2.3682170E-02
2964.053, 2.3297669E-02
2965.982, 2.5867090E-02
2967.910, 2.8315350E-02
2969.839, 2.7143409E-02
2971.767, 2.5522489E-02
2973.696, 2.6215039E-02
2975.624, 2.5885619E-02
2977.552, 2.5336159E-02
2979.481, 2.5875179E-02
2981.409, 2.7363591E-02
2983.338, 2.7205560E-02
2985.266, 2.6276080E-02
2987.195, 2.7227569E-02
2989.123, 2.7646219E-02
2991.052, 2.5937760E-02
2992.980, 2.4952430E-02
2994.909, 2.6227050E-02
2996.837, 2.6323371E-02
2998.766, 2.5697879E-02
3000.694, 2.6026210E-02
3002.623, 2.5173221E-02
3004.551, 2.4339721E-02
3006.479, 2.4996610E-02
3008.408, 2.5297990E-02
3010.336, 2.4934109E-02
3012.265, 2.5028691E-02
3014.193, 2.6067460E-02
3016.122, 2.7339131E-02
3018.050, 2.7632400E-02
3019.979, 2.7085731E-02
3021.907, 2.7630100E-02
3023.836, 2.8015090E-02
3025.764, 2.6518110E-02
3027.693, 2.6100740E-02
3029.621, 2.6702911E-02
3031.550, 2.7538771E-02
3033.478, 2.8341111E-02
3035.406, 2.9165160E-02
3037.335, 2.9103979E-02
3039.263, 2.7937241E-02
3041.192, 2.6736720E-02
3043.120, 2.7134620E-02
3045.049, 2.7926020E-02
3046.977, 2.8014800E-02
3048.906, 2.8507320E-02
3050.834, 2.8693721E-02
3052.763, 2.7398290E-02
3054.691, 2.6527939E-02
3056.620, 2.6612779E-02
3058.548, 2.6617881E-02
3060.477, 2.7373830E-02
3062.405, 2.9420840E-02
3064.333, 2.9209049E-02
3066.262, 2.9461719E-02
3068.190, 3.0000020E-02
3070.119, 3.0608540E-02
3072.047, 2.9426550E-02
3073.976, 2.8163360E-02
3075.904, 2.7590010E-02
3077.833, 2.8532870E-02
3079.761, 3.1141151E-02
3081.690, 3.2407489E-02
3083.618, 3.1129381E-02
3085.547, 2.9246749E-02
3087.475, 2.8565500E-02
3089.404, 2.9228350E-02
3091.332, 3.0782189E-02
3093.260, 3.1884439E-02
3095.189, 3.0835520E-02
3097.117, 2.9649161E-02
3099.046, 3.0407840E-02
3100.974, 3.1095721E-02
3102.903, 3.0286109E-02
3104.831, 2.9816421E-02
3106.760, 2.9772529E-02
3108.688, 3.0220140E-02
3110.617, 3.0063340E-02
3112.545, 2.9423131E-02
3114.474, 3.0502809E-02
3116.402, 3.0370930E-02
3118.331, 3.1094071E-02
3120.259, 3.2355908E-02
3122.188, 3.2547239E-02
3124.116, 3.2636069E-02
3126.044, 3.3298139E-02
3127.973, 3.4665041E-02
3129.901, 3.3507131E-02
3131.830, 3.1901632E-02
3133.758, 3.2146119E-02
3135.687, 3.1715039E-02
3137.615, 3.1220770E-02
3139.544, 3.2857861E-02
3141.472, 3.3789359E-02
3143.401, 3.2076310E-02
3145.329, 3.2314919E-02
3147.258, 3.2503679E-02
3149.186, 3.2524850E-02
3151.115, 3.2178819E-02
3153.043, 3.1583421E-02
3154.971, 3.1825911E-02
3156.900, 3.2774091E-02
3158.828, 3.3539549E-02
3160.757, 3.3365041E-02
3162.685, 3.3806141E-02
3164.614, 3.3845559E-02
3166.542, 3.3322159E-02
3168.471, 3.3335458E-02
3170.399, 3.3090159E-02
3172.328, 3.3888739E-02
3174.256, 3.4422860E-02
3176.185, 3.4037050E-02
3178.113, 3.2799128E-02
3180.042, 3.3672150E-02
3181.970, 3.4159780E-02
3183.898, 3.3378571E-02
3185.827, 3.4458078E-02
3187.755, 3.6326349E-02
3189.684, 3.6549501E-02
3191.612, 3.5465188E-02
3193.541, 3.4294851E-02
3195.469, 3.5064399E-02
3197.398, 3.6185779E-02
3199.326, 3.5125311E-02
3201.255, 3.3497930E-02
3203.183, 3.5134450E-02
3205.112, 3.6797918E-02
3207.040, 3.5927288E-02
3208.969, 3.5639949E-02
3210.897, 3.6271948E-02
3212.825, 3.6640570E-02
3214.754, 3.7137330E-02
3216.682, 3.6634441E-02
3218.611, 3.5789602E-02
3220.539, 3.6076870E-02
3222.468, 3.6208920E-02
3224.396, 3.6548909E-02
3226.325, 3.6108010E-02
3228.253, 3.7106659E-02
3230.182, 3.5052501E-02
3232.110, 3.3690371E-02
3234.039, 3.4968231E-02
3235.967, 3.6297671E-02
3237.896, 3.5484280E-02
3239.824, 3.7506878E-02
3241.752, 3.8433962E-02
3243.681, 3.6702741E-02
3245.609, 3.6026370E-02
3247.538, 3.6894608E-02
3249.466, 3.6303371E-02
3251.395, 3.5396460E-02
3253.323, 3.5826709E-02
3255.252, 3.7455421E-02
3257.180, 3.8949750E-02
3259.109, 3.8693000E-02
3261.037, 3.7732150E-02
3262.966, 3.8128149E-02
3264.894, 3.7323009E-02
3266.823, 3.7364282E-02
3268.751, 3.8215552E-02
3270.679, 3.8658530E-02
3272.608, 3.8861848E-02
3274.536, 3.7164029E-02
3276.465, 3.8202241E-02
3278.393, 3.9850850E-02
3280.322, 3.9408829E-02
3282.250, 3.8771048E-02
3284.179, 3.8304482E-02
3286.107, 3.7128709E-02
3288.036, 3.6540668E-02
3289.964, 3.7256770E-02
3291.893, 3.6533069E-02
3293.821, 3.8385890E-02
3295.750, 3.9273132E-02
3297.678, 4.0029980E-02
3299.606, 4.0314931E-02
3301.535, 3.8405001E-02
3303.463, 3.7460420E-02
3305.392, 3.8168091E-02
3307.320, 3.8749222E-02
3309.249, 3.8760550E-02
3311.177, 3.9391909E-02
3313.106, 3.9281160E-02
3315.034, 3.8419649E-02
3316.963, 3.8720831E-02
3318.891, 3.7779521E-02
3320.820, 3.8401719E-02
3322.748, 3.8986191E-02
3324.677, 3.8028471E-02
3326.605, 4.0095061E-02
3328.533, 4.0825251E-02
3330.462, 4.0465280E-02
3332.390, 3.9572101E-02
3334.319, 3.7765861E-02
3336.247, 3.8704101E-02
3338.176, 3.9988909E-02
3340.104, 3.7944529E-02
3342.033, 3.7076220E-02
3343.961, 3.9929058E-02
3345.890, 3.9567210E-02
3347.818, 3.8393740E-02
3349.747, 3.8692571E-02
3351.675, 3.8855821E-02
3353.604, 4.0039402E-02
3355.532, 4.1417859E-02
3357.460, 4.1732170E-02
3359.389, 4.2115510E-02
3361.317, 4.1263331E-02
3363.246, 4.0881138E-02
3365.174, 4.2191248E-02
3367.103, 4.2392738E-02
3369.031, 4.1417848E-02
3370.960, 3.9989930E-02
3372.888, 3.8934860E-02
3374.817, 3.9746009E-02
3376.745, 3.9772399E-02
3378.674, 3.9225731E-02
3380.602, 4.0758431E-02
3382.531, 4.1586339E-02
3384.459, 4.1326750E-02
3386.387, 4.2256620E-02
3388.316, 4.2812031E-02
3390.244, 3.9148830E-02
3392.173, 3.7876479E-02
3394.101, 3.9679769E-02
3396.030, 4.1436911E-02
3397.958, 3.8710870E-02
3399.887, 3.8016818E-02
3401.815, 4.0286470E-02
3403.744, 4.2082679E-02
3405.672, 4.1785769E-02
3407.601, 3.9556690E-02
3409.529, 3.9387409E-02
3411.458, 4.0083811E-02
3413.386, 3.9533600E-02
3415.314, 3.8243901E-02
3417.243, 3.6767941E-02
3419.171, 3.7245519E-02
3421.100, 4.0244859E-02
3423.028, 4.0097881E-02
3424.957, 4.1371260E-02
3426.885, 4.3092240E-02
3428.814, 4.1171391E-02
3430.742, 3.9268401E-02
3432.671, 3.9771792E-02
3434.599, 4.1665949E-02
3436.528, 4.1683260E-02
3438.456, 3.9940149E-02
3440.385, 3.9229900E-02
3442.313, 3.9311379E-02
3444.241, 3.8644411E-02
3446.170, 3.8067762E-02
3448.098, 3.7270810E-02
3450.027, 3.8783811E-02
3451.955, 3.9499000E-02
3453.884, 3.8432740E-02
3455.812, 3.7302781E-02
3457.741, 3.8779769E-02
3459.669, 3.7936699E-02
3461.598, 3.6367390E-02
3463.526, 3.7017029E-02
3465.455, 3.7207939E-02
3467.383, 3.8584240E-02
3469.312, 4.1983511E-02
3471.240, 4.2300180E-02
3473.168, 4.0862110E-02
3475.097, 4.0277891E-02
3477.025, 3.9851390E-02
3478.954, 3.9158922E-02
3480.882, 4.0172249E-02
3482.811, 3.9098360E-02
3484.739, 3.6160130E-02
3486.668, 3.5056628E-02
3488.596, 3.6676738E-02
3490.525, 3.8460091E-02
3492.453, 3.6702231E-02
3494.382, 3.4847699E-02
3496.310, 3.4253862E-02
3498.239, 3.3690281E-02
3500.167, 3.5186071E-02
3502.095, 3.6489390E-02
3504.024, 3.6118641E-02
3505.952, 3.5716400E-02
3507.881, 3.4803461E-02
3509.809, 3.5530459E-02
3511.738, 3.7343759E-02
3513.666, 3.7654210E-02
3515.595, 3.5385981E-02
3517.523, 3.3459589E-02
3519.452, 3.4105990E-02
3521.380, 3.6218211E-02
3523.309, 3.6245700E-02
3525.237, 3.5801299E-02
3527.166, 3.6913291E-02
3529.094, 3.5132241E-02
3531.022, 3.5134811E-02
3532.951, 3.6423169E-02
3534.879, 3.5917811E-02
3536.808, 3.6218502E-02
3538.736, 3.4476679E-02
3540.665, 3.7019480E-02
3542.593, 3.8155761E-02
3544.522, 3.7167970E-02
3546.450, 3.6881849E-02
3548.379, 3.6487829E-02
3550.307, 3.7773199E-02
3552.236, 3.8126539E-02
3554.164, 3.7432671E-02
3556.093, 3.8851190E-02
3558.021, 3.9673161E-02
3559.949, 4.0794060E-02
3561.878, 4.1631758E-02
3563.806, 4.1214149E-02
3565.735, 4.2049609E-02
3567.663, 4.4903249E-02
3569.592, 4.5705229E-02
3571.520, 4.5945790E-02
3573.449, 4.8816029E-02
3575.377, 5.5115070E-02
3577.306, 5.8313549E-02
3579.234, 5.7707548E-02
3581.163, 5.4335151E-02
3583.091, 4.9882099E-02
3585.020, 4.6829529E-02
3586.948, 4.3201782E-02
3588.876, 4.1772772E-02
3590.805, 3.8662829E-02
3592.733, 3.6830571E-02
3594.662, 3.5133000E-02
3596.590, 3.3708949E-02
3598.519, 3.1514488E-02
3600.447, 3.0303391E-02
3602.376, 3.1080291E-02
3604.304, 3.3979680E-02
3606.233, 3.7737221E-02
3608.161, 3.5833500E-02
3610.090, 3.2165650E-02
3612.018, 3.0385030E-02
3613.947, 3.2950539E-02
3615.875, 3.3076160E-02
3617.803, 3.0545900E-02
3619.732, 2.9844860E-02
3621.660, 2.8328599E-02
3623.589, 3.0789290E-02
3625.517, 3.3966810E-02
3627.446, 3.4012020E-02
3629.374, 3.3313129E-02
3631.303, 3.1595610E-02
3633.231, 2.8740531E-02
3635.160, 2.8609689E-02
3637.088, 3.2796320E-02
3639.017, 3.3012040E-02
3640.945, 3.3667389E-02
3642.874, 3.7052572E-02
3644.802, 3.6502611E-02
3646.730, 3.2578580E-02
3648.659, 2.9590480E-02
3650.587, 3.1264670E-02
3652.516, 3.3738900E-02
3654.444, 3.3126399E-02
3656.373, 3.3018701E-02
3658.301, 3.1526081E-02
3660.230, 3.1526491E-02
3662.158, 3.3861440E-02
3664.087, 3.5568431E-02
3666.015, 3.5837591E-02
3667.944, 3.5445809E-02
3669.872, 3.6211990E-02
3671.801, 3.7066840E-02
3673.729, 3.7500001E-02
3675.657, 3.8089100E-02
3677.586, 3.7157800E-02
3679.514, 3.7436608E-02
3681.443, 3.8795549E-02
3683.371, 3.9139390E-02
3685.300, 3.5794079E-02
3687.228, 3.5687130E-02
3689.157, 3.4895308E-02
3691.085, 3.1768430E-02
3693.014, 2.9976740E-02
3694.942, 2.6999980E-02
3696.871, 2.5842169E-02
3698.799, 2.7272470E-02
3700.728, 2.7823821E-02
3702.656, 2.7464880E-02
3704.584, 2.4917429E-02
3706.513, 2.5579490E-02
3708.441, 2.7713800E-02
3710.370, 2.8491460E-02
3712.298, 2.8856739E-02
3714.227, 2.6936410E-02
3716.155, 2.6454279E-02
3718.084, 2.7227970E-02
3720.012, 2.6841000E-02
3721.941, 2.6924640E-02
3723.869, 2.6001930E-02
3725.798, 2.4877449E-02
3727.726, 2.3027280E-02
3729.655, 2.1401210E-02
3731.583, 2.4050459E-02
3733.511, 2.5782529E-02
3735.440, 2.5422409E-02
3737.368, 2.5266100E-02
3739.297, 2.4530930E-02
3741.225, 2.4252269E-02
3743.154, 2.6372289E-02
3745.082, 2.7062520E-02
3747.011, 2.8757660E-02
3748.939, 2.9613949E-02
3750.868, 2.9553130E-02
3752.796, 2.8314490E-02
3754.725, 2.8407151E-02
3756.653, 3.0648431E-02
3758.582, 2.9684169E-02
3760.510, 2.8945601E-02
3762.438, 2.7303800E-02
3764.367, 2.6819170E-02
3766.295, 2.8166590E-02
3768.224, 3.0359291E-02
3770.152, 3.2244191E-02
3772.081, 3.3001710E-02
3774.009, 2.8909881E-02
3775.938, 2.6240019E-02
3777.866, 2.6100149E-02
3779.795, 2.7675809E-02
3781.723, 2.8139580E-02
3783.652, 2.8460549E-02
3785.580, 2.6234120E-02
3787.509, 2.4619300E-02
3789.437, 2.4785681E-02
3791.365, 2.5893370E-02
3793.294, 2.6869269E-02
3795.222, 2.7088599E-02
3797.151, 2.5942471E-02
3799.079, 2.2279119E-02
3801.008, 2.3855330E-02
3802.936, 2.5332371E-02
3804.865, 2.5327289E-02
3806.793, 2.5649350E-02
3808.722, 2.7007280E-02
3810.650, 2.5496069E-02
3812.579, 2.5083629E-02
3814.507, 2.8691361E-02
3816.436, 3.0544700E-02
3818.364, 2.9146260E-02
3820.292, 2.6676361E-02
3822.221, 2.4549540E-02
3824.149, 2.3031680E-02
3826.078, 2.4204960E-02
3828.006, 2.6674680E-02
3829.935, 2.6567290E-02
3831.863, 2.5417671E-02
3833.792, 2.6608760E-02
3835.720, 2.8170479E-02
3837.649, 2.6633721E-02
3839.577, 2.5543241E-02
3841.506, 2.5514580E-02
3843.434, 2.7966941E-02
3845.363, 2.9327570E-02
3847.291, 2.5990060E-02
3849.219, 2.7006021E-02
3851.148, 3.0603791E-02
3853.076, 3.0819619E-02
3855.005, 2.7662041E-02
3856.933, 2.7264319E-02
3858.862, 2.9306261E-02
3860.790, 3.1263549E-02
3862.719, 2.8176250E-02
3864.647, 2.7359329E-02
3866.576, 2.8280079E-02
3868.504, 3.0654380E-02
3870.433, 2.9460831E-02
3872.361, 2.7335690E-02
3874.290, 2.8505970E-02
3876.218, 2.8055441E-02
3878.146, 2.6165480E-02
3880.075, 2.4643751E-02
3882.003, 2.5585311E-02
3883.932, 2.6587909E-02
3885.860, 2.6789740E-02
3887.789, 2.6806179E-02
3889.717, 2.8648051E-02
3891.646, 3.0293129E-02
3893.574, 3.0730590E-02
3895.503, 2.6948281E-02
3897.431, 2.6622601E-02
3899.360, 2.8401870E-02
3901.288, 2.7457381E-02
3903.217, 2.7108081E-02
3905.145, 2.9316761E-02
3907.073, 2.9337950E-02
3909.002, 3.0071840E-02
3910.930, 2.8769361E-02
3912.859, 2.7004849E-02
3914.787, 2.7305620E-02
3916.716, 2.9026560E-02
3918.644, 2.9723680E-02
3920.573, 3.1526230E-02
3922.501, 3.1661570E-02
3924.430, 3.1837828E-02
3926.358, 3.1967200E-02
3928.287, 3.0700261E-02
3930.215, 2.9034140E-02
3932.144, 2.7637340E-02
3934.072, 2.9952001E-02
3936.000, 3.1567801E-02
3937.929, 3.2309908E-02
3939.857, 3.1772401E-02
3941.786, 2.9256459E-02
3943.714, 2.6894150E-02
3945.643, 2.9140931E-02
3947.571, 2.9553151E-02
3949.500, 2.6083440E-02
3951.428, 2.5380880E-02
3953.357, 2.6269181E-02
3955.285, 2.8996481E-02
3957.214, 3.1119110E-02
3959.142, 3.0683780E-02
3961.071, 2.9365150E-02
3962.999, 2.8629741E-02
3964.927, 2.9432099E-02
3966.856, 3.1864669E-02
3968.784, 2.9324820E-02
3970.713, 2.7286511E-02
3972.641, 2.8717341E-02
3974.570, 2.9223040E-02
3976.498, 2.8171251E-02
3978.427, 2.6975021E-02
3980.355, 2.9076859E-02
3982.284, 3.0970450E-02
3984.212, 2.8559780E-02
3986.141, 2.3546670E-02
3988.069, 2.4981881E-02
3989.998, 2.8389310E-02
3991.926, 3.0571779E-02
3993.854, 3.1613842E-02
3995.783, 3.0049060E-02
3997.711, 3.2193210E-02
3999.640, 3.2208741E-02
##END=



