##NAMES=Orthoserpierite
##RRUFFID=R050292
##IDEAL CHEMISTRY=CaCu^2+^_4_(S^6+^O_4_)_2_(OH)_6_&#183;3H_2_O
##LOCALITY=Platosa mine, Bermijillo, Durango, Mexico
##OWNER=RRUFF
##SOURCE=Peter Megaw
##DESCRIPTION=Turquoise-blue bladed crystals
##STATUS=The identification of this mineral is confirmed by single-crystal X-ray diffraction and chemical analysis.
##URL=rruff.info/R050292
##MEASURED CHEMISTRY=Ca_1.00_(Cu_3.19_Zn_0.81_)_Σ=4_(S_1.00_O_4_)_2_(OH)_6_·3H_2_O
3.741225e+002, 3.496982e-002
3.760510e+002, 3.241199e-002
3.779795e+002, 3.140267e-002
3.799079e+002, 3.096040e-002
3.818364e+002, 3.043278e-002
3.837649e+002, 2.984733e-002
3.856933e+002, 3.323239e-002
3.876218e+002, 3.164506e-002
3.895503e+002, 3.118086e-002
3.914787e+002, 3.302400e-002
3.934072e+002, 3.330780e-002
3.953357e+002, 3.170144e-002
3.972641e+002, 3.263320e-002
3.991926e+002, 3.160954e-002
4.011211e+002, 3.017408e-002
4.030495e+002, 3.195274e-002
4.049780e+002, 3.241048e-002
4.069065e+002, 3.056714e-002
4.088349e+002, 2.957652e-002
4.107634e+002, 2.889047e-002
4.126919e+002, 2.853985e-002
4.146203e+002, 2.935155e-002
4.165488e+002, 2.940696e-002
4.184773e+002, 3.045547e-002
4.204057e+002, 3.105129e-002
4.223342e+002, 3.144394e-002
4.242627e+002, 3.202331e-002
4.261911e+002, 3.234517e-002
4.281196e+002, 3.355136e-002
4.300481e+002, 3.414753e-002
4.319765e+002, 3.387138e-002
4.339050e+002, 3.469990e-002
4.358335e+002, 3.534814e-002
4.377619e+002, 3.509018e-002
4.396904e+002, 3.491312e-002
4.416189e+002, 3.497719e-002
4.435473e+002, 3.463204e-002
4.454758e+002, 3.412038e-002
4.474043e+002, 3.425139e-002
4.493327e+002, 3.456939e-002
4.512612e+002, 3.473569e-002
4.531897e+002, 3.476026e-002
4.551181e+002, 3.452963e-002
4.570466e+002, 3.501422e-002
4.589751e+002, 3.639121e-002
4.609035e+002, 3.620389e-002
4.628320e+002, 3.587388e-002
4.647605e+002, 3.658244e-002
4.666889e+002, 3.733614e-002
4.686174e+002, 3.718810e-002
4.705459e+002, 3.720957e-002
4.724743e+002, 3.740153e-002
4.744028e+002, 3.695101e-002
4.763313e+002, 3.596045e-002
4.782597e+002, 3.522072e-002
4.801882e+002, 3.477493e-002
4.821167e+002, 3.420528e-002
4.840451e+002, 3.324717e-002
4.859736e+002, 3.251141e-002
4.879021e+002, 3.207346e-002
4.898305e+002, 3.175956e-002
4.917590e+002, 3.120333e-002
4.936875e+002, 3.059248e-002
4.956159e+002, 2.990598e-002
4.975444e+002, 2.944564e-002
4.994729e+002, 2.884077e-002
5.014013e+002, 2.820303e-002
5.033298e+002, 2.752676e-002
5.052583e+002, 2.692787e-002
5.071867e+002, 2.634727e-002
5.091152e+002, 2.522966e-002
5.110437e+002, 2.445977e-002
5.129721e+002, 2.392022e-002
5.149006e+002, 2.346195e-002
5.168290e+002, 2.361727e-002
5.187575e+002, 2.352325e-002
5.206860e+002, 2.344533e-002
5.226144e+002, 2.372989e-002
5.245429e+002, 2.462445e-002
5.264714e+002, 2.531428e-002
5.283998e+002, 2.555723e-002
5.303283e+002, 2.586777e-002
5.322568e+002, 2.653451e-002
5.341852e+002, 2.731892e-002
5.361137e+002, 2.804003e-002
5.380422e+002, 2.877894e-002
5.399706e+002, 2.913627e-002
5.418991e+002, 2.964074e-002
5.438276e+002, 3.056723e-002
5.457560e+002, 3.098378e-002
5.476845e+002, 3.104789e-002
5.496130e+002, 3.117978e-002
5.515414e+002, 3.170901e-002
5.534699e+002, 3.225675e-002
5.553984e+002, 3.240451e-002
5.573268e+002, 3.301163e-002
5.592553e+002, 3.348261e-002
5.611838e+002, 3.406223e-002
5.631122e+002, 3.480643e-002
5.650407e+002, 3.508772e-002
5.669692e+002, 3.538872e-002
5.688976e+002, 3.592579e-002
5.708261e+002, 3.687293e-002
5.727546e+002, 3.763206e-002
5.746830e+002, 3.838733e-002
5.766115e+002, 3.933269e-002
5.785400e+002, 4.007219e-002
5.804684e+002, 4.091457e-002
5.823969e+002, 4.216091e-002
5.843254e+002, 4.346538e-002
5.862538e+002, 4.465908e-002
5.881823e+002, 4.563934e-002
5.901108e+002, 4.665890e-002
5.920392e+002, 4.804005e-002
5.939677e+002, 4.935348e-002
5.958962e+002, 5.014833e-002
5.978246e+002, 5.031101e-002
5.997531e+002, 4.992997e-002
6.016816e+002, 4.937328e-002
6.036100e+002, 4.938639e-002
6.055385e+002, 4.943364e-002
6.074670e+002, 4.873538e-002
6.093954e+002, 4.698334e-002
6.113239e+002, 4.482796e-002
6.132524e+002, 4.227521e-002
6.151808e+002, 4.001225e-002
6.171093e+002, 3.868245e-002
6.190378e+002, 3.772241e-002
6.209662e+002, 3.665387e-002
6.228947e+002, 3.590269e-002
6.248232e+002, 3.576016e-002
6.267516e+002, 3.583576e-002
6.286801e+002, 3.589246e-002
6.306086e+002, 3.603346e-002
6.325370e+002, 3.622819e-002
6.344655e+002, 3.666517e-002
6.363940e+002, 3.726767e-002
6.383224e+002, 3.807150e-002
6.402509e+002, 3.885513e-002
6.421794e+002, 3.941401e-002
6.441078e+002, 3.970240e-002
6.460363e+002, 3.944003e-002
6.479648e+002, 3.900417e-002
6.498932e+002, 3.849424e-002
6.518217e+002, 3.806280e-002
6.537502e+002, 3.763085e-002
6.556786e+002, 3.700977e-002
6.576071e+002, 3.638941e-002
6.595356e+002, 3.557769e-002
6.614641e+002, 3.521504e-002
6.633925e+002, 3.530348e-002
6.653210e+002, 3.541298e-002
6.672495e+002, 3.573595e-002
6.691779e+002, 3.589972e-002
6.711064e+002, 3.606830e-002
6.730349e+002, 3.623801e-002
6.749633e+002, 3.667240e-002
6.768918e+002, 3.711196e-002
6.788203e+002, 3.740937e-002
6.807487e+002, 3.807067e-002
6.826772e+002, 3.854715e-002
6.846057e+002, 3.873150e-002
6.865341e+002, 3.902883e-002
6.884626e+002, 3.938926e-002
6.903911e+002, 3.967904e-002
6.923195e+002, 3.987574e-002
6.942480e+002, 4.001264e-002
6.961765e+002, 4.007093e-002
6.981049e+002, 4.000197e-002
7.000334e+002, 4.010556e-002
7.019619e+002, 3.994829e-002
7.038903e+002, 3.967706e-002
7.058188e+002, 3.932012e-002
7.077473e+002, 3.874707e-002
7.096757e+002, 3.823095e-002
7.116042e+002, 3.798271e-002
7.135327e+002, 3.758653e-002
7.154611e+002, 3.698801e-002
7.173896e+002, 3.632603e-002
7.193181e+002, 3.575355e-002
7.212465e+002, 3.538128e-002
7.231750e+002, 3.510242e-002
7.251035e+002, 3.477079e-002
7.270319e+002, 3.432297e-002
7.289604e+002, 3.378541e-002
7.308889e+002, 3.317828e-002
7.328173e+002, 3.269813e-002
7.347458e+002, 3.220408e-002
7.366743e+002, 3.181015e-002
7.386027e+002, 3.159210e-002
7.405312e+002, 3.155388e-002
7.424597e+002, 3.146419e-002
7.443881e+002, 3.115697e-002
7.463166e+002, 3.085388e-002
7.482451e+002, 3.056519e-002
7.501735e+002, 3.025407e-002
7.521020e+002, 3.009394e-002
7.540305e+002, 3.010518e-002
7.559589e+002, 3.008831e-002
7.578874e+002, 3.002783e-002
7.598159e+002, 2.993788e-002
7.617443e+002, 2.963855e-002
7.636728e+002, 2.954121e-002
7.656013e+002, 2.945450e-002
7.675297e+002, 2.933697e-002
7.694582e+002, 2.914869e-002
7.713867e+002, 2.884150e-002
7.733151e+002, 2.868873e-002
7.752436e+002, 2.872269e-002
7.771721e+002, 2.880625e-002
7.791005e+002, 2.892255e-002
7.810290e+002, 2.908848e-002
7.829575e+002, 2.931278e-002
7.848859e+002, 2.936617e-002
7.868144e+002, 2.944291e-002
7.887429e+002, 2.968809e-002
7.906713e+002, 3.008100e-002
7.925998e+002, 3.049370e-002
7.945283e+002, 3.075032e-002
7.964567e+002, 3.106175e-002
7.983852e+002, 3.134579e-002
8.003137e+002, 3.161805e-002
8.022421e+002, 3.194546e-002
8.041706e+002, 3.233377e-002
8.060991e+002, 3.266204e-002
8.080275e+002, 3.291075e-002
8.099560e+002, 3.302376e-002
8.118845e+002, 3.302884e-002
8.138129e+002, 3.291884e-002
8.157414e+002, 3.282257e-002
8.176699e+002, 3.263496e-002
8.195983e+002, 3.250788e-002
8.215268e+002, 3.256194e-002
8.234553e+002, 3.260401e-002
8.253837e+002, 3.283496e-002
8.273122e+002, 3.281403e-002
8.292407e+002, 3.251509e-002
8.311691e+002, 3.228031e-002
8.330976e+002, 3.191725e-002
8.350261e+002, 3.161222e-002
8.369545e+002, 3.123265e-002
8.388830e+002, 3.073061e-002
8.408115e+002, 3.026208e-002
8.427399e+002, 2.991369e-002
8.446684e+002, 2.964893e-002
8.465969e+002, 2.911850e-002
8.485253e+002, 2.843585e-002
8.504538e+002, 2.776984e-002
8.523823e+002, 2.714087e-002
8.543107e+002, 2.663673e-002
8.562392e+002, 2.602666e-002
8.581677e+002, 2.556202e-002
8.600961e+002, 2.500291e-002
8.620246e+002, 2.441290e-002
8.639531e+002, 2.380619e-002
8.658815e+002, 2.324019e-002
8.678100e+002, 2.271373e-002
8.697385e+002, 2.215250e-002
8.716669e+002, 2.159906e-002
8.735954e+002, 2.110172e-002
8.755239e+002, 2.077000e-002
8.774523e+002, 2.046185e-002
8.793808e+002, 2.022432e-002
8.813093e+002, 1.991954e-002
8.832377e+002, 1.945771e-002
8.851662e+002, 1.913518e-002
8.870947e+002, 1.885582e-002
8.890231e+002, 1.843399e-002
8.909516e+002, 1.803253e-002
8.928801e+002, 1.760367e-002
8.948085e+002, 1.705564e-002
8.967370e+002, 1.657602e-002
8.986655e+002, 1.624400e-002
9.005939e+002, 1.587635e-002
9.025224e+002, 1.573122e-002
9.044509e+002, 1.565441e-002
9.063793e+002, 1.545602e-002
9.083078e+002, 1.522492e-002
9.102363e+002, 1.511084e-002
9.121647e+002, 1.502317e-002
9.140932e+002, 1.496132e-002
9.160217e+002, 1.484089e-002
9.179501e+002, 1.483491e-002
9.198786e+002, 1.497176e-002
9.218071e+002, 1.497466e-002
9.237355e+002, 1.478109e-002
9.256640e+002, 1.470319e-002
9.275925e+002, 1.490210e-002
9.295209e+002, 1.515286e-002
9.314494e+002, 1.529321e-002
9.333779e+002, 1.531397e-002
9.353063e+002, 1.548455e-002
9.372348e+002, 1.567404e-002
9.391633e+002, 1.573827e-002
9.410917e+002, 1.595381e-002
9.430202e+002, 1.624881e-002
9.449487e+002, 1.640583e-002
9.468771e+002, 1.648143e-002
9.488056e+002, 1.671607e-002
9.507341e+002, 1.713379e-002
9.526625e+002, 1.754373e-002
9.545910e+002, 1.782762e-002
9.565195e+002, 1.812278e-002
9.584479e+002, 1.846716e-002
9.603764e+002, 1.880295e-002
9.623049e+002, 1.919211e-002
9.642333e+002, 1.966737e-002
9.661618e+002, 2.015415e-002
9.680903e+002, 2.064580e-002
9.700187e+002, 2.112077e-002
9.719472e+002, 2.168276e-002
9.738757e+002, 2.236565e-002
9.758041e+002, 2.319432e-002
9.777326e+002, 2.408929e-002
9.796611e+002, 2.515867e-002
9.815895e+002, 2.641816e-002
9.835180e+002, 2.776934e-002
9.854465e+002, 2.916335e-002
9.873749e+002, 2.996367e-002
9.893034e+002, 2.923053e-002
9.912319e+002, 2.728204e-002
9.931603e+002, 2.555797e-002
9.950888e+002, 2.435475e-002
9.970173e+002, 2.365930e-002
9.989457e+002, 2.356345e-002
1.000874e+003, 2.398475e-002
1.002803e+003, 2.466642e-002
1.004731e+003, 2.535990e-002
1.006660e+003, 2.602939e-002
1.008588e+003, 2.680845e-002
1.010517e+003, 2.769977e-002
1.012445e+003, 2.879385e-002
1.014373e+003, 2.937923e-002
1.016302e+003, 2.930496e-002
1.018230e+003, 2.929307e-002
1.020159e+003, 2.968361e-002
1.022087e+003, 3.030262e-002
1.024016e+003, 3.087406e-002
1.025944e+003, 3.171466e-002
1.027873e+003, 3.278825e-002
1.029801e+003, 3.406386e-002
1.031730e+003, 3.533018e-002
1.033658e+003, 3.659387e-002
1.035587e+003, 3.798753e-002
1.037515e+003, 3.945810e-002
1.039443e+003, 4.111608e-002
1.041372e+003, 4.278122e-002
1.043300e+003, 4.429564e-002
1.045229e+003, 4.579426e-002
1.047157e+003, 4.748619e-002
1.049086e+003, 4.925698e-002
1.051014e+003, 5.087813e-002
1.052943e+003, 5.243395e-002
1.054871e+003, 5.378707e-002
1.056800e+003, 5.493942e-002
1.058728e+003, 5.564076e-002
1.060657e+003, 5.578744e-002
1.062585e+003, 5.563375e-002
1.064514e+003, 5.540709e-002
1.066442e+003, 5.528079e-002
1.068370e+003, 5.544988e-002
1.070299e+003, 5.597372e-002
1.072227e+003, 5.706358e-002
1.074156e+003, 5.897124e-002
1.076084e+003, 6.149055e-002
1.078013e+003, 6.394471e-002
1.079941e+003, 6.592713e-002
1.081870e+003, 6.741624e-002
1.083798e+003, 6.851870e-002
1.085727e+003, 6.957088e-002
1.087655e+003, 7.054631e-002
1.089584e+003, 7.149156e-002
1.091512e+003, 7.228263e-002
1.093441e+003, 7.265177e-002
1.095369e+003, 7.242201e-002
1.097297e+003, 7.156082e-002
1.099226e+003, 6.984064e-002
1.101154e+003, 6.732008e-002
1.103083e+003, 6.450749e-002
1.105011e+003, 6.188719e-002
1.106940e+003, 5.963692e-002
1.108868e+003, 5.771970e-002
1.110797e+003, 5.630852e-002
1.112725e+003, 5.542639e-002
1.114654e+003, 5.501766e-002
1.116582e+003, 5.475036e-002
1.118511e+003, 5.433660e-002
1.120439e+003, 5.378333e-002
1.122368e+003, 5.285201e-002
1.124296e+003, 5.128061e-002
1.126224e+003, 4.939909e-002
1.128153e+003, 4.743391e-002
1.130081e+003, 4.563928e-002
1.132010e+003, 4.388208e-002
1.133938e+003, 4.199933e-002
1.135867e+003, 4.021722e-002
1.137795e+003, 3.879011e-002
1.139724e+003, 3.761862e-002
1.141652e+003, 3.638754e-002
1.143581e+003, 3.526685e-002
1.145509e+003, 3.439778e-002
1.147438e+003, 3.352028e-002
1.149366e+003, 3.241808e-002
1.151295e+003, 3.126677e-002
1.153223e+003, 3.002888e-002
1.155151e+003, 2.852530e-002
1.157080e+003, 2.691733e-002
1.159008e+003, 2.531341e-002
1.160937e+003, 2.340636e-002
1.162865e+003, 2.135611e-002
1.164794e+003, 1.954127e-002
1.166722e+003, 1.782776e-002
1.168651e+003, 1.628861e-002
1.170579e+003, 1.503702e-002
1.172508e+003, 1.414623e-002
1.174436e+003, 1.357573e-002
1.176365e+003, 1.311602e-002
1.178293e+003, 1.266566e-002
1.180222e+003, 1.216342e-002
1.182150e+003, 1.158853e-002
1.184078e+003, 1.108421e-002
1.186007e+003, 1.063167e-002
1.187935e+003, 1.011827e-002
1.189864e+003, 9.527665e-003
1.191792e+003, 9.011505e-003
1.193721e+003, 8.482867e-003
1.195649e+003, 7.898625e-003
1.197578e+003, 7.357445e-003
1.199506e+003, 6.898474e-003
1.201435e+003, 6.333803e-003
1.203363e+003, 5.857579e-003
1.205292e+003, 5.618677e-003
1.207220e+003, 5.615432e-003
1.209149e+003, 5.738414e-003
1.211077e+003, 6.046157e-003
1.213005e+003, 6.466448e-003
1.214934e+003, 6.774676e-003
1.216862e+003, 6.830490e-003
1.218791e+003, 6.726437e-003
1.220719e+003, 6.628066e-003
1.222648e+003, 6.527483e-003
1.224576e+003, 6.314273e-003
1.226505e+003, 6.083147e-003
1.228433e+003, 5.900797e-003
1.230362e+003, 5.677779e-003
1.232290e+003, 5.502110e-003
1.234219e+003, 5.449345e-003
1.236147e+003, 5.258858e-003
1.238076e+003, 4.918159e-003
1.240004e+003, 4.748247e-003
1.241932e+003, 4.635607e-003
1.243861e+003, 4.365390e-003
1.245789e+003, 4.233879e-003
1.247718e+003, 4.118891e-003
1.249646e+003, 3.813967e-003
1.251575e+003, 3.452509e-003
1.253503e+003, 3.163602e-003
1.255432e+003, 2.877168e-003
1.257360e+003, 2.598785e-003
1.259289e+003, 2.320893e-003
1.261217e+003, 2.069593e-003
1.263146e+003, 1.840513e-003
1.265074e+003, 1.511416e-003
1.267003e+003, 1.333988e-003
1.268931e+003, 1.397831e-003
1.270859e+003, 1.414583e-003
1.272788e+003, 1.401240e-003
1.274716e+003, 1.440228e-003
1.276645e+003, 1.342739e-003
1.278573e+003, 1.255960e-003
1.280502e+003, 1.462831e-003
1.282430e+003, 1.556493e-003
1.284359e+003, 1.613273e-003
1.286287e+003, 1.805998e-003
1.288216e+003, 1.821320e-003
1.290144e+003, 1.823861e-003
1.292073e+003, 1.863378e-003
1.294001e+003, 1.806873e-003
1.295930e+003, 1.663368e-003
1.297858e+003, 1.542194e-003
1.299786e+003, 1.489115e-003
1.301715e+003, 1.470210e-003
1.303643e+003, 1.421970e-003
1.305572e+003, 1.430867e-003
1.307500e+003, 1.584040e-003
1.309429e+003, 1.670682e-003
1.311357e+003, 1.674047e-003
1.313286e+003, 1.660613e-003
1.315214e+003, 1.733015e-003
1.317143e+003, 1.697727e-003
1.319071e+003, 1.607191e-003
1.321000e+003, 1.649561e-003
1.322928e+003, 1.790226e-003
1.324857e+003, 1.848879e-003
1.326785e+003, 1.829728e-003
1.328714e+003, 1.846251e-003
1.330642e+003, 1.975254e-003
1.332570e+003, 2.070573e-003
1.334499e+003, 2.033578e-003
1.336427e+003, 1.969639e-003
1.338356e+003, 2.041351e-003
1.340284e+003, 2.116304e-003
1.342213e+003, 2.195581e-003
1.344141e+003, 2.182007e-003
1.346070e+003, 2.176761e-003
1.347998e+003, 2.204396e-003
1.349927e+003, 2.346827e-003
1.351855e+003, 2.391680e-003
1.353784e+003, 2.366398e-003
1.355712e+003, 2.446300e-003
1.357641e+003, 2.659355e-003
1.359569e+003, 2.927583e-003
1.361497e+003, 3.170830e-003
1.363426e+003, 3.352607e-003
1.365354e+003, 3.362028e-003
1.367283e+003, 3.156098e-003
1.369211e+003, 3.150330e-003
1.371140e+003, 3.210574e-003
1.373068e+003, 3.099972e-003
1.374997e+003, 3.052899e-003
1.376925e+003, 3.068092e-003
1.378854e+003, 3.221139e-003
1.380782e+003, 3.491187e-003
1.382711e+003, 3.733470e-003
1.384639e+003, 3.823482e-003
1.386568e+003, 3.927154e-003
1.388496e+003, 3.919049e-003
1.390424e+003, 3.972714e-003
1.392353e+003, 4.186067e-003
1.394281e+003, 4.175817e-003
1.396210e+003, 4.159562e-003
1.398138e+003, 4.310196e-003
1.400067e+003, 4.374357e-003
1.401995e+003, 4.428625e-003
1.403924e+003, 4.624931e-003
1.405852e+003, 4.831778e-003
1.407781e+003, 5.037830e-003
1.409709e+003, 5.140908e-003
1.411638e+003, 5.066443e-003
1.413566e+003, 4.855513e-003
1.415495e+003, 4.701154e-003
1.417423e+003, 4.696107e-003
1.419351e+003, 4.710793e-003
1.421280e+003, 4.636771e-003
1.423208e+003, 4.628863e-003
1.425137e+003, 4.610207e-003
1.427065e+003, 4.530231e-003
1.428994e+003, 4.591257e-003
1.430922e+003, 4.681762e-003
1.432851e+003, 4.624127e-003
1.434779e+003, 4.658423e-003
1.436708e+003, 4.812185e-003
1.438636e+003, 4.834739e-003
1.440565e+003, 4.895920e-003
1.442493e+003, 4.941934e-003
1.444422e+003, 5.003972e-003
1.446350e+003, 5.063026e-003
1.448278e+003, 4.997953e-003
1.450207e+003, 4.977732e-003
1.452135e+003, 5.129572e-003
1.454064e+003, 5.144408e-003
1.455992e+003, 5.216124e-003
1.457921e+003, 5.171169e-003
1.459849e+003, 5.052215e-003
1.461778e+003, 4.947842e-003
1.463706e+003, 4.928472e-003
1.465635e+003, 4.858488e-003
1.467563e+003, 4.761907e-003
1.469492e+003, 4.769548e-003
1.471420e+003, 4.837903e-003
1.473349e+003, 4.914495e-003
1.475277e+003, 4.885873e-003
1.477205e+003, 4.767893e-003
1.479134e+003, 4.711230e-003
1.481062e+003, 4.741756e-003
1.482991e+003, 4.798038e-003
1.484919e+003, 4.834127e-003
1.486848e+003, 4.973005e-003
1.488776e+003, 5.298034e-003
1.490705e+003, 5.662855e-003
1.492633e+003, 5.895737e-003
1.494562e+003, 6.314768e-003
1.496490e+003, 6.840392e-003
1.498419e+003, 7.166788e-003
1.500347e+003, 7.407724e-003
1.502276e+003, 7.363495e-003
1.504204e+003, 7.394588e-003
1.506132e+003, 7.301786e-003
1.508061e+003, 6.664051e-003
1.509989e+003, 5.880057e-003
1.511918e+003, 5.289241e-003
1.513846e+003, 4.739931e-003
1.515775e+003, 4.422062e-003
1.517703e+003, 4.296194e-003
1.519632e+003, 4.200167e-003
1.521560e+003, 4.158780e-003
1.523489e+003, 3.952838e-003
1.525417e+003, 3.795531e-003
1.527346e+003, 3.748893e-003
1.529274e+003, 3.705543e-003
1.531203e+003, 3.692072e-003
1.533131e+003, 3.673448e-003
1.535059e+003, 3.540878e-003
1.536988e+003, 3.594496e-003
1.538916e+003, 3.859244e-003
1.540845e+003, 3.854908e-003
1.542773e+003, 3.700436e-003
1.544702e+003, 3.539652e-003
1.546630e+003, 3.409948e-003
1.548559e+003, 3.308348e-003
1.550487e+003, 3.316412e-003
1.552416e+003, 3.427772e-003
1.554344e+003, 3.521452e-003
1.556273e+003, 3.588565e-003
1.558201e+003, 3.661082e-003
1.560130e+003, 3.606952e-003
1.562058e+003, 3.370565e-003
1.563986e+003, 3.411256e-003
1.565915e+003, 3.415120e-003
1.567843e+003, 3.313320e-003
1.569772e+003, 3.394461e-003
1.571700e+003, 3.436495e-003
1.573629e+003, 3.554817e-003
1.575557e+003, 3.647939e-003
1.577486e+003, 3.598044e-003
1.579414e+003, 3.508675e-003
1.581343e+003, 3.527888e-003
1.583271e+003, 3.599500e-003
1.585200e+003, 3.558662e-003
1.587128e+003, 3.583685e-003
1.589057e+003, 3.723770e-003
1.590985e+003, 3.815718e-003
1.592913e+003, 3.936179e-003
1.594842e+003, 3.996985e-003
1.596770e+003, 4.083744e-003
1.598699e+003, 4.086731e-003
1.600627e+003, 4.208474e-003
1.602556e+003, 4.289692e-003
1.604484e+003, 4.183791e-003
1.606413e+003, 4.222474e-003
1.608341e+003, 4.390896e-003
1.610270e+003, 4.524359e-003
1.612198e+003, 4.585938e-003
1.614127e+003, 4.619876e-003
1.616055e+003, 4.724113e-003
1.617984e+003, 4.694375e-003
1.619912e+003, 4.634244e-003
1.621840e+003, 4.754205e-003
1.623769e+003, 4.795962e-003
1.625697e+003, 4.828100e-003
1.627626e+003, 4.972922e-003
1.629554e+003, 5.063401e-003
1.631483e+003, 5.033763e-003
1.633411e+003, 5.115457e-003
1.635340e+003, 5.349094e-003
1.637268e+003, 5.387791e-003
1.639197e+003, 5.486277e-003
1.641125e+003, 5.624225e-003
1.643054e+003, 5.721786e-003
1.644982e+003, 5.959275e-003
1.646911e+003, 6.291070e-003
1.648839e+003, 6.444097e-003
1.650767e+003, 6.982847e-003
1.652696e+003, 7.688654e-003
1.654624e+003, 7.833927e-003
1.656553e+003, 7.774287e-003
1.658481e+003, 7.879699e-003
1.660410e+003, 7.977727e-003
1.662338e+003, 8.022893e-003
1.664267e+003, 7.820938e-003
1.666195e+003, 7.725013e-003
1.668124e+003, 7.642203e-003
1.670052e+003, 7.412494e-003
1.671981e+003, 7.281688e-003
1.673909e+003, 7.387774e-003
1.675838e+003, 7.114169e-003
1.677766e+003, 6.751593e-003
1.679694e+003, 6.698614e-003
1.681623e+003, 6.575492e-003
1.683551e+003, 6.745080e-003
1.685480e+003, 6.851430e-003
1.687408e+003, 6.562515e-003
1.689337e+003, 6.257235e-003
1.691265e+003, 5.985949e-003
1.693194e+003, 5.782889e-003
1.695122e+003, 5.827038e-003
1.697051e+003, 5.709028e-003
1.698979e+003, 5.465866e-003
1.700908e+003, 5.316899e-003
1.702836e+003, 4.822190e-003
1.704765e+003, 4.668458e-003
1.706693e+003, 4.591780e-003
1.708621e+003, 4.469580e-003
1.710550e+003, 4.206324e-003
1.712478e+003, 3.922139e-003
1.714407e+003, 3.941214e-003
1.716335e+003, 3.991253e-003
1.718264e+003, 3.993660e-003
1.720192e+003, 3.967125e-003
1.722121e+003, 4.114571e-003
1.724049e+003, 4.182921e-003
1.725978e+003, 4.148249e-003
1.727906e+003, 4.231396e-003
1.729835e+003, 4.304409e-003
1.731763e+003, 4.311153e-003
1.733692e+003, 4.271743e-003
1.735620e+003, 3.928791e-003
1.737548e+003, 3.623522e-003
1.739477e+003, 3.362393e-003
1.741405e+003, 2.834714e-003
1.743334e+003, 2.386078e-003
1.745262e+003, 2.076617e-003
1.747191e+003, 1.864259e-003
1.749119e+003, 1.827428e-003
1.751048e+003, 1.968904e-003
1.752976e+003, 2.176125e-003
1.754905e+003, 2.532079e-003
1.756833e+003, 2.946473e-003
1.758762e+003, 3.492998e-003
1.760690e+003, 4.169432e-003
1.762619e+003, 4.773405e-003
1.764547e+003, 5.246409e-003
1.766475e+003, 5.501983e-003
1.768404e+003, 5.672352e-003
1.770332e+003, 5.659674e-003
1.772261e+003, 5.604011e-003
1.774189e+003, 5.442536e-003
1.776118e+003, 4.919955e-003
1.778046e+003, 4.514927e-003
1.779975e+003, 4.333026e-003
1.781903e+003, 4.041849e-003
1.783832e+003, 3.636360e-003
1.785760e+003, 3.222358e-003
1.787689e+003, 2.755835e-003
1.789617e+003, 2.448348e-003
1.791546e+003, 2.327958e-003
1.793474e+003, 2.111384e-003
1.795402e+003, 1.788380e-003
1.797331e+003, 1.574902e-003
1.799259e+003, 1.164148e-003
1.801188e+003, 9.227519e-004
1.803116e+003, 8.502202e-004
1.805045e+003, 8.002882e-004
1.806973e+003, 8.075452e-004
1.808902e+003, 8.602958e-004
1.810830e+003, 9.082350e-004
1.812759e+003, 8.992099e-004
1.814687e+003, 7.668251e-004
1.816616e+003, 6.884655e-004
1.818544e+003, 6.582491e-004
1.820473e+003, 7.203353e-004
1.822401e+003, 6.960073e-004
1.824329e+003, 6.592855e-004
1.826258e+003, 6.828655e-004
1.828186e+003, 7.670570e-004
1.830115e+003, 8.110140e-004
1.832043e+003, 6.019459e-004
1.833972e+003, 3.021450e-004
1.835900e+003, 4.527762e-004
1.837829e+003, 6.346491e-004
1.839757e+003, 6.842963e-004
1.841686e+003, 6.542166e-004
1.843614e+003, 6.172345e-004
1.845543e+003, 5.144558e-004
1.847471e+003, 5.343417e-004
1.849400e+003, 4.909275e-004
1.851328e+003, 3.047996e-004
1.853256e+003, 4.026030e-004
1.855185e+003, 6.280056e-004
1.857113e+003, 9.968064e-004
1.859042e+003, 9.227814e-004
1.860970e+003, 6.100726e-004
1.862899e+003, 4.732678e-004
1.864827e+003, 5.924639e-004
1.866756e+003, 8.913499e-004
1.868684e+003, 6.922560e-004
1.870613e+003, 3.691518e-004
1.872541e+003, 1.500667e-004
1.874470e+003, 9.225944e-005
1.876398e+003, 2.786537e-004
1.878327e+003, 2.608152e-004
1.880255e+003, 2.111299e-004
1.882183e+003, 1.601807e-004
1.884112e+003, 3.992204e-004
1.886040e+003, 6.245116e-004
1.887969e+003, 5.367267e-004
1.889897e+003, 3.894937e-004
1.891826e+003, 3.287630e-004
1.893754e+003, 3.281245e-004
1.895683e+003, 3.514687e-004
1.897611e+003, 2.229863e-004
1.899540e+003, 1.893887e-004
1.901468e+003, 5.200197e-004
1.903397e+003, 6.995531e-004
1.905325e+003, 6.785206e-004
1.907254e+003, 4.773607e-004
1.909182e+003, 6.840489e-004
1.911110e+003, 4.419064e-004
1.913039e+003, 1.794526e-004
1.914967e+003, 2.179460e-004
1.916896e+003, 3.292724e-004
1.918824e+003, 3.620385e-004
1.920753e+003, 5.523183e-004
1.922681e+003, 8.255403e-004
1.924610e+003, 4.488639e-004
1.926538e+003, 3.629116e-004
1.928467e+003, 5.667609e-004
1.930395e+003, 7.042107e-004
1.932324e+003, 7.982280e-004
1.934252e+003, 5.751238e-004
1.936181e+003, 2.083216e-004
1.938109e+003, 3.958074e-004
1.940037e+003, 6.306062e-004
1.941966e+003, 1.041402e-003
1.943894e+003, 9.519194e-004
1.945823e+003, 4.891037e-004
1.947751e+003, 7.340452e-005
1.949680e+003, 3.374785e-004
1.951608e+003, 1.059003e-003
1.953537e+003, 9.911467e-004
1.955465e+003, 3.218051e-004
1.957394e+003, 1.059991e-003
1.959322e+003, 1.594017e-003
1.961251e+003, 1.624397e-003
1.963179e+003, 1.066128e-003
1.965108e+003, 9.339736e-004
1.967036e+003, 6.419159e-004
1.968964e+003, -3.103120e-005
1.970893e+003, 7.321457e-004
1.972821e+003, 1.240922e-003
1.974750e+003, 1.278794e-003
1.976678e+003, 1.445009e-003
1.978607e+003, 1.697809e-003
1.980535e+003, 1.649743e-003
1.982464e+003, 1.197681e-003
1.984392e+003, 6.954754e-004
1.986321e+003, 1.039237e-003
1.988249e+003, 1.372129e-003
1.990178e+003, 1.814025e-003
1.992106e+003, 1.642589e-003
1.994035e+003, 1.029816e-003
1.995963e+003, 4.844392e-004
1.997891e+003, 1.720517e-003
1.999820e+003, 2.922803e-003
2.001748e+003, 1.984532e-003
2.003677e+003, 3.960435e-004
2.005605e+003, 6.663948e-004
2.007534e+003, 1.904494e-003
2.009462e+003, 2.231552e-003
2.011391e+003, 2.050336e-003
2.013319e+003, 2.315219e-003
2.015248e+003, 2.946176e-003
2.017176e+003, 2.985539e-003
2.019105e+003, 1.738868e-003
2.021033e+003, 1.423865e-003
2.022962e+003, 1.819106e-003
2.024890e+003, 1.377653e-003
2.026818e+003, 5.086851e-004
2.028747e+003, 1.522848e-003
2.030675e+003, 2.118376e-003
2.032604e+003, 2.227345e-003
2.034532e+003, 2.406785e-003
2.036461e+003, 1.669193e-003
2.038389e+003, 1.141657e-003
2.040318e+003, 1.693601e-003
2.042246e+003, 1.697248e-003
2.044175e+003, 1.765114e-003
2.046103e+003, 1.147649e-003
2.048031e+003, 1.013226e-003
2.049960e+003, 1.563731e-003
2.051888e+003, 1.436700e-003
2.053817e+003, 1.046056e-003
2.055745e+003, 1.054993e-003
2.057674e+003, 1.363994e-003
2.059602e+003, 1.484917e-003
2.061531e+003, 1.042183e-003
2.063459e+003, 6.318344e-004
2.065388e+003, 2.253503e-004
2.067316e+003, 3.255114e-004
2.069245e+003, 9.465959e-004
2.071173e+003, 1.090380e-003
2.073102e+003, 2.548535e-004
2.075030e+003, 7.372315e-004
2.076958e+003, 1.645253e-003
2.078887e+003, 1.762973e-003
2.080815e+003, 1.181831e-003
2.082744e+003, 7.482562e-004
2.084672e+003, 9.584776e-004
2.086601e+003, 1.067663e-003
2.088529e+003, 9.374800e-004
2.090458e+003, 9.077105e-004
2.092386e+003, 3.879825e-004
2.094315e+003, 2.073129e-004
2.096243e+003, 6.832393e-004
2.098172e+003, 6.287383e-004
2.100100e+003, 4.253215e-004
2.102029e+003, 6.386725e-004
2.103957e+003, 1.136742e-003
2.105885e+003, 1.379178e-003
2.107814e+003, 7.475747e-004
2.109742e+003, 3.683434e-004
2.111671e+003, 6.686120e-004
2.113599e+003, 7.636684e-004
2.115528e+003, 6.246669e-004
2.117456e+003, 3.170542e-004
2.119385e+003, 4.602189e-005
2.121313e+003, -1.841903e-004
2.123242e+003, 4.041614e-005
2.125170e+003, 5.522891e-004
2.127099e+003, 4.767983e-004
2.129027e+003, 3.728970e-004
2.130956e+003, 3.848912e-004
2.132884e+003, 3.209289e-004
2.134813e+003, -5.830312e-006
2.136741e+003, -1.044355e-004
2.138669e+003, 2.195328e-004
2.140598e+003, 3.526662e-004
2.142526e+003, 1.106546e-004
2.144455e+003, -1.979573e-004
2.146383e+003, -4.343488e-004
2.148312e+003, -2.281044e-004
2.150240e+003, -4.688064e-004
2.152169e+003, -9.104759e-004
2.154097e+003, -4.788097e-004
2.156026e+003, -3.361981e-005
2.157954e+003, -1.056166e-004
2.159883e+003, 1.131266e-003
2.161811e+003, 1.016172e-003
2.163740e+003, 2.879896e-004
2.165668e+003, 5.782151e-004
2.167596e+003, 5.986495e-004
2.169525e+003, 3.242400e-004
2.171453e+003, -7.728464e-005
2.173382e+003, -2.026903e-004
2.175310e+003, 3.866467e-004
2.177239e+003, 8.480926e-005
2.179167e+003, -5.220301e-004
2.181096e+003, 8.510426e-006
2.183024e+003, 6.431525e-004
2.184953e+003, 4.079652e-004
2.186881e+003, 9.041792e-005
2.188810e+003, 2.994568e-004
2.190738e+003, 1.168128e-004
2.192667e+003, -6.643613e-005
2.194595e+003, 1.164968e-003
2.196523e+003, 9.933359e-004
2.198452e+003, 2.610637e-004
2.200380e+003, -3.253575e-005
2.202309e+003, 6.705811e-004
2.204237e+003, 1.253534e-003
2.206166e+003, 9.925417e-004
2.208094e+003, 7.236768e-004
2.210023e+003, 8.082815e-004
2.211951e+003, 1.362761e-003
2.213880e+003, 1.954257e-003
2.215808e+003, 1.460875e-003
2.217737e+003, 1.036158e-003
2.219665e+003, 1.108746e-003
2.221594e+003, 6.673782e-004
2.223522e+003, 4.770682e-004
2.225450e+003, 7.291777e-004
2.227379e+003, 1.034515e-003
2.229307e+003, 1.375288e-003
2.231236e+003, 1.428257e-003
2.233164e+003, 1.777614e-003
2.235093e+003, 1.708262e-003
2.237021e+003, 1.244598e-003
2.238950e+003, 1.096332e-003
2.240878e+003, 1.245497e-003
2.242807e+003, 1.624358e-003
2.244735e+003, 1.987040e-003
2.246664e+003, 1.828838e-003
2.248592e+003, 1.610798e-003
2.250521e+003, 1.350125e-003
2.252449e+003, 9.393513e-004
2.254377e+003, 7.429333e-004
2.256306e+003, 6.241970e-004
2.258234e+003, 6.303931e-004
2.260163e+003, 7.778271e-004
2.262091e+003, 8.894717e-004
2.264020e+003, 1.110857e-003
2.265948e+003, 9.890283e-004
2.267877e+003, 4.767870e-004
2.269805e+003, 1.105386e-003
2.271734e+003, 1.647741e-003
2.273662e+003, 1.506624e-003
2.275591e+003, 1.308171e-003
2.277519e+003, 1.609144e-003
2.279448e+003, 1.549461e-003
2.281376e+003, 1.361262e-003
2.283304e+003, 1.376329e-003
2.285233e+003, 1.515797e-003
2.287161e+003, 1.539319e-003
2.289090e+003, 1.231767e-003
2.291018e+003, 1.051537e-003
2.292947e+003, 9.465957e-004
2.294875e+003, 1.081550e-003
2.296804e+003, 1.398517e-003
2.298732e+003, 1.197683e-003
2.300661e+003, 1.012882e-003
2.302589e+003, 1.167045e-003
2.304518e+003, 9.433341e-004
2.306446e+003, 8.743105e-004
2.308375e+003, 1.056892e-003
2.310303e+003, 9.029888e-004
2.312231e+003, 1.068353e-003
2.314160e+003, 1.419873e-003
2.316088e+003, 1.522843e-003
2.318017e+003, 1.803031e-003
2.319945e+003, 2.175768e-003
2.321874e+003, 2.338621e-003
2.323802e+003, 2.204030e-003
2.325731e+003, 2.008429e-003
2.327659e+003, 1.925680e-003
2.329588e+003, 1.869029e-003
2.331516e+003, 1.750691e-003
2.333445e+003, 1.766860e-003
2.335373e+003, 1.902281e-003
2.337302e+003, 1.826258e-003
2.339230e+003, 1.470609e-003
2.341158e+003, 1.625860e-003
2.343087e+003, 1.891967e-003
2.345015e+003, 1.636105e-003
2.346944e+003, 1.371944e-003
2.348872e+003, 1.289008e-003
2.350801e+003, 1.365650e-003
2.352729e+003, 1.241990e-003
2.354658e+003, 1.357164e-003
2.356586e+003, 1.810801e-003
2.358515e+003, 1.867550e-003
2.360443e+003, 1.722532e-003
2.362372e+003, 2.008507e-003
2.364300e+003, 2.156489e-003
2.366229e+003, 1.639500e-003
2.368157e+003, 1.408143e-003
2.370085e+003, 1.367543e-003
2.372014e+003, 1.232488e-003
2.373942e+003, 8.398371e-004
2.375871e+003, 5.791498e-004
2.377799e+003, 4.992338e-004
2.379728e+003, 3.816612e-004
2.381656e+003, 2.873035e-004
2.383585e+003, 3.763519e-004
2.385513e+003, 7.474843e-004
2.387442e+003, 9.434217e-004
2.389370e+003, 6.768216e-004
2.391299e+003, 6.356038e-004
2.393227e+003, 7.679874e-004
2.395156e+003, 7.299493e-004
2.397084e+003, 5.485833e-004
2.399012e+003, 6.700699e-004
2.400941e+003, 8.486402e-004
2.402869e+003, 4.535743e-004
2.404798e+003, -4.968118e-005
2.406726e+003, 2.796911e-004
2.408655e+003, 7.480680e-004
2.410583e+003, 8.946246e-004
2.412512e+003, 6.261934e-004
2.414440e+003, 3.144970e-004
2.416369e+003, 3.744095e-004
2.418297e+003, 6.964821e-004
2.420226e+003, 7.607570e-004
2.422154e+003, 5.372431e-004
2.424083e+003, 4.015126e-004
2.426011e+003, 7.106178e-004
2.427939e+003, 6.676876e-004
2.429868e+003, 3.404855e-004
2.431796e+003, 5.148785e-004
2.433725e+003, 4.233584e-004
2.435653e+003, 7.154625e-005
2.437582e+003, 1.617126e-004
2.439510e+003, 3.454854e-004
2.441439e+003, 2.494205e-004
2.443367e+003, 1.700616e-004
2.445296e+003, 3.558907e-004
2.447224e+003, 4.998689e-004
2.449153e+003, 3.661109e-004
2.451081e+003, 1.559600e-004
2.453010e+003, 2.016450e-004
2.454938e+003, 5.288539e-005
2.456866e+003, -1.596479e-004
2.458795e+003, 2.397904e-004
2.460723e+003, 6.595926e-004
2.462652e+003, 6.005587e-004
2.464580e+003, 4.132387e-004
2.466509e+003, 3.431329e-004
2.468437e+003, 1.991257e-004
2.470366e+003, 1.631383e-004
2.472294e+003, -1.582169e-004
2.474223e+003, -3.687683e-004
2.476151e+003, -3.753295e-004
2.478080e+003, -4.588118e-004
2.480008e+003, -4.592094e-004
2.481937e+003, -2.323926e-004
2.483865e+003, 3.779336e-005
2.485793e+003, -1.497542e-004
2.487722e+003, -3.456273e-004
2.489650e+003, -3.095414e-005
2.491579e+003, 8.331318e-005
2.493507e+003, -2.410782e-004
2.495436e+003, -1.777431e-004
2.497364e+003, -3.313043e-005
2.499293e+003, -4.819209e-005
2.501221e+003, 3.758673e-005
2.503150e+003, -1.797883e-004
2.505078e+003, -2.064474e-004
2.507007e+003, -1.220992e-004
2.508935e+003, -2.440874e-004
2.510864e+003, -4.550576e-004
2.512792e+003, -5.596438e-004
2.514720e+003, -7.456323e-004
2.516649e+003, -9.658810e-004
2.518577e+003, -1.064205e-003
2.520506e+003, -7.676714e-004
2.522434e+003, -4.320971e-004
2.524363e+003, -4.647391e-004
2.526291e+003, -4.663132e-004
2.528220e+003, -6.154908e-004
2.530148e+003, -8.545170e-004
2.532077e+003, -8.136273e-004
2.534005e+003, -7.939833e-004
2.535934e+003, -7.524010e-004
2.537862e+003, -6.515000e-004
2.539791e+003, -7.047650e-004
2.541719e+003, -6.061931e-004
2.543647e+003, -5.947393e-004
2.545576e+003, -7.465332e-004
2.547504e+003, -9.409570e-004
2.549433e+003, -1.210747e-003
2.551361e+003, -9.020944e-004
2.553290e+003, -3.134957e-004
2.555218e+003, -3.890127e-004
2.557147e+003, -4.823464e-004
2.559075e+003, -1.752218e-004
2.561004e+003, 6.880525e-005
2.562932e+003, -6.272829e-005
2.564861e+003, -2.502582e-004
2.566789e+003, -8.968847e-005
2.568718e+003, 8.638178e-005
2.570646e+003, -2.133941e-004
2.572574e+003, -4.862676e-004
2.574503e+003, -3.848689e-004
2.576431e+003, -4.148073e-004
2.578360e+003, -3.183117e-004
2.580288e+003, -1.851720e-004
2.582217e+003, -3.870410e-004
2.584145e+003, -4.337663e-004
2.586074e+003, -2.658963e-004
2.588002e+003, -2.949377e-004
2.589931e+003, -2.155803e-004
2.591859e+003, -2.348402e-004
2.593788e+003, 6.450378e-005
2.595716e+003, 4.817150e-005
2.597645e+003, 1.950949e-004
2.599573e+003, 1.349000e-004
2.601501e+003, -7.131910e-005
2.603430e+003, 4.305490e-005
2.605358e+003, 3.753698e-004
2.607287e+003, 5.802535e-004
2.609215e+003, 2.831377e-004
2.611144e+003, -2.030923e-005
2.613072e+003, 1.141007e-004
2.615001e+003, 1.869286e-004
2.616929e+003, 7.438265e-005
2.618858e+003, 9.210179e-005
2.620786e+003, 5.651630e-004
2.622715e+003, 5.394584e-004
2.624643e+003, 3.093589e-004
2.626572e+003, 2.814312e-004
2.628500e+003, -6.356255e-006
2.630428e+003, -1.702446e-004
2.632357e+003, 4.501001e-005
2.634285e+003, 3.153526e-004
2.636214e+003, 1.428277e-004
2.638142e+003, 1.970965e-004
2.640071e+003, 4.270592e-004
2.641999e+003, 2.550951e-004
2.643928e+003, -3.580517e-005
2.645856e+003, 4.679200e-005
2.647785e+003, 2.800065e-004
2.649713e+003, 4.275354e-004
2.651642e+003, 5.445245e-004
2.653570e+003, 4.702049e-004
2.655499e+003, 1.749643e-004
2.657427e+003, 6.304382e-005
2.659355e+003, 6.631231e-005
2.661284e+003, 1.374798e-004
2.663212e+003, 2.192733e-004
2.665141e+003, 1.863549e-004
2.667069e+003, 1.694829e-004
2.668998e+003, 2.139604e-004
2.670926e+003, 2.679830e-004
2.672855e+003, 3.165937e-004
2.674783e+003, 1.269077e-004
2.676712e+003, 6.052921e-005
2.678640e+003, 1.143152e-004
2.680569e+003, 2.788749e-004
2.682497e+003, 3.351281e-004
2.684426e+003, 3.291930e-004
2.686354e+003, 2.539841e-004
2.688282e+003, 1.837496e-004
2.690211e+003, 2.131748e-004
2.692139e+003, 3.353356e-004
2.694068e+003, 3.350923e-004
2.695996e+003, 2.475462e-004
2.697925e+003, 3.210940e-004
2.699853e+003, 3.650427e-004
2.701782e+003, 4.255249e-004
2.703710e+003, 6.247540e-004
2.705639e+003, 7.678668e-004
2.707567e+003, 6.983595e-004
2.709496e+003, 6.945903e-004
2.711424e+003, 5.389171e-004
2.713353e+003, 5.305391e-004
2.715281e+003, 6.170187e-004
2.717209e+003, 5.981439e-004
2.719138e+003, 5.959998e-004
2.721066e+003, 4.523400e-004
2.722995e+003, 4.888995e-004
2.724923e+003, 6.969699e-004
2.726852e+003, 8.174793e-004
2.728780e+003, 6.710069e-004
2.730709e+003, 6.728931e-004
2.732637e+003, 9.205763e-004
2.734566e+003, 9.687043e-004
2.736494e+003, 8.018434e-004
2.738423e+003, 8.090000e-004
2.740351e+003, 9.214763e-004
2.742280e+003, 8.727139e-004
2.744208e+003, 8.206085e-004
2.746136e+003, 6.328622e-004
2.748065e+003, 6.850166e-004
2.749993e+003, 9.383812e-004
2.751922e+003, 1.067401e-003
2.753850e+003, 1.215331e-003
2.755779e+003, 1.290091e-003
2.757707e+003, 1.048311e-003
2.759636e+003, 1.039117e-003
2.761564e+003, 1.185151e-003
2.763493e+003, 1.195650e-003
2.765421e+003, 1.418528e-003
2.767350e+003, 1.333827e-003
2.769278e+003, 1.131458e-003
2.771207e+003, 1.246546e-003
2.773135e+003, 1.237804e-003
2.775063e+003, 1.018578e-003
2.776992e+003, 1.127543e-003
2.778920e+003, 1.431353e-003
2.780849e+003, 1.587658e-003
2.782777e+003, 1.599617e-003
2.784706e+003, 1.546367e-003
2.786634e+003, 1.391536e-003
2.788563e+003, 1.223939e-003
2.790491e+003, 9.471269e-004
2.792420e+003, 1.090349e-003
2.794348e+003, 1.502487e-003
2.796277e+003, 1.946705e-003
2.798205e+003, 1.997408e-003
2.800134e+003, 1.809093e-003
2.802062e+003, 1.805283e-003
2.803990e+003, 1.794572e-003
2.805919e+003, 1.581645e-003
2.807847e+003, 1.399655e-003
2.809776e+003, 1.395641e-003
2.811704e+003, 1.637862e-003
2.813633e+003, 1.884205e-003
2.815561e+003, 1.895272e-003
2.817490e+003, 1.896441e-003
2.819418e+003, 2.191241e-003
2.821347e+003, 2.369517e-003
2.823275e+003, 2.113477e-003
2.825204e+003, 1.935048e-003
2.827132e+003, 1.884069e-003
2.829061e+003, 2.257422e-003
2.830989e+003, 2.360036e-003
2.832917e+003, 2.273304e-003
2.834846e+003, 2.262482e-003
2.836774e+003, 2.278393e-003
2.838703e+003, 2.645572e-003
2.840631e+003, 2.404283e-003
2.842560e+003, 2.190656e-003
2.844488e+003, 1.961183e-003
2.846417e+003, 1.832884e-003
2.848345e+003, 2.087409e-003
2.850274e+003, 1.944439e-003
2.852202e+003, 1.613537e-003
2.854131e+003, 1.432415e-003
2.856059e+003, 1.463381e-003
2.857988e+003, 1.802452e-003
2.859916e+003, 2.134770e-003
2.861844e+003, 2.253195e-003
2.863773e+003, 2.459071e-003
2.865701e+003, 2.851668e-003
2.867630e+003, 2.835942e-003
2.869558e+003, 2.953603e-003
2.871487e+003, 3.005615e-003
2.873415e+003, 3.122031e-003
2.875344e+003, 3.146623e-003
2.877272e+003, 3.348370e-003
2.879201e+003, 3.463830e-003
2.881129e+003, 3.571419e-003
2.883058e+003, 3.806969e-003
2.884986e+003, 3.685794e-003
2.886915e+003, 3.587304e-003
2.888843e+003, 3.651382e-003
2.890771e+003, 3.470036e-003
2.892700e+003, 3.494702e-003
2.894628e+003, 3.397275e-003
2.896557e+003, 3.319249e-003
2.898485e+003, 3.286079e-003
2.900414e+003, 3.438066e-003
2.902342e+003, 3.701173e-003
2.904271e+003, 4.255279e-003
2.906199e+003, 4.460009e-003
2.908128e+003, 3.708053e-003
2.910056e+003, 3.640080e-003
2.911985e+003, 3.832505e-003
2.913913e+003, 3.763349e-003
2.915842e+003, 3.705528e-003
2.917770e+003, 3.252425e-003
2.919698e+003, 2.649375e-003
2.921627e+003, 2.569610e-003
2.923555e+003, 2.422676e-003
2.925484e+003, 2.218945e-003
2.927412e+003, 2.378859e-003
2.929341e+003, 2.543759e-003
2.931269e+003, 2.705788e-003
2.933198e+003, 3.222062e-003
2.935126e+003, 3.783804e-003
2.937055e+003, 3.845983e-003
2.938983e+003, 4.208750e-003
2.940912e+003, 4.555262e-003
2.942840e+003, 4.460356e-003
2.944769e+003, 4.465498e-003
2.946697e+003, 4.700114e-003
2.948625e+003, 5.296834e-003
2.950554e+003, 5.639665e-003
2.952482e+003, 5.837193e-003
2.954411e+003, 6.064510e-003
2.956339e+003, 5.957023e-003
2.958268e+003, 5.948074e-003
2.960196e+003, 6.032023e-003
2.962125e+003, 6.148335e-003
2.964053e+003, 6.500683e-003
2.965982e+003, 7.119088e-003
2.967910e+003, 7.354989e-003
2.969839e+003, 7.153404e-003
2.971767e+003, 6.921596e-003
2.973696e+003, 6.885235e-003
2.975624e+003, 6.769341e-003
2.977552e+003, 6.404909e-003
2.979481e+003, 6.619765e-003
2.981409e+003, 7.022631e-003
2.983338e+003, 6.865641e-003
2.985266e+003, 6.524149e-003
2.987195e+003, 6.584428e-003
2.989123e+003, 7.093629e-003
2.991052e+003, 7.077745e-003
2.992980e+003, 6.828140e-003
2.994909e+003, 6.770761e-003
2.996837e+003, 7.148136e-003
2.998766e+003, 7.272496e-003
3.000694e+003, 7.231442e-003
3.002623e+003, 7.579641e-003
3.004551e+003, 7.980957e-003
3.006479e+003, 7.715757e-003
3.008408e+003, 7.797173e-003
3.010336e+003, 8.149158e-003
3.012265e+003, 8.204160e-003
3.014193e+003, 8.371485e-003
3.016122e+003, 8.928490e-003
3.018050e+003, 8.690730e-003
3.019979e+003, 8.623729e-003
3.021907e+003, 8.908101e-003
3.023836e+003, 9.019673e-003
3.025764e+003, 9.430041e-003
3.027693e+003, 9.899160e-003
3.029621e+003, 1.004188e-002
3.031550e+003, 9.926776e-003
3.033478e+003, 1.002096e-002
3.035406e+003, 1.024166e-002
3.037335e+003, 1.055719e-002
3.039263e+003, 1.084264e-002
3.041192e+003, 1.137534e-002
3.043120e+003, 1.174331e-002
3.045049e+003, 1.174552e-002
3.046977e+003, 1.155117e-002
3.048906e+003, 1.185523e-002
3.050834e+003, 1.240601e-002
3.052763e+003, 1.251950e-002
3.054691e+003, 1.252819e-002
3.056620e+003, 1.295295e-002
3.058548e+003, 1.335564e-002
3.060477e+003, 1.360558e-002
3.062405e+003, 1.351099e-002
3.064333e+003, 1.330932e-002
3.066262e+003, 1.374349e-002
3.068190e+003, 1.423135e-002
3.070119e+003, 1.439398e-002
3.072047e+003, 1.474617e-002
3.073976e+003, 1.530059e-002
3.075904e+003, 1.535315e-002
3.077833e+003, 1.528712e-002
3.079761e+003, 1.558250e-002
3.081690e+003, 1.593007e-002
3.083618e+003, 1.616418e-002
3.085547e+003, 1.634820e-002
3.087475e+003, 1.646185e-002
3.089404e+003, 1.640670e-002
3.091332e+003, 1.676047e-002
3.093260e+003, 1.705300e-002
3.095189e+003, 1.718262e-002
3.097117e+003, 1.759133e-002
3.099046e+003, 1.810763e-002
3.100974e+003, 1.838226e-002
3.102903e+003, 1.824806e-002
3.104831e+003, 1.816771e-002
3.106760e+003, 1.820442e-002
3.108688e+003, 1.854365e-002
3.110617e+003, 1.884197e-002
3.112545e+003, 1.949703e-002
3.114474e+003, 1.942920e-002
3.116402e+003, 1.942191e-002
3.118331e+003, 1.983803e-002
3.120259e+003, 2.033997e-002
3.122188e+003, 2.046361e-002
3.124116e+003, 2.051762e-002
3.126044e+003, 2.052194e-002
3.127973e+003, 2.057729e-002
3.129901e+003, 2.071450e-002
3.131830e+003, 2.101838e-002
3.133758e+003, 2.139524e-002
3.135687e+003, 2.179587e-002
3.137615e+003, 2.171322e-002
3.139544e+003, 2.150173e-002
3.141472e+003, 2.146786e-002
3.143401e+003, 2.197202e-002
3.145329e+003, 2.244338e-002
3.147258e+003, 2.220673e-002
3.149186e+003, 2.243445e-002
3.151115e+003, 2.303053e-002
3.153043e+003, 2.313064e-002
3.154971e+003, 2.264187e-002
3.156900e+003, 2.264865e-002
3.158828e+003, 2.317139e-002
3.160757e+003, 2.335091e-002
3.162685e+003, 2.350807e-002
3.164614e+003, 2.392701e-002
3.166542e+003, 2.402430e-002
3.168471e+003, 2.368160e-002
3.170399e+003, 2.353792e-002
3.172328e+003, 2.357979e-002
3.174256e+003, 2.364769e-002
3.176185e+003, 2.384350e-002
3.178113e+003, 2.372853e-002
3.180042e+003, 2.380142e-002
3.181970e+003, 2.418185e-002
3.183898e+003, 2.428611e-002
3.185827e+003, 2.471262e-002
3.187755e+003, 2.470281e-002
3.189684e+003, 2.447847e-002
3.191612e+003, 2.453694e-002
3.193541e+003, 2.480420e-002
3.195469e+003, 2.511690e-002
3.197398e+003, 2.510484e-002
3.199326e+003, 2.480157e-002
3.201255e+003, 2.433616e-002
3.203183e+003, 2.431364e-002
3.205112e+003, 2.491518e-002
3.207040e+003, 2.517929e-002
3.208969e+003, 2.529477e-002
3.210897e+003, 2.492755e-002
3.212825e+003, 2.481798e-002
3.214754e+003, 2.492794e-002
3.216682e+003, 2.476200e-002
3.218611e+003, 2.472460e-002
3.220539e+003, 2.481998e-002
3.222468e+003, 2.459377e-002
3.224396e+003, 2.446733e-002
3.226325e+003, 2.471377e-002
3.228253e+003, 2.456314e-002
3.230182e+003, 2.444219e-002
3.232110e+003, 2.462501e-002
3.234039e+003, 2.494363e-002
3.235967e+003, 2.517273e-002
3.237896e+003, 2.479772e-002
3.239824e+003, 2.480513e-002
3.241752e+003, 2.521828e-002
3.243681e+003, 2.557545e-002
3.245609e+003, 2.551540e-002
3.247538e+003, 2.521018e-002
3.249466e+003, 2.539458e-002
3.251395e+003, 2.578106e-002
3.253323e+003, 2.564560e-002
3.255252e+003, 2.543541e-002
3.257180e+003, 2.510326e-002
3.259109e+003, 2.514612e-002
3.261037e+003, 2.522432e-002
3.262966e+003, 2.542191e-002
3.264894e+003, 2.552886e-002
3.266823e+003, 2.564851e-002
3.268751e+003, 2.551386e-002
3.270679e+003, 2.560612e-002
3.272608e+003, 2.591964e-002
3.274536e+003, 2.629226e-002
3.276465e+003, 2.634886e-002
3.278393e+003, 2.606161e-002
3.280322e+003, 2.612794e-002
3.282250e+003, 2.629446e-002
3.284179e+003, 2.642915e-002
3.286107e+003, 2.665306e-002
3.288036e+003, 2.633483e-002
3.289964e+003, 2.656856e-002
3.291893e+003, 2.698029e-002
3.293821e+003, 2.646890e-002
3.295750e+003, 2.551191e-002
3.297678e+003, 2.604667e-002
3.299606e+003, 2.694279e-002
3.301535e+003, 2.695137e-002
3.303463e+003, 2.687552e-002
3.305392e+003, 2.728335e-002
3.307320e+003, 2.699705e-002
3.309249e+003, 2.683322e-002
3.311177e+003, 2.743780e-002
3.313106e+003, 2.745251e-002
3.315034e+003, 2.735841e-002
3.316963e+003, 2.760293e-002
3.318891e+003, 2.775380e-002
3.320820e+003, 2.786626e-002
3.322748e+003, 2.817426e-002
3.324677e+003, 2.800536e-002
3.326605e+003, 2.775121e-002
3.328533e+003, 2.752928e-002
3.330462e+003, 2.755015e-002
3.332390e+003, 2.830731e-002
3.334319e+003, 2.879646e-002
3.336247e+003, 2.885300e-002
3.338176e+003, 2.872771e-002
3.340104e+003, 2.869743e-002
3.342033e+003, 2.914548e-002
3.343961e+003, 2.912644e-002
3.345890e+003, 2.903576e-002
3.347818e+003, 2.912229e-002
3.349747e+003, 2.954005e-002
3.351675e+003, 2.967772e-002
3.353604e+003, 2.959440e-002
3.355532e+003, 2.973791e-002
3.357460e+003, 2.994765e-002
3.359389e+003, 2.994017e-002
3.361317e+003, 2.961064e-002
3.363246e+003, 2.953320e-002
3.365174e+003, 2.950585e-002
3.367103e+003, 2.974199e-002
3.369031e+003, 2.983635e-002
3.370960e+003, 2.928709e-002
3.372888e+003, 2.890493e-002
3.374817e+003, 2.864112e-002
3.376745e+003, 2.876938e-002
3.378674e+003, 2.889846e-002
3.380602e+003, 2.861302e-002
3.382531e+003, 2.845573e-002
3.384459e+003, 2.876475e-002
3.386387e+003, 2.857243e-002
3.388316e+003, 2.837314e-002
3.390244e+003, 2.829890e-002
3.392173e+003, 2.801492e-002
3.394101e+003, 2.780904e-002
3.396030e+003, 2.798352e-002
3.397958e+003, 2.770418e-002
3.399887e+003, 2.704498e-002
3.401815e+003, 2.599386e-002
3.403744e+003, 2.573816e-002
3.405672e+003, 2.616097e-002
3.407601e+003, 2.532879e-002
3.409529e+003, 2.437901e-002
3.411458e+003, 2.420766e-002
3.413386e+003, 2.446746e-002
3.415314e+003, 2.397525e-002
3.417243e+003, 2.295924e-002
3.419171e+003, 2.287172e-002
3.421100e+003, 2.276028e-002
3.423028e+003, 2.206197e-002
3.424957e+003, 2.149709e-002
3.426885e+003, 2.150836e-002
3.428814e+003, 2.133314e-002
3.430742e+003, 2.091805e-002
3.432671e+003, 2.036585e-002
3.434599e+003, 2.016442e-002
3.436528e+003, 1.949101e-002
3.438456e+003, 1.882705e-002
3.440385e+003, 1.891793e-002
3.442313e+003, 1.904125e-002
3.444241e+003, 1.861931e-002
3.446170e+003, 1.812018e-002
3.448098e+003, 1.777277e-002
3.450027e+003, 1.778904e-002
3.451955e+003, 1.769212e-002
3.453884e+003, 1.742397e-002
3.455812e+003, 1.703187e-002
3.457741e+003, 1.666723e-002
3.459669e+003, 1.682533e-002
3.461598e+003, 1.687237e-002
3.463526e+003, 1.611969e-002
3.465455e+003, 1.608557e-002
3.467383e+003, 1.605130e-002
3.469312e+003, 1.556163e-002
3.471240e+003, 1.524455e-002
3.473168e+003, 1.543400e-002
3.475097e+003, 1.526957e-002
3.477025e+003, 1.464645e-002
3.478954e+003, 1.478956e-002
3.480882e+003, 1.529163e-002
3.482811e+003, 1.534542e-002
3.484739e+003, 1.516086e-002
3.486668e+003, 1.501217e-002
3.488596e+003, 1.470620e-002
3.490525e+003, 1.430504e-002
3.492453e+003, 1.448779e-002
3.494382e+003, 1.409966e-002
3.496310e+003, 1.416868e-002
3.498239e+003, 1.443810e-002
3.500167e+003, 1.424092e-002
3.502095e+003, 1.378649e-002
3.504024e+003, 1.326717e-002
3.505952e+003, 1.334275e-002
3.507881e+003, 1.387837e-002
3.509809e+003, 1.353101e-002
3.511738e+003, 1.247425e-002
3.513666e+003, 1.262604e-002
3.515595e+003, 1.301177e-002
3.517523e+003, 1.260094e-002
3.519452e+003, 1.252410e-002
3.521380e+003, 1.251906e-002
3.523309e+003, 1.278320e-002
3.525237e+003, 1.262716e-002
3.527166e+003, 1.212896e-002
3.529094e+003, 1.189102e-002
3.531022e+003, 1.187721e-002
3.532951e+003, 1.149854e-002
3.534879e+003, 1.091004e-002
3.536808e+003, 1.137643e-002
3.538736e+003, 1.195301e-002
3.540665e+003, 1.160142e-002
3.542593e+003, 1.125861e-002
3.544522e+003, 1.157222e-002
3.546450e+003, 1.160571e-002
3.548379e+003, 1.184598e-002
3.550307e+003, 1.227101e-002
3.552236e+003, 1.217052e-002
3.554164e+003, 1.194709e-002
3.556093e+003, 1.159961e-002
3.558021e+003, 1.182729e-002
3.559949e+003, 1.226400e-002
3.561878e+003, 1.195018e-002
3.563806e+003, 1.138042e-002
3.565735e+003, 1.098563e-002
3.567663e+003, 1.010308e-002
3.569592e+003, 8.391489e-003
3.571520e+003, 6.904471e-003
3.573449e+003, 5.939319e-003
3.575377e+003, 5.180767e-003
3.577306e+003, 5.014662e-003
3.579234e+003, 5.614238e-003
3.581163e+003, 5.874364e-003
3.583091e+003, 5.632141e-003
3.585020e+003, 5.879079e-003
3.586948e+003, 6.244437e-003
3.588876e+003, 5.593288e-003
3.590805e+003, 4.436442e-003
3.592733e+003, 4.106600e-003
3.594662e+003, 3.325226e-003
3.596590e+003, 2.400662e-003
3.598519e+003, 1.995015e-003
3.600447e+003, 1.868843e-003
3.602376e+003, 1.612549e-003
3.604304e+003, 1.392232e-003
3.606233e+003, 8.362196e-004
3.608161e+003, 7.222839e-004
3.610090e+003, 9.524270e-004
3.612018e+003, 1.655291e-003
3.613947e+003, 1.498759e-003
3.615875e+003, 6.603064e-004
3.617803e+003, 2.837564e-004
3.619732e+003, -5.997099e-004
3.621660e+003, -2.396891e-003
3.623589e+003, -3.401860e-003
3.625517e+003, -4.107758e-003
3.627446e+003, -5.421368e-003
3.629374e+003, -5.524222e-003
3.631303e+003, -5.796218e-003
3.633231e+003, -5.952240e-003
3.635160e+003, -6.425014e-003
3.637088e+003, -6.789430e-003
3.639017e+003, -6.603956e-003
3.640945e+003, -6.706959e-003
3.642874e+003, -7.448577e-003
3.644802e+003, -7.377669e-003
3.646730e+003, -7.122161e-003
3.648659e+003, -7.094422e-003
3.650587e+003, -7.346479e-003
3.652516e+003, -7.503244e-003
3.654444e+003, -7.132881e-003
3.656373e+003, -7.104952e-003
3.658301e+003, -7.636826e-003
3.660230e+003, -7.460188e-003
3.662158e+003, -7.074976e-003
3.664087e+003, -7.607427e-003
3.666015e+003, -7.800517e-003
3.667944e+003, -7.997419e-003
3.669872e+003, -7.987858e-003
3.671801e+003, -8.683871e-003
3.673729e+003, -8.195528e-003
3.675657e+003, -6.959512e-003
3.677586e+003, -6.466180e-003
3.679514e+003, -7.274915e-003
3.681443e+003, -7.766089e-003
3.683371e+003, -7.139966e-003
3.685300e+003, -7.541688e-003
3.687228e+003, -7.639532e-003
3.689157e+003, -7.079598e-003
3.691085e+003, -7.127524e-003
3.693014e+003, -7.266975e-003
3.694942e+003, -7.201700e-003
3.696871e+003, -7.258043e-003
3.698799e+003, -7.186578e-003
3.700728e+003, -7.327675e-003
3.702656e+003, -7.469033e-003
3.704584e+003, -7.848115e-003
3.706513e+003, -7.893296e-003
3.708441e+003, -7.195673e-003
3.710370e+003, -6.982552e-003
3.712298e+003, -7.666148e-003
3.714227e+003, -7.873219e-003
3.716155e+003, -7.521841e-003
3.718084e+003, -7.486409e-003
3.720012e+003, -7.282350e-003
3.721941e+003, -6.967916e-003
3.723869e+003, -7.260351e-003
3.725798e+003, -7.615958e-003
3.727726e+003, -7.637014e-003
3.729655e+003, -7.512832e-003
3.731583e+003, -7.311082e-003
3.733511e+003, -7.390381e-003
3.735440e+003, -6.947173e-003
3.737368e+003, -6.887660e-003
3.739297e+003, -7.345570e-003
3.741225e+003, -7.659099e-003
3.743154e+003, -7.017980e-003
3.745082e+003, -6.672304e-003
3.747011e+003, -6.647713e-003
3.748939e+003, -6.421421e-003
3.750868e+003, -6.289447e-003
3.752796e+003, -6.515901e-003
3.754725e+003, -7.374666e-003
3.756653e+003, -7.431029e-003
3.758582e+003, -7.270482e-003
3.760510e+003, -7.496898e-003
3.762438e+003, -7.618905e-003
3.764367e+003, -7.873970e-003
3.766295e+003, -7.397721e-003
3.768224e+003, -6.654871e-003
3.770152e+003, -7.282247e-003
3.772081e+003, -8.241955e-003
3.774009e+003, -8.392392e-003
3.775938e+003, -8.144137e-003
3.777866e+003, -8.115690e-003
3.779795e+003, -8.274889e-003
3.781723e+003, -7.967551e-003
3.783652e+003, -7.468790e-003
3.785580e+003, -6.888283e-003
3.787509e+003, -7.014669e-003
3.789437e+003, -7.874958e-003
3.791365e+003, -8.474118e-003
3.793294e+003, -7.468320e-003
3.795222e+003, -6.837351e-003
3.797151e+003, -7.301372e-003
3.799079e+003, -7.432804e-003
3.801008e+003, -7.161010e-003
3.802936e+003, -7.735414e-003
3.804865e+003, -7.632197e-003
3.806793e+003, -6.786767e-003
3.808722e+003, -6.843643e-003
3.810650e+003, -7.517953e-003
3.812579e+003, -7.574093e-003
3.814507e+003, -6.871996e-003
3.816436e+003, -6.678527e-003
3.818364e+003, -6.349094e-003
3.820292e+003, -6.109197e-003
3.822221e+003, -6.799460e-003
3.824149e+003, -7.142466e-003
3.826078e+003, -7.334916e-003
3.828006e+003, -7.758969e-003
3.829935e+003, -7.667153e-003
3.831863e+003, -6.573814e-003
3.833792e+003, -5.853634e-003
3.835720e+003, -5.848366e-003
3.837649e+003, -6.289316e-003
3.839577e+003, -6.710309e-003
3.841506e+003, -6.931868e-003
3.843434e+003, -6.910256e-003
3.845363e+003, -6.664528e-003
3.847291e+003, -7.151186e-003
3.849219e+003, -6.518930e-003
3.851148e+003, -5.923432e-003
3.853076e+003, -5.548667e-003
3.855005e+003, -6.163331e-003
3.856933e+003, -7.014589e-003
3.858862e+003, -6.735053e-003
3.860790e+003, -6.140775e-003
3.862719e+003, -5.969147e-003
3.864647e+003, -6.149245e-003
3.866576e+003, -6.503959e-003
3.868504e+003, -6.701422e-003
3.870433e+003, -6.823309e-003
3.872361e+003, -6.795806e-003
3.874290e+003, -6.769416e-003
3.876218e+003, -7.426467e-003
3.878146e+003, -7.149091e-003
3.880075e+003, -7.016699e-003
3.882003e+003, -6.984727e-003
3.883932e+003, -6.732258e-003
3.885860e+003, -6.171769e-003
3.887789e+003, -6.370179e-003
3.889717e+003, -6.192046e-003
3.891646e+003, -6.767392e-003
3.893574e+003, -8.018237e-003
3.895503e+003, -7.743952e-003
3.897431e+003, -7.172961e-003
3.899360e+003, -6.882397e-003
3.901288e+003, -6.820926e-003
3.903217e+003, -7.045718e-003
3.905145e+003, -6.508190e-003
3.907073e+003, -6.005937e-003
3.909002e+003, -6.628055e-003
3.910930e+003, -7.536721e-003
3.912859e+003, -7.362837e-003
3.914787e+003, -7.030775e-003
3.916716e+003, -6.835333e-003
3.918644e+003, -6.739775e-003
3.920573e+003, -7.336644e-003
3.922501e+003, -7.482226e-003
3.924430e+003, -6.704813e-003
3.926358e+003, -6.631406e-003
3.928287e+003, -7.291249e-003
3.930215e+003, -7.499311e-003
3.932144e+003, -7.448135e-003
3.934072e+003, -7.498386e-003
3.936000e+003, -7.537913e-003
3.937929e+003, -7.530311e-003
3.939857e+003, -7.743772e-003
3.941786e+003, -7.254727e-003
3.943714e+003, -6.579705e-003
3.945643e+003, -6.356703e-003
3.947571e+003, -7.293661e-003
3.949500e+003, -7.940577e-003
3.951428e+003, -7.540924e-003
3.953357e+003, -7.666291e-003
3.955285e+003, -7.875906e-003
3.957214e+003, -7.180683e-003
3.959142e+003, -6.503697e-003
3.961071e+003, -6.284182e-003
3.962999e+003, -6.682714e-003
3.964927e+003, -6.913005e-003
3.966856e+003, -7.465074e-003
3.968784e+003, -7.401667e-003
3.970713e+003, -6.602167e-003
3.972641e+003, -6.400541e-003
3.974570e+003, -7.179040e-003
3.976498e+003, -8.004115e-003
3.978427e+003, -7.964041e-003
3.980355e+003, -7.508237e-003
3.982284e+003, -7.116906e-003
3.984212e+003, -6.695120e-003
3.986141e+003, -6.945428e-003
3.988069e+003, -7.071446e-003
3.989998e+003, -6.544302e-003
3.991926e+003, -6.426890e-003
3.993854e+003, -7.007514e-003
3.995783e+003, -7.122054e-003
3.997711e+003, -7.118505e-003
3.999640e+003, -6.794455e-003
##END=



