##NAMES=Phenakite
##RRUFFID=R040046
##IDEAL CHEMISTRY=Be_2_SiO_4_
##LOCALITY=San Miguel de Piracicaba, Minas Gerais, Brazil
##OWNER=RRUFF
##SOURCE=University of Arizona Mineral Museum
##DESCRIPTION=Colorless crystal fragments
##STATUS=The identification of this mineral has been confirmed by X-ray diffraction and chemical analysis
##URL=rruff.info/R040046
##MEASURED CHEMISTRY=Be_2.02_Si_0.99_O_4_
3.991926e+002, 0.000000e+000
4.011211e+002, 2.933927e-001
4.030496e+002, 2.947898e-001
4.049780e+002, 3.021995e-001
4.069065e+002, 3.223908e-001
4.088350e+002, 3.249407e-001
4.107634e+002, 3.296178e-001
4.126919e+002, 3.348668e-001
4.146204e+002, 3.390667e-001
4.165488e+002, 3.513751e-001
4.184773e+002, 3.557546e-001
4.204058e+002, 3.365664e-001
4.223342e+002, 3.177231e-001
4.242627e+002, 2.860444e-001
4.261912e+002, 2.368821e-001
4.281196e+002, 1.842294e-001
4.300481e+002, 1.426293e-001
4.319766e+002, 1.041892e-001
4.339050e+002, 7.269713e-002
4.358335e+002, 6.702460e-002
4.377620e+002, 8.432341e-002
4.396904e+002, 8.459982e-002
4.416189e+002, 7.126188e-002
4.435474e+002, 7.370675e-002
4.454758e+002, 8.256071e-002
4.474043e+002, 9.442206e-002
4.493328e+002, 1.063223e-001
4.512612e+002, 1.194417e-001
4.531897e+002, 1.307531e-001
4.551182e+002, 1.402664e-001
4.570466e+002, 1.493834e-001
4.589751e+002, 1.586537e-001
4.609036e+002, 1.660094e-001
4.628320e+002, 1.743751e-001
4.647605e+002, 1.824997e-001
4.666890e+002, 1.904327e-001
4.686174e+002, 1.976325e-001
4.705459e+002, 2.049355e-001
4.724744e+002, 2.119119e-001
4.744028e+002, 2.151263e-001
4.763313e+002, 2.122109e-001
4.782598e+002, 2.161745e-001
4.801882e+002, 2.227961e-001
4.821167e+002, 2.282120e-001
4.840452e+002, 2.340916e-001
4.859736e+002, 2.390436e-001
4.879021e+002, 2.434375e-001
4.898306e+002, 2.474180e-001
4.917590e+002, 2.513170e-001
4.936875e+002, 2.552289e-001
4.956160e+002, 2.588523e-001
4.975444e+002, 2.635715e-001
4.994729e+002, 2.684391e-001
5.014014e+002, 2.722638e-001
5.033298e+002, 2.747436e-001
5.052583e+002, 2.788402e-001
5.071868e+002, 2.828101e-001
5.091152e+002, 2.868108e-001
5.110437e+002, 2.907340e-001
5.129722e+002, 2.950773e-001
5.149006e+002, 2.988895e-001
5.168291e+002, 3.013996e-001
5.187576e+002, 3.004070e-001
5.206860e+002, 3.001409e-001
5.226145e+002, 3.039678e-001
5.245430e+002, 3.083244e-001
5.264714e+002, 3.124009e-001
5.283999e+002, 3.165236e-001
5.303284e+002, 3.189428e-001
5.322568e+002, 3.215736e-001
5.341853e+002, 3.247321e-001
5.361138e+002, 3.284329e-001
5.380422e+002, 3.331994e-001
5.399707e+002, 3.391702e-001
5.418992e+002, 3.424254e-001
5.438276e+002, 3.425797e-001
5.457561e+002, 3.449222e-001
5.476846e+002, 3.494210e-001
5.496130e+002, 3.536055e-001
5.515415e+002, 3.577625e-001
5.534700e+002, 3.626943e-001
5.553984e+002, 3.669279e-001
5.573269e+002, 3.684308e-001
5.592554e+002, 3.703158e-001
5.611838e+002, 3.743620e-001
5.631123e+002, 3.787589e-001
5.650408e+002, 3.828689e-001
5.669692e+002, 3.865818e-001
5.688977e+002, 3.906116e-001
5.708262e+002, 3.965346e-001
5.727546e+002, 4.035732e-001
5.746831e+002, 4.074723e-001
5.766116e+002, 3.982099e-001
5.785400e+002, 3.869121e-001
5.804685e+002, 3.945495e-001
5.823970e+002, 4.076524e-001
5.843254e+002, 4.162452e-001
5.862539e+002, 4.213346e-001
5.881824e+002, 4.196757e-001
5.901108e+002, 4.091199e-001
5.920393e+002, 3.860438e-001
5.939678e+002, 3.459169e-001
5.958962e+002, 2.897288e-001
5.978247e+002, 2.279963e-001
5.997532e+002, 1.806221e-001
6.016816e+002, 1.680475e-001
6.036101e+002, 1.891330e-001
6.055386e+002, 2.262896e-001
6.074670e+002, 2.644913e-001
6.093955e+002, 2.956334e-001
6.113240e+002, 3.187781e-001
6.132524e+002, 3.368419e-001
6.151809e+002, 3.511892e-001
6.171094e+002, 3.625033e-001
6.190378e+002, 3.719945e-001
6.209663e+002, 3.809365e-001
6.228948e+002, 3.898532e-001
6.248232e+002, 3.971283e-001
6.267517e+002, 4.026430e-001
6.286802e+002, 4.092513e-001
6.306086e+002, 4.161087e-001
6.325371e+002, 4.208595e-001
6.344656e+002, 4.250175e-001
6.363940e+002, 4.260462e-001
6.383225e+002, 4.203323e-001
6.402510e+002, 4.056419e-001
6.421794e+002, 3.846525e-001
6.441079e+002, 3.745115e-001
6.460364e+002, 3.862593e-001
6.479648e+002, 4.067277e-001
6.498933e+002, 4.222175e-001
6.518218e+002, 4.325098e-001
6.537502e+002, 4.395504e-001
6.556787e+002, 4.450049e-001
6.576072e+002, 4.495916e-001
6.595356e+002, 4.532923e-001
6.614641e+002, 4.552863e-001
6.633926e+002, 4.564027e-001
6.653210e+002, 4.567021e-001
6.672495e+002, 4.565964e-001
6.691780e+002, 4.566981e-001
6.711064e+002, 4.584613e-001
6.730349e+002, 4.581950e-001
6.749634e+002, 4.550304e-001
6.768918e+002, 4.523384e-001
6.788203e+002, 4.488209e-001
6.807488e+002, 4.436233e-001
6.826772e+002, 4.376920e-001
6.846057e+002, 4.311586e-001
6.865342e+002, 4.231934e-001
6.884626e+002, 4.141599e-001
6.903911e+002, 4.061584e-001
6.923196e+002, 3.981280e-001
6.942480e+002, 3.874717e-001
6.961765e+002, 3.730422e-001
6.981050e+002, 3.559457e-001
7.000334e+002, 3.453045e-001
7.019619e+002, 3.583698e-001
7.038904e+002, 3.949459e-001
7.058188e+002, 4.215652e-001
7.077473e+002, 4.216943e-001
7.096758e+002, 4.093481e-001
7.116042e+002, 3.957929e-001
7.135327e+002, 3.838058e-001
7.154612e+002, 3.732147e-001
7.173896e+002, 3.613499e-001
7.193181e+002, 3.476279e-001
7.212466e+002, 3.350031e-001
7.231750e+002, 3.230472e-001
7.251035e+002, 3.112396e-001
7.270320e+002, 3.022004e-001
7.289604e+002, 3.004434e-001
7.308889e+002, 3.058901e-001
7.328174e+002, 3.057070e-001
7.347458e+002, 2.965802e-001
7.366743e+002, 2.885154e-001
7.386028e+002, 2.840140e-001
7.405313e+002, 2.785793e-001
7.424597e+002, 2.700243e-001
7.443882e+002, 2.597931e-001
7.463167e+002, 2.488733e-001
7.482451e+002, 2.380576e-001
7.501736e+002, 2.279898e-001
7.521021e+002, 2.181536e-001
7.540305e+002, 2.088863e-001
7.559590e+002, 2.012501e-001
7.578875e+002, 1.974841e-001
7.598159e+002, 2.010863e-001
7.617444e+002, 2.139529e-001
7.636729e+002, 2.352763e-001
7.656013e+002, 2.621354e-001
7.675298e+002, 2.907110e-001
7.694583e+002, 3.149129e-001
7.713867e+002, 3.273927e-001
7.733152e+002, 3.238124e-001
7.752437e+002, 3.063638e-001
7.771721e+002, 2.811346e-001
7.791006e+002, 2.550638e-001
7.810291e+002, 2.321118e-001
7.829575e+002, 2.129683e-001
7.848860e+002, 1.989810e-001
7.868145e+002, 1.908576e-001
7.887429e+002, 1.848761e-001
7.906714e+002, 1.766774e-001
7.925999e+002, 1.664755e-001
7.945283e+002, 1.554639e-001
7.964568e+002, 1.449298e-001
7.983853e+002, 1.355248e-001
8.003137e+002, 1.281908e-001
8.022422e+002, 1.234755e-001
8.041707e+002, 1.212319e-001
8.060991e+002, 1.213092e-001
8.080276e+002, 1.220113e-001
8.099561e+002, 1.225085e-001
8.118845e+002, 1.224567e-001
8.138130e+002, 1.213803e-001
8.157415e+002, 1.191916e-001
8.176699e+002, 1.164002e-001
8.195984e+002, 1.131498e-001
8.215269e+002, 1.095222e-001
8.234553e+002, 1.052323e-001
8.253838e+002, 1.002140e-001
8.273123e+002, 9.457750e-002
8.292407e+002, 8.855361e-002
8.311692e+002, 8.230106e-002
8.330977e+002, 7.649613e-002
8.350261e+002, 7.133104e-002
8.369546e+002, 6.723846e-002
8.388831e+002, 6.508666e-002
8.408115e+002, 6.495337e-002
8.427400e+002, 6.661838e-002
8.446685e+002, 7.016268e-002
8.465969e+002, 7.526089e-002
8.485254e+002, 8.181997e-002
8.504539e+002, 9.045422e-002
8.523823e+002, 1.013568e-001
8.543108e+002, 1.144625e-001
8.562393e+002, 1.294019e-001
8.581677e+002, 1.462074e-001
8.600962e+002, 1.646463e-001
8.620247e+002, 1.847144e-001
8.639531e+002, 2.063061e-001
8.658816e+002, 2.294989e-001
8.678101e+002, 2.539621e-001
8.697385e+002, 2.789789e-001
8.716670e+002, 3.046128e-001
8.735955e+002, 3.308746e-001
8.755239e+002, 3.568614e-001
8.774524e+002, 3.811671e-001
8.793809e+002, 4.043990e-001
8.813093e+002, 4.267843e-001
8.832378e+002, 4.467057e-001
8.851663e+002, 4.636788e-001
8.870947e+002, 4.774152e-001
8.890232e+002, 4.877398e-001
8.909517e+002, 4.931729e-001
8.928801e+002, 4.929237e-001
8.948085e+002, 4.876496e-001
8.967370e+002, 4.778205e-001
8.986655e+002, 4.631243e-001
9.005939e+002, 4.433820e-001
9.025224e+002, 4.171740e-001
9.044509e+002, 3.886744e-001
9.063793e+002, 3.647562e-001
9.083078e+002, 3.495397e-001
9.102363e+002, 3.392804e-001
9.121647e+002, 3.291177e-001
9.140932e+002, 3.175095e-001
9.160217e+002, 3.070023e-001
9.179501e+002, 3.047258e-001
9.198786e+002, 3.182455e-001
9.218071e+002, 3.495687e-001
9.237355e+002, 3.890525e-001
9.256640e+002, 4.220623e-001
9.275925e+002, 4.408267e-001
9.295209e+002, 4.464438e-001
9.314494e+002, 4.424525e-001
9.333779e+002, 4.312520e-001
9.353063e+002, 4.147214e-001
9.372348e+002, 3.947093e-001
9.391633e+002, 3.746903e-001
9.410917e+002, 3.557875e-001
9.430202e+002, 3.378398e-001
9.449487e+002, 3.211578e-001
9.468771e+002, 3.055944e-001
9.488056e+002, 2.911429e-001
9.507341e+002, 2.779942e-001
9.526625e+002, 2.659779e-001
9.545910e+002, 2.545556e-001
9.565195e+002, 2.437750e-001
9.584479e+002, 2.341651e-001
9.603764e+002, 2.262020e-001
9.623049e+002, 2.216436e-001
9.642333e+002, 2.245701e-001
9.661618e+002, 2.384321e-001
9.680903e+002, 2.601883e-001
9.700187e+002, 2.798070e-001
9.719472e+002, 2.888791e-001
9.738757e+002, 2.864998e-001
9.758041e+002, 2.770195e-001
9.777326e+002, 2.653795e-001
9.796611e+002, 2.540081e-001
9.815895e+002, 2.440273e-001
9.835180e+002, 2.352455e-001
9.854465e+002, 2.271400e-001
9.873749e+002, 2.200623e-001
9.893034e+002, 2.134324e-001
9.912319e+002, 2.071673e-001
9.931603e+002, 2.019491e-001
9.950888e+002, 1.974806e-001
9.970173e+002, 1.932040e-001
9.989457e+002, 1.892722e-001
1.000874e+003, 1.853358e-001
1.002803e+003, 1.808690e-001
1.004731e+003, 1.763244e-001
1.006660e+003, 1.715778e-001
1.008588e+003, 1.668174e-001
1.010517e+003, 1.624424e-001
1.012445e+003, 1.582602e-001
1.014373e+003, 1.542233e-001
1.016302e+003, 1.506825e-001
1.018230e+003, 1.472654e-001
1.020159e+003, 1.442070e-001
1.022087e+003, 1.418168e-001
1.024016e+003, 1.404258e-001
1.025944e+003, 1.388984e-001
1.027873e+003, 1.361034e-001
1.029801e+003, 1.321450e-001
1.031730e+003, 1.280288e-001
1.033658e+003, 1.241354e-001
1.035587e+003, 1.206565e-001
1.037515e+003, 1.174774e-001
1.039444e+003, 1.144169e-001
1.041372e+003, 1.115496e-001
1.043301e+003, 1.088044e-001
1.045229e+003, 1.059611e-001
1.047157e+003, 1.032326e-001
1.049086e+003, 1.004340e-001
1.051014e+003, 9.770858e-002
1.052943e+003, 9.502350e-002
1.054871e+003, 9.225454e-002
1.056800e+003, 8.969954e-002
1.058728e+003, 8.714674e-002
1.060657e+003, 8.456770e-002
1.062585e+003, 8.190474e-002
1.064514e+003, 7.917007e-002
1.066442e+003, 7.645287e-002
1.068371e+003, 7.368443e-002
1.070299e+003, 7.084286e-002
1.072228e+003, 6.810462e-002
1.074156e+003, 6.553875e-002
1.076084e+003, 6.284102e-002
1.078013e+003, 5.986140e-002
1.079941e+003, 5.673124e-002
1.081870e+003, 5.383821e-002
1.083798e+003, 5.123737e-002
1.085727e+003, 4.863296e-002
1.087655e+003, 4.595005e-002
1.089584e+003, 4.336415e-002
1.091512e+003, 4.061439e-002
1.093441e+003, 3.801788e-002
1.095369e+003, 3.575588e-002
1.097298e+003, 3.362708e-002
1.099226e+003, 3.160010e-002
1.101155e+003, 2.955222e-002
1.103083e+003, 2.769399e-002
1.105011e+003, 2.602124e-002
1.106940e+003, 2.461629e-002
1.108868e+003, 2.358427e-002
1.110797e+003, 2.267504e-002
1.112725e+003, 2.172958e-002
1.114654e+003, 2.073678e-002
1.116582e+003, 2.006140e-002
1.118511e+003, 1.959941e-002
1.120439e+003, 1.896769e-002
1.122368e+003, 1.832459e-002
1.124296e+003, 1.792062e-002
1.126225e+003, 1.751865e-002
1.128153e+003, 1.710353e-002
1.130082e+003, 1.671465e-002
1.132010e+003, 1.624231e-002
1.133938e+003, 1.586311e-002
1.135867e+003, 1.549914e-002
1.137795e+003, 1.533829e-002
1.139724e+003, 1.516156e-002
1.141652e+003, 1.480249e-002
1.143581e+003, 1.445610e-002
1.145509e+003, 1.412093e-002
1.147438e+003, 1.382478e-002
1.149366e+003, 1.360387e-002
1.151295e+003, 1.341951e-002
1.153223e+003, 1.300400e-002
1.155152e+003, 1.274053e-002
1.157080e+003, 1.263396e-002
1.159009e+003, 1.259656e-002
1.160937e+003, 1.236134e-002
1.162865e+003, 1.199836e-002
1.164794e+003, 1.181782e-002
1.166722e+003, 1.158114e-002
1.168651e+003, 1.135873e-002
1.170579e+003, 1.124601e-002
1.172508e+003, 1.115123e-002
1.174436e+003, 1.117714e-002
1.176365e+003, 1.118679e-002
1.178293e+003, 1.108057e-002
1.180222e+003, 1.084956e-002
1.182150e+003, 1.069711e-002
1.184079e+003, 1.062055e-002
1.186007e+003, 1.046390e-002
1.187936e+003, 1.009435e-002
1.189864e+003, 9.754357e-003
1.191792e+003, 9.534147e-003
1.193721e+003, 9.452520e-003
1.195649e+003, 9.401581e-003
1.197578e+003, 9.424912e-003
1.199506e+003, 9.405162e-003
1.201435e+003, 9.150691e-003
1.203363e+003, 8.786820e-003
1.205292e+003, 8.537566e-003
1.207220e+003, 8.490962e-003
1.209149e+003, 8.559197e-003
1.211077e+003, 8.456623e-003
1.213006e+003, 8.341542e-003
1.214934e+003, 8.272219e-003
1.216863e+003, 8.149575e-003
1.218791e+003, 7.925930e-003
1.220719e+003, 7.850348e-003
1.222648e+003, 7.984793e-003
1.224576e+003, 7.971343e-003
1.226505e+003, 7.806516e-003
1.228433e+003, 7.695258e-003
1.230362e+003, 7.604596e-003
1.232290e+003, 7.459714e-003
1.234219e+003, 7.372945e-003
1.236147e+003, 7.394985e-003
1.238076e+003, 7.432871e-003
1.240004e+003, 7.421177e-003
1.241933e+003, 7.162782e-003
1.243861e+003, 6.943485e-003
1.245790e+003, 7.016455e-003
1.247718e+003, 6.966402e-003
1.249646e+003, 6.718609e-003
1.251575e+003, 6.788410e-003
1.253503e+003, 6.835211e-003
1.255432e+003, 6.922631e-003
1.257360e+003, 6.813403e-003
1.259289e+003, 6.628683e-003
1.261217e+003, 6.652947e-003
1.263146e+003, 6.617058e-003
1.265074e+003, 6.605831e-003
1.267003e+003, 6.636966e-003
1.268931e+003, 6.623023e-003
1.270860e+003, 6.615492e-003
1.272788e+003, 6.707618e-003
1.274717e+003, 6.846315e-003
1.276645e+003, 6.670780e-003
1.278573e+003, 6.524038e-003
1.280502e+003, 6.447380e-003
1.282430e+003, 6.391583e-003
1.284359e+003, 6.559388e-003
1.286287e+003, 6.786359e-003
1.288216e+003, 6.628878e-003
1.290144e+003, 6.422556e-003
1.292073e+003, 6.472101e-003
1.294001e+003, 6.614968e-003
1.295930e+003, 6.722695e-003
1.297858e+003, 6.760914e-003
1.299787e+003, 6.806162e-003
1.301715e+003, 6.884143e-003
1.303644e+003, 6.817186e-003
1.305572e+003, 6.652714e-003
1.307500e+003, 6.703577e-003
1.309429e+003, 6.806763e-003
1.311357e+003, 6.967549e-003
1.313286e+003, 6.991322e-003
1.315214e+003, 6.903785e-003
1.317143e+003, 6.793248e-003
1.319071e+003, 6.770003e-003
1.321000e+003, 7.012118e-003
1.322928e+003, 7.138208e-003
1.324857e+003, 7.084520e-003
1.326785e+003, 7.214972e-003
1.328714e+003, 7.619016e-003
1.330642e+003, 7.878775e-003
1.332571e+003, 8.081024e-003
1.334499e+003, 8.452029e-003
1.336427e+003, 8.781185e-003
1.338356e+003, 8.948489e-003
1.340284e+003, 8.966375e-003
1.342213e+003, 8.818062e-003
1.344141e+003, 8.780814e-003
1.346070e+003, 9.005107e-003
1.347998e+003, 9.225277e-003
1.349927e+003, 9.407869e-003
1.351855e+003, 9.351701e-003
1.353784e+003, 9.326477e-003
1.355712e+003, 9.410991e-003
1.357641e+003, 9.168835e-003
1.359569e+003, 9.137444e-003
1.361498e+003, 9.149252e-003
1.363426e+003, 9.050352e-003
1.365354e+003, 8.964337e-003
1.367283e+003, 9.026084e-003
1.369211e+003, 9.159840e-003
1.371140e+003, 8.987146e-003
1.373068e+003, 8.909923e-003
1.374997e+003, 9.026844e-003
1.376925e+003, 8.900803e-003
1.378854e+003, 8.875060e-003
1.380782e+003, 8.721022e-003
1.382711e+003, 8.619535e-003
1.384639e+003, 8.860791e-003
1.386568e+003, 9.093882e-003
1.388496e+003, 9.156237e-003
1.390424e+003, 9.135271e-003
1.392353e+003, 9.185261e-003
1.394281e+003, 9.310852e-003
1.396210e+003, 9.604041e-003
1.398138e+003, 9.631659e-003
1.400067e+003, 9.535008e-003
1.401995e+003, 9.421161e-003
1.403924e+003, 9.688642e-003
1.405852e+003, 1.006140e-002
1.407781e+003, 9.859921e-003
1.409709e+003, 9.790664e-003
1.411638e+003, 9.992577e-003
1.413566e+003, 1.009380e-002
1.415495e+003, 9.813607e-003
1.417423e+003, 9.779618e-003
1.419351e+003, 1.010245e-002
1.421280e+003, 1.013753e-002
1.423208e+003, 1.016224e-002
1.425137e+003, 1.036490e-002
1.427065e+003, 1.030065e-002
1.428994e+003, 1.021048e-002
1.430922e+003, 1.014369e-002
1.432851e+003, 1.009004e-002
1.434779e+003, 1.011947e-002
1.436708e+003, 1.041011e-002
1.438636e+003, 1.048176e-002
1.440565e+003, 1.044027e-002
1.442493e+003, 1.043652e-002
1.444422e+003, 1.056446e-002
1.446350e+003, 1.058377e-002
1.448278e+003, 1.066667e-002
1.450207e+003, 1.051727e-002
1.452135e+003, 1.032926e-002
1.454064e+003, 1.025134e-002
1.455992e+003, 1.045519e-002
1.457921e+003, 1.086091e-002
1.459849e+003, 1.065286e-002
1.461778e+003, 1.057957e-002
1.463706e+003, 1.052926e-002
1.465635e+003, 1.057965e-002
1.467563e+003, 1.039818e-002
1.469492e+003, 1.039822e-002
1.471420e+003, 1.050665e-002
1.473349e+003, 1.070301e-002
1.475277e+003, 1.033057e-002
1.477205e+003, 1.026415e-002
1.479134e+003, 1.006549e-002
1.481062e+003, 9.902581e-003
1.482991e+003, 9.567311e-003
1.484919e+003, 9.174773e-003
1.486848e+003, 8.796075e-003
1.488776e+003, 8.505440e-003
1.490705e+003, 8.346678e-003
1.492633e+003, 8.007784e-003
1.494562e+003, 7.683252e-003
1.496490e+003, 7.363074e-003
1.498419e+003, 6.884381e-003
1.500347e+003, 6.859698e-003
1.502276e+003, 6.671062e-003
1.504204e+003, 6.440713e-003
1.506132e+003, 6.644418e-003
1.508061e+003, 6.597009e-003
1.509989e+003, 6.175889e-003
1.511918e+003, 5.946144e-003
1.513846e+003, 5.953595e-003
1.515775e+003, 5.994638e-003
1.517703e+003, 5.983122e-003
1.519632e+003, 5.829650e-003
1.521560e+003, 5.830407e-003
1.523489e+003, 5.378550e-003
1.525417e+003, 5.325802e-003
1.527346e+003, 5.370106e-003
1.529274e+003, 5.248134e-003
1.531203e+003, 5.193749e-003
1.533131e+003, 5.352170e-003
1.535059e+003, 5.374185e-003
1.536988e+003, 5.200518e-003
1.538916e+003, 5.195526e-003
1.540845e+003, 5.204550e-003
1.542773e+003, 5.135782e-003
1.544702e+003, 5.117336e-003
1.546630e+003, 5.167360e-003
1.548559e+003, 4.956731e-003
1.550487e+003, 5.030119e-003
1.552416e+003, 5.154129e-003
1.554344e+003, 5.376126e-003
1.556273e+003, 5.322746e-003
1.558201e+003, 5.442280e-003
1.560130e+003, 5.675041e-003
1.562058e+003, 5.405899e-003
1.563986e+003, 5.598127e-003
1.565915e+003, 6.004343e-003
1.567843e+003, 6.127832e-003
1.569772e+003, 6.388601e-003
1.571700e+003, 6.126185e-003
1.573629e+003, 6.143646e-003
1.575557e+003, 6.595157e-003
1.577486e+003, 6.993793e-003
1.579414e+003, 6.683478e-003
1.581343e+003, 6.699860e-003
1.583271e+003, 6.973393e-003
1.585200e+003, 7.088695e-003
1.587128e+003, 7.068382e-003
1.589057e+003, 7.069519e-003
1.590985e+003, 7.098169e-003
1.592913e+003, 7.081368e-003
1.594842e+003, 7.076566e-003
1.596770e+003, 7.226916e-003
1.598699e+003, 7.147249e-003
1.600627e+003, 6.971326e-003
1.602556e+003, 7.037385e-003
1.604484e+003, 7.089477e-003
1.606413e+003, 7.264426e-003
1.608341e+003, 7.220107e-003
1.610270e+003, 7.048561e-003
1.612198e+003, 7.073885e-003
1.614127e+003, 7.073069e-003
1.616055e+003, 7.123777e-003
1.617984e+003, 7.346587e-003
1.619912e+003, 6.844338e-003
1.621840e+003, 6.836392e-003
1.623769e+003, 7.032301e-003
1.625697e+003, 6.859351e-003
1.627626e+003, 6.812400e-003
1.629554e+003, 6.800688e-003
1.631483e+003, 6.834387e-003
1.633411e+003, 6.673666e-003
1.635340e+003, 6.613439e-003
1.637268e+003, 6.551310e-003
1.639197e+003, 6.340839e-003
1.641125e+003, 6.349896e-003
1.643054e+003, 6.423178e-003
1.644982e+003, 6.345265e-003
1.646911e+003, 6.681221e-003
1.648839e+003, 6.654401e-003
1.650767e+003, 6.360064e-003
1.652696e+003, 6.331962e-003
1.654624e+003, 6.390792e-003
1.656553e+003, 6.076077e-003
1.658481e+003, 5.982386e-003
1.660410e+003, 5.816325e-003
1.662338e+003, 5.834783e-003
1.664267e+003, 6.077146e-003
1.666195e+003, 5.847847e-003
1.668124e+003, 5.685664e-003
1.670052e+003, 5.997455e-003
1.671981e+003, 5.896104e-003
1.673909e+003, 5.735318e-003
1.675838e+003, 5.823890e-003
1.677766e+003, 5.566984e-003
1.679694e+003, 5.839272e-003
1.681623e+003, 5.973330e-003
1.683551e+003, 5.891953e-003
1.685480e+003, 6.160322e-003
1.687408e+003, 5.702590e-003
1.689337e+003, 5.830828e-003
1.691265e+003, 5.838612e-003
1.693194e+003, 5.439010e-003
1.695122e+003, 5.311138e-003
1.697051e+003, 5.787788e-003
1.698979e+003, 5.621728e-003
1.700908e+003, 5.981558e-003
1.702836e+003, 5.329509e-003
1.704765e+003, 5.395935e-003
1.706693e+003, 5.442340e-003
1.708621e+003, 5.273799e-003
1.710550e+003, 5.505014e-003
1.712478e+003, 5.401955e-003
1.714407e+003, 5.151337e-003
1.716335e+003, 5.059322e-003
1.718264e+003, 5.289633e-003
1.720192e+003, 5.102981e-003
1.722121e+003, 4.723276e-003
1.724049e+003, 4.648415e-003
1.725978e+003, 4.669697e-003
1.727906e+003, 4.646532e-003
1.729835e+003, 4.396562e-003
1.731763e+003, 4.140309e-003
1.733692e+003, 4.180603e-003
1.735620e+003, 4.403078e-003
1.737548e+003, 3.874331e-003
1.739477e+003, 3.829548e-003
1.741405e+003, 3.996665e-003
1.743334e+003, 4.060999e-003
1.745262e+003, 4.066755e-003
1.747191e+003, 3.947011e-003
1.749119e+003, 3.789420e-003
1.751048e+003, 3.833325e-003
1.752976e+003, 3.851217e-003
1.754905e+003, 3.747924e-003
1.756833e+003, 4.157686e-003
1.758762e+003, 4.152269e-003
1.760690e+003, 3.788655e-003
1.762619e+003, 3.806190e-003
1.764547e+003, 3.651814e-003
1.766475e+003, 3.577194e-003
1.768404e+003, 3.548188e-003
1.770332e+003, 3.483431e-003
1.772261e+003, 3.512246e-003
1.774189e+003, 3.592831e-003
1.776118e+003, 3.619647e-003
1.778046e+003, 3.559370e-003
1.779975e+003, 3.622827e-003
1.781903e+003, 3.616822e-003
1.783832e+003, 3.627324e-003
1.785760e+003, 3.580295e-003
1.787689e+003, 3.477491e-003
1.789617e+003, 3.616319e-003
1.791546e+003, 3.479571e-003
1.793474e+003, 3.732926e-003
1.795402e+003, 3.729963e-003
1.797331e+003, 3.658683e-003
1.799259e+003, 3.216636e-003
1.801188e+003, 3.109347e-003
1.803116e+003, 3.328887e-003
1.805045e+003, 3.519110e-003
1.806973e+003, 3.538475e-003
1.808902e+003, 3.554982e-003
1.810830e+003, 3.261087e-003
1.812759e+003, 3.136181e-003
1.814687e+003, 3.381974e-003
1.816616e+003, 3.278597e-003
1.818544e+003, 3.368868e-003
1.820473e+003, 3.445799e-003
1.822401e+003, 3.337068e-003
1.824329e+003, 3.280450e-003
1.826258e+003, 3.506395e-003
1.828186e+003, 3.757093e-003
1.830115e+003, 3.992791e-003
1.832043e+003, 3.446146e-003
1.833972e+003, 3.653841e-003
1.835900e+003, 4.012862e-003
1.837829e+003, 4.143980e-003
1.839757e+003, 3.743651e-003
1.841686e+003, 3.495942e-003
1.843614e+003, 3.559178e-003
1.845543e+003, 3.336190e-003
1.847471e+003, 3.279050e-003
1.849400e+003, 3.594860e-003
1.851328e+003, 3.500714e-003
1.853256e+003, 2.877074e-003
1.855185e+003, 2.817970e-003
1.857113e+003, 3.370225e-003
1.859042e+003, 3.205308e-003
1.860970e+003, 3.223917e-003
1.862899e+003, 3.186632e-003
1.864827e+003, 2.546638e-003
1.866756e+003, 2.524685e-003
1.868684e+003, 2.930753e-003
1.870613e+003, 2.721030e-003
1.872541e+003, 2.599529e-003
1.874470e+003, 2.472527e-003
1.876398e+003, 2.269591e-003
1.878327e+003, 2.608767e-003
1.880255e+003, 2.773228e-003
1.882183e+003, 2.456408e-003
1.884112e+003, 2.244384e-003
1.886040e+003, 1.811736e-003
1.887969e+003, 1.525448e-003
1.889897e+003, 2.347361e-003
1.891826e+003, 2.641460e-003
1.893754e+003, 2.541248e-003
1.895683e+003, 2.456625e-003
1.897611e+003, 2.035805e-003
1.899540e+003, 1.556324e-003
1.901468e+003, 1.750289e-003
1.903397e+003, 2.215673e-003
1.905325e+003, 2.521602e-003
1.907254e+003, 2.647436e-003
1.909182e+003, 2.105257e-003
1.911110e+003, 1.303179e-003
1.913039e+003, 1.549531e-003
1.914967e+003, 1.944469e-003
1.916896e+003, 1.473678e-003
1.918824e+003, 2.078564e-003
1.920753e+003, 2.140288e-003
1.922681e+003, 1.377253e-003
1.924610e+003, 1.197762e-003
1.926538e+003, 2.545656e-004
1.928467e+003, -9.768329e-005
1.930395e+003, 2.871352e-004
1.932324e+003, 4.900698e-004
1.934252e+003, -2.628372e-004
1.936181e+003, -1.154955e-003
1.938109e+003, -1.079081e-003
1.940037e+003, -5.382605e-004
1.941966e+003, -1.142184e-003
1.943894e+003, -2.125812e-003
1.945823e+003, -2.776249e-003
1.947751e+003, -2.794778e-003
1.949680e+003, -1.898958e-003
1.951608e+003, -2.168690e-003
1.953537e+003, -2.022857e-003
1.955465e+003, -1.355512e-003
1.957394e+003, -2.016496e-003
1.959322e+003, -3.226809e-003
1.961251e+003, -4.710992e-003
1.963179e+003, -5.075826e-003
1.965108e+003, -4.687504e-003
1.967036e+003, -3.905898e-003
1.968964e+003, -2.746755e-003
1.970893e+003, -3.424925e-003
1.972821e+003, -4.312257e-003
1.974750e+003, -3.886440e-003
1.976678e+003, -3.035225e-003
1.978607e+003, -1.046469e-003
1.980535e+003, 1.297535e-004
1.982464e+003, -6.991578e-004
1.984392e+003, -1.022520e-003
1.986321e+003, -1.195577e-003
1.988249e+003, -1.505846e-003
1.990178e+003, -1.863322e-003
1.992106e+003, -1.451247e-003
1.994035e+003, -5.997561e-004
1.995963e+003, -4.488713e-004
1.997891e+003, -5.146843e-004
1.999820e+003, -1.327074e-003
2.001748e+003, -2.063209e-003
2.003677e+003, -2.471409e-003
2.005605e+003, -3.663364e-003
2.007534e+003, -3.828155e-003
2.009462e+003, -4.471080e-003
2.011391e+003, -3.165213e-003
2.013319e+003, -2.021070e-003
2.015248e+003, -2.113602e-003
2.017176e+003, -1.456194e-003
2.019105e+003, -2.071867e-003
2.021033e+003, -3.602509e-003
2.022962e+003, -2.633463e-003
2.024890e+003, -1.797321e-003
2.026818e+003, -3.071107e-003
2.028747e+003, -3.652235e-003
2.030675e+003, -3.960439e-003
2.032604e+003, -2.847940e-003
2.034532e+003, -2.891966e-003
2.036461e+003, -2.854038e-003
2.038389e+003, -1.380531e-003
2.040318e+003, -1.339322e-003
2.042246e+003, -1.091889e-003
2.044175e+003, 3.681741e-005
2.046103e+003, 3.209781e-004
2.048032e+003, 7.886115e-004
2.049960e+003, 1.463899e-003
2.051889e+003, 1.078218e-003
2.053817e+003, 1.535401e-003
2.055746e+003, 2.135968e-003
2.057674e+003, 2.164685e-003
2.059603e+003, 2.767176e-003
2.061531e+003, 3.361000e-003
2.063459e+003, 2.522200e-003
2.065388e+003, 1.507848e-003
2.067316e+003, 1.413114e-003
2.069245e+003, 1.960063e-003
2.071173e+003, 2.174497e-003
2.073102e+003, 1.969968e-003
2.075030e+003, 2.641088e-003
2.076959e+003, 2.851915e-003
2.078887e+003, 2.433896e-003
2.080816e+003, 3.213480e-003
2.082744e+003, 3.544135e-003
2.084673e+003, 3.458987e-003
2.086601e+003, 3.766763e-003
2.088530e+003, 3.929815e-003
2.090458e+003, 3.598360e-003
2.092386e+003, 3.454043e-003
2.094315e+003, 3.660731e-003
2.096243e+003, 4.021992e-003
2.098172e+003, 4.140907e-003
2.100100e+003, 3.687691e-003
2.102029e+003, 3.636271e-003
2.103957e+003, 3.496685e-003
2.105886e+003, 2.495202e-003
2.107814e+003, 2.660097e-003
2.109743e+003, 3.370853e-003
2.111671e+003, 3.751046e-003
2.113600e+003, 3.528016e-003
2.115528e+003, 3.172753e-003
2.117457e+003, 2.918541e-003
2.119385e+003, 2.959036e-003
2.121313e+003, 2.952044e-003
2.123242e+003, 2.797971e-003
2.125170e+003, 2.633804e-003
2.127099e+003, 2.170401e-003
2.129027e+003, 1.482117e-003
2.130956e+003, 1.114774e-003
2.132884e+003, 1.393698e-003
2.134813e+003, 1.021661e-003
2.136741e+003, 4.289935e-004
2.138670e+003, 1.205465e-003
2.140598e+003, 2.301486e-004
2.142527e+003, -9.448880e-004
2.144455e+003, -4.627907e-004
2.146384e+003, -2.247370e-004
2.148312e+003, -1.144849e-003
2.150240e+003, -2.448591e-003
2.152169e+003, -2.429784e-003
2.154097e+003, -8.360375e-004
2.156026e+003, -1.343034e-003
2.157954e+003, 6.181465e-004
2.159883e+003, 5.745904e-003
2.161811e+003, 5.392312e-003
2.163740e+003, 3.626802e-003
2.165668e+003, 3.425134e-003
2.167597e+003, 3.386724e-003
2.169525e+003, 1.792624e-003
2.171454e+003, 9.751358e-004
2.173382e+003, 1.364099e-003
2.175311e+003, 2.525684e-003
2.177239e+003, 2.942388e-003
2.179167e+003, 2.029770e-003
2.181096e+003, 2.370842e-003
2.183024e+003, 4.746103e-003
2.184953e+003, 6.452549e-003
2.186881e+003, 6.908828e-003
2.188810e+003, 6.714594e-003
2.190738e+003, 5.782363e-003
2.192667e+003, 5.332951e-003
2.194595e+003, 5.890435e-003
2.196524e+003, 5.172297e-003
2.198452e+003, 5.842334e-003
2.200381e+003, 6.373950e-003
2.202309e+003, 7.697822e-003
2.204238e+003, 5.953135e-003
2.206166e+003, 4.802140e-003
2.208094e+003, 5.560642e-003
2.210023e+003, 5.891465e-003
2.211951e+003, 6.015504e-003
2.213880e+003, 7.031184e-003
2.215808e+003, 7.464637e-003
2.217737e+003, 6.295061e-003
2.219665e+003, 5.902483e-003
2.221594e+003, 7.024515e-003
2.223522e+003, 8.225985e-003
2.225451e+003, 7.686437e-003
2.227379e+003, 7.509778e-003
2.229308e+003, 7.698455e-003
2.231236e+003, 6.749332e-003
2.233165e+003, 6.635350e-003
2.235093e+003, 7.579024e-003
2.237021e+003, 7.821200e-003
2.238950e+003, 7.992754e-003
2.240878e+003, 6.594928e-003
2.242807e+003, 5.758161e-003
2.244735e+003, 6.591572e-003
2.246664e+003, 8.030783e-003
2.248592e+003, 8.081337e-003
2.250521e+003, 7.243185e-003
2.252449e+003, 6.938824e-003
2.254378e+003, 7.945015e-003
2.256306e+003, 8.598732e-003
2.258235e+003, 8.374061e-003
2.260163e+003, 7.885257e-003
2.262092e+003, 7.847627e-003
2.264020e+003, 8.039985e-003
2.265948e+003, 8.538391e-003
2.267877e+003, 8.592883e-003
2.269805e+003, 8.397067e-003
2.271734e+003, 8.298337e-003
2.273662e+003, 8.681439e-003
2.275591e+003, 8.714740e-003
2.277519e+003, 8.137673e-003
2.279448e+003, 8.310793e-003
2.281376e+003, 8.716080e-003
2.283305e+003, 8.917691e-003
2.285233e+003, 9.523493e-003
2.287162e+003, 9.450329e-003
2.289090e+003, 9.178701e-003
2.291019e+003, 9.258160e-003
2.292947e+003, 9.266654e-003
2.294875e+003, 8.764674e-003
2.296804e+003, 8.586287e-003
2.298732e+003, 8.858888e-003
2.300661e+003, 8.700295e-003
2.302589e+003, 9.015044e-003
2.304518e+003, 9.678815e-003
2.306446e+003, 9.557922e-003
2.308375e+003, 8.995305e-003
2.310303e+003, 9.003286e-003
2.312232e+003, 9.621663e-003
2.314160e+003, 9.767988e-003
2.316089e+003, 9.600371e-003
2.318017e+003, 1.017488e-002
2.319946e+003, 1.041348e-002
2.321874e+003, 1.031149e-002
2.323802e+003, 9.997778e-003
2.325731e+003, 8.938056e-003
2.327659e+003, 8.337480e-003
2.329588e+003, 8.830611e-003
2.331516e+003, 8.905074e-003
2.333445e+003, 8.385648e-003
2.335373e+003, 8.387152e-003
2.337302e+003, 9.126250e-003
2.339230e+003, 9.201964e-003
2.341159e+003, 8.564034e-003
2.343087e+003, 8.773138e-003
2.345016e+003, 8.938689e-003
2.346944e+003, 8.370777e-003
2.348873e+003, 7.933718e-003
2.350801e+003, 8.252799e-003
2.352729e+003, 8.621945e-003
2.354658e+003, 8.684748e-003
2.356586e+003, 8.689609e-003
2.358515e+003, 8.817689e-003
2.360443e+003, 8.947938e-003
2.362372e+003, 9.012897e-003
2.364300e+003, 8.758391e-003
2.366229e+003, 8.562149e-003
2.368157e+003, 9.031883e-003
2.370086e+003, 9.094341e-003
2.372014e+003, 8.859362e-003
2.373942e+003, 8.709547e-003
2.375871e+003, 8.192185e-003
2.377799e+003, 8.253239e-003
2.379728e+003, 8.672087e-003
2.381656e+003, 8.313145e-003
2.383585e+003, 8.116418e-003
2.385513e+003, 8.146862e-003
2.387442e+003, 8.217644e-003
2.389370e+003, 8.339771e-003
2.391299e+003, 8.162131e-003
2.393227e+003, 8.188390e-003
2.395156e+003, 8.025174e-003
2.397084e+003, 7.956551e-003
2.399012e+003, 8.398776e-003
2.400941e+003, 8.537204e-003
2.402869e+003, 8.218239e-003
2.404798e+003, 8.400435e-003
2.406726e+003, 8.777929e-003
2.408655e+003, 8.718804e-003
2.410583e+003, 8.220154e-003
2.412512e+003, 8.474400e-003
2.414440e+003, 8.692461e-003
2.416369e+003, 8.576388e-003
2.418297e+003, 8.150377e-003
2.420226e+003, 8.163597e-003
2.422154e+003, 8.367304e-003
2.424083e+003, 8.087772e-003
2.426011e+003, 7.967006e-003
2.427939e+003, 8.395623e-003
2.429868e+003, 8.268306e-003
2.431796e+003, 7.994822e-003
2.433725e+003, 8.460606e-003
2.435653e+003, 8.557304e-003
2.437582e+003, 8.321312e-003
2.439510e+003, 8.403305e-003
2.441439e+003, 8.742095e-003
2.443367e+003, 9.619256e-003
2.445296e+003, 9.881712e-003
2.447224e+003, 9.339820e-003
2.449153e+003, 8.928936e-003
2.451081e+003, 9.417427e-003
2.453010e+003, 9.657546e-003
2.454938e+003, 9.217014e-003
2.456866e+003, 9.289540e-003
2.458795e+003, 9.079664e-003
2.460723e+003, 9.251835e-003
2.462652e+003, 9.060158e-003
2.464580e+003, 8.971674e-003
2.466509e+003, 9.314500e-003
2.468437e+003, 9.150548e-003
2.470366e+003, 8.817638e-003
2.472294e+003, 8.775130e-003
2.474223e+003, 8.794157e-003
2.476151e+003, 9.131053e-003
2.478080e+003, 9.480254e-003
2.480008e+003, 9.410506e-003
2.481937e+003, 8.920531e-003
2.483865e+003, 8.582773e-003
2.485793e+003, 9.066134e-003
2.487722e+003, 9.391502e-003
2.489650e+003, 9.030840e-003
2.491579e+003, 9.564613e-003
2.493507e+003, 9.243844e-003
2.495436e+003, 8.718397e-003
2.497364e+003, 8.632398e-003
2.499293e+003, 8.784791e-003
2.501221e+003, 9.174491e-003
2.503150e+003, 9.179731e-003
2.505078e+003, 9.567034e-003
2.507007e+003, 9.524964e-003
2.508935e+003, 9.497038e-003
2.510864e+003, 9.740910e-003
2.512792e+003, 9.941494e-003
2.514720e+003, 9.623073e-003
2.516649e+003, 1.003628e-002
2.518577e+003, 1.005142e-002
2.520506e+003, 8.860502e-003
2.522434e+003, 8.636435e-003
2.524363e+003, 9.853926e-003
2.526291e+003, 1.001282e-002
2.528220e+003, 9.426114e-003
2.530148e+003, 9.167163e-003
2.532077e+003, 9.416055e-003
2.534005e+003, 8.880939e-003
2.535934e+003, 8.434594e-003
2.537862e+003, 9.580976e-003
2.539791e+003, 1.055533e-002
2.541719e+003, 1.049731e-002
2.543647e+003, 1.020897e-002
2.545576e+003, 9.621765e-003
2.547504e+003, 9.406248e-003
2.549433e+003, 9.464515e-003
2.551361e+003, 9.059176e-003
2.553290e+003, 9.526997e-003
2.555218e+003, 1.041536e-002
2.557147e+003, 1.040955e-002
2.559075e+003, 1.036023e-002
2.561004e+003, 1.066563e-002
2.562932e+003, 1.081107e-002
2.564861e+003, 1.030315e-002
2.566789e+003, 9.854677e-003
2.568718e+003, 1.038984e-002
2.570646e+003, 1.089560e-002
2.572574e+003, 1.052026e-002
2.574503e+003, 1.004746e-002
2.576431e+003, 9.722842e-003
2.578360e+003, 9.775074e-003
2.580288e+003, 1.033075e-002
2.582217e+003, 1.077425e-002
2.584145e+003, 1.082749e-002
2.586074e+003, 1.104508e-002
2.588002e+003, 1.152505e-002
2.589931e+003, 1.087973e-002
2.591859e+003, 1.046453e-002
2.593788e+003, 1.084032e-002
2.595716e+003, 1.076504e-002
2.597645e+003, 1.085699e-002
2.599573e+003, 1.073291e-002
2.601501e+003, 1.030100e-002
2.603430e+003, 1.089841e-002
2.605358e+003, 1.201514e-002
2.607287e+003, 1.202983e-002
2.609215e+003, 1.140054e-002
2.611144e+003, 1.132492e-002
2.613072e+003, 1.127110e-002
2.615001e+003, 1.079005e-002
2.616929e+003, 1.030609e-002
2.618858e+003, 1.092148e-002
2.620786e+003, 1.164682e-002
2.622715e+003, 1.162927e-002
2.624643e+003, 1.108113e-002
2.626572e+003, 1.086429e-002
2.628500e+003, 1.128762e-002
2.630428e+003, 1.139393e-002
2.632357e+003, 1.111380e-002
2.634285e+003, 1.104762e-002
2.636214e+003, 1.128742e-002
2.638142e+003, 1.092984e-002
2.640071e+003, 1.111640e-002
2.641999e+003, 1.198171e-002
2.643928e+003, 1.220595e-002
2.645856e+003, 1.141331e-002
2.647785e+003, 1.109598e-002
2.649713e+003, 1.126870e-002
2.651642e+003, 1.109697e-002
2.653570e+003, 1.087641e-002
2.655499e+003, 1.061954e-002
2.657427e+003, 1.088773e-002
2.659355e+003, 1.138746e-002
2.661284e+003, 1.144624e-002
2.663212e+003, 1.116799e-002
2.665141e+003, 1.041684e-002
2.667069e+003, 1.012559e-002
2.668998e+003, 1.050641e-002
2.670926e+003, 1.093205e-002
2.672855e+003, 1.069762e-002
2.674783e+003, 1.063720e-002
2.676712e+003, 1.070678e-002
2.678640e+003, 1.072295e-002
2.680569e+003, 1.051002e-002
2.682497e+003, 1.018928e-002
2.684426e+003, 1.058103e-002
2.686354e+003, 1.080721e-002
2.688282e+003, 1.082759e-002
2.690211e+003, 1.099805e-002
2.692139e+003, 1.135164e-002
2.694068e+003, 1.103798e-002
2.695996e+003, 1.095964e-002
2.697925e+003, 1.140451e-002
2.699853e+003, 1.155860e-002
2.701782e+003, 1.144326e-002
2.703710e+003, 1.108845e-002
2.705639e+003, 1.097274e-002
2.707567e+003, 1.139305e-002
2.709496e+003, 1.197481e-002
2.711424e+003, 1.176658e-002
2.713353e+003, 1.149741e-002
2.715281e+003, 1.122683e-002
2.717209e+003, 1.151326e-002
2.719138e+003, 1.199012e-002
2.721066e+003, 1.136926e-002
2.722995e+003, 1.097136e-002
2.724923e+003, 1.128498e-002
2.726852e+003, 1.142872e-002
2.728780e+003, 1.119802e-002
2.730709e+003, 1.128960e-002
2.732637e+003, 1.148268e-002
2.734566e+003, 1.133003e-002
2.736494e+003, 1.130024e-002
2.738423e+003, 1.132737e-002
2.740351e+003, 1.104974e-002
2.742280e+003, 1.046211e-002
2.744208e+003, 1.075937e-002
2.746136e+003, 1.157274e-002
2.748065e+003, 1.166589e-002
2.749993e+003, 1.139580e-002
2.751922e+003, 1.128742e-002
2.753850e+003, 1.134580e-002
2.755779e+003, 1.137147e-002
2.757707e+003, 1.166548e-002
2.759636e+003, 1.131765e-002
2.761564e+003, 1.109869e-002
2.763493e+003, 1.187749e-002
2.765421e+003, 1.184713e-002
2.767350e+003, 1.125241e-002
2.769278e+003, 1.121457e-002
2.771207e+003, 1.179069e-002
2.773135e+003, 1.209136e-002
2.775063e+003, 1.187029e-002
2.776992e+003, 1.155927e-002
2.778920e+003, 1.123675e-002
2.780849e+003, 1.122763e-002
2.782777e+003, 1.120370e-002
2.784706e+003, 1.126985e-002
2.786634e+003, 1.175606e-002
2.788563e+003, 1.211648e-002
2.790491e+003, 1.116299e-002
2.792420e+003, 1.110971e-002
2.794348e+003, 1.157045e-002
2.796277e+003, 1.173397e-002
2.798205e+003, 1.175743e-002
2.800134e+003, 1.178550e-002
2.802062e+003, 1.159222e-002
2.803990e+003, 1.105467e-002
2.805919e+003, 1.087073e-002
2.807847e+003, 1.112202e-002
2.809776e+003, 1.129852e-002
2.811704e+003, 1.164671e-002
2.813633e+003, 1.207524e-002
2.815561e+003, 1.222473e-002
2.817490e+003, 1.202870e-002
2.819418e+003, 1.196348e-002
2.821347e+003, 1.172006e-002
2.823275e+003, 1.187617e-002
2.825204e+003, 1.193750e-002
2.827132e+003, 1.217397e-002
2.829061e+003, 1.246612e-002
2.830989e+003, 1.217638e-002
2.832917e+003, 1.224865e-002
2.834846e+003, 1.235681e-002
2.836774e+003, 1.253032e-002
2.838703e+003, 1.279177e-002
2.840631e+003, 1.217449e-002
2.842560e+003, 1.152355e-002
2.844488e+003, 1.180104e-002
2.846417e+003, 1.226857e-002
2.848345e+003, 1.201136e-002
2.850274e+003, 1.226996e-002
2.852202e+003, 1.221272e-002
2.854131e+003, 1.164247e-002
2.856059e+003, 1.189990e-002
2.857988e+003, 1.252836e-002
2.859916e+003, 1.219562e-002
2.861844e+003, 1.262356e-002
2.863773e+003, 1.344663e-002
2.865701e+003, 1.356465e-002
2.867630e+003, 1.270691e-002
2.869558e+003, 1.191914e-002
2.871487e+003, 1.213425e-002
2.873415e+003, 1.270321e-002
2.875344e+003, 1.273578e-002
2.877272e+003, 1.256516e-002
2.879201e+003, 1.263876e-002
2.881129e+003, 1.239952e-002
2.883058e+003, 1.212049e-002
2.884986e+003, 1.240969e-002
2.886915e+003, 1.246381e-002
2.888843e+003, 1.226067e-002
2.890771e+003, 1.261598e-002
2.892700e+003, 1.290543e-002
2.894628e+003, 1.240543e-002
2.896557e+003, 1.254763e-002
2.898485e+003, 1.245029e-002
2.900414e+003, 1.174893e-002
2.902342e+003, 1.146906e-002
2.904271e+003, 1.214214e-002
2.906199e+003, 1.234316e-002
2.908128e+003, 1.263560e-002
2.910056e+003, 1.260370e-002
2.911985e+003, 1.273469e-002
2.913913e+003, 1.331279e-002
2.915842e+003, 1.242244e-002
2.917770e+003, 1.187278e-002
2.919698e+003, 1.257438e-002
2.921627e+003, 1.309018e-002
2.923555e+003, 1.279170e-002
2.925484e+003, 1.297348e-002
2.927412e+003, 1.324010e-002
2.929341e+003, 1.257551e-002
2.931269e+003, 1.185327e-002
2.933198e+003, 1.215774e-002
2.935126e+003, 1.298581e-002
2.937055e+003, 1.297098e-002
2.938983e+003, 1.246689e-002
2.940912e+003, 1.214579e-002
2.942840e+003, 1.246345e-002
2.944769e+003, 1.280283e-002
2.946697e+003, 1.261640e-002
2.948625e+003, 1.195333e-002
2.950554e+003, 1.257177e-002
2.952482e+003, 1.321310e-002
2.954411e+003, 1.297658e-002
2.956339e+003, 1.293414e-002
2.958268e+003, 1.276847e-002
2.960196e+003, 1.264865e-002
2.962125e+003, 1.292863e-002
2.964053e+003, 1.346067e-002
2.965982e+003, 1.397674e-002
2.967910e+003, 1.362853e-002
2.969839e+003, 1.313362e-002
2.971767e+003, 1.350865e-002
2.973696e+003, 1.340103e-002
2.975624e+003, 1.339039e-002
2.977552e+003, 1.392463e-002
2.979481e+003, 1.388536e-002
2.981409e+003, 1.349898e-002
2.983338e+003, 1.310210e-002
2.985266e+003, 1.299714e-002
2.987195e+003, 1.295505e-002
2.989123e+003, 1.322077e-002
2.991052e+003, 1.302199e-002
2.992980e+003, 1.300290e-002
2.994909e+003, 1.374648e-002
2.996837e+003, 1.464377e-002
2.998766e+003, 1.472630e-002
3.000694e+003, 1.385296e-002
3.002623e+003, 1.314176e-002
3.004551e+003, 1.367485e-002
3.006479e+003, 1.353969e-002
3.008408e+003, 1.359882e-002
3.010336e+003, 1.424676e-002
3.012265e+003, 1.451757e-002
3.014193e+003, 1.428973e-002
3.016122e+003, 1.421016e-002
3.018050e+003, 1.390702e-002
3.019979e+003, 1.341614e-002
3.021907e+003, 1.328839e-002
3.023836e+003, 1.397556e-002
3.025764e+003, 1.401102e-002
3.027693e+003, 1.440921e-002
3.029621e+003, 1.444006e-002
3.031550e+003, 1.453471e-002
3.033478e+003, 1.458467e-002
3.035406e+003, 1.486579e-002
3.037335e+003, 1.527855e-002
3.039263e+003, 1.505606e-002
3.041192e+003, 1.408024e-002
3.043120e+003, 1.409900e-002
3.045049e+003, 1.386835e-002
3.046977e+003, 1.303948e-002
3.048906e+003, 1.360844e-002
3.050834e+003, 1.395409e-002
3.052763e+003, 1.415526e-002
3.054691e+003, 1.517068e-002
3.056620e+003, 1.545758e-002
3.058548e+003, 1.468102e-002
3.060477e+003, 1.437977e-002
3.062405e+003, 1.464150e-002
3.064333e+003, 1.458652e-002
3.066262e+003, 1.475267e-002
3.068190e+003, 1.526778e-002
3.070119e+003, 1.496383e-002
3.072047e+003, 1.432679e-002
3.073976e+003, 1.389229e-002
3.075904e+003, 1.409134e-002
3.077833e+003, 1.466835e-002
3.079761e+003, 1.509434e-002
3.081690e+003, 1.579338e-002
3.083618e+003, 1.554757e-002
3.085547e+003, 1.458209e-002
3.087475e+003, 1.414930e-002
3.089404e+003, 1.471550e-002
3.091332e+003, 1.487432e-002
3.093260e+003, 1.444189e-002
3.095189e+003, 1.473810e-002
3.097117e+003, 1.473222e-002
3.099046e+003, 1.424375e-002
3.100974e+003, 1.459885e-002
3.102903e+003, 1.547157e-002
3.104831e+003, 1.550637e-002
3.106760e+003, 1.548555e-002
3.108688e+003, 1.511256e-002
3.110617e+003, 1.481071e-002
3.112545e+003, 1.472526e-002
3.114474e+003, 1.560245e-002
3.116402e+003, 1.604710e-002
3.118331e+003, 1.495578e-002
3.120259e+003, 1.375989e-002
3.122188e+003, 1.403839e-002
3.124116e+003, 1.460058e-002
3.126044e+003, 1.444309e-002
3.127973e+003, 1.555040e-002
3.129901e+003, 1.638000e-002
3.131830e+003, 1.560546e-002
3.133758e+003, 1.479894e-002
3.135687e+003, 1.521950e-002
3.137615e+003, 1.572458e-002
3.139544e+003, 1.573769e-002
3.141472e+003, 1.508092e-002
3.143401e+003, 1.518391e-002
3.145329e+003, 1.529801e-002
3.147258e+003, 1.576913e-002
3.149186e+003, 1.592590e-002
3.151115e+003, 1.599744e-002
3.153043e+003, 1.561168e-002
3.154971e+003, 1.498231e-002
3.156900e+003, 1.465587e-002
3.158828e+003, 1.516958e-002
3.160757e+003, 1.593196e-002
3.162685e+003, 1.616794e-002
3.164614e+003, 1.600379e-002
3.166542e+003, 1.473715e-002
3.168471e+003, 1.473502e-002
3.170399e+003, 1.581601e-002
3.172328e+003, 1.575337e-002
3.174256e+003, 1.646452e-002
3.176185e+003, 1.639791e-002
3.178113e+003, 1.583100e-002
3.180042e+003, 1.622757e-002
3.181970e+003, 1.642360e-002
3.183898e+003, 1.712891e-002
3.185827e+003, 1.694588e-002
3.187755e+003, 1.578600e-002
3.189684e+003, 1.629807e-002
3.191612e+003, 1.751582e-002
3.193541e+003, 1.733125e-002
3.195469e+003, 1.741636e-002
3.197398e+003, 1.712961e-002
3.199326e+003, 1.566878e-002
3.201255e+003, 1.528883e-002
3.203183e+003, 1.571912e-002
3.205112e+003, 1.614976e-002
3.207040e+003, 1.636861e-002
3.208969e+003, 1.767333e-002
3.210897e+003, 1.778828e-002
3.212825e+003, 1.656438e-002
3.214754e+003, 1.694841e-002
3.216682e+003, 1.623220e-002
3.218611e+003, 1.597852e-002
3.220539e+003, 1.766898e-002
3.222468e+003, 1.708761e-002
3.224396e+003, 1.591817e-002
3.226325e+003, 1.584146e-002
3.228253e+003, 1.569706e-002
3.230182e+003, 1.683607e-002
3.232110e+003, 1.737158e-002
3.234039e+003, 1.587747e-002
3.235967e+003, 1.484345e-002
3.237896e+003, 1.577354e-002
3.239824e+003, 1.650756e-002
3.241752e+003, 1.601339e-002
3.243681e+003, 1.616288e-002
3.245609e+003, 1.732963e-002
3.247538e+003, 1.734290e-002
3.249466e+003, 1.695983e-002
3.251395e+003, 1.777663e-002
3.253323e+003, 1.824202e-002
3.255252e+003, 1.773970e-002
3.257180e+003, 1.824450e-002
3.259109e+003, 1.880761e-002
3.261037e+003, 1.778033e-002
3.262966e+003, 1.692951e-002
3.264894e+003, 1.742100e-002
3.266823e+003, 1.628574e-002
3.268751e+003, 1.606440e-002
3.270679e+003, 1.638397e-002
3.272608e+003, 1.665653e-002
3.274536e+003, 1.707666e-002
3.276465e+003, 1.667818e-002
3.278393e+003, 1.700190e-002
3.280322e+003, 1.732844e-002
3.282250e+003, 1.757548e-002
3.284179e+003, 1.759741e-002
3.286107e+003, 1.644194e-002
3.288036e+003, 1.659346e-002
3.289964e+003, 1.787652e-002
3.291893e+003, 1.912582e-002
3.293821e+003, 1.910999e-002
3.295750e+003, 1.806189e-002
3.297678e+003, 1.779400e-002
3.299606e+003, 1.828888e-002
3.301535e+003, 1.857920e-002
3.303463e+003, 1.840975e-002
3.305392e+003, 1.740197e-002
3.307320e+003, 1.720198e-002
3.309249e+003, 1.691120e-002
3.311177e+003, 1.733669e-002
3.313106e+003, 1.733133e-002
3.315034e+003, 1.692902e-002
3.316963e+003, 1.698915e-002
3.318891e+003, 1.673098e-002
3.320820e+003, 1.649667e-002
3.322748e+003, 1.692222e-002
3.324677e+003, 1.860340e-002
3.326605e+003, 1.850371e-002
3.328533e+003, 1.698642e-002
3.330462e+003, 1.646047e-002
3.332390e+003, 1.747385e-002
3.334319e+003, 1.758616e-002
3.336247e+003, 1.739138e-002
3.338176e+003, 1.757248e-002
3.340104e+003, 1.733148e-002
3.342033e+003, 1.695873e-002
3.343961e+003, 1.820653e-002
3.345890e+003, 1.883493e-002
3.347818e+003, 1.700280e-002
3.349747e+003, 1.694760e-002
3.351675e+003, 1.717533e-002
3.353604e+003, 1.760303e-002
3.355532e+003, 1.828900e-002
3.357460e+003, 1.870135e-002
3.359389e+003, 1.817197e-002
3.361317e+003, 1.724015e-002
3.363246e+003, 1.756114e-002
3.365174e+003, 1.816606e-002
3.367103e+003, 1.797526e-002
3.369031e+003, 1.829596e-002
3.370960e+003, 1.762117e-002
3.372888e+003, 1.754672e-002
3.374817e+003, 1.852211e-002
3.376745e+003, 1.978381e-002
3.378674e+003, 1.938420e-002
3.380602e+003, 1.762643e-002
3.382531e+003, 1.725739e-002
3.384459e+003, 1.705331e-002
3.386387e+003, 1.775041e-002
3.388316e+003, 1.882947e-002
3.390244e+003, 1.826310e-002
3.392173e+003, 1.741657e-002
3.394101e+003, 1.738152e-002
3.396030e+003, 1.823932e-002
3.397958e+003, 1.911005e-002
3.399887e+003, 1.833677e-002
3.401815e+003, 1.747980e-002
3.403744e+003, 1.822529e-002
3.405672e+003, 1.911963e-002
3.407601e+003, 1.835114e-002
3.409529e+003, 1.764201e-002
3.411458e+003, 1.843309e-002
3.413386e+003, 1.814943e-002
3.415314e+003, 1.657753e-002
3.417243e+003, 1.738056e-002
3.419171e+003, 1.875310e-002
3.421100e+003, 1.994701e-002
3.423028e+003, 1.902825e-002
3.424957e+003, 1.844383e-002
3.426885e+003, 1.804279e-002
3.428814e+003, 1.802772e-002
3.430742e+003, 1.830563e-002
3.432671e+003, 1.906083e-002
3.434599e+003, 1.894362e-002
3.436528e+003, 1.911617e-002
3.438456e+003, 1.868584e-002
3.440385e+003, 1.780119e-002
3.442313e+003, 1.822572e-002
3.444241e+003, 1.878444e-002
3.446170e+003, 1.864207e-002
3.448098e+003, 1.839919e-002
3.450027e+003, 1.832463e-002
3.451955e+003, 1.723185e-002
3.453884e+003, 1.712917e-002
3.455812e+003, 1.798820e-002
3.457741e+003, 1.828749e-002
3.459669e+003, 1.882452e-002
3.461598e+003, 1.923980e-002
3.463526e+003, 1.864607e-002
3.465455e+003, 1.855193e-002
3.467383e+003, 1.905774e-002
3.469312e+003, 1.916255e-002
3.471240e+003, 1.866455e-002
3.473168e+003, 1.877218e-002
3.475097e+003, 1.893800e-002
3.477025e+003, 1.790730e-002
3.478954e+003, 1.727230e-002
3.480882e+003, 1.845238e-002
3.482811e+003, 1.954650e-002
3.484739e+003, 1.982888e-002
3.486668e+003, 1.930079e-002
3.488596e+003, 1.881147e-002
3.490525e+003, 2.001867e-002
3.492453e+003, 2.033211e-002
3.494382e+003, 2.002324e-002
3.496310e+003, 1.881860e-002
3.498239e+003, 1.889689e-002
3.500167e+003, 1.913726e-002
3.502095e+003, 1.859600e-002
3.504024e+003, 1.926751e-002
3.505952e+003, 1.907973e-002
3.507881e+003, 1.961963e-002
3.509809e+003, 2.025333e-002
3.511738e+003, 2.037203e-002
3.513666e+003, 2.093373e-002
3.515595e+003, 2.021727e-002
3.517523e+003, 1.995710e-002
3.519452e+003, 2.006455e-002
3.521380e+003, 1.923626e-002
3.523309e+003, 1.807208e-002
3.525237e+003, 1.809166e-002
3.527166e+003, 1.873698e-002
3.529094e+003, 1.817219e-002
3.531022e+003, 1.767910e-002
3.532951e+003, 1.730028e-002
3.534879e+003, 1.804015e-002
3.536808e+003, 1.933333e-002
3.538736e+003, 1.971072e-002
3.540665e+003, 1.976698e-002
3.542593e+003, 1.882296e-002
3.544522e+003, 1.813068e-002
3.546450e+003, 1.915427e-002
3.548379e+003, 2.010661e-002
3.550307e+003, 1.866215e-002
3.552236e+003, 1.850981e-002
3.554164e+003, 1.903406e-002
3.556093e+003, 1.930916e-002
3.558021e+003, 2.002018e-002
3.559949e+003, 1.851858e-002
3.561878e+003, 1.631481e-002
3.563806e+003, 1.735139e-002
3.565735e+003, 1.875369e-002
3.567663e+003, 1.765316e-002
3.569592e+003, 1.750697e-002
3.571520e+003, 1.815098e-002
3.573449e+003, 1.787605e-002
3.575377e+003, 1.741436e-002
3.577306e+003, 1.694848e-002
3.579234e+003, 1.679486e-002
3.581163e+003, 1.644337e-002
3.583091e+003, 1.641784e-002
3.585020e+003, 1.820802e-002
3.586948e+003, 1.983065e-002
3.588876e+003, 1.862926e-002
3.590805e+003, 1.891581e-002
3.592733e+003, 2.024178e-002
3.594662e+003, 1.970625e-002
3.596590e+003, 1.973739e-002
3.598519e+003, 2.100229e-002
3.600447e+003, 1.982813e-002
3.602376e+003, 1.727732e-002
3.604304e+003, 1.790841e-002
3.606233e+003, 1.907455e-002
3.608161e+003, 1.842451e-002
3.610090e+003, 1.720782e-002
3.612018e+003, 1.704101e-002
3.613947e+003, 1.689689e-002
3.615875e+003, 1.764672e-002
3.617803e+003, 1.682883e-002
3.619732e+003, 1.644583e-002
3.621660e+003, 1.765302e-002
3.623589e+003, 1.814624e-002
3.625517e+003, 1.795885e-002
3.627446e+003, 1.806872e-002
3.629374e+003, 1.741114e-002
3.631303e+003, 1.901910e-002
3.633231e+003, 2.027205e-002
3.635160e+003, 1.947911e-002
3.637088e+003, 1.871094e-002
3.639017e+003, 1.850748e-002
3.640945e+003, 1.806385e-002
3.642874e+003, 1.646597e-002
3.644802e+003, 1.617409e-002
3.646730e+003, 1.555506e-002
3.648659e+003, 1.461927e-002
3.650587e+003, 1.607643e-002
3.652516e+003, 1.855077e-002
3.654444e+003, 1.918510e-002
3.656373e+003, 1.934543e-002
3.658301e+003, 1.820713e-002
3.660230e+003, 1.610644e-002
3.662158e+003, 1.585099e-002
3.664087e+003, 1.717589e-002
3.666015e+003, 1.793453e-002
3.667944e+003, 1.680026e-002
3.669872e+003, 1.579807e-002
3.671801e+003, 1.786776e-002
3.673729e+003, 1.783574e-002
3.675657e+003, 1.484774e-002
3.677586e+003, 1.541595e-002
3.679514e+003, 1.609830e-002
3.681443e+003, 1.700489e-002
3.683371e+003, 1.750771e-002
3.685300e+003, 1.652909e-002
3.687228e+003, 1.615564e-002
3.689157e+003, 1.580024e-002
3.691085e+003, 1.667308e-002
3.693014e+003, 1.719808e-002
3.694942e+003, 1.808910e-002
3.696871e+003, 1.754130e-002
3.698799e+003, 1.610685e-002
3.700728e+003, 1.572670e-002
3.702656e+003, 1.635790e-002
3.704584e+003, 1.566454e-002
3.706513e+003, 1.642567e-002
3.708441e+003, 1.787196e-002
3.710370e+003, 1.657414e-002
3.712298e+003, 1.701745e-002
3.714227e+003, 1.806823e-002
3.716155e+003, 1.622506e-002
3.718084e+003, 1.674381e-002
3.720012e+003, 1.781116e-002
3.721941e+003, 1.650794e-002
3.723869e+003, 1.518095e-002
3.725798e+003, 1.504035e-002
3.727726e+003, 1.664881e-002
3.729655e+003, 1.742574e-002
3.731583e+003, 1.517070e-002
3.733511e+003, 1.420826e-002
3.735440e+003, 1.546398e-002
3.737368e+003, 1.633830e-002
3.739297e+003, 1.651061e-002
3.741225e+003, 1.564770e-002
3.743154e+003, 1.681171e-002
3.745082e+003, 1.628450e-002
3.747011e+003, 1.802469e-002
3.748939e+003, 1.830553e-002
3.750868e+003, 1.939710e-002
3.752796e+003, 1.923076e-002
3.754725e+003, 1.848942e-002
3.756653e+003, 1.656297e-002
3.758582e+003, 1.661584e-002
3.760510e+003, 1.700897e-002
3.762438e+003, 1.689625e-002
3.764367e+003, 1.715139e-002
3.766295e+003, 1.753334e-002
3.768224e+003, 1.720539e-002
3.770152e+003, 1.617731e-002
3.772081e+003, 1.510852e-002
3.774009e+003, 1.487880e-002
3.775938e+003, 1.703571e-002
3.777866e+003, 1.865434e-002
3.779795e+003, 1.963633e-002
3.781723e+003, 1.881456e-002
3.783652e+003, 1.669720e-002
3.785580e+003, 1.685345e-002
3.787509e+003, 1.862306e-002
3.789437e+003, 1.837346e-002
3.791365e+003, 1.694240e-002
3.793294e+003, 1.661106e-002
3.795222e+003, 1.714000e-002
3.797151e+003, 1.651893e-002
3.799079e+003, 1.725091e-002
3.801008e+003, 1.697718e-002
3.802936e+003, 1.679876e-002
3.804865e+003, 1.758368e-002
3.806793e+003, 1.661486e-002
3.808722e+003, 1.678747e-002
3.810650e+003, 1.837770e-002
3.812579e+003, 1.886634e-002
3.814507e+003, 1.766378e-002
3.816436e+003, 1.663132e-002
3.818364e+003, 1.931407e-002
3.820292e+003, 2.087956e-002
3.822221e+003, 1.947659e-002
3.824149e+003, 1.826565e-002
3.826078e+003, 1.818919e-002
3.828006e+003, 1.825386e-002
3.829935e+003, 1.747916e-002
3.831863e+003, 1.679418e-002
3.833792e+003, 1.610241e-002
3.835720e+003, 1.585847e-002
3.837649e+003, 1.726896e-002
3.839577e+003, 1.776838e-002
3.841506e+003, 1.743504e-002
3.843434e+003, 1.625669e-002
3.845363e+003, 1.665747e-002
3.847291e+003, 1.763745e-002
3.849219e+003, 1.709490e-002
3.851148e+003, 1.661717e-002
3.853076e+003, 1.713610e-002
3.855005e+003, 1.606697e-002
3.856933e+003, 1.722737e-002
3.858862e+003, 1.830333e-002
3.860790e+003, 1.913347e-002
3.862719e+003, 1.934243e-002
3.864647e+003, 1.863956e-002
3.866576e+003, 1.811665e-002
3.868504e+003, 1.999206e-002
3.870433e+003, 1.890172e-002
3.872361e+003, 1.721490e-002
3.874290e+003, 1.759574e-002
3.876218e+003, 1.838074e-002
3.878146e+003, 1.912381e-002
3.880075e+003, 2.002079e-002
3.882003e+003, 1.875749e-002
3.883932e+003, 1.848281e-002
3.885860e+003, 1.825095e-002
3.887789e+003, 1.795596e-002
3.889717e+003, 1.897378e-002
3.891646e+003, 1.943449e-002
3.893574e+003, 1.881066e-002
3.895503e+003, 1.928336e-002
3.897431e+003, 1.916489e-002
3.899360e+003, 1.715189e-002
3.901288e+003, 1.679170e-002
3.903217e+003, 1.778863e-002
3.905145e+003, 1.845577e-002
3.907073e+003, 1.797634e-002
3.909002e+003, 1.794469e-002
3.910930e+003, 1.909425e-002
3.912859e+003, 1.939048e-002
3.914787e+003, 1.755806e-002
3.916716e+003, 1.683354e-002
3.918644e+003, 1.765367e-002
3.920573e+003, 1.808962e-002
3.922501e+003, 1.816511e-002
3.924430e+003, 1.927659e-002
3.926358e+003, 2.119702e-002
3.928287e+003, 2.130842e-002
3.930215e+003, 2.115286e-002
3.932144e+003, 1.942235e-002
3.934072e+003, 1.739331e-002
3.936000e+003, 1.735262e-002
3.937929e+003, 1.746124e-002
3.939857e+003, 1.786001e-002
3.941786e+003, 1.926680e-002
3.943714e+003, 1.939187e-002
3.945643e+003, 1.960453e-002
3.947571e+003, 1.996457e-002
3.949500e+003, 1.959851e-002
3.951428e+003, 1.896673e-002
3.953357e+003, 1.901059e-002
3.955285e+003, 1.812817e-002
3.957214e+003, 1.747884e-002
3.959142e+003, 1.708812e-002
3.961071e+003, 1.662658e-002
3.962999e+003, 1.716075e-002
3.964927e+003, 1.844188e-002
3.966856e+003, 1.791942e-002
3.968784e+003, 1.795046e-002
3.970713e+003, 1.843812e-002
3.972641e+003, 1.912128e-002
3.974570e+003, 1.774640e-002
3.976498e+003, 1.789743e-002
3.978427e+003, 1.985520e-002
3.980355e+003, 1.957597e-002
3.982284e+003, 1.779335e-002
3.984212e+003, 1.841633e-002
3.986141e+003, 1.895830e-002
3.988069e+003, 1.826403e-002
3.989998e+003, 1.740379e-002
3.991926e+003, 1.867066e-002
3.993854e+003, 1.978271e-002
3.995783e+003, 1.941522e-002
3.997711e+003, 1.921404e-002
3.999640e+003, 1.922530e-002
##END=



