##NAMES=Pumpellyite-(Mg)
##RRUFFID=R070130
##IDEAL CHEMISTRY=Ca_2_MgAl_2_(SiO_4_)(Si_2_O_7_)(OH)_2_&#183;H_2_O
##LOCALITY=Isle Royale National Park, Lake Superior,  Keweenaw County, Michigan, USA
##OWNER=RRUFF
##SOURCE=Michael Scott
##DESCRIPTION=Green waterworn massive pebble
##STATUS=The identification of this mineral has been made only by X-ray diffraction.
##URL=rruff.info/R070130
3.991926e+002, 2.774922e-001
4.011211e+002, 2.779638e-001
4.030495e+002, 2.661451e-001
4.049780e+002, 2.637734e-001
4.069065e+002, 2.734494e-001
4.088349e+002, 2.723852e-001
4.107634e+002, 2.719346e-001
4.126919e+002, 2.758473e-001
4.146203e+002, 2.799121e-001
4.165488e+002, 2.830219e-001
4.184773e+002, 2.865275e-001
4.204057e+002, 2.874506e-001
4.223342e+002, 2.864946e-001
4.242627e+002, 2.904147e-001
4.261911e+002, 2.990967e-001
4.281196e+002, 3.049574e-001
4.300481e+002, 3.094499e-001
4.319765e+002, 3.130907e-001
4.339050e+002, 3.199957e-001
4.358335e+002, 3.262734e-001
4.377619e+002, 3.249038e-001
4.396904e+002, 3.212304e-001
4.416189e+002, 3.172547e-001
4.435473e+002, 3.108117e-001
4.454758e+002, 3.018678e-001
4.474043e+002, 2.941348e-001
4.493327e+002, 2.884991e-001
4.512612e+002, 2.838866e-001
4.531897e+002, 2.798938e-001
4.551181e+002, 2.770029e-001
4.570466e+002, 2.735295e-001
4.589751e+002, 2.690220e-001
4.609035e+002, 2.653918e-001
4.628320e+002, 2.618603e-001
4.647605e+002, 2.562634e-001
4.666889e+002, 2.501639e-001
4.686174e+002, 2.443826e-001
4.705459e+002, 2.376673e-001
4.724743e+002, 2.314943e-001
4.744028e+002, 2.261107e-001
4.763313e+002, 2.205413e-001
4.782597e+002, 2.162203e-001
4.801882e+002, 2.131690e-001
4.821167e+002, 2.101474e-001
4.840451e+002, 2.057053e-001
4.859736e+002, 2.015876e-001
4.879021e+002, 1.984410e-001
4.898305e+002, 1.950185e-001
4.917590e+002, 1.914777e-001
4.936875e+002, 1.880454e-001
4.956159e+002, 1.843522e-001
4.975444e+002, 1.807892e-001
4.994729e+002, 1.770204e-001
5.014013e+002, 1.736763e-001
5.033298e+002, 1.701707e-001
5.052583e+002, 1.674506e-001
5.071867e+002, 1.661447e-001
5.091152e+002, 1.648013e-001
5.110437e+002, 1.649245e-001
5.129721e+002, 1.654564e-001
5.149006e+002, 1.655650e-001
5.168290e+002, 1.650078e-001
5.187575e+002, 1.634140e-001
5.206860e+002, 1.618716e-001
5.226144e+002, 1.608149e-001
5.245429e+002, 1.605325e-001
5.264714e+002, 1.602160e-001
5.283998e+002, 1.601807e-001
5.303283e+002, 1.611100e-001
5.322568e+002, 1.616170e-001
5.341852e+002, 1.624364e-001
5.361137e+002, 1.630649e-001
5.380422e+002, 1.635500e-001
5.399706e+002, 1.643848e-001
5.418991e+002, 1.636484e-001
5.438276e+002, 1.611293e-001
5.457560e+002, 1.585019e-001
5.476845e+002, 1.554510e-001
5.496130e+002, 1.512938e-001
5.515414e+002, 1.471487e-001
5.534699e+002, 1.427517e-001
5.553984e+002, 1.382760e-001
5.573268e+002, 1.343161e-001
5.592553e+002, 1.308605e-001
5.611838e+002, 1.286221e-001
5.631122e+002, 1.273951e-001
5.650407e+002, 1.268394e-001
5.669692e+002, 1.272230e-001
5.688976e+002, 1.283473e-001
5.708261e+002, 1.304497e-001
5.727546e+002, 1.323292e-001
5.746830e+002, 1.340827e-001
5.766115e+002, 1.359634e-001
5.785400e+002, 1.385452e-001
5.804684e+002, 1.414624e-001
5.823969e+002, 1.449546e-001
5.843254e+002, 1.483208e-001
5.862538e+002, 1.520830e-001
5.881823e+002, 1.554200e-001
5.901108e+002, 1.584685e-001
5.920392e+002, 1.622064e-001
5.939677e+002, 1.660967e-001
5.958962e+002, 1.690465e-001
5.978246e+002, 1.714925e-001
5.997531e+002, 1.739646e-001
6.016816e+002, 1.760027e-001
6.036100e+002, 1.768175e-001
6.055385e+002, 1.770457e-001
6.074670e+002, 1.768619e-001
6.093954e+002, 1.751014e-001
6.113239e+002, 1.721146e-001
6.132524e+002, 1.685960e-001
6.151808e+002, 1.652073e-001
6.171093e+002, 1.617592e-001
6.190378e+002, 1.584583e-001
6.209662e+002, 1.557709e-001
6.228947e+002, 1.540412e-001
6.248232e+002, 1.527862e-001
6.267516e+002, 1.522813e-001
6.286801e+002, 1.530382e-001
6.306086e+002, 1.544463e-001
6.325370e+002, 1.558494e-001
6.344655e+002, 1.576917e-001
6.363940e+002, 1.597656e-001
6.383224e+002, 1.613931e-001
6.402509e+002, 1.626120e-001
6.421794e+002, 1.633861e-001
6.441078e+002, 1.640429e-001
6.460363e+002, 1.640355e-001
6.479648e+002, 1.631127e-001
6.498932e+002, 1.616746e-001
6.518217e+002, 1.596234e-001
6.537502e+002, 1.569058e-001
6.556786e+002, 1.537384e-001
6.576071e+002, 1.498853e-001
6.595356e+002, 1.453944e-001
6.614641e+002, 1.406604e-001
6.633925e+002, 1.357256e-001
6.653210e+002, 1.308075e-001
6.672495e+002, 1.264462e-001
6.691779e+002, 1.224778e-001
6.711064e+002, 1.189814e-001
6.730349e+002, 1.161725e-001
6.749633e+002, 1.141118e-001
6.768918e+002, 1.124187e-001
6.788203e+002, 1.111310e-001
6.807487e+002, 1.099045e-001
6.826772e+002, 1.079919e-001
6.846057e+002, 1.050763e-001
6.865341e+002, 1.015748e-001
6.884626e+002, 9.802336e-002
6.903911e+002, 9.513989e-002
6.923195e+002, 9.273818e-002
6.942480e+002, 9.038384e-002
6.961765e+002, 8.841759e-002
6.981049e+002, 8.649166e-002
7.000334e+002, 8.487067e-002
7.019619e+002, 8.343942e-002
7.038903e+002, 8.248550e-002
7.058188e+002, 8.131296e-002
7.077473e+002, 8.041258e-002
7.096757e+002, 7.981146e-002
7.116042e+002, 7.935958e-002
7.135327e+002, 7.904693e-002
7.154611e+002, 7.891881e-002
7.173896e+002, 7.914948e-002
7.193181e+002, 7.971064e-002
7.212465e+002, 8.026233e-002
7.231750e+002, 8.102088e-002
7.251035e+002, 8.196523e-002
7.270319e+002, 8.268473e-002
7.289604e+002, 8.345633e-002
7.308889e+002, 8.429526e-002
7.328173e+002, 8.505353e-002
7.347458e+002, 8.570090e-002
7.366743e+002, 8.608912e-002
7.386027e+002, 8.626736e-002
7.405312e+002, 8.661041e-002
7.424597e+002, 8.716526e-002
7.443881e+002, 8.808388e-002
7.463166e+002, 8.923648e-002
7.482451e+002, 9.045120e-002
7.501735e+002, 9.184118e-002
7.521020e+002, 9.326757e-002
7.540305e+002, 9.459911e-002
7.559589e+002, 9.597357e-002
7.578874e+002, 9.730127e-002
7.598159e+002, 9.893738e-002
7.617443e+002, 1.005963e-001
7.636728e+002, 1.018201e-001
7.656013e+002, 1.030615e-001
7.675297e+002, 1.044315e-001
7.694582e+002, 1.058404e-001
7.713867e+002, 1.073357e-001
7.733151e+002, 1.085051e-001
7.752436e+002, 1.099401e-001
7.771721e+002, 1.116802e-001
7.791005e+002, 1.135315e-001
7.810290e+002, 1.154969e-001
7.829575e+002, 1.174947e-001
7.848859e+002, 1.194632e-001
7.868144e+002, 1.218230e-001
7.887429e+002, 1.245247e-001
7.906713e+002, 1.275426e-001
7.925998e+002, 1.308875e-001
7.945283e+002, 1.344399e-001
7.964567e+002, 1.384567e-001
7.983852e+002, 1.430431e-001
8.003137e+002, 1.479857e-001
8.022421e+002, 1.531835e-001
8.041706e+002, 1.586255e-001
8.060991e+002, 1.642915e-001
8.080275e+002, 1.698393e-001
8.099560e+002, 1.753543e-001
8.118845e+002, 1.804771e-001
8.138129e+002, 1.849630e-001
8.157414e+002, 1.892038e-001
8.176699e+002, 1.932556e-001
8.195983e+002, 1.973896e-001
8.215268e+002, 2.019055e-001
8.234553e+002, 2.065913e-001
8.253837e+002, 2.111492e-001
8.273122e+002, 2.157999e-001
8.292407e+002, 2.201189e-001
8.311691e+002, 2.240083e-001
8.330976e+002, 2.276298e-001
8.350261e+002, 2.312806e-001
8.369545e+002, 2.345654e-001
8.388830e+002, 2.380270e-001
8.408115e+002, 2.416920e-001
8.427399e+002, 2.453027e-001
8.446684e+002, 2.488974e-001
8.465969e+002, 2.522110e-001
8.485253e+002, 2.553332e-001
8.504538e+002, 2.579764e-001
8.523823e+002, 2.599637e-001
8.543107e+002, 2.613131e-001
8.562392e+002, 2.617634e-001
8.581677e+002, 2.615896e-001
8.600961e+002, 2.603072e-001
8.620246e+002, 2.586082e-001
8.639531e+002, 2.563308e-001
8.658815e+002, 2.539472e-001
8.678100e+002, 2.518210e-001
8.697385e+002, 2.494036e-001
8.716669e+002, 2.471207e-001
8.735954e+002, 2.452689e-001
8.755239e+002, 2.441012e-001
8.774523e+002, 2.435414e-001
8.793808e+002, 2.436217e-001
8.813093e+002, 2.446311e-001
8.832377e+002, 2.467197e-001
8.851662e+002, 2.499087e-001
8.870947e+002, 2.544100e-001
8.890231e+002, 2.602260e-001
8.909516e+002, 2.673841e-001
8.928801e+002, 2.756745e-001
8.948085e+002, 2.849560e-001
8.967370e+002, 2.947220e-001
8.986655e+002, 3.047383e-001
9.005939e+002, 3.146889e-001
9.025224e+002, 3.242347e-001
9.044509e+002, 3.328301e-001
9.063793e+002, 3.398166e-001
9.083078e+002, 3.449155e-001
9.102363e+002, 3.486024e-001
9.121647e+002, 3.507303e-001
9.140932e+002, 3.511498e-001
9.160217e+002, 3.505479e-001
9.179501e+002, 3.493798e-001
9.198786e+002, 3.478098e-001
9.218071e+002, 3.462874e-001
9.237355e+002, 3.452037e-001
9.256640e+002, 3.442524e-001
9.275925e+002, 3.436970e-001
9.295209e+002, 3.439015e-001
9.314494e+002, 3.447552e-001
9.333779e+002, 3.458419e-001
9.353063e+002, 3.471401e-001
9.372348e+002, 3.487984e-001
9.391633e+002, 3.509155e-001
9.410917e+002, 3.528863e-001
9.430202e+002, 3.545752e-001
9.449487e+002, 3.561249e-001
9.468771e+002, 3.571085e-001
9.488056e+002, 3.569708e-001
9.507341e+002, 3.557285e-001
9.526625e+002, 3.534254e-001
9.545910e+002, 3.498358e-001
9.565195e+002, 3.449521e-001
9.584479e+002, 3.391721e-001
9.603764e+002, 3.325329e-001
9.623049e+002, 3.251745e-001
9.642333e+002, 3.176098e-001
9.661618e+002, 3.096866e-001
9.680903e+002, 3.013968e-001
9.700187e+002, 2.932632e-001
9.719472e+002, 2.856051e-001
9.738757e+002, 2.783854e-001
9.758041e+002, 2.720201e-001
9.777326e+002, 2.661805e-001
9.796611e+002, 2.608255e-001
9.815895e+002, 2.560042e-001
9.835180e+002, 2.514123e-001
9.854465e+002, 2.473115e-001
9.873749e+002, 2.436284e-001
9.893034e+002, 2.401295e-001
9.912319e+002, 2.370650e-001
9.931603e+002, 2.342820e-001
9.950888e+002, 2.316579e-001
9.970173e+002, 2.292869e-001
9.989457e+002, 2.271789e-001
1.000874e+003, 2.252299e-001
1.002803e+003, 2.230362e-001
1.004731e+003, 2.205597e-001
1.006660e+003, 2.180069e-001
1.008588e+003, 2.152373e-001
1.010517e+003, 2.119242e-001
1.012445e+003, 2.082784e-001
1.014373e+003, 2.045599e-001
1.016302e+003, 2.006966e-001
1.018230e+003, 1.962762e-001
1.020159e+003, 1.915117e-001
1.022087e+003, 1.866661e-001
1.024016e+003, 1.819741e-001
1.025944e+003, 1.773272e-001
1.027873e+003, 1.727671e-001
1.029801e+003, 1.684748e-001
1.031730e+003, 1.648187e-001
1.033658e+003, 1.616128e-001
1.035587e+003, 1.584190e-001
1.037515e+003, 1.547049e-001
1.039443e+003, 1.503274e-001
1.041372e+003, 1.448893e-001
1.043300e+003, 1.386826e-001
1.045229e+003, 1.321608e-001
1.047157e+003, 1.258372e-001
1.049086e+003, 1.202248e-001
1.051014e+003, 1.152494e-001
1.052943e+003, 1.110478e-001
1.054871e+003, 1.072723e-001
1.056800e+003, 1.038627e-001
1.058728e+003, 1.008160e-001
1.060657e+003, 9.766264e-002
1.062585e+003, 9.437538e-002
1.064514e+003, 9.084780e-002
1.066442e+003, 8.712571e-002
1.068370e+003, 8.332121e-002
1.070299e+003, 7.948142e-002
1.072227e+003, 7.538563e-002
1.074156e+003, 7.119785e-002
1.076084e+003, 6.743032e-002
1.078013e+003, 6.411841e-002
1.079941e+003, 6.143852e-002
1.081870e+003, 5.929719e-002
1.083798e+003, 5.751203e-002
1.085727e+003, 5.582931e-002
1.087655e+003, 5.396644e-002
1.089584e+003, 5.199190e-002
1.091512e+003, 5.005737e-002
1.093441e+003, 4.813341e-002
1.095369e+003, 4.615096e-002
1.097297e+003, 4.415471e-002
1.099226e+003, 4.228815e-002
1.101154e+003, 4.072066e-002
1.103083e+003, 3.922244e-002
1.105011e+003, 3.785078e-002
1.106940e+003, 3.659756e-002
1.108868e+003, 3.545872e-002
1.110797e+003, 3.451197e-002
1.112725e+003, 3.343668e-002
1.114654e+003, 3.261658e-002
1.116582e+003, 3.227969e-002
1.118511e+003, 3.229099e-002
1.120439e+003, 3.250644e-002
1.122368e+003, 3.276870e-002
1.124296e+003, 3.314495e-002
1.126224e+003, 3.343126e-002
1.128153e+003, 3.336741e-002
1.130081e+003, 3.280981e-002
1.132010e+003, 3.183778e-002
1.133938e+003, 3.042742e-002
1.135867e+003, 2.852255e-002
1.137795e+003, 2.652480e-002
1.139724e+003, 2.462736e-002
1.141652e+003, 2.275706e-002
1.143581e+003, 2.094763e-002
1.145509e+003, 1.935191e-002
1.147438e+003, 1.794266e-002
1.149366e+003, 1.669005e-002
1.151295e+003, 1.564922e-002
1.153223e+003, 1.477620e-002
1.155151e+003, 1.399976e-002
1.157080e+003, 1.334646e-002
1.159008e+003, 1.278922e-002
1.160937e+003, 1.224456e-002
1.162865e+003, 1.183689e-002
1.164794e+003, 1.144946e-002
1.166722e+003, 1.111995e-002
1.168651e+003, 1.089309e-002
1.170579e+003, 1.058862e-002
1.172508e+003, 1.019551e-002
1.174436e+003, 9.940737e-003
1.176365e+003, 9.734987e-003
1.178293e+003, 9.543487e-003
1.180222e+003, 9.189704e-003
1.182150e+003, 8.860879e-003
1.184078e+003, 8.756600e-003
1.186007e+003, 8.632543e-003
1.187935e+003, 8.519964e-003
1.189864e+003, 8.398584e-003
1.191792e+003, 8.304983e-003
1.193721e+003, 8.288598e-003
1.195649e+003, 8.166321e-003
1.197578e+003, 8.070956e-003
1.199506e+003, 7.881702e-003
1.201435e+003, 7.591743e-003
1.203363e+003, 7.396768e-003
1.205292e+003, 7.143936e-003
1.207220e+003, 6.853109e-003
1.209149e+003, 6.645335e-003
1.211077e+003, 6.520522e-003
1.213005e+003, 6.340073e-003
1.214934e+003, 6.280420e-003
1.216862e+003, 6.302671e-003
1.218791e+003, 6.182614e-003
1.220719e+003, 5.988138e-003
1.222648e+003, 5.826794e-003
1.224576e+003, 5.798177e-003
1.226505e+003, 5.778892e-003
1.228433e+003, 5.754419e-003
1.230362e+003, 5.747100e-003
1.232290e+003, 5.699587e-003
1.234219e+003, 5.632680e-003
1.236147e+003, 5.429627e-003
1.238076e+003, 5.259189e-003
1.240004e+003, 5.229645e-003
1.241932e+003, 5.313785e-003
1.243861e+003, 5.318142e-003
1.245789e+003, 5.253374e-003
1.247718e+003, 5.122167e-003
1.249646e+003, 5.061137e-003
1.251575e+003, 5.059215e-003
1.253503e+003, 5.081409e-003
1.255432e+003, 5.084167e-003
1.257360e+003, 5.173872e-003
1.259289e+003, 5.143917e-003
1.261217e+003, 5.188177e-003
1.263146e+003, 5.180115e-003
1.265074e+003, 5.205861e-003
1.267003e+003, 5.192336e-003
1.268931e+003, 5.303233e-003
1.270859e+003, 5.648112e-003
1.272788e+003, 6.061245e-003
1.274716e+003, 6.469576e-003
1.276645e+003, 6.902616e-003
1.278573e+003, 7.389064e-003
1.280502e+003, 7.904597e-003
1.282430e+003, 8.382906e-003
1.284359e+003, 8.681847e-003
1.286287e+003, 8.856217e-003
1.288216e+003, 9.013502e-003
1.290144e+003, 9.090366e-003
1.292073e+003, 8.956681e-003
1.294001e+003, 8.800957e-003
1.295930e+003, 8.726575e-003
1.297858e+003, 8.462786e-003
1.299786e+003, 7.979140e-003
1.301715e+003, 7.587772e-003
1.303643e+003, 7.257924e-003
1.305572e+003, 6.896879e-003
1.307500e+003, 6.843350e-003
1.309429e+003, 6.816548e-003
1.311357e+003, 6.643429e-003
1.313286e+003, 6.531091e-003
1.315214e+003, 6.440234e-003
1.317143e+003, 6.259445e-003
1.319071e+003, 6.075284e-003
1.321000e+003, 5.910396e-003
1.322928e+003, 5.772370e-003
1.324857e+003, 5.611652e-003
1.326785e+003, 5.388501e-003
1.328714e+003, 5.316937e-003
1.330642e+003, 5.183224e-003
1.332570e+003, 5.012074e-003
1.334499e+003, 5.079978e-003
1.336427e+003, 5.077226e-003
1.338356e+003, 5.019868e-003
1.340284e+003, 4.922167e-003
1.342213e+003, 4.818176e-003
1.344141e+003, 4.875523e-003
1.346070e+003, 4.918769e-003
1.347998e+003, 4.942216e-003
1.349927e+003, 5.080515e-003
1.351855e+003, 5.063736e-003
1.353784e+003, 4.986460e-003
1.355712e+003, 4.949623e-003
1.357641e+003, 5.093994e-003
1.359569e+003, 5.353414e-003
1.361497e+003, 5.386690e-003
1.363426e+003, 5.333656e-003
1.365354e+003, 5.288163e-003
1.367283e+003, 5.465693e-003
1.369211e+003, 5.621130e-003
1.371140e+003, 5.744949e-003
1.373068e+003, 5.961063e-003
1.374997e+003, 6.220413e-003
1.376925e+003, 6.262203e-003
1.378854e+003, 6.300802e-003
1.380782e+003, 6.244252e-003
1.382711e+003, 6.059520e-003
1.384639e+003, 6.020342e-003
1.386568e+003, 6.192980e-003
1.388496e+003, 6.265800e-003
1.390424e+003, 6.325484e-003
1.392353e+003, 6.503377e-003
1.394281e+003, 6.551812e-003
1.396210e+003, 6.521238e-003
1.398138e+003, 6.623818e-003
1.400067e+003, 6.831140e-003
1.401995e+003, 6.891210e-003
1.403924e+003, 6.985810e-003
1.405852e+003, 7.118032e-003
1.407781e+003, 7.368767e-003
1.409709e+003, 7.637567e-003
1.411638e+003, 7.755966e-003
1.413566e+003, 7.572955e-003
1.415495e+003, 7.393037e-003
1.417423e+003, 7.498669e-003
1.419351e+003, 7.589396e-003
1.421280e+003, 7.453486e-003
1.423208e+003, 7.340979e-003
1.425137e+003, 7.301253e-003
1.427065e+003, 7.368230e-003
1.428994e+003, 7.569842e-003
1.430922e+003, 7.726660e-003
1.432851e+003, 7.865789e-003
1.434779e+003, 8.360227e-003
1.436708e+003, 8.978409e-003
1.438636e+003, 9.182050e-003
1.440565e+003, 9.241032e-003
1.442493e+003, 8.949241e-003
1.444422e+003, 8.564300e-003
1.446350e+003, 8.373220e-003
1.448278e+003, 8.275351e-003
1.450207e+003, 8.131838e-003
1.452135e+003, 8.103841e-003
1.454064e+003, 8.283065e-003
1.455992e+003, 8.586534e-003
1.457921e+003, 8.483023e-003
1.459849e+003, 8.174649e-003
1.461778e+003, 7.991672e-003
1.463706e+003, 7.923572e-003
1.465635e+003, 7.940882e-003
1.467563e+003, 7.710903e-003
1.469492e+003, 7.553344e-003
1.471420e+003, 7.537139e-003
1.473349e+003, 7.377448e-003
1.475277e+003, 6.944462e-003
1.477205e+003, 6.710283e-003
1.479134e+003, 6.656439e-003
1.481062e+003, 6.650231e-003
1.482991e+003, 6.722429e-003
1.484919e+003, 6.753376e-003
1.486848e+003, 6.721965e-003
1.488776e+003, 6.783908e-003
1.490705e+003, 6.770718e-003
1.492633e+003, 6.610676e-003
1.494562e+003, 6.784115e-003
1.496490e+003, 6.987693e-003
1.498419e+003, 6.938173e-003
1.500347e+003, 6.800151e-003
1.502276e+003, 6.678631e-003
1.504204e+003, 6.974361e-003
1.506132e+003, 7.512246e-003
1.508061e+003, 7.462055e-003
1.509989e+003, 7.093697e-003
1.511918e+003, 6.907115e-003
1.513846e+003, 6.807254e-003
1.515775e+003, 6.799633e-003
1.517703e+003, 6.772158e-003
1.519632e+003, 6.977907e-003
1.521560e+003, 7.197555e-003
1.523489e+003, 7.077378e-003
1.525417e+003, 7.025854e-003
1.527346e+003, 7.068592e-003
1.529274e+003, 7.150088e-003
1.531203e+003, 7.245467e-003
1.533131e+003, 7.191533e-003
1.535059e+003, 7.161391e-003
1.536988e+003, 7.396450e-003
1.538916e+003, 7.867526e-003
1.540845e+003, 8.014446e-003
1.542773e+003, 7.954475e-003
1.544702e+003, 7.906637e-003
1.546630e+003, 7.859722e-003
1.548559e+003, 7.961815e-003
1.550487e+003, 8.118187e-003
1.552416e+003, 8.174988e-003
1.554344e+003, 8.292748e-003
1.556273e+003, 8.422017e-003
1.558201e+003, 8.802926e-003
1.560130e+003, 8.798834e-003
1.562058e+003, 8.496404e-003
1.563986e+003, 8.446665e-003
1.565915e+003, 8.421313e-003
1.567843e+003, 8.364741e-003
1.569772e+003, 8.551555e-003
1.571700e+003, 8.550627e-003
1.573629e+003, 8.656732e-003
1.575557e+003, 8.946126e-003
1.577486e+003, 8.844513e-003
1.579414e+003, 8.714819e-003
1.581343e+003, 8.771000e-003
1.583271e+003, 8.697391e-003
1.585200e+003, 8.624543e-003
1.587128e+003, 8.568861e-003
1.589057e+003, 8.750517e-003
1.590985e+003, 9.033259e-003
1.592913e+003, 9.047482e-003
1.594842e+003, 8.939231e-003
1.596770e+003, 9.007828e-003
1.598699e+003, 9.112528e-003
1.600627e+003, 9.206073e-003
1.602556e+003, 9.348407e-003
1.604484e+003, 9.372925e-003
1.606413e+003, 9.381724e-003
1.608341e+003, 9.514105e-003
1.610270e+003, 9.740060e-003
1.612198e+003, 9.840795e-003
1.614127e+003, 1.011525e-002
1.616055e+003, 1.068268e-002
1.617984e+003, 1.080443e-002
1.619912e+003, 1.062593e-002
1.621840e+003, 1.078160e-002
1.623769e+003, 1.104174e-002
1.625697e+003, 1.118685e-002
1.627626e+003, 1.134747e-002
1.629554e+003, 1.155595e-002
1.631483e+003, 1.184146e-002
1.633411e+003, 1.210856e-002
1.635340e+003, 1.230826e-002
1.637268e+003, 1.225684e-002
1.639197e+003, 1.234396e-002
1.641125e+003, 1.243999e-002
1.643054e+003, 1.232771e-002
1.644982e+003, 1.243659e-002
1.646911e+003, 1.257008e-002
1.648839e+003, 1.240582e-002
1.650767e+003, 1.252515e-002
1.652696e+003, 1.287362e-002
1.654624e+003, 1.243647e-002
1.656553e+003, 1.181067e-002
1.658481e+003, 1.161087e-002
1.660410e+003, 1.163508e-002
1.662338e+003, 1.148647e-002
1.664267e+003, 1.098473e-002
1.666195e+003, 1.069302e-002
1.668124e+003, 1.073346e-002
1.670052e+003, 1.065705e-002
1.671981e+003, 1.041825e-002
1.673909e+003, 1.035322e-002
1.675838e+003, 1.015574e-002
1.677766e+003, 9.892870e-003
1.679694e+003, 9.949515e-003
1.681623e+003, 1.009274e-002
1.683551e+003, 1.041683e-002
1.685480e+003, 1.040172e-002
1.687408e+003, 1.025891e-002
1.689337e+003, 1.034105e-002
1.691265e+003, 1.046696e-002
1.693194e+003, 1.061449e-002
1.695122e+003, 1.095739e-002
1.697051e+003, 1.093456e-002
1.698979e+003, 1.113787e-002
1.700908e+003, 1.142888e-002
1.702836e+003, 1.114025e-002
1.704765e+003, 1.098227e-002
1.706693e+003, 1.088666e-002
1.708621e+003, 1.069007e-002
1.710550e+003, 1.017010e-002
1.712478e+003, 9.674138e-003
1.714407e+003, 9.350503e-003
1.716335e+003, 9.102250e-003
1.718264e+003, 8.524273e-003
1.720192e+003, 7.859786e-003
1.722121e+003, 7.469007e-003
1.724049e+003, 7.255077e-003
1.725978e+003, 6.951071e-003
1.727906e+003, 6.713215e-003
1.729835e+003, 6.474428e-003
1.731763e+003, 6.553452e-003
1.733692e+003, 6.610739e-003
1.735620e+003, 6.031648e-003
1.737548e+003, 5.475950e-003
1.739477e+003, 5.336480e-003
1.741405e+003, 5.006531e-003
1.743334e+003, 4.798342e-003
1.745262e+003, 4.711748e-003
1.747191e+003, 4.600733e-003
1.749119e+003, 4.566481e-003
1.751048e+003, 4.582179e-003
1.752976e+003, 4.401939e-003
1.754905e+003, 4.345360e-003
1.756833e+003, 4.437000e-003
1.758762e+003, 4.382891e-003
1.760690e+003, 4.409506e-003
1.762619e+003, 4.428343e-003
1.764547e+003, 4.340737e-003
1.766475e+003, 4.345524e-003
1.768404e+003, 4.228875e-003
1.770332e+003, 4.271043e-003
1.772261e+003, 4.426445e-003
1.774189e+003, 4.241127e-003
1.776118e+003, 4.319264e-003
1.778046e+003, 4.409966e-003
1.779975e+003, 4.410702e-003
1.781903e+003, 4.402938e-003
1.783832e+003, 4.332915e-003
1.785760e+003, 4.301947e-003
1.787689e+003, 4.214369e-003
1.789617e+003, 4.306548e-003
1.791546e+003, 4.534926e-003
1.793474e+003, 4.455104e-003
1.795402e+003, 4.068639e-003
1.797331e+003, 3.931074e-003
1.799259e+003, 4.010779e-003
1.801188e+003, 4.002995e-003
1.803116e+003, 4.023243e-003
1.805045e+003, 4.027115e-003
1.806973e+003, 3.820566e-003
1.808902e+003, 3.918233e-003
1.810830e+003, 4.231977e-003
1.812759e+003, 4.342522e-003
1.814687e+003, 3.944137e-003
1.816616e+003, 3.549227e-003
1.818544e+003, 3.567089e-003
1.820473e+003, 3.796115e-003
1.822401e+003, 3.830951e-003
1.824329e+003, 3.795760e-003
1.826258e+003, 3.900580e-003
1.828186e+003, 3.911981e-003
1.830115e+003, 3.822262e-003
1.832043e+003, 3.875569e-003
1.833972e+003, 3.746277e-003
1.835900e+003, 3.647724e-003
1.837829e+003, 3.560224e-003
1.839757e+003, 3.743501e-003
1.841686e+003, 3.809022e-003
1.843614e+003, 3.610118e-003
1.845543e+003, 3.372092e-003
1.847471e+003, 3.410220e-003
1.849400e+003, 3.649748e-003
1.851328e+003, 3.662855e-003
1.853256e+003, 3.589069e-003
1.855185e+003, 3.492211e-003
1.857113e+003, 3.371815e-003
1.859042e+003, 3.342716e-003
1.860970e+003, 3.250959e-003
1.862899e+003, 3.347414e-003
1.864827e+003, 3.355034e-003
1.866756e+003, 3.241683e-003
1.868684e+003, 3.225434e-003
1.870613e+003, 3.092806e-003
1.872541e+003, 3.111564e-003
1.874470e+003, 2.984785e-003
1.876398e+003, 2.839750e-003
1.878327e+003, 2.665871e-003
1.880255e+003, 2.718525e-003
1.882183e+003, 2.946954e-003
1.884112e+003, 2.812190e-003
1.886040e+003, 2.963638e-003
1.887969e+003, 3.252812e-003
1.889897e+003, 3.313130e-003
1.891826e+003, 2.915778e-003
1.893754e+003, 3.030609e-003
1.895683e+003, 3.247598e-003
1.897611e+003, 2.970355e-003
1.899540e+003, 2.874906e-003
1.901468e+003, 3.008096e-003
1.903397e+003, 2.967555e-003
1.905325e+003, 2.823371e-003
1.907254e+003, 2.675277e-003
1.909182e+003, 2.557863e-003
1.911110e+003, 2.524443e-003
1.913039e+003, 2.668705e-003
1.914967e+003, 2.377340e-003
1.916896e+003, 2.326825e-003
1.918824e+003, 2.406140e-003
1.920753e+003, 2.397828e-003
1.922681e+003, 2.549231e-003
1.924610e+003, 2.416813e-003
1.926538e+003, 2.070709e-003
1.928467e+003, 2.079635e-003
1.930395e+003, 2.096693e-003
1.932324e+003, 2.119575e-003
1.934252e+003, 2.521154e-003
1.936181e+003, 2.966713e-003
1.938109e+003, 2.948978e-003
1.940037e+003, 2.276070e-003
1.941966e+003, 1.894424e-003
1.943894e+003, 1.904533e-003
1.945823e+003, 1.983659e-003
1.947751e+003, 2.273896e-003
1.949680e+003, 2.367448e-003
1.951608e+003, 2.379310e-003
1.953537e+003, 2.551337e-003
1.955465e+003, 2.036719e-003
1.957394e+003, 1.852660e-003
1.959322e+003, 2.657970e-003
1.961251e+003, 2.732256e-003
1.963179e+003, 2.240995e-003
1.965108e+003, 2.150190e-003
1.967036e+003, 1.951888e-003
1.968964e+003, 2.044861e-003
1.970893e+003, 2.353473e-003
1.972821e+003, 3.111725e-003
1.974750e+003, 3.432747e-003
1.976678e+003, 3.798539e-003
1.978607e+003, 4.545830e-003
1.980535e+003, 3.982183e-003
1.982464e+003, 3.588231e-003
1.984392e+003, 4.109646e-003
1.986321e+003, 3.533601e-003
1.988249e+003, 2.064330e-003
1.990178e+003, 2.187728e-003
1.992106e+003, 3.839880e-003
1.994035e+003, 3.794682e-003
1.995963e+003, 2.873075e-003
1.997891e+003, 2.604560e-003
1.999820e+003, 3.201347e-003
2.001748e+003, 2.643543e-003
2.003677e+003, 1.579737e-003
2.005605e+003, 2.258807e-003
2.007534e+003, 3.666488e-003
2.009462e+003, 3.970108e-003
2.011391e+003, 3.883680e-003
2.013319e+003, 4.118785e-003
2.015248e+003, 3.949655e-003
2.017176e+003, 4.185815e-003
2.019105e+003, 4.221043e-003
2.021033e+003, 3.741096e-003
2.022962e+003, 2.670450e-003
2.024890e+003, 2.747609e-003
2.026818e+003, 3.627007e-003
2.028747e+003, 4.171927e-003
2.030675e+003, 3.995401e-003
2.032604e+003, 5.133404e-003
2.034532e+003, 5.819945e-003
2.036461e+003, 5.076829e-003
2.038389e+003, 4.533307e-003
2.040318e+003, 4.748461e-003
2.042246e+003, 4.297057e-003
2.044175e+003, 3.917993e-003
2.046103e+003, 3.806473e-003
2.048031e+003, 4.619049e-003
2.049960e+003, 5.416228e-003
2.051888e+003, 4.539708e-003
2.053817e+003, 3.783167e-003
2.055745e+003, 4.072385e-003
2.057674e+003, 4.423355e-003
2.059602e+003, 3.947241e-003
2.061531e+003, 3.723553e-003
2.063459e+003, 4.229362e-003
2.065388e+003, 4.489705e-003
2.067316e+003, 4.455908e-003
2.069245e+003, 4.637801e-003
2.071173e+003, 4.975033e-003
2.073102e+003, 4.737182e-003
2.075030e+003, 4.897877e-003
2.076958e+003, 4.809436e-003
2.078887e+003, 4.223415e-003
2.080815e+003, 3.763402e-003
2.082744e+003, 3.876492e-003
2.084672e+003, 4.498495e-003
2.086601e+003, 4.413090e-003
2.088529e+003, 4.258244e-003
2.090458e+003, 3.915289e-003
2.092386e+003, 3.276333e-003
2.094315e+003, 3.793965e-003
2.096243e+003, 4.667977e-003
2.098172e+003, 5.398277e-003
2.100100e+003, 6.045981e-003
2.102029e+003, 5.730944e-003
2.103957e+003, 5.530597e-003
2.105885e+003, 5.584092e-003
2.107814e+003, 4.952181e-003
2.109742e+003, 4.873513e-003
2.111671e+003, 5.136533e-003
2.113599e+003, 5.251642e-003
2.115528e+003, 5.270763e-003
2.117456e+003, 5.142673e-003
2.119385e+003, 4.774392e-003
2.121313e+003, 4.539351e-003
2.123242e+003, 5.429814e-003
2.125170e+003, 5.859732e-003
2.127099e+003, 5.080571e-003
2.129027e+003, 4.695950e-003
2.130956e+003, 4.846815e-003
2.132884e+003, 4.689647e-003
2.134813e+003, 4.601026e-003
2.136741e+003, 4.355053e-003
2.138669e+003, 4.981891e-003
2.140598e+003, 6.091321e-003
2.142526e+003, 5.846840e-003
2.144455e+003, 5.179688e-003
2.146383e+003, 6.004850e-003
2.148312e+003, 7.667921e-003
2.150240e+003, 7.488617e-003
2.152169e+003, 6.729620e-003
2.154097e+003, 7.801142e-003
2.156026e+003, 8.095405e-003
2.157954e+003, 8.235432e-003
2.159883e+003, 9.798630e-003
2.161811e+003, 9.895661e-003
2.163740e+003, 9.842087e-003
2.165668e+003, 9.871157e-003
2.167596e+003, 1.017146e-002
2.169525e+003, 1.057779e-002
2.171453e+003, 9.095065e-003
2.173382e+003, 8.413114e-003
2.175310e+003, 9.283085e-003
2.177239e+003, 9.339944e-003
2.179167e+003, 8.685523e-003
2.181096e+003, 8.052981e-003
2.183024e+003, 8.632609e-003
2.184953e+003, 9.917762e-003
2.186881e+003, 9.844363e-003
2.188810e+003, 9.305831e-003
2.190738e+003, 9.087792e-003
2.192667e+003, 8.818652e-003
2.194595e+003, 8.900193e-003
2.196523e+003, 9.287689e-003
2.198452e+003, 9.194611e-003
2.200380e+003, 8.947484e-003
2.202309e+003, 9.347653e-003
2.204237e+003, 9.549725e-003
2.206166e+003, 9.499291e-003
2.208094e+003, 9.336455e-003
2.210023e+003, 9.500833e-003
2.211951e+003, 9.224148e-003
2.213880e+003, 9.751744e-003
2.215808e+003, 9.912891e-003
2.217737e+003, 1.003541e-002
2.219665e+003, 1.033151e-002
2.221594e+003, 1.056036e-002
2.223522e+003, 1.078320e-002
2.225450e+003, 9.585341e-003
2.227379e+003, 8.181490e-003
2.229307e+003, 8.504554e-003
2.231236e+003, 9.849014e-003
2.233164e+003, 1.020291e-002
2.235093e+003, 1.021834e-002
2.237021e+003, 1.012179e-002
2.238950e+003, 9.965204e-003
2.240878e+003, 1.021966e-002
2.242807e+003, 9.804858e-003
2.244735e+003, 9.107218e-003
2.246664e+003, 9.105992e-003
2.248592e+003, 9.596853e-003
2.250521e+003, 9.508059e-003
2.252449e+003, 9.257603e-003
2.254377e+003, 8.981463e-003
2.256306e+003, 8.556852e-003
2.258234e+003, 8.273030e-003
2.260163e+003, 8.351197e-003
2.262091e+003, 8.118588e-003
2.264020e+003, 7.803943e-003
2.265948e+003, 7.606080e-003
2.267877e+003, 7.765771e-003
2.269805e+003, 8.366521e-003
2.271734e+003, 8.786261e-003
2.273662e+003, 8.767377e-003
2.275591e+003, 8.779654e-003
2.277519e+003, 8.519278e-003
2.279448e+003, 8.553712e-003
2.281376e+003, 8.552881e-003
2.283304e+003, 8.605060e-003
2.285233e+003, 8.778007e-003
2.287161e+003, 8.280654e-003
2.289090e+003, 7.686186e-003
2.291018e+003, 7.777730e-003
2.292947e+003, 7.608267e-003
2.294875e+003, 6.829714e-003
2.296804e+003, 6.493695e-003
2.298732e+003, 6.974862e-003
2.300661e+003, 7.363584e-003
2.302589e+003, 7.224801e-003
2.304518e+003, 6.941582e-003
2.306446e+003, 6.804981e-003
2.308375e+003, 6.856369e-003
2.310303e+003, 6.944650e-003
2.312231e+003, 7.270452e-003
2.314160e+003, 7.243498e-003
2.316088e+003, 7.056486e-003
2.318017e+003, 7.009040e-003
2.319945e+003, 7.112048e-003
2.321874e+003, 7.078811e-003
2.323802e+003, 6.831593e-003
2.325731e+003, 6.256899e-003
2.327659e+003, 5.968617e-003
2.329588e+003, 6.219567e-003
2.331516e+003, 6.182114e-003
2.333445e+003, 6.025653e-003
2.335373e+003, 6.038209e-003
2.337302e+003, 6.114317e-003
2.339230e+003, 6.039242e-003
2.341158e+003, 6.130497e-003
2.343087e+003, 6.369814e-003
2.345015e+003, 6.437378e-003
2.346944e+003, 6.189792e-003
2.348872e+003, 5.885883e-003
2.350801e+003, 5.750665e-003
2.352729e+003, 5.600275e-003
2.354658e+003, 5.526427e-003
2.356586e+003, 5.620187e-003
2.358515e+003, 5.471385e-003
2.360443e+003, 5.319329e-003
2.362372e+003, 5.396070e-003
2.364300e+003, 5.785623e-003
2.366229e+003, 5.791516e-003
2.368157e+003, 5.708076e-003
2.370085e+003, 5.695080e-003
2.372014e+003, 5.796789e-003
2.373942e+003, 6.033998e-003
2.375871e+003, 6.219086e-003
2.377799e+003, 5.953098e-003
2.379728e+003, 6.011936e-003
2.381656e+003, 6.332175e-003
2.383585e+003, 6.235404e-003
2.385513e+003, 6.449923e-003
2.387442e+003, 6.345998e-003
2.389370e+003, 5.928940e-003
2.391299e+003, 5.645189e-003
2.393227e+003, 5.668042e-003
2.395156e+003, 5.981082e-003
2.397084e+003, 5.952298e-003
2.399012e+003, 6.000925e-003
2.400941e+003, 6.270045e-003
2.402869e+003, 6.105052e-003
2.404798e+003, 6.178394e-003
2.406726e+003, 6.564776e-003
2.408655e+003, 6.589295e-003
2.410583e+003, 6.526180e-003
2.412512e+003, 6.828032e-003
2.414440e+003, 6.881875e-003
2.416369e+003, 6.413331e-003
2.418297e+003, 6.544195e-003
2.420226e+003, 6.457355e-003
2.422154e+003, 6.140071e-003
2.424083e+003, 6.562511e-003
2.426011e+003, 7.048207e-003
2.427939e+003, 7.421817e-003
2.429868e+003, 7.372595e-003
2.431796e+003, 7.227860e-003
2.433725e+003, 6.836723e-003
2.435653e+003, 6.891596e-003
2.437582e+003, 7.027470e-003
2.439510e+003, 6.909450e-003
2.441439e+003, 6.900817e-003
2.443367e+003, 6.864474e-003
2.445296e+003, 7.165112e-003
2.447224e+003, 7.266117e-003
2.449153e+003, 7.324793e-003
2.451081e+003, 7.347152e-003
2.453010e+003, 7.235346e-003
2.454938e+003, 7.360594e-003
2.456866e+003, 7.560167e-003
2.458795e+003, 7.684900e-003
2.460723e+003, 7.445511e-003
2.462652e+003, 7.192995e-003
2.464580e+003, 7.001256e-003
2.466509e+003, 7.078637e-003
2.468437e+003, 7.071732e-003
2.470366e+003, 7.332787e-003
2.472294e+003, 7.402342e-003
2.474223e+003, 7.232897e-003
2.476151e+003, 7.296443e-003
2.478080e+003, 7.256572e-003
2.480008e+003, 7.405597e-003
2.481937e+003, 7.418636e-003
2.483865e+003, 7.374359e-003
2.485793e+003, 7.758116e-003
2.487722e+003, 7.694659e-003
2.489650e+003, 7.202797e-003
2.491579e+003, 7.454965e-003
2.493507e+003, 7.417155e-003
2.495436e+003, 7.092693e-003
2.497364e+003, 7.183555e-003
2.499293e+003, 7.475718e-003
2.501221e+003, 7.593566e-003
2.503150e+003, 7.615549e-003
2.505078e+003, 7.392420e-003
2.507007e+003, 7.297519e-003
2.508935e+003, 7.483819e-003
2.510864e+003, 7.520575e-003
2.512792e+003, 7.621332e-003
2.514720e+003, 7.566881e-003
2.516649e+003, 7.294130e-003
2.518577e+003, 7.696053e-003
2.520506e+003, 8.235194e-003
2.522434e+003, 7.952032e-003
2.524363e+003, 7.530313e-003
2.526291e+003, 7.441591e-003
2.528220e+003, 7.519813e-003
2.530148e+003, 7.968766e-003
2.532077e+003, 8.329740e-003
2.534005e+003, 8.094179e-003
2.535934e+003, 7.817584e-003
2.537862e+003, 7.945069e-003
2.539791e+003, 8.316655e-003
2.541719e+003, 8.391798e-003
2.543647e+003, 8.164148e-003
2.545576e+003, 8.066694e-003
2.547504e+003, 8.172555e-003
2.549433e+003, 8.132192e-003
2.551361e+003, 8.078494e-003
2.553290e+003, 8.591320e-003
2.555218e+003, 8.156897e-003
2.557147e+003, 7.905923e-003
2.559075e+003, 8.187755e-003
2.561004e+003, 8.353710e-003
2.562932e+003, 8.360942e-003
2.564861e+003, 8.415622e-003
2.566789e+003, 8.356585e-003
2.568718e+003, 8.376854e-003
2.570646e+003, 8.542510e-003
2.572574e+003, 8.473436e-003
2.574503e+003, 8.233829e-003
2.576431e+003, 8.380191e-003
2.578360e+003, 8.457831e-003
2.580288e+003, 8.554004e-003
2.582217e+003, 8.853221e-003
2.584145e+003, 9.043316e-003
2.586074e+003, 9.208850e-003
2.588002e+003, 9.475034e-003
2.589931e+003, 9.219067e-003
2.591859e+003, 8.937669e-003
2.593788e+003, 8.905252e-003
2.595716e+003, 8.770343e-003
2.597645e+003, 8.944362e-003
2.599573e+003, 9.306325e-003
2.601501e+003, 9.255785e-003
2.603430e+003, 9.515853e-003
2.605358e+003, 9.620941e-003
2.607287e+003, 9.416896e-003
2.609215e+003, 9.356060e-003
2.611144e+003, 9.331153e-003
2.613072e+003, 9.399082e-003
2.615001e+003, 9.354041e-003
2.616929e+003, 9.494807e-003
2.618858e+003, 9.785872e-003
2.620786e+003, 9.818742e-003
2.622715e+003, 9.907062e-003
2.624643e+003, 1.012560e-002
2.626572e+003, 1.001155e-002
2.628500e+003, 9.858238e-003
2.630428e+003, 1.002222e-002
2.632357e+003, 1.006452e-002
2.634285e+003, 9.893782e-003
2.636214e+003, 9.935492e-003
2.638142e+003, 1.013809e-002
2.640071e+003, 1.034366e-002
2.641999e+003, 1.067465e-002
2.643928e+003, 1.056035e-002
2.645856e+003, 1.043800e-002
2.647785e+003, 1.049388e-002
2.649713e+003, 1.033659e-002
2.651642e+003, 1.049802e-002
2.653570e+003, 1.053335e-002
2.655499e+003, 1.059420e-002
2.657427e+003, 1.071086e-002
2.659355e+003, 1.058980e-002
2.661284e+003, 1.025778e-002
2.663212e+003, 1.023676e-002
2.665141e+003, 1.042655e-002
2.667069e+003, 1.036724e-002
2.668998e+003, 1.032219e-002
2.670926e+003, 1.051496e-002
2.672855e+003, 1.073456e-002
2.674783e+003, 1.075796e-002
2.676712e+003, 1.067659e-002
2.678640e+003, 1.043182e-002
2.680569e+003, 1.045647e-002
2.682497e+003, 1.056337e-002
2.684426e+003, 1.062618e-002
2.686354e+003, 1.061785e-002
2.688282e+003, 1.036423e-002
2.690211e+003, 1.045352e-002
2.692139e+003, 1.079893e-002
2.694068e+003, 1.085569e-002
2.695996e+003, 1.104272e-002
2.697925e+003, 1.106815e-002
2.699853e+003, 1.119555e-002
2.701782e+003, 1.141226e-002
2.703710e+003, 1.149270e-002
2.705639e+003, 1.128855e-002
2.707567e+003, 1.099586e-002
2.709496e+003, 1.093773e-002
2.711424e+003, 1.106696e-002
2.713353e+003, 1.148493e-002
2.715281e+003, 1.171798e-002
2.717209e+003, 1.180589e-002
2.719138e+003, 1.198145e-002
2.721066e+003, 1.189007e-002
2.722995e+003, 1.188018e-002
2.724923e+003, 1.205278e-002
2.726852e+003, 1.189002e-002
2.728780e+003, 1.184174e-002
2.730709e+003, 1.203968e-002
2.732637e+003, 1.206547e-002
2.734566e+003, 1.209598e-002
2.736494e+003, 1.229698e-002
2.738423e+003, 1.248601e-002
2.740351e+003, 1.248712e-002
2.742280e+003, 1.247711e-002
2.744208e+003, 1.265976e-002
2.746136e+003, 1.276881e-002
2.748065e+003, 1.292984e-002
2.749993e+003, 1.297725e-002
2.751922e+003, 1.279835e-002
2.753850e+003, 1.281351e-002
2.755779e+003, 1.272145e-002
2.757707e+003, 1.269852e-002
2.759636e+003, 1.288476e-002
2.761564e+003, 1.324936e-002
2.763493e+003, 1.330529e-002
2.765421e+003, 1.325532e-002
2.767350e+003, 1.347188e-002
2.769278e+003, 1.366735e-002
2.771207e+003, 1.357215e-002
2.773135e+003, 1.313445e-002
2.775063e+003, 1.326018e-002
2.776992e+003, 1.397717e-002
2.778920e+003, 1.420694e-002
2.780849e+003, 1.405032e-002
2.782777e+003, 1.407268e-002
2.784706e+003, 1.387395e-002
2.786634e+003, 1.412286e-002
2.788563e+003, 1.466869e-002
2.790491e+003, 1.455066e-002
2.792420e+003, 1.451851e-002
2.794348e+003, 1.444422e-002
2.796277e+003, 1.465009e-002
2.798205e+003, 1.479300e-002
2.800134e+003, 1.479205e-002
2.802062e+003, 1.514673e-002
2.803990e+003, 1.539151e-002
2.805919e+003, 1.537577e-002
2.807847e+003, 1.531899e-002
2.809776e+003, 1.532567e-002
2.811704e+003, 1.552376e-002
2.813633e+003, 1.568343e-002
2.815561e+003, 1.578899e-002
2.817490e+003, 1.601310e-002
2.819418e+003, 1.627019e-002
2.821347e+003, 1.653343e-002
2.823275e+003, 1.671051e-002
2.825204e+003, 1.652052e-002
2.827132e+003, 1.655545e-002
2.829061e+003, 1.716745e-002
2.830989e+003, 1.761004e-002
2.832917e+003, 1.777461e-002
2.834846e+003, 1.813755e-002
2.836774e+003, 1.834891e-002
2.838703e+003, 1.851626e-002
2.840631e+003, 1.910320e-002
2.842560e+003, 1.974882e-002
2.844488e+003, 2.050215e-002
2.846417e+003, 2.110660e-002
2.848345e+003, 2.172201e-002
2.850274e+003, 2.249924e-002
2.852202e+003, 2.308077e-002
2.854131e+003, 2.337456e-002
2.856059e+003, 2.354411e-002
2.857988e+003, 2.328462e-002
2.859916e+003, 2.267063e-002
2.861844e+003, 2.240669e-002
2.863773e+003, 2.220804e-002
2.865701e+003, 2.194399e-002
2.867630e+003, 2.211654e-002
2.869558e+003, 2.223113e-002
2.871487e+003, 2.231234e-002
2.873415e+003, 2.246083e-002
2.875344e+003, 2.224111e-002
2.877272e+003, 2.206422e-002
2.879201e+003, 2.230294e-002
2.881129e+003, 2.245485e-002
2.883058e+003, 2.235059e-002
2.884986e+003, 2.243562e-002
2.886915e+003, 2.251872e-002
2.888843e+003, 2.317156e-002
2.890771e+003, 2.377717e-002
2.892700e+003, 2.402281e-002
2.894628e+003, 2.483214e-002
2.896557e+003, 2.537320e-002
2.898485e+003, 2.575567e-002
2.900414e+003, 2.573018e-002
2.902342e+003, 2.588668e-002
2.904271e+003, 2.667245e-002
2.906199e+003, 2.720534e-002
2.908128e+003, 2.758234e-002
2.910056e+003, 2.823921e-002
2.911985e+003, 2.916340e-002
2.913913e+003, 2.977627e-002
2.915842e+003, 3.036891e-002
2.917770e+003, 3.131225e-002
2.919698e+003, 3.243340e-002
2.921627e+003, 3.314863e-002
2.923555e+003, 3.403279e-002
2.925484e+003, 3.461503e-002
2.927412e+003, 3.424285e-002
2.929341e+003, 3.358211e-002
2.931269e+003, 3.264802e-002
2.933198e+003, 3.191185e-002
2.935126e+003, 3.153935e-002
2.937055e+003, 3.100720e-002
2.938983e+003, 3.075955e-002
2.940912e+003, 3.044044e-002
2.942840e+003, 3.001385e-002
2.944769e+003, 3.003855e-002
2.946697e+003, 3.000437e-002
2.948625e+003, 3.038554e-002
2.950554e+003, 3.115226e-002
2.952482e+003, 3.198278e-002
2.954411e+003, 3.253673e-002
2.956339e+003, 3.218501e-002
2.958268e+003, 3.185855e-002
2.960196e+003, 3.213314e-002
2.962125e+003, 3.216810e-002
2.964053e+003, 3.160900e-002
2.965982e+003, 3.107390e-002
2.967910e+003, 3.075773e-002
2.969839e+003, 3.054093e-002
2.971767e+003, 3.006687e-002
2.973696e+003, 2.987131e-002
2.975624e+003, 2.991998e-002
2.977552e+003, 2.955942e-002
2.979481e+003, 2.950003e-002
2.981409e+003, 2.993287e-002
2.983338e+003, 3.017786e-002
2.985266e+003, 3.019123e-002
2.987195e+003, 3.021552e-002
2.989123e+003, 3.054145e-002
2.991052e+003, 3.062238e-002
2.992980e+003, 3.069221e-002
2.994909e+003, 3.070350e-002
2.996837e+003, 3.094026e-002
2.998766e+003, 3.139129e-002
3.000694e+003, 3.180184e-002
3.002623e+003, 3.196984e-002
3.004551e+003, 3.204745e-002
3.006479e+003, 3.211837e-002
3.008408e+003, 3.222655e-002
3.010336e+003, 3.224980e-002
3.012265e+003, 3.179297e-002
3.014193e+003, 3.114912e-002
3.016122e+003, 3.063991e-002
3.018050e+003, 3.147255e-002
3.019979e+003, 3.255351e-002
3.021907e+003, 3.295857e-002
3.023836e+003, 3.335304e-002
3.025764e+003, 3.382946e-002
3.027693e+003, 3.381245e-002
3.029621e+003, 3.393734e-002
3.031550e+003, 3.463620e-002
3.033478e+003, 3.495331e-002
3.035406e+003, 3.477710e-002
3.037335e+003, 3.456077e-002
3.039263e+003, 3.498152e-002
3.041192e+003, 3.563486e-002
3.043120e+003, 3.562240e-002
3.045049e+003, 3.548011e-002
3.046977e+003, 3.567737e-002
3.048906e+003, 3.602112e-002
3.050834e+003, 3.616121e-002
3.052763e+003, 3.630792e-002
3.054691e+003, 3.640068e-002
3.056620e+003, 3.613769e-002
3.058548e+003, 3.667047e-002
3.060477e+003, 3.758915e-002
3.062405e+003, 3.779764e-002
3.064333e+003, 3.785020e-002
3.066262e+003, 3.752552e-002
3.068190e+003, 3.744974e-002
3.070119e+003, 3.800699e-002
3.072047e+003, 3.855569e-002
3.073976e+003, 3.892279e-002
3.075904e+003, 3.865077e-002
3.077833e+003, 3.854340e-002
3.079761e+003, 3.912519e-002
3.081690e+003, 3.961945e-002
3.083618e+003, 4.012353e-002
3.085547e+003, 4.004194e-002
3.087475e+003, 4.058474e-002
3.089404e+003, 4.120594e-002
3.091332e+003, 4.112219e-002
3.093260e+003, 4.104962e-002
3.095189e+003, 4.165057e-002
3.097117e+003, 4.246291e-002
3.099046e+003, 4.286500e-002
3.100974e+003, 4.345783e-002
3.102903e+003, 4.360243e-002
3.104831e+003, 4.390874e-002
3.106760e+003, 4.477739e-002
3.108688e+003, 4.501009e-002
3.110617e+003, 4.503817e-002
3.112545e+003, 4.500898e-002
3.114474e+003, 4.569115e-002
3.116402e+003, 4.614932e-002
3.118331e+003, 4.630410e-002
3.120259e+003, 4.623672e-002
3.122188e+003, 4.648691e-002
3.124116e+003, 4.734301e-002
3.126044e+003, 4.718899e-002
3.127973e+003, 4.684725e-002
3.129901e+003, 4.670861e-002
3.131830e+003, 4.692454e-002
3.133758e+003, 4.737012e-002
3.135687e+003, 4.745051e-002
3.137615e+003, 4.738824e-002
3.139544e+003, 4.690042e-002
3.141472e+003, 4.646139e-002
3.143401e+003, 4.625517e-002
3.145329e+003, 4.648025e-002
3.147258e+003, 4.666545e-002
3.149186e+003, 4.650506e-002
3.151115e+003, 4.609392e-002
3.153043e+003, 4.578909e-002
3.154971e+003, 4.564616e-002
3.156900e+003, 4.533588e-002
3.158828e+003, 4.515139e-002
3.160757e+003, 4.481409e-002
3.162685e+003, 4.444594e-002
3.164614e+003, 4.396590e-002
3.166542e+003, 4.341059e-002
3.168471e+003, 4.339982e-002
3.170399e+003, 4.324427e-002
3.172328e+003, 4.304146e-002
3.174256e+003, 4.321437e-002
3.176185e+003, 4.291821e-002
3.178113e+003, 4.271774e-002
3.180042e+003, 4.321359e-002
3.181970e+003, 4.335406e-002
3.183898e+003, 4.249068e-002
3.185827e+003, 4.185221e-002
3.187755e+003, 4.173399e-002
3.189684e+003, 4.201059e-002
3.191612e+003, 4.263590e-002
3.193541e+003, 4.271223e-002
3.195469e+003, 4.217109e-002
3.197398e+003, 4.180534e-002
3.199326e+003, 4.185399e-002
3.201255e+003, 4.193882e-002
3.203183e+003, 4.198175e-002
3.205112e+003, 4.201857e-002
3.207040e+003, 4.214903e-002
3.208969e+003, 4.226770e-002
3.210897e+003, 4.175830e-002
3.212825e+003, 4.131472e-002
3.214754e+003, 4.146377e-002
3.216682e+003, 4.137912e-002
3.218611e+003, 4.155107e-002
3.220539e+003, 4.173234e-002
3.222468e+003, 4.157622e-002
3.224396e+003, 4.178242e-002
3.226325e+003, 4.162057e-002
3.228253e+003, 4.171138e-002
3.230182e+003, 4.177604e-002
3.232110e+003, 4.202855e-002
3.234039e+003, 4.239697e-002
3.235967e+003, 4.244198e-002
3.237896e+003, 4.243005e-002
3.239824e+003, 4.227373e-002
3.241752e+003, 4.187098e-002
3.243681e+003, 4.160480e-002
3.245609e+003, 4.157222e-002
3.247538e+003, 4.162278e-002
3.249466e+003, 4.207022e-002
3.251395e+003, 4.210244e-002
3.253323e+003, 4.235604e-002
3.255252e+003, 4.300770e-002
3.257180e+003, 4.300853e-002
3.259109e+003, 4.291828e-002
3.261037e+003, 4.314532e-002
3.262966e+003, 4.342348e-002
3.264894e+003, 4.369493e-002
3.266823e+003, 4.384002e-002
3.268751e+003, 4.388249e-002
3.270679e+003, 4.400053e-002
3.272608e+003, 4.449264e-002
3.274536e+003, 4.519467e-002
3.276465e+003, 4.527211e-002
3.278393e+003, 4.480023e-002
3.280322e+003, 4.498827e-002
3.282250e+003, 4.589982e-002
3.284179e+003, 4.643420e-002
3.286107e+003, 4.647838e-002
3.288036e+003, 4.629312e-002
3.289964e+003, 4.646064e-002
3.291893e+003, 4.720752e-002
3.293821e+003, 4.734693e-002
3.295750e+003, 4.682917e-002
3.297678e+003, 4.750897e-002
3.299606e+003, 4.842197e-002
3.301535e+003, 4.883679e-002
3.303463e+003, 4.881713e-002
3.305392e+003, 4.927517e-002
3.307320e+003, 4.980045e-002
3.309249e+003, 5.026039e-002
3.311177e+003, 5.087803e-002
3.313106e+003, 5.121230e-002
3.315034e+003, 5.135224e-002
3.316963e+003, 5.153912e-002
3.318891e+003, 5.235152e-002
3.320820e+003, 5.325571e-002
3.322748e+003, 5.393110e-002
3.324677e+003, 5.414097e-002
3.326605e+003, 5.470658e-002
3.328533e+003, 5.564430e-002
3.330462e+003, 5.598891e-002
3.332390e+003, 5.683326e-002
3.334319e+003, 5.774501e-002
3.336247e+003, 5.854434e-002
3.338176e+003, 5.893011e-002
3.340104e+003, 5.957763e-002
3.342033e+003, 5.999610e-002
3.343961e+003, 6.063309e-002
3.345890e+003, 6.183312e-002
3.347818e+003, 6.268574e-002
3.349747e+003, 6.319801e-002
3.351675e+003, 6.440981e-002
3.353604e+003, 6.517462e-002
3.355532e+003, 6.618681e-002
3.357460e+003, 6.705854e-002
3.359389e+003, 6.777416e-002
3.361317e+003, 6.884354e-002
3.363246e+003, 6.993434e-002
3.365174e+003, 7.064206e-002
3.367103e+003, 7.180589e-002
3.369031e+003, 7.301132e-002
3.370960e+003, 7.418694e-002
3.372888e+003, 7.490005e-002
3.374817e+003, 7.583219e-002
3.376745e+003, 7.709366e-002
3.378674e+003, 7.843643e-002
3.380602e+003, 7.953479e-002
3.382531e+003, 8.038355e-002
3.384459e+003, 8.152616e-002
3.386387e+003, 8.266387e-002
3.388316e+003, 8.337560e-002
3.390244e+003, 8.440405e-002
3.392173e+003, 8.595081e-002
3.394101e+003, 8.675227e-002
3.396030e+003, 8.783860e-002
3.397958e+003, 8.907057e-002
3.399887e+003, 8.998501e-002
3.401815e+003, 9.103674e-002
3.403744e+003, 9.237284e-002
3.405672e+003, 9.300204e-002
3.407601e+003, 9.358700e-002
3.409529e+003, 9.417348e-002
3.411458e+003, 9.386273e-002
3.413386e+003, 9.369609e-002
3.415314e+003, 9.346981e-002
3.417243e+003, 9.262814e-002
3.419171e+003, 9.161118e-002
3.421100e+003, 9.054665e-002
3.423028e+003, 8.910825e-002
3.424957e+003, 8.737139e-002
3.426885e+003, 8.600744e-002
3.428814e+003, 8.477780e-002
3.430742e+003, 8.392141e-002
3.432671e+003, 8.239298e-002
3.434599e+003, 8.121276e-002
3.436528e+003, 8.066747e-002
3.438456e+003, 7.900449e-002
3.440385e+003, 7.755705e-002
3.442313e+003, 7.700245e-002
3.444241e+003, 7.696671e-002
3.446170e+003, 7.628218e-002
3.448098e+003, 7.553036e-002
3.450027e+003, 7.475645e-002
3.451955e+003, 7.447143e-002
3.453884e+003, 7.437938e-002
3.455812e+003, 7.377642e-002
3.457741e+003, 7.324471e-002
3.459669e+003, 7.287886e-002
3.461598e+003, 7.278856e-002
3.463526e+003, 7.323865e-002
3.465455e+003, 7.380155e-002
3.467383e+003, 7.379515e-002
3.469312e+003, 7.337976e-002
3.471240e+003, 7.329527e-002
3.473168e+003, 7.354267e-002
3.475097e+003, 7.428273e-002
3.477025e+003, 7.477730e-002
3.478954e+003, 7.469019e-002
3.480882e+003, 7.511864e-002
3.482811e+003, 7.517268e-002
3.484739e+003, 7.503200e-002
3.486668e+003, 7.599697e-002
3.488596e+003, 7.711092e-002
3.490525e+003, 7.856053e-002
3.492453e+003, 7.882946e-002
3.494382e+003, 7.855015e-002
3.496310e+003, 7.847207e-002
3.498239e+003, 7.915012e-002
3.500167e+003, 8.005638e-002
3.502095e+003, 8.041955e-002
3.504024e+003, 8.144602e-002
3.505952e+003, 8.302575e-002
3.507881e+003, 8.378061e-002
3.509809e+003, 8.438011e-002
3.511738e+003, 8.521710e-002
3.513666e+003, 8.614717e-002
3.515595e+003, 8.692899e-002
3.517523e+003, 8.746614e-002
3.519452e+003, 8.884241e-002
3.521380e+003, 9.021846e-002
3.523309e+003, 9.113823e-002
3.525237e+003, 9.240891e-002
3.527166e+003, 9.366812e-002
3.529094e+003, 9.409110e-002
3.531022e+003, 9.538798e-002
3.532951e+003, 9.688521e-002
3.534879e+003, 9.756644e-002
3.536808e+003, 9.821188e-002
3.538736e+003, 9.943999e-002
3.540665e+003, 1.004440e-001
3.542593e+003, 1.012092e-001
3.544522e+003, 1.021106e-001
3.546450e+003, 1.025937e-001
3.548379e+003, 1.017014e-001
3.550307e+003, 1.020013e-001
3.552236e+003, 1.027797e-001
3.554164e+003, 1.023303e-001
3.556093e+003, 1.012199e-001
3.558021e+003, 1.004978e-001
3.559949e+003, 1.002298e-001
3.561878e+003, 9.927786e-002
3.563806e+003, 9.774807e-002
3.565735e+003, 9.556008e-002
3.567663e+003, 9.390056e-002
3.569592e+003, 9.167156e-002
3.571520e+003, 9.008103e-002
3.573449e+003, 8.898956e-002
3.575377e+003, 8.756588e-002
3.577306e+003, 8.597789e-002
3.579234e+003, 8.434191e-002
3.581163e+003, 8.254465e-002
3.583091e+003, 8.020636e-002
3.585020e+003, 7.838660e-002
3.586948e+003, 7.702141e-002
3.588876e+003, 7.547747e-002
3.590805e+003, 7.364380e-002
3.592733e+003, 7.189601e-002
3.594662e+003, 7.011521e-002
3.596590e+003, 6.802286e-002
3.598519e+003, 6.645758e-002
3.600447e+003, 6.543891e-002
3.602376e+003, 6.401730e-002
3.604304e+003, 6.193447e-002
3.606233e+003, 6.078559e-002
3.608161e+003, 5.974883e-002
3.610090e+003, 5.784478e-002
3.612018e+003, 5.566660e-002
3.613947e+003, 5.415288e-002
3.615875e+003, 5.320396e-002
3.617803e+003, 5.338839e-002
3.619732e+003, 5.305106e-002
3.621660e+003, 5.172722e-002
3.623589e+003, 4.968478e-002
3.625517e+003, 4.799327e-002
3.627446e+003, 4.775954e-002
3.629374e+003, 4.728444e-002
3.631303e+003, 4.543292e-002
3.633231e+003, 4.409618e-002
3.635160e+003, 4.384917e-002
3.637088e+003, 4.322326e-002
3.639017e+003, 4.185837e-002
3.640945e+003, 4.052824e-002
3.642874e+003, 3.951994e-002
3.644802e+003, 3.899782e-002
3.646730e+003, 3.885667e-002
3.648659e+003, 3.806315e-002
3.650587e+003, 3.708975e-002
3.652516e+003, 3.669260e-002
3.654444e+003, 3.612874e-002
3.656373e+003, 3.525728e-002
3.658301e+003, 3.434621e-002
3.660230e+003, 3.332983e-002
3.662158e+003, 3.270362e-002
3.664087e+003, 3.236330e-002
3.666015e+003, 3.164933e-002
3.667944e+003, 3.065240e-002
3.669872e+003, 2.983073e-002
3.671801e+003, 2.925840e-002
3.673729e+003, 2.853029e-002
3.675657e+003, 2.782924e-002
3.677586e+003, 2.671771e-002
3.679514e+003, 2.550148e-002
3.681443e+003, 2.428106e-002
3.683371e+003, 2.271206e-002
3.685300e+003, 2.172769e-002
3.687228e+003, 2.019980e-002
3.689157e+003, 1.740815e-002
3.691085e+003, 1.484200e-002
3.693014e+003, 1.260259e-002
3.694942e+003, 1.098117e-002
3.696871e+003, 9.808246e-003
3.698799e+003, 9.047653e-003
3.700728e+003, 8.304499e-003
3.702656e+003, 6.746729e-003
3.704584e+003, 6.507019e-003
3.706513e+003, 6.831589e-003
3.708441e+003, 7.075241e-003
3.710370e+003, 6.900703e-003
3.712298e+003, 6.372400e-003
3.714227e+003, 6.053965e-003
3.716155e+003, 5.407580e-003
3.718084e+003, 4.807378e-003
3.720012e+003, 4.958055e-003
3.721941e+003, 5.057793e-003
3.723869e+003, 4.965822e-003
3.725798e+003, 4.346340e-003
3.727726e+003, 4.309903e-003
3.729655e+003, 4.776657e-003
3.731583e+003, 4.497117e-003
3.733511e+003, 4.835953e-003
3.735440e+003, 5.391901e-003
3.737368e+003, 4.936767e-003
3.739297e+003, 5.023042e-003
3.741225e+003, 4.871186e-003
3.743154e+003, 4.964848e-003
3.745082e+003, 5.264517e-003
3.747011e+003, 4.920724e-003
3.748939e+003, 4.859450e-003
3.750868e+003, 4.897210e-003
3.752796e+003, 4.520615e-003
3.754725e+003, 3.544034e-003
3.756653e+003, 3.505658e-003
3.758582e+003, 4.173150e-003
3.760510e+003, 4.217985e-003
3.762438e+003, 4.165766e-003
3.764367e+003, 4.530559e-003
3.766295e+003, 4.402966e-003
3.768224e+003, 4.226570e-003
3.770152e+003, 3.943933e-003
3.772081e+003, 3.836821e-003
3.774009e+003, 4.107506e-003
3.775938e+003, 4.634955e-003
3.777866e+003, 4.943254e-003
3.779795e+003, 4.544962e-003
3.781723e+003, 3.860994e-003
3.783652e+003, 4.467606e-003
3.785580e+003, 4.926126e-003
3.787509e+003, 4.203635e-003
3.789437e+003, 4.179837e-003
3.791365e+003, 5.091127e-003
3.793294e+003, 4.996243e-003
3.795222e+003, 4.064157e-003
3.797151e+003, 4.323516e-003
3.799079e+003, 4.762446e-003
3.801008e+003, 5.230472e-003
3.802936e+003, 4.516688e-003
3.804865e+003, 5.300528e-003
3.806793e+003, 6.245292e-003
3.808722e+003, 5.567845e-003
3.810650e+003, 5.198613e-003
3.812579e+003, 4.992165e-003
3.814507e+003, 5.252166e-003
3.816436e+003, 5.546740e-003
3.818364e+003, 5.164973e-003
3.820292e+003, 4.969753e-003
3.822221e+003, 4.752780e-003
3.824149e+003, 4.640297e-003
3.826078e+003, 5.014911e-003
3.828006e+003, 4.819359e-003
3.829935e+003, 4.471202e-003
3.831863e+003, 4.481606e-003
3.833792e+003, 4.811610e-003
3.835720e+003, 4.987901e-003
3.837649e+003, 5.328919e-003
3.839577e+003, 5.693723e-003
3.841506e+003, 5.407316e-003
3.843434e+003, 4.967532e-003
3.845363e+003, 4.947144e-003
3.847291e+003, 4.210546e-003
3.849219e+003, 4.477616e-003
3.851148e+003, 5.317741e-003
3.853076e+003, 5.545456e-003
3.855005e+003, 5.289118e-003
3.856933e+003, 4.897992e-003
3.858862e+003, 4.961222e-003
3.860790e+003, 5.107034e-003
3.862719e+003, 5.401170e-003
3.864647e+003, 5.603254e-003
3.866576e+003, 5.292190e-003
3.868504e+003, 5.779274e-003
3.870433e+003, 5.905326e-003
3.872361e+003, 5.369760e-003
3.874290e+003, 5.777002e-003
3.876218e+003, 6.484223e-003
3.878146e+003, 6.014753e-003
3.880075e+003, 5.785150e-003
3.882003e+003, 5.840948e-003
3.883932e+003, 6.367989e-003
3.885860e+003, 6.878908e-003
3.887789e+003, 5.525028e-003
3.889717e+003, 5.164999e-003
3.891646e+003, 5.012751e-003
3.893574e+003, 4.873706e-003
3.895503e+003, 4.963247e-003
3.897431e+003, 5.006784e-003
3.899360e+003, 5.493727e-003
3.901288e+003, 5.822400e-003
3.903217e+003, 6.200783e-003
3.905145e+003, 5.913886e-003
3.907073e+003, 5.563513e-003
3.909002e+003, 5.535992e-003
3.910930e+003, 5.150068e-003
3.912859e+003, 5.054309e-003
3.914787e+003, 6.216282e-003
3.916716e+003, 6.747760e-003
3.918644e+003, 5.897613e-003
3.920573e+003, 5.274298e-003
3.922501e+003, 4.922981e-003
3.924430e+003, 4.890743e-003
3.926358e+003, 5.072176e-003
3.928287e+003, 5.983038e-003
3.930215e+003, 6.226087e-003
3.932144e+003, 5.413641e-003
3.934072e+003, 5.114545e-003
3.936000e+003, 4.902558e-003
3.937929e+003, 5.091734e-003
3.939857e+003, 5.203056e-003
3.941786e+003, 4.714171e-003
3.943714e+003, 4.716250e-003
3.945643e+003, 5.342318e-003
3.947571e+003, 5.063807e-003
3.949500e+003, 4.752246e-003
3.951428e+003, 5.087999e-003
3.953357e+003, 5.269455e-003
3.955285e+003, 4.705568e-003
3.957214e+003, 4.547487e-003
3.959142e+003, 4.775333e-003
3.961071e+003, 5.598106e-003
3.962999e+003, 5.856846e-003
3.964927e+003, 5.469450e-003
3.966856e+003, 4.822595e-003
3.968784e+003, 4.464215e-003
3.970713e+003, 4.680907e-003
3.972641e+003, 5.280050e-003
3.974570e+003, 5.439861e-003
3.976498e+003, 4.977862e-003
3.978427e+003, 5.406334e-003
3.980355e+003, 5.600830e-003
3.982284e+003, 5.724057e-003
3.984212e+003, 5.961332e-003
3.986141e+003, 6.400093e-003
3.988069e+003, 6.373527e-003
3.989998e+003, 5.999829e-003
3.991926e+003, 6.189404e-003
3.993854e+003, 6.271980e-003
3.995783e+003, 6.084520e-003
3.997711e+003, 5.384045e-003
3.999640e+003, 4.610504e-003
4.001568e+003, 0.000000e+000
##END=



