##NAMES=Pyrargyrite
##RRUFFID=R050318
##IDEAL CHEMISTRY=Ag^1+^_3_Sb^3+^S^2-^_3_
##LOCALITY=unknown
##OWNER=RRUFF
##SOURCE=Eugene Schlepp
##DESCRIPTION=Black prismatic crystal
##STATUS=The identification of this mineral has been confirmed by X-ray diffraction and chemical analysis
##URL=rruff.info/R050318
##MEASURED CHEMISTRY=Ag_3.00_Sb_1.00_S_3.00_
399.1926, 0.1454472
401.1211, 0.1527094
403.0496, 0.1534435
404.9780, 0.1586127
406.9065, 0.1562340
408.8350, 0.1572230
410.7634, 0.1622171
412.6919, 0.1648229
414.6204, 0.1694012
416.5488, 0.1714482
418.4773, 0.1742742
420.4058, 0.1767877
422.3342, 0.1769837
424.2627, 0.1780608
426.1912, 0.1788831
428.1196, 0.1791264
430.0481, 0.1819751
431.9766, 0.1874165
433.9050, 0.1917900
435.8335, 0.1949116
437.7620, 0.1993085
439.6904, 0.2003491
441.6189, 0.2018202
443.5474, 0.2045546
445.4758, 0.2043748
447.4043, 0.2049782
449.3328, 0.2061551
451.2612, 0.2089662
453.1897, 0.2120872
455.1182, 0.2149757
457.0466, 0.2173269
458.9751, 0.2195146
460.9036, 0.2220488
462.8320, 0.2216842
464.7605, 0.2235006
466.6890, 0.2260210
468.6174, 0.2260789
470.5459, 0.2246318
472.4744, 0.2234419
474.4028, 0.2240895
476.3313, 0.2242596
478.2598, 0.2236581
480.1882, 0.2245829
482.1167, 0.2248494
484.0452, 0.2245386
485.9736, 0.2260234
487.9021, 0.2270097
489.8306, 0.2276259
491.7590, 0.2303171
493.6875, 0.2324121
495.6160, 0.2321958
497.5444, 0.2326944
499.4729, 0.2345763
501.4014, 0.2362330
503.3298, 0.2390685
505.2583, 0.2412160
507.1868, 0.2421735
509.1152, 0.2422260
511.0437, 0.2414352
512.9722, 0.2409501
514.9006, 0.2416261
516.8291, 0.2418886
518.7576, 0.2413867
520.6860, 0.2415323
522.6145, 0.2430656
524.5430, 0.2446823
526.4714, 0.2449024
528.3999, 0.2452956
530.3284, 0.2462783
532.2568, 0.2472785
534.1853, 0.2478530
536.1138, 0.2486451
538.0422, 0.2502568
539.9707, 0.2510287
541.8992, 0.2506700
543.8276, 0.2522522
545.7561, 0.2542075
547.6846, 0.2542805
549.6130, 0.2544169
551.5415, 0.2551395
553.4700, 0.2563585
555.3984, 0.2572117
557.3269, 0.2576228
559.2554, 0.2578456
561.1838, 0.2573020
563.1123, 0.2571915
565.0408, 0.2582943
566.9692, 0.2597600
568.8977, 0.2603636
570.8262, 0.2601547
572.7546, 0.2605716
574.6831, 0.2611387
576.6116, 0.2621866
578.5400, 0.2633996
580.4685, 0.2651798
582.3970, 0.2665158
584.3254, 0.2672563
586.2539, 0.2682225
588.1824, 0.2689017
590.1108, 0.2696958
592.0393, 0.2703509
593.9678, 0.2718247
595.8962, 0.2734812
597.8247, 0.2745185
599.7532, 0.2756527
601.6816, 0.2757139
603.6101, 0.2773268
605.5386, 0.2793575
607.4670, 0.2808225
609.3955, 0.2808666
611.3240, 0.2815563
613.2524, 0.2826239
615.1809, 0.2825651
617.1094, 0.2827972
619.0378, 0.2834336
620.9663, 0.2843373
622.8948, 0.2854380
624.8232, 0.2860111
626.7517, 0.2870138
628.6802, 0.2876901
630.6086, 0.2885316
632.5371, 0.2888533
634.4656, 0.2898520
636.3940, 0.2914300
638.3225, 0.2927252
640.2510, 0.2928421
642.1794, 0.2932991
644.1079, 0.2937118
646.0364, 0.2939267
647.9648, 0.2948886
649.8933, 0.2957863
651.8218, 0.2951792
653.7502, 0.2950173
655.6787, 0.2961042
657.6072, 0.2970573
659.5356, 0.2975662
661.4641, 0.2977443
663.3926, 0.2976184
665.3210, 0.2984142
667.2495, 0.3000754
669.1780, 0.3001778
671.1064, 0.3003011
673.0349, 0.3007664
674.9634, 0.3013510
676.8918, 0.3023482
678.8203, 0.3026473
680.7488, 0.3030898
682.6772, 0.3043378
684.6057, 0.3051844
686.5342, 0.3055273
688.4626, 0.3062836
690.3911, 0.3063243
692.3196, 0.3065158
694.2480, 0.3073730
696.1765, 0.3079577
698.1050, 0.3084892
700.0334, 0.3096130
701.9619, 0.3105225
703.8904, 0.3112303
705.8188, 0.3114515
707.7473, 0.3113771
709.6758, 0.3124000
711.6042, 0.3128785
713.5327, 0.3130147
715.4612, 0.3139134
717.3896, 0.3145011
719.3181, 0.3144381
721.2466, 0.3148286
723.1750, 0.3157043
725.1035, 0.3168558
727.0320, 0.3175834
728.9604, 0.3180099
730.8889, 0.3189763
732.8174, 0.3197665
734.7458, 0.3206324
736.6743, 0.3209305
738.6028, 0.3217783
740.5313, 0.3227212
742.4597, 0.3230172
744.3882, 0.3237840
746.3167, 0.3240451
748.2451, 0.3245509
750.1736, 0.3262898
752.1021, 0.3269037
754.0305, 0.3271798
755.9590, 0.3282860
757.8875, 0.3287524
759.8159, 0.3286696
761.7444, 0.3289928
763.6729, 0.3293363
765.6013, 0.3299500
767.5298, 0.3304609
769.4583, 0.3305076
771.3867, 0.3304283
773.3152, 0.3313455
775.2437, 0.3322310
777.1721, 0.3331931
779.1006, 0.3342445
781.0291, 0.3342561
782.9575, 0.3345584
784.8860, 0.3355010
786.8145, 0.3357335
788.7429, 0.3361570
790.6714, 0.3366407
792.5999, 0.3376003
794.5283, 0.3391989
796.4568, 0.3402408
798.3853, 0.3402101
800.3137, 0.3404886
802.2422, 0.3413367
804.1707, 0.3413933
806.0991, 0.3420868
808.0276, 0.3436144
809.9561, 0.3448507
811.8845, 0.3456119
813.8130, 0.3459833
815.7415, 0.3461412
817.6699, 0.3471883
819.5984, 0.3484614
821.5269, 0.3489172
823.4553, 0.3497167
825.3838, 0.3510253
827.3123, 0.3525589
829.2407, 0.3538435
831.1692, 0.3542735
833.0977, 0.3542709
835.0261, 0.3543330
836.9546, 0.3548666
838.8831, 0.3558485
840.8115, 0.3565670
842.7400, 0.3571311
844.6685, 0.3577755
846.5969, 0.3587127
848.5254, 0.3593405
850.4539, 0.3597544
852.3823, 0.3599366
854.3108, 0.3603884
856.2393, 0.3619097
858.1677, 0.3630498
860.0962, 0.3636049
862.0247, 0.3638761
863.9531, 0.3643647
865.8816, 0.3651052
867.8101, 0.3661184
869.7385, 0.3674382
871.6670, 0.3687616
873.5955, 0.3694869
875.5239, 0.3701158
877.4524, 0.3712967
879.3809, 0.3723181
881.3093, 0.3733075
883.2378, 0.3738763
885.1663, 0.3747460
887.0947, 0.3759980
889.0232, 0.3768559
890.9517, 0.3774217
892.8801, 0.3777515
894.8085, 0.3783484
896.7370, 0.3794567
898.6655, 0.3803799
900.5939, 0.3814868
902.5224, 0.3826780
904.4509, 0.3836303
906.3793, 0.3840349
908.3078, 0.3846508
910.2363, 0.3859957
912.1647, 0.3876021
914.0932, 0.3886006
916.0217, 0.3890131
917.9501, 0.3895361
919.8786, 0.3901699
921.8071, 0.3900641
923.7355, 0.3900032
925.6640, 0.3905628
927.5925, 0.3909980
929.5209, 0.3916472
931.4494, 0.3926834
933.3779, 0.3938742
935.3063, 0.3943178
937.2348, 0.3944696
939.1633, 0.3948939
941.0917, 0.3959853
943.0202, 0.3978139
944.9487, 0.3989953
946.8771, 0.3987692
948.8056, 0.3988255
950.7341, 0.3989473
952.6625, 0.3989601
954.5910, 0.3996100
956.5195, 0.3996381
958.4479, 0.3991281
960.3764, 0.3994904
962.3049, 0.4000803
964.2333, 0.4002726
966.1618, 0.3999991
968.0903, 0.4002078
970.0187, 0.4006917
971.9472, 0.4014564
973.8757, 0.4021143
975.8041, 0.4027522
977.7326, 0.4032145
979.6611, 0.4036768
981.5895, 0.4045117
983.5180, 0.4048655
985.4465, 0.4049829
987.3749, 0.4056764
989.3034, 0.4064665
991.2319, 0.4066653
993.1603, 0.4062745
995.0888, 0.4057479
997.0173, 0.4058571
998.9457, 0.4057918
1000.874, 0.4055443
1002.803, 0.4052008
1004.731, 0.4050179
1006.660, 0.4049004
1008.588, 0.4044718
1010.517, 0.4042222
1012.445, 0.4043762
1014.373, 0.4046004
1016.302, 0.4043416
1018.230, 0.4045212
1020.159, 0.4046491
1022.087, 0.4047580
1024.016, 0.4049774
1025.944, 0.4052425
1027.873, 0.4062295
1029.801, 0.4069834
1031.730, 0.4080130
1033.658, 0.4093607
1035.587, 0.4100980
1037.515, 0.4104968
1039.444, 0.4109808
1041.372, 0.4117011
1043.301, 0.4115894
1045.229, 0.4113211
1047.157, 0.4122347
1049.086, 0.4129289
1051.014, 0.4125077
1052.943, 0.4121551
1054.871, 0.4118692
1056.800, 0.4122140
1058.728, 0.4124141
1060.657, 0.4120746
1062.585, 0.4119156
1064.514, 0.4118130
1066.442, 0.4118367
1068.371, 0.4116889
1070.299, 0.4116537
1072.228, 0.4117473
1074.156, 0.4114439
1076.084, 0.4116933
1078.013, 0.4121481
1079.941, 0.4125527
1081.870, 0.4125674
1083.798, 0.4125616
1085.727, 0.4126759
1087.655, 0.4131708
1089.584, 0.4140548
1091.512, 0.4147406
1093.441, 0.4154048
1095.369, 0.4162701
1097.298, 0.4164314
1099.226, 0.4162804
1101.155, 0.4168065
1103.083, 0.4173642
1105.011, 0.4172318
1106.940, 0.4171951
1108.868, 0.4172797
1110.797, 0.4171273
1112.725, 0.4166308
1114.654, 0.4166070
1116.582, 0.4170440
1118.511, 0.4176756
1120.439, 0.4179186
1122.368, 0.4179101
1124.296, 0.4179417
1126.225, 0.4185025
1128.153, 0.4193257
1130.082, 0.4196024
1132.010, 0.4197775
1133.938, 0.4200680
1135.867, 0.4208260
1137.795, 0.4219892
1139.724, 0.4224179
1141.652, 0.4228912
1143.581, 0.4242168
1145.509, 0.4246514
1147.438, 0.4250706
1149.366, 0.4255587
1151.295, 0.4258563
1153.223, 0.4256097
1155.152, 0.4260053
1157.080, 0.4267623
1159.009, 0.4267095
1160.937, 0.4267260
1162.865, 0.4268579
1164.794, 0.4262487
1166.722, 0.4266197
1168.651, 0.4271312
1170.579, 0.4269099
1172.508, 0.4267685
1174.436, 0.4273725
1176.365, 0.4281772
1178.293, 0.4285915
1180.222, 0.4290420
1182.150, 0.4295664
1184.079, 0.4301960
1186.007, 0.4310942
1187.936, 0.4316847
1189.864, 0.4318219
1191.792, 0.4323508
1193.721, 0.4327233
1195.649, 0.4330206
1197.578, 0.4334182
1199.506, 0.4338045
1201.435, 0.4343578
1203.363, 0.4348561
1205.292, 0.4352519
1207.220, 0.4358608
1209.149, 0.4362998
1211.077, 0.4369610
1213.006, 0.4373896
1214.934, 0.4378700
1216.863, 0.4384764
1218.791, 0.4384917
1220.719, 0.4389662
1222.648, 0.4394763
1224.576, 0.4397106
1226.505, 0.4400776
1228.433, 0.4404564
1230.362, 0.4405746
1232.290, 0.4406337
1234.219, 0.4407018
1236.147, 0.4413798
1238.076, 0.4419137
1240.004, 0.4423228
1241.933, 0.4424977
1243.861, 0.4423555
1245.790, 0.4427337
1247.718, 0.4433647
1249.646, 0.4433047
1251.575, 0.4436589
1253.503, 0.4442715
1255.432, 0.4443171
1257.360, 0.4443554
1259.289, 0.4444865
1261.217, 0.4448745
1263.146, 0.4449391
1265.074, 0.4447296
1267.003, 0.4449856
1268.931, 0.4452154
1270.860, 0.4455404
1272.788, 0.4463891
1274.717, 0.4471143
1276.645, 0.4474173
1278.573, 0.4476072
1280.502, 0.4479460
1282.430, 0.4486825
1284.359, 0.4496180
1286.287, 0.4505174
1288.216, 0.4507408
1290.144, 0.4511772
1292.073, 0.4518832
1294.001, 0.4524020
1295.930, 0.4527260
1297.858, 0.4527389
1299.787, 0.4529210
1301.715, 0.4536377
1303.644, 0.4541180
1305.572, 0.4544685
1307.500, 0.4548049
1309.429, 0.4552896
1311.357, 0.4556690
1313.286, 0.4562618
1315.214, 0.4568919
1317.143, 0.4572676
1319.071, 0.4576432
1321.000, 0.4577202
1322.928, 0.4581025
1324.857, 0.4589967
1326.785, 0.4596910
1328.714, 0.4600359
1330.642, 0.4606971
1332.571, 0.4613143
1334.499, 0.4619007
1336.427, 0.4627647
1338.356, 0.4626056
1340.284, 0.4624616
1342.213, 0.4630733
1344.141, 0.4635620
1346.070, 0.4643084
1347.998, 0.4653897
1349.927, 0.4656584
1351.855, 0.4653662
1353.784, 0.4654686
1355.712, 0.4661678
1357.641, 0.4667922
1359.569, 0.4676277
1361.498, 0.4683896
1363.426, 0.4685434
1365.354, 0.4687101
1367.283, 0.4691794
1369.211, 0.4696057
1371.140, 0.4699406
1373.068, 0.4707065
1374.997, 0.4713413
1376.925, 0.4715037
1378.854, 0.4716136
1380.782, 0.4725448
1382.711, 0.4735614
1384.639, 0.4736616
1386.568, 0.4742927
1388.496, 0.4749721
1390.424, 0.4756703
1392.353, 0.4760872
1394.281, 0.4761137
1396.210, 0.4763854
1398.138, 0.4767161
1400.067, 0.4768169
1401.995, 0.4771974
1403.924, 0.4779052
1405.852, 0.4781440
1407.781, 0.4786461
1409.709, 0.4791862
1411.638, 0.4790832
1413.566, 0.4789078
1415.495, 0.4790995
1417.423, 0.4793354
1419.351, 0.4794550
1421.280, 0.4796793
1423.208, 0.4801695
1425.137, 0.4803236
1427.065, 0.4806626
1428.994, 0.4814835
1430.922, 0.4821742
1432.851, 0.4826944
1434.779, 0.4833689
1436.708, 0.4838061
1438.636, 0.4839131
1440.565, 0.4839734
1442.493, 0.4840563
1444.422, 0.4845796
1446.350, 0.4852846
1448.278, 0.4855398
1450.207, 0.4854746
1452.135, 0.4858580
1454.064, 0.4862787
1455.992, 0.4866606
1457.921, 0.4867850
1459.849, 0.4866899
1461.778, 0.4870596
1463.706, 0.4876572
1465.635, 0.4873184
1467.563, 0.4869189
1469.492, 0.4873424
1471.420, 0.4882865
1473.349, 0.4891359
1475.277, 0.4894367
1477.205, 0.4896135
1479.134, 0.4901266
1481.062, 0.4905382
1482.991, 0.4905580
1484.919, 0.4912739
1486.848, 0.4920395
1488.776, 0.4925795
1490.705, 0.4928927
1492.633, 0.4932378
1494.562, 0.4938150
1496.490, 0.4942725
1498.419, 0.4947059
1500.347, 0.4950348
1502.276, 0.4957789
1504.204, 0.4968509
1506.132, 0.4972876
1508.061, 0.4971500
1509.989, 0.4969487
1511.918, 0.4968356
1513.846, 0.4967397
1515.775, 0.4969166
1517.703, 0.4973253
1519.632, 0.4978266
1521.560, 0.4988530
1523.489, 0.4992960
1525.417, 0.4992816
1527.346, 0.4992970
1529.274, 0.4994157
1531.203, 0.4993343
1533.131, 0.4998359
1535.059, 0.5006318
1536.988, 0.5013665
1538.916, 0.5021651
1540.845, 0.5022323
1542.773, 0.5018940
1544.702, 0.5021142
1546.630, 0.5025103
1548.559, 0.5029281
1550.487, 0.5035018
1552.416, 0.5039752
1554.344, 0.5045667
1556.273, 0.5055326
1558.201, 0.5069251
1560.130, 0.5073083
1562.058, 0.5065054
1563.986, 0.5066482
1565.915, 0.5076192
1567.843, 0.5079536
1569.772, 0.5082176
1571.700, 0.5083020
1573.629, 0.5091017
1575.557, 0.5103512
1577.486, 0.5106035
1579.414, 0.5105473
1581.343, 0.5109520
1583.271, 0.5117787
1585.200, 0.5122102
1587.128, 0.5120167
1589.057, 0.5123905
1590.985, 0.5126269
1592.913, 0.5127185
1594.842, 0.5134766
1596.770, 0.5141759
1598.699, 0.5143729
1600.627, 0.5149286
1602.556, 0.5152307
1604.484, 0.5152594
1606.413, 0.5155159
1608.341, 0.5155954
1610.270, 0.5158311
1612.198, 0.5163960
1614.127, 0.5170805
1616.055, 0.5176476
1617.984, 0.5176958
1619.912, 0.5171083
1621.840, 0.5175551
1623.769, 0.5182566
1625.697, 0.5184062
1627.626, 0.5182591
1629.554, 0.5184337
1631.483, 0.5187084
1633.411, 0.5190387
1635.340, 0.5200374
1637.268, 0.5205065
1639.197, 0.5204353
1641.125, 0.5207720
1643.054, 0.5215154
1644.982, 0.5215557
1646.911, 0.5214342
1648.839, 0.5213577
1650.767, 0.5224219
1652.696, 0.5234869
1654.624, 0.5234458
1656.553, 0.5230350
1658.481, 0.5231124
1660.410, 0.5234690
1662.338, 0.5237976
1664.267, 0.5237603
1666.195, 0.5238487
1668.124, 0.5241344
1670.052, 0.5245887
1671.981, 0.5250142
1673.909, 0.5251356
1675.838, 0.5256368
1677.766, 0.5254786
1679.694, 0.5251929
1681.623, 0.5256358
1683.551, 0.5267119
1685.480, 0.5268868
1687.408, 0.5264176
1689.337, 0.5269954
1691.265, 0.5275357
1693.194, 0.5276635
1695.122, 0.5282889
1697.051, 0.5288268
1698.979, 0.5294365
1700.908, 0.5294139
1702.836, 0.5290300
1704.765, 0.5297440
1706.693, 0.5304720
1708.621, 0.5301780
1710.550, 0.5299563
1712.478, 0.5307863
1714.407, 0.5312034
1716.335, 0.5324544
1718.264, 0.5335967
1720.192, 0.5327244
1722.121, 0.5321490
1724.049, 0.5326134
1725.978, 0.5330117
1727.906, 0.5336018
1729.835, 0.5341088
1731.763, 0.5349814
1733.692, 0.5354527
1735.620, 0.5344914
1737.548, 0.5336781
1739.477, 0.5334066
1741.405, 0.5334246
1743.334, 0.5328786
1745.262, 0.5328851
1747.191, 0.5333262
1749.119, 0.5339853
1751.048, 0.5341551
1752.976, 0.5343290
1754.905, 0.5349176
1756.833, 0.5359973
1758.762, 0.5372732
1760.690, 0.5389320
1762.619, 0.5396006
1764.547, 0.5395633
1766.475, 0.5400713
1768.404, 0.5404592
1770.332, 0.5409279
1772.261, 0.5410550
1774.189, 0.5409175
1776.118, 0.5415092
1778.046, 0.5423222
1779.975, 0.5431094
1781.903, 0.5424109
1783.832, 0.5420586
1785.760, 0.5416132
1787.689, 0.5417254
1789.617, 0.5422243
1791.546, 0.5426121
1793.474, 0.5430023
1795.402, 0.5424807
1797.331, 0.5423049
1799.259, 0.5429329
1801.188, 0.5427738
1803.116, 0.5428129
1805.045, 0.5425308
1806.973, 0.5423461
1808.902, 0.5430118
1810.830, 0.5437581
1812.759, 0.5439178
1814.687, 0.5437870
1816.616, 0.5438163
1818.544, 0.5445105
1820.473, 0.5444946
1822.401, 0.5442536
1824.329, 0.5453575
1826.258, 0.5459989
1828.186, 0.5455574
1830.115, 0.5461950
1832.043, 0.5463010
1833.972, 0.5467603
1835.900, 0.5470483
1837.829, 0.5471987
1839.757, 0.5467274
1841.686, 0.5466738
1843.614, 0.5470725
1845.543, 0.5469136
1847.471, 0.5474053
1849.400, 0.5482432
1851.328, 0.5490491
1853.256, 0.5489001
1855.185, 0.5486830
1857.113, 0.5486954
1859.042, 0.5496893
1860.970, 0.5497053
1862.899, 0.5491567
1864.827, 0.5497596
1866.756, 0.5508974
1868.684, 0.5509934
1870.613, 0.5506383
1872.541, 0.5496950
1874.470, 0.5496060
1876.398, 0.5506099
1878.327, 0.5514572
1880.255, 0.5513757
1882.183, 0.5507842
1884.112, 0.5511760
1886.040, 0.5522515
1887.969, 0.5517132
1889.897, 0.5524658
1891.826, 0.5540648
1893.754, 0.5535001
1895.683, 0.5528642
1897.611, 0.5541829
1899.540, 0.5542432
1901.468, 0.5548455
1903.397, 0.5534987
1905.325, 0.5524351
1907.254, 0.5531101
1909.182, 0.5540344
1911.110, 0.5540580
1913.039, 0.5540582
1914.967, 0.5528560
1916.896, 0.5512457
1918.824, 0.5522923
1920.753, 0.5542637
1922.681, 0.5537596
1924.610, 0.5523264
1926.538, 0.5518943
1928.467, 0.5515217
1930.395, 0.5497402
1932.324, 0.5516284
1934.252, 0.5544620
1936.181, 0.5550714
1938.109, 0.5553420
1940.037, 0.5540913
1941.966, 0.5521477
1943.894, 0.5487435
1945.823, 0.5491604
1947.751, 0.5516168
1949.680, 0.5510427
1951.608, 0.5498381
1953.537, 0.5487707
1955.465, 0.5497690
1957.394, 0.5499701
1959.322, 0.5492432
1961.251, 0.5466930
1963.179, 0.5444846
1965.108, 0.5415569
1967.036, 0.5408425
1968.964, 0.5417004
1970.893, 0.5419198
1972.821, 0.5440442
1974.750, 0.5456374
1976.678, 0.5449370
1978.607, 0.5450982
1980.535, 0.5465648
1982.464, 0.5476527
1984.392, 0.5463793
1986.321, 0.5446142
1988.249, 0.5444044
1990.178, 0.5462378
1992.106, 0.5506588
1994.035, 0.5528024
1995.963, 0.5516784
1997.891, 0.5480834
1999.820, 0.5488463
2001.748, 0.5502723
2003.677, 0.5484886
2005.605, 0.5457026
2007.534, 0.5442953
2009.462, 0.5462214
2011.391, 0.5469227
2013.319, 0.5488884
2015.248, 0.5519600
2017.176, 0.5502538
2019.105, 0.5456383
2021.033, 0.5449082
2022.962, 0.5457544
2024.890, 0.5473662
2026.818, 0.5500976
2028.747, 0.5536192
2030.675, 0.5512173
2032.604, 0.5488405
2034.532, 0.5511676
2036.461, 0.5533299
2038.389, 0.5524457
2040.318, 0.5510527
2042.246, 0.5516851
2044.175, 0.5560705
2046.103, 0.5583480
2048.032, 0.5592946
2049.960, 0.5623308
2051.889, 0.5642539
2053.817, 0.5633444
2055.746, 0.5662900
2057.674, 0.5672469
2059.603, 0.5671302
2061.531, 0.5682158
2063.459, 0.5699891
2065.388, 0.5716134
2067.316, 0.5732744
2069.245, 0.5738025
2071.173, 0.5760077
2073.102, 0.5754895
2075.030, 0.5738280
2076.959, 0.5732808
2078.887, 0.5734652
2080.816, 0.5761408
2082.744, 0.5780042
2084.673, 0.5781398
2086.601, 0.5791637
2088.530, 0.5799891
2090.458, 0.5791238
2092.386, 0.5774349
2094.315, 0.5768394
2096.243, 0.5776987
2098.172, 0.5771954
2100.100, 0.5762048
2102.029, 0.5775395
2103.957, 0.5799208
2105.886, 0.5806603
2107.814, 0.5806087
2109.743, 0.5817624
2111.671, 0.5833073
2113.600, 0.5861805
2115.528, 0.5853736
2117.457, 0.5812922
2119.385, 0.5812905
2121.313, 0.5832263
2123.242, 0.5839082
2125.170, 0.5822621
2127.099, 0.5799984
2129.027, 0.5780131
2130.956, 0.5792220
2132.884, 0.5798183
2134.813, 0.5760234
2136.741, 0.5740879
2138.670, 0.5775006
2140.598, 0.5758553
2142.527, 0.5728812
2144.455, 0.5723099
2146.384, 0.5717611
2148.312, 0.5714677
2150.240, 0.5702720
2152.169, 0.5701092
2154.097, 0.5667279
2156.026, 0.5629931
2157.954, 0.5614582
2159.883, 0.5658629
2161.811, 0.5674058
2163.740, 0.5697550
2165.668, 0.5729978
2167.597, 0.5716063
2169.525, 0.5710891
2171.454, 0.5732059
2173.382, 0.5739156
2175.311, 0.5751116
2177.239, 0.5745515
2179.167, 0.5723506
2181.096, 0.5740492
2183.024, 0.5776153
2184.953, 0.5778994
2186.881, 0.5796478
2188.810, 0.5806310
2190.738, 0.5797195
2192.667, 0.5815593
2194.595, 0.5833185
2196.524, 0.5858102
2198.452, 0.5857474
2200.381, 0.5865108
2202.309, 0.5861832
2204.238, 0.5848327
2206.166, 0.5839813
2208.094, 0.5848992
2210.023, 0.5897409
2211.951, 0.5913891
2213.880, 0.5889100
2215.808, 0.5872059
2217.737, 0.5903794
2219.665, 0.5911741
2221.594, 0.5911936
2223.522, 0.5947026
2225.451, 0.5947912
2227.379, 0.5932608
2229.308, 0.5948590
2231.236, 0.5973778
2233.165, 0.5963117
2235.093, 0.5959122
2237.021, 0.5982633
2238.950, 0.5988606
2240.878, 0.5988786
2242.807, 0.5987508
2244.735, 0.5976483
2246.664, 0.5970340
2248.592, 0.6006235
2250.521, 0.6024834
2252.449, 0.6008473
2254.378, 0.5991347
2256.306, 0.6018230
2258.235, 0.6060646
2260.163, 0.6038058
2262.092, 0.6025354
2264.020, 0.6034904
2265.948, 0.6042542
2267.877, 0.6055394
2269.805, 0.6080319
2271.734, 0.6106117
2273.662, 0.6106835
2275.591, 0.6094674
2277.519, 0.6119341
2279.448, 0.6139244
2281.376, 0.6140193
2283.305, 0.6131886
2285.233, 0.6146446
2287.162, 0.6168696
2289.090, 0.6168160
2291.019, 0.6168694
2292.947, 0.6170211
2294.875, 0.6169829
2296.804, 0.6180635
2298.732, 0.6194849
2300.661, 0.6202904
2302.589, 0.6213415
2304.518, 0.6216246
2306.446, 0.6225201
2308.375, 0.6229625
2310.303, 0.6223222
2312.232, 0.6226815
2314.160, 0.6235135
2316.089, 0.6245181
2318.017, 0.6254107
2319.946, 0.6249305
2321.874, 0.6255714
2323.802, 0.6277963
2325.731, 0.6289024
2327.659, 0.6287849
2329.588, 0.6285049
2331.516, 0.6289787
2333.445, 0.6297380
2335.373, 0.6302541
2337.302, 0.6314074
2339.230, 0.6322633
2341.159, 0.6311393
2343.087, 0.6305503
2345.016, 0.6317684
2346.944, 0.6313432
2348.873, 0.6304826
2350.801, 0.6309614
2352.729, 0.6322919
2354.658, 0.6320561
2356.586, 0.6317545
2358.515, 0.6323935
2360.443, 0.6320196
2362.372, 0.6321761
2364.300, 0.6333388
2366.229, 0.6332955
2368.157, 0.6326557
2370.086, 0.6321613
2372.014, 0.6321501
2373.942, 0.6322628
2375.871, 0.6314766
2377.799, 0.6311507
2379.728, 0.6316217
2381.656, 0.6311575
2383.585, 0.6309140
2385.513, 0.6321219
2387.442, 0.6330464
2389.370, 0.6331080
2391.299, 0.6325469
2393.227, 0.6328847
2395.156, 0.6333717
2397.084, 0.6336578
2399.012, 0.6324356
2400.941, 0.6322733
2402.869, 0.6335446
2404.798, 0.6337014
2406.726, 0.6332687
2408.655, 0.6340699
2410.583, 0.6339942
2412.512, 0.6329594
2414.440, 0.6332887
2416.369, 0.6344045
2418.297, 0.6351196
2420.226, 0.6355901
2422.154, 0.6351454
2424.083, 0.6356974
2426.011, 0.6357532
2427.939, 0.6361771
2429.868, 0.6372356
2431.796, 0.6382351
2433.725, 0.6379523
2435.653, 0.6374412
2437.582, 0.6367719
2439.510, 0.6373131
2441.439, 0.6387166
2443.367, 0.6400024
2445.296, 0.6398866
2447.224, 0.6394828
2449.153, 0.6397806
2451.081, 0.6400878
2453.010, 0.6393871
2454.938, 0.6395737
2456.866, 0.6405663
2458.795, 0.6420772
2460.723, 0.6418113
2462.652, 0.6422708
2464.580, 0.6425392
2466.509, 0.6419818
2468.437, 0.6414848
2470.366, 0.6416402
2472.294, 0.6416204
2474.223, 0.6425704
2476.151, 0.6432169
2478.080, 0.6455308
2480.008, 0.6456081
2481.937, 0.6447682
2483.865, 0.6442176
2485.793, 0.6443606
2487.722, 0.6457467
2489.650, 0.6460831
2491.579, 0.6473686
2493.507, 0.6472753
2495.436, 0.6461366
2497.364, 0.6473463
2499.293, 0.6469978
2501.221, 0.6474192
2503.150, 0.6473380
2505.078, 0.6474620
2507.007, 0.6476578
2508.935, 0.6485258
2510.864, 0.6501139
2512.792, 0.6496425
2514.720, 0.6488082
2516.649, 0.6494161
2518.577, 0.6484664
2520.506, 0.6467984
2522.434, 0.6476765
2524.363, 0.6498063
2526.291, 0.6510300
2528.220, 0.6511355
2530.148, 0.6524100
2532.077, 0.6531990
2534.005, 0.6530818
2535.934, 0.6536874
2537.862, 0.6534880
2539.791, 0.6528259
2541.719, 0.6544411
2543.647, 0.6537522
2545.576, 0.6527020
2547.504, 0.6520005
2549.433, 0.6537468
2551.361, 0.6556639
2553.290, 0.6540372
2555.218, 0.6530776
2557.147, 0.6535991
2559.075, 0.6548037
2561.004, 0.6541456
2562.932, 0.6545626
2564.861, 0.6548070
2566.789, 0.6547413
2568.718, 0.6558316
2570.646, 0.6563221
2572.574, 0.6560870
2574.503, 0.6558707
2576.431, 0.6565953
2578.360, 0.6573578
2580.288, 0.6574225
2582.217, 0.6598945
2584.145, 0.6617985
2586.074, 0.6615200
2588.002, 0.6602732
2589.931, 0.6594328
2591.859, 0.6609582
2593.788, 0.6617451
2595.716, 0.6624753
2597.645, 0.6637297
2599.573, 0.6640130
2601.501, 0.6630131
2603.430, 0.6630904
2605.358, 0.6641729
2607.287, 0.6638427
2609.215, 0.6648496
2611.144, 0.6660890
2613.072, 0.6661159
2615.001, 0.6662374
2616.929, 0.6653211
2618.858, 0.6651105
2620.786, 0.6682513
2622.715, 0.6680275
2624.643, 0.6667398
2626.572, 0.6684762
2628.500, 0.6695555
2630.428, 0.6694618
2632.357, 0.6693317
2634.285, 0.6694886
2636.214, 0.6696436
2638.142, 0.6701304
2640.071, 0.6710222
2641.999, 0.6721787
2643.928, 0.6731744
2645.856, 0.6739666
2647.785, 0.6736752
2649.713, 0.6731916
2651.642, 0.6744995
2653.570, 0.6765780
2655.499, 0.6759634
2657.427, 0.6759985
2659.355, 0.6766963
2661.284, 0.6771509
2663.212, 0.6766527
2665.141, 0.6753695
2667.069, 0.6755055
2668.998, 0.6769624
2670.926, 0.6776655
2672.855, 0.6769686
2674.783, 0.6778301
2676.712, 0.6786771
2678.640, 0.6780013
2680.569, 0.6787069
2682.497, 0.6789503
2684.426, 0.6792150
2686.354, 0.6794128
2688.282, 0.6793689
2690.211, 0.6796185
2692.139, 0.6788700
2694.068, 0.6795017
2695.996, 0.6815197
2697.925, 0.6828350
2699.853, 0.6825626
2701.782, 0.6814941
2703.710, 0.6804945
2705.639, 0.6819170
2707.567, 0.6840346
2709.496, 0.6838156
2711.424, 0.6831023
2713.353, 0.6837643
2715.281, 0.6853201
2717.209, 0.6866434
2719.138, 0.6868303
2721.066, 0.6863495
2722.995, 0.6853765
2724.923, 0.6845156
2726.852, 0.6847035
2728.780, 0.6855713
2730.709, 0.6859714
2732.637, 0.6862312
2734.566, 0.6851487
2736.494, 0.6861205
2738.423, 0.6878319
2740.351, 0.6889182
2742.280, 0.6885166
2744.208, 0.6875187
2746.136, 0.6886284
2748.065, 0.6888065
2749.993, 0.6879176
2751.922, 0.6880240
2753.850, 0.6893316
2755.779, 0.6896948
2757.707, 0.6911643
2759.636, 0.6916143
2761.564, 0.6907135
2763.493, 0.6911563
2765.421, 0.6932404
2767.350, 0.6932428
2769.278, 0.6922839
2771.207, 0.6919682
2773.135, 0.6917554
2775.063, 0.6921529
2776.992, 0.6915277
2778.920, 0.6924989
2780.849, 0.6933917
2782.777, 0.6933274
2784.706, 0.6936059
2786.634, 0.6947105
2788.563, 0.6949376
2790.491, 0.6935025
2792.420, 0.6939420
2794.348, 0.6952098
2796.277, 0.6955017
2798.205, 0.6956577
2800.134, 0.6957292
2802.062, 0.6955003
2803.990, 0.6955871
2805.919, 0.6959379
2807.847, 0.6968285
2809.776, 0.6966437
2811.704, 0.6962310
2813.633, 0.6975858
2815.561, 0.6985512
2817.490, 0.6986926
2819.418, 0.6992009
2821.347, 0.6990325
2823.275, 0.6986503
2825.204, 0.6987384
2827.132, 0.6992711
2829.061, 0.7005396
2830.989, 0.7011091
2832.917, 0.7001138
2834.846, 0.7000709
2836.774, 0.7011878
2838.703, 0.7005225
2840.631, 0.7001194
2842.560, 0.7016132
2844.488, 0.7033472
2846.417, 0.7055636
2848.345, 0.7048367
2850.274, 0.7026272
2852.202, 0.7012967
2854.131, 0.7023315
2856.059, 0.7032684
2857.988, 0.7027621
2859.916, 0.7032973
2861.844, 0.7052212
2863.773, 0.7057765
2865.701, 0.7060129
2867.630, 0.7058361
2869.558, 0.7039914
2871.487, 0.7049302
2873.415, 0.7053786
2875.344, 0.7052733
2877.272, 0.7065723
2879.201, 0.7069905
2881.129, 0.7065198
2883.058, 0.7058467
2884.986, 0.7063317
2886.915, 0.7077445
2888.843, 0.7087830
2890.771, 0.7095411
2892.700, 0.7095542
2894.628, 0.7089618
2896.557, 0.7096773
2898.485, 0.7124165
2900.414, 0.7133047
2902.342, 0.7122427
2904.271, 0.7108988
2906.199, 0.7101420
2908.128, 0.7101182
2910.056, 0.7095547
2911.985, 0.7093900
2913.913, 0.7105583
2915.842, 0.7120094
2917.770, 0.7122647
2919.698, 0.7132943
2921.627, 0.7141091
2923.555, 0.7126580
2925.484, 0.7111891
2927.412, 0.7091683
2929.341, 0.7091138
2931.269, 0.7120970
2933.198, 0.7135869
2935.126, 0.7129026
2937.055, 0.7130671
2938.983, 0.7135887
2940.912, 0.7139584
2942.840, 0.7152352
2944.769, 0.7165112
2946.697, 0.7158599
2948.625, 0.7148139
2950.554, 0.7137711
2952.482, 0.7137731
2954.411, 0.7140574
2956.339, 0.7152030
2958.268, 0.7148800
2960.196, 0.7135156
2962.125, 0.7134516
2964.053, 0.7155457
2965.982, 0.7158508
2967.910, 0.7164693
2969.839, 0.7160811
2971.767, 0.7151187
2973.696, 0.7149227
2975.624, 0.7162321
2977.552, 0.7191206
2979.481, 0.7210009
2981.409, 0.7192552
2983.338, 0.7171263
2985.266, 0.7162941
2987.195, 0.7177725
2989.123, 0.7186915
2991.052, 0.7197520
2992.980, 0.7204357
2994.909, 0.7199280
2996.837, 0.7202336
2998.766, 0.7213607
3000.694, 0.7225792
3002.623, 0.7220671
3004.551, 0.7214211
3006.479, 0.7212211
3008.408, 0.7208601
3010.336, 0.7199643
3012.265, 0.7197693
3014.193, 0.7192861
3016.122, 0.7198313
3018.050, 0.7216385
3019.979, 0.7214136
3021.907, 0.7196366
3023.836, 0.7210860
3025.764, 0.7226249
3027.693, 0.7236823
3029.621, 0.7247146
3031.550, 0.7229200
3033.478, 0.7223299
3035.406, 0.7230870
3037.335, 0.7223228
3039.263, 0.7248719
3041.192, 0.7259682
3043.120, 0.7240052
3045.049, 0.7247081
3046.977, 0.7261658
3048.906, 0.7260195
3050.834, 0.7253622
3052.763, 0.7245147
3054.691, 0.7245355
3056.620, 0.7256460
3058.548, 0.7271913
3060.477, 0.7277197
3062.405, 0.7264735
3064.333, 0.7257585
3066.262, 0.7275831
3068.190, 0.7279317
3070.119, 0.7276362
3072.047, 0.7276036
3073.976, 0.7280934
3075.904, 0.7271364
3077.833, 0.7279438
3079.761, 0.7303900
3081.690, 0.7305383
3083.618, 0.7293169
3085.547, 0.7293809
3087.475, 0.7294493
3089.404, 0.7296410
3091.332, 0.7299086
3093.260, 0.7310898
3095.189, 0.7318964
3097.117, 0.7324299
3099.046, 0.7319741
3100.974, 0.7322477
3102.903, 0.7321911
3104.831, 0.7312092
3106.760, 0.7307232
3108.688, 0.7318681
3110.617, 0.7331690
3112.545, 0.7345501
3114.474, 0.7354562
3116.402, 0.7345587
3118.331, 0.7349001
3120.259, 0.7351180
3122.188, 0.7360829
3124.116, 0.7364820
3126.044, 0.7358781
3127.973, 0.7351208
3129.901, 0.7360909
3131.830, 0.7370614
3133.758, 0.7362701
3135.687, 0.7360508
3137.615, 0.7373030
3139.544, 0.7365186
3141.472, 0.7353647
3143.401, 0.7366963
3145.329, 0.7381410
3147.258, 0.7383590
3149.186, 0.7381605
3151.115, 0.7375149
3153.043, 0.7388799
3154.971, 0.7401742
3156.900, 0.7382761
3158.828, 0.7390040
3160.757, 0.7419834
3162.685, 0.7418698
3164.614, 0.7420430
3166.542, 0.7429739
3168.471, 0.7422803
3170.399, 0.7430071
3172.328, 0.7434770
3174.256, 0.7397726
3176.185, 0.7390813
3178.113, 0.7414580
3180.042, 0.7410207
3181.970, 0.7411841
3183.898, 0.7417839
3185.827, 0.7438358
3187.755, 0.7441901
3189.684, 0.7446586
3191.612, 0.7452401
3193.541, 0.7441452
3195.469, 0.7440779
3197.398, 0.7456290
3199.326, 0.7444684
3201.255, 0.7448251
3203.183, 0.7487260
3205.112, 0.7492616
3207.040, 0.7472911
3208.969, 0.7463933
3210.897, 0.7481338
3212.825, 0.7520736
3214.754, 0.7529613
3216.682, 0.7505369
3218.611, 0.7501321
3220.539, 0.7498989
3222.468, 0.7506958
3224.396, 0.7528857
3226.325, 0.7540429
3228.253, 0.7530822
3230.182, 0.7535800
3232.110, 0.7540900
3234.039, 0.7520302
3235.967, 0.7528015
3237.896, 0.7546362
3239.824, 0.7535207
3241.752, 0.7523212
3243.681, 0.7514927
3245.609, 0.7521065
3247.538, 0.7529240
3249.466, 0.7515742
3251.395, 0.7502654
3253.323, 0.7509910
3255.252, 0.7520438
3257.180, 0.7530301
3259.109, 0.7551713
3261.037, 0.7567884
3262.966, 0.7573113
3264.894, 0.7570469
3266.823, 0.7569510
3268.751, 0.7595736
3270.679, 0.7586033
3272.608, 0.7581559
3274.536, 0.7594135
3276.465, 0.7578580
3278.393, 0.7562009
3280.322, 0.7582633
3282.250, 0.7599397
3284.179, 0.7605629
3286.107, 0.7610263
3288.036, 0.7628887
3289.964, 0.7637020
3291.893, 0.7631583
3293.821, 0.7620978
3295.750, 0.7604998
3297.678, 0.7611704
3299.606, 0.7605528
3301.535, 0.7585818
3303.463, 0.7591903
3305.392, 0.7641000
3307.320, 0.7642950
3309.249, 0.7625208
3311.177, 0.7645121
3313.106, 0.7653609
3315.034, 0.7657456
3316.963, 0.7659988
3318.891, 0.7657741
3320.820, 0.7657803
3322.748, 0.7666777
3324.677, 0.7681430
3326.605, 0.7665169
3328.533, 0.7661194
3330.462, 0.7682052
3332.390, 0.7684425
3334.319, 0.7697399
3336.247, 0.7669366
3338.176, 0.7675321
3340.104, 0.7709632
3342.033, 0.7674174
3343.961, 0.7658695
3345.890, 0.7694707
3347.818, 0.7691031
3349.747, 0.7697054
3351.675, 0.7721048
3353.604, 0.7695015
3355.532, 0.7706664
3357.460, 0.7721568
3359.389, 0.7688897
3361.317, 0.7683353
3363.246, 0.7721568
3365.174, 0.7729435
3367.103, 0.7732302
3369.031, 0.7749033
3370.960, 0.7725480
3372.888, 0.7743868
3374.817, 0.7745482
3376.745, 0.7739383
3378.674, 0.7728915
3380.602, 0.7705041
3382.531, 0.7694682
3384.459, 0.7715689
3386.387, 0.7735908
3388.316, 0.7733015
3390.244, 0.7741454
3392.173, 0.7751484
3394.101, 0.7763659
3396.030, 0.7782224
3397.958, 0.7766522
3399.887, 0.7733847
3401.815, 0.7723033
3403.744, 0.7761692
3405.672, 0.7766501
3407.601, 0.7731986
3409.529, 0.7753670
3411.458, 0.7778549
3413.386, 0.7771125
3415.314, 0.7770286
3417.243, 0.7779600
3419.171, 0.7800383
3421.100, 0.7801048
3423.028, 0.7776812
3424.957, 0.7778614
3426.885, 0.7790447
3428.814, 0.7801297
3430.742, 0.7802384
3432.671, 0.7778838
3434.599, 0.7785791
3436.528, 0.7786341
3438.456, 0.7803527
3440.385, 0.7823362
3442.313, 0.7821956
3444.241, 0.7813047
3446.170, 0.7801101
3448.098, 0.7784994
3450.027, 0.7813568
3451.955, 0.7809106
3453.884, 0.7803422
3455.812, 0.7808805
3457.741, 0.7817039
3459.669, 0.7813756
3461.598, 0.7799104
3463.526, 0.7794420
3465.455, 0.7813073
3467.383, 0.7835209
3469.312, 0.7855948
3471.240, 0.7864052
3473.168, 0.7866815
3475.097, 0.7856221
3477.025, 0.7869942
3478.954, 0.7887166
3480.882, 0.7874691
3482.811, 0.7829422
3484.739, 0.7804720
3486.668, 0.7808281
3488.596, 0.7828251
3490.525, 0.7860363
3492.453, 0.7880163
3494.382, 0.7872952
3496.310, 0.7857432
3498.239, 0.7853050
3500.167, 0.7877196
3502.095, 0.7884752
3504.024, 0.7860040
3505.952, 0.7850893
3507.881, 0.7855831
3509.809, 0.7831351
3511.738, 0.7807408
3513.666, 0.7846357
3515.595, 0.7894070
3517.523, 0.7901351
3519.452, 0.7878762
3521.380, 0.7888288
3523.309, 0.7918947
3525.237, 0.7946550
3527.166, 0.7946566
3529.094, 0.7908500
3531.022, 0.7910793
3532.951, 0.7912855
3534.879, 0.7881068
3536.808, 0.7877219
3538.736, 0.7924439
3540.665, 0.7906953
3542.593, 0.7905448
3544.522, 0.7947937
3546.450, 0.7961014
3548.379, 0.7930671
3550.307, 0.7913332
3552.236, 0.7930903
3554.164, 0.7935277
3556.093, 0.7930592
3558.021, 0.7935670
3559.949, 0.7950944
3561.878, 0.7943279
3563.806, 0.7943456
3565.735, 0.7934551
3567.663, 0.7906516
3569.592, 0.7917787
3571.520, 0.7964546
3573.449, 0.7972285
3575.377, 0.7949095
3577.306, 0.7949976
3579.234, 0.7933332
3581.163, 0.7924689
3583.091, 0.7932877
3585.020, 0.7931917
3586.948, 0.7971311
3588.876, 0.7999923
3590.805, 0.7963034
3592.733, 0.7928057
3594.662, 0.7915152
3596.590, 0.7929929
3598.519, 0.7972662
3600.447, 0.7990107
3602.376, 0.7996690
3604.304, 0.8028818
3606.233, 0.8035349
3608.161, 0.8044181
3610.090, 0.8012446
3612.018, 0.7976221
3613.947, 0.8022496
3615.875, 0.8035001
3617.803, 0.7971652
3619.732, 0.7918889
3621.660, 0.7954959
3623.589, 0.7982604
3625.517, 0.7996596
3627.446, 0.8021562
3629.374, 0.8026417
3631.303, 0.8027323
3633.231, 0.8003159
3635.160, 0.7987741
3637.088, 0.8008343
3639.017, 0.8010806
3640.945, 0.7988365
3642.874, 0.8000344
3644.802, 0.8013289
3646.730, 0.8021985
3648.659, 0.8026536
3650.587, 0.8054187
3652.516, 0.8073753
3654.444, 0.8072250
3656.373, 0.8068861
3658.301, 0.8069105
3660.230, 0.8073283
3662.158, 0.8063551
3664.087, 0.8038543
3666.015, 0.8068011
3667.944, 0.8110896
3669.872, 0.8125204
3671.801, 0.8117089
3673.729, 0.8063576
3675.657, 0.8054875
3677.586, 0.8084996
3679.514, 0.8080055
3681.443, 0.8061432
3683.371, 0.8035200
3685.300, 0.8076206
3687.228, 0.8154165
3689.157, 0.8141230
3691.085, 0.8053042
3693.014, 0.8017208
3694.942, 0.8079721
3696.871, 0.8106461
3698.799, 0.8093397
3700.728, 0.8108767
3702.656, 0.8067110
3704.584, 0.8041219
3706.513, 0.8069103
3708.441, 0.8122384
3710.370, 0.8158346
3712.298, 0.8155137
3714.227, 0.8129607
3716.155, 0.8103747
3718.084, 0.8116543
3720.012, 0.8164130
3721.941, 0.8188292
3723.869, 0.8153926
3725.798, 0.8087336
3727.726, 0.8122196
3729.655, 0.8211175
3731.583, 0.8209437
3733.511, 0.8161616
3735.440, 0.8192571
3737.368, 0.8216431
3739.297, 0.8178703
3741.225, 0.8158978
3743.154, 0.8174543
3745.082, 0.8158604
3747.011, 0.8171467
3748.939, 0.8227642
3750.868, 0.8222089
3752.796, 0.8188609
3754.725, 0.8177180
3756.653, 0.8156346
3758.582, 0.8155208
3760.510, 0.8176237
3762.438, 0.8210548
3764.367, 0.8219565
3766.295, 0.8186283
3768.224, 0.8170404
3770.152, 0.8190817
3772.081, 0.8212157
3774.009, 0.8238103
3775.938, 0.8252366
3777.866, 0.8253329
3779.795, 0.8257958
3781.723, 0.8249000
3783.652, 0.8252617
3785.580, 0.8244176
3787.509, 0.8240544
3789.437, 0.8217967
3791.365, 0.8225048
3793.294, 0.8251263
3795.222, 0.8267940
3797.151, 0.8265846
3799.079, 0.8230987
3801.008, 0.8193621
3802.936, 0.8218337
3804.865, 0.8252129
3806.793, 0.8293050
3808.722, 0.8276441
3810.650, 0.8218684
3812.579, 0.8255877
3814.507, 0.8306721
3816.436, 0.8277142
3818.364, 0.8243569
3820.292, 0.8259639
3822.221, 0.8301467
3824.149, 0.8319111
3826.078, 0.8345336
3828.006, 0.8330236
3829.935, 0.8306353
3831.863, 0.8345234
3833.792, 0.8379650
3835.720, 0.8350701
3837.649, 0.8304667
3839.577, 0.8286550
3841.506, 0.8325728
3843.434, 0.8341774
3845.363, 0.8328183
3847.291, 0.8308347
3849.219, 0.8296485
3851.148, 0.8326727
3853.076, 0.8377100
3855.005, 0.8375613
3856.933, 0.8316683
3858.862, 0.8310615
3860.790, 0.8330034
3862.719, 0.8331869
3864.647, 0.8308384
3866.576, 0.8291631
3868.504, 0.8276528
3870.433, 0.8292030
3872.361, 0.8303220
3874.290, 0.8308915
3876.218, 0.8357617
3878.146, 0.8391393
3880.075, 0.8378844
3882.003, 0.8355683
3883.932, 0.8335135
3885.860, 0.8365238
3887.789, 0.8418180
3889.717, 0.8443263
3891.646, 0.8418744
3893.574, 0.8381053
3895.503, 0.8369981
3897.431, 0.8383673
3899.360, 0.8378400
3901.288, 0.8411525
3903.217, 0.8437447
3905.145, 0.8412999
3907.073, 0.8424052
3909.002, 0.8433857
3910.930, 0.8389124
3912.859, 0.8366232
3914.787, 0.8397890
3916.716, 0.8395686
3918.644, 0.8422186
3920.573, 0.8419842
3922.501, 0.8423104
3924.430, 0.8388132
3926.358, 0.8353991
3928.287, 0.8362052
3930.215, 0.8398690
3932.144, 0.8431725
3934.072, 0.8438864
3936.000, 0.8439240
3937.929, 0.8426051
3939.857, 0.8449616
3941.786, 0.8478209
3943.714, 0.8470562
3945.643, 0.8468467
3947.571, 0.8463797
3949.500, 0.8481743
3951.428, 0.8510175
3953.357, 0.8458053
3955.285, 0.8350874
3957.214, 0.8394409
3959.142, 0.8453767
3961.071, 0.8425232
3962.999, 0.8433118
3964.927, 0.8446434
3966.856, 0.8424845
3968.784, 0.8411250
3970.713, 0.8439583
3972.641, 0.8453537
3974.570, 0.8417903
3976.498, 0.8421099
3978.427, 0.8466467
3980.355, 0.8493941
3982.284, 0.8500998
3984.212, 0.8497024
3986.141, 0.8550976
3988.069, 0.8546036
3989.998, 0.8486273
3991.926, 0.8492322
3993.854, 0.8534296
3995.783, 0.8529746
3997.711, 0.8540550
3999.640, 0.8544670
##END=



