##NAMES=Schrockingerite
##RRUFFID=R050565
##IDEAL CHEMISTRY=NaCa_3_(U^6+^O_2_)(S^6+^O_4_)(CO_3_)_3_F&#183;10H_2_O
##LOCALITY=Lost Creek, Sweetwater County, Wyoming, USA
##OWNER=RRUFF
##SOURCE=Dave Bunk Minerals
##DESCRIPTION=Scaly aggregate of pale green micaceous crystals
##STATUS=The identification of this mineral has been confirmed by X-ray diffraction and chemical analysis
##URL=rruff.info/R050565
##MEASURED CHEMISTRY=Na_1.00_Ca_3.00_(U_1.00_O_2_)(S_1.00_O_4_)(CO_3_)_3_F_1.00_Â·12H_2_O ; C and H not measured but estimated by stoichiometry
399.1926, 8.0507927E-02
401.1211, 9.3414009E-02
403.0496, 9.3863100E-02
404.9780, 8.7959290E-02
406.9065, 8.5942812E-02
408.8350, 8.9705549E-02
410.7634, 9.7590007E-02
412.6919, 0.1029816
414.6204, 0.1027612
416.5488, 0.1053748
418.4773, 0.1112309
420.4058, 0.1125603
422.3342, 0.1129998
424.2627, 0.1140746
426.1912, 0.1152062
428.1196, 0.1200267
430.0481, 0.1225994
431.9766, 0.1188013
433.9050, 0.1184200
435.8335, 0.1203125
437.7620, 0.1192874
439.6904, 0.1174898
441.6189, 0.1171263
443.5474, 0.1158519
445.4758, 0.1158302
447.4043, 0.1160159
449.3328, 0.1144902
451.2612, 0.1125678
453.1897, 0.1133273
455.1182, 0.1142491
457.0466, 0.1143935
458.9751, 0.1162364
460.9036, 0.1178132
462.8320, 0.1193965
464.7605, 0.1207372
466.6890, 0.1199720
468.6174, 0.1192795
470.5459, 0.1192457
472.4744, 0.1196786
474.4028, 0.1211662
476.3313, 0.1224657
478.2598, 0.1228053
480.1882, 0.1234221
482.1167, 0.1236839
484.0452, 0.1237282
485.9736, 0.1244233
487.9021, 0.1254352
489.8306, 0.1265639
491.7590, 0.1280891
493.6875, 0.1286331
495.6160, 0.1291244
497.5444, 0.1299871
499.4729, 0.1311039
501.4014, 0.1327133
503.3298, 0.1352671
505.2583, 0.1380130
507.1868, 0.1396693
509.1152, 0.1417843
511.0437, 0.1449435
512.9722, 0.1474901
514.9006, 0.1496475
516.8291, 0.1516723
518.7576, 0.1529433
520.6860, 0.1544593
522.6145, 0.1558289
524.5430, 0.1576578
526.4714, 0.1596344
528.3999, 0.1612547
530.3284, 0.1625936
532.2568, 0.1636869
534.1853, 0.1661318
536.1138, 0.1674734
538.0422, 0.1666982
539.9707, 0.1657739
541.8992, 0.1650982
543.8276, 0.1646256
545.7561, 0.1642393
547.6846, 0.1635012
549.6130, 0.1618714
551.5415, 0.1596379
553.4700, 0.1581358
555.3984, 0.1565664
557.3269, 0.1549933
559.2554, 0.1546836
561.1838, 0.1534951
563.1123, 0.1506255
565.0408, 0.1483727
566.9692, 0.1476984
568.8977, 0.1475553
570.8262, 0.1469015
572.7546, 0.1454762
574.6831, 0.1454547
576.6116, 0.1454860
578.5400, 0.1448189
580.4685, 0.1436444
582.3970, 0.1430203
584.3254, 0.1429926
586.2539, 0.1426866
588.1824, 0.1428972
590.1108, 0.1442010
592.0393, 0.1453597
593.9678, 0.1459307
595.8962, 0.1476498
597.8247, 0.1498210
599.7532, 0.1510991
601.6816, 0.1526206
603.6101, 0.1543180
605.5386, 0.1555129
607.4670, 0.1559160
609.3955, 0.1559109
611.3240, 0.1545186
613.2524, 0.1510891
615.1809, 0.1454423
617.1094, 0.1383303
619.0378, 0.1307197
620.9663, 0.1236685
622.8948, 0.1172567
624.8232, 0.1116121
626.7517, 0.1068222
628.6802, 0.1026786
630.6086, 9.9487931E-02
632.5371, 9.7412810E-02
634.4656, 9.4826527E-02
636.3940, 9.2884339E-02
638.3225, 9.1932371E-02
640.2510, 9.1432631E-02
642.1794, 9.1597483E-02
644.1079, 9.1425851E-02
646.0364, 9.1051012E-02
647.9648, 9.1269553E-02
649.8933, 9.1869667E-02
651.8218, 9.2396319E-02
653.7502, 9.3234546E-02
655.6787, 9.3730956E-02
657.6072, 9.4409898E-02
659.5356, 9.5653519E-02
661.4641, 9.6694902E-02
663.3926, 9.7057283E-02
665.3210, 9.8120123E-02
667.2495, 9.9726409E-02
669.1780, 0.1009105
671.1064, 0.1013233
673.0349, 0.1014839
674.9634, 0.1022192
676.8918, 0.1027683
678.8203, 0.1027801
680.7488, 0.1024808
682.6772, 0.1022131
684.6057, 0.1017572
686.5342, 0.1003848
688.4626, 9.9399798E-02
690.3911, 9.8481551E-02
692.3196, 9.7184896E-02
694.2480, 9.5800713E-02
696.1765, 9.4727270E-02
698.1050, 9.4505750E-02
700.0334, 9.5844783E-02
701.9619, 0.1007736
703.8904, 0.1100740
705.8188, 0.1140761
707.7473, 0.1018517
709.6758, 8.4168904E-02
711.6042, 7.4126929E-02
713.5327, 7.0585817E-02
715.4612, 6.9299228E-02
717.3896, 6.8635508E-02
719.3181, 6.8304963E-02
721.2466, 6.8267569E-02
723.1750, 6.8836637E-02
725.1035, 6.9995597E-02
727.0320, 7.1527429E-02
728.9604, 7.3906891E-02
730.8889, 7.7836789E-02
732.8174, 8.4664822E-02
734.7458, 9.7510263E-02
736.6743, 0.1198912
738.6028, 0.1422959
740.5313, 0.1420751
742.4597, 0.1165424
744.3882, 8.9989737E-02
746.3167, 7.7026673E-02
748.2451, 7.3293597E-02
750.1736, 7.1886897E-02
752.1021, 7.0636839E-02
754.0305, 6.9572411E-02
755.9590, 6.8813168E-02
757.8875, 6.8429507E-02
759.8159, 6.8681583E-02
761.7444, 6.9117457E-02
763.6729, 6.9663510E-02
765.6013, 7.0636094E-02
767.5298, 7.1707383E-02
769.4583, 7.2499193E-02
771.3867, 7.3738851E-02
773.3152, 7.5223699E-02
775.2437, 7.6606639E-02
777.1721, 7.8213088E-02
779.1006, 8.0081753E-02
781.0291, 8.2313791E-02
782.9575, 8.3837859E-02
784.8860, 8.5679643E-02
786.8145, 8.7866567E-02
788.7429, 8.9574672E-02
790.6714, 9.0915687E-02
792.5999, 9.2645921E-02
794.5283, 9.4549902E-02
796.4568, 9.5926143E-02
798.3853, 9.6930392E-02
800.3137, 9.7583711E-02
802.2422, 9.8027043E-02
804.1707, 9.8364428E-02
806.0991, 9.9007271E-02
808.0276, 9.9630341E-02
809.9561, 0.1007410
811.8845, 0.1027429
813.8130, 0.1055306
815.7415, 0.1085112
817.6699, 0.1106750
819.5984, 0.1098664
821.5269, 0.1054739
823.4553, 9.9600941E-02
825.3838, 9.4416633E-02
827.3123, 9.0717681E-02
829.2407, 8.8941343E-02
831.1692, 8.8732153E-02
833.0977, 8.9680701E-02
835.0261, 9.0764202E-02
836.9546, 9.2536971E-02
838.8831, 9.7195022E-02
840.8115, 0.1038067
842.7400, 0.1031982
844.6685, 9.3500368E-02
846.5969, 8.3623327E-02
848.5254, 7.7093408E-02
850.4539, 7.1966372E-02
852.3823, 6.7646183E-02
854.3108, 6.4448528E-02
856.2393, 6.2054470E-02
858.1677, 6.0864560E-02
860.0962, 6.0429331E-02
862.0247, 6.0372159E-02
863.9531, 6.0349021E-02
865.8816, 6.0743518E-02
867.8101, 6.1427020E-02
869.7385, 6.2793359E-02
871.6670, 6.4966582E-02
873.5955, 6.7918882E-02
875.5239, 7.1033187E-02
877.4524, 7.4815512E-02
879.3809, 7.9430372E-02
881.3093, 8.4903769E-02
883.2378, 9.1199137E-02
885.1663, 9.8726667E-02
887.0947, 0.1074105
889.0232, 0.1172668
890.9517, 0.1289826
892.8801, 0.1429446
894.8085, 0.1589538
896.7370, 0.1753707
898.6655, 0.1887999
900.5939, 0.1948317
902.5224, 0.1910564
904.4509, 0.1772103
906.3793, 0.1559235
908.3078, 0.1314705
910.2363, 0.1083096
912.1647, 9.0103216E-02
914.0932, 7.7746660E-02
916.0217, 6.8207361E-02
917.9501, 5.9681151E-02
919.8786, 5.2354861E-02
921.8071, 4.6571970E-02
923.7355, 4.2492911E-02
925.6640, 3.9228100E-02
927.5925, 3.6261290E-02
929.5209, 3.3353578E-02
931.4494, 3.0748680E-02
933.3779, 2.8883539E-02
935.3063, 2.7799491E-02
937.2348, 2.6895840E-02
939.1633, 2.5967510E-02
941.0917, 2.5496971E-02
943.0202, 2.5402080E-02
944.9487, 2.5076190E-02
946.8771, 2.4953410E-02
948.8056, 2.5057290E-02
950.7341, 2.5078351E-02
952.6625, 2.5133209E-02
954.5910, 2.5238140E-02
956.5195, 2.5176000E-02
958.4479, 2.5188800E-02
960.3764, 2.5304940E-02
962.3049, 2.5640300E-02
964.2333, 2.5910979E-02
966.1618, 2.6399540E-02
968.0903, 2.7028970E-02
970.0187, 2.7371541E-02
971.9472, 2.7852140E-02
973.8757, 2.8553640E-02
975.8041, 2.9177889E-02
977.7326, 2.9981470E-02
979.6611, 3.1603791E-02
981.5895, 3.3263329E-02
983.5180, 3.3589900E-02
985.4465, 3.2669280E-02
987.3749, 3.2206692E-02
989.3034, 3.2369319E-02
991.2319, 3.2911260E-02
993.1603, 3.3642519E-02
995.0888, 3.4432281E-02
997.0173, 3.5056960E-02
998.9457, 3.5394669E-02
1000.874, 3.6105219E-02
1002.803, 3.7126750E-02
1004.731, 3.7985221E-02
1006.660, 3.8779881E-02
1008.588, 3.9310999E-02
1010.517, 4.0124688E-02
1012.445, 4.0989839E-02
1014.373, 4.1696269E-02
1016.302, 4.2524450E-02
1018.230, 4.3116689E-02
1020.159, 4.3820269E-02
1022.087, 4.4936370E-02
1024.016, 4.5984060E-02
1025.944, 4.7043309E-02
1027.873, 4.8345070E-02
1029.801, 4.9419139E-02
1031.730, 5.0458539E-02
1033.658, 5.1900171E-02
1035.587, 5.3468700E-02
1037.515, 5.4964431E-02
1039.444, 5.6895841E-02
1041.372, 5.8900051E-02
1043.301, 6.0914371E-02
1045.229, 6.3018844E-02
1047.157, 6.5303631E-02
1049.086, 6.7903921E-02
1051.014, 7.0923902E-02
1052.943, 7.4178293E-02
1054.871, 7.7892758E-02
1056.800, 8.2306117E-02
1058.728, 8.7823048E-02
1060.657, 9.4324820E-02
1062.585, 0.1018628
1064.514, 0.1104772
1066.442, 0.1203084
1068.371, 0.1320560
1070.299, 0.1465835
1072.228, 0.1639841
1074.156, 0.1856957
1076.084, 0.2124971
1078.013, 0.2427694
1079.941, 0.2672512
1081.870, 0.2754245
1083.798, 0.2694754
1085.727, 0.2669683
1087.655, 0.2817744
1089.584, 0.3071494
1091.512, 0.3309076
1093.441, 0.3471668
1095.369, 0.3529858
1097.298, 0.3474415
1099.226, 0.3319742
1101.155, 0.3082718
1103.083, 0.2789769
1105.011, 0.2467967
1106.940, 0.2139077
1108.868, 0.1831654
1110.797, 0.1563370
1112.725, 0.1339992
1114.654, 0.1161913
1116.582, 0.1024917
1118.511, 9.2178501E-02
1120.439, 8.4756002E-02
1122.368, 7.9608418E-02
1124.296, 7.5941883E-02
1126.225, 7.3208600E-02
1128.153, 7.1385443E-02
1130.082, 6.9898874E-02
1132.010, 6.8726487E-02
1133.938, 6.7945510E-02
1135.867, 6.7507721E-02
1137.795, 6.7626096E-02
1139.724, 6.8026632E-02
1141.652, 6.8160921E-02
1143.581, 6.8261668E-02
1145.509, 6.8356358E-02
1147.438, 6.9084272E-02
1149.366, 7.0275277E-02
1151.295, 7.1414627E-02
1153.223, 7.2703212E-02
1155.152, 7.3913582E-02
1157.080, 7.5589038E-02
1159.009, 7.7606194E-02
1160.937, 7.9904526E-02
1162.865, 8.2671598E-02
1164.794, 8.5980602E-02
1166.722, 8.9851059E-02
1168.651, 9.4498828E-02
1170.579, 9.9808007E-02
1172.508, 0.1054924
1174.436, 0.1117467
1176.365, 0.1187188
1178.293, 0.1252883
1180.222, 0.1307954
1182.150, 0.1343186
1184.079, 0.1348233
1186.007, 0.1325600
1187.936, 0.1274804
1189.864, 0.1200911
1191.792, 0.1113618
1193.721, 0.1020322
1195.649, 9.2738450E-02
1197.578, 8.4124647E-02
1199.506, 7.6571167E-02
1201.435, 6.9916546E-02
1203.363, 6.4040497E-02
1205.292, 5.8972381E-02
1207.220, 5.4810081E-02
1209.149, 5.1122200E-02
1211.077, 4.7915820E-02
1213.006, 4.5160901E-02
1214.934, 4.2882241E-02
1216.863, 4.0817332E-02
1218.791, 3.8893271E-02
1220.719, 3.7374321E-02
1222.648, 3.6339600E-02
1224.576, 3.5221271E-02
1226.505, 3.4211159E-02
1228.433, 3.3200379E-02
1230.362, 3.2235712E-02
1232.290, 3.1438161E-02
1234.219, 3.0695811E-02
1236.147, 3.0077940E-02
1238.076, 2.9716540E-02
1240.004, 2.9395949E-02
1241.933, 2.9214730E-02
1243.861, 2.8882060E-02
1245.790, 2.8576940E-02
1247.718, 2.8489910E-02
1249.646, 2.8758571E-02
1251.575, 2.8894611E-02
1253.503, 2.8634310E-02
1255.432, 2.8216841E-02
1257.360, 2.8309200E-02
1259.289, 2.8529920E-02
1261.217, 2.8529231E-02
1263.146, 2.8729090E-02
1265.074, 2.9023590E-02
1267.003, 2.9193850E-02
1268.931, 2.9526010E-02
1270.860, 3.0058989E-02
1272.788, 3.0598020E-02
1274.717, 3.1098340E-02
1276.645, 3.1336669E-02
1278.573, 3.1512849E-02
1280.502, 3.1891830E-02
1282.430, 3.2437250E-02
1284.359, 3.3028848E-02
1286.287, 3.3263240E-02
1288.216, 3.3654708E-02
1290.144, 3.4185611E-02
1292.073, 3.4677919E-02
1294.001, 3.5705999E-02
1295.930, 3.6635712E-02
1297.858, 3.7364200E-02
1299.787, 3.8404509E-02
1301.715, 3.9670382E-02
1303.644, 4.0899072E-02
1305.572, 4.2353939E-02
1307.500, 4.4501401E-02
1309.429, 4.6845090E-02
1311.357, 4.8927329E-02
1313.286, 5.0941549E-02
1315.214, 5.2935518E-02
1317.143, 5.4842990E-02
1319.071, 5.6838330E-02
1321.000, 5.9411790E-02
1322.928, 6.2677547E-02
1324.857, 6.6332102E-02
1326.785, 7.0794336E-02
1328.714, 7.6312073E-02
1330.642, 8.2810909E-02
1332.571, 9.0032332E-02
1334.499, 9.7751901E-02
1336.427, 0.1054797
1338.356, 0.1133975
1340.284, 0.1213464
1342.213, 0.1296451
1344.141, 0.1398557
1346.070, 0.1523311
1347.998, 0.1672961
1349.927, 0.1848203
1351.855, 0.2049569
1353.784, 0.2284801
1355.712, 0.2559056
1357.641, 0.2881504
1359.569, 0.3250665
1361.498, 0.3670309
1363.426, 0.4120787
1365.354, 0.4535215
1367.283, 0.4819256
1369.211, 0.4892294
1371.140, 0.4734149
1373.068, 0.4423083
1374.997, 0.4088833
1376.925, 0.3799922
1378.854, 0.3559506
1380.782, 0.3340601
1382.711, 0.3113467
1384.639, 0.2871013
1386.568, 0.2627744
1388.496, 0.2398043
1390.424, 0.2185692
1392.353, 0.2002661
1394.281, 0.1848109
1396.210, 0.1708666
1398.138, 0.1587648
1400.067, 0.1483346
1401.995, 0.1391726
1403.924, 0.1307720
1405.852, 0.1229770
1407.781, 0.1152752
1409.709, 0.1077424
1411.638, 0.1005906
1413.566, 9.3961842E-02
1415.495, 8.7602533E-02
1417.423, 8.1814833E-02
1419.351, 7.6958939E-02
1421.280, 7.2450951E-02
1423.208, 6.8228163E-02
1425.137, 6.4668939E-02
1427.065, 6.1771639E-02
1428.994, 5.8979101E-02
1430.922, 5.6347031E-02
1432.851, 5.4274879E-02
1434.779, 5.2648049E-02
1436.708, 5.1251620E-02
1438.636, 4.9748521E-02
1440.565, 4.8528001E-02
1442.493, 4.7594681E-02
1444.422, 4.6763770E-02
1446.350, 4.6053231E-02
1448.278, 4.5630459E-02
1450.207, 4.5083750E-02
1452.135, 4.4951919E-02
1454.064, 4.5100149E-02
1455.992, 4.5381408E-02
1457.921, 4.5521501E-02
1459.849, 4.5625009E-02
1461.778, 4.6211708E-02
1463.706, 4.6824671E-02
1465.635, 4.7512028E-02
1467.563, 4.8181050E-02
1469.492, 4.8884500E-02
1471.420, 5.0080370E-02
1473.349, 5.1167980E-02
1475.277, 5.2053209E-02
1477.205, 5.3233732E-02
1479.134, 5.4954872E-02
1481.062, 5.6998499E-02
1482.991, 5.9129711E-02
1484.919, 6.1415300E-02
1486.848, 6.4035870E-02
1488.776, 6.7093603E-02
1490.705, 7.0104986E-02
1492.633, 7.2983943E-02
1494.562, 7.6187164E-02
1496.490, 8.0083497E-02
1498.419, 8.4474303E-02
1500.347, 8.9321710E-02
1502.276, 9.4219171E-02
1504.204, 9.9534944E-02
1506.132, 0.1058825
1508.061, 0.1124324
1509.989, 0.1194463
1511.918, 0.1275762
1513.846, 0.1359682
1515.775, 0.1447275
1517.703, 0.1543918
1519.632, 0.1650412
1521.560, 0.1765313
1523.489, 0.1891001
1525.417, 0.2031290
1527.346, 0.2183541
1529.274, 0.2338469
1531.203, 0.2494671
1533.131, 0.2654609
1535.059, 0.2816078
1536.988, 0.2986170
1538.916, 0.3163794
1540.845, 0.3341807
1542.773, 0.3510419
1544.702, 0.3657807
1546.630, 0.3766208
1548.559, 0.3827330
1550.487, 0.3833677
1552.416, 0.3792260
1554.344, 0.3726750
1556.273, 0.3651881
1558.201, 0.3589171
1560.130, 0.3556566
1562.058, 0.3572564
1563.986, 0.3657764
1565.915, 0.3822040
1567.843, 0.4054819
1569.772, 0.4324277
1571.700, 0.4568988
1573.629, 0.4728416
1575.557, 0.4748676
1577.486, 0.4588916
1579.414, 0.4286796
1581.343, 0.3900244
1583.271, 0.3483689
1585.200, 0.3094015
1587.128, 0.2761506
1589.057, 0.2489763
1590.985, 0.2263443
1592.913, 0.2065736
1594.842, 0.1888566
1596.770, 0.1723658
1598.699, 0.1569120
1600.627, 0.1432326
1602.556, 0.1314165
1604.484, 0.1217451
1606.413, 0.1142379
1608.341, 0.1088954
1610.270, 0.1046420
1612.198, 0.1009229
1614.127, 9.7534940E-02
1616.055, 9.4696768E-02
1617.984, 9.2815533E-02
1619.912, 9.1510661E-02
1621.840, 9.0912879E-02
1623.769, 9.0771079E-02
1625.697, 9.1305047E-02
1627.626, 9.2870198E-02
1629.554, 9.4238147E-02
1631.483, 9.5374532E-02
1633.411, 9.6567526E-02
1635.340, 9.7173877E-02
1637.268, 9.7757652E-02
1639.197, 9.8088317E-02
1641.125, 9.7718887E-02
1643.054, 9.6346483E-02
1644.982, 9.4216511E-02
1646.911, 9.1995910E-02
1648.839, 8.9891814E-02
1650.767, 8.7149113E-02
1652.696, 8.3684653E-02
1654.624, 7.9966277E-02
1656.553, 7.6190300E-02
1658.481, 7.2572090E-02
1660.410, 6.9553442E-02
1662.338, 6.6198900E-02
1664.267, 6.3023821E-02
1666.195, 6.0851119E-02
1668.124, 5.9031431E-02
1670.052, 5.7198141E-02
1671.981, 5.5391710E-02
1673.909, 5.3176239E-02
1675.838, 5.0756969E-02
1677.766, 4.8786230E-02
1679.694, 4.7185190E-02
1681.623, 4.6041701E-02
1683.551, 4.5545310E-02
1685.480, 4.4623919E-02
1687.408, 4.3439131E-02
1689.337, 4.2897351E-02
1691.265, 4.1898910E-02
1693.194, 4.0932611E-02
1695.122, 4.1045081E-02
1697.051, 4.0846448E-02
1698.979, 4.0446449E-02
1700.908, 4.0371388E-02
1702.836, 4.0009309E-02
1704.765, 4.0061180E-02
1706.693, 4.0349972E-02
1708.621, 4.0387079E-02
1710.550, 4.0150180E-02
1712.478, 3.9987762E-02
1714.407, 3.9532971E-02
1716.335, 3.8919859E-02
1718.264, 3.7450511E-02
1720.192, 3.5434678E-02
1722.121, 3.3725511E-02
1724.049, 3.2177739E-02
1725.978, 3.0652359E-02
1727.906, 2.8840560E-02
1729.835, 2.6909471E-02
1731.763, 2.5516560E-02
1733.692, 2.3919990E-02
1735.620, 2.1799600E-02
1737.548, 1.9868011E-02
1739.477, 1.9129410E-02
1741.405, 1.7884530E-02
1743.334, 1.6451860E-02
1745.262, 1.4966440E-02
1747.191, 1.3783110E-02
1749.119, 1.3343910E-02
1751.048, 1.2895650E-02
1752.976, 1.1446990E-02
1754.905, 1.0698500E-02
1756.833, 1.0408480E-02
1758.762, 9.7421976E-03
1760.690, 9.2952652E-03
1762.619, 8.8756084E-03
1764.547, 8.1783487E-03
1766.475, 7.8226021E-03
1768.404, 7.9358649E-03
1770.332, 8.2870433E-03
1772.261, 8.3310930E-03
1774.189, 7.9090847E-03
1776.118, 7.7999062E-03
1778.046, 8.4191570E-03
1779.975, 8.8440999E-03
1781.903, 8.1147486E-03
1783.832, 8.0136973E-03
1785.760, 8.1159296E-03
1787.689, 7.6431790E-03
1789.617, 7.4432958E-03
1791.546, 8.0573494E-03
1793.474, 8.1009679E-03
1795.402, 8.0430787E-03
1797.331, 8.0956426E-03
1799.259, 7.9473648E-03
1801.188, 7.5207660E-03
1803.116, 6.9010602E-03
1805.045, 5.8454052E-03
1806.973, 5.6201150E-03
1808.902, 6.1891759E-03
1810.830, 6.7030792E-03
1812.759, 6.5604821E-03
1814.687, 6.0244552E-03
1816.616, 6.4279959E-03
1818.544, 7.0474041E-03
1820.473, 7.2265831E-03
1822.401, 7.5310618E-03
1824.329, 8.1190448E-03
1826.258, 8.7884003E-03
1828.186, 8.9597041E-03
1830.115, 8.6172149E-03
1832.043, 7.8136893E-03
1833.972, 7.2460128E-03
1835.900, 6.5152459E-03
1837.829, 5.9884442E-03
1839.757, 6.2500830E-03
1841.686, 6.2274211E-03
1843.614, 6.3631749E-03
1845.543, 6.1315121E-03
1847.471, 5.8788862E-03
1849.400, 6.1296290E-03
1851.328, 6.1338581E-03
1853.256, 5.9315050E-03
1855.185, 5.5858358E-03
1857.113, 5.6050271E-03
1859.042, 5.7147490E-03
1860.970, 5.5390568E-03
1862.899, 5.2774111E-03
1864.827, 5.9783719E-03
1866.756, 6.1560539E-03
1868.684, 5.8787181E-03
1870.613, 5.3629619E-03
1872.541, 5.4791700E-03
1874.470, 6.1853100E-03
1876.398, 6.6021141E-03
1878.327, 6.7948890E-03
1880.255, 6.8742400E-03
1882.183, 6.2153512E-03
1884.112, 5.1567438E-03
1886.040, 5.5779382E-03
1887.969, 6.3982331E-03
1889.897, 5.7622390E-03
1891.826, 5.5303611E-03
1893.754, 5.3794738E-03
1895.683, 5.5697761E-03
1897.611, 6.1955322E-03
1899.540, 5.9916358E-03
1901.468, 4.9983440E-03
1903.397, 4.9104011E-03
1905.325, 4.5299772E-03
1907.254, 3.5753159E-03
1909.182, 3.6541580E-03
1911.110, 4.7229198E-03
1913.039, 5.3521451E-03
1914.967, 4.4729020E-03
1916.896, 4.2426372E-03
1918.824, 4.8824730E-03
1920.753, 4.1115452E-03
1922.681, 3.8778039E-03
1924.610, 5.2088038E-03
1926.538, 6.4605582E-03
1928.467, 6.9984379E-03
1930.395, 7.4038091E-03
1932.324, 5.5284770E-03
1934.252, 3.1259470E-03
1936.181, 2.9303711E-03
1938.109, 4.0124110E-03
1940.037, 4.4889990E-03
1941.966, 4.3357010E-03
1943.894, 4.0333839E-03
1945.823, 3.4696341E-03
1947.751, 3.2930709E-03
1949.680, 3.7710569E-03
1951.608, 4.5383968E-03
1953.537, 4.1480260E-03
1955.465, 2.9378419E-03
1957.394, 2.2636440E-03
1959.322, 2.0480349E-03
1961.251, 3.1477280E-03
1963.179, 3.9695469E-03
1965.108, 3.3440520E-03
1967.036, 2.3219141E-03
1968.964, 1.0457149E-03
1970.893, -9.8276338E-05
1972.821, 1.1822680E-03
1974.750, 2.2133901E-03
1976.678, 2.7770360E-03
1978.607, 3.5675899E-03
1980.535, 6.1002518E-03
1982.464, 7.1647200E-03
1984.392, 4.6906578E-03
1986.321, 2.8646691E-03
1988.249, 5.1445472E-03
1990.178, 5.9693819E-03
1992.106, 5.4064221E-03
1994.035, 4.9173511E-03
1995.963, 6.0886950E-03
1997.891, 6.7742239E-03
1999.820, 5.2674790E-03
2001.748, 3.3862281E-03
2003.677, 1.4477069E-03
2005.605, 2.4713981E-03
2007.534, 3.0829520E-03
2009.462, 4.1302950E-03
2011.391, 7.3220860E-03
2013.319, 7.0445971E-03
2015.248, 3.8978781E-03
2017.176, 2.3313060E-03
2019.105, 1.8655800E-03
2021.033, 7.8404142E-04
2022.962, 2.9943839E-03
2024.890, 2.1997020E-03
2026.818, 2.2923539E-03
2028.747, 1.0216730E-03
2030.675, -5.4671877E-04
2032.604, -5.6271837E-04
2034.532, 1.2949270E-03
2036.461, 2.7098069E-03
2038.389, 3.7864801E-03
2040.318, 5.6699971E-03
2042.246, 6.0629421E-03
2044.175, 5.0905212E-03
2046.103, 5.3639458E-03
2048.032, 7.3611098E-03
2049.960, 8.1979539E-03
2051.889, 6.6553950E-03
2053.817, 5.1894798E-03
2055.746, 6.3405512E-03
2057.674, 7.6947920E-03
2059.603, 6.2339660E-03
2061.531, 6.2596821E-03
2063.459, 7.2548441E-03
2065.388, 7.0995800E-03
2067.316, 8.0877757E-03
2069.245, 8.1202257E-03
2071.173, 7.3874770E-03
2073.102, 9.2581110E-03
2075.030, 1.0581890E-02
2076.959, 1.0606900E-02
2078.887, 9.1027431E-03
2080.816, 9.3478709E-03
2082.744, 1.1168400E-02
2084.673, 1.1597450E-02
2086.601, 1.0979400E-02
2088.530, 1.1346630E-02
2090.458, 1.0707520E-02
2092.386, 9.9651916E-03
2094.315, 9.5855724E-03
2096.243, 9.5596537E-03
2098.172, 9.0167644E-03
2100.100, 7.6847351E-03
2102.029, 7.2636502E-03
2103.957, 8.7182391E-03
2105.886, 9.5216231E-03
2107.814, 9.0945279E-03
2109.743, 7.4960799E-03
2111.671, 6.7618950E-03
2113.600, 7.6450058E-03
2115.528, 7.4974839E-03
2117.457, 7.5411708E-03
2119.385, 7.2121462E-03
2121.313, 6.0989028E-03
2123.242, 6.6689048E-03
2125.170, 7.1798852E-03
2127.099, 6.5433779E-03
2129.027, 6.2490529E-03
2130.956, 3.7984010E-03
2132.884, 1.2412500E-03
2134.813, 4.0055909E-03
2136.741, 6.5926481E-03
2138.670, 6.8609840E-03
2140.598, 5.4733921E-03
2142.527, 2.6705179E-03
2144.455, 3.1202489E-03
2146.384, 4.2413180E-03
2148.312, 8.8079780E-04
2150.240, -1.0194770E-04
2152.169, 1.0981810E-05
2154.097, 2.9746251E-04
2156.026, -3.3608270E-03
2157.954, -5.7136272E-03
2159.883, -2.4643440E-03
2161.811, 2.7251829E-04
2163.740, 1.7820520E-03
2165.668, 2.6302801E-03
2167.597, 1.1596211E-03
2169.525, 2.3660369E-04
2171.454, -1.2007530E-04
2173.382, 8.5770350E-04
2175.311, 2.2072501E-04
2177.239, -2.0491721E-03
2179.167, -4.2727250E-03
2181.096, -3.0181790E-03
2183.024, -5.1060168E-04
2184.953, 2.9687129E-04
2186.881, -1.7734010E-03
2188.810, -1.9237850E-03
2190.738, -1.1355421E-03
2192.667, 1.1709240E-03
2194.595, 3.6139111E-03
2196.524, 1.7573551E-03
2198.452, -8.6811942E-04
2200.381, 2.4521939E-04
2202.309, 1.1710320E-03
2204.238, 2.0002611E-03
2206.166, 1.1667890E-03
2208.094, 8.8634138E-04
2210.023, 1.1373030E-03
2211.951, 7.7338348E-04
2213.880, 2.0748030E-03
2215.808, 3.9680060E-03
2217.737, 4.3910262E-03
2219.665, 5.5674822E-03
2221.594, 6.6938130E-03
2223.522, 6.3122208E-03
2225.451, 5.9890980E-03
2227.379, 6.0286708E-03
2229.308, 6.0083959E-03
2231.236, 5.6411200E-03
2233.165, 6.2240842E-03
2235.093, 5.6870752E-03
2237.021, 5.0945161E-03
2238.950, 5.8772648E-03
2240.878, 6.0567660E-03
2242.807, 7.6060039E-03
2244.735, 8.2763182E-03
2246.664, 8.1979958E-03
2248.592, 6.7319479E-03
2250.521, 7.3774271E-03
2252.449, 9.8140137E-03
2254.378, 1.0469990E-02
2256.306, 9.3566263E-03
2258.235, 9.0584243E-03
2260.163, 8.1558032E-03
2262.092, 7.9025831E-03
2264.020, 7.7239880E-03
2265.948, 8.0666104E-03
2267.877, 8.0526406E-03
2269.805, 8.6592957E-03
2271.734, 9.2593590E-03
2273.662, 8.8948905E-03
2275.591, 8.5526742E-03
2277.519, 8.7098889E-03
2279.448, 8.9817718E-03
2281.376, 9.6586496E-03
2283.305, 1.0588280E-02
2285.233, 1.0314320E-02
2287.162, 9.6484786E-03
2289.090, 8.9742271E-03
2291.019, 8.9721363E-03
2292.947, 8.9348406E-03
2294.875, 8.8756094E-03
2296.804, 8.9815846E-03
2298.732, 1.0285670E-02
2300.661, 9.9151256E-03
2302.589, 9.4364919E-03
2304.518, 9.3362546E-03
2306.446, 9.4306199E-03
2308.375, 1.0319700E-02
2310.303, 1.0374950E-02
2312.232, 1.0629890E-02
2314.160, 1.0564980E-02
2316.089, 9.3660122E-03
2318.017, 9.4221095E-03
2319.946, 1.0655330E-02
2321.874, 1.0942570E-02
2323.802, 1.1008950E-02
2325.731, 1.1137370E-02
2327.659, 1.1110890E-02
2329.588, 1.0592120E-02
2331.516, 9.9529978E-03
2333.445, 9.6818972E-03
2335.373, 9.2674196E-03
2337.302, 9.1456557E-03
2339.230, 9.7569246E-03
2341.159, 9.7425682E-03
2343.087, 8.9875031E-03
2345.016, 8.6382926E-03
2346.944, 8.5728550E-03
2348.873, 8.4214499E-03
2350.801, 8.5452339E-03
2352.729, 8.3080307E-03
2354.658, 7.8426190E-03
2356.586, 7.8769755E-03
2358.515, 8.4104789E-03
2360.443, 9.3365163E-03
2362.372, 9.0265712E-03
2364.300, 8.2064224E-03
2366.229, 8.0616232E-03
2368.157, 8.1955269E-03
2370.086, 7.6858988E-03
2372.014, 6.9534779E-03
2373.942, 6.9934991E-03
2375.871, 7.0673451E-03
2377.799, 7.8269681E-03
2379.728, 7.4231192E-03
2381.656, 6.6423961E-03
2383.585, 6.6959430E-03
2385.513, 6.8911961E-03
2387.442, 7.0730108E-03
2389.370, 7.9566380E-03
2391.299, 8.6153448E-03
2393.227, 8.5968664E-03
2395.156, 7.8505147E-03
2397.084, 6.9347760E-03
2399.012, 6.6128029E-03
2400.941, 7.8823017E-03
2402.869, 8.8579115E-03
2404.798, 8.3605628E-03
2406.726, 7.8745401E-03
2408.655, 8.5639311E-03
2410.583, 9.6785659E-03
2412.512, 9.7253583E-03
2414.440, 9.2351269E-03
2416.369, 9.3948524E-03
2418.297, 8.6909616E-03
2420.226, 8.2652280E-03
2422.154, 8.6091766E-03
2424.083, 8.5174022E-03
2426.011, 8.7340027E-03
2427.939, 9.6830549E-03
2429.868, 9.3619619E-03
2431.796, 9.5383329E-03
2433.725, 1.0450070E-02
2435.653, 1.0088220E-02
2437.582, 9.4393529E-03
2439.510, 9.5812324E-03
2441.439, 1.0152530E-02
2443.367, 1.1316130E-02
2445.296, 1.1789150E-02
2447.224, 1.1905780E-02
2449.153, 1.0882310E-02
2451.081, 9.7160907E-03
2453.010, 1.0207780E-02
2454.938, 1.0147070E-02
2456.866, 9.8919189E-03
2458.795, 1.0954870E-02
2460.723, 1.0581890E-02
2462.652, 9.4837463E-03
2464.580, 9.9762231E-03
2466.509, 1.0421320E-02
2468.437, 9.8157600E-03
2470.366, 8.8872481E-03
2472.294, 9.2668533E-03
2474.223, 9.4267409E-03
2476.151, 9.2818895E-03
2478.080, 9.3962103E-03
2480.008, 1.0087690E-02
2481.937, 1.0389850E-02
2483.865, 1.0095160E-02
2485.793, 9.4485581E-03
2487.722, 8.8699851E-03
2489.650, 8.0755446E-03
2491.579, 8.6744167E-03
2493.507, 9.1297133E-03
2495.436, 8.4821582E-03
2497.364, 8.7057361E-03
2499.293, 9.0328157E-03
2501.221, 9.3384981E-03
2503.150, 1.0688110E-02
2505.078, 1.0281000E-02
2507.007, 9.2487549E-03
2508.935, 9.2278672E-03
2510.864, 8.8223210E-03
2512.792, 9.0245996E-03
2514.720, 8.9600310E-03
2516.649, 7.9406770E-03
2518.577, 7.1777240E-03
2520.506, 8.5425433E-03
2522.434, 8.6484784E-03
2524.363, 7.4400818E-03
2526.291, 7.6708910E-03
2528.220, 9.2612859E-03
2530.148, 1.0636200E-02
2532.077, 9.4280597E-03
2534.005, 9.3642762E-03
2535.934, 9.9155083E-03
2537.862, 9.2051104E-03
2539.791, 9.2021767E-03
2541.719, 9.6031912E-03
2543.647, 9.7198170E-03
2545.576, 1.0065470E-02
2547.504, 9.9415006E-03
2549.433, 9.9098198E-03
2551.361, 1.0549460E-02
2553.290, 1.0905450E-02
2555.218, 1.1119760E-02
2557.147, 1.0521380E-02
2559.075, 1.0386540E-02
2561.004, 1.0611090E-02
2562.932, 9.5770387E-03
2564.861, 8.5313469E-03
2566.789, 9.9415006E-03
2568.718, 1.0198980E-02
2570.646, 8.9758756E-03
2572.574, 9.4931386E-03
2574.503, 1.0290820E-02
2576.431, 9.6380729E-03
2578.360, 8.9636277E-03
2580.288, 9.4784927E-03
2582.217, 1.0317940E-02
2584.145, 1.1328760E-02
2586.074, 1.1894430E-02
2588.002, 1.2272030E-02
2589.931, 1.1624100E-02
2591.859, 1.1423480E-02
2593.788, 1.1402980E-02
2595.716, 1.0908960E-02
2597.645, 1.0916030E-02
2599.573, 1.0625770E-02
2601.501, 1.0285300E-02
2603.430, 1.0852720E-02
2605.358, 1.1456730E-02
2607.287, 1.1891250E-02
2609.215, 1.3021430E-02
2611.144, 1.3469160E-02
2613.072, 1.2878130E-02
2615.001, 1.2100510E-02
2616.929, 1.1671680E-02
2618.858, 1.1207060E-02
2620.786, 1.1690900E-02
2622.715, 1.1530500E-02
2624.643, 1.1576320E-02
2626.572, 1.2839660E-02
2628.500, 1.3482990E-02
2630.428, 1.4256790E-02
2632.357, 1.4420920E-02
2634.285, 1.4324450E-02
2636.214, 1.3522730E-02
2638.142, 1.2791910E-02
2640.071, 1.3589520E-02
2641.999, 1.4661970E-02
2643.928, 1.4708070E-02
2645.856, 1.4047510E-02
2647.785, 1.4002060E-02
2649.713, 1.4821540E-02
2651.642, 1.5634660E-02
2653.570, 1.6028620E-02
2655.499, 1.6574821E-02
2657.427, 1.6115399E-02
2659.355, 1.4565440E-02
2661.284, 1.4316800E-02
2663.212, 1.4243550E-02
2665.141, 1.3590790E-02
2667.069, 1.3659640E-02
2668.998, 1.3748800E-02
2670.926, 1.3478730E-02
2672.855, 1.2802970E-02
2674.783, 1.2748140E-02
2676.712, 1.2764060E-02
2678.640, 1.2211120E-02
2680.569, 1.1600940E-02
2682.497, 1.1358040E-02
2684.426, 1.1264090E-02
2686.354, 1.1043740E-02
2688.282, 1.1389820E-02
2690.211, 1.1869120E-02
2692.139, 1.1811490E-02
2694.068, 1.0800910E-02
2695.996, 9.8399371E-03
2697.925, 9.7657545E-03
2699.853, 9.9815810E-03
2701.782, 9.9584637E-03
2703.710, 9.8860022E-03
2705.639, 9.8017026E-03
2707.567, 9.4121005E-03
2709.496, 8.5819690E-03
2711.424, 8.7161018E-03
2713.353, 9.0428116E-03
2715.281, 8.6439578E-03
2717.209, 9.5598344E-03
2719.138, 1.0205840E-02
2721.066, 9.9609820E-03
2722.995, 9.6464846E-03
2724.923, 8.8817896E-03
2726.852, 7.9045705E-03
2728.780, 7.9550240E-03
2730.709, 7.7991872E-03
2732.637, 7.7710650E-03
2734.566, 8.7940432E-03
2736.494, 8.7352498E-03
2738.423, 8.2174139E-03
2740.351, 8.1506353E-03
2742.280, 8.2421154E-03
2744.208, 8.3667412E-03
2746.136, 7.8901490E-03
2748.065, 8.0162697E-03
2749.993, 8.6911768E-03
2751.922, 9.2641963E-03
2753.850, 8.3376700E-03
2755.779, 8.6372569E-03
2757.707, 9.9578639E-03
2759.636, 1.1099930E-02
2761.564, 1.0365280E-02
2763.493, 8.8447500E-03
2765.421, 8.6439010E-03
2767.350, 9.6285827E-03
2769.278, 1.1698860E-02
2771.207, 1.1905280E-02
2773.135, 1.1404170E-02
2775.063, 1.0310640E-02
2776.992, 9.7204717E-03
2778.920, 1.0135470E-02
2780.849, 1.1139390E-02
2782.777, 1.2037890E-02
2784.706, 1.1669020E-02
2786.634, 1.1293470E-02
2788.563, 1.1761610E-02
2790.491, 1.2120610E-02
2792.420, 1.2023850E-02
2794.348, 1.1750400E-02
2796.277, 1.2292540E-02
2798.205, 1.3240740E-02
2800.134, 1.2971500E-02
2802.062, 1.3097150E-02
2803.990, 1.4057010E-02
2805.919, 1.3991080E-02
2807.847, 1.2967340E-02
2809.776, 1.3578810E-02
2811.704, 1.4313600E-02
2813.633, 1.4649620E-02
2815.561, 1.5606360E-02
2817.490, 1.5436130E-02
2819.418, 1.5372200E-02
2821.347, 1.6582530E-02
2823.275, 1.6261309E-02
2825.204, 1.5220900E-02
2827.132, 1.5562910E-02
2829.061, 1.6917139E-02
2830.989, 1.7038230E-02
2832.917, 1.6292440E-02
2834.846, 1.6517781E-02
2836.774, 1.6887270E-02
2838.703, 1.7200040E-02
2840.631, 1.8321140E-02
2842.560, 1.9608179E-02
2844.488, 2.0170661E-02
2846.417, 2.0279801E-02
2848.345, 1.9562669E-02
2850.274, 1.8917620E-02
2852.202, 1.8345799E-02
2854.131, 1.8493600E-02
2856.059, 1.9043909E-02
2857.988, 1.8537140E-02
2859.916, 1.8497311E-02
2861.844, 1.8642370E-02
2863.773, 1.9188561E-02
2865.701, 1.9912120E-02
2867.630, 1.9868700E-02
2869.558, 2.0032400E-02
2871.487, 1.8921880E-02
2873.415, 1.8386040E-02
2875.344, 2.0915311E-02
2877.272, 2.2393970E-02
2879.201, 2.2264371E-02
2881.129, 2.2435181E-02
2883.058, 2.2694040E-02
2884.986, 2.2698561E-02
2886.915, 2.2549611E-02
2888.843, 2.2815580E-02
2890.771, 2.4430729E-02
2892.700, 2.4859030E-02
2894.628, 2.4502110E-02
2896.557, 2.4700940E-02
2898.485, 2.4005210E-02
2900.414, 2.4374809E-02
2902.342, 2.5762649E-02
2904.271, 2.6664490E-02
2906.199, 2.6174501E-02
2908.128, 2.6265420E-02
2910.056, 2.6671801E-02
2911.985, 2.7165759E-02
2913.913, 2.8138470E-02
2915.842, 2.9295349E-02
2917.770, 2.8182430E-02
2919.698, 2.6919421E-02
2921.627, 2.6704891E-02
2923.555, 2.6774449E-02
2925.484, 2.5836680E-02
2927.412, 2.5109749E-02
2929.341, 2.4888201E-02
2931.269, 2.5536180E-02
2933.198, 2.6105961E-02
2935.126, 2.5491601E-02
2937.055, 2.4606060E-02
2938.983, 2.5999419E-02
2940.912, 2.6970800E-02
2942.840, 2.6779789E-02
2944.769, 2.7758250E-02
2946.697, 2.8348250E-02
2948.625, 2.7750790E-02
2950.554, 2.7077030E-02
2952.482, 2.6541511E-02
2954.411, 2.8275330E-02
2956.339, 2.9011970E-02
2958.268, 2.8059140E-02
2960.196, 2.8134551E-02
2962.125, 2.8745489E-02
2964.053, 2.9826170E-02
2965.982, 2.9623549E-02
2967.910, 2.8404459E-02
2969.839, 2.8717190E-02
2971.767, 3.0038740E-02
2973.696, 3.1938691E-02
2975.624, 3.1860240E-02
2977.552, 3.1572450E-02
2979.481, 3.1972479E-02
2981.409, 3.0876970E-02
2983.338, 2.9274359E-02
2985.266, 3.0041279E-02
2987.195, 3.0747149E-02
2989.123, 3.1004000E-02
2991.052, 3.1980570E-02
2992.980, 3.1894460E-02
2994.909, 3.2340370E-02
2996.837, 3.3769630E-02
2998.766, 3.3936869E-02
3000.694, 3.2671779E-02
3002.623, 3.2425292E-02
3004.551, 3.2767922E-02
3006.479, 3.3397339E-02
3008.408, 3.3879600E-02
3010.336, 3.3719610E-02
3012.265, 3.3708721E-02
3014.193, 3.3584241E-02
3016.122, 3.3920258E-02
3018.050, 3.4681879E-02
3019.979, 3.4508608E-02
3021.907, 3.4321491E-02
3023.836, 3.3486702E-02
3025.764, 3.2121021E-02
3027.693, 3.3390179E-02
3029.621, 3.4970041E-02
3031.550, 3.5303149E-02
3033.478, 3.5854291E-02
3035.406, 3.5458401E-02
3037.335, 3.5853680E-02
3039.263, 3.5695039E-02
3041.192, 3.5307899E-02
3043.120, 3.6146190E-02
3045.049, 3.8377859E-02
3046.977, 3.9512169E-02
3048.906, 4.0560219E-02
3050.834, 4.0588729E-02
3052.763, 3.8965259E-02
3054.691, 3.8317271E-02
3056.620, 3.8387120E-02
3058.548, 3.9328769E-02
3060.477, 4.1623119E-02
3062.405, 4.3018531E-02
3064.333, 4.2524200E-02
3066.262, 4.2178411E-02
3068.190, 4.2328011E-02
3070.119, 4.4619091E-02
3072.047, 4.5684181E-02
3073.976, 4.5781251E-02
3075.904, 4.5473330E-02
3077.833, 4.5153379E-02
3079.761, 4.5752861E-02
3081.690, 4.6728440E-02
3083.618, 4.8365910E-02
3085.547, 5.0250132E-02
3087.475, 4.9385019E-02
3089.404, 4.8092630E-02
3091.332, 4.8458811E-02
3093.260, 4.8778411E-02
3095.189, 4.9806010E-02
3097.117, 5.0244890E-02
3099.046, 5.1069751E-02
3100.974, 5.3082891E-02
3102.903, 5.3719491E-02
3104.831, 5.4610010E-02
3106.760, 5.6089152E-02
3108.688, 5.7333380E-02
3110.617, 5.7333961E-02
3112.545, 5.6927148E-02
3114.474, 5.7839729E-02
3116.402, 6.0384300E-02
3118.331, 6.1836381E-02
3120.259, 6.2950633E-02
3122.188, 6.4129569E-02
3124.116, 6.5885909E-02
3126.044, 6.6895202E-02
3127.973, 6.7647196E-02
3129.901, 6.8468198E-02
3131.830, 6.7995436E-02
3133.758, 6.8921849E-02
3135.687, 7.0768893E-02
3137.615, 7.2680160E-02
3139.544, 7.5244069E-02
3141.472, 7.7087313E-02
3143.401, 7.6744556E-02
3145.329, 7.6115839E-02
3147.258, 7.7740081E-02
3149.186, 8.1286870E-02
3151.115, 8.2878441E-02
3153.043, 8.3810873E-02
3154.971, 8.4898748E-02
3156.900, 8.6030103E-02
3158.828, 8.6430177E-02
3160.757, 8.8240594E-02
3162.685, 9.2494152E-02
3164.614, 9.5600441E-02
3166.542, 9.8999307E-02
3168.471, 0.1004807
3170.399, 0.1001633
3172.328, 0.1024798
3174.256, 0.1044868
3176.185, 0.1050772
3178.113, 0.1080492
3180.042, 0.1122486
3181.970, 0.1147303
3183.898, 0.1158416
3185.827, 0.1173206
3187.755, 0.1197653
3189.684, 0.1226195
3191.612, 0.1240891
3193.541, 0.1258001
3195.469, 0.1290507
3197.398, 0.1313606
3199.326, 0.1316365
3201.255, 0.1335336
3203.183, 0.1389894
3205.112, 0.1432205
3207.040, 0.1440228
3208.969, 0.1464998
3210.897, 0.1491325
3212.825, 0.1515218
3214.754, 0.1542820
3216.682, 0.1560323
3218.611, 0.1577955
3220.539, 0.1595822
3222.468, 0.1620818
3224.396, 0.1657726
3226.325, 0.1689133
3228.253, 0.1703419
3230.182, 0.1718899
3232.110, 0.1730264
3234.039, 0.1742695
3235.967, 0.1760934
3237.896, 0.1769388
3239.824, 0.1773789
3241.752, 0.1802548
3243.681, 0.1822172
3245.609, 0.1822476
3247.538, 0.1823411
3249.466, 0.1832057
3251.395, 0.1825989
3253.323, 0.1810944
3255.252, 0.1819080
3257.180, 0.1824394
3259.109, 0.1794212
3261.037, 0.1791780
3262.966, 0.1810944
3264.894, 0.1791585
3266.823, 0.1771171
3268.751, 0.1774439
3270.679, 0.1784229
3272.608, 0.1794540
3274.536, 0.1778876
3276.465, 0.1765763
3278.393, 0.1758220
3280.322, 0.1744166
3282.250, 0.1742998
3284.179, 0.1736287
3286.107, 0.1734540
3288.036, 0.1720316
3289.964, 0.1704717
3291.893, 0.1710250
3293.821, 0.1711642
3295.750, 0.1705614
3297.678, 0.1690275
3299.606, 0.1685588
3301.535, 0.1674398
3303.463, 0.1685100
3305.392, 0.1706658
3307.320, 0.1705944
3309.249, 0.1688579
3311.177, 0.1667074
3313.106, 0.1682012
3315.034, 0.1684640
3316.963, 0.1683109
3318.891, 0.1701336
3320.820, 0.1700362
3322.748, 0.1688405
3324.677, 0.1689957
3326.605, 0.1696214
3328.533, 0.1699430
3330.462, 0.1711016
3332.390, 0.1741634
3334.319, 0.1754425
3336.247, 0.1751261
3338.176, 0.1744280
3340.104, 0.1758060
3342.033, 0.1769551
3343.961, 0.1769837
3345.890, 0.1768347
3347.818, 0.1781447
3349.747, 0.1793402
3351.675, 0.1796844
3353.604, 0.1824522
3355.532, 0.1849712
3357.460, 0.1858760
3359.389, 0.1883924
3361.317, 0.1907497
3363.246, 0.1933019
3365.174, 0.1946197
3367.103, 0.1957572
3369.031, 0.1946323
3370.960, 0.1945290
3372.888, 0.1984712
3374.817, 0.2021253
3376.745, 0.2034780
3378.674, 0.2076272
3380.602, 0.2118615
3382.531, 0.2151233
3384.459, 0.2177408
3386.387, 0.2200100
3388.316, 0.2226256
3390.244, 0.2251830
3392.173, 0.2284313
3394.101, 0.2300537
3396.030, 0.2308713
3397.958, 0.2324987
3399.887, 0.2342280
3401.815, 0.2358192
3403.744, 0.2398960
3405.672, 0.2426710
3407.601, 0.2436213
3409.529, 0.2429511
3411.458, 0.2432206
3413.386, 0.2451340
3415.314, 0.2471646
3417.243, 0.2469745
3419.171, 0.2470850
3421.100, 0.2515613
3423.028, 0.2529389
3424.957, 0.2519851
3426.885, 0.2544762
3428.814, 0.2562495
3430.742, 0.2563978
3432.671, 0.2555533
3434.599, 0.2559188
3436.528, 0.2572972
3438.456, 0.2575061
3440.385, 0.2571143
3442.313, 0.2563066
3444.241, 0.2579584
3446.170, 0.2594386
3448.098, 0.2593784
3450.027, 0.2577777
3451.955, 0.2553251
3453.884, 0.2540618
3455.812, 0.2532665
3457.741, 0.2510929
3459.669, 0.2494606
3461.598, 0.2475962
3463.526, 0.2466058
3465.455, 0.2445083
3467.383, 0.2398184
3469.312, 0.2352686
3471.240, 0.2324848
3473.168, 0.2289899
3475.097, 0.2255587
3477.025, 0.2211093
3478.954, 0.2169452
3480.882, 0.2161518
3482.811, 0.2160861
3484.739, 0.2101141
3486.668, 0.2047421
3488.596, 0.2045505
3490.525, 0.2026972
3492.453, 0.1971391
3494.382, 0.1938323
3496.310, 0.1896940
3498.239, 0.1868418
3500.167, 0.1899990
3502.095, 0.1870842
3504.024, 0.1800454
3505.952, 0.1786209
3507.881, 0.1769168
3509.809, 0.1707176
3511.738, 0.1664077
3513.666, 0.1644191
3515.595, 0.1596402
3517.523, 0.1554770
3519.452, 0.1512981
3521.380, 0.1447594
3523.309, 0.1375202
3525.237, 0.1335868
3527.166, 0.1321729
3529.094, 0.1277209
3531.022, 0.1212466
3532.951, 0.1167492
3534.879, 0.1132728
3536.808, 0.1087829
3538.736, 0.1051266
3540.665, 9.9949010E-02
3542.593, 9.4924770E-02
3544.522, 9.4505943E-02
3546.450, 9.4005689E-02
3548.379, 8.8850044E-02
3550.307, 8.5005827E-02
3552.236, 8.2466252E-02
3554.164, 8.0488153E-02
3556.093, 7.9729237E-02
3558.021, 7.8538433E-02
3559.949, 7.4645407E-02
3561.878, 7.4285343E-02
3563.806, 7.4768543E-02
3565.735, 7.1173653E-02
3567.663, 6.8421148E-02
3569.592, 6.7422964E-02
3571.520, 6.7387320E-02
3573.449, 6.5155581E-02
3575.377, 6.6878438E-02
3577.306, 6.7723542E-02
3579.234, 6.4379357E-02
3581.163, 6.4027362E-02
3583.091, 6.5456949E-02
3585.020, 6.2766269E-02
3586.948, 5.7843260E-02
3588.876, 5.9244338E-02
3590.805, 6.3490033E-02
3592.733, 6.5111600E-02
3594.662, 6.4787962E-02
3596.590, 6.4614527E-02
3598.519, 6.3999020E-02
3600.447, 6.1190419E-02
3602.376, 5.8998849E-02
3604.304, 5.8150169E-02
3606.233, 5.4899789E-02
3608.161, 5.2552029E-02
3610.090, 5.4065429E-02
3612.018, 5.3243231E-02
3613.947, 4.6935320E-02
3615.875, 4.2522479E-02
3617.803, 4.2328279E-02
3619.732, 4.2267431E-02
3621.660, 4.1584011E-02
3623.589, 3.9676890E-02
3625.517, 3.7983570E-02
3627.446, 3.7976559E-02
3629.374, 3.7452709E-02
3631.303, 3.6938079E-02
3633.231, 3.8440559E-02
3635.160, 3.8656101E-02
3637.088, 3.4028299E-02
3639.017, 3.0445591E-02
3640.945, 2.9105270E-02
3642.874, 2.8338211E-02
3644.802, 2.6734181E-02
3646.730, 2.6973480E-02
3648.659, 2.5873641E-02
3650.587, 2.2677880E-02
3652.516, 2.4820181E-02
3654.444, 2.4139130E-02
3656.373, 2.2793340E-02
3658.301, 2.1878339E-02
3660.230, 1.8661890E-02
3662.158, 1.4957580E-02
3664.087, 1.4250880E-02
3666.015, 1.5556610E-02
3667.944, 1.2600500E-02
3669.872, 9.9905841E-03
3671.801, 1.1203540E-02
3673.729, 1.3243890E-02
3675.657, 1.5557310E-02
3677.586, 1.6554579E-02
3679.514, 1.7327581E-02
3681.443, 1.4735310E-02
3683.371, 1.2067930E-02
3685.300, 1.3099200E-02
3687.228, 1.2855910E-02
3689.157, 1.1486090E-02
3691.085, 1.1128760E-02
3693.014, 1.3219650E-02
3694.942, 1.4267500E-02
3696.871, 1.1066890E-02
3698.799, 8.8422066E-03
3700.728, 9.6757105E-03
3702.656, 1.0637080E-02
3704.584, 1.0607040E-02
3706.513, 9.6548814E-03
3708.441, 9.3758628E-03
3710.370, 9.1276327E-03
3712.298, 1.0129350E-02
3714.227, 1.2403150E-02
3716.155, 1.4644740E-02
3718.084, 1.4422610E-02
3720.012, 1.3194870E-02
3721.941, 1.2230210E-02
3723.869, 1.3270510E-02
3725.798, 1.2401610E-02
3727.726, 1.0277600E-02
3729.655, 1.0810190E-02
3731.583, 1.1197570E-02
3733.511, 1.1338270E-02
3735.440, 1.0352180E-02
3737.368, 1.1006090E-02
3739.297, 1.2382370E-02
3741.225, 1.2687950E-02
3743.154, 1.1583760E-02
3745.082, 8.5203135E-03
3747.011, 7.1622678E-03
3748.939, 4.6574832E-03
3750.868, 3.8841960E-03
3752.796, 6.3959230E-03
3754.725, 9.4633466E-03
3756.653, 1.3273260E-02
3758.582, 1.1912480E-02
3760.510, 9.6854819E-03
3762.438, 1.1378290E-02
3764.367, 1.4630710E-02
3766.295, 1.6031669E-02
3768.224, 1.5300170E-02
3770.152, 1.1713990E-02
3772.081, 9.9362014E-03
3774.009, 9.9753765E-03
3775.938, 8.4580826E-03
3777.866, 8.0755409E-03
3779.795, 1.0780270E-02
3781.723, 1.2715680E-02
3783.652, 1.1085840E-02
3785.580, 9.1971084E-03
3787.509, 1.1768040E-02
3789.437, 1.4635420E-02
3791.365, 1.2582260E-02
3793.294, 9.0568550E-03
3795.222, 9.1302469E-03
3797.151, 1.1328700E-02
3799.079, 1.1387310E-02
3801.008, 1.4296540E-02
3802.936, 1.4610770E-02
3804.865, 1.0701280E-02
3806.793, 9.8952856E-03
3808.722, 9.6281273E-03
3810.650, 8.7458957E-03
3812.579, 8.0239400E-03
3814.507, 8.5944058E-03
3816.436, 1.1248090E-02
3818.364, 1.1614170E-02
3820.292, 1.0995800E-02
3822.221, 8.7422784E-03
3824.149, 6.4867479E-03
3826.078, 5.9827999E-03
3828.006, 9.4209760E-03
3829.935, 1.1309730E-02
3831.863, 9.2833797E-03
3833.792, 1.3776860E-02
3835.720, 1.6571309E-02
3837.649, 1.4422940E-02
3839.577, 1.2264800E-02
3841.506, 1.0114080E-02
3843.434, 1.3332240E-02
3845.363, 1.5520400E-02
3847.291, 1.4124630E-02
3849.219, 1.2960240E-02
3851.148, 1.2359610E-02
3853.076, 1.0675100E-02
3855.005, 9.0296604E-03
3856.933, 8.3297025E-03
3858.862, 1.0819040E-02
3860.790, 1.2674740E-02
3862.719, 1.4284150E-02
3864.647, 1.2911010E-02
3866.576, 1.0336700E-02
3868.504, 1.0522550E-02
3870.433, 1.4084790E-02
3872.361, 1.4755560E-02
3874.290, 1.1847630E-02
3876.218, 1.2663660E-02
3878.146, 1.4101200E-02
3880.075, 1.1456500E-02
3882.003, 1.1438490E-02
3883.932, 1.4089140E-02
3885.860, 1.6291510E-02
3887.789, 1.7120650E-02
3889.717, 1.3595690E-02
3891.646, 1.1328000E-02
3893.574, 1.4013550E-02
3895.503, 1.4581910E-02
3897.431, 1.4078080E-02
3899.360, 1.3948000E-02
3901.288, 1.4125380E-02
3903.217, 1.2978350E-02
3905.145, 1.2295800E-02
3907.073, 1.4086410E-02
3909.002, 1.2902310E-02
3910.930, 1.2050770E-02
3912.859, 1.3938380E-02
3914.787, 1.3524840E-02
3916.716, 1.4745090E-02
3918.644, 1.4961270E-02
3920.573, 1.2200710E-02
3922.501, 1.2318900E-02
3924.430, 1.2208790E-02
3926.358, 1.0894760E-02
3928.287, 9.5032388E-03
3930.215, 1.0798660E-02
3932.144, 1.3744500E-02
3934.072, 1.4183750E-02
3936.000, 1.5929529E-02
3937.929, 1.4060700E-02
3939.857, 1.1152690E-02
3941.786, 1.2080070E-02
3943.714, 1.2408950E-02
3945.643, 1.2567780E-02
3947.571, 1.4197600E-02
3949.500, 1.6094990E-02
3951.428, 1.7147111E-02
3953.357, 1.5356130E-02
3955.285, 1.2982580E-02
3957.214, 1.4041650E-02
3959.142, 1.5904950E-02
3961.071, 1.4270370E-02
3962.999, 1.5634600E-02
3964.927, 1.6350949E-02
3966.856, 1.6389029E-02
3968.784, 1.6641419E-02
3970.713, 1.5442660E-02
3972.641, 1.8542580E-02
3974.570, 1.8901180E-02
3976.498, 1.5692510E-02
3978.427, 1.2524150E-02
3980.355, 1.2931190E-02
3982.284, 1.4522030E-02
3984.212, 1.5519270E-02
3986.141, 1.3045670E-02
3988.069, 1.1453300E-02
3989.998, 1.2299060E-02
3991.926, 1.4265370E-02
3993.854, 1.4107360E-02
3995.783, 1.5226260E-02
3997.711, 1.7533530E-02
3999.640, 1.7541990E-02
##END=



