##NAMES=Siderite
##RRUFFID=R040034
##IDEAL CHEMISTRY=Fe^2+^CO_3_
##LOCALITY=Pribram, Czech Republic
##OWNER=RRUFF
##SOURCE=University of Arizona Mineral Museum
##DESCRIPTION=Group of tan colored flattened rhombohedra
##STATUS=The identification of this mineral has been confirmed by X-ray diffraction and chemical analysis
##URL=rruff.info/R040034
##MEASURED CHEMISTRY=(Fe_0.72_Mg_0.24_Mn_0.03_Ca_0.01_)_Î£=1_C_1.00_O_3_; CO_2_ estimated by difference
3.991926e+002, 0.000000e+000
4.011211e+002, 7.717216e-002
4.030496e+002, 7.759055e-002
4.049780e+002, 7.455810e-002
4.069065e+002, 6.946179e-002
4.088350e+002, 6.225079e-002
4.107634e+002, 5.618391e-002
4.126919e+002, 5.244443e-002
4.146204e+002, 5.138002e-002
4.165488e+002, 4.855164e-002
4.184773e+002, 4.551120e-002
4.204058e+002, 4.286220e-002
4.223342e+002, 3.802937e-002
4.242627e+002, 3.366295e-002
4.261912e+002, 3.209272e-002
4.281196e+002, 3.140245e-002
4.300481e+002, 2.970801e-002
4.319766e+002, 2.764053e-002
4.339050e+002, 2.549274e-002
4.358335e+002, 2.368006e-002
4.377620e+002, 2.287409e-002
4.396904e+002, 2.263505e-002
4.416189e+002, 2.183922e-002
4.435474e+002, 2.099008e-002
4.454758e+002, 2.013774e-002
4.474043e+002, 1.868836e-002
4.493328e+002, 1.780907e-002
4.512612e+002, 1.806356e-002
4.531897e+002, 1.811714e-002
4.551182e+002, 1.753858e-002
4.570466e+002, 1.669959e-002
4.589751e+002, 1.684831e-002
4.609036e+002, 1.681634e-002
4.628320e+002, 1.663695e-002
4.647605e+002, 1.628475e-002
4.666890e+002, 1.604784e-002
4.686174e+002, 1.585842e-002
4.705459e+002, 1.556348e-002
4.724744e+002, 1.510080e-002
4.744028e+002, 1.484666e-002
4.763313e+002, 1.493457e-002
4.782598e+002, 1.509438e-002
4.801882e+002, 1.485685e-002
4.821167e+002, 1.408281e-002
4.840452e+002, 1.382575e-002
4.859736e+002, 1.401442e-002
4.879021e+002, 1.403660e-002
4.898306e+002, 1.378226e-002
4.917590e+002, 1.363498e-002
4.936875e+002, 1.379668e-002
4.956160e+002, 1.371368e-002
4.975444e+002, 1.331006e-002
4.994729e+002, 1.318505e-002
5.014014e+002, 1.320125e-002
5.033298e+002, 1.306728e-002
5.052583e+002, 1.316123e-002
5.071868e+002, 1.325637e-002
5.091152e+002, 1.332630e-002
5.110437e+002, 1.318122e-002
5.129722e+002, 1.305983e-002
5.149006e+002, 1.307235e-002
5.168291e+002, 1.307616e-002
5.187576e+002, 1.279361e-002
5.206860e+002, 1.276300e-002
5.226145e+002, 1.291663e-002
5.245430e+002, 1.285315e-002
5.264714e+002, 1.262634e-002
5.283999e+002, 1.256927e-002
5.303284e+002, 1.262415e-002
5.322568e+002, 1.239119e-002
5.341853e+002, 1.266839e-002
5.361138e+002, 1.290180e-002
5.380422e+002, 1.223685e-002
5.399707e+002, 1.243970e-002
5.418992e+002, 1.259075e-002
5.438276e+002, 1.206885e-002
5.457561e+002, 1.199348e-002
5.476846e+002, 1.195314e-002
5.496130e+002, 1.202415e-002
5.515415e+002, 1.213558e-002
5.534700e+002, 1.188505e-002
5.553984e+002, 1.159457e-002
5.573269e+002, 1.166208e-002
5.592554e+002, 1.202690e-002
5.611838e+002, 1.210716e-002
5.631123e+002, 1.229001e-002
5.650408e+002, 1.255843e-002
5.669692e+002, 1.252295e-002
5.688977e+002, 1.192837e-002
5.708262e+002, 1.164220e-002
5.727546e+002, 1.181108e-002
5.746831e+002, 1.226574e-002
5.766116e+002, 1.224333e-002
5.785400e+002, 1.211017e-002
5.804685e+002, 1.211075e-002
5.823970e+002, 1.202879e-002
5.843254e+002, 1.191334e-002
5.862539e+002, 1.191182e-002
5.881824e+002, 1.211645e-002
5.901108e+002, 1.254491e-002
5.920393e+002, 1.240600e-002
5.939678e+002, 1.236310e-002
5.958962e+002, 1.244404e-002
5.978247e+002, 1.284459e-002
5.997532e+002, 1.290953e-002
6.016816e+002, 1.274335e-002
6.036101e+002, 1.251482e-002
6.055386e+002, 1.251279e-002
6.074670e+002, 1.280401e-002
6.093955e+002, 1.306159e-002
6.113240e+002, 1.312492e-002
6.132524e+002, 1.332510e-002
6.151809e+002, 1.368701e-002
6.171094e+002, 1.376331e-002
6.190378e+002, 1.364031e-002
6.209663e+002, 1.420004e-002
6.228948e+002, 1.451925e-002
6.248232e+002, 1.422752e-002
6.267517e+002, 1.408447e-002
6.286802e+002, 1.419905e-002
6.306086e+002, 1.424004e-002
6.325371e+002, 1.444177e-002
6.344656e+002, 1.471219e-002
6.363940e+002, 1.458696e-002
6.383225e+002, 1.455158e-002
6.402510e+002, 1.501021e-002
6.421794e+002, 1.525990e-002
6.441079e+002, 1.536463e-002
6.460364e+002, 1.564281e-002
6.479648e+002, 1.581747e-002
6.498933e+002, 1.573579e-002
6.518218e+002, 1.602084e-002
6.537502e+002, 1.645476e-002
6.556787e+002, 1.657345e-002
6.576072e+002, 1.638756e-002
6.595356e+002, 1.659340e-002
6.614641e+002, 1.713911e-002
6.633926e+002, 1.736668e-002
6.653210e+002, 1.764610e-002
6.672495e+002, 1.820309e-002
6.691780e+002, 1.824463e-002
6.711064e+002, 1.823859e-002
6.730349e+002, 1.852262e-002
6.749634e+002, 1.887910e-002
6.768918e+002, 1.926726e-002
6.788203e+002, 1.945709e-002
6.807488e+002, 1.967938e-002
6.826772e+002, 2.009393e-002
6.846057e+002, 2.038626e-002
6.865342e+002, 2.051929e-002
6.884626e+002, 2.082296e-002
6.903911e+002, 2.133375e-002
6.923196e+002, 2.187520e-002
6.942480e+002, 2.238897e-002
6.961765e+002, 2.291885e-002
6.981050e+002, 2.348894e-002
7.000334e+002, 2.385013e-002
7.019619e+002, 2.417999e-002
7.038904e+002, 2.504973e-002
7.058188e+002, 2.619271e-002
7.077473e+002, 2.711787e-002
7.096758e+002, 2.799265e-002
7.116042e+002, 2.907476e-002
7.135327e+002, 3.048623e-002
7.154612e+002, 3.201015e-002
7.173896e+002, 3.395877e-002
7.193181e+002, 3.697945e-002
7.212466e+002, 4.038684e-002
7.231750e+002, 4.418650e-002
7.251035e+002, 4.816465e-002
7.270320e+002, 5.218441e-002
7.289604e+002, 5.737565e-002
7.308889e+002, 6.468871e-002
7.328174e+002, 7.516560e-002
7.347458e+002, 8.990425e-002
7.366743e+002, 1.082019e-001
7.386028e+002, 1.226340e-001
7.405313e+002, 1.180055e-001
7.424597e+002, 9.174475e-002
7.443882e+002, 6.190034e-002
7.463167e+002, 4.096332e-002
7.482451e+002, 2.944003e-002
7.501736e+002, 2.338904e-002
7.521021e+002, 2.025749e-002
7.540305e+002, 1.869557e-002
7.559590e+002, 1.773954e-002
7.578875e+002, 1.737181e-002
7.598159e+002, 1.740957e-002
7.617444e+002, 1.743178e-002
7.636729e+002, 1.766628e-002
7.656013e+002, 1.791986e-002
7.675298e+002, 1.836189e-002
7.694583e+002, 1.873650e-002
7.713867e+002, 1.906984e-002
7.733152e+002, 1.940580e-002
7.752437e+002, 1.982722e-002
7.771721e+002, 2.029438e-002
7.791006e+002, 2.079861e-002
7.810291e+002, 2.122760e-002
7.829575e+002, 2.156559e-002
7.848860e+002, 2.186456e-002
7.868145e+002, 2.210958e-002
7.887429e+002, 2.259310e-002
7.906714e+002, 2.323918e-002
7.925999e+002, 2.375542e-002
7.945283e+002, 2.431211e-002
7.964568e+002, 2.456111e-002
7.983853e+002, 2.502394e-002
8.003137e+002, 2.579998e-002
8.022422e+002, 2.651328e-002
8.041707e+002, 2.692432e-002
8.060991e+002, 2.738989e-002
8.080276e+002, 2.819772e-002
8.099561e+002, 2.919071e-002
8.118845e+002, 3.004534e-002
8.138130e+002, 3.071420e-002
8.157415e+002, 3.153867e-002
8.176699e+002, 3.286480e-002
8.195984e+002, 3.427126e-002
8.215269e+002, 3.547873e-002
8.234553e+002, 3.695372e-002
8.253838e+002, 3.896710e-002
8.273123e+002, 4.125187e-002
8.292407e+002, 4.378404e-002
8.311692e+002, 4.712364e-002
8.330977e+002, 5.136498e-002
8.350261e+002, 5.616831e-002
8.369546e+002, 6.120474e-002
8.388831e+002, 6.622706e-002
8.408115e+002, 7.052130e-002
8.427400e+002, 7.424796e-002
8.446685e+002, 7.961534e-002
8.465969e+002, 8.754106e-002
8.485254e+002, 9.760937e-002
8.504539e+002, 1.099086e-001
8.523823e+002, 1.251876e-001
8.543108e+002, 1.434570e-001
8.562393e+002, 1.644725e-001
8.581677e+002, 1.853634e-001
8.600962e+002, 2.025599e-001
8.620247e+002, 2.145101e-001
8.639531e+002, 2.211424e-001
8.658816e+002, 2.215792e-001
8.678101e+002, 2.162217e-001
8.697385e+002, 2.067606e-001
8.716670e+002, 1.935729e-001
8.735955e+002, 1.762510e-001
8.755239e+002, 1.561753e-001
8.774524e+002, 1.338124e-001
8.793809e+002, 1.098876e-001
8.813093e+002, 8.599841e-002
8.832378e+002, 6.408887e-002
8.851663e+002, 4.672442e-002
8.870947e+002, 3.597388e-002
8.890232e+002, 3.104606e-002
8.909517e+002, 2.920067e-002
8.928801e+002, 2.846910e-002
8.948085e+002, 2.807798e-002
8.967370e+002, 2.823883e-002
8.986655e+002, 2.849344e-002
9.005939e+002, 2.850934e-002
9.025224e+002, 2.870404e-002
9.044509e+002, 2.878358e-002
9.063793e+002, 2.904598e-002
9.083078e+002, 2.932114e-002
9.102363e+002, 2.942022e-002
9.121647e+002, 2.936791e-002
9.140932e+002, 2.968944e-002
9.160217e+002, 3.019996e-002
9.179501e+002, 3.056089e-002
9.198786e+002, 3.070438e-002
9.218071e+002, 3.086265e-002
9.237355e+002, 3.118815e-002
9.256640e+002, 3.167601e-002
9.275925e+002, 3.186730e-002
9.295209e+002, 3.189707e-002
9.314494e+002, 3.225788e-002
9.333779e+002, 3.263348e-002
9.353063e+002, 3.294723e-002
9.372348e+002, 3.311272e-002
9.391633e+002, 3.344664e-002
9.410917e+002, 3.384998e-002
9.430202e+002, 3.404871e-002
9.449487e+002, 3.420932e-002
9.468771e+002, 3.446811e-002
9.488056e+002, 3.476774e-002
9.507341e+002, 3.507029e-002
9.526625e+002, 3.548067e-002
9.545910e+002, 3.588064e-002
9.565195e+002, 3.602757e-002
9.584479e+002, 3.624373e-002
9.603764e+002, 3.656944e-002
9.623049e+002, 3.702423e-002
9.642333e+002, 3.735133e-002
9.661618e+002, 3.755707e-002
9.680903e+002, 3.780953e-002
9.700187e+002, 3.805516e-002
9.719472e+002, 3.858604e-002
9.738757e+002, 3.890042e-002
9.758041e+002, 3.903469e-002
9.777326e+002, 3.941275e-002
9.796611e+002, 3.993496e-002
9.815895e+002, 4.032171e-002
9.835180e+002, 4.061234e-002
9.854465e+002, 4.101450e-002
9.873749e+002, 4.149604e-002
9.893034e+002, 4.187388e-002
9.912319e+002, 4.225327e-002
9.931603e+002, 4.263247e-002
9.950888e+002, 4.281737e-002
9.970173e+002, 4.319410e-002
9.989457e+002, 4.367772e-002
1.000874e+003, 4.421252e-002
1.002803e+003, 4.472382e-002
1.004731e+003, 4.487493e-002
1.006660e+003, 4.502142e-002
1.008588e+003, 4.553852e-002
1.010517e+003, 4.604193e-002
1.012445e+003, 4.635114e-002
1.014373e+003, 4.664771e-002
1.016302e+003, 4.712502e-002
1.018230e+003, 4.768868e-002
1.020159e+003, 4.813353e-002
1.022087e+003, 4.844518e-002
1.024016e+003, 4.882071e-002
1.025944e+003, 4.933568e-002
1.027873e+003, 4.978944e-002
1.029801e+003, 5.028940e-002
1.031730e+003, 5.080019e-002
1.033658e+003, 5.118565e-002
1.035587e+003, 5.161379e-002
1.037515e+003, 5.227800e-002
1.039444e+003, 5.279782e-002
1.041372e+003, 5.335569e-002
1.043301e+003, 5.406071e-002
1.045229e+003, 5.470228e-002
1.047157e+003, 5.504079e-002
1.049086e+003, 5.567687e-002
1.051014e+003, 5.645428e-002
1.052943e+003, 5.685836e-002
1.054871e+003, 5.720783e-002
1.056800e+003, 5.777363e-002
1.058728e+003, 5.843147e-002
1.060657e+003, 5.895529e-002
1.062585e+003, 5.917551e-002
1.064514e+003, 5.963762e-002
1.066442e+003, 6.014907e-002
1.068371e+003, 6.088072e-002
1.070299e+003, 6.162060e-002
1.072228e+003, 6.218277e-002
1.074156e+003, 6.285198e-002
1.076084e+003, 6.340635e-002
1.078013e+003, 6.374826e-002
1.079941e+003, 6.433096e-002
1.081870e+003, 6.501810e-002
1.083798e+003, 6.543633e-002
1.085727e+003, 6.569527e-002
1.087655e+003, 6.615581e-002
1.089584e+003, 6.644141e-002
1.091512e+003, 6.647962e-002
1.093441e+003, 6.649849e-002
1.095369e+003, 6.674863e-002
1.097298e+003, 6.700048e-002
1.099226e+003, 6.753314e-002
1.101155e+003, 6.816906e-002
1.103083e+003, 6.861544e-002
1.105011e+003, 6.882849e-002
1.106940e+003, 6.919245e-002
1.108868e+003, 6.989273e-002
1.110797e+003, 7.052070e-002
1.112725e+003, 7.092846e-002
1.114654e+003, 7.166443e-002
1.116582e+003, 7.209138e-002
1.118511e+003, 7.235954e-002
1.120439e+003, 7.300666e-002
1.122368e+003, 7.372127e-002
1.124296e+003, 7.436819e-002
1.126225e+003, 7.489433e-002
1.128153e+003, 7.538446e-002
1.130082e+003, 7.615089e-002
1.132010e+003, 7.705728e-002
1.133938e+003, 7.776934e-002
1.135867e+003, 7.842979e-002
1.137795e+003, 7.935260e-002
1.139724e+003, 7.995910e-002
1.141652e+003, 8.062915e-002
1.143581e+003, 8.168351e-002
1.145509e+003, 8.255754e-002
1.147438e+003, 8.310429e-002
1.149366e+003, 8.394451e-002
1.151295e+003, 8.486969e-002
1.153223e+003, 8.576208e-002
1.155152e+003, 8.661915e-002
1.157080e+003, 8.743192e-002
1.159009e+003, 8.842278e-002
1.160937e+003, 8.925228e-002
1.162865e+003, 9.009280e-002
1.164794e+003, 9.097078e-002
1.166722e+003, 9.172329e-002
1.168651e+003, 9.262094e-002
1.170579e+003, 9.364203e-002
1.172508e+003, 9.447969e-002
1.174436e+003, 9.529266e-002
1.176365e+003, 9.647211e-002
1.178293e+003, 9.751686e-002
1.180222e+003, 9.838647e-002
1.182150e+003, 9.929841e-002
1.184079e+003, 1.003753e-001
1.186007e+003, 1.015044e-001
1.187936e+003, 1.023869e-001
1.189864e+003, 1.029436e-001
1.191792e+003, 1.037692e-001
1.193721e+003, 1.049451e-001
1.195649e+003, 1.060972e-001
1.197578e+003, 1.070052e-001
1.199506e+003, 1.079370e-001
1.201435e+003, 1.087843e-001
1.203363e+003, 1.095233e-001
1.205292e+003, 1.103644e-001
1.207220e+003, 1.114625e-001
1.209149e+003, 1.126040e-001
1.211077e+003, 1.137144e-001
1.213006e+003, 1.147863e-001
1.214934e+003, 1.159619e-001
1.216863e+003, 1.171230e-001
1.218791e+003, 1.183512e-001
1.220719e+003, 1.195416e-001
1.222648e+003, 1.207272e-001
1.224576e+003, 1.217847e-001
1.226505e+003, 1.229926e-001
1.228433e+003, 1.243408e-001
1.230362e+003, 1.256043e-001
1.232290e+003, 1.268711e-001
1.234219e+003, 1.282825e-001
1.236147e+003, 1.296489e-001
1.238076e+003, 1.310648e-001
1.240004e+003, 1.325675e-001
1.241933e+003, 1.341089e-001
1.243861e+003, 1.356595e-001
1.245790e+003, 1.371517e-001
1.247718e+003, 1.387680e-001
1.249646e+003, 1.405197e-001
1.251575e+003, 1.421925e-001
1.253503e+003, 1.439945e-001
1.255432e+003, 1.457219e-001
1.257360e+003, 1.472619e-001
1.259289e+003, 1.489739e-001
1.261217e+003, 1.508592e-001
1.263146e+003, 1.526883e-001
1.265074e+003, 1.544202e-001
1.267003e+003, 1.564802e-001
1.268931e+003, 1.585844e-001
1.270860e+003, 1.606201e-001
1.272788e+003, 1.625390e-001
1.274717e+003, 1.645001e-001
1.276645e+003, 1.668549e-001
1.278573e+003, 1.690936e-001
1.280502e+003, 1.709814e-001
1.282430e+003, 1.731672e-001
1.284359e+003, 1.755119e-001
1.286287e+003, 1.778653e-001
1.288216e+003, 1.803230e-001
1.290144e+003, 1.827195e-001
1.292073e+003, 1.851080e-001
1.294001e+003, 1.875909e-001
1.295930e+003, 1.902261e-001
1.297858e+003, 1.929763e-001
1.299787e+003, 1.956047e-001
1.301715e+003, 1.980728e-001
1.303644e+003, 2.007985e-001
1.305572e+003, 2.039493e-001
1.307500e+003, 2.070802e-001
1.309429e+003, 2.098414e-001
1.311357e+003, 2.128305e-001
1.313286e+003, 2.159349e-001
1.315214e+003, 2.188909e-001
1.317143e+003, 2.219831e-001
1.319071e+003, 2.254011e-001
1.321000e+003, 2.286358e-001
1.322928e+003, 2.319037e-001
1.324857e+003, 2.351975e-001
1.326785e+003, 2.384924e-001
1.328714e+003, 2.417906e-001
1.330642e+003, 2.452967e-001
1.332571e+003, 2.490062e-001
1.334499e+003, 2.527601e-001
1.336427e+003, 2.563089e-001
1.338356e+003, 2.599646e-001
1.340284e+003, 2.639338e-001
1.342213e+003, 2.679033e-001
1.344141e+003, 2.719612e-001
1.346070e+003, 2.761346e-001
1.347998e+003, 2.801411e-001
1.349927e+003, 2.843004e-001
1.351855e+003, 2.885394e-001
1.353784e+003, 2.931894e-001
1.355712e+003, 2.979304e-001
1.357641e+003, 3.026297e-001
1.359569e+003, 3.072046e-001
1.361498e+003, 3.119928e-001
1.363426e+003, 3.172563e-001
1.365354e+003, 3.226089e-001
1.367283e+003, 3.276403e-001
1.369211e+003, 3.328938e-001
1.371140e+003, 3.385673e-001
1.373068e+003, 3.443903e-001
1.374997e+003, 3.500141e-001
1.376925e+003, 3.555535e-001
1.378854e+003, 3.609442e-001
1.380782e+003, 3.662715e-001
1.382711e+003, 3.715954e-001
1.384639e+003, 3.769467e-001
1.386568e+003, 3.819480e-001
1.388496e+003, 3.864653e-001
1.390424e+003, 3.904153e-001
1.392353e+003, 3.937925e-001
1.394281e+003, 3.964331e-001
1.396210e+003, 3.984862e-001
1.398138e+003, 4.009351e-001
1.400067e+003, 4.034646e-001
1.401995e+003, 4.054027e-001
1.403924e+003, 4.069144e-001
1.405852e+003, 4.074171e-001
1.407781e+003, 4.067910e-001
1.409709e+003, 4.050665e-001
1.411638e+003, 4.024629e-001
1.413566e+003, 3.991291e-001
1.415495e+003, 3.951145e-001
1.417423e+003, 3.905111e-001
1.419351e+003, 3.851995e-001
1.421280e+003, 3.799000e-001
1.423208e+003, 3.743915e-001
1.425137e+003, 3.681889e-001
1.427065e+003, 3.620412e-001
1.428994e+003, 3.561132e-001
1.430922e+003, 3.501965e-001
1.432851e+003, 3.442167e-001
1.434779e+003, 3.387218e-001
1.436708e+003, 3.335874e-001
1.438636e+003, 3.282702e-001
1.440565e+003, 3.231948e-001
1.442493e+003, 3.181835e-001
1.444422e+003, 3.130964e-001
1.446350e+003, 3.081595e-001
1.448278e+003, 3.029926e-001
1.450207e+003, 2.978031e-001
1.452135e+003, 2.925352e-001
1.454064e+003, 2.876331e-001
1.455992e+003, 2.826471e-001
1.457921e+003, 2.773397e-001
1.459849e+003, 2.721970e-001
1.461778e+003, 2.672767e-001
1.463706e+003, 2.623405e-001
1.465635e+003, 2.570913e-001
1.467563e+003, 2.522279e-001
1.469492e+003, 2.477381e-001
1.471420e+003, 2.429368e-001
1.473349e+003, 2.381439e-001
1.475277e+003, 2.335627e-001
1.477205e+003, 2.288326e-001
1.479134e+003, 2.239378e-001
1.481062e+003, 2.189109e-001
1.482991e+003, 2.141617e-001
1.484919e+003, 2.095172e-001
1.486848e+003, 2.047162e-001
1.488776e+003, 1.997652e-001
1.490705e+003, 1.947883e-001
1.492633e+003, 1.898690e-001
1.494562e+003, 1.850144e-001
1.496490e+003, 1.798020e-001
1.498419e+003, 1.745455e-001
1.500347e+003, 1.695548e-001
1.502276e+003, 1.647150e-001
1.504204e+003, 1.596145e-001
1.506132e+003, 1.545506e-001
1.508061e+003, 1.494892e-001
1.509989e+003, 1.444376e-001
1.511918e+003, 1.393542e-001
1.513846e+003, 1.344959e-001
1.515775e+003, 1.298406e-001
1.517703e+003, 1.250477e-001
1.519632e+003, 1.204927e-001
1.521560e+003, 1.160189e-001
1.523489e+003, 1.118154e-001
1.525417e+003, 1.075184e-001
1.527346e+003, 1.030493e-001
1.529274e+003, 9.900250e-002
1.531203e+003, 9.492652e-002
1.533131e+003, 9.087855e-002
1.535059e+003, 8.703962e-002
1.536988e+003, 8.311030e-002
1.538916e+003, 7.915456e-002
1.540845e+003, 7.521762e-002
1.542773e+003, 7.142705e-002
1.544702e+003, 6.779939e-002
1.546630e+003, 6.385470e-002
1.548559e+003, 5.988376e-002
1.550487e+003, 5.567137e-002
1.552416e+003, 5.154182e-002
1.554344e+003, 4.722094e-002
1.556273e+003, 4.262163e-002
1.558201e+003, 3.797341e-002
1.560130e+003, 3.341909e-002
1.562058e+003, 2.933733e-002
1.563986e+003, 2.561929e-002
1.565915e+003, 2.239266e-002
1.567843e+003, 1.994526e-002
1.569772e+003, 1.816531e-002
1.571700e+003, 1.707933e-002
1.573629e+003, 1.636880e-002
1.575557e+003, 1.580524e-002
1.577486e+003, 1.527729e-002
1.579414e+003, 1.507810e-002
1.581343e+003, 1.497642e-002
1.583271e+003, 1.487093e-002
1.585200e+003, 1.471116e-002
1.587128e+003, 1.473173e-002
1.589057e+003, 1.487851e-002
1.590985e+003, 1.462318e-002
1.592913e+003, 1.442054e-002
1.594842e+003, 1.424085e-002
1.596770e+003, 1.413751e-002
1.598699e+003, 1.418860e-002
1.600627e+003, 1.389943e-002
1.602556e+003, 1.375195e-002
1.604484e+003, 1.362805e-002
1.606413e+003, 1.320529e-002
1.608341e+003, 1.302423e-002
1.610270e+003, 1.262629e-002
1.612198e+003, 1.211939e-002
1.614127e+003, 1.186501e-002
1.616055e+003, 1.165104e-002
1.617984e+003, 1.141362e-002
1.619912e+003, 1.121512e-002
1.621840e+003, 1.086780e-002
1.623769e+003, 1.054105e-002
1.625697e+003, 1.027149e-002
1.627626e+003, 1.001592e-002
1.629554e+003, 9.953971e-003
1.631483e+003, 9.801432e-003
1.633411e+003, 9.692760e-003
1.635340e+003, 9.437501e-003
1.637268e+003, 9.172346e-003
1.639197e+003, 9.096853e-003
1.641125e+003, 8.893516e-003
1.643054e+003, 8.820062e-003
1.644982e+003, 8.667135e-003
1.646911e+003, 8.550202e-003
1.648839e+003, 8.446628e-003
1.650767e+003, 8.301147e-003
1.652696e+003, 7.968404e-003
1.654624e+003, 7.821585e-003
1.656553e+003, 7.909146e-003
1.658481e+003, 7.870241e-003
1.660410e+003, 7.845027e-003
1.662338e+003, 7.733443e-003
1.664267e+003, 7.531069e-003
1.666195e+003, 7.333288e-003
1.668124e+003, 7.049263e-003
1.670052e+003, 6.687136e-003
1.671981e+003, 6.821789e-003
1.673909e+003, 6.977723e-003
1.675838e+003, 6.622897e-003
1.677766e+003, 6.344303e-003
1.679694e+003, 6.187529e-003
1.681623e+003, 6.287692e-003
1.683551e+003, 6.446440e-003
1.685480e+003, 6.462360e-003
1.687408e+003, 6.182595e-003
1.689337e+003, 5.938369e-003
1.691265e+003, 6.069044e-003
1.693194e+003, 6.338381e-003
1.695122e+003, 6.436366e-003
1.697051e+003, 6.226875e-003
1.698979e+003, 5.835679e-003
1.700908e+003, 5.522775e-003
1.702836e+003, 5.723372e-003
1.704765e+003, 5.761271e-003
1.706693e+003, 5.612536e-003
1.708621e+003, 5.651921e-003
1.710550e+003, 5.570760e-003
1.712478e+003, 5.237633e-003
1.714407e+003, 5.176630e-003
1.716335e+003, 5.203082e-003
1.718264e+003, 5.135454e-003
1.720192e+003, 5.084967e-003
1.722121e+003, 4.811825e-003
1.724049e+003, 4.681389e-003
1.725978e+003, 5.004171e-003
1.727906e+003, 5.047958e-003
1.729835e+003, 4.654765e-003
1.731763e+003, 4.441819e-003
1.733692e+003, 4.493027e-003
1.735620e+003, 4.718576e-003
1.737548e+003, 4.800058e-003
1.739477e+003, 4.527164e-003
1.741405e+003, 4.173739e-003
1.743334e+003, 3.906105e-003
1.745262e+003, 4.266210e-003
1.747191e+003, 4.677011e-003
1.749119e+003, 4.885225e-003
1.751048e+003, 4.776728e-003
1.752976e+003, 4.571646e-003
1.754905e+003, 4.793424e-003
1.756833e+003, 5.507818e-003
1.758762e+003, 5.961959e-003
1.760690e+003, 6.023206e-003
1.762619e+003, 6.150692e-003
1.764547e+003, 6.164438e-003
1.766475e+003, 6.464126e-003
1.768404e+003, 6.707720e-003
1.770332e+003, 6.847290e-003
1.772261e+003, 7.010021e-003
1.774189e+003, 7.157472e-003
1.776118e+003, 7.331550e-003
1.778046e+003, 7.475785e-003
1.779975e+003, 7.727548e-003
1.781903e+003, 7.806585e-003
1.783832e+003, 7.593672e-003
1.785760e+003, 7.692062e-003
1.787689e+003, 8.239097e-003
1.789617e+003, 8.419676e-003
1.791546e+003, 8.740094e-003
1.793474e+003, 9.286849e-003
1.795402e+003, 9.753216e-003
1.797331e+003, 1.017668e-002
1.799259e+003, 1.076070e-002
1.801188e+003, 1.118747e-002
1.803116e+003, 1.147529e-002
1.805045e+003, 1.188335e-002
1.806973e+003, 1.231404e-002
1.808902e+003, 1.318390e-002
1.810830e+003, 1.369316e-002
1.812759e+003, 1.348011e-002
1.814687e+003, 1.289925e-002
1.816616e+003, 1.237864e-002
1.818544e+003, 1.227373e-002
1.820473e+003, 1.226703e-002
1.822401e+003, 1.200685e-002
1.824329e+003, 1.173035e-002
1.826258e+003, 1.091319e-002
1.828186e+003, 1.042345e-002
1.830115e+003, 9.620097e-003
1.832043e+003, 8.312559e-003
1.833972e+003, 7.664752e-003
1.835900e+003, 7.296815e-003
1.837829e+003, 7.112168e-003
1.839757e+003, 7.137823e-003
1.841686e+003, 6.789779e-003
1.843614e+003, 6.474776e-003
1.845543e+003, 6.288890e-003
1.847471e+003, 6.316425e-003
1.849400e+003, 5.991511e-003
1.851328e+003, 6.333277e-003
1.853256e+003, 6.149821e-003
1.855185e+003, 5.675596e-003
1.857113e+003, 5.628196e-003
1.859042e+003, 5.402643e-003
1.860970e+003, 5.063736e-003
1.862899e+003, 5.119789e-003
1.864827e+003, 5.243296e-003
1.866756e+003, 5.913456e-003
1.868684e+003, 6.617744e-003
1.870613e+003, 6.167281e-003
1.872541e+003, 5.685590e-003
1.874470e+003, 5.632983e-003
1.876398e+003, 5.687930e-003
1.878327e+003, 5.554040e-003
1.880255e+003, 5.161883e-003
1.882183e+003, 5.185225e-003
1.884112e+003, 5.053148e-003
1.886040e+003, 4.969109e-003
1.887969e+003, 5.047469e-003
1.889897e+003, 5.410331e-003
1.891826e+003, 5.917796e-003
1.893754e+003, 5.741045e-003
1.895683e+003, 5.430479e-003
1.897611e+003, 4.994159e-003
1.899540e+003, 5.369410e-003
1.901468e+003, 5.921816e-003
1.903397e+003, 5.980777e-003
1.905325e+003, 5.769250e-003
1.907254e+003, 5.404039e-003
1.909182e+003, 5.309629e-003
1.911110e+003, 5.160072e-003
1.913039e+003, 5.708206e-003
1.914967e+003, 6.614888e-003
1.916896e+003, 7.130057e-003
1.918824e+003, 6.254114e-003
1.920753e+003, 5.516946e-003
1.922681e+003, 5.402446e-003
1.924610e+003, 5.357896e-003
1.926538e+003, 5.423177e-003
1.928467e+003, 6.055272e-003
1.930395e+003, 6.024439e-003
1.932324e+003, 5.752363e-003
1.934252e+003, 5.714108e-003
1.936181e+003, 5.990650e-003
1.938109e+003, 5.964667e-003
1.940037e+003, 6.045893e-003
1.941966e+003, 6.156595e-003
1.943894e+003, 5.684821e-003
1.945823e+003, 5.524226e-003
1.947751e+003, 5.649793e-003
1.949680e+003, 5.579717e-003
1.951608e+003, 4.446214e-003
1.953537e+003, 4.134403e-003
1.955465e+003, 4.174381e-003
1.957394e+003, 3.182840e-003
1.959322e+003, 3.470335e-003
1.961251e+003, 5.317931e-003
1.963179e+003, 5.258422e-003
1.965108e+003, 4.545033e-003
1.967036e+003, 3.350581e-003
1.968964e+003, 2.751417e-003
1.970893e+003, 3.951302e-003
1.972821e+003, 4.265141e-003
1.974750e+003, 4.184378e-003
1.976678e+003, 5.163286e-003
1.978607e+003, 7.146550e-003
1.980535e+003, 7.283031e-003
1.982464e+003, 7.732593e-003
1.984392e+003, 7.759938e-003
1.986321e+003, 6.875196e-003
1.988249e+003, 6.673461e-003
1.990178e+003, 5.867654e-003
1.992106e+003, 4.601758e-003
1.994035e+003, 4.844175e-003
1.995963e+003, 6.620641e-003
1.997891e+003, 7.628786e-003
1.999820e+003, 6.606495e-003
2.001748e+003, 5.736903e-003
2.003677e+003, 4.756026e-003
2.005605e+003, 3.377196e-003
2.007534e+003, 4.361559e-003
2.009462e+003, 6.808321e-003
2.011391e+003, 6.658415e-003
2.013319e+003, 7.739189e-003
2.015248e+003, 8.035591e-003
2.017176e+003, 6.056056e-003
2.019105e+003, 5.724618e-003
2.021033e+003, 6.565604e-003
2.022962e+003, 7.500004e-003
2.024890e+003, 7.316996e-003
2.026818e+003, 4.827479e-003
2.028747e+003, 3.642669e-003
2.030675e+003, 5.457372e-003
2.032604e+003, 7.074854e-003
2.034532e+003, 7.881657e-003
2.036461e+003, 8.478954e-003
2.038389e+003, 8.196627e-003
2.040318e+003, 7.593660e-003
2.042246e+003, 6.902141e-003
2.044175e+003, 6.888340e-003
2.046103e+003, 6.447817e-003
2.048032e+003, 7.029300e-003
2.049960e+003, 9.051932e-003
2.051889e+003, 9.238022e-003
2.053817e+003, 6.839877e-003
2.055746e+003, 7.556523e-003
2.057674e+003, 8.253973e-003
2.059603e+003, 7.758117e-003
2.061531e+003, 7.782745e-003
2.063459e+003, 8.910759e-003
2.065388e+003, 9.319704e-003
2.067316e+003, 9.378578e-003
2.069245e+003, 9.204609e-003
2.071173e+003, 8.170812e-003
2.073102e+003, 8.072919e-003
2.075030e+003, 8.728323e-003
2.076959e+003, 9.123281e-003
2.078887e+003, 8.701690e-003
2.080816e+003, 8.887148e-003
2.082744e+003, 9.659241e-003
2.084673e+003, 9.330546e-003
2.086601e+003, 8.043125e-003
2.088530e+003, 6.360432e-003
2.090458e+003, 6.600209e-003
2.092386e+003, 6.790393e-003
2.094315e+003, 7.248889e-003
2.096243e+003, 7.175465e-003
2.098172e+003, 8.164703e-003
2.100100e+003, 9.184574e-003
2.102029e+003, 9.165000e-003
2.103957e+003, 9.521674e-003
2.105886e+003, 9.462992e-003
2.107814e+003, 9.167277e-003
2.109743e+003, 9.333622e-003
2.111671e+003, 9.203049e-003
2.113600e+003, 8.774105e-003
2.115528e+003, 8.913885e-003
2.117457e+003, 9.295143e-003
2.119385e+003, 8.954447e-003
2.121313e+003, 8.503920e-003
2.123242e+003, 7.893976e-003
2.125170e+003, 8.414904e-003
2.127099e+003, 7.909722e-003
2.129027e+003, 6.354976e-003
2.130956e+003, 5.880326e-003
2.132884e+003, 6.199267e-003
2.134813e+003, 7.224654e-003
2.136741e+003, 7.816091e-003
2.138670e+003, 7.753824e-003
2.140598e+003, 5.987276e-003
2.142527e+003, 5.938292e-003
2.144455e+003, 7.596101e-003
2.146384e+003, 7.925418e-003
2.148312e+003, 7.601712e-003
2.150240e+003, 4.909583e-003
2.152169e+003, 3.005143e-003
2.154097e+003, 4.046803e-003
2.156026e+003, 5.618409e-003
2.157954e+003, 6.327402e-003
2.159883e+003, 8.709759e-003
2.161811e+003, 1.071514e-002
2.163740e+003, 1.222923e-002
2.165668e+003, 9.186930e-003
2.167597e+003, 7.325425e-003
2.169525e+003, 8.810718e-003
2.171454e+003, 9.309541e-003
2.173382e+003, 8.547426e-003
2.175311e+003, 8.182179e-003
2.177239e+003, 6.861830e-003
2.179167e+003, 6.610907e-003
2.181096e+003, 9.238750e-003
2.183024e+003, 9.361592e-003
2.184953e+003, 8.287646e-003
2.186881e+003, 9.068474e-003
2.188810e+003, 9.959028e-003
2.190738e+003, 1.102517e-002
2.192667e+003, 1.009147e-002
2.194595e+003, 8.658003e-003
2.196524e+003, 7.683727e-003
2.198452e+003, 7.085646e-003
2.200381e+003, 7.683609e-003
2.202309e+003, 8.938661e-003
2.204238e+003, 8.849707e-003
2.206166e+003, 8.279092e-003
2.208094e+003, 7.637472e-003
2.210023e+003, 9.354803e-003
2.211951e+003, 1.103107e-002
2.213880e+003, 1.014249e-002
2.215808e+003, 9.409385e-003
2.217737e+003, 1.092503e-002
2.219665e+003, 1.066401e-002
2.221594e+003, 9.852411e-003
2.223522e+003, 1.033181e-002
2.225451e+003, 1.095718e-002
2.227379e+003, 1.079539e-002
2.229308e+003, 1.071872e-002
2.231236e+003, 1.008955e-002
2.233165e+003, 1.086241e-002
2.235093e+003, 1.210911e-002
2.237021e+003, 1.269416e-002
2.238950e+003, 1.137699e-002
2.240878e+003, 1.044106e-002
2.242807e+003, 1.104770e-002
2.244735e+003, 1.163509e-002
2.246664e+003, 1.095110e-002
2.248592e+003, 1.054705e-002
2.250521e+003, 1.027771e-002
2.252449e+003, 1.061171e-002
2.254378e+003, 1.060181e-002
2.256306e+003, 1.086121e-002
2.258235e+003, 1.135112e-002
2.260163e+003, 1.035375e-002
2.262092e+003, 1.040777e-002
2.264020e+003, 1.055904e-002
2.265948e+003, 1.020741e-002
2.267877e+003, 1.070083e-002
2.269805e+003, 1.136673e-002
2.271734e+003, 1.174325e-002
2.273662e+003, 1.258134e-002
2.275591e+003, 1.203292e-002
2.277519e+003, 1.197564e-002
2.279448e+003, 1.306311e-002
2.281376e+003, 1.356438e-002
2.283305e+003, 1.370525e-002
2.285233e+003, 1.306002e-002
2.287162e+003, 1.257365e-002
2.289090e+003, 1.273878e-002
2.291019e+003, 1.320743e-002
2.292947e+003, 1.334573e-002
2.294875e+003, 1.356431e-002
2.296804e+003, 1.390178e-002
2.298732e+003, 1.349558e-002
2.300661e+003, 1.338927e-002
2.302589e+003, 1.297045e-002
2.304518e+003, 1.284925e-002
2.306446e+003, 1.366822e-002
2.308375e+003, 1.389910e-002
2.310303e+003, 1.404134e-002
2.312232e+003, 1.425611e-002
2.314160e+003, 1.410451e-002
2.316089e+003, 1.415818e-002
2.318017e+003, 1.384874e-002
2.319946e+003, 1.394281e-002
2.321874e+003, 1.479505e-002
2.323802e+003, 1.526820e-002
2.325731e+003, 1.496173e-002
2.327659e+003, 1.425480e-002
2.329588e+003, 1.399169e-002
2.331516e+003, 1.406833e-002
2.333445e+003, 1.434103e-002
2.335373e+003, 1.437050e-002
2.337302e+003, 1.378087e-002
2.339230e+003, 1.355755e-002
2.341159e+003, 1.352049e-002
2.343087e+003, 1.364692e-002
2.345016e+003, 1.367030e-002
2.346944e+003, 1.356620e-002
2.348873e+003, 1.389925e-002
2.350801e+003, 1.375380e-002
2.352729e+003, 1.396988e-002
2.354658e+003, 1.405953e-002
2.356586e+003, 1.388729e-002
2.358515e+003, 1.402578e-002
2.360443e+003, 1.404082e-002
2.362372e+003, 1.402338e-002
2.364300e+003, 1.372554e-002
2.366229e+003, 1.318847e-002
2.368157e+003, 1.285922e-002
2.370086e+003, 1.269067e-002
2.372014e+003, 1.293518e-002
2.373942e+003, 1.327814e-002
2.375871e+003, 1.333541e-002
2.377799e+003, 1.311583e-002
2.379728e+003, 1.313026e-002
2.381656e+003, 1.314857e-002
2.383585e+003, 1.320027e-002
2.385513e+003, 1.321194e-002
2.387442e+003, 1.341725e-002
2.389370e+003, 1.333636e-002
2.391299e+003, 1.369556e-002
2.393227e+003, 1.377928e-002
2.395156e+003, 1.366192e-002
2.397084e+003, 1.355838e-002
2.399012e+003, 1.344670e-002
2.400941e+003, 1.342397e-002
2.402869e+003, 1.326401e-002
2.404798e+003, 1.253192e-002
2.406726e+003, 1.274998e-002
2.408655e+003, 1.290012e-002
2.410583e+003, 1.286194e-002
2.412512e+003, 1.326211e-002
2.414440e+003, 1.346750e-002
2.416369e+003, 1.384756e-002
2.418297e+003, 1.409621e-002
2.420226e+003, 1.350529e-002
2.422154e+003, 1.321320e-002
2.424083e+003, 1.424887e-002
2.426011e+003, 1.501293e-002
2.427939e+003, 1.399221e-002
2.429868e+003, 1.306224e-002
2.431796e+003, 1.334307e-002
2.433725e+003, 1.359924e-002
2.435653e+003, 1.340804e-002
2.437582e+003, 1.402650e-002
2.439510e+003, 1.509753e-002
2.441439e+003, 1.535517e-002
2.443367e+003, 1.454146e-002
2.445296e+003, 1.397335e-002
2.447224e+003, 1.430255e-002
2.449153e+003, 1.487984e-002
2.451081e+003, 1.486216e-002
2.453010e+003, 1.481682e-002
2.454938e+003, 1.501217e-002
2.456866e+003, 1.544130e-002
2.458795e+003, 1.497172e-002
2.460723e+003, 1.436714e-002
2.462652e+003, 1.392323e-002
2.464580e+003, 1.435217e-002
2.466509e+003, 1.520427e-002
2.468437e+003, 1.577262e-002
2.470366e+003, 1.587848e-002
2.472294e+003, 1.615271e-002
2.474223e+003, 1.590926e-002
2.476151e+003, 1.564450e-002
2.478080e+003, 1.611916e-002
2.480008e+003, 1.645598e-002
2.481937e+003, 1.674370e-002
2.483865e+003, 1.628520e-002
2.485793e+003, 1.662618e-002
2.487722e+003, 1.744313e-002
2.489650e+003, 1.797706e-002
2.491579e+003, 1.854656e-002
2.493507e+003, 1.922694e-002
2.495436e+003, 1.961422e-002
2.497364e+003, 1.835958e-002
2.499293e+003, 1.828086e-002
2.501221e+003, 1.983110e-002
2.503150e+003, 2.020763e-002
2.505078e+003, 1.985441e-002
2.507007e+003, 1.944079e-002
2.508935e+003, 1.941749e-002
2.510864e+003, 2.031677e-002
2.512792e+003, 2.058900e-002
2.514720e+003, 2.038100e-002
2.516649e+003, 2.040743e-002
2.518577e+003, 2.058972e-002
2.520506e+003, 2.005153e-002
2.522434e+003, 1.936994e-002
2.524363e+003, 1.890044e-002
2.526291e+003, 1.920992e-002
2.528220e+003, 1.923183e-002
2.530148e+003, 1.882282e-002
2.532077e+003, 1.857655e-002
2.534005e+003, 1.864475e-002
2.535934e+003, 1.800971e-002
2.537862e+003, 1.704062e-002
2.539791e+003, 1.675961e-002
2.541719e+003, 1.742024e-002
2.543647e+003, 1.798739e-002
2.545576e+003, 1.783413e-002
2.547504e+003, 1.707519e-002
2.549433e+003, 1.730844e-002
2.551361e+003, 1.777157e-002
2.553290e+003, 1.713029e-002
2.555218e+003, 1.624765e-002
2.557147e+003, 1.614119e-002
2.559075e+003, 1.665161e-002
2.561004e+003, 1.700143e-002
2.562932e+003, 1.679498e-002
2.564861e+003, 1.644988e-002
2.566789e+003, 1.658517e-002
2.568718e+003, 1.714909e-002
2.570646e+003, 1.670943e-002
2.572574e+003, 1.563444e-002
2.574503e+003, 1.526647e-002
2.576431e+003, 1.592828e-002
2.578360e+003, 1.611951e-002
2.580288e+003, 1.623001e-002
2.582217e+003, 1.659246e-002
2.584145e+003, 1.679057e-002
2.586074e+003, 1.627292e-002
2.588002e+003, 1.622616e-002
2.589931e+003, 1.598788e-002
2.591859e+003, 1.584353e-002
2.593788e+003, 1.588774e-002
2.595716e+003, 1.617322e-002
2.597645e+003, 1.583272e-002
2.599573e+003, 1.525553e-002
2.601501e+003, 1.506914e-002
2.603430e+003, 1.591014e-002
2.605358e+003, 1.619529e-002
2.607287e+003, 1.642534e-002
2.609215e+003, 1.610491e-002
2.611144e+003, 1.568180e-002
2.613072e+003, 1.559524e-002
2.615001e+003, 1.601750e-002
2.616929e+003, 1.626950e-002
2.618858e+003, 1.622613e-002
2.620786e+003, 1.648932e-002
2.622715e+003, 1.678575e-002
2.624643e+003, 1.663147e-002
2.626572e+003, 1.617938e-002
2.628500e+003, 1.544912e-002
2.630428e+003, 1.541284e-002
2.632357e+003, 1.599069e-002
2.634285e+003, 1.619511e-002
2.636214e+003, 1.567456e-002
2.638142e+003, 1.558651e-002
2.640071e+003, 1.589802e-002
2.641999e+003, 1.638523e-002
2.643928e+003, 1.646490e-002
2.645856e+003, 1.654495e-002
2.647785e+003, 1.614090e-002
2.649713e+003, 1.589323e-002
2.651642e+003, 1.638505e-002
2.653570e+003, 1.638733e-002
2.655499e+003, 1.564383e-002
2.657427e+003, 1.566028e-002
2.659355e+003, 1.601147e-002
2.661284e+003, 1.648050e-002
2.663212e+003, 1.611477e-002
2.665141e+003, 1.531777e-002
2.667069e+003, 1.483277e-002
2.668998e+003, 1.479011e-002
2.670926e+003, 1.509735e-002
2.672855e+003, 1.515715e-002
2.674783e+003, 1.511089e-002
2.676712e+003, 1.530635e-002
2.678640e+003, 1.553863e-002
2.680569e+003, 1.530033e-002
2.682497e+003, 1.489769e-002
2.684426e+003, 1.465797e-002
2.686354e+003, 1.489062e-002
2.688282e+003, 1.500786e-002
2.690211e+003, 1.485512e-002
2.692139e+003, 1.494464e-002
2.694068e+003, 1.511729e-002
2.695996e+003, 1.517109e-002
2.697925e+003, 1.510026e-002
2.699853e+003, 1.502661e-002
2.701782e+003, 1.504586e-002
2.703710e+003, 1.509853e-002
2.705639e+003, 1.481629e-002
2.707567e+003, 1.499957e-002
2.709496e+003, 1.507218e-002
2.711424e+003, 1.496889e-002
2.713353e+003, 1.491143e-002
2.715281e+003, 1.520078e-002
2.717209e+003, 1.528782e-002
2.719138e+003, 1.526764e-002
2.721066e+003, 1.494049e-002
2.722995e+003, 1.508906e-002
2.724923e+003, 1.525092e-002
2.726852e+003, 1.525686e-002
2.728780e+003, 1.552770e-002
2.730709e+003, 1.558176e-002
2.732637e+003, 1.532133e-002
2.734566e+003, 1.571017e-002
2.736494e+003, 1.564536e-002
2.738423e+003, 1.534485e-002
2.740351e+003, 1.502826e-002
2.742280e+003, 1.540494e-002
2.744208e+003, 1.575727e-002
2.746136e+003, 1.530715e-002
2.748065e+003, 1.463928e-002
2.749993e+003, 1.484577e-002
2.751922e+003, 1.557393e-002
2.753850e+003, 1.567063e-002
2.755779e+003, 1.519804e-002
2.757707e+003, 1.515546e-002
2.759636e+003, 1.542482e-002
2.761564e+003, 1.620329e-002
2.763493e+003, 1.585483e-002
2.765421e+003, 1.579255e-002
2.767350e+003, 1.578071e-002
2.769278e+003, 1.557287e-002
2.771207e+003, 1.572344e-002
2.773135e+003, 1.589423e-002
2.775063e+003, 1.550984e-002
2.776992e+003, 1.525893e-002
2.778920e+003, 1.538507e-002
2.780849e+003, 1.531232e-002
2.782777e+003, 1.535216e-002
2.784706e+003, 1.571973e-002
2.786634e+003, 1.586851e-002
2.788563e+003, 1.583904e-002
2.790491e+003, 1.594386e-002
2.792420e+003, 1.575400e-002
2.794348e+003, 1.528585e-002
2.796277e+003, 1.525380e-002
2.798205e+003, 1.555043e-002
2.800134e+003, 1.570155e-002
2.802062e+003, 1.550162e-002
2.803990e+003, 1.587114e-002
2.805919e+003, 1.606263e-002
2.807847e+003, 1.625553e-002
2.809776e+003, 1.679459e-002
2.811704e+003, 1.625652e-002
2.813633e+003, 1.541221e-002
2.815561e+003, 1.563668e-002
2.817490e+003, 1.553326e-002
2.819418e+003, 1.519663e-002
2.821347e+003, 1.509856e-002
2.823275e+003, 1.557142e-002
2.825204e+003, 1.644025e-002
2.827132e+003, 1.666681e-002
2.829061e+003, 1.666307e-002
2.830989e+003, 1.632867e-002
2.832917e+003, 1.662395e-002
2.834846e+003, 1.708768e-002
2.836774e+003, 1.709358e-002
2.838703e+003, 1.691562e-002
2.840631e+003, 1.670776e-002
2.842560e+003, 1.721172e-002
2.844488e+003, 1.689993e-002
2.846417e+003, 1.684676e-002
2.848345e+003, 1.688343e-002
2.850274e+003, 1.633491e-002
2.852202e+003, 1.602521e-002
2.854131e+003, 1.614316e-002
2.856059e+003, 1.601276e-002
2.857988e+003, 1.641443e-002
2.859916e+003, 1.679727e-002
2.861844e+003, 1.670248e-002
2.863773e+003, 1.654612e-002
2.865701e+003, 1.746576e-002
2.867630e+003, 1.804741e-002
2.869558e+003, 1.810932e-002
2.871487e+003, 1.825414e-002
2.873415e+003, 1.808256e-002
2.875344e+003, 1.805690e-002
2.877272e+003, 1.868288e-002
2.879201e+003, 1.923654e-002
2.881129e+003, 1.881985e-002
2.883058e+003, 1.806484e-002
2.884986e+003, 1.841814e-002
2.886915e+003, 1.874976e-002
2.888843e+003, 1.841673e-002
2.890771e+003, 1.772298e-002
2.892700e+003, 1.757733e-002
2.894628e+003, 1.740222e-002
2.896557e+003, 1.722787e-002
2.898485e+003, 1.721509e-002
2.900414e+003, 1.748875e-002
2.902342e+003, 1.764684e-002
2.904271e+003, 1.778612e-002
2.906199e+003, 1.722401e-002
2.908128e+003, 1.669811e-002
2.910056e+003, 1.703937e-002
2.911985e+003, 1.743104e-002
2.913913e+003, 1.744768e-002
2.915842e+003, 1.664705e-002
2.917770e+003, 1.640017e-002
2.919698e+003, 1.623785e-002
2.921627e+003, 1.588662e-002
2.923555e+003, 1.611351e-002
2.925484e+003, 1.625697e-002
2.927412e+003, 1.704357e-002
2.929341e+003, 1.691305e-002
2.931269e+003, 1.630555e-002
2.933198e+003, 1.684196e-002
2.935126e+003, 1.740127e-002
2.937055e+003, 1.762078e-002
2.938983e+003, 1.769436e-002
2.940912e+003, 1.785744e-002
2.942840e+003, 1.849453e-002
2.944769e+003, 1.842577e-002
2.946697e+003, 1.761319e-002
2.948625e+003, 1.682403e-002
2.950554e+003, 1.722893e-002
2.952482e+003, 1.791192e-002
2.954411e+003, 1.798388e-002
2.956339e+003, 1.736816e-002
2.958268e+003, 1.751531e-002
2.960196e+003, 1.863594e-002
2.962125e+003, 1.973366e-002
2.964053e+003, 1.948505e-002
2.965982e+003, 1.910228e-002
2.967910e+003, 1.939270e-002
2.969839e+003, 1.962259e-002
2.971767e+003, 1.960654e-002
2.973696e+003, 1.956754e-002
2.975624e+003, 1.954970e-002
2.977552e+003, 2.010155e-002
2.979481e+003, 2.032977e-002
2.981409e+003, 1.981770e-002
2.983338e+003, 1.931700e-002
2.985266e+003, 1.957660e-002
2.987195e+003, 2.028488e-002
2.989123e+003, 2.034606e-002
2.991052e+003, 2.049440e-002
2.992980e+003, 2.087307e-002
2.994909e+003, 2.133089e-002
2.996837e+003, 2.100229e-002
2.998766e+003, 2.034256e-002
3.000694e+003, 1.978891e-002
3.002623e+003, 1.972304e-002
3.004551e+003, 2.064272e-002
3.006479e+003, 2.064838e-002
3.008408e+003, 2.065778e-002
3.010336e+003, 2.142729e-002
3.012265e+003, 2.191196e-002
3.014193e+003, 2.165871e-002
3.016122e+003, 2.016626e-002
3.018050e+003, 2.021581e-002
3.019979e+003, 2.147314e-002
3.021907e+003, 2.197701e-002
3.023836e+003, 2.113488e-002
3.025764e+003, 2.084071e-002
3.027693e+003, 2.087377e-002
3.029621e+003, 2.055044e-002
3.031550e+003, 2.105070e-002
3.033478e+003, 2.063704e-002
3.035406e+003, 2.004478e-002
3.037335e+003, 2.045884e-002
3.039263e+003, 2.090771e-002
3.041192e+003, 2.085525e-002
3.043120e+003, 2.117858e-002
3.045049e+003, 2.079939e-002
3.046977e+003, 2.033247e-002
3.048906e+003, 2.027466e-002
3.050834e+003, 2.084620e-002
3.052763e+003, 2.105997e-002
3.054691e+003, 2.105734e-002
3.056620e+003, 2.207035e-002
3.058548e+003, 2.222370e-002
3.060477e+003, 2.132782e-002
3.062405e+003, 2.165856e-002
3.064333e+003, 2.196966e-002
3.066262e+003, 2.182195e-002
3.068190e+003, 2.156681e-002
3.070119e+003, 2.227198e-002
3.072047e+003, 2.184202e-002
3.073976e+003, 2.141795e-002
3.075904e+003, 2.097112e-002
3.077833e+003, 2.101773e-002
3.079761e+003, 2.244113e-002
3.081690e+003, 2.323304e-002
3.083618e+003, 2.226426e-002
3.085547e+003, 2.264445e-002
3.087475e+003, 2.318943e-002
3.089404e+003, 2.304801e-002
3.091332e+003, 2.298977e-002
3.093260e+003, 2.246341e-002
3.095189e+003, 2.283204e-002
3.097117e+003, 2.359517e-002
3.099046e+003, 2.376903e-002
3.100974e+003, 2.343771e-002
3.102903e+003, 2.377506e-002
3.104831e+003, 2.474510e-002
3.106760e+003, 2.467208e-002
3.108688e+003, 2.442601e-002
3.110617e+003, 2.415730e-002
3.112545e+003, 2.386742e-002
3.114474e+003, 2.364758e-002
3.116402e+003, 2.445812e-002
3.118331e+003, 2.535834e-002
3.120259e+003, 2.613690e-002
3.122188e+003, 2.653426e-002
3.124116e+003, 2.583018e-002
3.126044e+003, 2.438088e-002
3.127973e+003, 2.458566e-002
3.129901e+003, 2.510821e-002
3.131830e+003, 2.497095e-002
3.133758e+003, 2.472936e-002
3.135687e+003, 2.508996e-002
3.137615e+003, 2.615998e-002
3.139544e+003, 2.616959e-002
3.141472e+003, 2.568483e-002
3.143401e+003, 2.556008e-002
3.145329e+003, 2.531234e-002
3.147258e+003, 2.577145e-002
3.149186e+003, 2.572036e-002
3.151115e+003, 2.640568e-002
3.153043e+003, 2.673533e-002
3.154971e+003, 2.696970e-002
3.156900e+003, 2.652423e-002
3.158828e+003, 2.562261e-002
3.160757e+003, 2.561542e-002
3.162685e+003, 2.602208e-002
3.164614e+003, 2.536169e-002
3.166542e+003, 2.503112e-002
3.168471e+003, 2.605866e-002
3.170399e+003, 2.730557e-002
3.172328e+003, 2.631943e-002
3.174256e+003, 2.599702e-002
3.176185e+003, 2.610473e-002
3.178113e+003, 2.586444e-002
3.180042e+003, 2.553663e-002
3.181970e+003, 2.589884e-002
3.183898e+003, 2.557931e-002
3.185827e+003, 2.628027e-002
3.187755e+003, 2.723076e-002
3.189684e+003, 2.747986e-002
3.191612e+003, 2.699778e-002
3.193541e+003, 2.673963e-002
3.195469e+003, 2.669231e-002
3.197398e+003, 2.740887e-002
3.199326e+003, 2.733317e-002
3.201255e+003, 2.705663e-002
3.203183e+003, 2.750826e-002
3.205112e+003, 2.765708e-002
3.207040e+003, 2.730165e-002
3.208969e+003, 2.704745e-002
3.210897e+003, 2.803142e-002
3.212825e+003, 2.880192e-002
3.214754e+003, 2.718191e-002
3.216682e+003, 2.596224e-002
3.218611e+003, 2.752512e-002
3.220539e+003, 2.833816e-002
3.222468e+003, 2.804474e-002
3.224396e+003, 2.863509e-002
3.226325e+003, 2.876656e-002
3.228253e+003, 2.935862e-002
3.230182e+003, 2.918195e-002
3.232110e+003, 2.880711e-002
3.234039e+003, 2.873898e-002
3.235967e+003, 2.849623e-002
3.237896e+003, 2.747374e-002
3.239824e+003, 2.744008e-002
3.241752e+003, 2.750866e-002
3.243681e+003, 2.795492e-002
3.245609e+003, 2.847009e-002
3.247538e+003, 2.784987e-002
3.249466e+003, 2.713984e-002
3.251395e+003, 2.676723e-002
3.253323e+003, 2.815799e-002
3.255252e+003, 2.944875e-002
3.257180e+003, 2.897172e-002
3.259109e+003, 2.844967e-002
3.261037e+003, 2.830169e-002
3.262966e+003, 2.758449e-002
3.264894e+003, 2.717375e-002
3.266823e+003, 2.831259e-002
3.268751e+003, 2.902645e-002
3.270679e+003, 2.852413e-002
3.272608e+003, 2.756837e-002
3.274536e+003, 2.746991e-002
3.276465e+003, 2.834123e-002
3.278393e+003, 2.901384e-002
3.280322e+003, 2.828146e-002
3.282250e+003, 2.737253e-002
3.284179e+003, 2.805144e-002
3.286107e+003, 2.964762e-002
3.288036e+003, 3.014584e-002
3.289964e+003, 2.913071e-002
3.291893e+003, 2.760105e-002
3.293821e+003, 2.839050e-002
3.295750e+003, 2.962335e-002
3.297678e+003, 2.969043e-002
3.299606e+003, 2.994858e-002
3.301535e+003, 2.991883e-002
3.303463e+003, 2.961692e-002
3.305392e+003, 2.938803e-002
3.307320e+003, 2.869600e-002
3.309249e+003, 2.858365e-002
3.311177e+003, 2.925169e-002
3.313106e+003, 2.992303e-002
3.315034e+003, 2.906573e-002
3.316963e+003, 2.878392e-002
3.318891e+003, 2.889377e-002
3.320820e+003, 2.870525e-002
3.322748e+003, 2.953617e-002
3.324677e+003, 3.053849e-002
3.326605e+003, 3.052592e-002
3.328533e+003, 3.147456e-002
3.330462e+003, 3.159938e-002
3.332390e+003, 3.047503e-002
3.334319e+003, 2.818273e-002
3.336247e+003, 2.869822e-002
3.338176e+003, 2.971699e-002
3.340104e+003, 3.113738e-002
3.342033e+003, 3.083273e-002
3.343961e+003, 2.956709e-002
3.345890e+003, 2.922609e-002
3.347818e+003, 2.862567e-002
3.349747e+003, 2.701009e-002
3.351675e+003, 2.858789e-002
3.353604e+003, 3.092015e-002
3.355532e+003, 3.064962e-002
3.357460e+003, 3.010070e-002
3.359389e+003, 3.005904e-002
3.361317e+003, 3.088626e-002
3.363246e+003, 3.189680e-002
3.365174e+003, 3.139638e-002
3.367103e+003, 3.069213e-002
3.369031e+003, 3.068760e-002
3.370960e+003, 3.078252e-002
3.372888e+003, 3.070850e-002
3.374817e+003, 3.191230e-002
3.376745e+003, 3.207245e-002
3.378674e+003, 3.159401e-002
3.380602e+003, 3.133504e-002
3.382531e+003, 3.226598e-002
3.384459e+003, 3.281336e-002
3.386387e+003, 3.139549e-002
3.388316e+003, 2.986942e-002
3.390244e+003, 3.029195e-002
3.392173e+003, 3.035670e-002
3.394101e+003, 3.016462e-002
3.396030e+003, 3.018135e-002
3.397958e+003, 2.941037e-002
3.399887e+003, 2.985899e-002
3.401815e+003, 3.117530e-002
3.403744e+003, 3.163043e-002
3.405672e+003, 3.123551e-002
3.407601e+003, 3.161990e-002
3.409529e+003, 3.129099e-002
3.411458e+003, 3.014908e-002
3.413386e+003, 2.951630e-002
3.415314e+003, 3.017584e-002
3.417243e+003, 3.121835e-002
3.419171e+003, 3.208861e-002
3.421100e+003, 3.248862e-002
3.423028e+003, 3.126648e-002
3.424957e+003, 2.953990e-002
3.426885e+003, 3.096752e-002
3.428814e+003, 3.212079e-002
3.430742e+003, 3.048675e-002
3.432671e+003, 3.066914e-002
3.434599e+003, 3.149884e-002
3.436528e+003, 3.119535e-002
3.438456e+003, 2.985360e-002
3.440385e+003, 3.029146e-002
3.442313e+003, 3.054770e-002
3.444241e+003, 3.121518e-002
3.446170e+003, 3.079895e-002
3.448098e+003, 2.976931e-002
3.450027e+003, 2.899268e-002
3.451955e+003, 2.988861e-002
3.453884e+003, 3.219869e-002
3.455812e+003, 3.270385e-002
3.457741e+003, 3.103909e-002
3.459669e+003, 3.027684e-002
3.461598e+003, 3.084136e-002
3.463526e+003, 3.108931e-002
3.465455e+003, 3.082819e-002
3.467383e+003, 2.937654e-002
3.469312e+003, 2.965252e-002
3.471240e+003, 3.057301e-002
3.473168e+003, 3.077304e-002
3.475097e+003, 2.969661e-002
3.477025e+003, 2.967527e-002
3.478954e+003, 2.977672e-002
3.480882e+003, 2.957356e-002
3.482811e+003, 3.063053e-002
3.484739e+003, 3.201427e-002
3.486668e+003, 3.228103e-002
3.488596e+003, 3.171432e-002
3.490525e+003, 3.201826e-002
3.492453e+003, 3.017900e-002
3.494382e+003, 2.836958e-002
3.496310e+003, 2.933378e-002
3.498239e+003, 3.006245e-002
3.500167e+003, 2.960517e-002
3.502095e+003, 2.970061e-002
3.504024e+003, 3.147195e-002
3.505952e+003, 3.173134e-002
3.507881e+003, 3.025491e-002
3.509809e+003, 3.036307e-002
3.511738e+003, 3.136746e-002
3.513666e+003, 3.142763e-002
3.515595e+003, 2.964226e-002
3.517523e+003, 3.089904e-002
3.519452e+003, 3.188062e-002
3.521380e+003, 3.108541e-002
3.523309e+003, 3.166103e-002
3.525237e+003, 3.152825e-002
3.527166e+003, 3.051509e-002
3.529094e+003, 2.996898e-002
3.531022e+003, 2.990948e-002
3.532951e+003, 3.055631e-002
3.534879e+003, 3.199928e-002
3.536808e+003, 3.229428e-002
3.538736e+003, 3.119267e-002
3.540665e+003, 3.073604e-002
3.542593e+003, 3.028704e-002
3.544522e+003, 2.977779e-002
3.546450e+003, 3.072775e-002
3.548379e+003, 3.136537e-002
3.550307e+003, 2.950445e-002
3.552236e+003, 2.970780e-002
3.554164e+003, 3.141556e-002
3.556093e+003, 3.131287e-002
3.558021e+003, 2.956836e-002
3.559949e+003, 2.920089e-002
3.561878e+003, 3.095822e-002
3.563806e+003, 3.249658e-002
3.565735e+003, 3.146014e-002
3.567663e+003, 2.947526e-002
3.569592e+003, 2.857764e-002
3.571520e+003, 3.010756e-002
3.573449e+003, 3.139604e-002
3.575377e+003, 3.116319e-002
3.577306e+003, 3.011693e-002
3.579234e+003, 2.975929e-002
3.581163e+003, 2.953782e-002
3.583091e+003, 3.039434e-002
3.585020e+003, 3.085944e-002
3.586948e+003, 3.138987e-002
3.588876e+003, 3.141931e-002
3.590805e+003, 3.077270e-002
3.592733e+003, 2.916952e-002
3.594662e+003, 2.886477e-002
3.596590e+003, 2.986408e-002
3.598519e+003, 3.174780e-002
3.600447e+003, 3.036722e-002
3.602376e+003, 2.936530e-002
3.604304e+003, 2.983429e-002
3.606233e+003, 2.947812e-002
3.608161e+003, 2.884050e-002
3.610090e+003, 2.900598e-002
3.612018e+003, 2.946953e-002
3.613947e+003, 3.106042e-002
3.615875e+003, 3.180465e-002
3.617803e+003, 3.075708e-002
3.619732e+003, 2.969118e-002
3.621660e+003, 3.015480e-002
3.623589e+003, 2.948939e-002
3.625517e+003, 2.792731e-002
3.627446e+003, 2.828545e-002
3.629374e+003, 3.011401e-002
3.631303e+003, 2.950167e-002
3.633231e+003, 2.991607e-002
3.635160e+003, 3.257063e-002
3.637088e+003, 3.252603e-002
3.639017e+003, 3.087880e-002
3.640945e+003, 3.045404e-002
3.642874e+003, 2.921632e-002
3.644802e+003, 2.919973e-002
3.646730e+003, 2.866687e-002
3.648659e+003, 3.053480e-002
3.650587e+003, 3.199240e-002
3.652516e+003, 3.037243e-002
3.654444e+003, 2.989402e-002
3.656373e+003, 2.996146e-002
3.658301e+003, 2.954437e-002
3.660230e+003, 2.975986e-002
3.662158e+003, 3.072136e-002
3.664087e+003, 3.005755e-002
3.666015e+003, 2.984302e-002
3.667944e+003, 3.184174e-002
3.669872e+003, 3.351763e-002
3.671801e+003, 3.289086e-002
3.673729e+003, 3.291178e-002
3.675657e+003, 3.087978e-002
3.677586e+003, 2.674332e-002
3.679514e+003, 2.712394e-002
3.681443e+003, 2.820664e-002
3.683371e+003, 3.073312e-002
3.685300e+003, 3.080402e-002
3.687228e+003, 2.942236e-002
3.689157e+003, 2.941981e-002
3.691085e+003, 3.083093e-002
3.693014e+003, 3.085236e-002
3.694942e+003, 2.996437e-002
3.696871e+003, 3.162899e-002
3.698799e+003, 3.303276e-002
3.700728e+003, 3.069551e-002
3.702656e+003, 2.944261e-002
3.704584e+003, 3.148673e-002
3.706513e+003, 3.332927e-002
3.708441e+003, 3.375393e-002
3.710370e+003, 3.155455e-002
3.712298e+003, 2.964428e-002
3.714227e+003, 3.053663e-002
3.716155e+003, 3.072920e-002
3.718084e+003, 3.103791e-002
3.720012e+003, 3.072951e-002
3.721941e+003, 3.078725e-002
3.723869e+003, 3.148319e-002
3.725798e+003, 3.242954e-002
3.727726e+003, 3.210735e-002
3.729655e+003, 3.307388e-002
3.731583e+003, 3.421558e-002
3.733511e+003, 3.468074e-002
3.735440e+003, 3.419819e-002
3.737368e+003, 3.329616e-002
3.739297e+003, 3.377862e-002
3.741225e+003, 3.370096e-002
3.743154e+003, 3.201023e-002
3.745082e+003, 3.201556e-002
3.747011e+003, 3.299797e-002
3.748939e+003, 3.143993e-002
3.750868e+003, 3.018478e-002
3.752796e+003, 3.112670e-002
3.754725e+003, 3.034764e-002
3.756653e+003, 3.173940e-002
3.758582e+003, 3.218950e-002
3.760510e+003, 3.115192e-002
3.762438e+003, 3.070891e-002
3.764367e+003, 3.012492e-002
3.766295e+003, 2.934661e-002
3.768224e+003, 3.176452e-002
3.770152e+003, 3.321761e-002
3.772081e+003, 3.355972e-002
3.774009e+003, 3.388085e-002
3.775938e+003, 3.403121e-002
3.777866e+003, 3.508926e-002
3.779795e+003, 3.542381e-002
3.781723e+003, 3.250768e-002
3.783652e+003, 3.123770e-002
3.785580e+003, 3.135842e-002
3.787509e+003, 3.286370e-002
3.789437e+003, 3.290537e-002
3.791365e+003, 3.242770e-002
3.793294e+003, 3.199666e-002
3.795222e+003, 3.282674e-002
3.797151e+003, 3.364122e-002
3.799079e+003, 3.331994e-002
3.801008e+003, 3.198066e-002
3.802936e+003, 3.292298e-002
3.804865e+003, 3.168066e-002
3.806793e+003, 2.852784e-002
3.808722e+003, 2.861192e-002
3.810650e+003, 2.987591e-002
3.812579e+003, 3.191770e-002
3.814507e+003, 3.298139e-002
3.816436e+003, 3.395145e-002
3.818364e+003, 3.383325e-002
3.820292e+003, 3.239513e-002
3.822221e+003, 3.193688e-002
3.824149e+003, 3.224190e-002
3.826078e+003, 3.224657e-002
3.828006e+003, 3.331014e-002
3.829935e+003, 3.408521e-002
3.831863e+003, 3.407376e-002
3.833792e+003, 3.352107e-002
3.835720e+003, 3.389609e-002
3.837649e+003, 3.517120e-002
3.839577e+003, 3.347461e-002
3.841506e+003, 3.204605e-002
3.843434e+003, 3.225604e-002
3.845363e+003, 3.236613e-002
3.847291e+003, 3.411677e-002
3.849219e+003, 3.361393e-002
3.851148e+003, 3.200836e-002
3.853076e+003, 3.369667e-002
3.855005e+003, 3.357435e-002
3.856933e+003, 3.359036e-002
3.858862e+003, 3.384487e-002
3.860790e+003, 3.414926e-002
3.862719e+003, 3.345962e-002
3.864647e+003, 3.350185e-002
3.866576e+003, 3.313091e-002
3.868504e+003, 3.150497e-002
3.870433e+003, 3.176045e-002
3.872361e+003, 3.380084e-002
3.874290e+003, 3.437760e-002
3.876218e+003, 3.526677e-002
3.878146e+003, 3.508605e-002
3.880075e+003, 3.456821e-002
3.882003e+003, 3.406624e-002
3.883932e+003, 3.423869e-002
3.885860e+003, 3.411319e-002
3.887789e+003, 3.423664e-002
3.889717e+003, 3.458127e-002
3.891646e+003, 3.473072e-002
3.893574e+003, 3.295698e-002
3.895503e+003, 3.329524e-002
3.897431e+003, 3.380331e-002
3.899360e+003, 3.404212e-002
3.901288e+003, 3.438460e-002
3.903217e+003, 3.462330e-002
3.905145e+003, 3.473568e-002
3.907073e+003, 3.437061e-002
3.909002e+003, 3.345649e-002
3.910930e+003, 3.353653e-002
3.912859e+003, 3.271580e-002
3.914787e+003, 3.409066e-002
3.916716e+003, 3.657894e-002
3.918644e+003, 3.716378e-002
3.920573e+003, 3.422860e-002
3.922501e+003, 3.248465e-002
3.924430e+003, 3.372697e-002
3.926358e+003, 3.182662e-002
3.928287e+003, 3.196735e-002
3.930215e+003, 3.617111e-002
3.932144e+003, 3.611603e-002
3.934072e+003, 3.370122e-002
3.936000e+003, 3.287753e-002
3.937929e+003, 3.514674e-002
3.939857e+003, 3.598918e-002
3.941786e+003, 3.559035e-002
3.943714e+003, 3.579394e-002
3.945643e+003, 3.665055e-002
3.947571e+003, 3.574497e-002
3.949500e+003, 3.378308e-002
3.951428e+003, 3.405654e-002
3.953357e+003, 3.532689e-002
3.955285e+003, 3.430226e-002
3.957214e+003, 3.321401e-002
3.959142e+003, 3.322469e-002
3.961071e+003, 3.437874e-002
3.962999e+003, 3.349885e-002
3.964927e+003, 3.304300e-002
3.966856e+003, 3.403804e-002
3.968784e+003, 3.346698e-002
3.970713e+003, 3.105196e-002
3.972641e+003, 3.224885e-002
3.974570e+003, 3.387179e-002
3.976498e+003, 3.423212e-002
3.978427e+003, 3.553765e-002
3.980355e+003, 3.580258e-002
3.982284e+003, 3.605986e-002
3.984212e+003, 3.783464e-002
3.986141e+003, 3.695446e-002
3.988069e+003, 3.518974e-002
3.989998e+003, 3.435966e-002
3.991926e+003, 3.442489e-002
3.993854e+003, 3.399026e-002
3.995783e+003, 3.475180e-002
3.997711e+003, 3.385947e-002
3.999640e+003, 3.387593e-002
##END=



