##NAMES=Spessartine
##RRUFFID=R080053
##IDEAL CHEMISTRY=Mn^2+^_3_Al_2_(SiO_4_)_3_
##LOCALITY=East Africa
##OWNER=RRUFF
##SOURCE=www.multicolour.com
##DESCRIPTION=Transparent orange fragments
##STATUS=The identification of this mineral has been confirmed by X-ray diffraction and chemical analysis
##URL=rruff.info/R080053
##MEASURED CHEMISTRY=(Mn^2+^_1.32_Mg_0.96_Fe^2+^_0.38_Fe^3+^_0.04_Ca_0.30_)Al_2.00_((Si_0.99_Al_0.01_)O_4_)_3_; Fe^2+^ and Fe^3+^ estimated by charge balance
3.741225e+002, 2.459918e-001
3.760510e+002, 2.396185e-001
3.779795e+002, 2.234973e-001
3.799079e+002, 2.170282e-001
3.818364e+002, 2.281100e-001
3.837649e+002, 2.362541e-001
3.856933e+002, 2.419045e-001
3.876218e+002, 2.472726e-001
3.895503e+002, 2.446861e-001
3.914787e+002, 2.397096e-001
3.934072e+002, 2.344901e-001
3.953357e+002, 2.362822e-001
3.972641e+002, 2.362138e-001
3.991926e+002, 2.373299e-001
4.011211e+002, 2.434567e-001
4.030495e+002, 2.421022e-001
4.049780e+002, 2.421260e-001
4.069065e+002, 2.496386e-001
4.088349e+002, 2.497966e-001
4.107634e+002, 2.467808e-001
4.126919e+002, 2.485948e-001
4.146203e+002, 2.530047e-001
4.165488e+002, 2.547785e-001
4.184773e+002, 2.529652e-001
4.204057e+002, 2.550422e-001
4.223342e+002, 2.582312e-001
4.242627e+002, 2.607505e-001
4.261911e+002, 2.605444e-001
4.281196e+002, 2.583801e-001
4.300481e+002, 2.585189e-001
4.319765e+002, 2.600462e-001
4.339050e+002, 2.607123e-001
4.358335e+002, 2.619519e-001
4.377619e+002, 2.627618e-001
4.396904e+002, 2.628777e-001
4.416189e+002, 2.619905e-001
4.435473e+002, 2.626906e-001
4.454758e+002, 2.635114e-001
4.474043e+002, 2.616655e-001
4.493327e+002, 2.593272e-001
4.512612e+002, 2.575944e-001
4.531897e+002, 2.537647e-001
4.551181e+002, 2.478675e-001
4.570466e+002, 2.397634e-001
4.589751e+002, 2.335560e-001
4.609035e+002, 2.293319e-001
4.628320e+002, 2.204410e-001
4.647605e+002, 2.120367e-001
4.666889e+002, 2.058543e-001
4.686174e+002, 1.983909e-001
4.705459e+002, 1.899219e-001
4.724743e+002, 1.816344e-001
4.744028e+002, 1.732980e-001
4.763313e+002, 1.650648e-001
4.782597e+002, 1.579075e-001
4.801882e+002, 1.546320e-001
4.821167e+002, 1.565868e-001
4.840451e+002, 1.605869e-001
4.859736e+002, 1.640712e-001
4.879021e+002, 1.666849e-001
4.898305e+002, 1.692734e-001
4.917590e+002, 1.715775e-001
4.936875e+002, 1.727586e-001
4.956159e+002, 1.718804e-001
4.975444e+002, 1.701744e-001
4.994729e+002, 1.693275e-001
5.014013e+002, 1.691577e-001
5.033298e+002, 1.689147e-001
5.052583e+002, 1.685530e-001
5.071867e+002, 1.679256e-001
5.091152e+002, 1.680487e-001
5.110437e+002, 1.694512e-001
5.129721e+002, 1.722119e-001
5.149006e+002, 1.755047e-001
5.168290e+002, 1.792624e-001
5.187575e+002, 1.833554e-001
5.206860e+002, 1.873472e-001
5.226144e+002, 1.917804e-001
5.245429e+002, 1.953104e-001
5.264714e+002, 1.984103e-001
5.283998e+002, 2.018304e-001
5.303283e+002, 2.048342e-001
5.322568e+002, 2.077545e-001
5.341852e+002, 2.105359e-001
5.361137e+002, 2.121465e-001
5.380422e+002, 2.131003e-001
5.399706e+002, 2.154666e-001
5.418991e+002, 2.172638e-001
5.438276e+002, 2.187813e-001
5.457560e+002, 2.217425e-001
5.476845e+002, 2.243352e-001
5.496130e+002, 2.269752e-001
5.515414e+002, 2.293101e-001
5.534699e+002, 2.315109e-001
5.553984e+002, 2.342842e-001
5.573268e+002, 2.367175e-001
5.592553e+002, 2.380959e-001
5.611838e+002, 2.385912e-001
5.631122e+002, 2.383068e-001
5.650407e+002, 2.367941e-001
5.669692e+002, 2.346379e-001
5.688976e+002, 2.326965e-001
5.708261e+002, 2.301949e-001
5.727546e+002, 2.277284e-001
5.746830e+002, 2.253945e-001
5.766115e+002, 2.235796e-001
5.785400e+002, 2.222561e-001
5.804684e+002, 2.210017e-001
5.823969e+002, 2.201604e-001
5.843254e+002, 2.192424e-001
5.862538e+002, 2.183727e-001
5.881823e+002, 2.181514e-001
5.901108e+002, 2.178972e-001
5.920392e+002, 2.178468e-001
5.939677e+002, 2.172873e-001
5.958962e+002, 2.164765e-001
5.978246e+002, 2.162100e-001
5.997531e+002, 2.163661e-001
6.016816e+002, 2.166166e-001
6.036100e+002, 2.160152e-001
6.055385e+002, 2.153127e-001
6.074670e+002, 2.149506e-001
6.093954e+002, 2.138871e-001
6.113239e+002, 2.118605e-001
6.132524e+002, 2.095790e-001
6.151808e+002, 2.069123e-001
6.171093e+002, 2.041391e-001
6.190378e+002, 2.009735e-001
6.209662e+002, 1.970281e-001
6.228947e+002, 1.930137e-001
6.248232e+002, 1.898705e-001
6.267516e+002, 1.880490e-001
6.286801e+002, 1.887672e-001
6.306086e+002, 1.921167e-001
6.325370e+002, 1.961849e-001
6.344655e+002, 1.991041e-001
6.363940e+002, 2.008051e-001
6.383224e+002, 2.009428e-001
6.402509e+002, 2.004631e-001
6.421794e+002, 1.996340e-001
6.441078e+002, 1.984265e-001
6.460363e+002, 1.969004e-001
6.479648e+002, 1.951060e-001
6.498932e+002, 1.930604e-001
6.518217e+002, 1.908606e-001
6.537502e+002, 1.887527e-001
6.556786e+002, 1.866845e-001
6.576071e+002, 1.846130e-001
6.595356e+002, 1.829677e-001
6.614641e+002, 1.811668e-001
6.633925e+002, 1.792277e-001
6.653210e+002, 1.777186e-001
6.672495e+002, 1.765861e-001
6.691779e+002, 1.751200e-001
6.711064e+002, 1.734006e-001
6.730349e+002, 1.718655e-001
6.749633e+002, 1.702191e-001
6.768918e+002, 1.688674e-001
6.788203e+002, 1.678685e-001
6.807487e+002, 1.664930e-001
6.826772e+002, 1.651658e-001
6.846057e+002, 1.637749e-001
6.865341e+002, 1.623553e-001
6.884626e+002, 1.615600e-001
6.903911e+002, 1.607886e-001
6.923195e+002, 1.596926e-001
6.942480e+002, 1.588783e-001
6.961765e+002, 1.583026e-001
6.981049e+002, 1.576577e-001
7.000334e+002, 1.571392e-001
7.019619e+002, 1.564534e-001
7.038903e+002, 1.552975e-001
7.058188e+002, 1.538792e-001
7.077473e+002, 1.526024e-001
7.096757e+002, 1.511289e-001
7.116042e+002, 1.494020e-001
7.135327e+002, 1.477838e-001
7.154611e+002, 1.460191e-001
7.173896e+002, 1.440419e-001
7.193181e+002, 1.420526e-001
7.212465e+002, 1.402546e-001
7.231750e+002, 1.385190e-001
7.251035e+002, 1.366376e-001
7.270319e+002, 1.348017e-001
7.289604e+002, 1.331203e-001
7.308889e+002, 1.318315e-001
7.328173e+002, 1.306961e-001
7.347458e+002, 1.294087e-001
7.366743e+002, 1.277849e-001
7.386027e+002, 1.264542e-001
7.405312e+002, 1.250080e-001
7.424597e+002, 1.234066e-001
7.443881e+002, 1.223030e-001
7.463166e+002, 1.213758e-001
7.482451e+002, 1.203967e-001
7.501735e+002, 1.195571e-001
7.521020e+002, 1.187330e-001
7.540305e+002, 1.181686e-001
7.559589e+002, 1.176008e-001
7.578874e+002, 1.168800e-001
7.598159e+002, 1.161894e-001
7.617443e+002, 1.155273e-001
7.636728e+002, 1.148070e-001
7.656013e+002, 1.140448e-001
7.675297e+002, 1.132172e-001
7.694582e+002, 1.121517e-001
7.713867e+002, 1.109896e-001
7.733151e+002, 1.101390e-001
7.752436e+002, 1.091496e-001
7.771721e+002, 1.079552e-001
7.791005e+002, 1.066598e-001
7.810290e+002, 1.053575e-001
7.829575e+002, 1.037865e-001
7.848859e+002, 1.024680e-001
7.868144e+002, 1.012149e-001
7.887429e+002, 9.968086e-002
7.906713e+002, 9.794523e-002
7.925998e+002, 9.604098e-002
7.945283e+002, 9.406938e-002
7.964567e+002, 9.225842e-002
7.983852e+002, 9.063515e-002
8.003137e+002, 8.920410e-002
8.022421e+002, 8.806591e-002
8.041706e+002, 8.724499e-002
8.060991e+002, 8.667623e-002
8.080275e+002, 8.603007e-002
8.099560e+002, 8.537384e-002
8.118845e+002, 8.497028e-002
8.138129e+002, 8.451005e-002
8.157414e+002, 8.373451e-002
8.176699e+002, 8.300863e-002
8.195983e+002, 8.235343e-002
8.215268e+002, 8.169868e-002
8.234553e+002, 8.105855e-002
8.253837e+002, 8.042624e-002
8.273122e+002, 7.972084e-002
8.292407e+002, 7.893839e-002
8.311691e+002, 7.788306e-002
8.330976e+002, 7.696134e-002
8.350261e+002, 7.615570e-002
8.369545e+002, 7.523210e-002
8.388830e+002, 7.417712e-002
8.408115e+002, 7.330348e-002
8.427399e+002, 7.243389e-002
8.446684e+002, 7.159872e-002
8.465969e+002, 7.080153e-002
8.485253e+002, 6.985258e-002
8.504538e+002, 6.891076e-002
8.523823e+002, 6.791762e-002
8.543107e+002, 6.699058e-002
8.562392e+002, 6.612480e-002
8.581677e+002, 6.520733e-002
8.600961e+002, 6.413930e-002
8.620246e+002, 6.305736e-002
8.639531e+002, 6.186812e-002
8.658815e+002, 6.069786e-002
8.678100e+002, 5.957161e-002
8.697385e+002, 5.835414e-002
8.716669e+002, 5.719683e-002
8.735954e+002, 5.596278e-002
8.755239e+002, 5.483535e-002
8.774523e+002, 5.377608e-002
8.793808e+002, 5.297232e-002
8.813093e+002, 5.270267e-002
8.832377e+002, 5.296264e-002
8.851662e+002, 5.360429e-002
8.870947e+002, 5.440855e-002
8.890231e+002, 5.516918e-002
8.909516e+002, 5.585550e-002
8.928801e+002, 5.647922e-002
8.948085e+002, 5.675612e-002
8.967370e+002, 5.674409e-002
8.986655e+002, 5.648870e-002
9.005939e+002, 5.619391e-002
9.025224e+002, 5.565789e-002
9.044509e+002, 5.495720e-002
9.063793e+002, 5.423448e-002
9.083078e+002, 5.349693e-002
9.102363e+002, 5.258916e-002
9.121647e+002, 5.169265e-002
9.140932e+002, 5.105520e-002
9.160217e+002, 5.042387e-002
9.179501e+002, 4.994982e-002
9.198786e+002, 4.952547e-002
9.218071e+002, 4.931707e-002
9.237355e+002, 4.947924e-002
9.256640e+002, 4.969695e-002
9.275925e+002, 5.026541e-002
9.295209e+002, 5.104507e-002
9.314494e+002, 5.219516e-002
9.333779e+002, 5.384790e-002
9.353063e+002, 5.569493e-002
9.372348e+002, 5.785577e-002
9.391633e+002, 6.043892e-002
9.410917e+002, 6.331430e-002
9.430202e+002, 6.630953e-002
9.449487e+002, 6.920356e-002
9.468771e+002, 7.187290e-002
9.488056e+002, 7.431749e-002
9.507341e+002, 7.661501e-002
9.526625e+002, 7.875018e-002
9.545910e+002, 8.042090e-002
9.565195e+002, 8.161404e-002
9.584479e+002, 8.261903e-002
9.603764e+002, 8.312356e-002
9.623049e+002, 8.307879e-002
9.642333e+002, 8.278370e-002
9.661618e+002, 8.237319e-002
9.680903e+002, 8.183913e-002
9.700187e+002, 8.121378e-002
9.719472e+002, 8.052270e-002
9.738757e+002, 7.982782e-002
9.758041e+002, 7.920349e-002
9.777326e+002, 7.855308e-002
9.796611e+002, 7.780825e-002
9.815895e+002, 7.719570e-002
9.835180e+002, 7.645404e-002
9.854465e+002, 7.539559e-002
9.873749e+002, 7.431719e-002
9.893034e+002, 7.316027e-002
9.912319e+002, 7.181046e-002
9.931603e+002, 7.040811e-002
9.950888e+002, 6.879444e-002
9.970173e+002, 6.719699e-002
9.989457e+002, 6.567395e-002
1.000874e+003, 6.398412e-002
1.002803e+003, 6.223516e-002
1.004731e+003, 6.059470e-002
1.006660e+003, 5.898486e-002
1.008588e+003, 5.750797e-002
1.010517e+003, 5.628777e-002
1.012445e+003, 5.533687e-002
1.014373e+003, 5.463879e-002
1.016302e+003, 5.406844e-002
1.018230e+003, 5.363031e-002
1.020159e+003, 5.340036e-002
1.022087e+003, 5.329077e-002
1.024016e+003, 5.329412e-002
1.025944e+003, 5.329083e-002
1.027873e+003, 5.316340e-002
1.029801e+003, 5.309870e-002
1.031730e+003, 5.319541e-002
1.033658e+003, 5.303092e-002
1.035587e+003, 5.279284e-002
1.037515e+003, 5.267598e-002
1.039443e+003, 5.264372e-002
1.041372e+003, 5.253714e-002
1.043300e+003, 5.224285e-002
1.045229e+003, 5.197143e-002
1.047157e+003, 5.144833e-002
1.049086e+003, 5.086852e-002
1.051014e+003, 5.035746e-002
1.052943e+003, 4.944399e-002
1.054871e+003, 4.848646e-002
1.056800e+003, 4.780032e-002
1.058728e+003, 4.729354e-002
1.060657e+003, 4.701591e-002
1.062585e+003, 4.674562e-002
1.064514e+003, 4.640980e-002
1.066442e+003, 4.620589e-002
1.068370e+003, 4.601577e-002
1.070299e+003, 4.595514e-002
1.072227e+003, 4.597943e-002
1.074156e+003, 4.595704e-002
1.076084e+003, 4.597137e-002
1.078013e+003, 4.606156e-002
1.079941e+003, 4.609749e-002
1.081870e+003, 4.597926e-002
1.083798e+003, 4.580653e-002
1.085727e+003, 4.564749e-002
1.087655e+003, 4.529963e-002
1.089584e+003, 4.480381e-002
1.091512e+003, 4.436618e-002
1.093441e+003, 4.374035e-002
1.095369e+003, 4.281156e-002
1.097297e+003, 4.165510e-002
1.099226e+003, 4.035810e-002
1.101154e+003, 3.903522e-002
1.103083e+003, 3.763819e-002
1.105011e+003, 3.613843e-002
1.106940e+003, 3.435304e-002
1.108868e+003, 3.263132e-002
1.110797e+003, 3.113739e-002
1.112725e+003, 2.953927e-002
1.114654e+003, 2.782873e-002
1.116582e+003, 2.627494e-002
1.118511e+003, 2.477436e-002
1.120439e+003, 2.325592e-002
1.122368e+003, 2.182091e-002
1.124296e+003, 2.054588e-002
1.126224e+003, 1.934060e-002
1.128153e+003, 1.813550e-002
1.130081e+003, 1.705372e-002
1.132010e+003, 1.593219e-002
1.133938e+003, 1.490461e-002
1.135867e+003, 1.415848e-002
1.137795e+003, 1.351259e-002
1.139724e+003, 1.294421e-002
1.141652e+003, 1.242369e-002
1.143581e+003, 1.195269e-002
1.145509e+003, 1.162806e-002
1.147438e+003, 1.127346e-002
1.149366e+003, 1.116380e-002
1.151295e+003, 1.115799e-002
1.153223e+003, 1.107209e-002
1.155151e+003, 1.089840e-002
1.157080e+003, 1.074442e-002
1.159008e+003, 1.059228e-002
1.160937e+003, 1.050114e-002
1.162865e+003, 1.032986e-002
1.164794e+003, 1.018020e-002
1.166722e+003, 1.004462e-002
1.168651e+003, 9.860777e-003
1.170579e+003, 9.683621e-003
1.172508e+003, 9.495256e-003
1.174436e+003, 9.419457e-003
1.176365e+003, 9.460136e-003
1.178293e+003, 9.417542e-003
1.180222e+003, 9.388385e-003
1.182150e+003, 9.405361e-003
1.184078e+003, 9.507022e-003
1.186007e+003, 9.733030e-003
1.187935e+003, 9.758723e-003
1.189864e+003, 9.764239e-003
1.191792e+003, 9.878908e-003
1.193721e+003, 9.988393e-003
1.195649e+003, 1.015099e-002
1.197578e+003, 1.040814e-002
1.199506e+003, 1.067547e-002
1.201435e+003, 1.085897e-002
1.203363e+003, 1.130901e-002
1.205292e+003, 1.194789e-002
1.207220e+003, 1.262998e-002
1.209149e+003, 1.324020e-002
1.211077e+003, 1.392235e-002
1.213005e+003, 1.483286e-002
1.214934e+003, 1.582024e-002
1.216862e+003, 1.694558e-002
1.218791e+003, 1.804657e-002
1.220719e+003, 1.916137e-002
1.222648e+003, 2.022519e-002
1.224576e+003, 2.130852e-002
1.226505e+003, 2.251364e-002
1.228433e+003, 2.369176e-002
1.230362e+003, 2.495106e-002
1.232290e+003, 2.610826e-002
1.234219e+003, 2.717200e-002
1.236147e+003, 2.823270e-002
1.238076e+003, 2.919100e-002
1.240004e+003, 3.001976e-002
1.241932e+003, 3.078870e-002
1.243861e+003, 3.134261e-002
1.245789e+003, 3.168827e-002
1.247718e+003, 3.204250e-002
1.249646e+003, 3.237939e-002
1.251575e+003, 3.260938e-002
1.253503e+003, 3.271309e-002
1.255432e+003, 3.257297e-002
1.257360e+003, 3.248861e-002
1.259289e+003, 3.248628e-002
1.261217e+003, 3.250197e-002
1.263146e+003, 3.250335e-002
1.265074e+003, 3.249111e-002
1.267003e+003, 3.233540e-002
1.268931e+003, 3.217714e-002
1.270859e+003, 3.212096e-002
1.272788e+003, 3.221271e-002
1.274716e+003, 3.229098e-002
1.276645e+003, 3.219331e-002
1.278573e+003, 3.202518e-002
1.280502e+003, 3.190041e-002
1.282430e+003, 3.166781e-002
1.284359e+003, 3.132268e-002
1.286287e+003, 3.097557e-002
1.288216e+003, 3.054302e-002
1.290144e+003, 2.997428e-002
1.292073e+003, 2.960652e-002
1.294001e+003, 2.926810e-002
1.295930e+003, 2.864472e-002
1.297858e+003, 2.802837e-002
1.299786e+003, 2.750144e-002
1.301715e+003, 2.703668e-002
1.303643e+003, 2.654549e-002
1.305572e+003, 2.599321e-002
1.307500e+003, 2.546024e-002
1.309429e+003, 2.491464e-002
1.311357e+003, 2.437360e-002
1.313286e+003, 2.388970e-002
1.315214e+003, 2.341165e-002
1.317143e+003, 2.312170e-002
1.319071e+003, 2.283098e-002
1.321000e+003, 2.241946e-002
1.322928e+003, 2.211368e-002
1.324857e+003, 2.200884e-002
1.326785e+003, 2.170530e-002
1.328714e+003, 2.130669e-002
1.330642e+003, 2.100960e-002
1.332570e+003, 2.084383e-002
1.334499e+003, 2.068563e-002
1.336427e+003, 2.053107e-002
1.338356e+003, 2.044645e-002
1.340284e+003, 2.051814e-002
1.342213e+003, 2.056227e-002
1.344141e+003, 2.052893e-002
1.346070e+003, 2.051907e-002
1.347998e+003, 2.057503e-002
1.349927e+003, 2.059631e-002
1.351855e+003, 2.050122e-002
1.353784e+003, 2.035347e-002
1.355712e+003, 2.018644e-002
1.357641e+003, 1.996205e-002
1.359569e+003, 1.969295e-002
1.361497e+003, 1.931608e-002
1.363426e+003, 1.897136e-002
1.365354e+003, 1.867428e-002
1.367283e+003, 1.821514e-002
1.369211e+003, 1.774311e-002
1.371140e+003, 1.747211e-002
1.373068e+003, 1.715497e-002
1.374997e+003, 1.661361e-002
1.376925e+003, 1.604454e-002
1.378854e+003, 1.555195e-002
1.380782e+003, 1.507300e-002
1.382711e+003, 1.452585e-002
1.384639e+003, 1.392812e-002
1.386568e+003, 1.337472e-002
1.388496e+003, 1.286572e-002
1.390424e+003, 1.242724e-002
1.392353e+003, 1.195904e-002
1.394281e+003, 1.144192e-002
1.396210e+003, 1.094846e-002
1.398138e+003, 1.043042e-002
1.400067e+003, 9.999181e-003
1.401995e+003, 9.776219e-003
1.403924e+003, 9.543955e-003
1.405852e+003, 9.304826e-003
1.407781e+003, 8.939949e-003
1.409709e+003, 8.559918e-003
1.411638e+003, 8.241259e-003
1.413566e+003, 7.977627e-003
1.415495e+003, 7.630308e-003
1.417423e+003, 7.416064e-003
1.419351e+003, 7.247970e-003
1.421280e+003, 6.984892e-003
1.423208e+003, 6.783602e-003
1.425137e+003, 6.681852e-003
1.427065e+003, 6.537769e-003
1.428994e+003, 6.348965e-003
1.430922e+003, 6.187177e-003
1.432851e+003, 5.975075e-003
1.434779e+003, 5.775221e-003
1.436708e+003, 5.620317e-003
1.438636e+003, 5.420877e-003
1.440565e+003, 5.166852e-003
1.442493e+003, 4.904434e-003
1.444422e+003, 4.774788e-003
1.446350e+003, 4.734372e-003
1.448278e+003, 4.579215e-003
1.450207e+003, 4.384087e-003
1.452135e+003, 4.312013e-003
1.454064e+003, 4.228537e-003
1.455992e+003, 4.269211e-003
1.457921e+003, 4.187038e-003
1.459849e+003, 3.848567e-003
1.461778e+003, 3.636013e-003
1.463706e+003, 3.688321e-003
1.465635e+003, 3.843054e-003
1.467563e+003, 3.708066e-003
1.469492e+003, 3.529165e-003
1.471420e+003, 3.486048e-003
1.473349e+003, 3.575589e-003
1.475277e+003, 3.529640e-003
1.477205e+003, 3.442227e-003
1.479134e+003, 3.355867e-003
1.481062e+003, 3.271256e-003
1.482991e+003, 3.116752e-003
1.484919e+003, 3.061529e-003
1.486848e+003, 3.249374e-003
1.488776e+003, 3.358057e-003
1.490705e+003, 3.355654e-003
1.492633e+003, 3.271958e-003
1.494562e+003, 3.263942e-003
1.496490e+003, 3.393899e-003
1.498419e+003, 3.412996e-003
1.500347e+003, 3.403945e-003
1.502276e+003, 3.383753e-003
1.504204e+003, 3.435743e-003
1.506132e+003, 3.588359e-003
1.508061e+003, 3.454498e-003
1.509989e+003, 3.320665e-003
1.511918e+003, 3.304313e-003
1.513846e+003, 3.233618e-003
1.515775e+003, 3.282002e-003
1.517703e+003, 3.360424e-003
1.519632e+003, 3.417076e-003
1.521560e+003, 3.416446e-003
1.523489e+003, 3.333863e-003
1.525417e+003, 3.392795e-003
1.527346e+003, 3.434371e-003
1.529274e+003, 3.425413e-003
1.531203e+003, 3.451356e-003
1.533131e+003, 3.478681e-003
1.535059e+003, 3.385102e-003
1.536988e+003, 3.520096e-003
1.538916e+003, 3.912818e-003
1.540845e+003, 3.893431e-003
1.542773e+003, 3.786945e-003
1.544702e+003, 3.826990e-003
1.546630e+003, 3.607815e-003
1.548559e+003, 3.439160e-003
1.550487e+003, 3.468488e-003
1.552416e+003, 3.608020e-003
1.554344e+003, 3.781112e-003
1.556273e+003, 3.975102e-003
1.558201e+003, 4.397862e-003
1.560130e+003, 4.332703e-003
1.562058e+003, 3.881077e-003
1.563986e+003, 3.882845e-003
1.565915e+003, 3.995242e-003
1.567843e+003, 3.966354e-003
1.569772e+003, 4.042282e-003
1.571700e+003, 4.081720e-003
1.573629e+003, 4.219186e-003
1.575557e+003, 4.431243e-003
1.577486e+003, 4.298216e-003
1.579414e+003, 4.198839e-003
1.581343e+003, 4.308620e-003
1.583271e+003, 4.270587e-003
1.585200e+003, 4.285884e-003
1.587128e+003, 4.280725e-003
1.589057e+003, 4.407526e-003
1.590985e+003, 4.601188e-003
1.592913e+003, 4.590719e-003
1.594842e+003, 4.631068e-003
1.596770e+003, 4.789494e-003
1.598699e+003, 4.838378e-003
1.600627e+003, 4.901682e-003
1.602556e+003, 4.984488e-003
1.604484e+003, 5.126933e-003
1.606413e+003, 5.276704e-003
1.608341e+003, 5.354243e-003
1.610270e+003, 5.358190e-003
1.612198e+003, 5.444441e-003
1.614127e+003, 5.669821e-003
1.616055e+003, 5.928625e-003
1.617984e+003, 5.897314e-003
1.619912e+003, 5.967837e-003
1.621840e+003, 6.212630e-003
1.623769e+003, 6.418000e-003
1.625697e+003, 6.521353e-003
1.627626e+003, 6.618252e-003
1.629554e+003, 6.664736e-003
1.631483e+003, 6.848412e-003
1.633411e+003, 7.116402e-003
1.635340e+003, 7.317978e-003
1.637268e+003, 7.323758e-003
1.639197e+003, 7.236633e-003
1.641125e+003, 7.378756e-003
1.643054e+003, 7.517311e-003
1.644982e+003, 7.672997e-003
1.646911e+003, 7.762364e-003
1.648839e+003, 7.636100e-003
1.650767e+003, 7.807360e-003
1.652696e+003, 8.184609e-003
1.654624e+003, 7.860520e-003
1.656553e+003, 7.511569e-003
1.658481e+003, 7.398327e-003
1.660410e+003, 7.276430e-003
1.662338e+003, 7.257842e-003
1.664267e+003, 7.033525e-003
1.666195e+003, 6.894571e-003
1.668124e+003, 6.922081e-003
1.670052e+003, 6.838524e-003
1.671981e+003, 6.657198e-003
1.673909e+003, 6.470056e-003
1.675838e+003, 6.195262e-003
1.677766e+003, 5.964876e-003
1.679694e+003, 5.847397e-003
1.681623e+003, 5.883768e-003
1.683551e+003, 6.133375e-003
1.685480e+003, 5.927045e-003
1.687408e+003, 5.586418e-003
1.689337e+003, 5.391753e-003
1.691265e+003, 5.132802e-003
1.693194e+003, 5.067078e-003
1.695122e+003, 5.461595e-003
1.697051e+003, 5.542986e-003
1.698979e+003, 5.479750e-003
1.700908e+003, 5.534063e-003
1.702836e+003, 5.088832e-003
1.704765e+003, 4.978009e-003
1.706693e+003, 5.088401e-003
1.708621e+003, 5.180858e-003
1.710550e+003, 5.101784e-003
1.712478e+003, 5.102622e-003
1.714407e+003, 5.221283e-003
1.716335e+003, 5.482907e-003
1.718264e+003, 5.362786e-003
1.720192e+003, 4.982721e-003
1.722121e+003, 4.903699e-003
1.724049e+003, 4.887571e-003
1.725978e+003, 4.734698e-003
1.727906e+003, 4.803541e-003
1.729835e+003, 4.856724e-003
1.731763e+003, 4.889397e-003
1.733692e+003, 4.890622e-003
1.735620e+003, 4.689448e-003
1.737548e+003, 4.376857e-003
1.739477e+003, 4.258768e-003
1.741405e+003, 4.168448e-003
1.743334e+003, 4.167895e-003
1.745262e+003, 4.204545e-003
1.747191e+003, 4.125251e-003
1.749119e+003, 4.384727e-003
1.751048e+003, 4.642690e-003
1.752976e+003, 4.540517e-003
1.754905e+003, 4.604711e-003
1.756833e+003, 4.807508e-003
1.758762e+003, 4.707586e-003
1.760690e+003, 4.816712e-003
1.762619e+003, 4.957704e-003
1.764547e+003, 4.955478e-003
1.766475e+003, 5.017273e-003
1.768404e+003, 5.171627e-003
1.770332e+003, 5.367800e-003
1.772261e+003, 5.431009e-003
1.774189e+003, 5.344924e-003
1.776118e+003, 5.253732e-003
1.778046e+003, 5.276875e-003
1.779975e+003, 5.265497e-003
1.781903e+003, 5.270251e-003
1.783832e+003, 5.294402e-003
1.785760e+003, 5.341412e-003
1.787689e+003, 5.252354e-003
1.789617e+003, 5.075719e-003
1.791546e+003, 5.277493e-003
1.793474e+003, 5.279404e-003
1.795402e+003, 5.132188e-003
1.797331e+003, 5.269593e-003
1.799259e+003, 5.283170e-003
1.801188e+003, 5.172396e-003
1.803116e+003, 5.051768e-003
1.805045e+003, 5.080407e-003
1.806973e+003, 5.247051e-003
1.808902e+003, 5.357103e-003
1.810830e+003, 5.472527e-003
1.812759e+003, 5.443276e-003
1.814687e+003, 5.098891e-003
1.816616e+003, 5.154897e-003
1.818544e+003, 5.563982e-003
1.820473e+003, 5.695515e-003
1.822401e+003, 5.541304e-003
1.824329e+003, 5.460856e-003
1.826258e+003, 5.480947e-003
1.828186e+003, 5.591836e-003
1.830115e+003, 5.562989e-003
1.832043e+003, 5.473128e-003
1.833972e+003, 5.476197e-003
1.835900e+003, 5.309615e-003
1.837829e+003, 5.399426e-003
1.839757e+003, 5.644847e-003
1.841686e+003, 5.609038e-003
1.843614e+003, 5.297181e-003
1.845543e+003, 5.476698e-003
1.847471e+003, 5.769008e-003
1.849400e+003, 5.595506e-003
1.851328e+003, 5.500043e-003
1.853256e+003, 5.503361e-003
1.855185e+003, 5.518990e-003
1.857113e+003, 5.549262e-003
1.859042e+003, 5.461810e-003
1.860970e+003, 5.473932e-003
1.862899e+003, 5.654996e-003
1.864827e+003, 5.808891e-003
1.866756e+003, 5.813902e-003
1.868684e+003, 5.943333e-003
1.870613e+003, 6.025393e-003
1.872541e+003, 6.054921e-003
1.874470e+003, 5.647592e-003
1.876398e+003, 5.583412e-003
1.878327e+003, 5.926167e-003
1.880255e+003, 5.890081e-003
1.882183e+003, 5.728735e-003
1.884112e+003, 5.661430e-003
1.886040e+003, 5.914876e-003
1.887969e+003, 6.010087e-003
1.889897e+003, 5.758519e-003
1.891826e+003, 5.798609e-003
1.893754e+003, 5.525827e-003
1.895683e+003, 5.542963e-003
1.897611e+003, 6.125596e-003
1.899540e+003, 5.996391e-003
1.901468e+003, 5.740926e-003
1.903397e+003, 5.637650e-003
1.905325e+003, 5.516754e-003
1.907254e+003, 5.571134e-003
1.909182e+003, 5.807533e-003
1.911110e+003, 5.420619e-003
1.913039e+003, 5.207276e-003
1.914967e+003, 5.219421e-003
1.916896e+003, 5.791855e-003
1.918824e+003, 6.088201e-003
1.920753e+003, 6.112463e-003
1.922681e+003, 5.653142e-003
1.924610e+003, 5.056609e-003
1.926538e+003, 4.721501e-003
1.928467e+003, 4.415654e-003
1.930395e+003, 4.724456e-003
1.932324e+003, 5.276262e-003
1.934252e+003, 5.156612e-003
1.936181e+003, 4.957354e-003
1.938109e+003, 4.847768e-003
1.940037e+003, 4.344123e-003
1.941966e+003, 4.647112e-003
1.943894e+003, 4.829331e-003
1.945823e+003, 4.630864e-003
1.947751e+003, 4.856828e-003
1.949680e+003, 4.644850e-003
1.951608e+003, 4.190135e-003
1.953537e+003, 4.447030e-003
1.955465e+003, 4.341417e-003
1.957394e+003, 3.807736e-003
1.959322e+003, 3.915963e-003
1.961251e+003, 4.404035e-003
1.963179e+003, 4.424712e-003
1.965108e+003, 3.989866e-003
1.967036e+003, 3.303102e-003
1.968964e+003, 2.979072e-003
1.970893e+003, 3.321117e-003
1.972821e+003, 3.914902e-003
1.974750e+003, 3.867921e-003
1.976678e+003, 4.171233e-003
1.978607e+003, 5.866553e-003
1.980535e+003, 7.545470e-003
1.982464e+003, 7.076764e-003
1.984392e+003, 5.916742e-003
1.986321e+003, 5.813421e-003
1.988249e+003, 5.460260e-003
1.990178e+003, 5.058727e-003
1.992106e+003, 5.328116e-003
1.994035e+003, 5.424886e-003
1.995963e+003, 5.519580e-003
1.997891e+003, 5.394213e-003
1.999820e+003, 5.021586e-003
2.001748e+003, 4.609386e-003
2.003677e+003, 4.015883e-003
2.005605e+003, 4.079035e-003
2.007534e+003, 5.299174e-003
2.009462e+003, 4.899151e-003
2.011391e+003, 3.729301e-003
2.013319e+003, 3.478333e-003
2.015248e+003, 3.816926e-003
2.017176e+003, 4.755921e-003
2.019105e+003, 5.853469e-003
2.021033e+003, 5.724176e-003
2.022962e+003, 5.096887e-003
2.024890e+003, 5.337226e-003
2.026818e+003, 5.562532e-003
2.028747e+003, 5.115317e-003
2.030675e+003, 4.696898e-003
2.032604e+003, 4.954420e-003
2.034532e+003, 6.132967e-003
2.036461e+003, 7.271148e-003
2.038389e+003, 7.317122e-003
2.040318e+003, 6.659753e-003
2.042246e+003, 6.853489e-003
2.044175e+003, 7.081756e-003
2.046103e+003, 6.428737e-003
2.048031e+003, 7.394774e-003
2.049960e+003, 9.220305e-003
2.051888e+003, 8.099864e-003
2.053817e+003, 6.723562e-003
2.055745e+003, 6.449701e-003
2.057674e+003, 6.160299e-003
2.059602e+003, 6.122439e-003
2.061531e+003, 6.420793e-003
2.063459e+003, 6.791708e-003
2.065388e+003, 7.243066e-003
2.067316e+003, 7.601036e-003
2.069245e+003, 7.597478e-003
2.071173e+003, 7.442347e-003
2.073102e+003, 7.031938e-003
2.075030e+003, 6.779082e-003
2.076958e+003, 7.467993e-003
2.078887e+003, 8.654551e-003
2.080815e+003, 8.724813e-003
2.082744e+003, 7.541960e-003
2.084672e+003, 7.322114e-003
2.086601e+003, 7.639590e-003
2.088529e+003, 7.690338e-003
2.090458e+003, 7.741799e-003
2.092386e+003, 7.544927e-003
2.094315e+003, 7.604852e-003
2.096243e+003, 8.036606e-003
2.098172e+003, 7.892586e-003
2.100100e+003, 8.013485e-003
2.102029e+003, 8.575531e-003
2.103957e+003, 8.824519e-003
2.105885e+003, 8.686358e-003
2.107814e+003, 8.508897e-003
2.109742e+003, 8.580892e-003
2.111671e+003, 8.614443e-003
2.113599e+003, 8.539604e-003
2.115528e+003, 8.549590e-003
2.117456e+003, 8.461079e-003
2.119385e+003, 8.024731e-003
2.121313e+003, 7.682193e-003
2.123242e+003, 7.658602e-003
2.125170e+003, 7.575175e-003
2.127099e+003, 6.986402e-003
2.129027e+003, 6.073930e-003
2.130956e+003, 6.029967e-003
2.132884e+003, 6.080594e-003
2.134813e+003, 5.832082e-003
2.136741e+003, 6.463026e-003
2.138669e+003, 7.397835e-003
2.140598e+003, 7.815829e-003
2.142526e+003, 6.971984e-003
2.144455e+003, 6.064374e-003
2.146383e+003, 5.898975e-003
2.148312e+003, 6.299994e-003
2.150240e+003, 6.089269e-003
2.152169e+003, 4.995258e-003
2.154097e+003, 3.462540e-003
2.156026e+003, 2.844112e-003
2.157954e+003, 5.681267e-003
2.159883e+003, 1.005203e-002
2.161811e+003, 1.163241e-002
2.163740e+003, 1.051126e-002
2.165668e+003, 9.587402e-003
2.167596e+003, 9.740556e-003
2.169525e+003, 9.651898e-003
2.171453e+003, 8.791072e-003
2.173382e+003, 7.595581e-003
2.175310e+003, 7.394684e-003
2.177239e+003, 8.547150e-003
2.179167e+003, 7.887047e-003
2.181096e+003, 7.666324e-003
2.183024e+003, 8.434331e-003
2.184953e+003, 8.465959e-003
2.186881e+003, 8.245504e-003
2.188810e+003, 7.836898e-003
2.190738e+003, 9.142547e-003
2.192667e+003, 9.981832e-003
2.194595e+003, 9.909710e-003
2.196523e+003, 9.893636e-003
2.198452e+003, 9.219384e-003
2.200380e+003, 8.951970e-003
2.202309e+003, 9.375190e-003
2.204237e+003, 9.692556e-003
2.206166e+003, 9.229220e-003
2.208094e+003, 9.243051e-003
2.210023e+003, 9.847825e-003
2.211951e+003, 9.607211e-003
2.213880e+003, 9.373187e-003
2.215808e+003, 9.378832e-003
2.217737e+003, 9.669821e-003
2.219665e+003, 9.574675e-003
2.221594e+003, 9.591767e-003
2.223522e+003, 9.709110e-003
2.225450e+003, 9.805351e-003
2.227379e+003, 9.848217e-003
2.229307e+003, 9.974954e-003
2.231236e+003, 9.822253e-003
2.233164e+003, 1.025211e-002
2.235093e+003, 1.011615e-002
2.237021e+003, 1.000580e-002
2.238950e+003, 1.030334e-002
2.240878e+003, 1.115183e-002
2.242807e+003, 1.109513e-002
2.244735e+003, 1.050715e-002
2.246664e+003, 1.063109e-002
2.248592e+003, 1.089830e-002
2.250521e+003, 1.060147e-002
2.252449e+003, 1.001524e-002
2.254377e+003, 1.005151e-002
2.256306e+003, 1.054967e-002
2.258234e+003, 1.085114e-002
2.260163e+003, 1.085268e-002
2.262091e+003, 1.088642e-002
2.264020e+003, 1.087279e-002
2.265948e+003, 1.095691e-002
2.267877e+003, 1.109093e-002
2.269805e+003, 1.094856e-002
2.271734e+003, 1.088366e-002
2.273662e+003, 1.088551e-002
2.275591e+003, 1.132557e-002
2.277519e+003, 1.150708e-002
2.279448e+003, 1.156443e-002
2.281376e+003, 1.205592e-002
2.283304e+003, 1.201373e-002
2.285233e+003, 1.184471e-002
2.287161e+003, 1.165202e-002
2.289090e+003, 1.196579e-002
2.291018e+003, 1.206292e-002
2.292947e+003, 1.175875e-002
2.294875e+003, 1.187229e-002
2.296804e+003, 1.221864e-002
2.298732e+003, 1.222127e-002
2.300661e+003, 1.172342e-002
2.302589e+003, 1.163035e-002
2.304518e+003, 1.183772e-002
2.306446e+003, 1.194468e-002
2.308375e+003, 1.211816e-002
2.310303e+003, 1.211875e-002
2.312231e+003, 1.212220e-002
2.314160e+003, 1.222148e-002
2.316088e+003, 1.228107e-002
2.318017e+003, 1.256447e-002
2.319945e+003, 1.288771e-002
2.321874e+003, 1.353479e-002
2.323802e+003, 1.382263e-002
2.325731e+003, 1.310540e-002
2.327659e+003, 1.237600e-002
2.329588e+003, 1.217460e-002
2.331516e+003, 1.253987e-002
2.333445e+003, 1.230556e-002
2.335373e+003, 1.193068e-002
2.337302e+003, 1.223184e-002
2.339230e+003, 1.229159e-002
2.341158e+003, 1.217061e-002
2.343087e+003, 1.229425e-002
2.345015e+003, 1.209614e-002
2.346944e+003, 1.161517e-002
2.348872e+003, 1.159881e-002
2.350801e+003, 1.190137e-002
2.352729e+003, 1.217301e-002
2.354658e+003, 1.247651e-002
2.356586e+003, 1.260166e-002
2.358515e+003, 1.268579e-002
2.360443e+003, 1.280980e-002
2.362372e+003, 1.251112e-002
2.364300e+003, 1.252133e-002
2.366229e+003, 1.237815e-002
2.368157e+003, 1.167531e-002
2.370085e+003, 1.156195e-002
2.372014e+003, 1.157621e-002
2.373942e+003, 1.121070e-002
2.375871e+003, 1.106607e-002
2.377799e+003, 1.110674e-002
2.379728e+003, 1.103302e-002
2.381656e+003, 1.105712e-002
2.383585e+003, 1.120306e-002
2.385513e+003, 1.098036e-002
2.387442e+003, 1.102713e-002
2.389370e+003, 1.124602e-002
2.391299e+003, 1.116972e-002
2.393227e+003, 1.099864e-002
2.395156e+003, 1.078607e-002
2.397084e+003, 1.080463e-002
2.399012e+003, 1.098538e-002
2.400941e+003, 1.111963e-002
2.402869e+003, 1.101414e-002
2.404798e+003, 1.112107e-002
2.406726e+003, 1.156740e-002
2.408655e+003, 1.178788e-002
2.410583e+003, 1.123695e-002
2.412512e+003, 1.076732e-002
2.414440e+003, 1.090647e-002
2.416369e+003, 1.101315e-002
2.418297e+003, 1.093109e-002
2.420226e+003, 1.115294e-002
2.422154e+003, 1.123499e-002
2.424083e+003, 1.119921e-002
2.426011e+003, 1.122104e-002
2.427939e+003, 1.150498e-002
2.429868e+003, 1.189422e-002
2.431796e+003, 1.185745e-002
2.433725e+003, 1.157601e-002
2.435653e+003, 1.132061e-002
2.437582e+003, 1.147972e-002
2.439510e+003, 1.163066e-002
2.441439e+003, 1.185678e-002
2.443367e+003, 1.178027e-002
2.445296e+003, 1.162392e-002
2.447224e+003, 1.160005e-002
2.449153e+003, 1.166137e-002
2.451081e+003, 1.170364e-002
2.453010e+003, 1.178188e-002
2.454938e+003, 1.162214e-002
2.456866e+003, 1.175102e-002
2.458795e+003, 1.180209e-002
2.460723e+003, 1.160313e-002
2.462652e+003, 1.155745e-002
2.464580e+003, 1.167629e-002
2.466509e+003, 1.157084e-002
2.468437e+003, 1.114418e-002
2.470366e+003, 1.132858e-002
2.472294e+003, 1.127119e-002
2.474223e+003, 1.118140e-002
2.476151e+003, 1.163084e-002
2.478080e+003, 1.164106e-002
2.480008e+003, 1.152669e-002
2.481937e+003, 1.136950e-002
2.483865e+003, 1.106041e-002
2.485793e+003, 1.096349e-002
2.487722e+003, 1.131720e-002
2.489650e+003, 1.171826e-002
2.491579e+003, 1.176581e-002
2.493507e+003, 1.165415e-002
2.495436e+003, 1.155067e-002
2.497364e+003, 1.149186e-002
2.499293e+003, 1.133118e-002
2.501221e+003, 1.126430e-002
2.503150e+003, 1.168672e-002
2.505078e+003, 1.177980e-002
2.507007e+003, 1.163597e-002
2.508935e+003, 1.164593e-002
2.510864e+003, 1.166623e-002
2.512792e+003, 1.136260e-002
2.514720e+003, 1.132367e-002
2.516649e+003, 1.174731e-002
2.518577e+003, 1.181181e-002
2.520506e+003, 1.184424e-002
2.522434e+003, 1.206894e-002
2.524363e+003, 1.190650e-002
2.526291e+003, 1.147769e-002
2.528220e+003, 1.151515e-002
2.530148e+003, 1.188362e-002
2.532077e+003, 1.198139e-002
2.534005e+003, 1.193823e-002
2.535934e+003, 1.206973e-002
2.537862e+003, 1.242021e-002
2.539791e+003, 1.211055e-002
2.541719e+003, 1.174865e-002
2.543647e+003, 1.170330e-002
2.545576e+003, 1.179273e-002
2.547504e+003, 1.169076e-002
2.549433e+003, 1.157336e-002
2.551361e+003, 1.120391e-002
2.553290e+003, 1.136340e-002
2.555218e+003, 1.153426e-002
2.557147e+003, 1.169656e-002
2.559075e+003, 1.163444e-002
2.561004e+003, 1.148638e-002
2.562932e+003, 1.156831e-002
2.564861e+003, 1.182976e-002
2.566789e+003, 1.182602e-002
2.568718e+003, 1.187671e-002
2.570646e+003, 1.194865e-002
2.572574e+003, 1.188136e-002
2.574503e+003, 1.171044e-002
2.576431e+003, 1.210679e-002
2.578360e+003, 1.272261e-002
2.580288e+003, 1.246712e-002
2.582217e+003, 1.221060e-002
2.584145e+003, 1.238481e-002
2.586074e+003, 1.246839e-002
2.588002e+003, 1.244560e-002
2.589931e+003, 1.234390e-002
2.591859e+003, 1.215133e-002
2.593788e+003, 1.221250e-002
2.595716e+003, 1.230548e-002
2.597645e+003, 1.217723e-002
2.599573e+003, 1.243767e-002
2.601501e+003, 1.272765e-002
2.603430e+003, 1.269809e-002
2.605358e+003, 1.258441e-002
2.607287e+003, 1.243370e-002
2.609215e+003, 1.242471e-002
2.611144e+003, 1.283013e-002
2.613072e+003, 1.333779e-002
2.615001e+003, 1.289622e-002
2.616929e+003, 1.290021e-002
2.618858e+003, 1.318471e-002
2.620786e+003, 1.323510e-002
2.622715e+003, 1.317864e-002
2.624643e+003, 1.339008e-002
2.626572e+003, 1.370525e-002
2.628500e+003, 1.341213e-002
2.630428e+003, 1.343961e-002
2.632357e+003, 1.374895e-002
2.634285e+003, 1.386229e-002
2.636214e+003, 1.378827e-002
2.638142e+003, 1.362205e-002
2.640071e+003, 1.369822e-002
2.641999e+003, 1.378531e-002
2.643928e+003, 1.386941e-002
2.645856e+003, 1.398104e-002
2.647785e+003, 1.385838e-002
2.649713e+003, 1.389194e-002
2.651642e+003, 1.392534e-002
2.653570e+003, 1.383260e-002
2.655499e+003, 1.389493e-002
2.657427e+003, 1.370042e-002
2.659355e+003, 1.357064e-002
2.661284e+003, 1.350822e-002
2.663212e+003, 1.333169e-002
2.665141e+003, 1.312153e-002
2.667069e+003, 1.303146e-002
2.668998e+003, 1.323229e-002
2.670926e+003, 1.353406e-002
2.672855e+003, 1.342082e-002
2.674783e+003, 1.315627e-002
2.676712e+003, 1.328614e-002
2.678640e+003, 1.354109e-002
2.680569e+003, 1.358930e-002
2.682497e+003, 1.351203e-002
2.684426e+003, 1.349700e-002
2.686354e+003, 1.359684e-002
2.688282e+003, 1.345404e-002
2.690211e+003, 1.324306e-002
2.692139e+003, 1.329352e-002
2.694068e+003, 1.352065e-002
2.695996e+003, 1.375337e-002
2.697925e+003, 1.350917e-002
2.699853e+003, 1.332835e-002
2.701782e+003, 1.325394e-002
2.703710e+003, 1.338943e-002
2.705639e+003, 1.378977e-002
2.707567e+003, 1.354311e-002
2.709496e+003, 1.341754e-002
2.711424e+003, 1.370719e-002
2.713353e+003, 1.370320e-002
2.715281e+003, 1.366852e-002
2.717209e+003, 1.351684e-002
2.719138e+003, 1.340350e-002
2.721066e+003, 1.334343e-002
2.722995e+003, 1.344141e-002
2.724923e+003, 1.367167e-002
2.726852e+003, 1.378353e-002
2.728780e+003, 1.372038e-002
2.730709e+003, 1.362646e-002
2.732637e+003, 1.370359e-002
2.734566e+003, 1.384003e-002
2.736494e+003, 1.400557e-002
2.738423e+003, 1.421450e-002
2.740351e+003, 1.412242e-002
2.742280e+003, 1.416657e-002
2.744208e+003, 1.420285e-002
2.746136e+003, 1.435630e-002
2.748065e+003, 1.420954e-002
2.749993e+003, 1.387285e-002
2.751922e+003, 1.396099e-002
2.753850e+003, 1.397789e-002
2.755779e+003, 1.395220e-002
2.757707e+003, 1.403472e-002
2.759636e+003, 1.404814e-002
2.761564e+003, 1.427008e-002
2.763493e+003, 1.434788e-002
2.765421e+003, 1.433285e-002
2.767350e+003, 1.444038e-002
2.769278e+003, 1.437875e-002
2.771207e+003, 1.438728e-002
2.773135e+003, 1.452953e-002
2.775063e+003, 1.464461e-002
2.776992e+003, 1.469726e-002
2.778920e+003, 1.446795e-002
2.780849e+003, 1.434745e-002
2.782777e+003, 1.432950e-002
2.784706e+003, 1.450106e-002
2.786634e+003, 1.477914e-002
2.788563e+003, 1.485914e-002
2.790491e+003, 1.512779e-002
2.792420e+003, 1.517899e-002
2.794348e+003, 1.490515e-002
2.796277e+003, 1.486845e-002
2.798205e+003, 1.486096e-002
2.800134e+003, 1.503473e-002
2.802062e+003, 1.507554e-002
2.803990e+003, 1.508818e-002
2.805919e+003, 1.515842e-002
2.807847e+003, 1.508868e-002
2.809776e+003, 1.499866e-002
2.811704e+003, 1.503678e-002
2.813633e+003, 1.544592e-002
2.815561e+003, 1.549052e-002
2.817490e+003, 1.529306e-002
2.819418e+003, 1.525500e-002
2.821347e+003, 1.522852e-002
2.823275e+003, 1.523116e-002
2.825204e+003, 1.523654e-002
2.827132e+003, 1.528545e-002
2.829061e+003, 1.549483e-002
2.830989e+003, 1.553778e-002
2.832917e+003, 1.570152e-002
2.834846e+003, 1.570545e-002
2.836774e+003, 1.557239e-002
2.838703e+003, 1.570719e-002
2.840631e+003, 1.590186e-002
2.842560e+003, 1.614022e-002
2.844488e+003, 1.611747e-002
2.846417e+003, 1.601823e-002
2.848345e+003, 1.596828e-002
2.850274e+003, 1.578757e-002
2.852202e+003, 1.588240e-002
2.854131e+003, 1.592561e-002
2.856059e+003, 1.610700e-002
2.857988e+003, 1.608325e-002
2.859916e+003, 1.603996e-002
2.861844e+003, 1.592015e-002
2.863773e+003, 1.599739e-002
2.865701e+003, 1.606923e-002
2.867630e+003, 1.618593e-002
2.869558e+003, 1.631424e-002
2.871487e+003, 1.604394e-002
2.873415e+003, 1.587072e-002
2.875344e+003, 1.594622e-002
2.877272e+003, 1.611210e-002
2.879201e+003, 1.624650e-002
2.881129e+003, 1.610971e-002
2.883058e+003, 1.578196e-002
2.884986e+003, 1.571740e-002
2.886915e+003, 1.593337e-002
2.888843e+003, 1.643600e-002
2.890771e+003, 1.713376e-002
2.892700e+003, 1.713061e-002
2.894628e+003, 1.674123e-002
2.896557e+003, 1.669490e-002
2.898485e+003, 1.677414e-002
2.900414e+003, 1.688153e-002
2.902342e+003, 1.712016e-002
2.904271e+003, 1.730947e-002
2.906199e+003, 1.707254e-002
2.908128e+003, 1.702438e-002
2.910056e+003, 1.726008e-002
2.911985e+003, 1.729343e-002
2.913913e+003, 1.730303e-002
2.915842e+003, 1.752605e-002
2.917770e+003, 1.746305e-002
2.919698e+003, 1.768755e-002
2.921627e+003, 1.786249e-002
2.923555e+003, 1.756289e-002
2.925484e+003, 1.730904e-002
2.927412e+003, 1.713954e-002
2.929341e+003, 1.697632e-002
2.931269e+003, 1.692450e-002
2.933198e+003, 1.740877e-002
2.935126e+003, 1.750017e-002
2.937055e+003, 1.748306e-002
2.938983e+003, 1.723976e-002
2.940912e+003, 1.691402e-002
2.942840e+003, 1.679528e-002
2.944769e+003, 1.646960e-002
2.946697e+003, 1.643450e-002
2.948625e+003, 1.658064e-002
2.950554e+003, 1.699127e-002
2.952482e+003, 1.700118e-002
2.954411e+003, 1.679705e-002
2.956339e+003, 1.705377e-002
2.958268e+003, 1.734463e-002
2.960196e+003, 1.732691e-002
2.962125e+003, 1.759468e-002
2.964053e+003, 1.775868e-002
2.965982e+003, 1.749386e-002
2.967910e+003, 1.716426e-002
2.969839e+003, 1.699034e-002
2.971767e+003, 1.690779e-002
2.973696e+003, 1.676074e-002
2.975624e+003, 1.660881e-002
2.977552e+003, 1.702777e-002
2.979481e+003, 1.730501e-002
2.981409e+003, 1.720139e-002
2.983338e+003, 1.704804e-002
2.985266e+003, 1.722063e-002
2.987195e+003, 1.728823e-002
2.989123e+003, 1.750546e-002
2.991052e+003, 1.780890e-002
2.992980e+003, 1.770849e-002
2.994909e+003, 1.773358e-002
2.996837e+003, 1.783026e-002
2.998766e+003, 1.769981e-002
3.000694e+003, 1.722096e-002
3.002623e+003, 1.711359e-002
3.004551e+003, 1.746223e-002
3.006479e+003, 1.793863e-002
3.008408e+003, 1.799067e-002
3.010336e+003, 1.782483e-002
3.012265e+003, 1.739428e-002
3.014193e+003, 1.704617e-002
3.016122e+003, 1.749575e-002
3.018050e+003, 1.762348e-002
3.019979e+003, 1.744906e-002
3.021907e+003, 1.767828e-002
3.023836e+003, 1.764031e-002
3.025764e+003, 1.767625e-002
3.027693e+003, 1.753928e-002
3.029621e+003, 1.747303e-002
3.031550e+003, 1.779801e-002
3.033478e+003, 1.813570e-002
3.035406e+003, 1.835546e-002
3.037335e+003, 1.842040e-002
3.039263e+003, 1.826279e-002
3.041192e+003, 1.784288e-002
3.043120e+003, 1.770243e-002
3.045049e+003, 1.828835e-002
3.046977e+003, 1.859078e-002
3.048906e+003, 1.860603e-002
3.050834e+003, 1.856326e-002
3.052763e+003, 1.847047e-002
3.054691e+003, 1.825923e-002
3.056620e+003, 1.849483e-002
3.058548e+003, 1.883323e-002
3.060477e+003, 1.884963e-002
3.062405e+003, 1.897112e-002
3.064333e+003, 1.921523e-002
3.066262e+003, 1.934051e-002
3.068190e+003, 1.935174e-002
3.070119e+003, 1.942676e-002
3.072047e+003, 1.945590e-002
3.073976e+003, 1.929502e-002
3.075904e+003, 1.938116e-002
3.077833e+003, 1.927370e-002
3.079761e+003, 1.953986e-002
3.081690e+003, 1.981861e-002
3.083618e+003, 1.970700e-002
3.085547e+003, 1.937750e-002
3.087475e+003, 1.939771e-002
3.089404e+003, 1.966108e-002
3.091332e+003, 1.999976e-002
3.093260e+003, 1.970944e-002
3.095189e+003, 1.961027e-002
3.097117e+003, 1.985190e-002
3.099046e+003, 2.011783e-002
3.100974e+003, 2.024998e-002
3.102903e+003, 2.045484e-002
3.104831e+003, 2.029480e-002
3.106760e+003, 2.008745e-002
3.108688e+003, 2.026407e-002
3.110617e+003, 2.047900e-002
3.112545e+003, 2.050552e-002
3.114474e+003, 2.017032e-002
3.116402e+003, 1.960627e-002
3.118331e+003, 1.920354e-002
3.120259e+003, 1.981653e-002
3.122188e+003, 2.055109e-002
3.124116e+003, 2.068948e-002
3.126044e+003, 2.017104e-002
3.127973e+003, 2.000403e-002
3.129901e+003, 2.050268e-002
3.131830e+003, 2.137617e-002
3.133758e+003, 2.174146e-002
3.135687e+003, 2.140999e-002
3.137615e+003, 2.135461e-002
3.139544e+003, 2.145767e-002
3.141472e+003, 2.121963e-002
3.143401e+003, 2.096610e-002
3.145329e+003, 2.118069e-002
3.147258e+003, 2.148560e-002
3.149186e+003, 2.144958e-002
3.151115e+003, 2.123545e-002
3.153043e+003, 2.124908e-002
3.154971e+003, 2.142538e-002
3.156900e+003, 2.164908e-002
3.158828e+003, 2.134229e-002
3.160757e+003, 2.100370e-002
3.162685e+003, 2.131183e-002
3.164614e+003, 2.185016e-002
3.166542e+003, 2.225860e-002
3.168471e+003, 2.235613e-002
3.170399e+003, 2.237657e-002
3.172328e+003, 2.245674e-002
3.174256e+003, 2.251508e-002
3.176185e+003, 2.241687e-002
3.178113e+003, 2.257519e-002
3.180042e+003, 2.263602e-002
3.181970e+003, 2.259798e-002
3.183898e+003, 2.269253e-002
3.185827e+003, 2.280629e-002
3.187755e+003, 2.306580e-002
3.189684e+003, 2.295123e-002
3.191612e+003, 2.276793e-002
3.193541e+003, 2.329263e-002
3.195469e+003, 2.319859e-002
3.197398e+003, 2.310498e-002
3.199326e+003, 2.330593e-002
3.201255e+003, 2.335709e-002
3.203183e+003, 2.351666e-002
3.205112e+003, 2.383392e-002
3.207040e+003, 2.370915e-002
3.208969e+003, 2.340861e-002
3.210897e+003, 2.333559e-002
3.212825e+003, 2.363390e-002
3.214754e+003, 2.379131e-002
3.216682e+003, 2.370617e-002
3.218611e+003, 2.361257e-002
3.220539e+003, 2.367892e-002
3.222468e+003, 2.393149e-002
3.224396e+003, 2.444996e-002
3.226325e+003, 2.449450e-002
3.228253e+003, 2.399828e-002
3.230182e+003, 2.357925e-002
3.232110e+003, 2.379144e-002
3.234039e+003, 2.444260e-002
3.235967e+003, 2.433946e-002
3.237896e+003, 2.421970e-002
3.239824e+003, 2.454957e-002
3.241752e+003, 2.418616e-002
3.243681e+003, 2.396811e-002
3.245609e+003, 2.457372e-002
3.247538e+003, 2.444280e-002
3.249466e+003, 2.456380e-002
3.251395e+003, 2.457246e-002
3.253323e+003, 2.441264e-002
3.255252e+003, 2.486076e-002
3.257180e+003, 2.494557e-002
3.259109e+003, 2.501244e-002
3.261037e+003, 2.540000e-002
3.262966e+003, 2.516694e-002
3.264894e+003, 2.523610e-002
3.266823e+003, 2.472739e-002
3.268751e+003, 2.459640e-002
3.270679e+003, 2.508304e-002
3.272608e+003, 2.499298e-002
3.274536e+003, 2.517611e-002
3.276465e+003, 2.527449e-002
3.278393e+003, 2.505928e-002
3.280322e+003, 2.545006e-002
3.282250e+003, 2.537214e-002
3.284179e+003, 2.495111e-002
3.286107e+003, 2.505452e-002
3.288036e+003, 2.532936e-002
3.289964e+003, 2.529351e-002
3.291893e+003, 2.535230e-002
3.293821e+003, 2.550125e-002
3.295750e+003, 2.570739e-002
3.297678e+003, 2.612754e-002
3.299606e+003, 2.622143e-002
3.301535e+003, 2.596393e-002
3.303463e+003, 2.594900e-002
3.305392e+003, 2.612608e-002
3.307320e+003, 2.614412e-002
3.309249e+003, 2.584239e-002
3.311177e+003, 2.618846e-002
3.313106e+003, 2.651800e-002
3.315034e+003, 2.646586e-002
3.316963e+003, 2.656656e-002
3.318891e+003, 2.641634e-002
3.320820e+003, 2.647641e-002
3.322748e+003, 2.643146e-002
3.324677e+003, 2.659748e-002
3.326605e+003, 2.698616e-002
3.328533e+003, 2.695247e-002
3.330462e+003, 2.676000e-002
3.332390e+003, 2.627044e-002
3.334319e+003, 2.596539e-002
3.336247e+003, 2.633124e-002
3.338176e+003, 2.675731e-002
3.340104e+003, 2.694458e-002
3.342033e+003, 2.711266e-002
3.343961e+003, 2.684081e-002
3.345890e+003, 2.698571e-002
3.347818e+003, 2.721080e-002
3.349747e+003, 2.757233e-002
3.351675e+003, 2.773931e-002
3.353604e+003, 2.800887e-002
3.355532e+003, 2.817143e-002
3.357460e+003, 2.789094e-002
3.359389e+003, 2.698517e-002
3.361317e+003, 2.695199e-002
3.363246e+003, 2.758135e-002
3.365174e+003, 2.741912e-002
3.367103e+003, 2.716851e-002
3.369031e+003, 2.765735e-002
3.370960e+003, 2.821122e-002
3.372888e+003, 2.800475e-002
3.374817e+003, 2.756423e-002
3.376745e+003, 2.758032e-002
3.378674e+003, 2.850952e-002
3.380602e+003, 2.880176e-002
3.382531e+003, 2.782391e-002
3.384459e+003, 2.733963e-002
3.386387e+003, 2.719907e-002
3.388316e+003, 2.757645e-002
3.390244e+003, 2.801558e-002
3.392173e+003, 2.776119e-002
3.394101e+003, 2.758664e-002
3.396030e+003, 2.759658e-002
3.397958e+003, 2.762659e-002
3.399887e+003, 2.782604e-002
3.401815e+003, 2.771767e-002
3.403744e+003, 2.746106e-002
3.405672e+003, 2.801196e-002
3.407601e+003, 2.788860e-002
3.409529e+003, 2.717827e-002
3.411458e+003, 2.711904e-002
3.413386e+003, 2.773796e-002
3.415314e+003, 2.809220e-002
3.417243e+003, 2.749003e-002
3.419171e+003, 2.688778e-002
3.421100e+003, 2.747198e-002
3.423028e+003, 2.769545e-002
3.424957e+003, 2.821488e-002
3.426885e+003, 2.867381e-002
3.428814e+003, 2.795004e-002
3.430742e+003, 2.725521e-002
3.432671e+003, 2.732463e-002
3.434599e+003, 2.730427e-002
3.436528e+003, 2.717639e-002
3.438456e+003, 2.672449e-002
3.440385e+003, 2.733355e-002
3.442313e+003, 2.811168e-002
3.444241e+003, 2.802114e-002
3.446170e+003, 2.756327e-002
3.448098e+003, 2.801155e-002
3.450027e+003, 2.873041e-002
3.451955e+003, 2.887040e-002
3.453884e+003, 2.844525e-002
3.455812e+003, 2.750907e-002
3.457741e+003, 2.714208e-002
3.459669e+003, 2.763107e-002
3.461598e+003, 2.808990e-002
3.463526e+003, 2.793589e-002
3.465455e+003, 2.784816e-002
3.467383e+003, 2.796513e-002
3.469312e+003, 2.746562e-002
3.471240e+003, 2.729348e-002
3.473168e+003, 2.758019e-002
3.475097e+003, 2.753710e-002
3.477025e+003, 2.793610e-002
3.478954e+003, 2.859052e-002
3.480882e+003, 2.870498e-002
3.482811e+003, 2.831012e-002
3.484739e+003, 2.799443e-002
3.486668e+003, 2.761150e-002
3.488596e+003, 2.779699e-002
3.490525e+003, 2.754534e-002
3.492453e+003, 2.727659e-002
3.494382e+003, 2.767470e-002
3.496310e+003, 2.827916e-002
3.498239e+003, 2.829594e-002
3.500167e+003, 2.800626e-002
3.502095e+003, 2.775222e-002
3.504024e+003, 2.791342e-002
3.505952e+003, 2.797374e-002
3.507881e+003, 2.810006e-002
3.509809e+003, 2.839794e-002
3.511738e+003, 2.840430e-002
3.513666e+003, 2.832691e-002
3.515595e+003, 2.830840e-002
3.517523e+003, 2.869513e-002
3.519452e+003, 2.837426e-002
3.521380e+003, 2.761015e-002
3.523309e+003, 2.809190e-002
3.525237e+003, 2.831489e-002
3.527166e+003, 2.773619e-002
3.529094e+003, 2.774064e-002
3.531022e+003, 2.757544e-002
3.532951e+003, 2.712325e-002
3.534879e+003, 2.761808e-002
3.536808e+003, 2.741565e-002
3.538736e+003, 2.747500e-002
3.540665e+003, 2.793027e-002
3.542593e+003, 2.808904e-002
3.544522e+003, 2.793845e-002
3.546450e+003, 2.800797e-002
3.548379e+003, 2.841226e-002
3.550307e+003, 2.823934e-002
3.552236e+003, 2.778988e-002
3.554164e+003, 2.758447e-002
3.556093e+003, 2.795286e-002
3.558021e+003, 2.743847e-002
3.559949e+003, 2.673766e-002
3.561878e+003, 2.647455e-002
3.563806e+003, 2.594243e-002
3.565735e+003, 2.626298e-002
3.567663e+003, 2.680847e-002
3.569592e+003, 2.672368e-002
3.571520e+003, 2.611206e-002
3.573449e+003, 2.548437e-002
3.575377e+003, 2.491970e-002
3.577306e+003, 2.421279e-002
3.579234e+003, 2.419885e-002
3.581163e+003, 2.433796e-002
3.583091e+003, 2.477743e-002
3.585020e+003, 2.506500e-002
3.586948e+003, 2.504696e-002
3.588876e+003, 2.483411e-002
3.590805e+003, 2.361874e-002
3.592733e+003, 2.267235e-002
3.594662e+003, 2.238798e-002
3.596590e+003, 2.213635e-002
3.598519e+003, 2.216406e-002
3.600447e+003, 2.163758e-002
3.602376e+003, 2.126944e-002
3.604304e+003, 2.087218e-002
3.606233e+003, 2.073744e-002
3.608161e+003, 2.050274e-002
3.610090e+003, 1.965056e-002
3.612018e+003, 1.949055e-002
3.613947e+003, 1.999740e-002
3.615875e+003, 2.008853e-002
3.617803e+003, 2.004205e-002
3.619732e+003, 2.021419e-002
3.621660e+003, 2.007716e-002
3.623589e+003, 2.005635e-002
3.625517e+003, 1.968479e-002
3.627446e+003, 1.955871e-002
3.629374e+003, 1.988498e-002
3.631303e+003, 1.985144e-002
3.633231e+003, 1.959539e-002
3.635160e+003, 1.855016e-002
3.637088e+003, 1.848330e-002
3.639017e+003, 1.934217e-002
3.640945e+003, 1.887682e-002
3.642874e+003, 1.836189e-002
3.644802e+003, 1.783449e-002
3.646730e+003, 1.832840e-002
3.648659e+003, 1.860632e-002
3.650587e+003, 1.793681e-002
3.652516e+003, 1.723555e-002
3.654444e+003, 1.730683e-002
3.656373e+003, 1.741419e-002
3.658301e+003, 1.713823e-002
3.660230e+003, 1.683836e-002
3.662158e+003, 1.675059e-002
3.664087e+003, 1.698604e-002
3.666015e+003, 1.724460e-002
3.667944e+003, 1.808514e-002
3.669872e+003, 1.890091e-002
3.671801e+003, 1.806109e-002
3.673729e+003, 1.756196e-002
3.675657e+003, 1.786082e-002
3.677586e+003, 1.718090e-002
3.679514e+003, 1.724870e-002
3.681443e+003, 1.776991e-002
3.683371e+003, 1.736831e-002
3.685300e+003, 1.689754e-002
3.687228e+003, 1.775707e-002
3.689157e+003, 1.821755e-002
3.691085e+003, 1.771727e-002
3.693014e+003, 1.726448e-002
3.694942e+003, 1.739057e-002
3.696871e+003, 1.771309e-002
3.698799e+003, 1.743004e-002
3.700728e+003, 1.714773e-002
3.702656e+003, 1.700539e-002
3.704584e+003, 1.772870e-002
3.706513e+003, 1.837990e-002
3.708441e+003, 1.806250e-002
3.710370e+003, 1.790183e-002
3.712298e+003, 1.842551e-002
3.714227e+003, 1.795951e-002
3.716155e+003, 1.745930e-002
3.718084e+003, 1.713426e-002
3.720012e+003, 1.698134e-002
3.721941e+003, 1.758110e-002
3.723869e+003, 1.747820e-002
3.725798e+003, 1.693052e-002
3.727726e+003, 1.726271e-002
3.729655e+003, 1.824743e-002
3.731583e+003, 1.919459e-002
3.733511e+003, 1.910036e-002
3.735440e+003, 1.884813e-002
3.737368e+003, 1.785717e-002
3.739297e+003, 1.688320e-002
3.741225e+003, 1.701829e-002
3.743154e+003, 1.732425e-002
3.745082e+003, 1.786944e-002
3.747011e+003, 1.849747e-002
3.748939e+003, 1.889613e-002
3.750868e+003, 1.866510e-002
3.752796e+003, 1.779800e-002
3.754725e+003, 1.671629e-002
3.756653e+003, 1.627951e-002
3.758582e+003, 1.756459e-002
3.760510e+003, 1.823232e-002
3.762438e+003, 1.774669e-002
3.764367e+003, 1.794607e-002
3.766295e+003, 1.801393e-002
3.768224e+003, 1.802555e-002
3.770152e+003, 1.795003e-002
3.772081e+003, 1.793255e-002
3.774009e+003, 1.788457e-002
3.775938e+003, 1.714573e-002
3.777866e+003, 1.679668e-002
3.779795e+003, 1.735840e-002
3.781723e+003, 1.766374e-002
3.783652e+003, 1.774625e-002
3.785580e+003, 1.790707e-002
3.787509e+003, 1.777601e-002
3.789437e+003, 1.753212e-002
3.791365e+003, 1.787983e-002
3.793294e+003, 1.837068e-002
3.795222e+003, 1.787844e-002
3.797151e+003, 1.766801e-002
3.799079e+003, 1.766808e-002
3.801008e+003, 1.810407e-002
3.802936e+003, 1.796395e-002
3.804865e+003, 1.810956e-002
3.806793e+003, 1.855429e-002
3.808722e+003, 1.795926e-002
3.810650e+003, 1.775648e-002
3.812579e+003, 1.756309e-002
3.814507e+003, 1.831213e-002
3.816436e+003, 1.856088e-002
3.818364e+003, 1.776033e-002
3.820292e+003, 1.817736e-002
3.822221e+003, 1.865664e-002
3.824149e+003, 1.774817e-002
3.826078e+003, 1.694789e-002
3.828006e+003, 1.728257e-002
3.829935e+003, 1.819258e-002
3.831863e+003, 1.886588e-002
3.833792e+003, 1.858556e-002
3.835720e+003, 1.880685e-002
3.837649e+003, 1.917823e-002
3.839577e+003, 1.783083e-002
3.841506e+003, 1.699244e-002
3.843434e+003, 1.729355e-002
3.845363e+003, 1.750384e-002
3.847291e+003, 1.779991e-002
3.849219e+003, 1.705336e-002
3.851148e+003, 1.707802e-002
3.853076e+003, 1.837956e-002
3.855005e+003, 1.859656e-002
3.856933e+003, 1.766086e-002
3.858862e+003, 1.768675e-002
3.860790e+003, 1.744907e-002
3.862719e+003, 1.759488e-002
3.864647e+003, 1.877373e-002
3.866576e+003, 1.878271e-002
3.868504e+003, 1.849151e-002
3.870433e+003, 1.843188e-002
3.872361e+003, 1.811212e-002
3.874290e+003, 1.800981e-002
3.876218e+003, 1.810667e-002
3.878146e+003, 1.769112e-002
3.880075e+003, 1.772408e-002
3.882003e+003, 1.778008e-002
3.883932e+003, 1.770893e-002
3.885860e+003, 1.811800e-002
3.887789e+003, 1.833221e-002
3.889717e+003, 1.822639e-002
3.891646e+003, 1.859222e-002
3.893574e+003, 1.842914e-002
3.895503e+003, 1.757961e-002
3.897431e+003, 1.739063e-002
3.899360e+003, 1.776961e-002
3.901288e+003, 1.800898e-002
3.903217e+003, 1.809069e-002
3.905145e+003, 1.832118e-002
3.907073e+003, 1.827134e-002
3.909002e+003, 1.822511e-002
3.910930e+003, 1.811819e-002
3.912859e+003, 1.849486e-002
3.914787e+003, 1.794347e-002
3.916716e+003, 1.779874e-002
3.918644e+003, 1.776643e-002
3.920573e+003, 1.734887e-002
3.922501e+003, 1.775096e-002
3.924430e+003, 1.830006e-002
3.926358e+003, 1.871939e-002
3.928287e+003, 1.876622e-002
3.930215e+003, 1.834955e-002
3.932144e+003, 1.813850e-002
3.934072e+003, 1.782677e-002
3.936000e+003, 1.736313e-002
3.937929e+003, 1.738758e-002
3.939857e+003, 1.739386e-002
3.941786e+003, 1.749922e-002
3.943714e+003, 1.819135e-002
3.945643e+003, 1.874855e-002
3.947571e+003, 1.850727e-002
3.949500e+003, 1.821500e-002
3.951428e+003, 1.780619e-002
3.953357e+003, 1.720006e-002
3.955285e+003, 1.709845e-002
3.957214e+003, 1.811991e-002
3.959142e+003, 1.858525e-002
3.961071e+003, 1.859855e-002
3.962999e+003, 1.937832e-002
3.964927e+003, 1.898921e-002
3.966856e+003, 1.839056e-002
3.968784e+003, 1.890690e-002
3.970713e+003, 1.838477e-002
3.972641e+003, 1.763487e-002
3.974570e+003, 1.751984e-002
3.976498e+003, 1.765718e-002
3.978427e+003, 1.780519e-002
3.980355e+003, 1.772467e-002
3.982284e+003, 1.782778e-002
3.984212e+003, 1.820365e-002
3.986141e+003, 1.831684e-002
3.988069e+003, 1.848743e-002
3.989998e+003, 1.886187e-002
3.991926e+003, 1.847430e-002
3.993854e+003, 1.801823e-002
3.995783e+003, 1.844812e-002
3.997711e+003, 1.871476e-002
3.999640e+003, 1.872057e-002
##END=



