##NAMES=Spinel
##RRUFFID=R050184
##IDEAL CHEMISTRY=MgAl_2_O_4_
##LOCALITY=Pein Pyit, Mogok, Burma
##OWNER=RRUFF
##SOURCE=Marcus Origlieri
##DESCRIPTION=Red crystal in calcite, associated with yellowish-green clinohumite, R050183
##STATUS=The identification of this mineral has been confirmed by X-ray diffraction and chemical analysis
##URL=rruff.info/R050184
##MEASURED CHEMISTRY=Mg_1.00_(Al_1.99_Cr_0.01_)_Î£=2_O_4_; trace amounts of V
3.721941e+002, 0.000000e+000
3.741225e+002, 3.122877e-001
3.760510e+002, 3.015880e-001
3.779795e+002, 3.173421e-001
3.799079e+002, 3.282614e-001
3.818364e+002, 3.307959e-001
3.837649e+002, 3.339759e-001
3.856933e+002, 3.311839e-001
3.876218e+002, 3.296894e-001
3.895503e+002, 3.456669e-001
3.914787e+002, 3.317842e-001
3.934072e+002, 3.250799e-001
3.953357e+002, 3.267125e-001
3.972641e+002, 3.153377e-001
3.991926e+002, 3.238221e-001
4.011211e+002, 3.268818e-001
4.030495e+002, 3.287376e-001
4.049780e+002, 3.381158e-001
4.069065e+002, 3.372228e-001
4.088349e+002, 3.362272e-001
4.107634e+002, 3.346549e-001
4.126919e+002, 3.397277e-001
4.146203e+002, 3.410339e-001
4.165488e+002, 3.418756e-001
4.184773e+002, 3.409637e-001
4.204057e+002, 3.403802e-001
4.223342e+002, 3.415049e-001
4.242627e+002, 3.416671e-001
4.261911e+002, 3.387932e-001
4.281196e+002, 3.387548e-001
4.300481e+002, 3.397734e-001
4.319765e+002, 3.418026e-001
4.339050e+002, 3.470141e-001
4.358335e+002, 3.502602e-001
4.377619e+002, 3.460777e-001
4.396904e+002, 3.436297e-001
4.416189e+002, 3.455589e-001
4.435473e+002, 3.488677e-001
4.454758e+002, 3.464600e-001
4.474043e+002, 3.440873e-001
4.493327e+002, 3.432637e-001
4.512612e+002, 3.434469e-001
4.531897e+002, 3.429724e-001
4.551181e+002, 3.438107e-001
4.570466e+002, 3.425626e-001
4.589751e+002, 3.395061e-001
4.609035e+002, 3.349236e-001
4.628320e+002, 3.323399e-001
4.647605e+002, 3.290589e-001
4.666889e+002, 3.276021e-001
4.686174e+002, 3.260321e-001
4.705459e+002, 3.203796e-001
4.724743e+002, 3.142295e-001
4.744028e+002, 3.117425e-001
4.763313e+002, 3.110720e-001
4.782597e+002, 3.114849e-001
4.801882e+002, 3.121049e-001
4.821167e+002, 3.111537e-001
4.840451e+002, 3.097353e-001
4.859736e+002, 3.095201e-001
4.879021e+002, 3.093950e-001
4.898305e+002, 3.096031e-001
4.917590e+002, 3.097382e-001
4.936875e+002, 3.076015e-001
4.956159e+002, 3.058041e-001
4.975444e+002, 3.045400e-001
4.994729e+002, 3.018978e-001
5.014013e+002, 2.988619e-001
5.033298e+002, 2.968145e-001
5.052583e+002, 2.951045e-001
5.071867e+002, 2.922860e-001
5.091152e+002, 2.895879e-001
5.110437e+002, 2.863087e-001
5.129721e+002, 2.819343e-001
5.149006e+002, 2.780125e-001
5.168290e+002, 2.752470e-001
5.187575e+002, 2.702527e-001
5.206860e+002, 2.660263e-001
5.226144e+002, 2.622508e-001
5.245429e+002, 2.578416e-001
5.264714e+002, 2.533486e-001
5.283998e+002, 2.486961e-001
5.303283e+002, 2.446691e-001
5.322568e+002, 2.402562e-001
5.341852e+002, 2.352534e-001
5.361137e+002, 2.306050e-001
5.380422e+002, 2.257978e-001
5.399706e+002, 2.211832e-001
5.418991e+002, 2.169762e-001
5.438276e+002, 2.123952e-001
5.457560e+002, 2.077118e-001
5.476845e+002, 2.029725e-001
5.496130e+002, 1.992779e-001
5.515414e+002, 1.965089e-001
5.534699e+002, 1.927880e-001
5.553984e+002, 1.886715e-001
5.573268e+002, 1.853044e-001
5.592553e+002, 1.817869e-001
5.611838e+002, 1.780039e-001
5.631122e+002, 1.745078e-001
5.650407e+002, 1.716983e-001
5.669692e+002, 1.696956e-001
5.688976e+002, 1.689680e-001
5.708261e+002, 1.708550e-001
5.727546e+002, 1.748400e-001
5.746830e+002, 1.786788e-001
5.766115e+002, 1.798407e-001
5.785400e+002, 1.779747e-001
5.804684e+002, 1.736687e-001
5.823969e+002, 1.676705e-001
5.843254e+002, 1.613878e-001
5.862538e+002, 1.550100e-001
5.881823e+002, 1.485381e-001
5.901108e+002, 1.425105e-001
5.920392e+002, 1.365320e-001
5.939677e+002, 1.307080e-001
5.958962e+002, 1.259932e-001
5.978246e+002, 1.220772e-001
5.997531e+002, 1.182743e-001
6.016816e+002, 1.145579e-001
6.036100e+002, 1.110511e-001
6.055385e+002, 1.079919e-001
6.074670e+002, 1.051675e-001
6.093954e+002, 1.029812e-001
6.113239e+002, 1.014547e-001
6.132524e+002, 1.006580e-001
6.151808e+002, 1.009469e-001
6.171093e+002, 1.022381e-001
6.190378e+002, 1.050830e-001
6.209662e+002, 1.090691e-001
6.228947e+002, 1.145113e-001
6.248232e+002, 1.216435e-001
6.267516e+002, 1.303666e-001
6.286801e+002, 1.409104e-001
6.306086e+002, 1.539836e-001
6.325370e+002, 1.692484e-001
6.344655e+002, 1.861281e-001
6.363940e+002, 2.038162e-001
6.383224e+002, 2.210221e-001
6.402509e+002, 2.373812e-001
6.421794e+002, 2.528890e-001
6.441078e+002, 2.672502e-001
6.460363e+002, 2.803687e-001
6.479648e+002, 2.920566e-001
6.498932e+002, 3.018523e-001
6.518217e+002, 3.093429e-001
6.537502e+002, 3.146178e-001
6.556786e+002, 3.175192e-001
6.576071e+002, 3.186550e-001
6.595356e+002, 3.181964e-001
6.614641e+002, 3.167298e-001
6.633925e+002, 3.145173e-001
6.653210e+002, 3.118801e-001
6.672495e+002, 3.080076e-001
6.691779e+002, 3.034531e-001
6.711064e+002, 2.992332e-001
6.730349e+002, 2.948901e-001
6.749633e+002, 2.897153e-001
6.768918e+002, 2.842177e-001
6.788203e+002, 2.790012e-001
6.807487e+002, 2.735461e-001
6.826772e+002, 2.674589e-001
6.846057e+002, 2.609716e-001
6.865341e+002, 2.543206e-001
6.884626e+002, 2.478171e-001
6.903911e+002, 2.411617e-001
6.923195e+002, 2.343386e-001
6.942480e+002, 2.279875e-001
6.961765e+002, 2.216063e-001
6.981049e+002, 2.152446e-001
7.000334e+002, 2.094020e-001
7.019619e+002, 2.039215e-001
7.038903e+002, 1.989265e-001
7.058188e+002, 1.942097e-001
7.077473e+002, 1.895644e-001
7.096757e+002, 1.851131e-001
7.116042e+002, 1.810052e-001
7.135327e+002, 1.773525e-001
7.154611e+002, 1.735757e-001
7.173896e+002, 1.696953e-001
7.193181e+002, 1.659606e-001
7.212465e+002, 1.621107e-001
7.231750e+002, 1.586788e-001
7.251035e+002, 1.552479e-001
7.270319e+002, 1.516195e-001
7.289604e+002, 1.480849e-001
7.308889e+002, 1.448551e-001
7.328173e+002, 1.417945e-001
7.347458e+002, 1.386247e-001
7.366743e+002, 1.353896e-001
7.386027e+002, 1.322242e-001
7.405312e+002, 1.293751e-001
7.424597e+002, 1.267700e-001
7.443881e+002, 1.240395e-001
7.463166e+002, 1.212755e-001
7.482451e+002, 1.186445e-001
7.501735e+002, 1.160022e-001
7.521020e+002, 1.133798e-001
7.540305e+002, 1.109750e-001
7.559589e+002, 1.086083e-001
7.578874e+002, 1.063034e-001
7.598159e+002, 1.041465e-001
7.617443e+002, 1.020194e-001
7.636728e+002, 9.996931e-002
7.656013e+002, 9.804247e-002
7.675297e+002, 9.612861e-002
7.694582e+002, 9.427548e-002
7.713867e+002, 9.236152e-002
7.733151e+002, 9.032635e-002
7.752436e+002, 8.863112e-002
7.771721e+002, 8.703554e-002
7.791005e+002, 8.536938e-002
7.810290e+002, 8.382046e-002
7.829575e+002, 8.232849e-002
7.848859e+002, 8.099326e-002
7.868144e+002, 7.977510e-002
7.887429e+002, 7.848085e-002
7.906713e+002, 7.718546e-002
7.925998e+002, 7.596875e-002
7.945283e+002, 7.480911e-002
7.964567e+002, 7.365495e-002
7.983852e+002, 7.239645e-002
8.003137e+002, 7.115205e-002
8.022421e+002, 6.988685e-002
8.041706e+002, 6.860475e-002
8.060991e+002, 6.739078e-002
8.080275e+002, 6.621694e-002
8.099560e+002, 6.504600e-002
8.118845e+002, 6.377146e-002
8.138129e+002, 6.266471e-002
8.157414e+002, 6.143128e-002
8.176699e+002, 6.006992e-002
8.195983e+002, 5.852911e-002
8.215268e+002, 5.698323e-002
8.234553e+002, 5.531242e-002
8.253837e+002, 5.351959e-002
8.273122e+002, 5.178529e-002
8.292407e+002, 4.999686e-002
8.311691e+002, 4.817043e-002
8.330976e+002, 4.643540e-002
8.350261e+002, 4.471287e-002
8.369545e+002, 4.294243e-002
8.388830e+002, 4.125747e-002
8.408115e+002, 3.962903e-002
8.427399e+002, 3.797249e-002
8.446684e+002, 3.628277e-002
8.465969e+002, 3.476326e-002
8.485253e+002, 3.316557e-002
8.504538e+002, 3.166550e-002
8.523823e+002, 3.034759e-002
8.543107e+002, 2.907197e-002
8.562392e+002, 2.794352e-002
8.581677e+002, 2.687289e-002
8.600961e+002, 2.571671e-002
8.620246e+002, 2.466317e-002
8.639531e+002, 2.373282e-002
8.658815e+002, 2.272688e-002
8.678100e+002, 2.173877e-002
8.697385e+002, 2.101341e-002
8.716669e+002, 2.045740e-002
8.735954e+002, 1.993297e-002
8.755239e+002, 1.928728e-002
8.774523e+002, 1.879497e-002
8.793808e+002, 1.849513e-002
8.813093e+002, 1.777687e-002
8.832377e+002, 1.697837e-002
8.851662e+002, 1.624444e-002
8.870947e+002, 1.560180e-002
8.890231e+002, 1.512214e-002
8.909516e+002, 1.475099e-002
8.928801e+002, 1.436374e-002
8.948085e+002, 1.395421e-002
8.967370e+002, 1.365940e-002
8.986655e+002, 1.337126e-002
9.005939e+002, 1.305856e-002
9.025224e+002, 1.275808e-002
9.044509e+002, 1.241113e-002
9.063793e+002, 1.205243e-002
9.083078e+002, 1.185130e-002
9.102363e+002, 1.165841e-002
9.121647e+002, 1.140999e-002
9.140932e+002, 1.117219e-002
9.160217e+002, 1.092994e-002
9.179501e+002, 1.075829e-002
9.198786e+002, 1.045628e-002
9.218071e+002, 1.014408e-002
9.237355e+002, 9.957317e-003
9.256640e+002, 9.814704e-003
9.275925e+002, 9.583655e-003
9.295209e+002, 9.251175e-003
9.314494e+002, 8.981500e-003
9.333779e+002, 8.889058e-003
9.353063e+002, 8.867448e-003
9.372348e+002, 8.777894e-003
9.391633e+002, 8.594573e-003
9.410917e+002, 8.479444e-003
9.430202e+002, 8.524225e-003
9.449487e+002, 8.434927e-003
9.468771e+002, 8.294510e-003
9.488056e+002, 8.181860e-003
9.507341e+002, 8.027543e-003
9.526625e+002, 7.878169e-003
9.545910e+002, 7.739019e-003
9.565195e+002, 7.634518e-003
9.584479e+002, 7.696264e-003
9.603764e+002, 7.610465e-003
9.623049e+002, 7.449299e-003
9.642333e+002, 7.320109e-003
9.661618e+002, 7.320416e-003
9.680903e+002, 7.345831e-003
9.700187e+002, 7.307057e-003
9.719472e+002, 7.145656e-003
9.738757e+002, 6.916286e-003
9.758041e+002, 6.896000e-003
9.777326e+002, 6.897511e-003
9.796611e+002, 6.845896e-003
9.815895e+002, 6.803816e-003
9.835180e+002, 6.705577e-003
9.854465e+002, 6.675343e-003
9.873749e+002, 6.813867e-003
9.893034e+002, 6.861348e-003
9.912319e+002, 6.756968e-003
9.931603e+002, 6.762726e-003
9.950888e+002, 6.841742e-003
9.970173e+002, 6.821373e-003
9.989457e+002, 6.790017e-003
1.000874e+003, 6.771395e-003
1.002803e+003, 6.700450e-003
1.004731e+003, 6.651270e-003
1.006660e+003, 6.593158e-003
1.008588e+003, 6.614847e-003
1.010517e+003, 6.593811e-003
1.012445e+003, 6.482795e-003
1.014373e+003, 6.429896e-003
1.016302e+003, 6.432553e-003
1.018230e+003, 6.408815e-003
1.020159e+003, 6.389128e-003
1.022087e+003, 6.250744e-003
1.024016e+003, 6.054882e-003
1.025944e+003, 5.941282e-003
1.027873e+003, 5.973367e-003
1.029801e+003, 6.072003e-003
1.031730e+003, 6.079216e-003
1.033658e+003, 5.839088e-003
1.035587e+003, 5.714638e-003
1.037515e+003, 5.719222e-003
1.039443e+003, 5.705924e-003
1.041372e+003, 5.737861e-003
1.043300e+003, 5.608049e-003
1.045229e+003, 5.389645e-003
1.047157e+003, 5.424202e-003
1.049086e+003, 5.526120e-003
1.051014e+003, 5.400308e-003
1.052943e+003, 5.274318e-003
1.054871e+003, 5.306891e-003
1.056800e+003, 5.146694e-003
1.058728e+003, 4.952750e-003
1.060657e+003, 4.930049e-003
1.062585e+003, 4.912786e-003
1.064514e+003, 4.835261e-003
1.066442e+003, 4.826560e-003
1.068370e+003, 4.891272e-003
1.070299e+003, 4.894080e-003
1.072227e+003, 4.722519e-003
1.074156e+003, 4.487165e-003
1.076084e+003, 4.417936e-003
1.078013e+003, 4.506162e-003
1.079941e+003, 4.545078e-003
1.081870e+003, 4.698144e-003
1.083798e+003, 4.701550e-003
1.085727e+003, 4.538152e-003
1.087655e+003, 4.325760e-003
1.089584e+003, 4.242280e-003
1.091512e+003, 4.261721e-003
1.093441e+003, 4.131852e-003
1.095369e+003, 4.096709e-003
1.097297e+003, 4.038795e-003
1.099226e+003, 3.982682e-003
1.101154e+003, 4.128761e-003
1.103083e+003, 4.087257e-003
1.105011e+003, 3.905815e-003
1.106940e+003, 3.824412e-003
1.108868e+003, 3.812632e-003
1.110797e+003, 3.807799e-003
1.112725e+003, 3.782043e-003
1.114654e+003, 3.720410e-003
1.116582e+003, 3.748881e-003
1.118511e+003, 3.773209e-003
1.120439e+003, 3.752515e-003
1.122368e+003, 3.789181e-003
1.124296e+003, 3.765433e-003
1.126224e+003, 3.735341e-003
1.128153e+003, 3.728478e-003
1.130081e+003, 3.736738e-003
1.132010e+003, 3.810205e-003
1.133938e+003, 3.781029e-003
1.135867e+003, 3.641315e-003
1.137795e+003, 3.521081e-003
1.139724e+003, 3.528798e-003
1.141652e+003, 3.526007e-003
1.143581e+003, 3.499831e-003
1.145509e+003, 3.540709e-003
1.147438e+003, 3.468333e-003
1.149366e+003, 3.402685e-003
1.151295e+003, 3.321753e-003
1.153223e+003, 3.202627e-003
1.155151e+003, 3.224354e-003
1.157080e+003, 3.276505e-003
1.159008e+003, 3.287493e-003
1.160937e+003, 3.231289e-003
1.162865e+003, 3.114365e-003
1.164794e+003, 3.078796e-003
1.166722e+003, 3.080392e-003
1.168651e+003, 3.002549e-003
1.170579e+003, 2.888986e-003
1.172508e+003, 2.835845e-003
1.174436e+003, 2.925705e-003
1.176365e+003, 2.970026e-003
1.178293e+003, 2.871156e-003
1.180222e+003, 2.810382e-003
1.182150e+003, 2.726366e-003
1.184078e+003, 2.714288e-003
1.186007e+003, 2.770502e-003
1.187935e+003, 2.728590e-003
1.189864e+003, 2.639571e-003
1.191792e+003, 2.680683e-003
1.193721e+003, 2.732773e-003
1.195649e+003, 2.690195e-003
1.197578e+003, 2.696009e-003
1.199506e+003, 2.640109e-003
1.201435e+003, 2.527975e-003
1.203363e+003, 2.600791e-003
1.205292e+003, 2.681984e-003
1.207220e+003, 2.619378e-003
1.209149e+003, 2.553547e-003
1.211077e+003, 2.548506e-003
1.213005e+003, 2.523123e-003
1.214934e+003, 2.477950e-003
1.216862e+003, 2.515184e-003
1.218791e+003, 2.632551e-003
1.220719e+003, 2.660497e-003
1.222648e+003, 2.686239e-003
1.224576e+003, 2.755892e-003
1.226505e+003, 2.751327e-003
1.228433e+003, 2.620695e-003
1.230362e+003, 2.527561e-003
1.232290e+003, 2.614645e-003
1.234219e+003, 2.644503e-003
1.236147e+003, 2.594635e-003
1.238076e+003, 2.579268e-003
1.240004e+003, 2.516740e-003
1.241932e+003, 2.473856e-003
1.243861e+003, 2.471528e-003
1.245789e+003, 2.468560e-003
1.247718e+003, 2.480106e-003
1.249646e+003, 2.546378e-003
1.251575e+003, 2.437991e-003
1.253503e+003, 2.352932e-003
1.255432e+003, 2.352750e-003
1.257360e+003, 2.301178e-003
1.259289e+003, 2.281285e-003
1.261217e+003, 2.387264e-003
1.263146e+003, 2.454266e-003
1.265074e+003, 2.482266e-003
1.267003e+003, 2.470952e-003
1.268931e+003, 2.506981e-003
1.270859e+003, 2.635296e-003
1.272788e+003, 2.614168e-003
1.274716e+003, 2.612994e-003
1.276645e+003, 2.674751e-003
1.278573e+003, 2.611451e-003
1.280502e+003, 2.631376e-003
1.282430e+003, 2.859482e-003
1.284359e+003, 2.820881e-003
1.286287e+003, 2.768704e-003
1.288216e+003, 2.852047e-003
1.290144e+003, 2.923218e-003
1.292073e+003, 2.969850e-003
1.294001e+003, 2.996309e-003
1.295930e+003, 2.923551e-003
1.297858e+003, 2.855802e-003
1.299786e+003, 2.820094e-003
1.301715e+003, 2.764376e-003
1.303643e+003, 2.769340e-003
1.305572e+003, 2.950869e-003
1.307500e+003, 2.925702e-003
1.309429e+003, 2.896002e-003
1.311357e+003, 3.011075e-003
1.313286e+003, 3.116432e-003
1.315214e+003, 3.105848e-003
1.317143e+003, 3.048491e-003
1.319071e+003, 2.868393e-003
1.321000e+003, 2.878349e-003
1.322928e+003, 3.042667e-003
1.324857e+003, 3.158367e-003
1.326785e+003, 3.243333e-003
1.328714e+003, 3.208068e-003
1.330642e+003, 3.214010e-003
1.332570e+003, 3.282785e-003
1.334499e+003, 3.338188e-003
1.336427e+003, 3.374857e-003
1.338356e+003, 3.491916e-003
1.340284e+003, 3.571652e-003
1.342213e+003, 3.553031e-003
1.344141e+003, 3.654887e-003
1.346070e+003, 3.767540e-003
1.347998e+003, 3.853590e-003
1.349927e+003, 3.894538e-003
1.351855e+003, 3.977979e-003
1.353784e+003, 4.065717e-003
1.355712e+003, 4.178763e-003
1.357641e+003, 4.145928e-003
1.359569e+003, 4.018003e-003
1.361497e+003, 3.990048e-003
1.363426e+003, 3.972868e-003
1.365354e+003, 4.116047e-003
1.367283e+003, 4.352373e-003
1.369211e+003, 4.436848e-003
1.371140e+003, 4.406299e-003
1.373068e+003, 4.415979e-003
1.374997e+003, 4.611586e-003
1.376925e+003, 4.787594e-003
1.378854e+003, 4.948877e-003
1.380782e+003, 5.021261e-003
1.382711e+003, 5.048417e-003
1.384639e+003, 5.106864e-003
1.386568e+003, 5.452080e-003
1.388496e+003, 5.721882e-003
1.390424e+003, 5.906126e-003
1.392353e+003, 6.173680e-003
1.394281e+003, 6.549420e-003
1.396210e+003, 6.770221e-003
1.398138e+003, 6.854999e-003
1.400067e+003, 7.220045e-003
1.401995e+003, 7.581105e-003
1.403924e+003, 7.934379e-003
1.405852e+003, 8.274860e-003
1.407781e+003, 8.528956e-003
1.409709e+003, 8.880914e-003
1.411638e+003, 9.178202e-003
1.413566e+003, 9.510221e-003
1.415495e+003, 9.815209e-003
1.417423e+003, 1.010094e-002
1.419351e+003, 1.047018e-002
1.421280e+003, 1.084351e-002
1.423208e+003, 1.104130e-002
1.425137e+003, 1.134240e-002
1.427065e+003, 1.147238e-002
1.428994e+003, 1.143078e-002
1.430922e+003, 1.154903e-002
1.432851e+003, 1.176544e-002
1.434779e+003, 1.185177e-002
1.436708e+003, 1.190458e-002
1.438636e+003, 1.199786e-002
1.440565e+003, 1.206470e-002
1.442493e+003, 1.210058e-002
1.444422e+003, 1.217961e-002
1.446350e+003, 1.216269e-002
1.448278e+003, 1.216888e-002
1.450207e+003, 1.226587e-002
1.452135e+003, 1.230402e-002
1.454064e+003, 1.219656e-002
1.455992e+003, 1.204932e-002
1.457921e+003, 1.220518e-002
1.459849e+003, 1.234481e-002
1.461778e+003, 1.211725e-002
1.463706e+003, 1.191700e-002
1.465635e+003, 1.180955e-002
1.467563e+003, 1.178086e-002
1.469492e+003, 1.181796e-002
1.471420e+003, 1.184494e-002
1.473349e+003, 1.188086e-002
1.475277e+003, 1.184104e-002
1.477205e+003, 1.172695e-002
1.479134e+003, 1.153500e-002
1.481062e+003, 1.149663e-002
1.482991e+003, 1.146393e-002
1.484919e+003, 1.125559e-002
1.486848e+003, 1.099003e-002
1.488776e+003, 1.062271e-002
1.490705e+003, 1.038114e-002
1.492633e+003, 1.025754e-002
1.494562e+003, 1.001898e-002
1.496490e+003, 9.757933e-003
1.498419e+003, 9.554078e-003
1.500347e+003, 9.344038e-003
1.502276e+003, 9.132644e-003
1.504204e+003, 8.905495e-003
1.506132e+003, 8.739115e-003
1.508061e+003, 8.648373e-003
1.509989e+003, 8.491850e-003
1.511918e+003, 8.365687e-003
1.513846e+003, 8.262975e-003
1.515775e+003, 8.086265e-003
1.517703e+003, 7.950205e-003
1.519632e+003, 7.848607e-003
1.521560e+003, 7.777197e-003
1.523489e+003, 7.813716e-003
1.525417e+003, 7.961250e-003
1.527346e+003, 7.931723e-003
1.529274e+003, 7.920150e-003
1.531203e+003, 7.918020e-003
1.533131e+003, 7.791160e-003
1.535059e+003, 7.718679e-003
1.536988e+003, 7.820087e-003
1.538916e+003, 7.882524e-003
1.540845e+003, 7.768843e-003
1.542773e+003, 7.649756e-003
1.544702e+003, 7.844680e-003
1.546630e+003, 7.995050e-003
1.548559e+003, 7.977447e-003
1.550487e+003, 8.006410e-003
1.552416e+003, 7.966710e-003
1.554344e+003, 7.940389e-003
1.556273e+003, 7.954467e-003
1.558201e+003, 7.992325e-003
1.560130e+003, 8.079167e-003
1.562058e+003, 8.246253e-003
1.563986e+003, 8.339264e-003
1.565915e+003, 8.305164e-003
1.567843e+003, 8.252764e-003
1.569772e+003, 8.331991e-003
1.571700e+003, 8.508835e-003
1.573629e+003, 8.456346e-003
1.575557e+003, 8.426012e-003
1.577486e+003, 8.565824e-003
1.579414e+003, 8.496125e-003
1.581343e+003, 8.430059e-003
1.583271e+003, 8.554266e-003
1.585200e+003, 8.580852e-003
1.587128e+003, 8.577713e-003
1.589057e+003, 8.622309e-003
1.590985e+003, 8.605870e-003
1.592913e+003, 8.617905e-003
1.594842e+003, 8.678475e-003
1.596770e+003, 8.680237e-003
1.598699e+003, 8.552776e-003
1.600627e+003, 8.400960e-003
1.602556e+003, 8.334982e-003
1.604484e+003, 8.351685e-003
1.606413e+003, 8.385263e-003
1.608341e+003, 8.236025e-003
1.610270e+003, 8.035866e-003
1.612198e+003, 7.940613e-003
1.614127e+003, 7.910517e-003
1.616055e+003, 7.810910e-003
1.617984e+003, 7.823700e-003
1.619912e+003, 7.893382e-003
1.621840e+003, 7.918647e-003
1.623769e+003, 7.771814e-003
1.625697e+003, 7.695760e-003
1.627626e+003, 7.722227e-003
1.629554e+003, 7.716365e-003
1.631483e+003, 7.674838e-003
1.633411e+003, 7.632484e-003
1.635340e+003, 7.549923e-003
1.637268e+003, 7.526916e-003
1.639197e+003, 7.488578e-003
1.641125e+003, 7.352603e-003
1.643054e+003, 7.416801e-003
1.644982e+003, 7.565738e-003
1.646911e+003, 7.533083e-003
1.648839e+003, 7.486695e-003
1.650767e+003, 7.250530e-003
1.652696e+003, 7.193009e-003
1.654624e+003, 7.228981e-003
1.656553e+003, 7.073812e-003
1.658481e+003, 6.994980e-003
1.660410e+003, 7.011225e-003
1.662338e+003, 7.075154e-003
1.664267e+003, 7.050786e-003
1.666195e+003, 6.898194e-003
1.668124e+003, 6.867731e-003
1.670052e+003, 6.954833e-003
1.671981e+003, 6.854865e-003
1.673909e+003, 6.651050e-003
1.675838e+003, 6.629294e-003
1.677766e+003, 6.774156e-003
1.679694e+003, 6.787390e-003
1.681623e+003, 6.766558e-003
1.683551e+003, 6.801963e-003
1.685480e+003, 6.903051e-003
1.687408e+003, 6.822625e-003
1.689337e+003, 6.765848e-003
1.691265e+003, 6.692359e-003
1.693194e+003, 6.454771e-003
1.695122e+003, 6.350565e-003
1.697051e+003, 6.453705e-003
1.698979e+003, 6.451100e-003
1.700908e+003, 6.383381e-003
1.702836e+003, 6.389935e-003
1.704765e+003, 6.250359e-003
1.706693e+003, 6.207075e-003
1.708621e+003, 6.244461e-003
1.710550e+003, 6.165036e-003
1.712478e+003, 6.035258e-003
1.714407e+003, 6.077733e-003
1.716335e+003, 5.985558e-003
1.718264e+003, 5.893575e-003
1.720192e+003, 5.881232e-003
1.722121e+003, 5.862004e-003
1.724049e+003, 5.838112e-003
1.725978e+003, 5.617417e-003
1.727906e+003, 5.423271e-003
1.729835e+003, 5.385968e-003
1.731763e+003, 5.319735e-003
1.733692e+003, 5.095385e-003
1.735620e+003, 4.980691e-003
1.737548e+003, 5.043080e-003
1.739477e+003, 4.897080e-003
1.741405e+003, 4.927772e-003
1.743334e+003, 4.997013e-003
1.745262e+003, 4.855049e-003
1.747191e+003, 4.720012e-003
1.749119e+003, 4.948259e-003
1.751048e+003, 5.221285e-003
1.752976e+003, 5.549171e-003
1.754905e+003, 5.610921e-003
1.756833e+003, 5.549125e-003
1.758762e+003, 5.800976e-003
1.760690e+003, 6.041743e-003
1.762619e+003, 6.179348e-003
1.764547e+003, 6.520138e-003
1.766475e+003, 6.436539e-003
1.768404e+003, 6.151963e-003
1.770332e+003, 6.310118e-003
1.772261e+003, 6.480655e-003
1.774189e+003, 6.324873e-003
1.776118e+003, 6.279891e-003
1.778046e+003, 6.424044e-003
1.779975e+003, 6.566854e-003
1.781903e+003, 6.697714e-003
1.783832e+003, 6.745206e-003
1.785760e+003, 6.621258e-003
1.787689e+003, 6.438574e-003
1.789617e+003, 6.466746e-003
1.791546e+003, 6.606908e-003
1.793474e+003, 6.667001e-003
1.795402e+003, 6.820946e-003
1.797331e+003, 6.995542e-003
1.799259e+003, 6.962024e-003
1.801188e+003, 7.017418e-003
1.803116e+003, 7.008234e-003
1.805045e+003, 7.008065e-003
1.806973e+003, 7.022016e-003
1.808902e+003, 6.797018e-003
1.810830e+003, 6.722806e-003
1.812759e+003, 6.890579e-003
1.814687e+003, 6.787401e-003
1.816616e+003, 6.706100e-003
1.818544e+003, 6.932265e-003
1.820473e+003, 7.201869e-003
1.822401e+003, 7.237346e-003
1.824329e+003, 6.998043e-003
1.826258e+003, 7.066124e-003
1.828186e+003, 7.074992e-003
1.830115e+003, 7.042810e-003
1.832043e+003, 6.913793e-003
1.833972e+003, 6.943139e-003
1.835900e+003, 6.965781e-003
1.837829e+003, 7.008973e-003
1.839757e+003, 6.946164e-003
1.841686e+003, 7.014202e-003
1.843614e+003, 7.037877e-003
1.845543e+003, 7.217558e-003
1.847471e+003, 7.253204e-003
1.849400e+003, 6.999444e-003
1.851328e+003, 7.077040e-003
1.853256e+003, 7.483337e-003
1.855185e+003, 7.644200e-003
1.857113e+003, 7.679293e-003
1.859042e+003, 7.669047e-003
1.860970e+003, 7.585625e-003
1.862899e+003, 7.835399e-003
1.864827e+003, 7.931985e-003
1.866756e+003, 7.728782e-003
1.868684e+003, 7.630443e-003
1.870613e+003, 7.634752e-003
1.872541e+003, 7.682958e-003
1.874470e+003, 7.434601e-003
1.876398e+003, 7.318216e-003
1.878327e+003, 7.464344e-003
1.880255e+003, 7.673478e-003
1.882183e+003, 7.920101e-003
1.884112e+003, 7.793771e-003
1.886040e+003, 7.754558e-003
1.887969e+003, 8.130488e-003
1.889897e+003, 7.924107e-003
1.891826e+003, 7.634142e-003
1.893754e+003, 7.813005e-003
1.895683e+003, 7.895790e-003
1.897611e+003, 7.972322e-003
1.899540e+003, 8.118278e-003
1.901468e+003, 7.889418e-003
1.903397e+003, 8.072091e-003
1.905325e+003, 8.473387e-003
1.907254e+003, 8.924403e-003
1.909182e+003, 8.737269e-003
1.911110e+003, 8.562582e-003
1.913039e+003, 8.380264e-003
1.914967e+003, 7.905842e-003
1.916896e+003, 7.414641e-003
1.918824e+003, 7.759904e-003
1.920753e+003, 8.142100e-003
1.922681e+003, 8.079321e-003
1.924610e+003, 7.689588e-003
1.926538e+003, 7.755662e-003
1.928467e+003, 8.314958e-003
1.930395e+003, 8.493382e-003
1.932324e+003, 8.181450e-003
1.934252e+003, 7.454940e-003
1.936181e+003, 7.441079e-003
1.938109e+003, 8.376379e-003
1.940037e+003, 8.660947e-003
1.941966e+003, 9.289915e-003
1.943894e+003, 9.466846e-003
1.945823e+003, 8.987771e-003
1.947751e+003, 9.406207e-003
1.949680e+003, 9.500381e-003
1.951608e+003, 8.141134e-003
1.953537e+003, 7.456650e-003
1.955465e+003, 8.192615e-003
1.957394e+003, 8.353287e-003
1.959322e+003, 7.904154e-003
1.961251e+003, 7.936596e-003
1.963179e+003, 8.791598e-003
1.965108e+003, 8.372596e-003
1.967036e+003, 8.006915e-003
1.968964e+003, 8.798786e-003
1.970893e+003, 8.998766e-003
1.972821e+003, 9.392116e-003
1.974750e+003, 8.707968e-003
1.976678e+003, 9.357902e-003
1.978607e+003, 1.122402e-002
1.980535e+003, 1.187200e-002
1.982464e+003, 1.194284e-002
1.984392e+003, 1.163190e-002
1.986321e+003, 1.070572e-002
1.988249e+003, 1.008615e-002
1.990178e+003, 1.012442e-002
1.992106e+003, 1.054511e-002
1.994035e+003, 1.073893e-002
1.995963e+003, 9.034907e-003
1.997891e+003, 8.427112e-003
1.999820e+003, 9.781023e-003
2.001748e+003, 8.799082e-003
2.003677e+003, 7.203495e-003
2.005605e+003, 8.532324e-003
2.007534e+003, 1.034308e-002
2.009462e+003, 1.060585e-002
2.011391e+003, 1.034454e-002
2.013319e+003, 1.007423e-002
2.015248e+003, 9.842296e-003
2.017176e+003, 9.718365e-003
2.019105e+003, 8.980606e-003
2.021033e+003, 9.033160e-003
2.022962e+003, 1.007549e-002
2.024890e+003, 1.034853e-002
2.026818e+003, 1.178816e-002
2.028747e+003, 1.120632e-002
2.030675e+003, 1.083108e-002
2.032604e+003, 1.037459e-002
2.034532e+003, 1.007782e-002
2.036461e+003, 1.110919e-002
2.038389e+003, 1.144710e-002
2.040318e+003, 1.100277e-002
2.042246e+003, 1.119653e-002
2.044175e+003, 1.127652e-002
2.046103e+003, 1.136736e-002
2.048031e+003, 1.096281e-002
2.049960e+003, 1.222625e-002
2.051888e+003, 1.145328e-002
2.053817e+003, 1.086406e-002
2.055745e+003, 1.063718e-002
2.057674e+003, 1.030707e-002
2.059602e+003, 1.069705e-002
2.061531e+003, 1.148663e-002
2.063459e+003, 1.136427e-002
2.065388e+003, 1.067564e-002
2.067316e+003, 1.116001e-002
2.069245e+003, 1.128157e-002
2.071173e+003, 1.115943e-002
2.073102e+003, 1.178344e-002
2.075030e+003, 1.174516e-002
2.076958e+003, 1.172867e-002
2.078887e+003, 1.167383e-002
2.080815e+003, 1.137321e-002
2.082744e+003, 1.100052e-002
2.084672e+003, 1.096260e-002
2.086601e+003, 1.099066e-002
2.088529e+003, 1.114470e-002
2.090458e+003, 1.112603e-002
2.092386e+003, 1.035577e-002
2.094315e+003, 1.040820e-002
2.096243e+003, 1.074952e-002
2.098172e+003, 1.040353e-002
2.100100e+003, 1.063327e-002
2.102029e+003, 1.124988e-002
2.103957e+003, 1.161160e-002
2.105885e+003, 1.118674e-002
2.107814e+003, 1.029947e-002
2.109742e+003, 1.073090e-002
2.111671e+003, 1.128271e-002
2.113599e+003, 1.146957e-002
2.115528e+003, 1.124293e-002
2.117456e+003, 1.067778e-002
2.119385e+003, 9.883926e-003
2.121313e+003, 9.604020e-003
2.123242e+003, 1.000432e-002
2.125170e+003, 9.887278e-003
2.127099e+003, 9.209482e-003
2.129027e+003, 8.609698e-003
2.130956e+003, 8.632677e-003
2.132884e+003, 9.123684e-003
2.134813e+003, 9.796376e-003
2.136741e+003, 1.002427e-002
2.138669e+003, 9.336880e-003
2.140598e+003, 9.208686e-003
2.142526e+003, 9.916222e-003
2.144455e+003, 9.480570e-003
2.146383e+003, 8.919386e-003
2.148312e+003, 8.562604e-003
2.150240e+003, 8.970014e-003
2.152169e+003, 9.385587e-003
2.154097e+003, 9.493276e-003
2.156026e+003, 8.412839e-003
2.157954e+003, 9.495755e-003
2.159883e+003, 1.331996e-002
2.161811e+003, 1.411073e-002
2.163740e+003, 1.397828e-002
2.165668e+003, 1.489656e-002
2.167596e+003, 1.439926e-002
2.169525e+003, 1.351680e-002
2.171453e+003, 1.346721e-002
2.173382e+003, 1.273795e-002
2.175310e+003, 1.220872e-002
2.177239e+003, 1.184443e-002
2.179167e+003, 1.141056e-002
2.181096e+003, 1.178316e-002
2.183024e+003, 1.274226e-002
2.184953e+003, 1.396742e-002
2.186881e+003, 1.339554e-002
2.188810e+003, 1.296305e-002
2.190738e+003, 1.267341e-002
2.192667e+003, 1.290134e-002
2.194595e+003, 1.327658e-002
2.196523e+003, 1.359317e-002
2.198452e+003, 1.338442e-002
2.200380e+003, 1.288355e-002
2.202309e+003, 1.251675e-002
2.204237e+003, 1.203582e-002
2.206166e+003, 1.233613e-002
2.208094e+003, 1.269226e-002
2.210023e+003, 1.240383e-002
2.211951e+003, 1.204210e-002
2.213880e+003, 1.198411e-002
2.215808e+003, 1.266183e-002
2.217737e+003, 1.316923e-002
2.219665e+003, 1.260391e-002
2.221594e+003, 1.279685e-002
2.223522e+003, 1.271278e-002
2.225450e+003, 1.216547e-002
2.227379e+003, 1.198956e-002
2.229307e+003, 1.247608e-002
2.231236e+003, 1.246103e-002
2.233164e+003, 1.254931e-002
2.235093e+003, 1.354644e-002
2.237021e+003, 1.389597e-002
2.238950e+003, 1.274010e-002
2.240878e+003, 1.206155e-002
2.242807e+003, 1.261652e-002
2.244735e+003, 1.282841e-002
2.246664e+003, 1.272848e-002
2.248592e+003, 1.234094e-002
2.250521e+003, 1.192781e-002
2.252449e+003, 1.204033e-002
2.254377e+003, 1.300666e-002
2.256306e+003, 1.293938e-002
2.258234e+003, 1.232498e-002
2.260163e+003, 1.247376e-002
2.262091e+003, 1.275492e-002
2.264020e+003, 1.277688e-002
2.265948e+003, 1.244608e-002
2.267877e+003, 1.259701e-002
2.269805e+003, 1.349092e-002
2.271734e+003, 1.404135e-002
2.273662e+003, 1.382749e-002
2.275591e+003, 1.344658e-002
2.277519e+003, 1.343732e-002
2.279448e+003, 1.352243e-002
2.281376e+003, 1.360889e-002
2.283304e+003, 1.398234e-002
2.285233e+003, 1.449620e-002
2.287161e+003, 1.414155e-002
2.289090e+003, 1.371274e-002
2.291018e+003, 1.372690e-002
2.292947e+003, 1.369787e-002
2.294875e+003, 1.340816e-002
2.296804e+003, 1.336497e-002
2.298732e+003, 1.344590e-002
2.300661e+003, 1.315173e-002
2.302589e+003, 1.268836e-002
2.304518e+003, 1.291709e-002
2.306446e+003, 1.328144e-002
2.308375e+003, 1.325875e-002
2.310303e+003, 1.294626e-002
2.312231e+003, 1.314653e-002
2.314160e+003, 1.334226e-002
2.316088e+003, 1.329832e-002
2.318017e+003, 1.325227e-002
2.319945e+003, 1.356203e-002
2.321874e+003, 1.414831e-002
2.323802e+003, 1.457353e-002
2.325731e+003, 1.384731e-002
2.327659e+003, 1.273575e-002
2.329588e+003, 1.223319e-002
2.331516e+003, 1.207733e-002
2.333445e+003, 1.223709e-002
2.335373e+003, 1.278102e-002
2.337302e+003, 1.265480e-002
2.339230e+003, 1.213493e-002
2.341158e+003, 1.218647e-002
2.343087e+003, 1.243995e-002
2.345015e+003, 1.235313e-002
2.346944e+003, 1.216850e-002
2.348872e+003, 1.239984e-002
2.350801e+003, 1.251615e-002
2.352729e+003, 1.235755e-002
2.354658e+003, 1.248811e-002
2.356586e+003, 1.253581e-002
2.358515e+003, 1.217891e-002
2.360443e+003, 1.201365e-002
2.362372e+003, 1.198331e-002
2.364300e+003, 1.201742e-002
2.366229e+003, 1.195385e-002
2.368157e+003, 1.196201e-002
2.370085e+003, 1.182843e-002
2.372014e+003, 1.140025e-002
2.373942e+003, 1.166947e-002
2.375871e+003, 1.208006e-002
2.377799e+003, 1.207520e-002
2.379728e+003, 1.191069e-002
2.381656e+003, 1.172813e-002
2.383585e+003, 1.183581e-002
2.385513e+003, 1.206207e-002
2.387442e+003, 1.213449e-002
2.389370e+003, 1.190281e-002
2.391299e+003, 1.211465e-002
2.393227e+003, 1.215411e-002
2.395156e+003, 1.203142e-002
2.397084e+003, 1.208627e-002
2.399012e+003, 1.219644e-002
2.400941e+003, 1.216141e-002
2.402869e+003, 1.188558e-002
2.404798e+003, 1.198741e-002
2.406726e+003, 1.270259e-002
2.408655e+003, 1.311734e-002
2.410583e+003, 1.284391e-002
2.412512e+003, 1.273175e-002
2.414440e+003, 1.292301e-002
2.416369e+003, 1.272083e-002
2.418297e+003, 1.266358e-002
2.420226e+003, 1.292500e-002
2.422154e+003, 1.282610e-002
2.424083e+003, 1.269152e-002
2.426011e+003, 1.287525e-002
2.427939e+003, 1.284249e-002
2.429868e+003, 1.291601e-002
2.431796e+003, 1.306298e-002
2.433725e+003, 1.315841e-002
2.435653e+003, 1.341319e-002
2.437582e+003, 1.355707e-002
2.439510e+003, 1.327310e-002
2.441439e+003, 1.304131e-002
2.443367e+003, 1.299687e-002
2.445296e+003, 1.336931e-002
2.447224e+003, 1.328978e-002
2.449153e+003, 1.279994e-002
2.451081e+003, 1.314922e-002
2.453010e+003, 1.327618e-002
2.454938e+003, 1.308534e-002
2.456866e+003, 1.293361e-002
2.458795e+003, 1.307315e-002
2.460723e+003, 1.332304e-002
2.462652e+003, 1.327111e-002
2.464580e+003, 1.335988e-002
2.466509e+003, 1.348372e-002
2.468437e+003, 1.306804e-002
2.470366e+003, 1.290766e-002
2.472294e+003, 1.316152e-002
2.474223e+003, 1.339231e-002
2.476151e+003, 1.357905e-002
2.478080e+003, 1.352128e-002
2.480008e+003, 1.296785e-002
2.481937e+003, 1.304270e-002
2.483865e+003, 1.307657e-002
2.485793e+003, 1.285465e-002
2.487722e+003, 1.318357e-002
2.489650e+003, 1.370421e-002
2.491579e+003, 1.335754e-002
2.493507e+003, 1.326851e-002
2.495436e+003, 1.364888e-002
2.497364e+003, 1.343044e-002
2.499293e+003, 1.311672e-002
2.501221e+003, 1.337231e-002
2.503150e+003, 1.335273e-002
2.505078e+003, 1.346251e-002
2.507007e+003, 1.359878e-002
2.508935e+003, 1.311625e-002
2.510864e+003, 1.286374e-002
2.512792e+003, 1.316187e-002
2.514720e+003, 1.325993e-002
2.516649e+003, 1.332041e-002
2.518577e+003, 1.327182e-002
2.520506e+003, 1.337193e-002
2.522434e+003, 1.333715e-002
2.524363e+003, 1.324508e-002
2.526291e+003, 1.315243e-002
2.528220e+003, 1.346569e-002
2.530148e+003, 1.368170e-002
2.532077e+003, 1.397581e-002
2.534005e+003, 1.425401e-002
2.535934e+003, 1.420502e-002
2.537862e+003, 1.418234e-002
2.539791e+003, 1.426771e-002
2.541719e+003, 1.388088e-002
2.543647e+003, 1.380342e-002
2.545576e+003, 1.399095e-002
2.547504e+003, 1.421323e-002
2.549433e+003, 1.350513e-002
2.551361e+003, 1.371415e-002
2.553290e+003, 1.429701e-002
2.555218e+003, 1.417917e-002
2.557147e+003, 1.408260e-002
2.559075e+003, 1.465481e-002
2.561004e+003, 1.466912e-002
2.562932e+003, 1.434696e-002
2.564861e+003, 1.454303e-002
2.566789e+003, 1.466245e-002
2.568718e+003, 1.474203e-002
2.570646e+003, 1.505789e-002
2.572574e+003, 1.489200e-002
2.574503e+003, 1.440594e-002
2.576431e+003, 1.433026e-002
2.578360e+003, 1.456859e-002
2.580288e+003, 1.472388e-002
2.582217e+003, 1.492094e-002
2.584145e+003, 1.494892e-002
2.586074e+003, 1.497015e-002
2.588002e+003, 1.509212e-002
2.589931e+003, 1.529898e-002
2.591859e+003, 1.519599e-002
2.593788e+003, 1.515042e-002
2.595716e+003, 1.473070e-002
2.597645e+003, 1.455217e-002
2.599573e+003, 1.507107e-002
2.601501e+003, 1.494345e-002
2.603430e+003, 1.455653e-002
2.605358e+003, 1.486781e-002
2.607287e+003, 1.522209e-002
2.609215e+003, 1.518007e-002
2.611144e+003, 1.513386e-002
2.613072e+003, 1.541629e-002
2.615001e+003, 1.548028e-002
2.616929e+003, 1.556325e-002
2.618858e+003, 1.570483e-002
2.620786e+003, 1.540810e-002
2.622715e+003, 1.519300e-002
2.624643e+003, 1.532765e-002
2.626572e+003, 1.548543e-002
2.628500e+003, 1.563939e-002
2.630428e+003, 1.572509e-002
2.632357e+003, 1.546225e-002
2.634285e+003, 1.500804e-002
2.636214e+003, 1.483885e-002
2.638142e+003, 1.535076e-002
2.640071e+003, 1.553487e-002
2.641999e+003, 1.534463e-002
2.643928e+003, 1.547721e-002
2.645856e+003, 1.560864e-002
2.647785e+003, 1.577397e-002
2.649713e+003, 1.532947e-002
2.651642e+003, 1.514912e-002
2.653570e+003, 1.540257e-002
2.655499e+003, 1.533012e-002
2.657427e+003, 1.498270e-002
2.659355e+003, 1.491868e-002
2.661284e+003, 1.471665e-002
2.663212e+003, 1.452767e-002
2.665141e+003, 1.425190e-002
2.667069e+003, 1.411791e-002
2.668998e+003, 1.407951e-002
2.670926e+003, 1.426554e-002
2.672855e+003, 1.441455e-002
2.674783e+003, 1.449890e-002
2.676712e+003, 1.471762e-002
2.678640e+003, 1.494316e-002
2.680569e+003, 1.495113e-002
2.682497e+003, 1.463854e-002
2.684426e+003, 1.444894e-002
2.686354e+003, 1.461326e-002
2.688282e+003, 1.479387e-002
2.690211e+003, 1.463496e-002
2.692139e+003, 1.439988e-002
2.694068e+003, 1.449244e-002
2.695996e+003, 1.460348e-002
2.697925e+003, 1.482113e-002
2.699853e+003, 1.497923e-002
2.701782e+003, 1.496164e-002
2.703710e+003, 1.491697e-002
2.705639e+003, 1.496284e-002
2.707567e+003, 1.482114e-002
2.709496e+003, 1.466788e-002
2.711424e+003, 1.450658e-002
2.713353e+003, 1.465881e-002
2.715281e+003, 1.503284e-002
2.717209e+003, 1.494349e-002
2.719138e+003, 1.457129e-002
2.721066e+003, 1.460710e-002
2.722995e+003, 1.499303e-002
2.724923e+003, 1.512253e-002
2.726852e+003, 1.505645e-002
2.728780e+003, 1.531364e-002
2.730709e+003, 1.509699e-002
2.732637e+003, 1.465711e-002
2.734566e+003, 1.472837e-002
2.736494e+003, 1.501410e-002
2.738423e+003, 1.486481e-002
2.740351e+003, 1.505733e-002
2.742280e+003, 1.537678e-002
2.744208e+003, 1.550965e-002
2.746136e+003, 1.529979e-002
2.748065e+003, 1.513476e-002
2.749993e+003, 1.529285e-002
2.751922e+003, 1.564516e-002
2.753850e+003, 1.533861e-002
2.755779e+003, 1.503012e-002
2.757707e+003, 1.484838e-002
2.759636e+003, 1.465548e-002
2.761564e+003, 1.481329e-002
2.763493e+003, 1.510335e-002
2.765421e+003, 1.557004e-002
2.767350e+003, 1.598680e-002
2.769278e+003, 1.582444e-002
2.771207e+003, 1.569861e-002
2.773135e+003, 1.553146e-002
2.775063e+003, 1.548824e-002
2.776992e+003, 1.544653e-002
2.778920e+003, 1.570276e-002
2.780849e+003, 1.579851e-002
2.782777e+003, 1.565337e-002
2.784706e+003, 1.574237e-002
2.786634e+003, 1.559613e-002
2.788563e+003, 1.519920e-002
2.790491e+003, 1.517769e-002
2.792420e+003, 1.545363e-002
2.794348e+003, 1.584077e-002
2.796277e+003, 1.596398e-002
2.798205e+003, 1.578129e-002
2.800134e+003, 1.573371e-002
2.802062e+003, 1.585600e-002
2.803990e+003, 1.586965e-002
2.805919e+003, 1.562288e-002
2.807847e+003, 1.550886e-002
2.809776e+003, 1.543135e-002
2.811704e+003, 1.563612e-002
2.813633e+003, 1.557065e-002
2.815561e+003, 1.539500e-002
2.817490e+003, 1.542068e-002
2.819418e+003, 1.538847e-002
2.821347e+003, 1.543544e-002
2.823275e+003, 1.557531e-002
2.825204e+003, 1.580080e-002
2.827132e+003, 1.579346e-002
2.829061e+003, 1.551875e-002
2.830989e+003, 1.563763e-002
2.832917e+003, 1.584480e-002
2.834846e+003, 1.567862e-002
2.836774e+003, 1.560828e-002
2.838703e+003, 1.557945e-002
2.840631e+003, 1.553723e-002
2.842560e+003, 1.502292e-002
2.844488e+003, 1.434678e-002
2.846417e+003, 1.384605e-002
2.848345e+003, 1.322807e-002
2.850274e+003, 1.274581e-002
2.852202e+003, 1.228694e-002
2.854131e+003, 1.189063e-002
2.856059e+003, 1.244961e-002
2.857988e+003, 1.292383e-002
2.859916e+003, 1.360740e-002
2.861844e+003, 1.397892e-002
2.863773e+003, 1.421848e-002
2.865701e+003, 1.442765e-002
2.867630e+003, 1.433566e-002
2.869558e+003, 1.442937e-002
2.871487e+003, 1.469117e-002
2.873415e+003, 1.481983e-002
2.875344e+003, 1.487220e-002
2.877272e+003, 1.494073e-002
2.879201e+003, 1.519523e-002
2.881129e+003, 1.528378e-002
2.883058e+003, 1.513852e-002
2.884986e+003, 1.499075e-002
2.886915e+003, 1.508626e-002
2.888843e+003, 1.515272e-002
2.890771e+003, 1.502809e-002
2.892700e+003, 1.467567e-002
2.894628e+003, 1.458008e-002
2.896557e+003, 1.444930e-002
2.898485e+003, 1.449885e-002
2.900414e+003, 1.451433e-002
2.902342e+003, 1.406509e-002
2.904271e+003, 1.391039e-002
2.906199e+003, 1.398544e-002
2.908128e+003, 1.397942e-002
2.910056e+003, 1.366505e-002
2.911985e+003, 1.317073e-002
2.913913e+003, 1.277523e-002
2.915842e+003, 1.197109e-002
2.917770e+003, 1.132957e-002
2.919698e+003, 1.103431e-002
2.921627e+003, 1.045182e-002
2.923555e+003, 1.010852e-002
2.925484e+003, 1.023215e-002
2.927412e+003, 1.079070e-002
2.929341e+003, 1.147038e-002
2.931269e+003, 1.170503e-002
2.933198e+003, 1.191235e-002
2.935126e+003, 1.225753e-002
2.937055e+003, 1.280660e-002
2.938983e+003, 1.326461e-002
2.940912e+003, 1.369765e-002
2.942840e+003, 1.416137e-002
2.944769e+003, 1.476067e-002
2.946697e+003, 1.479404e-002
2.948625e+003, 1.455952e-002
2.950554e+003, 1.446770e-002
2.952482e+003, 1.462122e-002
2.954411e+003, 1.498984e-002
2.956339e+003, 1.494274e-002
2.958268e+003, 1.518367e-002
2.960196e+003, 1.553116e-002
2.962125e+003, 1.551753e-002
2.964053e+003, 1.534773e-002
2.965982e+003, 1.565213e-002
2.967910e+003, 1.605994e-002
2.969839e+003, 1.612198e-002
2.971767e+003, 1.597044e-002
2.973696e+003, 1.624948e-002
2.975624e+003, 1.659783e-002
2.977552e+003, 1.638815e-002
2.979481e+003, 1.659864e-002
2.981409e+003, 1.699879e-002
2.983338e+003, 1.730989e-002
2.985266e+003, 1.732959e-002
2.987195e+003, 1.675421e-002
2.989123e+003, 1.679332e-002
2.991052e+003, 1.702324e-002
2.992980e+003, 1.697714e-002
2.994909e+003, 1.679959e-002
2.996837e+003, 1.668739e-002
2.998766e+003, 1.682736e-002
3.000694e+003, 1.704900e-002
3.002623e+003, 1.713102e-002
3.004551e+003, 1.718923e-002
3.006479e+003, 1.714102e-002
3.008408e+003, 1.691590e-002
3.010336e+003, 1.733260e-002
3.012265e+003, 1.771838e-002
3.014193e+003, 1.734034e-002
3.016122e+003, 1.728713e-002
3.018050e+003, 1.737104e-002
3.019979e+003, 1.726249e-002
3.021907e+003, 1.733135e-002
3.023836e+003, 1.703005e-002
3.025764e+003, 1.702273e-002
3.027693e+003, 1.732641e-002
3.029621e+003, 1.731496e-002
3.031550e+003, 1.698345e-002
3.033478e+003, 1.706908e-002
3.035406e+003, 1.752719e-002
3.037335e+003, 1.788992e-002
3.039263e+003, 1.821888e-002
3.041192e+003, 1.830615e-002
3.043120e+003, 1.809960e-002
3.045049e+003, 1.806003e-002
3.046977e+003, 1.824250e-002
3.048906e+003, 1.788056e-002
3.050834e+003, 1.767702e-002
3.052763e+003, 1.795885e-002
3.054691e+003, 1.785109e-002
3.056620e+003, 1.806685e-002
3.058548e+003, 1.864637e-002
3.060477e+003, 1.861823e-002
3.062405e+003, 1.859456e-002
3.064333e+003, 1.848859e-002
3.066262e+003, 1.806916e-002
3.068190e+003, 1.816771e-002
3.070119e+003, 1.853546e-002
3.072047e+003, 1.845267e-002
3.073976e+003, 1.843027e-002
3.075904e+003, 1.839492e-002
3.077833e+003, 1.823049e-002
3.079761e+003, 1.835798e-002
3.081690e+003, 1.854040e-002
3.083618e+003, 1.894428e-002
3.085547e+003, 1.927606e-002
3.087475e+003, 1.918070e-002
3.089404e+003, 1.925415e-002
3.091332e+003, 1.871224e-002
3.093260e+003, 1.862487e-002
3.095189e+003, 1.940039e-002
3.097117e+003, 1.966456e-002
3.099046e+003, 1.950374e-002
3.100974e+003, 1.944478e-002
3.102903e+003, 1.923180e-002
3.104831e+003, 1.866888e-002
3.106760e+003, 1.842562e-002
3.108688e+003, 1.920580e-002
3.110617e+003, 1.987902e-002
3.112545e+003, 1.964583e-002
3.114474e+003, 1.962806e-002
3.116402e+003, 1.939434e-002
3.118331e+003, 1.909351e-002
3.120259e+003, 1.921385e-002
3.122188e+003, 1.975393e-002
3.124116e+003, 1.990383e-002
3.126044e+003, 1.984864e-002
3.127973e+003, 1.985878e-002
3.129901e+003, 2.050163e-002
3.131830e+003, 2.071243e-002
3.133758e+003, 2.047060e-002
3.135687e+003, 2.042825e-002
3.137615e+003, 2.008553e-002
3.139544e+003, 2.025867e-002
3.141472e+003, 2.081404e-002
3.143401e+003, 2.027922e-002
3.145329e+003, 2.001773e-002
3.147258e+003, 2.024303e-002
3.149186e+003, 2.045434e-002
3.151115e+003, 2.061164e-002
3.153043e+003, 2.070401e-002
3.154971e+003, 2.090603e-002
3.156900e+003, 2.095555e-002
3.158828e+003, 2.088025e-002
3.160757e+003, 2.067461e-002
3.162685e+003, 2.040512e-002
3.164614e+003, 2.071123e-002
3.166542e+003, 2.060477e-002
3.168471e+003, 2.033377e-002
3.170399e+003, 2.036086e-002
3.172328e+003, 2.038807e-002
3.174256e+003, 2.067738e-002
3.176185e+003, 2.086858e-002
3.178113e+003, 2.075938e-002
3.180042e+003, 2.065763e-002
3.181970e+003, 2.075097e-002
3.183898e+003, 2.096135e-002
3.185827e+003, 2.066972e-002
3.187755e+003, 2.101398e-002
3.189684e+003, 2.127867e-002
3.191612e+003, 2.098250e-002
3.193541e+003, 2.069420e-002
3.195469e+003, 2.099926e-002
3.197398e+003, 2.133206e-002
3.199326e+003, 2.114999e-002
3.201255e+003, 2.093121e-002
3.203183e+003, 2.080796e-002
3.205112e+003, 2.109088e-002
3.207040e+003, 2.135118e-002
3.208969e+003, 2.120510e-002
3.210897e+003, 2.088745e-002
3.212825e+003, 2.110100e-002
3.214754e+003, 2.127913e-002
3.216682e+003, 2.108024e-002
3.218611e+003, 2.094380e-002
3.220539e+003, 2.129435e-002
3.222468e+003, 2.171685e-002
3.224396e+003, 2.183900e-002
3.226325e+003, 2.143745e-002
3.228253e+003, 2.121014e-002
3.230182e+003, 2.134278e-002
3.232110e+003, 2.154071e-002
3.234039e+003, 2.174400e-002
3.235967e+003, 2.102866e-002
3.237896e+003, 2.063101e-002
3.239824e+003, 2.124224e-002
3.241752e+003, 2.166584e-002
3.243681e+003, 2.146493e-002
3.245609e+003, 2.157684e-002
3.247538e+003, 2.158901e-002
3.249466e+003, 2.129781e-002
3.251395e+003, 2.162930e-002
3.253323e+003, 2.209942e-002
3.255252e+003, 2.228344e-002
3.257180e+003, 2.214941e-002
3.259109e+003, 2.182877e-002
3.261037e+003, 2.200882e-002
3.262966e+003, 2.240116e-002
3.264894e+003, 2.247023e-002
3.266823e+003, 2.239762e-002
3.268751e+003, 2.198850e-002
3.270679e+003, 2.147228e-002
3.272608e+003, 2.168674e-002
3.274536e+003, 2.219470e-002
3.276465e+003, 2.256156e-002
3.278393e+003, 2.222856e-002
3.280322e+003, 2.280700e-002
3.282250e+003, 2.328838e-002
3.284179e+003, 2.322099e-002
3.286107e+003, 2.282410e-002
3.288036e+003, 2.280119e-002
3.289964e+003, 2.232695e-002
3.291893e+003, 2.214517e-002
3.293821e+003, 2.225335e-002
3.295750e+003, 2.238351e-002
3.297678e+003, 2.235654e-002
3.299606e+003, 2.235774e-002
3.301535e+003, 2.230925e-002
3.303463e+003, 2.235140e-002
3.305392e+003, 2.201976e-002
3.307320e+003, 2.209882e-002
3.309249e+003, 2.295018e-002
3.311177e+003, 2.327551e-002
3.313106e+003, 2.238755e-002
3.315034e+003, 2.193053e-002
3.316963e+003, 2.213300e-002
3.318891e+003, 2.191808e-002
3.320820e+003, 2.163680e-002
3.322748e+003, 2.214120e-002
3.324677e+003, 2.291816e-002
3.326605e+003, 2.313014e-002
3.328533e+003, 2.270240e-002
3.330462e+003, 2.280243e-002
3.332390e+003, 2.266141e-002
3.334319e+003, 2.235899e-002
3.336247e+003, 2.303353e-002
3.338176e+003, 2.342303e-002
3.340104e+003, 2.289172e-002
3.342033e+003, 2.225250e-002
3.343961e+003, 2.194944e-002
3.345890e+003, 2.204697e-002
3.347818e+003, 2.247125e-002
3.349747e+003, 2.286874e-002
3.351675e+003, 2.313587e-002
3.353604e+003, 2.347662e-002
3.355532e+003, 2.345250e-002
3.357460e+003, 2.293959e-002
3.359389e+003, 2.317520e-002
3.361317e+003, 2.334150e-002
3.363246e+003, 2.280140e-002
3.365174e+003, 2.280088e-002
3.367103e+003, 2.289894e-002
3.369031e+003, 2.298508e-002
3.370960e+003, 2.318444e-002
3.372888e+003, 2.258289e-002
3.374817e+003, 2.307953e-002
3.376745e+003, 2.380578e-002
3.378674e+003, 2.395341e-002
3.380602e+003, 2.415371e-002
3.382531e+003, 2.418811e-002
3.384459e+003, 2.373627e-002
3.386387e+003, 2.338734e-002
3.388316e+003, 2.350389e-002
3.390244e+003, 2.320832e-002
3.392173e+003, 2.265254e-002
3.394101e+003, 2.239776e-002
3.396030e+003, 2.230915e-002
3.397958e+003, 2.267232e-002
3.399887e+003, 2.315474e-002
3.401815e+003, 2.328386e-002
3.403744e+003, 2.339525e-002
3.405672e+003, 2.347214e-002
3.407601e+003, 2.346834e-002
3.409529e+003, 2.363646e-002
3.411458e+003, 2.336858e-002
3.413386e+003, 2.297798e-002
3.415314e+003, 2.291971e-002
3.417243e+003, 2.335737e-002
3.419171e+003, 2.338079e-002
3.421100e+003, 2.318453e-002
3.423028e+003, 2.314760e-002
3.424957e+003, 2.337712e-002
3.426885e+003, 2.290891e-002
3.428814e+003, 2.273803e-002
3.430742e+003, 2.274874e-002
3.432671e+003, 2.292772e-002
3.434599e+003, 2.377649e-002
3.436528e+003, 2.401142e-002
3.438456e+003, 2.316167e-002
3.440385e+003, 2.282205e-002
3.442313e+003, 2.339710e-002
3.444241e+003, 2.377669e-002
3.446170e+003, 2.307343e-002
3.448098e+003, 2.268820e-002
3.450027e+003, 2.230692e-002
3.451955e+003, 2.269047e-002
3.453884e+003, 2.300328e-002
3.455812e+003, 2.285335e-002
3.457741e+003, 2.280748e-002
3.459669e+003, 2.279704e-002
3.461598e+003, 2.230269e-002
3.463526e+003, 2.245559e-002
3.465455e+003, 2.338505e-002
3.467383e+003, 2.336504e-002
3.469312e+003, 2.297589e-002
3.471240e+003, 2.265785e-002
3.473168e+003, 2.281157e-002
3.475097e+003, 2.352052e-002
3.477025e+003, 2.353580e-002
3.478954e+003, 2.274108e-002
3.480882e+003, 2.194485e-002
3.482811e+003, 2.204611e-002
3.484739e+003, 2.262536e-002
3.486668e+003, 2.280112e-002
3.488596e+003, 2.266952e-002
3.490525e+003, 2.260129e-002
3.492453e+003, 2.264396e-002
3.494382e+003, 2.248289e-002
3.496310e+003, 2.230907e-002
3.498239e+003, 2.199488e-002
3.500167e+003, 2.229849e-002
3.502095e+003, 2.256420e-002
3.504024e+003, 2.216178e-002
3.505952e+003, 2.191916e-002
3.507881e+003, 2.239682e-002
3.509809e+003, 2.207152e-002
3.511738e+003, 2.176765e-002
3.513666e+003, 2.196999e-002
3.515595e+003, 2.248780e-002
3.517523e+003, 2.235513e-002
3.519452e+003, 2.223640e-002
3.521380e+003, 2.236792e-002
3.523309e+003, 2.241050e-002
3.525237e+003, 2.182028e-002
3.527166e+003, 2.155437e-002
3.529094e+003, 2.171203e-002
3.531022e+003, 2.182915e-002
3.532951e+003, 2.203487e-002
3.534879e+003, 2.204417e-002
3.536808e+003, 2.175901e-002
3.538736e+003, 2.207309e-002
3.540665e+003, 2.240102e-002
3.542593e+003, 2.224208e-002
3.544522e+003, 2.186007e-002
3.546450e+003, 2.159213e-002
3.548379e+003, 2.180718e-002
3.550307e+003, 2.212582e-002
3.552236e+003, 2.167487e-002
3.554164e+003, 2.136062e-002
3.556093e+003, 2.161726e-002
3.558021e+003, 2.170395e-002
3.559949e+003, 2.128453e-002
3.561878e+003, 2.115069e-002
3.563806e+003, 2.166452e-002
3.565735e+003, 2.114280e-002
3.567663e+003, 2.088631e-002
3.569592e+003, 2.076742e-002
3.571520e+003, 2.047763e-002
3.573449e+003, 2.064730e-002
3.575377e+003, 2.086987e-002
3.577306e+003, 2.150331e-002
3.579234e+003, 2.180737e-002
3.581163e+003, 2.131849e-002
3.583091e+003, 2.084956e-002
3.585020e+003, 2.046018e-002
3.586948e+003, 2.034776e-002
3.588876e+003, 2.041545e-002
3.590805e+003, 2.068200e-002
3.592733e+003, 2.125173e-002
3.594662e+003, 2.073185e-002
3.596590e+003, 2.004234e-002
3.598519e+003, 1.967137e-002
3.600447e+003, 1.967938e-002
3.602376e+003, 2.007736e-002
3.604304e+003, 2.070832e-002
3.606233e+003, 2.106318e-002
3.608161e+003, 2.025966e-002
3.610090e+003, 1.938641e-002
3.612018e+003, 1.967354e-002
3.613947e+003, 1.996065e-002
3.615875e+003, 1.998684e-002
3.617803e+003, 1.923233e-002
3.619732e+003, 1.822498e-002
3.621660e+003, 1.865637e-002
3.623589e+003, 1.902330e-002
3.625517e+003, 1.968856e-002
3.627446e+003, 2.030913e-002
3.629374e+003, 2.035940e-002
3.631303e+003, 1.981757e-002
3.633231e+003, 1.977031e-002
3.635160e+003, 2.017676e-002
3.637088e+003, 2.035994e-002
3.639017e+003, 2.031480e-002
3.640945e+003, 1.965642e-002
3.642874e+003, 1.886531e-002
3.644802e+003, 1.897809e-002
3.646730e+003, 1.940873e-002
3.648659e+003, 1.937029e-002
3.650587e+003, 1.955772e-002
3.652516e+003, 1.927291e-002
3.654444e+003, 1.945531e-002
3.656373e+003, 1.958700e-002
3.658301e+003, 1.853813e-002
3.660230e+003, 1.832999e-002
3.662158e+003, 1.897771e-002
3.664087e+003, 1.926650e-002
3.666015e+003, 1.916833e-002
3.667944e+003, 1.968786e-002
3.669872e+003, 2.011007e-002
3.671801e+003, 1.935595e-002
3.673729e+003, 1.874809e-002
3.675657e+003, 1.920925e-002
3.677586e+003, 1.950474e-002
3.679514e+003, 1.876922e-002
3.681443e+003, 1.870920e-002
3.683371e+003, 1.874419e-002
3.685300e+003, 1.869236e-002
3.687228e+003, 1.865764e-002
3.689157e+003, 1.823425e-002
3.691085e+003, 1.742088e-002
3.693014e+003, 1.777812e-002
3.694942e+003, 1.869085e-002
3.696871e+003, 1.875638e-002
3.698799e+003, 1.911847e-002
3.700728e+003, 1.938644e-002
3.702656e+003, 1.940946e-002
3.704584e+003, 1.933459e-002
3.706513e+003, 1.952104e-002
3.708441e+003, 1.993323e-002
3.710370e+003, 1.980432e-002
3.712298e+003, 1.907311e-002
3.714227e+003, 1.854712e-002
3.716155e+003, 1.883341e-002
3.718084e+003, 1.955629e-002
3.720012e+003, 2.003910e-002
3.721941e+003, 2.040238e-002
3.723869e+003, 2.082111e-002
3.725798e+003, 2.082576e-002
3.727726e+003, 1.989770e-002
3.729655e+003, 1.968045e-002
3.731583e+003, 1.925765e-002
3.733511e+003, 1.903678e-002
3.735440e+003, 1.951479e-002
3.737368e+003, 1.953101e-002
3.739297e+003, 1.989274e-002
3.741225e+003, 1.996964e-002
3.743154e+003, 1.908606e-002
3.745082e+003, 1.902283e-002
3.747011e+003, 1.962475e-002
3.748939e+003, 1.942251e-002
3.750868e+003, 1.971376e-002
3.752796e+003, 2.005204e-002
3.754725e+003, 2.014888e-002
3.756653e+003, 2.081782e-002
3.758582e+003, 2.042857e-002
3.760510e+003, 1.973606e-002
3.762438e+003, 2.030008e-002
3.764367e+003, 2.036378e-002
3.766295e+003, 1.995628e-002
3.768224e+003, 1.999898e-002
3.770152e+003, 1.942850e-002
3.772081e+003, 1.882059e-002
3.774009e+003, 1.979691e-002
3.775938e+003, 1.962443e-002
3.777866e+003, 1.948041e-002
3.779795e+003, 1.971786e-002
3.781723e+003, 1.962749e-002
3.783652e+003, 1.974928e-002
3.785580e+003, 2.000843e-002
3.787509e+003, 2.021300e-002
3.789437e+003, 2.003352e-002
3.791365e+003, 1.967423e-002
3.793294e+003, 1.966337e-002
3.795222e+003, 1.989087e-002
3.797151e+003, 1.994224e-002
3.799079e+003, 2.089178e-002
3.801008e+003, 2.065700e-002
3.802936e+003, 1.969601e-002
3.804865e+003, 1.916412e-002
3.806793e+003, 1.920854e-002
3.808722e+003, 1.952203e-002
3.810650e+003, 1.906400e-002
3.812579e+003, 1.892976e-002
3.814507e+003, 1.922419e-002
3.816436e+003, 1.924786e-002
3.818364e+003, 1.943768e-002
3.820292e+003, 1.969342e-002
3.822221e+003, 1.996008e-002
3.824149e+003, 2.017612e-002
3.826078e+003, 2.006311e-002
3.828006e+003, 1.952373e-002
3.829935e+003, 1.923737e-002
3.831863e+003, 1.868393e-002
3.833792e+003, 1.895337e-002
3.835720e+003, 1.970543e-002
3.837649e+003, 2.044415e-002
3.839577e+003, 2.013673e-002
3.841506e+003, 1.952767e-002
3.843434e+003, 1.949714e-002
3.845363e+003, 1.904511e-002
3.847291e+003, 1.869870e-002
3.849219e+003, 1.865893e-002
3.851148e+003, 1.898458e-002
3.853076e+003, 1.922446e-002
3.855005e+003, 1.980683e-002
3.856933e+003, 2.051868e-002
3.858862e+003, 2.054616e-002
3.860790e+003, 2.020966e-002
3.862719e+003, 2.019566e-002
3.864647e+003, 2.013809e-002
3.866576e+003, 1.994368e-002
3.868504e+003, 1.905951e-002
3.870433e+003, 1.896499e-002
3.872361e+003, 1.929316e-002
3.874290e+003, 2.005426e-002
3.876218e+003, 2.077054e-002
3.878146e+003, 2.060149e-002
3.880075e+003, 2.046468e-002
3.882003e+003, 1.994490e-002
3.883932e+003, 1.951145e-002
3.885860e+003, 1.995325e-002
3.887789e+003, 1.978484e-002
3.889717e+003, 1.898427e-002
3.891646e+003, 1.942759e-002
3.893574e+003, 1.923039e-002
3.895503e+003, 1.936054e-002
3.897431e+003, 1.983286e-002
3.899360e+003, 1.978346e-002
3.901288e+003, 1.958557e-002
3.903217e+003, 1.941196e-002
3.905145e+003, 1.983664e-002
3.907073e+003, 2.014274e-002
3.909002e+003, 1.961237e-002
3.910930e+003, 1.992030e-002
3.912859e+003, 2.035389e-002
3.914787e+003, 1.991935e-002
3.916716e+003, 2.048126e-002
3.918644e+003, 2.052091e-002
3.920573e+003, 1.975966e-002
3.922501e+003, 1.939008e-002
3.924430e+003, 1.935648e-002
3.926358e+003, 2.010406e-002
3.928287e+003, 1.971202e-002
3.930215e+003, 1.920181e-002
3.932144e+003, 1.937133e-002
3.934072e+003, 1.954854e-002
3.936000e+003, 1.935327e-002
3.937929e+003, 1.870688e-002
3.939857e+003, 1.908681e-002
3.941786e+003, 1.930378e-002
3.943714e+003, 1.946561e-002
3.945643e+003, 1.993376e-002
3.947571e+003, 2.013539e-002
3.949500e+003, 2.018455e-002
3.951428e+003, 2.003094e-002
3.953357e+003, 1.962675e-002
3.955285e+003, 1.909953e-002
3.957214e+003, 1.825879e-002
3.959142e+003, 1.891031e-002
3.961071e+003, 2.063974e-002
3.962999e+003, 1.999926e-002
3.964927e+003, 1.884523e-002
3.966856e+003, 1.981542e-002
3.968784e+003, 2.054326e-002
3.970713e+003, 2.024171e-002
3.972641e+003, 1.972581e-002
3.974570e+003, 1.994028e-002
3.976498e+003, 1.973417e-002
3.978427e+003, 2.039815e-002
3.980355e+003, 2.073222e-002
3.982284e+003, 1.982748e-002
3.984212e+003, 2.019873e-002
3.986141e+003, 1.998790e-002
3.988069e+003, 2.017150e-002
3.989998e+003, 2.078699e-002
3.991926e+003, 2.008971e-002
3.993854e+003, 1.933315e-002
3.995783e+003, 1.905172e-002
3.997711e+003, 1.923663e-002
3.999640e+003, 1.955789e-002
##END=



