##NAMES=Spodumene
##RRUFFID=R050252
##IDEAL CHEMISTRY=LiAlSi_2_O_6_
##LOCALITY=Minas Gerais, Brazil
##OWNER=RRUFF
##SOURCE=Marcus Origlieri
##DESCRIPTION=Pale lavendar cleavage fragment
##STATUS=The identification of this mineral has been confirmed by X-ray diffraction and chemical analysis
##URL=rruff.info/R050252
##MEASURED CHEMISTRY=Li_1.00_Al_1.00_Si_2.00_O_6_
3.721941e+002, 0.000000e+000
3.741225e+002, 2.074312e-001
3.760510e+002, 1.985647e-001
3.779795e+002, 1.899491e-001
3.799079e+002, 1.772066e-001
3.818364e+002, 1.519544e-001
3.837649e+002, 1.350406e-001
3.856933e+002, 1.333484e-001
3.876218e+002, 1.387672e-001
3.895503e+002, 1.500372e-001
3.914787e+002, 1.724887e-001
3.934072e+002, 1.953851e-001
3.953357e+002, 2.135315e-001
3.972641e+002, 2.199580e-001
3.991926e+002, 2.123810e-001
4.011211e+002, 1.989904e-001
4.030495e+002, 1.807872e-001
4.049780e+002, 1.649738e-001
4.069065e+002, 1.527847e-001
4.088349e+002, 1.530852e-001
4.107634e+002, 1.582444e-001
4.126919e+002, 1.669000e-001
4.146203e+002, 1.766720e-001
4.165488e+002, 1.857166e-001
4.184773e+002, 1.955621e-001
4.204057e+002, 2.056937e-001
4.223342e+002, 2.163567e-001
4.242627e+002, 2.286332e-001
4.261911e+002, 2.387952e-001
4.281196e+002, 2.470530e-001
4.300481e+002, 2.527823e-001
4.319765e+002, 2.576662e-001
4.339050e+002, 2.626582e-001
4.358335e+002, 2.680548e-001
4.377619e+002, 2.732999e-001
4.396904e+002, 2.758772e-001
4.416189e+002, 2.771520e-001
4.435473e+002, 2.796465e-001
4.454758e+002, 2.812010e-001
4.474043e+002, 2.812735e-001
4.493327e+002, 2.784160e-001
4.512612e+002, 2.747338e-001
4.531897e+002, 2.699764e-001
4.551181e+002, 2.676031e-001
4.570466e+002, 2.665846e-001
4.589751e+002, 2.674548e-001
4.609035e+002, 2.684220e-001
4.628320e+002, 2.669914e-001
4.647605e+002, 2.646410e-001
4.666889e+002, 2.614801e-001
4.686174e+002, 2.557780e-001
4.705459e+002, 2.513464e-001
4.724743e+002, 2.479036e-001
4.744028e+002, 2.432435e-001
4.763313e+002, 2.369023e-001
4.782597e+002, 2.317912e-001
4.801882e+002, 2.264710e-001
4.821167e+002, 2.203208e-001
4.840451e+002, 2.142902e-001
4.859736e+002, 2.086945e-001
4.879021e+002, 2.043488e-001
4.898305e+002, 1.999543e-001
4.917590e+002, 1.955702e-001
4.936875e+002, 1.908300e-001
4.956159e+002, 1.868778e-001
4.975444e+002, 1.834740e-001
4.994729e+002, 1.790369e-001
5.014013e+002, 1.747446e-001
5.033298e+002, 1.711423e-001
5.052583e+002, 1.669388e-001
5.071867e+002, 1.612044e-001
5.091152e+002, 1.552767e-001
5.110437e+002, 1.504427e-001
5.129721e+002, 1.465826e-001
5.149006e+002, 1.458219e-001
5.168290e+002, 1.467730e-001
5.187575e+002, 1.480417e-001
5.206860e+002, 1.495410e-001
5.226144e+002, 1.502490e-001
5.245429e+002, 1.503622e-001
5.264714e+002, 1.500439e-001
5.283998e+002, 1.487851e-001
5.303283e+002, 1.471131e-001
5.322568e+002, 1.451135e-001
5.341852e+002, 1.429271e-001
5.361137e+002, 1.408346e-001
5.380422e+002, 1.379618e-001
5.399706e+002, 1.345676e-001
5.418991e+002, 1.311176e-001
5.438276e+002, 1.266723e-001
5.457560e+002, 1.215731e-001
5.476845e+002, 1.168446e-001
5.496130e+002, 1.123512e-001
5.515414e+002, 1.085986e-001
5.534699e+002, 1.050824e-001
5.553984e+002, 1.028746e-001
5.573268e+002, 1.031111e-001
5.592553e+002, 1.053460e-001
5.611838e+002, 1.092318e-001
5.631122e+002, 1.141424e-001
5.650407e+002, 1.200936e-001
5.669692e+002, 1.266042e-001
5.688976e+002, 1.328946e-001
5.708261e+002, 1.390749e-001
5.727546e+002, 1.443489e-001
5.746830e+002, 1.481621e-001
5.766115e+002, 1.506590e-001
5.785400e+002, 1.524167e-001
5.804684e+002, 1.530960e-001
5.823969e+002, 1.533755e-001
5.843254e+002, 1.532422e-001
5.862538e+002, 1.527652e-001
5.881823e+002, 1.517392e-001
5.901108e+002, 1.506038e-001
5.920392e+002, 1.491117e-001
5.939677e+002, 1.469508e-001
5.958962e+002, 1.446094e-001
5.978246e+002, 1.417197e-001
5.997531e+002, 1.384814e-001
6.016816e+002, 1.352686e-001
6.036100e+002, 1.317975e-001
6.055385e+002, 1.282042e-001
6.074670e+002, 1.251260e-001
6.093954e+002, 1.220815e-001
6.113239e+002, 1.191754e-001
6.132524e+002, 1.165326e-001
6.151808e+002, 1.144146e-001
6.171093e+002, 1.120588e-001
6.190378e+002, 1.101259e-001
6.209662e+002, 1.088572e-001
6.228947e+002, 1.082943e-001
6.248232e+002, 1.080373e-001
6.267516e+002, 1.078330e-001
6.286801e+002, 1.077603e-001
6.306086e+002, 1.078811e-001
6.325370e+002, 1.079509e-001
6.344655e+002, 1.079289e-001
6.363940e+002, 1.077500e-001
6.383224e+002, 1.072548e-001
6.402509e+002, 1.057978e-001
6.421794e+002, 1.035811e-001
6.441078e+002, 1.007962e-001
6.460363e+002, 9.719223e-002
6.479648e+002, 9.312139e-002
6.498932e+002, 8.844393e-002
6.518217e+002, 8.326040e-002
6.537502e+002, 7.788991e-002
6.556786e+002, 7.250850e-002
6.576071e+002, 6.722032e-002
6.595356e+002, 6.243103e-002
6.614641e+002, 5.842406e-002
6.633925e+002, 5.503747e-002
6.653210e+002, 5.222538e-002
6.672495e+002, 4.967985e-002
6.691779e+002, 4.665632e-002
6.711064e+002, 4.368218e-002
6.730349e+002, 4.126098e-002
6.749633e+002, 3.911799e-002
6.768918e+002, 3.740215e-002
6.788203e+002, 3.630222e-002
6.807487e+002, 3.549360e-002
6.826772e+002, 3.464899e-002
6.846057e+002, 3.407504e-002
6.865341e+002, 3.366600e-002
6.884626e+002, 3.316209e-002
6.903911e+002, 3.297256e-002
6.923195e+002, 3.299338e-002
6.942480e+002, 3.281813e-002
6.961765e+002, 3.265667e-002
6.981049e+002, 3.236252e-002
7.000334e+002, 3.232445e-002
7.019619e+002, 3.235325e-002
7.038903e+002, 3.254731e-002
7.058188e+002, 3.255054e-002
7.077473e+002, 3.262953e-002
7.096757e+002, 3.260960e-002
7.116042e+002, 3.260191e-002
7.135327e+002, 3.271087e-002
7.154611e+002, 3.277954e-002
7.173896e+002, 3.281510e-002
7.193181e+002, 3.286779e-002
7.212465e+002, 3.292161e-002
7.231750e+002, 3.305412e-002
7.251035e+002, 3.319247e-002
7.270319e+002, 3.337032e-002
7.289604e+002, 3.348434e-002
7.308889e+002, 3.356368e-002
7.328173e+002, 3.380562e-002
7.347458e+002, 3.412658e-002
7.366743e+002, 3.444900e-002
7.386027e+002, 3.448474e-002
7.405312e+002, 3.451961e-002
7.424597e+002, 3.479528e-002
7.443881e+002, 3.523969e-002
7.463166e+002, 3.557750e-002
7.482451e+002, 3.576586e-002
7.501735e+002, 3.616980e-002
7.521020e+002, 3.656290e-002
7.540305e+002, 3.682749e-002
7.559589e+002, 3.715099e-002
7.578874e+002, 3.754120e-002
7.598159e+002, 3.809745e-002
7.617443e+002, 3.874192e-002
7.636728e+002, 3.914262e-002
7.656013e+002, 3.968996e-002
7.675297e+002, 4.048429e-002
7.694582e+002, 4.118975e-002
7.713867e+002, 4.175567e-002
7.733151e+002, 4.230486e-002
7.752436e+002, 4.330474e-002
7.771721e+002, 4.431399e-002
7.791005e+002, 4.508823e-002
7.810290e+002, 4.601360e-002
7.829575e+002, 4.702827e-002
7.848859e+002, 4.781452e-002
7.868144e+002, 4.866904e-002
7.887429e+002, 4.958905e-002
7.906713e+002, 5.071552e-002
7.925998e+002, 5.193307e-002
7.945283e+002, 5.315921e-002
7.964567e+002, 5.458307e-002
7.983852e+002, 5.602999e-002
8.003137e+002, 5.746761e-002
8.022421e+002, 5.887421e-002
8.041706e+002, 6.044447e-002
8.060991e+002, 6.214109e-002
8.080275e+002, 6.412211e-002
8.099560e+002, 6.618243e-002
8.118845e+002, 6.815832e-002
8.138129e+002, 7.037856e-002
8.157414e+002, 7.289593e-002
8.176699e+002, 7.572234e-002
8.195983e+002, 7.868095e-002
8.215268e+002, 8.199758e-002
8.234553e+002, 8.552496e-002
8.253837e+002, 8.931551e-002
8.273122e+002, 9.353795e-002
8.292407e+002, 9.814192e-002
8.311691e+002, 1.029938e-001
8.330976e+002, 1.083434e-001
8.350261e+002, 1.143542e-001
8.369545e+002, 1.206272e-001
8.388830e+002, 1.275028e-001
8.408115e+002, 1.351220e-001
8.427399e+002, 1.432018e-001
8.446684e+002, 1.517013e-001
8.465969e+002, 1.606886e-001
8.485253e+002, 1.697120e-001
8.504538e+002, 1.785635e-001
8.523823e+002, 1.865424e-001
8.543107e+002, 1.927847e-001
8.562392e+002, 1.968534e-001
8.581677e+002, 1.980313e-001
8.600961e+002, 1.950747e-001
8.620246e+002, 1.890026e-001
8.639531e+002, 1.813394e-001
8.658815e+002, 1.738776e-001
8.678100e+002, 1.684632e-001
8.697385e+002, 1.656701e-001
8.716669e+002, 1.649553e-001
8.735954e+002, 1.660432e-001
8.755239e+002, 1.683152e-001
8.774523e+002, 1.717623e-001
8.793808e+002, 1.758791e-001
8.813093e+002, 1.800538e-001
8.832377e+002, 1.842450e-001
8.851662e+002, 1.883844e-001
8.870947e+002, 1.926874e-001
8.890231e+002, 1.970444e-001
8.909516e+002, 2.011042e-001
8.928801e+002, 2.046122e-001
8.948085e+002, 2.077392e-001
8.967370e+002, 2.108035e-001
8.986655e+002, 2.134401e-001
9.005939e+002, 2.155739e-001
9.025224e+002, 2.172292e-001
9.044509e+002, 2.185367e-001
9.063793e+002, 2.194101e-001
9.083078e+002, 2.199664e-001
9.102363e+002, 2.201801e-001
9.121647e+002, 2.199772e-001
9.140932e+002, 2.193004e-001
9.160217e+002, 2.181983e-001
9.179501e+002, 2.165810e-001
9.198786e+002, 2.144303e-001
9.218071e+002, 2.118624e-001
9.237355e+002, 2.090025e-001
9.256640e+002, 2.056914e-001
9.275925e+002, 2.021109e-001
9.295209e+002, 1.982241e-001
9.314494e+002, 1.938449e-001
9.333779e+002, 1.892119e-001
9.353063e+002, 1.845189e-001
9.372348e+002, 1.798240e-001
9.391633e+002, 1.750708e-001
9.410917e+002, 1.703969e-001
9.430202e+002, 1.657246e-001
9.449487e+002, 1.612434e-001
9.468771e+002, 1.571575e-001
9.488056e+002, 1.531564e-001
9.507341e+002, 1.493901e-001
9.526625e+002, 1.461487e-001
9.545910e+002, 1.432493e-001
9.565195e+002, 1.406590e-001
9.584479e+002, 1.384393e-001
9.603764e+002, 1.365311e-001
9.623049e+002, 1.350943e-001
9.642333e+002, 1.341292e-001
9.661618e+002, 1.336808e-001
9.680903e+002, 1.336778e-001
9.700187e+002, 1.342309e-001
9.719472e+002, 1.353531e-001
9.738757e+002, 1.369915e-001
9.758041e+002, 1.394058e-001
9.777326e+002, 1.422758e-001
9.796611e+002, 1.456106e-001
9.815895e+002, 1.495307e-001
9.835180e+002, 1.540402e-001
9.854465e+002, 1.591869e-001
9.873749e+002, 1.651127e-001
9.893034e+002, 1.715047e-001
9.912319e+002, 1.782098e-001
9.931603e+002, 1.855239e-001
9.950888e+002, 1.934728e-001
9.970173e+002, 2.018261e-001
9.989457e+002, 2.107984e-001
1.000874e+003, 2.200431e-001
1.002803e+003, 2.291936e-001
1.004731e+003, 2.382700e-001
1.006660e+003, 2.472081e-001
1.008588e+003, 2.559391e-001
1.010517e+003, 2.638972e-001
1.012445e+003, 2.706800e-001
1.014373e+003, 2.756375e-001
1.016302e+003, 2.788739e-001
1.018230e+003, 2.804607e-001
1.020159e+003, 2.805669e-001
1.022087e+003, 2.797376e-001
1.024016e+003, 2.780578e-001
1.025944e+003, 2.756241e-001
1.027873e+003, 2.727385e-001
1.029801e+003, 2.694613e-001
1.031730e+003, 2.660381e-001
1.033658e+003, 2.624179e-001
1.035587e+003, 2.586588e-001
1.037515e+003, 2.547296e-001
1.039443e+003, 2.503808e-001
1.041372e+003, 2.460314e-001
1.043300e+003, 2.420875e-001
1.045229e+003, 2.383711e-001
1.047157e+003, 2.349731e-001
1.049086e+003, 2.318150e-001
1.051014e+003, 2.291001e-001
1.052943e+003, 2.268766e-001
1.054871e+003, 2.251993e-001
1.056800e+003, 2.238374e-001
1.058728e+003, 2.228572e-001
1.060657e+003, 2.223363e-001
1.062585e+003, 2.222473e-001
1.064514e+003, 2.223339e-001
1.066442e+003, 2.225880e-001
1.068370e+003, 2.227321e-001
1.070299e+003, 2.224646e-001
1.072227e+003, 2.213855e-001
1.074156e+003, 2.193057e-001
1.076084e+003, 2.161182e-001
1.078013e+003, 2.125221e-001
1.079941e+003, 2.104762e-001
1.081870e+003, 2.108562e-001
1.083798e+003, 2.115567e-001
1.085727e+003, 2.103633e-001
1.087655e+003, 2.066576e-001
1.089584e+003, 2.008933e-001
1.091512e+003, 1.938048e-001
1.093441e+003, 1.858475e-001
1.095369e+003, 1.776691e-001
1.097297e+003, 1.697111e-001
1.099226e+003, 1.619095e-001
1.101154e+003, 1.546630e-001
1.103083e+003, 1.477834e-001
1.105011e+003, 1.416240e-001
1.106940e+003, 1.358846e-001
1.108868e+003, 1.304287e-001
1.110797e+003, 1.254548e-001
1.112725e+003, 1.208584e-001
1.114654e+003, 1.165472e-001
1.116582e+003, 1.126462e-001
1.118511e+003, 1.091966e-001
1.120439e+003, 1.061714e-001
1.122368e+003, 1.036514e-001
1.124296e+003, 1.014772e-001
1.126224e+003, 9.960141e-002
1.128153e+003, 9.806930e-002
1.130081e+003, 9.684402e-002
1.132010e+003, 9.578180e-002
1.133938e+003, 9.464332e-002
1.135867e+003, 9.347887e-002
1.137795e+003, 9.240083e-002
1.139724e+003, 9.135756e-002
1.141652e+003, 9.031609e-002
1.143581e+003, 8.918241e-002
1.145509e+003, 8.804853e-002
1.147438e+003, 8.661344e-002
1.149366e+003, 8.502323e-002
1.151295e+003, 8.338583e-002
1.153223e+003, 8.171049e-002
1.155151e+003, 8.000280e-002
1.157080e+003, 7.810924e-002
1.159008e+003, 7.595584e-002
1.160937e+003, 7.357262e-002
1.162865e+003, 7.123619e-002
1.164794e+003, 6.884427e-002
1.166722e+003, 6.627063e-002
1.168651e+003, 6.353821e-002
1.170579e+003, 6.063556e-002
1.172508e+003, 5.770700e-002
1.174436e+003, 5.475010e-002
1.176365e+003, 5.156599e-002
1.178293e+003, 4.827142e-002
1.180222e+003, 4.501494e-002
1.182150e+003, 4.183713e-002
1.184078e+003, 3.875549e-002
1.186007e+003, 3.580042e-002
1.187935e+003, 3.296811e-002
1.189864e+003, 3.027194e-002
1.191792e+003, 2.771389e-002
1.193721e+003, 2.535793e-002
1.195649e+003, 2.309128e-002
1.197578e+003, 2.088055e-002
1.199506e+003, 1.876947e-002
1.201435e+003, 1.685911e-002
1.203363e+003, 1.519681e-002
1.205292e+003, 1.377334e-002
1.207220e+003, 1.241567e-002
1.209149e+003, 1.127463e-002
1.211077e+003, 1.022769e-002
1.213005e+003, 9.346357e-003
1.214934e+003, 8.665268e-003
1.216862e+003, 8.005274e-003
1.218791e+003, 7.487908e-003
1.220719e+003, 6.957636e-003
1.222648e+003, 6.493653e-003
1.224576e+003, 6.162967e-003
1.226505e+003, 5.826578e-003
1.228433e+003, 5.324579e-003
1.230362e+003, 4.860662e-003
1.232290e+003, 4.578491e-003
1.234219e+003, 4.364738e-003
1.236147e+003, 4.065287e-003
1.238076e+003, 3.766718e-003
1.240004e+003, 3.545978e-003
1.241932e+003, 3.296222e-003
1.243861e+003, 3.027938e-003
1.245789e+003, 2.714467e-003
1.247718e+003, 2.521963e-003
1.249646e+003, 2.485327e-003
1.251575e+003, 2.260497e-003
1.253503e+003, 1.991248e-003
1.255432e+003, 1.909014e-003
1.257360e+003, 1.943120e-003
1.259289e+003, 1.872644e-003
1.261217e+003, 1.801707e-003
1.263146e+003, 1.733363e-003
1.265074e+003, 1.656576e-003
1.267003e+003, 1.547775e-003
1.268931e+003, 1.413578e-003
1.270859e+003, 1.384726e-003
1.272788e+003, 1.385633e-003
1.274716e+003, 1.383446e-003
1.276645e+003, 1.258757e-003
1.278573e+003, 1.132944e-003
1.280502e+003, 1.080693e-003
1.282430e+003, 1.036890e-003
1.284359e+003, 1.032728e-003
1.286287e+003, 1.102162e-003
1.288216e+003, 1.077416e-003
1.290144e+003, 9.803991e-004
1.292073e+003, 9.480610e-004
1.294001e+003, 9.596050e-004
1.295930e+003, 8.563896e-004
1.297858e+003, 7.630069e-004
1.299786e+003, 7.832826e-004
1.301715e+003, 7.427648e-004
1.303643e+003, 5.792347e-004
1.305572e+003, 5.519809e-004
1.307500e+003, 8.576697e-004
1.309429e+003, 8.906890e-004
1.311357e+003, 8.008826e-004
1.313286e+003, 8.310351e-004
1.315214e+003, 8.713559e-004
1.317143e+003, 8.520904e-004
1.319071e+003, 6.676938e-004
1.321000e+003, 5.725390e-004
1.322928e+003, 7.298114e-004
1.324857e+003, 7.761415e-004
1.326785e+003, 6.335191e-004
1.328714e+003, 4.622836e-004
1.330642e+003, 4.637940e-004
1.332570e+003, 5.605760e-004
1.334499e+003, 6.051565e-004
1.336427e+003, 5.127807e-004
1.338356e+003, 5.237703e-004
1.340284e+003, 5.898240e-004
1.342213e+003, 5.133575e-004
1.344141e+003, 5.064715e-004
1.346070e+003, 3.767425e-004
1.347998e+003, 4.059346e-004
1.349927e+003, 4.720039e-004
1.351855e+003, 4.841089e-004
1.353784e+003, 4.746600e-004
1.355712e+003, 4.989383e-004
1.357641e+003, 5.256316e-004
1.359569e+003, 5.121832e-004
1.361497e+003, 5.693106e-004
1.363426e+003, 4.377438e-004
1.365354e+003, 3.662533e-004
1.367283e+003, 4.344142e-004
1.369211e+003, 3.964028e-004
1.371140e+003, 3.758266e-004
1.373068e+003, 3.386737e-004
1.374997e+003, 3.953200e-004
1.376925e+003, 3.871653e-004
1.378854e+003, 3.728101e-004
1.380782e+003, 4.412284e-004
1.382711e+003, 4.347041e-004
1.384639e+003, 4.440855e-004
1.386568e+003, 5.122563e-004
1.388496e+003, 5.523036e-004
1.390424e+003, 5.119490e-004
1.392353e+003, 5.235226e-004
1.394281e+003, 7.235715e-004
1.396210e+003, 7.928588e-004
1.398138e+003, 6.271873e-004
1.400067e+003, 6.260240e-004
1.401995e+003, 6.716820e-004
1.403924e+003, 7.982198e-004
1.405852e+003, 9.511192e-004
1.407781e+003, 9.104437e-004
1.409709e+003, 8.034753e-004
1.411638e+003, 8.630359e-004
1.413566e+003, 8.275097e-004
1.415495e+003, 7.099472e-004
1.417423e+003, 7.116793e-004
1.419351e+003, 7.689777e-004
1.421280e+003, 9.257013e-004
1.423208e+003, 9.578628e-004
1.425137e+003, 1.060151e-003
1.427065e+003, 9.387038e-004
1.428994e+003, 7.245147e-004
1.430922e+003, 6.573982e-004
1.432851e+003, 6.838737e-004
1.434779e+003, 6.303268e-004
1.436708e+003, 6.185684e-004
1.438636e+003, 5.898816e-004
1.440565e+003, 5.452623e-004
1.442493e+003, 5.999755e-004
1.444422e+003, 5.674073e-004
1.446350e+003, 4.233991e-004
1.448278e+003, 3.456752e-004
1.450207e+003, 4.054823e-004
1.452135e+003, 3.518378e-004
1.454064e+003, 1.935659e-004
1.455992e+003, 4.664998e-006
1.457921e+003, 9.551150e-005
1.459849e+003, 2.677607e-004
1.461778e+003, 1.542858e-004
1.463706e+003, 2.456961e-005
1.465635e+003, -5.170679e-005
1.467563e+003, -6.025627e-005
1.469492e+003, -3.382353e-005
1.471420e+003, -3.278779e-006
1.473349e+003, 1.508212e-004
1.475277e+003, 3.066443e-004
1.477205e+003, 3.661696e-004
1.479134e+003, 4.137531e-004
1.481062e+003, 4.704007e-004
1.482991e+003, 5.381167e-004
1.484919e+003, 5.692237e-004
1.486848e+003, 5.189629e-004
1.488776e+003, 4.161032e-004
1.490705e+003, 3.851371e-004
1.492633e+003, 4.122408e-004
1.494562e+003, 3.557257e-004
1.496490e+003, 3.565148e-004
1.498419e+003, 4.002194e-004
1.500347e+003, 3.478947e-004
1.502276e+003, 2.888654e-004
1.504204e+003, 2.809433e-004
1.506132e+003, 1.369234e-004
1.508061e+003, 3.071157e-004
1.509989e+003, 4.204743e-004
1.511918e+003, 4.178885e-004
1.513846e+003, 4.870202e-004
1.515775e+003, 4.612909e-004
1.517703e+003, 4.595488e-004
1.519632e+003, 3.931606e-004
1.521560e+003, 2.930074e-004
1.523489e+003, 4.383669e-004
1.525417e+003, 6.440730e-004
1.527346e+003, 6.123043e-004
1.529274e+003, 6.110870e-004
1.531203e+003, 6.550098e-004
1.533131e+003, 4.382830e-004
1.535059e+003, 3.657312e-004
1.536988e+003, 4.189686e-004
1.538916e+003, 3.580058e-004
1.540845e+003, 3.957330e-004
1.542773e+003, 4.497599e-004
1.544702e+003, 4.729088e-004
1.546630e+003, 6.249271e-004
1.548559e+003, 7.052926e-004
1.550487e+003, 7.562009e-004
1.552416e+003, 7.307679e-004
1.554344e+003, 8.079739e-004
1.556273e+003, 9.156867e-004
1.558201e+003, 8.092382e-004
1.560130e+003, 7.522591e-004
1.562058e+003, 1.049773e-003
1.563986e+003, 1.240055e-003
1.565915e+003, 1.239238e-003
1.567843e+003, 1.233107e-003
1.569772e+003, 1.331853e-003
1.571700e+003, 1.333014e-003
1.573629e+003, 1.196155e-003
1.575557e+003, 1.188202e-003
1.577486e+003, 1.380784e-003
1.579414e+003, 1.483361e-003
1.581343e+003, 1.399584e-003
1.583271e+003, 1.441237e-003
1.585200e+003, 1.525522e-003
1.587128e+003, 1.624354e-003
1.589057e+003, 1.694395e-003
1.590985e+003, 1.711984e-003
1.592913e+003, 1.788503e-003
1.594842e+003, 1.901665e-003
1.596770e+003, 1.984127e-003
1.598699e+003, 2.059407e-003
1.600627e+003, 2.092368e-003
1.602556e+003, 2.057703e-003
1.604484e+003, 2.074894e-003
1.606413e+003, 2.167238e-003
1.608341e+003, 2.060371e-003
1.610270e+003, 2.037530e-003
1.612198e+003, 2.180398e-003
1.614127e+003, 2.249586e-003
1.616055e+003, 2.127435e-003
1.617984e+003, 2.270440e-003
1.619912e+003, 2.490073e-003
1.621840e+003, 2.529494e-003
1.623769e+003, 2.549619e-003
1.625697e+003, 2.622226e-003
1.627626e+003, 2.615747e-003
1.629554e+003, 2.680576e-003
1.631483e+003, 2.702741e-003
1.633411e+003, 2.722237e-003
1.635340e+003, 2.778760e-003
1.637268e+003, 2.773979e-003
1.639197e+003, 2.610643e-003
1.641125e+003, 2.567428e-003
1.643054e+003, 2.780544e-003
1.644982e+003, 2.949293e-003
1.646911e+003, 2.801761e-003
1.648839e+003, 2.568096e-003
1.650767e+003, 2.346467e-003
1.652696e+003, 2.279388e-003
1.654624e+003, 2.298047e-003
1.656553e+003, 2.238622e-003
1.658481e+003, 2.100520e-003
1.660410e+003, 2.135247e-003
1.662338e+003, 2.133203e-003
1.664267e+003, 2.049190e-003
1.666195e+003, 1.981650e-003
1.668124e+003, 1.797136e-003
1.670052e+003, 1.691779e-003
1.671981e+003, 1.639547e-003
1.673909e+003, 1.404681e-003
1.675838e+003, 1.185308e-003
1.677766e+003, 1.230056e-003
1.679694e+003, 1.282768e-003
1.681623e+003, 1.367353e-003
1.683551e+003, 1.331431e-003
1.685480e+003, 1.446826e-003
1.687408e+003, 1.341388e-003
1.689337e+003, 1.275026e-003
1.691265e+003, 1.188757e-003
1.693194e+003, 1.034037e-003
1.695122e+003, 1.025933e-003
1.697051e+003, 1.008698e-003
1.698979e+003, 7.995683e-004
1.700908e+003, 7.790480e-004
1.702836e+003, 9.339799e-004
1.704765e+003, 9.310333e-004
1.706693e+003, 9.176600e-004
1.708621e+003, 8.655313e-004
1.710550e+003, 7.062397e-004
1.712478e+003, 5.835874e-004
1.714407e+003, 4.471502e-004
1.716335e+003, 2.141753e-004
1.718264e+003, 2.474025e-004
1.720192e+003, 2.517412e-004
1.722121e+003, 1.306286e-004
1.724049e+003, 2.538398e-005
1.725978e+003, -1.084428e-004
1.727906e+003, -3.118506e-004
1.729835e+003, -3.147054e-004
1.731763e+003, -2.970322e-004
1.733692e+003, -5.997792e-004
1.735620e+003, -6.063609e-004
1.737548e+003, -5.413917e-004
1.739477e+003, -7.265424e-004
1.741405e+003, -6.847327e-004
1.743334e+003, -6.329569e-004
1.745262e+003, -8.323148e-004
1.747191e+003, -9.895666e-004
1.749119e+003, -7.187470e-004
1.751048e+003, -5.126808e-004
1.752976e+003, -9.078925e-005
1.754905e+003, 2.099420e-004
1.756833e+003, 2.854221e-004
1.758762e+003, 4.029952e-004
1.760690e+003, 4.929979e-004
1.762619e+003, 7.604267e-004
1.764547e+003, 9.776704e-004
1.766475e+003, 9.119518e-004
1.768404e+003, 7.495480e-004
1.770332e+003, 9.044088e-004
1.772261e+003, 1.002306e-003
1.774189e+003, 8.802287e-004
1.776118e+003, 7.676711e-004
1.778046e+003, 9.789646e-004
1.779975e+003, 1.077548e-003
1.781903e+003, 1.019437e-003
1.783832e+003, 8.994833e-004
1.785760e+003, 8.740575e-004
1.787689e+003, 8.787479e-004
1.789617e+003, 9.459109e-004
1.791546e+003, 9.725086e-004
1.793474e+003, 8.973040e-004
1.795402e+003, 9.442109e-004
1.797331e+003, 1.263647e-003
1.799259e+003, 1.337400e-003
1.801188e+003, 1.269263e-003
1.803116e+003, 1.140382e-003
1.805045e+003, 8.391549e-004
1.806973e+003, 8.234133e-004
1.808902e+003, 7.935974e-004
1.810830e+003, 7.044427e-004
1.812759e+003, 8.397711e-004
1.814687e+003, 7.836791e-004
1.816616e+003, 6.195867e-004
1.818544e+003, 7.044562e-004
1.820473e+003, 8.483251e-004
1.822401e+003, 9.885330e-004
1.824329e+003, 7.013896e-004
1.826258e+003, 4.425605e-004
1.828186e+003, 3.409853e-004
1.830115e+003, 1.265267e-004
1.832043e+003, 1.875832e-004
1.833972e+003, 3.272397e-004
1.835900e+003, 2.835530e-004
1.837829e+003, 2.725480e-004
1.839757e+003, 3.428684e-004
1.841686e+003, 4.834236e-004
1.843614e+003, 4.428233e-004
1.845543e+003, 5.394399e-004
1.847471e+003, 4.845372e-004
1.849400e+003, 4.525757e-004
1.851328e+003, 3.171402e-004
1.853256e+003, 2.163316e-004
1.855185e+003, 4.910945e-004
1.857113e+003, 7.582182e-004
1.859042e+003, 3.814253e-004
1.860970e+003, 2.832077e-005
1.862899e+003, 4.835601e-004
1.864827e+003, 6.606848e-004
1.866756e+003, 5.303605e-004
1.868684e+003, 4.668674e-004
1.870613e+003, 4.816444e-004
1.872541e+003, 6.216187e-004
1.874470e+003, 6.271388e-004
1.876398e+003, 4.486191e-004
1.878327e+003, -1.024004e-004
1.880255e+003, -3.296920e-004
1.882183e+003, -5.481377e-005
1.884112e+003, -2.024317e-004
1.886040e+003, -9.560918e-005
1.887969e+003, 6.057654e-004
1.889897e+003, 7.902133e-004
1.891826e+003, 3.543083e-004
1.893754e+003, 1.965425e-004
1.895683e+003, -1.501828e-005
1.897611e+003, -2.270793e-004
1.899540e+003, 1.998770e-004
1.901468e+003, 3.749293e-004
1.903397e+003, 3.768266e-004
1.905325e+003, 4.989445e-004
1.907254e+003, 7.994432e-004
1.909182e+003, 5.632972e-004
1.911110e+003, 4.061315e-004
1.913039e+003, 3.512482e-004
1.914967e+003, -1.272691e-004
1.916896e+003, -3.786566e-004
1.918824e+003, -2.687805e-004
1.920753e+003, -2.307739e-004
1.922681e+003, -1.872594e-004
1.924610e+003, -4.499309e-004
1.926538e+003, -3.906518e-004
1.928467e+003, -2.785790e-004
1.930395e+003, -2.416460e-004
1.932324e+003, -3.300097e-004
1.934252e+003, -6.951753e-004
1.936181e+003, -7.928000e-004
1.938109e+003, -1.960201e-005
1.940037e+003, 1.988333e-004
1.941966e+003, 4.634196e-004
1.943894e+003, 1.054483e-004
1.945823e+003, -2.258432e-004
1.947751e+003, 6.912211e-004
1.949680e+003, 1.077227e-003
1.951608e+003, -1.066977e-004
1.953537e+003, -5.734996e-004
1.955465e+003, 4.326303e-004
1.957394e+003, 9.849371e-004
1.959322e+003, 2.897866e-004
1.961251e+003, -3.434625e-005
1.963179e+003, -7.775752e-005
1.965108e+003, -5.433036e-004
1.967036e+003, -2.444740e-004
1.968964e+003, -2.711988e-005
1.970893e+003, -1.392616e-004
1.972821e+003, 6.068817e-004
1.974750e+003, 5.967009e-004
1.976678e+003, 1.127199e-003
1.978607e+003, 2.123800e-003
1.980535e+003, 1.512239e-003
1.982464e+003, 8.959169e-004
1.984392e+003, 1.218244e-003
1.986321e+003, 1.803928e-003
1.988249e+003, 1.824247e-003
1.990178e+003, 1.435330e-003
1.992106e+003, 1.275204e-003
1.994035e+003, 3.088503e-004
1.995963e+003, -5.058278e-004
1.997891e+003, -2.641508e-004
1.999820e+003, 5.239563e-004
2.001748e+003, -7.964903e-006
2.003677e+003, -1.406931e-003
2.005605e+003, -9.586867e-004
2.007534e+003, 5.167676e-005
2.009462e+003, 3.747144e-004
2.011391e+003, 4.106620e-004
2.013319e+003, -2.718265e-004
2.015248e+003, -1.611924e-004
2.017176e+003, -5.615237e-004
2.019105e+003, -1.381125e-003
2.021033e+003, -1.655886e-003
2.022962e+003, -1.586147e-003
2.024890e+003, -9.510415e-004
2.026818e+003, -1.414609e-004
2.028747e+003, -3.355015e-004
2.030675e+003, -4.101624e-004
2.032604e+003, -5.356902e-004
2.034532e+003, -4.551443e-004
2.036461e+003, -7.348068e-004
2.038389e+003, -8.582755e-004
2.040318e+003, -1.081272e-004
2.042246e+003, 1.017412e-004
2.044175e+003, 1.414365e-004
2.046103e+003, -1.190763e-004
2.048031e+003, -6.751288e-004
2.049960e+003, 8.157541e-004
2.051888e+003, 3.798970e-004
2.053817e+003, -7.437041e-004
2.055745e+003, -8.413757e-004
2.057674e+003, -6.011350e-004
2.059602e+003, -8.453757e-004
2.061531e+003, -7.927893e-004
2.063459e+003, -5.571966e-004
2.065388e+003, -6.013318e-004
2.067316e+003, -4.312838e-006
2.069245e+003, 5.377061e-004
2.071173e+003, 3.881800e-004
2.073102e+003, 1.902180e-004
2.075030e+003, 2.317264e-004
2.076958e+003, 3.548058e-004
2.078887e+003, -1.841836e-004
2.080815e+003, -1.425715e-004
2.082744e+003, 4.004848e-004
2.084672e+003, 5.528855e-004
2.086601e+003, 1.308038e-004
2.088529e+003, -4.829182e-004
2.090458e+003, -4.347012e-004
2.092386e+003, -6.020565e-004
2.094315e+003, -3.337773e-004
2.096243e+003, 1.133989e-004
2.098172e+003, 9.485497e-005
2.100100e+003, 4.099912e-004
2.102029e+003, -4.673901e-005
2.103957e+003, 8.589181e-005
2.105885e+003, 7.326078e-004
2.107814e+003, 5.926448e-005
2.109742e+003, -3.431852e-004
2.111671e+003, 1.090822e-004
2.113599e+003, 3.516902e-004
2.115528e+003, 3.693937e-004
2.117456e+003, 8.260563e-005
2.119385e+003, -7.454799e-004
2.121313e+003, -1.142010e-003
2.123242e+003, -3.325486e-004
2.125170e+003, -6.287382e-004
2.127099e+003, -1.462491e-003
2.129027e+003, -2.113280e-003
2.130956e+003, -2.159944e-003
2.132884e+003, -1.657828e-003
2.134813e+003, -1.012001e-003
2.136741e+003, -7.691458e-004
2.138669e+003, -1.669955e-003
2.140598e+003, -1.846504e-003
2.142526e+003, -1.391825e-003
2.144455e+003, -1.902045e-003
2.146383e+003, -1.896772e-003
2.148312e+003, -1.631198e-003
2.150240e+003, -1.643591e-003
2.152169e+003, -2.001657e-003
2.154097e+003, -8.735773e-004
2.156026e+003, -1.089681e-003
2.157954e+003, -1.340606e-004
2.159883e+003, 1.808263e-003
2.161811e+003, 1.101158e-003
2.163740e+003, 6.729451e-004
2.165668e+003, 9.704304e-004
2.167596e+003, 7.281634e-004
2.169525e+003, 1.351373e-003
2.171453e+003, 1.131229e-003
2.173382e+003, -4.718127e-005
2.175310e+003, -4.973733e-004
2.177239e+003, -2.958765e-004
2.179167e+003, -9.966954e-004
2.181096e+003, 2.930674e-004
2.183024e+003, 2.040881e-003
2.184953e+003, 2.496064e-003
2.186881e+003, 1.994094e-003
2.188810e+003, 1.556604e-003
2.190738e+003, 4.970415e-004
2.192667e+003, 2.920730e-004
2.194595e+003, 1.512763e-003
2.196523e+003, 2.250713e-003
2.198452e+003, 2.125749e-003
2.200380e+003, 1.514167e-003
2.202309e+003, 1.133268e-003
2.204237e+003, 1.325893e-003
2.206166e+003, 1.820756e-003
2.208094e+003, 2.360826e-003
2.210023e+003, 2.436409e-003
2.211951e+003, 2.357399e-003
2.213880e+003, 2.126614e-003
2.215808e+003, 1.990558e-003
2.217737e+003, 2.363135e-003
2.219665e+003, 2.539340e-003
2.221594e+003, 2.528928e-003
2.223522e+003, 2.279721e-003
2.225450e+003, 1.476406e-003
2.227379e+003, 7.749536e-004
2.229307e+003, 1.258002e-003
2.231236e+003, 1.885523e-003
2.233164e+003, 2.442834e-003
2.235093e+003, 2.775873e-003
2.237021e+003, 2.860019e-003
2.238950e+003, 2.222573e-003
2.240878e+003, 1.741398e-003
2.242807e+003, 1.883217e-003
2.244735e+003, 2.169935e-003
2.246664e+003, 2.508156e-003
2.248592e+003, 2.603257e-003
2.250521e+003, 2.969672e-003
2.252449e+003, 2.538490e-003
2.254377e+003, 2.470646e-003
2.256306e+003, 2.455529e-003
2.258234e+003, 2.034399e-003
2.260163e+003, 1.684696e-003
2.262091e+003, 1.466465e-003
2.264020e+003, 1.657025e-003
2.265948e+003, 1.806285e-003
2.267877e+003, 1.639481e-003
2.269805e+003, 2.158395e-003
2.271734e+003, 2.729659e-003
2.273662e+003, 3.312621e-003
2.275591e+003, 3.193684e-003
2.277519e+003, 2.344314e-003
2.279448e+003, 2.335979e-003
2.281376e+003, 2.688009e-003
2.283304e+003, 2.762548e-003
2.285233e+003, 3.100425e-003
2.287161e+003, 2.956806e-003
2.289090e+003, 2.633216e-003
2.291018e+003, 2.718161e-003
2.292947e+003, 2.546964e-003
2.294875e+003, 2.252782e-003
2.296804e+003, 2.161026e-003
2.298732e+003, 2.079553e-003
2.300661e+003, 2.019479e-003
2.302589e+003, 2.197387e-003
2.304518e+003, 2.060883e-003
2.306446e+003, 1.897925e-003
2.308375e+003, 1.911116e-003
2.310303e+003, 1.623985e-003
2.312231e+003, 1.751009e-003
2.314160e+003, 2.079797e-003
2.316088e+003, 2.267689e-003
2.318017e+003, 2.384040e-003
2.319945e+003, 2.718576e-003
2.321874e+003, 3.061797e-003
2.323802e+003, 3.170513e-003
2.325731e+003, 2.897102e-003
2.327659e+003, 2.559765e-003
2.329588e+003, 2.339295e-003
2.331516e+003, 1.935025e-003
2.333445e+003, 2.143879e-003
2.335373e+003, 2.784322e-003
2.337302e+003, 2.688096e-003
2.339230e+003, 2.368957e-003
2.341158e+003, 2.449723e-003
2.343087e+003, 2.304628e-003
2.345015e+003, 1.725471e-003
2.346944e+003, 1.541054e-003
2.348872e+003, 1.577656e-003
2.350801e+003, 1.649854e-003
2.352729e+003, 1.725312e-003
2.354658e+003, 2.320745e-003
2.356586e+003, 2.731872e-003
2.358515e+003, 2.649952e-003
2.360443e+003, 2.591424e-003
2.362372e+003, 2.740305e-003
2.364300e+003, 3.053867e-003
2.366229e+003, 2.874919e-003
2.368157e+003, 2.739809e-003
2.370085e+003, 2.505439e-003
2.372014e+003, 2.386806e-003
2.373942e+003, 2.443268e-003
2.375871e+003, 2.232103e-003
2.377799e+003, 2.045330e-003
2.379728e+003, 1.744424e-003
2.381656e+003, 1.541010e-003
2.383585e+003, 1.544123e-003
2.385513e+003, 1.886155e-003
2.387442e+003, 2.096871e-003
2.389370e+003, 2.152687e-003
2.391299e+003, 2.134908e-003
2.393227e+003, 2.054231e-003
2.395156e+003, 2.023617e-003
2.397084e+003, 1.868480e-003
2.399012e+003, 2.068555e-003
2.400941e+003, 2.449979e-003
2.402869e+003, 2.076528e-003
2.404798e+003, 2.049972e-003
2.406726e+003, 2.585410e-003
2.408655e+003, 3.197378e-003
2.410583e+003, 2.993613e-003
2.412512e+003, 2.519472e-003
2.414440e+003, 2.695572e-003
2.416369e+003, 2.671336e-003
2.418297e+003, 2.658750e-003
2.420226e+003, 2.584396e-003
2.422154e+003, 2.374379e-003
2.424083e+003, 2.743866e-003
2.426011e+003, 3.154423e-003
2.427939e+003, 3.166064e-003
2.429868e+003, 3.324974e-003
2.431796e+003, 3.581885e-003
2.433725e+003, 3.318445e-003
2.435653e+003, 3.039489e-003
2.437582e+003, 3.225241e-003
2.439510e+003, 3.399709e-003
2.441439e+003, 3.162311e-003
2.443367e+003, 3.179531e-003
2.445296e+003, 3.742913e-003
2.447224e+003, 3.586743e-003
2.449153e+003, 3.099145e-003
2.451081e+003, 3.438359e-003
2.453010e+003, 3.460415e-003
2.454938e+003, 3.388812e-003
2.456866e+003, 3.796701e-003
2.458795e+003, 3.681156e-003
2.460723e+003, 3.247855e-003
2.462652e+003, 2.836394e-003
2.464580e+003, 3.071427e-003
2.466509e+003, 3.451663e-003
2.468437e+003, 3.051588e-003
2.470366e+003, 2.526087e-003
2.472294e+003, 2.864684e-003
2.474223e+003, 3.635184e-003
2.476151e+003, 3.595157e-003
2.478080e+003, 3.433966e-003
2.480008e+003, 3.273051e-003
2.481937e+003, 3.301843e-003
2.483865e+003, 2.966118e-003
2.485793e+003, 2.497542e-003
2.487722e+003, 3.033751e-003
2.489650e+003, 3.637441e-003
2.491579e+003, 3.438518e-003
2.493507e+003, 3.667493e-003
2.495436e+003, 3.869139e-003
2.497364e+003, 3.509581e-003
2.499293e+003, 3.368346e-003
2.501221e+003, 3.397659e-003
2.503150e+003, 3.320525e-003
2.505078e+003, 3.477465e-003
2.507007e+003, 3.696184e-003
2.508935e+003, 3.573852e-003
2.510864e+003, 3.605592e-003
2.512792e+003, 3.604537e-003
2.514720e+003, 3.476524e-003
2.516649e+003, 3.592978e-003
2.518577e+003, 3.518991e-003
2.520506e+003, 3.343445e-003
2.522434e+003, 3.051982e-003
2.524363e+003, 3.029603e-003
2.526291e+003, 3.003232e-003
2.528220e+003, 3.484019e-003
2.530148e+003, 3.825492e-003
2.532077e+003, 3.305843e-003
2.534005e+003, 3.446338e-003
2.535934e+003, 3.918554e-003
2.537862e+003, 3.926627e-003
2.539791e+003, 4.000583e-003
2.541719e+003, 3.585778e-003
2.543647e+003, 3.714171e-003
2.545576e+003, 4.048632e-003
2.547504e+003, 3.886039e-003
2.549433e+003, 3.294944e-003
2.551361e+003, 3.419481e-003
2.553290e+003, 3.834918e-003
2.555218e+003, 3.899270e-003
2.557147e+003, 3.887184e-003
2.559075e+003, 4.258889e-003
2.561004e+003, 4.182747e-003
2.562932e+003, 3.957080e-003
2.564861e+003, 4.061325e-003
2.566789e+003, 4.275601e-003
2.568718e+003, 4.099274e-003
2.570646e+003, 4.045099e-003
2.572574e+003, 4.288747e-003
2.574503e+003, 4.107384e-003
2.576431e+003, 3.802350e-003
2.578360e+003, 4.092339e-003
2.580288e+003, 4.313131e-003
2.582217e+003, 4.303505e-003
2.584145e+003, 4.057345e-003
2.586074e+003, 3.947329e-003
2.588002e+003, 4.130681e-003
2.589931e+003, 4.526172e-003
2.591859e+003, 4.709622e-003
2.593788e+003, 4.686223e-003
2.595716e+003, 4.326908e-003
2.597645e+003, 3.947983e-003
2.599573e+003, 4.066603e-003
2.601501e+003, 4.138158e-003
2.603430e+003, 3.930381e-003
2.605358e+003, 3.790494e-003
2.607287e+003, 4.213870e-003
2.609215e+003, 4.381555e-003
2.611144e+003, 4.128736e-003
2.613072e+003, 4.377411e-003
2.615001e+003, 4.883505e-003
2.616929e+003, 4.976751e-003
2.618858e+003, 4.747958e-003
2.620786e+003, 4.334490e-003
2.622715e+003, 4.278400e-003
2.624643e+003, 4.426480e-003
2.626572e+003, 4.636928e-003
2.628500e+003, 4.920837e-003
2.630428e+003, 4.836858e-003
2.632357e+003, 4.708804e-003
2.634285e+003, 4.359225e-003
2.636214e+003, 4.073062e-003
2.638142e+003, 4.293294e-003
2.640071e+003, 4.340634e-003
2.641999e+003, 4.363963e-003
2.643928e+003, 4.735679e-003
2.645856e+003, 4.822260e-003
2.647785e+003, 4.741065e-003
2.649713e+003, 4.400096e-003
2.651642e+003, 4.197852e-003
2.653570e+003, 4.336048e-003
2.655499e+003, 4.502180e-003
2.657427e+003, 4.269238e-003
2.659355e+003, 4.018758e-003
2.661284e+003, 3.936051e-003
2.663212e+003, 3.748870e-003
2.665141e+003, 3.232499e-003
2.667069e+003, 3.107897e-003
2.668998e+003, 3.484771e-003
2.670926e+003, 3.563487e-003
2.672855e+003, 3.369707e-003
2.674783e+003, 3.525051e-003
2.676712e+003, 3.878173e-003
2.678640e+003, 4.065160e-003
2.680569e+003, 3.976507e-003
2.682497e+003, 3.718653e-003
2.684426e+003, 3.591726e-003
2.686354e+003, 3.632111e-003
2.688282e+003, 3.765839e-003
2.690211e+003, 3.878037e-003
2.692139e+003, 3.877266e-003
2.694068e+003, 3.603647e-003
2.695996e+003, 3.497573e-003
2.697925e+003, 3.612999e-003
2.699853e+003, 3.683279e-003
2.701782e+003, 3.689620e-003
2.703710e+003, 3.732554e-003
2.705639e+003, 3.666360e-003
2.707567e+003, 3.558510e-003
2.709496e+003, 3.675348e-003
2.711424e+003, 3.757941e-003
2.713353e+003, 3.726834e-003
2.715281e+003, 3.625018e-003
2.717209e+003, 3.691301e-003
2.719138e+003, 3.630599e-003
2.721066e+003, 3.403623e-003
2.722995e+003, 3.656000e-003
2.724923e+003, 4.081459e-003
2.726852e+003, 4.142675e-003
2.728780e+003, 3.968101e-003
2.730709e+003, 3.894331e-003
2.732637e+003, 3.628715e-003
2.734566e+003, 3.571973e-003
2.736494e+003, 4.077261e-003
2.738423e+003, 4.105213e-003
2.740351e+003, 4.003375e-003
2.742280e+003, 3.995385e-003
2.744208e+003, 3.988019e-003
2.746136e+003, 4.129716e-003
2.748065e+003, 4.160434e-003
2.749993e+003, 4.295057e-003
2.751922e+003, 4.429981e-003
2.753850e+003, 4.075543e-003
2.755779e+003, 3.999008e-003
2.757707e+003, 3.983881e-003
2.759636e+003, 3.826349e-003
2.761564e+003, 3.953908e-003
2.763493e+003, 4.317418e-003
2.765421e+003, 4.708144e-003
2.767350e+003, 4.733276e-003
2.769278e+003, 4.348870e-003
2.771207e+003, 4.296929e-003
2.773135e+003, 4.425918e-003
2.775063e+003, 4.421749e-003
2.776992e+003, 4.285509e-003
2.778920e+003, 4.379455e-003
2.780849e+003, 4.502933e-003
2.782777e+003, 4.468527e-003
2.784706e+003, 4.609290e-003
2.786634e+003, 4.524934e-003
2.788563e+003, 4.080075e-003
2.790491e+003, 3.864118e-003
2.792420e+003, 3.906837e-003
2.794348e+003, 4.371569e-003
2.796277e+003, 4.628315e-003
2.798205e+003, 4.319062e-003
2.800134e+003, 4.137094e-003
2.802062e+003, 4.583776e-003
2.803990e+003, 4.998663e-003
2.805919e+003, 4.677047e-003
2.807847e+003, 4.384005e-003
2.809776e+003, 4.526470e-003
2.811704e+003, 4.811378e-003
2.813633e+003, 4.997055e-003
2.815561e+003, 4.739307e-003
2.817490e+003, 4.484537e-003
2.819418e+003, 4.223656e-003
2.821347e+003, 4.371044e-003
2.823275e+003, 4.627011e-003
2.825204e+003, 4.582487e-003
2.827132e+003, 4.465590e-003
2.829061e+003, 4.311114e-003
2.830989e+003, 4.324066e-003
2.832917e+003, 4.196229e-003
2.834846e+003, 3.957022e-003
2.836774e+003, 4.045665e-003
2.838703e+003, 3.976653e-003
2.840631e+003, 3.804438e-003
2.842560e+003, 3.798103e-003
2.844488e+003, 3.237972e-003
2.846417e+003, 2.236512e-003
2.848345e+003, 1.492893e-003
2.850274e+003, 9.317769e-004
2.852202e+003, 4.062662e-004
2.854131e+003, 1.205490e-004
2.856059e+003, 6.967849e-004
2.857988e+003, 1.221354e-003
2.859916e+003, 1.604439e-003
2.861844e+003, 1.986817e-003
2.863773e+003, 2.667811e-003
2.865701e+003, 3.110662e-003
2.867630e+003, 3.106814e-003
2.869558e+003, 3.007255e-003
2.871487e+003, 3.116324e-003
2.873415e+003, 3.210763e-003
2.875344e+003, 3.212191e-003
2.877272e+003, 3.234179e-003
2.879201e+003, 3.475326e-003
2.881129e+003, 3.432042e-003
2.883058e+003, 3.492723e-003
2.884986e+003, 3.697753e-003
2.886915e+003, 3.782493e-003
2.888843e+003, 3.790146e-003
2.890771e+003, 3.752761e-003
2.892700e+003, 3.450701e-003
2.894628e+003, 2.815510e-003
2.896557e+003, 2.725483e-003
2.898485e+003, 3.121903e-003
2.900414e+003, 2.794596e-003
2.902342e+003, 2.207960e-003
2.904271e+003, 2.207934e-003
2.906199e+003, 1.982490e-003
2.908128e+003, 1.831288e-003
2.910056e+003, 1.619754e-003
2.911985e+003, 1.165641e-003
2.913913e+003, 6.212649e-004
2.915842e+003, -3.646838e-004
2.917770e+003, -1.185903e-003
2.919698e+003, -1.699454e-003
2.921627e+003, -2.294442e-003
2.923555e+003, -2.596870e-003
2.925484e+003, -2.460983e-003
2.927412e+003, -2.015714e-003
2.929341e+003, -1.304071e-003
2.931269e+003, -4.129295e-004
2.933198e+003, -3.394984e-006
2.935126e+003, 3.644075e-004
2.937055e+003, 1.111613e-003
2.938983e+003, 1.708917e-003
2.940912e+003, 2.154316e-003
2.942840e+003, 2.423999e-003
2.944769e+003, 2.816717e-003
2.946697e+003, 2.991416e-003
2.948625e+003, 3.079994e-003
2.950554e+003, 2.975827e-003
2.952482e+003, 2.877520e-003
2.954411e+003, 3.428390e-003
2.956339e+003, 3.406803e-003
2.958268e+003, 3.266093e-003
2.960196e+003, 3.806538e-003
2.962125e+003, 4.157481e-003
2.964053e+003, 4.218067e-003
2.965982e+003, 4.348561e-003
2.967910e+003, 4.377688e-003
2.969839e+003, 4.384425e-003
2.971767e+003, 4.585236e-003
2.973696e+003, 4.942188e-003
2.975624e+003, 5.275850e-003
2.977552e+003, 4.659450e-003
2.979481e+003, 4.540069e-003
2.981409e+003, 5.410448e-003
2.983338e+003, 6.039586e-003
2.985266e+003, 5.869553e-003
2.987195e+003, 5.274894e-003
2.989123e+003, 5.461340e-003
2.991052e+003, 5.404710e-003
2.992980e+003, 5.397096e-003
2.994909e+003, 5.699394e-003
2.996837e+003, 5.595304e-003
2.998766e+003, 5.384037e-003
3.000694e+003, 5.614686e-003
3.002623e+003, 5.854672e-003
3.004551e+003, 6.043397e-003
3.006479e+003, 5.978069e-003
3.008408e+003, 5.435824e-003
3.010336e+003, 5.655021e-003
3.012265e+003, 5.560470e-003
3.014193e+003, 4.892871e-003
3.016122e+003, 3.838649e-003
3.018050e+003, 4.132526e-003
3.019979e+003, 5.649686e-003
3.021907e+003, 6.241431e-003
3.023836e+003, 6.111691e-003
3.025764e+003, 6.027416e-003
3.027693e+003, 6.269564e-003
3.029621e+003, 6.533760e-003
3.031550e+003, 6.051399e-003
3.033478e+003, 6.082972e-003
3.035406e+003, 6.225326e-003
3.037335e+003, 6.181905e-003
3.039263e+003, 6.524053e-003
3.041192e+003, 6.719438e-003
3.043120e+003, 6.585036e-003
3.045049e+003, 6.537342e-003
3.046977e+003, 6.568628e-003
3.048906e+003, 6.686960e-003
3.050834e+003, 6.553072e-003
3.052763e+003, 6.324416e-003
3.054691e+003, 6.269678e-003
3.056620e+003, 6.252021e-003
3.058548e+003, 6.598775e-003
3.060477e+003, 6.674637e-003
3.062405e+003, 6.692566e-003
3.064333e+003, 6.499695e-003
3.066262e+003, 6.085637e-003
3.068190e+003, 6.421571e-003
3.070119e+003, 7.579345e-003
3.072047e+003, 7.600737e-003
3.073976e+003, 6.967770e-003
3.075904e+003, 6.323863e-003
3.077833e+003, 6.628432e-003
3.079761e+003, 7.001360e-003
3.081690e+003, 6.766761e-003
3.083618e+003, 6.912360e-003
3.085547e+003, 7.020526e-003
3.087475e+003, 7.480302e-003
3.089404e+003, 7.698835e-003
3.091332e+003, 7.675691e-003
3.093260e+003, 7.590143e-003
3.095189e+003, 7.463641e-003
3.097117e+003, 7.856913e-003
3.099046e+003, 7.882820e-003
3.100974e+003, 7.869907e-003
3.102903e+003, 7.805256e-003
3.104831e+003, 7.567758e-003
3.106760e+003, 7.857425e-003
3.108688e+003, 8.496650e-003
3.110617e+003, 8.558612e-003
3.112545e+003, 7.695782e-003
3.114474e+003, 7.872380e-003
3.116402e+003, 8.526061e-003
3.118331e+003, 8.399057e-003
3.120259e+003, 7.944485e-003
3.122188e+003, 8.043515e-003
3.124116e+003, 8.498764e-003
3.126044e+003, 8.549609e-003
3.127973e+003, 8.496333e-003
3.129901e+003, 9.181660e-003
3.131830e+003, 9.256017e-003
3.133758e+003, 8.933980e-003
3.135687e+003, 9.092223e-003
3.137615e+003, 8.800687e-003
3.139544e+003, 9.182795e-003
3.141472e+003, 9.635922e-003
3.143401e+003, 8.900848e-003
3.145329e+003, 8.673731e-003
3.147258e+003, 9.098517e-003
3.149186e+003, 9.286516e-003
3.151115e+003, 9.568333e-003
3.153043e+003, 9.968389e-003
3.154971e+003, 1.007332e-002
3.156900e+003, 9.703412e-003
3.158828e+003, 9.583870e-003
3.160757e+003, 9.683635e-003
3.162685e+003, 9.779946e-003
3.164614e+003, 9.855673e-003
3.166542e+003, 9.522563e-003
3.168471e+003, 9.365862e-003
3.170399e+003, 9.299275e-003
3.172328e+003, 9.624297e-003
3.174256e+003, 1.020976e-002
3.176185e+003, 1.001386e-002
3.178113e+003, 9.836731e-003
3.180042e+003, 9.918523e-003
3.181970e+003, 9.822878e-003
3.183898e+003, 1.003640e-002
3.185827e+003, 9.737738e-003
3.187755e+003, 9.984414e-003
3.189684e+003, 1.061840e-002
3.191612e+003, 1.033229e-002
3.193541e+003, 1.028422e-002
3.195469e+003, 1.064777e-002
3.197398e+003, 1.122914e-002
3.199326e+003, 1.090934e-002
3.201255e+003, 1.044300e-002
3.203183e+003, 1.030586e-002
3.205112e+003, 1.079643e-002
3.207040e+003, 1.071528e-002
3.208969e+003, 1.017299e-002
3.210897e+003, 1.067865e-002
3.212825e+003, 1.106706e-002
3.214754e+003, 1.116664e-002
3.216682e+003, 1.103008e-002
3.218611e+003, 1.087403e-002
3.220539e+003, 1.125695e-002
3.222468e+003, 1.131477e-002
3.224396e+003, 1.115122e-002
3.226325e+003, 1.090196e-002
3.228253e+003, 1.084547e-002
3.230182e+003, 1.066091e-002
3.232110e+003, 1.079414e-002
3.234039e+003, 1.122712e-002
3.235967e+003, 1.101806e-002
3.237896e+003, 1.061451e-002
3.239824e+003, 1.116494e-002
3.241752e+003, 1.139079e-002
3.243681e+003, 1.083749e-002
3.245609e+003, 1.102228e-002
3.247538e+003, 1.127519e-002
3.249466e+003, 1.126448e-002
3.251395e+003, 1.186524e-002
3.253323e+003, 1.205965e-002
3.255252e+003, 1.169683e-002
3.257180e+003, 1.156324e-002
3.259109e+003, 1.198589e-002
3.261037e+003, 1.240597e-002
3.262966e+003, 1.206660e-002
3.264894e+003, 1.139174e-002
3.266823e+003, 1.125484e-002
3.268751e+003, 1.140642e-002
3.270679e+003, 1.156333e-002
3.272608e+003, 1.188191e-002
3.274536e+003, 1.190779e-002
3.276465e+003, 1.196677e-002
3.278393e+003, 1.136243e-002
3.280322e+003, 1.156936e-002
3.282250e+003, 1.190638e-002
3.284179e+003, 1.190862e-002
3.286107e+003, 1.197935e-002
3.288036e+003, 1.206951e-002
3.289964e+003, 1.213360e-002
3.291893e+003, 1.239259e-002
3.293821e+003, 1.250704e-002
3.295750e+003, 1.217683e-002
3.297678e+003, 1.175543e-002
3.299606e+003, 1.187866e-002
3.301535e+003, 1.199487e-002
3.303463e+003, 1.179181e-002
3.305392e+003, 1.162253e-002
3.307320e+003, 1.164926e-002
3.309249e+003, 1.220217e-002
3.311177e+003, 1.282899e-002
3.313106e+003, 1.293555e-002
3.315034e+003, 1.258931e-002
3.316963e+003, 1.183392e-002
3.318891e+003, 1.131664e-002
3.320820e+003, 1.153102e-002
3.322748e+003, 1.213074e-002
3.324677e+003, 1.239548e-002
3.326605e+003, 1.248978e-002
3.328533e+003, 1.233758e-002
3.330462e+003, 1.242894e-002
3.332390e+003, 1.251126e-002
3.334319e+003, 1.225873e-002
3.336247e+003, 1.242397e-002
3.338176e+003, 1.289069e-002
3.340104e+003, 1.278956e-002
3.342033e+003, 1.255350e-002
3.343961e+003, 1.224736e-002
3.345890e+003, 1.230559e-002
3.347818e+003, 1.270412e-002
3.349747e+003, 1.287665e-002
3.351675e+003, 1.263823e-002
3.353604e+003, 1.271361e-002
3.355532e+003, 1.288351e-002
3.357460e+003, 1.314274e-002
3.359389e+003, 1.409051e-002
3.361317e+003, 1.413545e-002
3.363246e+003, 1.277782e-002
3.365174e+003, 1.200235e-002
3.367103e+003, 1.222280e-002
3.369031e+003, 1.257999e-002
3.370960e+003, 1.330867e-002
3.372888e+003, 1.311686e-002
3.374817e+003, 1.295069e-002
3.376745e+003, 1.349972e-002
3.378674e+003, 1.406846e-002
3.380602e+003, 1.411104e-002
3.382531e+003, 1.435829e-002
3.384459e+003, 1.452587e-002
3.386387e+003, 1.381790e-002
3.388316e+003, 1.344534e-002
3.390244e+003, 1.350600e-002
3.392173e+003, 1.302064e-002
3.394101e+003, 1.243372e-002
3.396030e+003, 1.269949e-002
3.397958e+003, 1.287712e-002
3.399887e+003, 1.291212e-002
3.401815e+003, 1.279559e-002
3.403744e+003, 1.284636e-002
3.405672e+003, 1.307956e-002
3.407601e+003, 1.333298e-002
3.409529e+003, 1.334516e-002
3.411458e+003, 1.314761e-002
3.413386e+003, 1.299605e-002
3.415314e+003, 1.278339e-002
3.417243e+003, 1.288638e-002
3.419171e+003, 1.303075e-002
3.421100e+003, 1.309181e-002
3.423028e+003, 1.275250e-002
3.424957e+003, 1.263133e-002
3.426885e+003, 1.219817e-002
3.428814e+003, 1.243948e-002
3.430742e+003, 1.296841e-002
3.432671e+003, 1.333642e-002
3.434599e+003, 1.355951e-002
3.436528e+003, 1.284360e-002
3.438456e+003, 1.215685e-002
3.440385e+003, 1.234510e-002
3.442313e+003, 1.253979e-002
3.444241e+003, 1.249395e-002
3.446170e+003, 1.226639e-002
3.448098e+003, 1.244508e-002
3.450027e+003, 1.227173e-002
3.451955e+003, 1.223046e-002
3.453884e+003, 1.207574e-002
3.455812e+003, 1.165715e-002
3.457741e+003, 1.176613e-002
3.459669e+003, 1.242232e-002
3.461598e+003, 1.250298e-002
3.463526e+003, 1.290097e-002
3.465455e+003, 1.361402e-002
3.467383e+003, 1.281814e-002
3.469312e+003, 1.213837e-002
3.471240e+003, 1.209558e-002
3.473168e+003, 1.208439e-002
3.475097e+003, 1.242931e-002
3.477025e+003, 1.288635e-002
3.478954e+003, 1.265131e-002
3.480882e+003, 1.176010e-002
3.482811e+003, 1.216157e-002
3.484739e+003, 1.227256e-002
3.486668e+003, 1.141550e-002
3.488596e+003, 1.126164e-002
3.490525e+003, 1.194318e-002
3.492453e+003, 1.172803e-002
3.494382e+003, 1.147266e-002
3.496310e+003, 1.151841e-002
3.498239e+003, 1.179722e-002
3.500167e+003, 1.171008e-002
3.502095e+003, 1.159955e-002
3.504024e+003, 1.182726e-002
3.505952e+003, 1.189214e-002
3.507881e+003, 1.176956e-002
3.509809e+003, 1.134302e-002
3.511738e+003, 1.130912e-002
3.513666e+003, 1.118006e-002
3.515595e+003, 1.113229e-002
3.517523e+003, 1.117992e-002
3.519452e+003, 1.108827e-002
3.521380e+003, 1.075530e-002
3.523309e+003, 1.081452e-002
3.525237e+003, 1.049518e-002
3.527166e+003, 1.012038e-002
3.529094e+003, 1.061466e-002
3.531022e+003, 1.108643e-002
3.532951e+003, 1.065388e-002
3.534879e+003, 9.926369e-003
3.536808e+003, 1.020021e-002
3.538736e+003, 1.073153e-002
3.540665e+003, 1.036550e-002
3.542593e+003, 1.010842e-002
3.544522e+003, 1.007003e-002
3.546450e+003, 1.004021e-002
3.548379e+003, 1.035833e-002
3.550307e+003, 1.037990e-002
3.552236e+003, 9.560298e-003
3.554164e+003, 9.180987e-003
3.556093e+003, 9.271381e-003
3.558021e+003, 9.453215e-003
3.559949e+003, 9.379847e-003
3.561878e+003, 9.552079e-003
3.563806e+003, 1.046853e-002
3.565735e+003, 1.050460e-002
3.567663e+003, 9.758621e-003
3.569592e+003, 9.436459e-003
3.571520e+003, 9.041653e-003
3.573449e+003, 8.873345e-003
3.575377e+003, 8.970197e-003
3.577306e+003, 9.353661e-003
3.579234e+003, 9.191168e-003
3.581163e+003, 9.132704e-003
3.583091e+003, 9.004069e-003
3.585020e+003, 8.447574e-003
3.586948e+003, 8.251333e-003
3.588876e+003, 8.672636e-003
3.590805e+003, 8.835898e-003
3.592733e+003, 8.055228e-003
3.594662e+003, 7.633479e-003
3.596590e+003, 7.699211e-003
3.598519e+003, 7.734946e-003
3.600447e+003, 7.787718e-003
3.602376e+003, 7.936886e-003
3.604304e+003, 8.244673e-003
3.606233e+003, 8.428154e-003
3.608161e+003, 8.050317e-003
3.610090e+003, 7.391770e-003
3.612018e+003, 6.737844e-003
3.613947e+003, 7.440369e-003
3.615875e+003, 7.557700e-003
3.617803e+003, 7.281786e-003
3.619732e+003, 6.769411e-003
3.621660e+003, 6.693672e-003
3.623589e+003, 6.725305e-003
3.625517e+003, 7.082001e-003
3.627446e+003, 6.799613e-003
3.629374e+003, 6.293487e-003
3.631303e+003, 6.120186e-003
3.633231e+003, 6.240266e-003
3.635160e+003, 6.162031e-003
3.637088e+003, 5.883888e-003
3.639017e+003, 6.516902e-003
3.640945e+003, 5.878904e-003
3.642874e+003, 5.287608e-003
3.644802e+003, 6.209453e-003
3.646730e+003, 6.353299e-003
3.648659e+003, 4.959685e-003
3.650587e+003, 5.168190e-003
3.652516e+003, 5.494490e-003
3.654444e+003, 5.824225e-003
3.656373e+003, 5.533519e-003
3.658301e+003, 5.109751e-003
3.660230e+003, 5.230552e-003
3.662158e+003, 5.479681e-003
3.664087e+003, 5.447568e-003
3.666015e+003, 5.476117e-003
3.667944e+003, 5.802640e-003
3.669872e+003, 6.278872e-003
3.671801e+003, 5.368170e-003
3.673729e+003, 4.425562e-003
3.675657e+003, 4.566457e-003
3.677586e+003, 5.360016e-003
3.679514e+003, 5.051748e-003
3.681443e+003, 4.862125e-003
3.683371e+003, 4.802084e-003
3.685300e+003, 4.753971e-003
3.687228e+003, 4.625316e-003
3.689157e+003, 4.520672e-003
3.691085e+003, 4.445491e-003
3.693014e+003, 4.723758e-003
3.694942e+003, 4.717952e-003
3.696871e+003, 4.399893e-003
3.698799e+003, 4.973695e-003
3.700728e+003, 5.748375e-003
3.702656e+003, 6.107553e-003
3.704584e+003, 5.524559e-003
3.706513e+003, 4.500207e-003
3.708441e+003, 4.374248e-003
3.710370e+003, 4.783952e-003
3.712298e+003, 5.106685e-003
3.714227e+003, 4.551749e-003
3.716155e+003, 3.845463e-003
3.718084e+003, 4.639787e-003
3.720012e+003, 5.578416e-003
3.721941e+003, 5.517905e-003
3.723869e+003, 5.450790e-003
3.725798e+003, 5.592054e-003
3.727726e+003, 5.449910e-003
3.729655e+003, 5.228519e-003
3.731583e+003, 4.239789e-003
3.733511e+003, 4.636020e-003
3.735440e+003, 5.698236e-003
3.737368e+003, 5.648481e-003
3.739297e+003, 5.683206e-003
3.741225e+003, 5.271327e-003
3.743154e+003, 4.030979e-003
3.745082e+003, 3.978813e-003
3.747011e+003, 4.931467e-003
3.748939e+003, 5.056354e-003
3.750868e+003, 4.535187e-003
3.752796e+003, 4.674304e-003
3.754725e+003, 4.572526e-003
3.756653e+003, 5.330201e-003
3.758582e+003, 5.202623e-003
3.760510e+003, 5.109534e-003
3.762438e+003, 5.936588e-003
3.764367e+003, 5.794425e-003
3.766295e+003, 5.121631e-003
3.768224e+003, 5.531604e-003
3.770152e+003, 5.133128e-003
3.772081e+003, 4.209240e-003
3.774009e+003, 4.363586e-003
3.775938e+003, 4.617098e-003
3.777866e+003, 4.514895e-003
3.779795e+003, 5.180907e-003
3.781723e+003, 5.912891e-003
3.783652e+003, 5.716109e-003
3.785580e+003, 5.021374e-003
3.787509e+003, 5.267515e-003
3.789437e+003, 5.104696e-003
3.791365e+003, 4.983935e-003
3.793294e+003, 5.314395e-003
3.795222e+003, 5.618136e-003
3.797151e+003, 5.115331e-003
3.799079e+003, 5.394612e-003
3.801008e+003, 5.143012e-003
3.802936e+003, 4.851018e-003
3.804865e+003, 5.292416e-003
3.806793e+003, 4.813306e-003
3.808722e+003, 4.070575e-003
3.810650e+003, 4.764242e-003
3.812579e+003, 5.086961e-003
3.814507e+003, 4.714311e-003
3.816436e+003, 4.455993e-003
3.818364e+003, 4.050213e-003
3.820292e+003, 4.456832e-003
3.822221e+003, 5.088296e-003
3.824149e+003, 5.112469e-003
3.826078e+003, 4.804171e-003
3.828006e+003, 4.387634e-003
3.829935e+003, 3.562264e-003
3.831863e+003, 3.394470e-003
3.833792e+003, 4.196884e-003
3.835720e+003, 4.786995e-003
3.837649e+003, 5.507890e-003
3.839577e+003, 5.457444e-003
3.841506e+003, 4.818995e-003
3.843434e+003, 4.682987e-003
3.845363e+003, 4.858860e-003
3.847291e+003, 4.670830e-003
3.849219e+003, 4.732402e-003
3.851148e+003, 4.772282e-003
3.853076e+003, 4.429162e-003
3.855005e+003, 4.365941e-003
3.856933e+003, 4.858435e-003
3.858862e+003, 5.034246e-003
3.860790e+003, 4.529909e-003
3.862719e+003, 5.031480e-003
3.864647e+003, 5.405734e-003
3.866576e+003, 4.817964e-003
3.868504e+003, 4.576666e-003
3.870433e+003, 5.088013e-003
3.872361e+003, 5.379118e-003
3.874290e+003, 5.529793e-003
3.876218e+003, 5.282599e-003
3.878146e+003, 4.584926e-003
3.880075e+003, 4.888006e-003
3.882003e+003, 4.731268e-003
3.883932e+003, 4.514264e-003
3.885860e+003, 5.699493e-003
3.887789e+003, 5.826949e-003
3.889717e+003, 4.737782e-003
3.891646e+003, 4.264614e-003
3.893574e+003, 3.839219e-003
3.895503e+003, 4.011129e-003
3.897431e+003, 4.967802e-003
3.899360e+003, 5.120595e-003
3.901288e+003, 4.781151e-003
3.903217e+003, 5.135179e-003
3.905145e+003, 5.629952e-003
3.907073e+003, 5.221840e-003
3.909002e+003, 4.432751e-003
3.910930e+003, 4.723940e-003
3.912859e+003, 5.144450e-003
3.914787e+003, 4.787566e-003
3.916716e+003, 4.842270e-003
3.918644e+003, 4.971122e-003
3.920573e+003, 4.643095e-003
3.922501e+003, 3.729987e-003
3.924430e+003, 4.110334e-003
3.926358e+003, 5.446217e-003
3.928287e+003, 5.444612e-003
3.930215e+003, 5.066277e-003
3.932144e+003, 4.240107e-003
3.934072e+003, 4.146302e-003
3.936000e+003, 3.807698e-003
3.937929e+003, 3.606780e-003
3.939857e+003, 4.363826e-003
3.941786e+003, 4.027936e-003
3.943714e+003, 4.268078e-003
3.945643e+003, 5.626563e-003
3.947571e+003, 5.898652e-003
3.949500e+003, 4.955168e-003
3.951428e+003, 4.846550e-003
3.953357e+003, 4.709569e-003
3.955285e+003, 3.522213e-003
3.957214e+003, 3.384424e-003
3.959142e+003, 3.696209e-003
3.961071e+003, 4.385163e-003
3.962999e+003, 4.207636e-003
3.964927e+003, 4.340236e-003
3.966856e+003, 4.976308e-003
3.968784e+003, 5.189132e-003
3.970713e+003, 5.155655e-003
3.972641e+003, 5.226984e-003
3.974570e+003, 5.676361e-003
3.976498e+003, 5.389798e-003
3.978427e+003, 4.587591e-003
3.980355e+003, 4.398639e-003
3.982284e+003, 4.476877e-003
3.984212e+003, 4.314044e-003
3.986141e+003, 4.092549e-003
3.988069e+003, 4.394474e-003
3.989998e+003, 4.987870e-003
3.991926e+003, 4.837779e-003
3.993854e+003, 4.559634e-003
3.995783e+003, 4.960031e-003
3.997711e+003, 4.547643e-003
3.999640e+003, 4.117563e-003
##END=



