##NAMES=Stannite
##RRUFFID=R050187
##IDEAL CHEMISTRY=Cu^1+^_2_Fe^2+^Sn^4+^S^2-^_4_
##LOCALITY=Yaogangxian mine, Yizhang County, Hunan Province, China
##OWNER=RRUFF
##SOURCE=Marcus Origlieri and George Guanghua Liu
##DESCRIPTION=Bluish-black octahedron associated with fluorite and quartz. According to Kissin & Owens (1989), since 2a is significantly larger than c, this sample is stannite.
##STATUS=The identification of this mineral is confirmed by single-crystal X-ray diffraction and chemical analysis.
##URL=rruff.info/R050187
##MEASURED CHEMISTRY=Cu_2.00_(Fe_0.66_Zn_0.34_)Sn_1.00_S_4.00_
3.741225e+002, 3.462016e-002
3.760510e+002, 4.298243e-002
3.779795e+002, 4.003268e-002
3.799079e+002, 3.410520e-002
3.818364e+002, 4.023841e-002
3.837649e+002, 4.443413e-002
3.856933e+002, 5.349853e-002
3.876218e+002, 5.997520e-002
3.895503e+002, 5.818594e-002
3.914787e+002, 5.868522e-002
3.934072e+002, 6.401920e-002
3.953357e+002, 6.784742e-002
3.972641e+002, 7.490165e-002
3.991926e+002, 8.120556e-002
4.011211e+002, 7.990288e-002
4.030495e+002, 8.198916e-002
4.049780e+002, 8.816994e-002
4.069065e+002, 9.309210e-002
4.088349e+002, 9.681480e-002
4.107634e+002, 9.753441e-002
4.126919e+002, 9.846053e-002
4.146203e+002, 1.017846e-001
4.165488e+002, 1.056358e-001
4.184773e+002, 1.091137e-001
4.204057e+002, 1.089366e-001
4.223342e+002, 1.122024e-001
4.242627e+002, 1.179289e-001
4.261911e+002, 1.193371e-001
4.281196e+002, 1.193196e-001
4.300481e+002, 1.212507e-001
4.319765e+002, 1.235585e-001
4.339050e+002, 1.258712e-001
4.358335e+002, 1.279802e-001
4.377619e+002, 1.297693e-001
4.396904e+002, 1.323756e-001
4.416189e+002, 1.339210e-001
4.435473e+002, 1.354101e-001
4.454758e+002, 1.375673e-001
4.474043e+002, 1.401895e-001
4.493327e+002, 1.424485e-001
4.512612e+002, 1.446451e-001
4.531897e+002, 1.474815e-001
4.551181e+002, 1.498829e-001
4.570466e+002, 1.512729e-001
4.589751e+002, 1.534705e-001
4.609035e+002, 1.542870e-001
4.628320e+002, 1.560801e-001
4.647605e+002, 1.590922e-001
4.666889e+002, 1.606931e-001
4.686174e+002, 1.631280e-001
4.705459e+002, 1.661070e-001
4.724743e+002, 1.675869e-001
4.744028e+002, 1.684654e-001
4.763313e+002, 1.700683e-001
4.782597e+002, 1.711050e-001
4.801882e+002, 1.720692e-001
4.821167e+002, 1.731613e-001
4.840451e+002, 1.740541e-001
4.859736e+002, 1.752770e-001
4.879021e+002, 1.763843e-001
4.898305e+002, 1.771398e-001
4.917590e+002, 1.779830e-001
4.936875e+002, 1.791191e-001
4.956159e+002, 1.793518e-001
4.975444e+002, 1.797773e-001
4.994729e+002, 1.797816e-001
5.014013e+002, 1.803651e-001
5.033298e+002, 1.812184e-001
5.052583e+002, 1.825296e-001
5.071867e+002, 1.841622e-001
5.091152e+002, 1.837963e-001
5.110437e+002, 1.838276e-001
5.129721e+002, 1.838706e-001
5.149006e+002, 1.832919e-001
5.168290e+002, 1.834679e-001
5.187575e+002, 1.831993e-001
5.206860e+002, 1.831014e-001
5.226144e+002, 1.832905e-001
5.245429e+002, 1.834156e-001
5.264714e+002, 1.835582e-001
5.283998e+002, 1.838365e-001
5.303283e+002, 1.838673e-001
5.322568e+002, 1.832512e-001
5.341852e+002, 1.828417e-001
5.361137e+002, 1.829209e-001
5.380422e+002, 1.827069e-001
5.399706e+002, 1.819369e-001
5.418991e+002, 1.816269e-001
5.438276e+002, 1.814076e-001
5.457560e+002, 1.814501e-001
5.476845e+002, 1.825524e-001
5.496130e+002, 1.822947e-001
5.515414e+002, 1.814048e-001
5.534699e+002, 1.812746e-001
5.553984e+002, 1.817845e-001
5.573268e+002, 1.821074e-001
5.592553e+002, 1.826113e-001
5.611838e+002, 1.833009e-001
5.631122e+002, 1.831998e-001
5.650407e+002, 1.839334e-001
5.669692e+002, 1.847672e-001
5.688976e+002, 1.847546e-001
5.708261e+002, 1.859930e-001
5.727546e+002, 1.870941e-001
5.746830e+002, 1.878639e-001
5.766115e+002, 1.884040e-001
5.785400e+002, 1.899798e-001
5.804684e+002, 1.917453e-001
5.823969e+002, 1.933902e-001
5.843254e+002, 1.949020e-001
5.862538e+002, 1.974639e-001
5.881823e+002, 2.007716e-001
5.901108e+002, 2.043260e-001
5.920392e+002, 2.076130e-001
5.939677e+002, 2.092606e-001
5.958962e+002, 2.090479e-001
5.978246e+002, 2.064371e-001
5.997531e+002, 2.016769e-001
6.016816e+002, 1.973756e-001
6.036100e+002, 1.942200e-001
6.055385e+002, 1.918851e-001
6.074670e+002, 1.908285e-001
6.093954e+002, 1.902306e-001
6.113239e+002, 1.905239e-001
6.132524e+002, 1.911987e-001
6.151808e+002, 1.918369e-001
6.171093e+002, 1.934165e-001
6.190378e+002, 1.953765e-001
6.209662e+002, 1.976895e-001
6.228947e+002, 1.994476e-001
6.248232e+002, 1.995757e-001
6.267516e+002, 1.974807e-001
6.286801e+002, 1.935780e-001
6.306086e+002, 1.889628e-001
6.325370e+002, 1.845953e-001
6.344655e+002, 1.818097e-001
6.363940e+002, 1.808381e-001
6.383224e+002, 1.806155e-001
6.402509e+002, 1.811881e-001
6.421794e+002, 1.816515e-001
6.441078e+002, 1.825229e-001
6.460363e+002, 1.839772e-001
6.479648e+002, 1.852204e-001
6.498932e+002, 1.865148e-001
6.518217e+002, 1.881360e-001
6.537502e+002, 1.897758e-001
6.556786e+002, 1.914729e-001
6.576071e+002, 1.930444e-001
6.595356e+002, 1.944926e-001
6.614641e+002, 1.960151e-001
6.633925e+002, 1.973757e-001
6.653210e+002, 1.979870e-001
6.672495e+002, 1.981050e-001
6.691779e+002, 1.971391e-001
6.711064e+002, 1.948430e-001
6.730349e+002, 1.923050e-001
6.749633e+002, 1.893293e-001
6.768918e+002, 1.851172e-001
6.788203e+002, 1.799146e-001
6.807487e+002, 1.755925e-001
6.826772e+002, 1.728026e-001
6.846057e+002, 1.710697e-001
6.865341e+002, 1.705261e-001
6.884626e+002, 1.706849e-001
6.903911e+002, 1.707846e-001
6.923195e+002, 1.716206e-001
6.942480e+002, 1.726207e-001
6.961765e+002, 1.734476e-001
6.981049e+002, 1.740953e-001
7.000334e+002, 1.750995e-001
7.019619e+002, 1.753921e-001
7.038903e+002, 1.759642e-001
7.058188e+002, 1.767898e-001
7.077473e+002, 1.774317e-001
7.096757e+002, 1.780623e-001
7.116042e+002, 1.788161e-001
7.135327e+002, 1.792752e-001
7.154611e+002, 1.794233e-001
7.173896e+002, 1.798174e-001
7.193181e+002, 1.802037e-001
7.212465e+002, 1.803994e-001
7.231750e+002, 1.804919e-001
7.251035e+002, 1.810611e-001
7.270319e+002, 1.813947e-001
7.289604e+002, 1.816659e-001
7.308889e+002, 1.819813e-001
7.328173e+002, 1.821420e-001
7.347458e+002, 1.827014e-001
7.366743e+002, 1.838180e-001
7.386027e+002, 1.847920e-001
7.405312e+002, 1.850589e-001
7.424597e+002, 1.853268e-001
7.443881e+002, 1.863213e-001
7.463166e+002, 1.871986e-001
7.482451e+002, 1.878461e-001
7.501735e+002, 1.887702e-001
7.521020e+002, 1.898688e-001
7.540305e+002, 1.909334e-001
7.559589e+002, 1.920783e-001
7.578874e+002, 1.931642e-001
7.598159e+002, 1.943267e-001
7.617443e+002, 1.956922e-001
7.636728e+002, 1.971400e-001
7.656013e+002, 1.985010e-001
7.675297e+002, 2.000231e-001
7.694582e+002, 2.012253e-001
7.713867e+002, 2.024770e-001
7.733151e+002, 2.036556e-001
7.752436e+002, 2.050790e-001
7.771721e+002, 2.062810e-001
7.791005e+002, 2.072315e-001
7.810290e+002, 2.080528e-001
7.829575e+002, 2.088947e-001
7.848859e+002, 2.093392e-001
7.868144e+002, 2.095871e-001
7.887429e+002, 2.098002e-001
7.906713e+002, 2.103544e-001
7.925998e+002, 2.105248e-001
7.945283e+002, 2.101779e-001
7.964567e+002, 2.101412e-001
7.983852e+002, 2.099918e-001
8.003137e+002, 2.095211e-001
8.022421e+002, 2.086664e-001
8.041706e+002, 2.081800e-001
8.060991e+002, 2.078623e-001
8.080275e+002, 2.071847e-001
8.099560e+002, 2.063644e-001
8.118845e+002, 2.053246e-001
8.138129e+002, 2.041449e-001
8.157414e+002, 2.033513e-001
8.176699e+002, 2.027391e-001
8.195983e+002, 2.018900e-001
8.215268e+002, 2.013483e-001
8.234553e+002, 2.007883e-001
8.253837e+002, 2.002043e-001
8.273122e+002, 1.998837e-001
8.292407e+002, 1.997181e-001
8.311691e+002, 1.994721e-001
8.330976e+002, 1.989578e-001
8.350261e+002, 1.987844e-001
8.369545e+002, 1.986461e-001
8.388830e+002, 1.986878e-001
8.408115e+002, 1.988606e-001
8.427399e+002, 1.990211e-001
8.446684e+002, 1.993998e-001
8.465969e+002, 1.997083e-001
8.485253e+002, 1.997765e-001
8.504538e+002, 1.997802e-001
8.523823e+002, 2.000453e-001
8.543107e+002, 2.003366e-001
8.562392e+002, 2.005514e-001
8.581677e+002, 2.009682e-001
8.600961e+002, 2.009079e-001
8.620246e+002, 2.008927e-001
8.639531e+002, 2.011169e-001
8.658815e+002, 2.011172e-001
8.678100e+002, 2.010118e-001
8.697385e+002, 2.009138e-001
8.716669e+002, 2.009916e-001
8.735954e+002, 2.011512e-001
8.755239e+002, 2.012143e-001
8.774523e+002, 2.012927e-001
8.793808e+002, 2.013417e-001
8.813093e+002, 2.013301e-001
8.832377e+002, 2.011774e-001
8.851662e+002, 2.011379e-001
8.870947e+002, 2.014548e-001
8.890231e+002, 2.018165e-001
8.909516e+002, 2.021239e-001
8.928801e+002, 2.026757e-001
8.948085e+002, 2.031656e-001
8.967370e+002, 2.032201e-001
8.986655e+002, 2.035270e-001
9.005939e+002, 2.042664e-001
9.025224e+002, 2.049512e-001
9.044509e+002, 2.055120e-001
9.063793e+002, 2.060986e-001
9.083078e+002, 2.070056e-001
9.102363e+002, 2.080042e-001
9.121647e+002, 2.088029e-001
9.140932e+002, 2.098178e-001
9.160217e+002, 2.106593e-001
9.179501e+002, 2.114734e-001
9.198786e+002, 2.126473e-001
9.218071e+002, 2.135776e-001
9.237355e+002, 2.143435e-001
9.256640e+002, 2.155541e-001
9.275925e+002, 2.167085e-001
9.295209e+002, 2.178750e-001
9.314494e+002, 2.189282e-001
9.333779e+002, 2.202016e-001
9.353063e+002, 2.214157e-001
9.372348e+002, 2.224901e-001
9.391633e+002, 2.235906e-001
9.410917e+002, 2.244871e-001
9.430202e+002, 2.253855e-001
9.449487e+002, 2.266673e-001
9.468771e+002, 2.278291e-001
9.488056e+002, 2.286850e-001
9.507341e+002, 2.298990e-001
9.526625e+002, 2.314238e-001
9.545910e+002, 2.325507e-001
9.565195e+002, 2.336504e-001
9.584479e+002, 2.348301e-001
9.603764e+002, 2.361511e-001
9.623049e+002, 2.372369e-001
9.642333e+002, 2.380089e-001
9.661618e+002, 2.391652e-001
9.680903e+002, 2.403279e-001
9.700187e+002, 2.413247e-001
9.719472e+002, 2.425715e-001
9.738757e+002, 2.436558e-001
9.758041e+002, 2.446121e-001
9.777326e+002, 2.456757e-001
9.796611e+002, 2.467353e-001
9.815895e+002, 2.473948e-001
9.835180e+002, 2.479568e-001
9.854465e+002, 2.483930e-001
9.873749e+002, 2.491062e-001
9.893034e+002, 2.503167e-001
9.912319e+002, 2.515191e-001
9.931603e+002, 2.526268e-001
9.950888e+002, 2.536247e-001
9.970173e+002, 2.547363e-001
9.989457e+002, 2.561395e-001
1.000874e+003, 2.580723e-001
1.002803e+003, 2.602360e-001
1.004731e+003, 2.624030e-001
1.006660e+003, 2.648878e-001
1.008588e+003, 2.679544e-001
1.010517e+003, 2.710164e-001
1.012445e+003, 2.736032e-001
1.014373e+003, 2.759916e-001
1.016302e+003, 2.774619e-001
1.018230e+003, 2.780227e-001
1.020159e+003, 2.774788e-001
1.022087e+003, 2.752491e-001
1.024016e+003, 2.715755e-001
1.025944e+003, 2.675556e-001
1.027873e+003, 2.651320e-001
1.029801e+003, 2.656048e-001
1.031730e+003, 2.678675e-001
1.033658e+003, 2.706267e-001
1.035587e+003, 2.733673e-001
1.037515e+003, 2.761103e-001
1.039443e+003, 2.785605e-001
1.041372e+003, 2.807439e-001
1.043300e+003, 2.826866e-001
1.045229e+003, 2.847084e-001
1.047157e+003, 2.868297e-001
1.049086e+003, 2.891662e-001
1.051014e+003, 2.917602e-001
1.052943e+003, 2.942585e-001
1.054871e+003, 2.967337e-001
1.056800e+003, 2.995825e-001
1.058728e+003, 3.025206e-001
1.060657e+003, 3.054824e-001
1.062585e+003, 3.083447e-001
1.064514e+003, 3.109878e-001
1.066442e+003, 3.132134e-001
1.068370e+003, 3.151627e-001
1.070299e+003, 3.168281e-001
1.072227e+003, 3.183002e-001
1.074156e+003, 3.194285e-001
1.076084e+003, 3.204702e-001
1.078013e+003, 3.211838e-001
1.079941e+003, 3.216229e-001
1.081870e+003, 3.219085e-001
1.083798e+003, 3.221363e-001
1.085727e+003, 3.222590e-001
1.087655e+003, 3.224981e-001
1.089584e+003, 3.225205e-001
1.091512e+003, 3.227352e-001
1.093441e+003, 3.229981e-001
1.095369e+003, 3.234013e-001
1.097297e+003, 3.234855e-001
1.099226e+003, 3.235471e-001
1.101154e+003, 3.238036e-001
1.103083e+003, 3.240920e-001
1.105011e+003, 3.240980e-001
1.106940e+003, 3.234556e-001
1.108868e+003, 3.223951e-001
1.110797e+003, 3.212119e-001
1.112725e+003, 3.195788e-001
1.114654e+003, 3.175757e-001
1.116582e+003, 3.154025e-001
1.118511e+003, 3.133458e-001
1.120439e+003, 3.105755e-001
1.122368e+003, 3.075208e-001
1.124296e+003, 3.051026e-001
1.126224e+003, 3.027442e-001
1.128153e+003, 3.001327e-001
1.130081e+003, 2.978259e-001
1.132010e+003, 2.955440e-001
1.133938e+003, 2.931427e-001
1.135867e+003, 2.909290e-001
1.137795e+003, 2.888748e-001
1.139724e+003, 2.866634e-001
1.141652e+003, 2.843785e-001
1.143581e+003, 2.822766e-001
1.145509e+003, 2.806901e-001
1.147438e+003, 2.791267e-001
1.149366e+003, 2.774437e-001
1.151295e+003, 2.756780e-001
1.153223e+003, 2.735568e-001
1.155151e+003, 2.713783e-001
1.157080e+003, 2.691491e-001
1.159008e+003, 2.666933e-001
1.160937e+003, 2.643196e-001
1.162865e+003, 2.619632e-001
1.164794e+003, 2.591824e-001
1.166722e+003, 2.566132e-001
1.168651e+003, 2.543860e-001
1.170579e+003, 2.518289e-001
1.172508e+003, 2.492918e-001
1.174436e+003, 2.466707e-001
1.176365e+003, 2.440985e-001
1.178293e+003, 2.417069e-001
1.180222e+003, 2.395245e-001
1.182150e+003, 2.376347e-001
1.184078e+003, 2.358742e-001
1.186007e+003, 2.339641e-001
1.187935e+003, 2.320435e-001
1.189864e+003, 2.299760e-001
1.191792e+003, 2.279483e-001
1.193721e+003, 2.258939e-001
1.195649e+003, 2.237491e-001
1.197578e+003, 2.214136e-001
1.199506e+003, 2.191661e-001
1.201435e+003, 2.170354e-001
1.203363e+003, 2.147854e-001
1.205292e+003, 2.122761e-001
1.207220e+003, 2.096566e-001
1.209149e+003, 2.070848e-001
1.211077e+003, 2.043834e-001
1.213005e+003, 2.014619e-001
1.214934e+003, 1.985083e-001
1.216862e+003, 1.954750e-001
1.218791e+003, 1.921708e-001
1.220719e+003, 1.890341e-001
1.222648e+003, 1.857559e-001
1.224576e+003, 1.820847e-001
1.226505e+003, 1.787631e-001
1.228433e+003, 1.757384e-001
1.230362e+003, 1.730508e-001
1.232290e+003, 1.704323e-001
1.234219e+003, 1.682608e-001
1.236147e+003, 1.665783e-001
1.238076e+003, 1.652890e-001
1.240004e+003, 1.643316e-001
1.241932e+003, 1.636591e-001
1.243861e+003, 1.634808e-001
1.245789e+003, 1.634186e-001
1.247718e+003, 1.635295e-001
1.249646e+003, 1.635942e-001
1.251575e+003, 1.636872e-001
1.253503e+003, 1.640462e-001
1.255432e+003, 1.642970e-001
1.257360e+003, 1.646653e-001
1.259289e+003, 1.650056e-001
1.261217e+003, 1.654866e-001
1.263146e+003, 1.659270e-001
1.265074e+003, 1.661835e-001
1.267003e+003, 1.665801e-001
1.268931e+003, 1.670244e-001
1.270859e+003, 1.675521e-001
1.272788e+003, 1.680823e-001
1.274716e+003, 1.686735e-001
1.276645e+003, 1.693114e-001
1.278573e+003, 1.699714e-001
1.280502e+003, 1.704895e-001
1.282430e+003, 1.709413e-001
1.284359e+003, 1.716624e-001
1.286287e+003, 1.724586e-001
1.288216e+003, 1.731254e-001
1.290144e+003, 1.736237e-001
1.292073e+003, 1.743514e-001
1.294001e+003, 1.751309e-001
1.295930e+003, 1.757622e-001
1.297858e+003, 1.763109e-001
1.299786e+003, 1.768256e-001
1.301715e+003, 1.774051e-001
1.303643e+003, 1.778791e-001
1.305572e+003, 1.783751e-001
1.307500e+003, 1.790427e-001
1.309429e+003, 1.797065e-001
1.311357e+003, 1.802362e-001
1.313286e+003, 1.807695e-001
1.315214e+003, 1.813336e-001
1.317143e+003, 1.818360e-001
1.319071e+003, 1.825029e-001
1.321000e+003, 1.830375e-001
1.322928e+003, 1.834621e-001
1.324857e+003, 1.840371e-001
1.326785e+003, 1.845431e-001
1.328714e+003, 1.848945e-001
1.330642e+003, 1.853512e-001
1.332570e+003, 1.858211e-001
1.334499e+003, 1.864516e-001
1.336427e+003, 1.872434e-001
1.338356e+003, 1.878471e-001
1.340284e+003, 1.881901e-001
1.342213e+003, 1.886212e-001
1.344141e+003, 1.892918e-001
1.346070e+003, 1.898367e-001
1.347998e+003, 1.902332e-001
1.349927e+003, 1.908025e-001
1.351855e+003, 1.913102e-001
1.353784e+003, 1.917415e-001
1.355712e+003, 1.922558e-001
1.357641e+003, 1.927352e-001
1.359569e+003, 1.932274e-001
1.361497e+003, 1.937040e-001
1.363426e+003, 1.941524e-001
1.365354e+003, 1.944205e-001
1.367283e+003, 1.945862e-001
1.369211e+003, 1.949248e-001
1.371140e+003, 1.954779e-001
1.373068e+003, 1.960302e-001
1.374997e+003, 1.964466e-001
1.376925e+003, 1.969240e-001
1.378854e+003, 1.973982e-001
1.380782e+003, 1.976690e-001
1.382711e+003, 1.981462e-001
1.384639e+003, 1.986153e-001
1.386568e+003, 1.992228e-001
1.388496e+003, 1.997382e-001
1.390424e+003, 2.001342e-001
1.392353e+003, 2.005920e-001
1.394281e+003, 2.010822e-001
1.396210e+003, 2.014536e-001
1.398138e+003, 2.018866e-001
1.400067e+003, 2.024968e-001
1.401995e+003, 2.029347e-001
1.403924e+003, 2.032505e-001
1.405852e+003, 2.036388e-001
1.407781e+003, 2.040317e-001
1.409709e+003, 2.045379e-001
1.411638e+003, 2.051164e-001
1.413566e+003, 2.055738e-001
1.415495e+003, 2.058741e-001
1.417423e+003, 2.063039e-001
1.419351e+003, 2.068070e-001
1.421280e+003, 2.072729e-001
1.423208e+003, 2.078970e-001
1.425137e+003, 2.084882e-001
1.427065e+003, 2.089512e-001
1.428994e+003, 2.095993e-001
1.430922e+003, 2.101423e-001
1.432851e+003, 2.103304e-001
1.434779e+003, 2.107649e-001
1.436708e+003, 2.112832e-001
1.438636e+003, 2.116547e-001
1.440565e+003, 2.121756e-001
1.442493e+003, 2.127223e-001
1.444422e+003, 2.132412e-001
1.446350e+003, 2.135648e-001
1.448278e+003, 2.138719e-001
1.450207e+003, 2.143440e-001
1.452135e+003, 2.149138e-001
1.454064e+003, 2.154205e-001
1.455992e+003, 2.158453e-001
1.457921e+003, 2.162909e-001
1.459849e+003, 2.166049e-001
1.461778e+003, 2.170349e-001
1.463706e+003, 2.174978e-001
1.465635e+003, 2.178325e-001
1.467563e+003, 2.182830e-001
1.469492e+003, 2.187839e-001
1.471420e+003, 2.191678e-001
1.473349e+003, 2.196651e-001
1.475277e+003, 2.201270e-001
1.477205e+003, 2.204467e-001
1.479134e+003, 2.210260e-001
1.481062e+003, 2.213939e-001
1.482991e+003, 2.214500e-001
1.484919e+003, 2.218326e-001
1.486848e+003, 2.224586e-001
1.488776e+003, 2.227967e-001
1.490705e+003, 2.228892e-001
1.492633e+003, 2.230768e-001
1.494562e+003, 2.232689e-001
1.496490e+003, 2.233683e-001
1.498419e+003, 2.234581e-001
1.500347e+003, 2.235375e-001
1.502276e+003, 2.235879e-001
1.504204e+003, 2.237674e-001
1.506132e+003, 2.240499e-001
1.508061e+003, 2.241194e-001
1.509989e+003, 2.241075e-001
1.511918e+003, 2.240185e-001
1.513846e+003, 2.239423e-001
1.515775e+003, 2.242087e-001
1.517703e+003, 2.244315e-001
1.519632e+003, 2.246165e-001
1.521560e+003, 2.248604e-001
1.523489e+003, 2.250359e-001
1.525417e+003, 2.250492e-001
1.527346e+003, 2.251120e-001
1.529274e+003, 2.253652e-001
1.531203e+003, 2.257424e-001
1.533131e+003, 2.258884e-001
1.535059e+003, 2.258997e-001
1.536988e+003, 2.261634e-001
1.538916e+003, 2.265497e-001
1.540845e+003, 2.268677e-001
1.542773e+003, 2.272728e-001
1.544702e+003, 2.275514e-001
1.546630e+003, 2.277880e-001
1.548559e+003, 2.280769e-001
1.550487e+003, 2.283895e-001
1.552416e+003, 2.288339e-001
1.554344e+003, 2.292988e-001
1.556273e+003, 2.297693e-001
1.558201e+003, 2.300713e-001
1.560130e+003, 2.302817e-001
1.562058e+003, 2.305740e-001
1.563986e+003, 2.309898e-001
1.565915e+003, 2.313534e-001
1.567843e+003, 2.317079e-001
1.569772e+003, 2.318470e-001
1.571700e+003, 2.320077e-001
1.573629e+003, 2.324986e-001
1.575557e+003, 2.330415e-001
1.577486e+003, 2.337044e-001
1.579414e+003, 2.341212e-001
1.581343e+003, 2.342017e-001
1.583271e+003, 2.345497e-001
1.585200e+003, 2.351995e-001
1.587128e+003, 2.353497e-001
1.589057e+003, 2.356912e-001
1.590985e+003, 2.364004e-001
1.592913e+003, 2.366681e-001
1.594842e+003, 2.368909e-001
1.596770e+003, 2.375638e-001
1.598699e+003, 2.379982e-001
1.600627e+003, 2.383233e-001
1.602556e+003, 2.387311e-001
1.604484e+003, 2.391533e-001
1.606413e+003, 2.395596e-001
1.608341e+003, 2.399560e-001
1.610270e+003, 2.405064e-001
1.612198e+003, 2.409313e-001
1.614127e+003, 2.414108e-001
1.616055e+003, 2.418647e-001
1.617984e+003, 2.420340e-001
1.619912e+003, 2.422265e-001
1.621840e+003, 2.424412e-001
1.623769e+003, 2.426971e-001
1.625697e+003, 2.430112e-001
1.627626e+003, 2.432619e-001
1.629554e+003, 2.432230e-001
1.631483e+003, 2.431922e-001
1.633411e+003, 2.435233e-001
1.635340e+003, 2.434729e-001
1.637268e+003, 2.433950e-001
1.639197e+003, 2.434503e-001
1.641125e+003, 2.435060e-001
1.643054e+003, 2.434244e-001
1.644982e+003, 2.432868e-001
1.646911e+003, 2.433176e-001
1.648839e+003, 2.435342e-001
1.650767e+003, 2.436683e-001
1.652696e+003, 2.435739e-001
1.654624e+003, 2.433538e-001
1.656553e+003, 2.433168e-001
1.658481e+003, 2.431786e-001
1.660410e+003, 2.430287e-001
1.662338e+003, 2.432370e-001
1.664267e+003, 2.434594e-001
1.666195e+003, 2.435475e-001
1.668124e+003, 2.436893e-001
1.670052e+003, 2.436820e-001
1.671981e+003, 2.434216e-001
1.673909e+003, 2.431164e-001
1.675838e+003, 2.428766e-001
1.677766e+003, 2.426541e-001
1.679694e+003, 2.425855e-001
1.681623e+003, 2.423448e-001
1.683551e+003, 2.419846e-001
1.685480e+003, 2.417232e-001
1.687408e+003, 2.418028e-001
1.689337e+003, 2.418683e-001
1.691265e+003, 2.418180e-001
1.693194e+003, 2.421102e-001
1.695122e+003, 2.424398e-001
1.697051e+003, 2.426781e-001
1.698979e+003, 2.428812e-001
1.700908e+003, 2.427881e-001
1.702836e+003, 2.427334e-001
1.704765e+003, 2.428764e-001
1.706693e+003, 2.426639e-001
1.708621e+003, 2.428441e-001
1.710550e+003, 2.432553e-001
1.712478e+003, 2.433594e-001
1.714407e+003, 2.434110e-001
1.716335e+003, 2.434658e-001
1.718264e+003, 2.434841e-001
1.720192e+003, 2.435974e-001
1.722121e+003, 2.440432e-001
1.724049e+003, 2.442752e-001
1.725978e+003, 2.441741e-001
1.727906e+003, 2.442949e-001
1.729835e+003, 2.441950e-001
1.731763e+003, 2.441398e-001
1.733692e+003, 2.444148e-001
1.735620e+003, 2.442334e-001
1.737548e+003, 2.442733e-001
1.739477e+003, 2.443813e-001
1.741405e+003, 2.444287e-001
1.743334e+003, 2.445912e-001
1.745262e+003, 2.446569e-001
1.747191e+003, 2.446652e-001
1.749119e+003, 2.450826e-001
1.751048e+003, 2.453380e-001
1.752976e+003, 2.452294e-001
1.754905e+003, 2.453382e-001
1.756833e+003, 2.457131e-001
1.758762e+003, 2.462079e-001
1.760690e+003, 2.464202e-001
1.762619e+003, 2.464944e-001
1.764547e+003, 2.467791e-001
1.766475e+003, 2.472158e-001
1.768404e+003, 2.475233e-001
1.770332e+003, 2.475176e-001
1.772261e+003, 2.479183e-001
1.774189e+003, 2.483367e-001
1.776118e+003, 2.482425e-001
1.778046e+003, 2.481579e-001
1.779975e+003, 2.486038e-001
1.781903e+003, 2.490984e-001
1.783832e+003, 2.494395e-001
1.785760e+003, 2.493660e-001
1.787689e+003, 2.492076e-001
1.789617e+003, 2.493623e-001
1.791546e+003, 2.495368e-001
1.793474e+003, 2.501982e-001
1.795402e+003, 2.506760e-001
1.797331e+003, 2.505571e-001
1.799259e+003, 2.503785e-001
1.801188e+003, 2.510487e-001
1.803116e+003, 2.518387e-001
1.805045e+003, 2.519363e-001
1.806973e+003, 2.518515e-001
1.808902e+003, 2.518867e-001
1.810830e+003, 2.520685e-001
1.812759e+003, 2.521431e-001
1.814687e+003, 2.520510e-001
1.816616e+003, 2.522567e-001
1.818544e+003, 2.531511e-001
1.820473e+003, 2.538937e-001
1.822401e+003, 2.539718e-001
1.824329e+003, 2.539153e-001
1.826258e+003, 2.541256e-001
1.828186e+003, 2.546927e-001
1.830115e+003, 2.550866e-001
1.832043e+003, 2.553921e-001
1.833972e+003, 2.557204e-001
1.835900e+003, 2.557742e-001
1.837829e+003, 2.560755e-001
1.839757e+003, 2.562421e-001
1.841686e+003, 2.561426e-001
1.843614e+003, 2.563678e-001
1.845543e+003, 2.566281e-001
1.847471e+003, 2.569047e-001
1.849400e+003, 2.573418e-001
1.851328e+003, 2.576206e-001
1.853256e+003, 2.577439e-001
1.855185e+003, 2.578052e-001
1.857113e+003, 2.579811e-001
1.859042e+003, 2.584552e-001
1.860970e+003, 2.589816e-001
1.862899e+003, 2.592872e-001
1.864827e+003, 2.594492e-001
1.866756e+003, 2.598275e-001
1.868684e+003, 2.598374e-001
1.870613e+003, 2.602171e-001
1.872541e+003, 2.604513e-001
1.874470e+003, 2.604264e-001
1.876398e+003, 2.608752e-001
1.878327e+003, 2.612142e-001
1.880255e+003, 2.606016e-001
1.882183e+003, 2.606463e-001
1.884112e+003, 2.610387e-001
1.886040e+003, 2.614797e-001
1.887969e+003, 2.618116e-001
1.889897e+003, 2.621037e-001
1.891826e+003, 2.623906e-001
1.893754e+003, 2.631841e-001
1.895683e+003, 2.635993e-001
1.897611e+003, 2.634612e-001
1.899540e+003, 2.640363e-001
1.901468e+003, 2.639326e-001
1.903397e+003, 2.636801e-001
1.905325e+003, 2.640280e-001
1.907254e+003, 2.642278e-001
1.909182e+003, 2.643966e-001
1.911110e+003, 2.648773e-001
1.913039e+003, 2.650324e-001
1.914967e+003, 2.656192e-001
1.916896e+003, 2.662301e-001
1.918824e+003, 2.658602e-001
1.920753e+003, 2.655031e-001
1.922681e+003, 2.657873e-001
1.924610e+003, 2.659092e-001
1.926538e+003, 2.662456e-001
1.928467e+003, 2.666747e-001
1.930395e+003, 2.672277e-001
1.932324e+003, 2.673972e-001
1.934252e+003, 2.681395e-001
1.936181e+003, 2.689219e-001
1.938109e+003, 2.679359e-001
1.940037e+003, 2.672293e-001
1.941966e+003, 2.685025e-001
1.943894e+003, 2.695742e-001
1.945823e+003, 2.696278e-001
1.947751e+003, 2.691545e-001
1.949680e+003, 2.696024e-001
1.951608e+003, 2.699333e-001
1.953537e+003, 2.704046e-001
1.955465e+003, 2.707063e-001
1.957394e+003, 2.702177e-001
1.959322e+003, 2.701111e-001
1.961251e+003, 2.706995e-001
1.963179e+003, 2.711788e-001
1.965108e+003, 2.708997e-001
1.967036e+003, 2.704312e-001
1.968964e+003, 2.702639e-001
1.970893e+003, 2.712923e-001
1.972821e+003, 2.723635e-001
1.974750e+003, 2.713567e-001
1.976678e+003, 2.727262e-001
1.978607e+003, 2.741400e-001
1.980535e+003, 2.751007e-001
1.982464e+003, 2.754074e-001
1.984392e+003, 2.752309e-001
1.986321e+003, 2.753314e-001
1.988249e+003, 2.749934e-001
1.990178e+003, 2.748930e-001
1.992106e+003, 2.766597e-001
1.994035e+003, 2.761238e-001
1.995963e+003, 2.749789e-001
1.997891e+003, 2.750756e-001
1.999820e+003, 2.753066e-001
2.001748e+003, 2.738512e-001
2.003677e+003, 2.737144e-001
2.005605e+003, 2.755501e-001
2.007534e+003, 2.774169e-001
2.009462e+003, 2.775539e-001
2.011391e+003, 2.772354e-001
2.013319e+003, 2.786302e-001
2.015248e+003, 2.784416e-001
2.017176e+003, 2.770548e-001
2.019105e+003, 2.763037e-001
2.021033e+003, 2.761328e-001
2.022962e+003, 2.769072e-001
2.024890e+003, 2.779239e-001
2.026818e+003, 2.782048e-001
2.028747e+003, 2.791295e-001
2.030675e+003, 2.790387e-001
2.032604e+003, 2.799190e-001
2.034532e+003, 2.804061e-001
2.036461e+003, 2.779476e-001
2.038389e+003, 2.770594e-001
2.040318e+003, 2.775110e-001
2.042246e+003, 2.782773e-001
2.044175e+003, 2.795023e-001
2.046103e+003, 2.802888e-001
2.048031e+003, 2.809557e-001
2.049960e+003, 2.816938e-001
2.051888e+003, 2.819239e-001
2.053817e+003, 2.815835e-001
2.055745e+003, 2.814085e-001
2.057674e+003, 2.824246e-001
2.059602e+003, 2.828984e-001
2.061531e+003, 2.828133e-001
2.063459e+003, 2.828690e-001
2.065388e+003, 2.824591e-001
2.067316e+003, 2.816913e-001
2.069245e+003, 2.826409e-001
2.071173e+003, 2.841544e-001
2.073102e+003, 2.834302e-001
2.075030e+003, 2.833400e-001
2.076958e+003, 2.831703e-001
2.078887e+003, 2.828088e-001
2.080815e+003, 2.836993e-001
2.082744e+003, 2.838761e-001
2.084672e+003, 2.839404e-001
2.086601e+003, 2.835905e-001
2.088529e+003, 2.844249e-001
2.090458e+003, 2.840443e-001
2.092386e+003, 2.835638e-001
2.094315e+003, 2.848180e-001
2.096243e+003, 2.855236e-001
2.098172e+003, 2.864405e-001
2.100100e+003, 2.865013e-001
2.102029e+003, 2.859769e-001
2.103957e+003, 2.859133e-001
2.105885e+003, 2.858455e-001
2.107814e+003, 2.858689e-001
2.109742e+003, 2.857924e-001
2.111671e+003, 2.856981e-001
2.113599e+003, 2.857366e-001
2.115528e+003, 2.863560e-001
2.117456e+003, 2.857802e-001
2.119385e+003, 2.861278e-001
2.121313e+003, 2.866770e-001
2.123242e+003, 2.874375e-001
2.125170e+003, 2.876515e-001
2.127099e+003, 2.866493e-001
2.129027e+003, 2.861567e-001
2.130956e+003, 2.859422e-001
2.132884e+003, 2.860510e-001
2.134813e+003, 2.865151e-001
2.136741e+003, 2.874821e-001
2.138669e+003, 2.877144e-001
2.140598e+003, 2.856479e-001
2.142526e+003, 2.855665e-001
2.144455e+003, 2.863585e-001
2.146383e+003, 2.869094e-001
2.148312e+003, 2.873620e-001
2.150240e+003, 2.868540e-001
2.152169e+003, 2.864689e-001
2.154097e+003, 2.869578e-001
2.156026e+003, 2.861339e-001
2.157954e+003, 2.880316e-001
2.159883e+003, 2.902764e-001
2.161811e+003, 2.896978e-001
2.163740e+003, 2.886003e-001
2.165668e+003, 2.891049e-001
2.167596e+003, 2.897193e-001
2.169525e+003, 2.906478e-001
2.171453e+003, 2.902217e-001
2.173382e+003, 2.898360e-001
2.175310e+003, 2.895898e-001
2.177239e+003, 2.901131e-001
2.179167e+003, 2.914640e-001
2.181096e+003, 2.915564e-001
2.183024e+003, 2.916369e-001
2.184953e+003, 2.920492e-001
2.186881e+003, 2.911043e-001
2.188810e+003, 2.907306e-001
2.190738e+003, 2.908432e-001
2.192667e+003, 2.903542e-001
2.194595e+003, 2.913640e-001
2.196523e+003, 2.928216e-001
2.198452e+003, 2.929416e-001
2.200380e+003, 2.922499e-001
2.202309e+003, 2.919906e-001
2.204237e+003, 2.918754e-001
2.206166e+003, 2.918831e-001
2.208094e+003, 2.923706e-001
2.210023e+003, 2.935913e-001
2.211951e+003, 2.942925e-001
2.213880e+003, 2.938861e-001
2.215808e+003, 2.926525e-001
2.217737e+003, 2.938250e-001
2.219665e+003, 2.945463e-001
2.221594e+003, 2.937246e-001
2.223522e+003, 2.937384e-001
2.225450e+003, 2.948453e-001
2.227379e+003, 2.949953e-001
2.229307e+003, 2.952294e-001
2.231236e+003, 2.960742e-001
2.233164e+003, 2.952884e-001
2.235093e+003, 2.951736e-001
2.237021e+003, 2.965227e-001
2.238950e+003, 2.970060e-001
2.240878e+003, 2.956286e-001
2.242807e+003, 2.947019e-001
2.244735e+003, 2.957634e-001
2.246664e+003, 2.969883e-001
2.248592e+003, 2.976290e-001
2.250521e+003, 2.982651e-001
2.252449e+003, 2.981268e-001
2.254377e+003, 2.977180e-001
2.256306e+003, 2.973418e-001
2.258234e+003, 2.973158e-001
2.260163e+003, 2.971369e-001
2.262091e+003, 2.974949e-001
2.264020e+003, 2.984496e-001
2.265948e+003, 2.988972e-001
2.267877e+003, 2.988220e-001
2.269805e+003, 2.996289e-001
2.271734e+003, 3.003285e-001
2.273662e+003, 3.007642e-001
2.275591e+003, 3.004462e-001
2.277519e+003, 3.000070e-001
2.279448e+003, 3.003888e-001
2.281376e+003, 3.013003e-001
2.283304e+003, 3.016219e-001
2.285233e+003, 3.014536e-001
2.287161e+003, 3.017714e-001
2.289090e+003, 3.016406e-001
2.291018e+003, 3.011483e-001
2.292947e+003, 3.011145e-001
2.294875e+003, 3.015631e-001
2.296804e+003, 3.018855e-001
2.298732e+003, 3.018864e-001
2.300661e+003, 3.020990e-001
2.302589e+003, 3.024703e-001
2.304518e+003, 3.028945e-001
2.306446e+003, 3.030645e-001
2.308375e+003, 3.021662e-001
2.310303e+003, 3.020911e-001
2.312231e+003, 3.026228e-001
2.314160e+003, 3.027576e-001
2.316088e+003, 3.027909e-001
2.318017e+003, 3.030819e-001
2.319945e+003, 3.035490e-001
2.321874e+003, 3.040451e-001
2.323802e+003, 3.038392e-001
2.325731e+003, 3.032323e-001
2.327659e+003, 3.029397e-001
2.329588e+003, 3.030392e-001
2.331516e+003, 3.030705e-001
2.333445e+003, 3.030843e-001
2.335373e+003, 3.035833e-001
2.337302e+003, 3.037964e-001
2.339230e+003, 3.040086e-001
2.341158e+003, 3.046896e-001
2.343087e+003, 3.051603e-001
2.345015e+003, 3.047613e-001
2.346944e+003, 3.050084e-001
2.348872e+003, 3.050078e-001
2.350801e+003, 3.052430e-001
2.352729e+003, 3.056641e-001
2.354658e+003, 3.054562e-001
2.356586e+003, 3.049948e-001
2.358515e+003, 3.042310e-001
2.360443e+003, 3.041574e-001
2.362372e+003, 3.050794e-001
2.364300e+003, 3.054986e-001
2.366229e+003, 3.057881e-001
2.368157e+003, 3.063999e-001
2.370085e+003, 3.067896e-001
2.372014e+003, 3.071080e-001
2.373942e+003, 3.072389e-001
2.375871e+003, 3.075504e-001
2.377799e+003, 3.077095e-001
2.379728e+003, 3.076488e-001
2.381656e+003, 3.076474e-001
2.383585e+003, 3.077648e-001
2.385513e+003, 3.084003e-001
2.387442e+003, 3.087023e-001
2.389370e+003, 3.087340e-001
2.391299e+003, 3.087458e-001
2.393227e+003, 3.091027e-001
2.395156e+003, 3.092439e-001
2.397084e+003, 3.089316e-001
2.399012e+003, 3.090992e-001
2.400941e+003, 3.092092e-001
2.402869e+003, 3.090788e-001
2.404798e+003, 3.095006e-001
2.406726e+003, 3.105263e-001
2.408655e+003, 3.106849e-001
2.410583e+003, 3.103409e-001
2.412512e+003, 3.106939e-001
2.414440e+003, 3.108344e-001
2.416369e+003, 3.110965e-001
2.418297e+003, 3.112285e-001
2.420226e+003, 3.117030e-001
2.422154e+003, 3.117070e-001
2.424083e+003, 3.120551e-001
2.426011e+003, 3.124424e-001
2.427939e+003, 3.127682e-001
2.429868e+003, 3.125706e-001
2.431796e+003, 3.124790e-001
2.433725e+003, 3.123544e-001
2.435653e+003, 3.125781e-001
2.437582e+003, 3.132657e-001
2.439510e+003, 3.140174e-001
2.441439e+003, 3.136837e-001
2.443367e+003, 3.136027e-001
2.445296e+003, 3.138291e-001
2.447224e+003, 3.139967e-001
2.449153e+003, 3.144341e-001
2.451081e+003, 3.150524e-001
2.453010e+003, 3.155416e-001
2.454938e+003, 3.156251e-001
2.456866e+003, 3.156306e-001
2.458795e+003, 3.159854e-001
2.460723e+003, 3.159903e-001
2.462652e+003, 3.161942e-001
2.464580e+003, 3.166926e-001
2.466509e+003, 3.170456e-001
2.468437e+003, 3.170981e-001
2.470366e+003, 3.169586e-001
2.472294e+003, 3.168293e-001
2.474223e+003, 3.167016e-001
2.476151e+003, 3.170899e-001
2.478080e+003, 3.173005e-001
2.480008e+003, 3.177633e-001
2.481937e+003, 3.179736e-001
2.483865e+003, 3.184194e-001
2.485793e+003, 3.183640e-001
2.487722e+003, 3.185260e-001
2.489650e+003, 3.189768e-001
2.491579e+003, 3.183439e-001
2.493507e+003, 3.182935e-001
2.495436e+003, 3.187293e-001
2.497364e+003, 3.188348e-001
2.499293e+003, 3.193958e-001
2.501221e+003, 3.198440e-001
2.503150e+003, 3.194339e-001
2.505078e+003, 3.192115e-001
2.507007e+003, 3.198450e-001
2.508935e+003, 3.203480e-001
2.510864e+003, 3.204120e-001
2.512792e+003, 3.211938e-001
2.514720e+003, 3.212694e-001
2.516649e+003, 3.211561e-001
2.518577e+003, 3.210909e-001
2.520506e+003, 3.206515e-001
2.522434e+003, 3.207064e-001
2.524363e+003, 3.204070e-001
2.526291e+003, 3.204342e-001
2.528220e+003, 3.211336e-001
2.530148e+003, 3.211833e-001
2.532077e+003, 3.213399e-001
2.534005e+003, 3.216290e-001
2.535934e+003, 3.224982e-001
2.537862e+003, 3.226869e-001
2.539791e+003, 3.222779e-001
2.541719e+003, 3.221427e-001
2.543647e+003, 3.223960e-001
2.545576e+003, 3.227945e-001
2.547504e+003, 3.236938e-001
2.549433e+003, 3.239585e-001
2.551361e+003, 3.239620e-001
2.553290e+003, 3.240184e-001
2.555218e+003, 3.246365e-001
2.557147e+003, 3.249773e-001
2.559075e+003, 3.248838e-001
2.561004e+003, 3.251083e-001
2.562932e+003, 3.254997e-001
2.564861e+003, 3.252209e-001
2.566789e+003, 3.252140e-001
2.568718e+003, 3.253583e-001
2.570646e+003, 3.257543e-001
2.572574e+003, 3.258653e-001
2.574503e+003, 3.260727e-001
2.576431e+003, 3.261555e-001
2.578360e+003, 3.266747e-001
2.580288e+003, 3.272112e-001
2.582217e+003, 3.267654e-001
2.584145e+003, 3.259820e-001
2.586074e+003, 3.268049e-001
2.588002e+003, 3.273993e-001
2.589931e+003, 3.279306e-001
2.591859e+003, 3.279999e-001
2.593788e+003, 3.278959e-001
2.595716e+003, 3.286636e-001
2.597645e+003, 3.290445e-001
2.599573e+003, 3.291396e-001
2.601501e+003, 3.290708e-001
2.603430e+003, 3.289356e-001
2.605358e+003, 3.294077e-001
2.607287e+003, 3.299204e-001
2.609215e+003, 3.297564e-001
2.611144e+003, 3.303110e-001
2.613072e+003, 3.308241e-001
2.615001e+003, 3.305393e-001
2.616929e+003, 3.308673e-001
2.618858e+003, 3.311166e-001
2.620786e+003, 3.313765e-001
2.622715e+003, 3.314288e-001
2.624643e+003, 3.315346e-001
2.626572e+003, 3.318603e-001
2.628500e+003, 3.325857e-001
2.630428e+003, 3.329662e-001
2.632357e+003, 3.327384e-001
2.634285e+003, 3.327495e-001
2.636214e+003, 3.330042e-001
2.638142e+003, 3.332029e-001
2.640071e+003, 3.336511e-001
2.641999e+003, 3.340649e-001
2.643928e+003, 3.338010e-001
2.645856e+003, 3.337879e-001
2.647785e+003, 3.342209e-001
2.649713e+003, 3.345181e-001
2.651642e+003, 3.347579e-001
2.653570e+003, 3.354598e-001
2.655499e+003, 3.357527e-001
2.657427e+003, 3.355987e-001
2.659355e+003, 3.358012e-001
2.661284e+003, 3.357584e-001
2.663212e+003, 3.356688e-001
2.665141e+003, 3.359359e-001
2.667069e+003, 3.360766e-001
2.668998e+003, 3.364261e-001
2.670926e+003, 3.365020e-001
2.672855e+003, 3.366540e-001
2.674783e+003, 3.369835e-001
2.676712e+003, 3.371894e-001
2.678640e+003, 3.376637e-001
2.680569e+003, 3.379791e-001
2.682497e+003, 3.380419e-001
2.684426e+003, 3.381234e-001
2.686354e+003, 3.380193e-001
2.688282e+003, 3.380023e-001
2.690211e+003, 3.382455e-001
2.692139e+003, 3.387482e-001
2.694068e+003, 3.392810e-001
2.695996e+003, 3.397885e-001
2.697925e+003, 3.394821e-001
2.699853e+003, 3.393167e-001
2.701782e+003, 3.397357e-001
2.703710e+003, 3.400767e-001
2.705639e+003, 3.404803e-001
2.707567e+003, 3.409128e-001
2.709496e+003, 3.410608e-001
2.711424e+003, 3.411312e-001
2.713353e+003, 3.414281e-001
2.715281e+003, 3.416765e-001
2.717209e+003, 3.416268e-001
2.719138e+003, 3.419909e-001
2.721066e+003, 3.423289e-001
2.722995e+003, 3.424143e-001
2.724923e+003, 3.426453e-001
2.726852e+003, 3.427960e-001
2.728780e+003, 3.429176e-001
2.730709e+003, 3.436500e-001
2.732637e+003, 3.440724e-001
2.734566e+003, 3.442508e-001
2.736494e+003, 3.438945e-001
2.738423e+003, 3.443939e-001
2.740351e+003, 3.450133e-001
2.742280e+003, 3.452271e-001
2.744208e+003, 3.457702e-001
2.746136e+003, 3.460491e-001
2.748065e+003, 3.460548e-001
2.749993e+003, 3.459106e-001
2.751922e+003, 3.463704e-001
2.753850e+003, 3.472452e-001
2.755779e+003, 3.476452e-001
2.757707e+003, 3.474154e-001
2.759636e+003, 3.472964e-001
2.761564e+003, 3.473459e-001
2.763493e+003, 3.476239e-001
2.765421e+003, 3.481515e-001
2.767350e+003, 3.485530e-001
2.769278e+003, 3.486568e-001
2.771207e+003, 3.487258e-001
2.773135e+003, 3.488117e-001
2.775063e+003, 3.488398e-001
2.776992e+003, 3.494142e-001
2.778920e+003, 3.501313e-001
2.780849e+003, 3.506307e-001
2.782777e+003, 3.506888e-001
2.784706e+003, 3.508670e-001
2.786634e+003, 3.508255e-001
2.788563e+003, 3.510387e-001
2.790491e+003, 3.514074e-001
2.792420e+003, 3.516847e-001
2.794348e+003, 3.518242e-001
2.796277e+003, 3.521788e-001
2.798205e+003, 3.531016e-001
2.800134e+003, 3.532036e-001
2.802062e+003, 3.529925e-001
2.803990e+003, 3.533423e-001
2.805919e+003, 3.538165e-001
2.807847e+003, 3.543267e-001
2.809776e+003, 3.547277e-001
2.811704e+003, 3.548241e-001
2.813633e+003, 3.549227e-001
2.815561e+003, 3.552369e-001
2.817490e+003, 3.554970e-001
2.819418e+003, 3.556684e-001
2.821347e+003, 3.560097e-001
2.823275e+003, 3.563593e-001
2.825204e+003, 3.564194e-001
2.827132e+003, 3.566675e-001
2.829061e+003, 3.570311e-001
2.830989e+003, 3.573962e-001
2.832917e+003, 3.580595e-001
2.834846e+003, 3.583909e-001
2.836774e+003, 3.584548e-001
2.838703e+003, 3.586032e-001
2.840631e+003, 3.588301e-001
2.842560e+003, 3.587596e-001
2.844488e+003, 3.592102e-001
2.846417e+003, 3.593460e-001
2.848345e+003, 3.594078e-001
2.850274e+003, 3.600420e-001
2.852202e+003, 3.603358e-001
2.854131e+003, 3.603190e-001
2.856059e+003, 3.601003e-001
2.857988e+003, 3.606659e-001
2.859916e+003, 3.616555e-001
2.861844e+003, 3.618124e-001
2.863773e+003, 3.616479e-001
2.865701e+003, 3.618968e-001
2.867630e+003, 3.621111e-001
2.869558e+003, 3.621674e-001
2.871487e+003, 3.625816e-001
2.873415e+003, 3.627856e-001
2.875344e+003, 3.629203e-001
2.877272e+003, 3.632171e-001
2.879201e+003, 3.633285e-001
2.881129e+003, 3.635448e-001
2.883058e+003, 3.642190e-001
2.884986e+003, 3.646325e-001
2.886915e+003, 3.647011e-001
2.888843e+003, 3.649002e-001
2.890771e+003, 3.650326e-001
2.892700e+003, 3.654445e-001
2.894628e+003, 3.657709e-001
2.896557e+003, 3.660593e-001
2.898485e+003, 3.662642e-001
2.900414e+003, 3.663396e-001
2.902342e+003, 3.667932e-001
2.904271e+003, 3.671798e-001
2.906199e+003, 3.668524e-001
2.908128e+003, 3.664357e-001
2.910056e+003, 3.672518e-001
2.911985e+003, 3.681692e-001
2.913913e+003, 3.686736e-001
2.915842e+003, 3.688580e-001
2.917770e+003, 3.687768e-001
2.919698e+003, 3.680754e-001
2.921627e+003, 3.685912e-001
2.923555e+003, 3.693006e-001
2.925484e+003, 3.699593e-001
2.927412e+003, 3.701332e-001
2.929341e+003, 3.696665e-001
2.931269e+003, 3.693247e-001
2.933198e+003, 3.688635e-001
2.935126e+003, 3.689279e-001
2.937055e+003, 3.694969e-001
2.938983e+003, 3.697599e-001
2.940912e+003, 3.701810e-001
2.942840e+003, 3.712090e-001
2.944769e+003, 3.720129e-001
2.946697e+003, 3.713634e-001
2.948625e+003, 3.719759e-001
2.950554e+003, 3.725787e-001
2.952482e+003, 3.721442e-001
2.954411e+003, 3.719419e-001
2.956339e+003, 3.721159e-001
2.958268e+003, 3.723210e-001
2.960196e+003, 3.725380e-001
2.962125e+003, 3.723404e-001
2.964053e+003, 3.724731e-001
2.965982e+003, 3.731750e-001
2.967910e+003, 3.733082e-001
2.969839e+003, 3.731198e-001
2.971767e+003, 3.737473e-001
2.973696e+003, 3.742386e-001
2.975624e+003, 3.737859e-001
2.977552e+003, 3.738402e-001
2.979481e+003, 3.746303e-001
2.981409e+003, 3.750056e-001
2.983338e+003, 3.752480e-001
2.985266e+003, 3.751825e-001
2.987195e+003, 3.750390e-001
2.989123e+003, 3.757981e-001
2.991052e+003, 3.764265e-001
2.992980e+003, 3.766582e-001
2.994909e+003, 3.766932e-001
2.996837e+003, 3.766591e-001
2.998766e+003, 3.772763e-001
3.000694e+003, 3.776344e-001
3.002623e+003, 3.779678e-001
3.004551e+003, 3.781450e-001
3.006479e+003, 3.780380e-001
3.008408e+003, 3.790016e-001
3.010336e+003, 3.796600e-001
3.012265e+003, 3.795224e-001
3.014193e+003, 3.795191e-001
3.016122e+003, 3.800791e-001
3.018050e+003, 3.808134e-001
3.019979e+003, 3.807385e-001
3.021907e+003, 3.807418e-001
3.023836e+003, 3.818476e-001
3.025764e+003, 3.822565e-001
3.027693e+003, 3.821452e-001
3.029621e+003, 3.820210e-001
3.031550e+003, 3.821621e-001
3.033478e+003, 3.825495e-001
3.035406e+003, 3.829708e-001
3.037335e+003, 3.829296e-001
3.039263e+003, 3.834766e-001
3.041192e+003, 3.840685e-001
3.043120e+003, 3.845223e-001
3.045049e+003, 3.849255e-001
3.046977e+003, 3.844504e-001
3.048906e+003, 3.847550e-001
3.050834e+003, 3.856873e-001
3.052763e+003, 3.863053e-001
3.054691e+003, 3.868165e-001
3.056620e+003, 3.871917e-001
3.058548e+003, 3.867621e-001
3.060477e+003, 3.865765e-001
3.062405e+003, 3.871562e-001
3.064333e+003, 3.875054e-001
3.066262e+003, 3.876218e-001
3.068190e+003, 3.875744e-001
3.070119e+003, 3.878353e-001
3.072047e+003, 3.892335e-001
3.073976e+003, 3.895968e-001
3.075904e+003, 3.891168e-001
3.077833e+003, 3.897795e-001
3.079761e+003, 3.907097e-001
3.081690e+003, 3.909817e-001
3.083618e+003, 3.904306e-001
3.085547e+003, 3.901497e-001
3.087475e+003, 3.907225e-001
3.089404e+003, 3.912500e-001
3.091332e+003, 3.914144e-001
3.093260e+003, 3.913760e-001
3.095189e+003, 3.922431e-001
3.097117e+003, 3.928505e-001
3.099046e+003, 3.919974e-001
3.100974e+003, 3.918746e-001
3.102903e+003, 3.923964e-001
3.104831e+003, 3.926848e-001
3.106760e+003, 3.925185e-001
3.108688e+003, 3.933388e-001
3.110617e+003, 3.946554e-001
3.112545e+003, 3.946154e-001
3.114474e+003, 3.943596e-001
3.116402e+003, 3.945488e-001
3.118331e+003, 3.953657e-001
3.120259e+003, 3.958868e-001
3.122188e+003, 3.956110e-001
3.124116e+003, 3.952495e-001
3.126044e+003, 3.956202e-001
3.127973e+003, 3.960604e-001
3.129901e+003, 3.960311e-001
3.131830e+003, 3.962100e-001
3.133758e+003, 3.968663e-001
3.135687e+003, 3.967265e-001
3.137615e+003, 3.967285e-001
3.139544e+003, 3.975487e-001
3.141472e+003, 3.971809e-001
3.143401e+003, 3.971617e-001
3.145329e+003, 3.971973e-001
3.147258e+003, 3.981295e-001
3.149186e+003, 3.989792e-001
3.151115e+003, 3.986477e-001
3.153043e+003, 3.989919e-001
3.154971e+003, 3.992333e-001
3.156900e+003, 3.987942e-001
3.158828e+003, 3.988560e-001
3.160757e+003, 3.984809e-001
3.162685e+003, 3.986549e-001
3.164614e+003, 3.992032e-001
3.166542e+003, 3.991494e-001
3.168471e+003, 3.997047e-001
3.170399e+003, 4.001918e-001
3.172328e+003, 4.000298e-001
3.174256e+003, 4.000260e-001
3.176185e+003, 4.002006e-001
3.178113e+003, 4.001886e-001
3.180042e+003, 4.007535e-001
3.181970e+003, 4.008321e-001
3.183898e+003, 4.002954e-001
3.185827e+003, 3.997841e-001
3.187755e+003, 3.997227e-001
3.189684e+003, 3.999729e-001
3.191612e+003, 4.007721e-001
3.193541e+003, 4.010110e-001
3.195469e+003, 4.005052e-001
3.197398e+003, 4.001631e-001
3.199326e+003, 3.996046e-001
3.201255e+003, 3.997037e-001
3.203183e+003, 3.997301e-001
3.205112e+003, 3.994738e-001
3.207040e+003, 3.998275e-001
3.208969e+003, 4.000956e-001
3.210897e+003, 4.007388e-001
3.212825e+003, 4.005782e-001
3.214754e+003, 3.998584e-001
3.216682e+003, 4.004393e-001
3.218611e+003, 4.018757e-001
3.220539e+003, 4.020762e-001
3.222468e+003, 4.020620e-001
3.224396e+003, 4.011618e-001
3.226325e+003, 4.006391e-001
3.228253e+003, 4.006864e-001
3.230182e+003, 4.006460e-001
3.232110e+003, 4.008297e-001
3.234039e+003, 4.013135e-001
3.235967e+003, 4.012423e-001
3.237896e+003, 4.003951e-001
3.239824e+003, 4.002480e-001
3.241752e+003, 4.010855e-001
3.243681e+003, 4.018248e-001
3.245609e+003, 4.027192e-001
3.247538e+003, 4.024971e-001
3.249466e+003, 4.015619e-001
3.251395e+003, 4.016538e-001
3.253323e+003, 4.024264e-001
3.255252e+003, 4.027546e-001
3.257180e+003, 4.022931e-001
3.259109e+003, 4.020789e-001
3.261037e+003, 4.022587e-001
3.262966e+003, 4.018605e-001
3.264894e+003, 4.022826e-001
3.266823e+003, 4.030367e-001
3.268751e+003, 4.026415e-001
3.270679e+003, 4.023729e-001
3.272608e+003, 4.027426e-001
3.274536e+003, 4.027575e-001
3.276465e+003, 4.021730e-001
3.278393e+003, 4.026336e-001
3.280322e+003, 4.028544e-001
3.282250e+003, 4.025375e-001
3.284179e+003, 4.027791e-001
3.286107e+003, 4.030025e-001
3.288036e+003, 4.036226e-001
3.289964e+003, 4.042199e-001
3.291893e+003, 4.034236e-001
3.293821e+003, 4.023313e-001
3.295750e+003, 4.023554e-001
3.297678e+003, 4.023567e-001
3.299606e+003, 4.028113e-001
3.301535e+003, 4.029943e-001
3.303463e+003, 4.027455e-001
3.305392e+003, 4.023909e-001
3.307320e+003, 4.018482e-001
3.309249e+003, 4.026340e-001
3.311177e+003, 4.023654e-001
3.313106e+003, 4.013724e-001
3.315034e+003, 4.023991e-001
3.316963e+003, 4.024379e-001
3.318891e+003, 4.021827e-001
3.320820e+003, 4.027260e-001
3.322748e+003, 4.021503e-001
3.324677e+003, 4.009051e-001
3.326605e+003, 4.006067e-001
3.328533e+003, 4.010541e-001
3.330462e+003, 4.012913e-001
3.332390e+003, 4.011051e-001
3.334319e+003, 4.010423e-001
3.336247e+003, 4.004475e-001
3.338176e+003, 4.000151e-001
3.340104e+003, 4.000969e-001
3.342033e+003, 3.999085e-001
3.343961e+003, 3.993867e-001
3.345890e+003, 3.992151e-001
3.347818e+003, 3.988415e-001
3.349747e+003, 3.980671e-001
3.351675e+003, 3.968873e-001
3.353604e+003, 3.967018e-001
3.355532e+003, 3.967498e-001
3.357460e+003, 3.967267e-001
3.359389e+003, 3.959681e-001
3.361317e+003, 3.946989e-001
3.363246e+003, 3.955388e-001
3.365174e+003, 3.965039e-001
3.367103e+003, 3.956541e-001
3.369031e+003, 3.949612e-001
3.370960e+003, 3.944258e-001
3.372888e+003, 3.944009e-001
3.374817e+003, 3.929475e-001
3.376745e+003, 3.916782e-001
3.378674e+003, 3.916843e-001
3.380602e+003, 3.916892e-001
3.382531e+003, 3.918649e-001
3.384459e+003, 3.915260e-001
3.386387e+003, 3.904026e-001
3.388316e+003, 3.895898e-001
3.390244e+003, 3.896118e-001
3.392173e+003, 3.891910e-001
3.394101e+003, 3.892686e-001
3.396030e+003, 3.890212e-001
3.397958e+003, 3.882220e-001
3.399887e+003, 3.879803e-001
3.401815e+003, 3.884219e-001
3.403744e+003, 3.887765e-001
3.405672e+003, 3.874033e-001
3.407601e+003, 3.863755e-001
3.409529e+003, 3.868153e-001
3.411458e+003, 3.861162e-001
3.413386e+003, 3.852901e-001
3.415314e+003, 3.855734e-001
3.417243e+003, 3.845059e-001
3.419171e+003, 3.832412e-001
3.421100e+003, 3.834083e-001
3.423028e+003, 3.830123e-001
3.424957e+003, 3.833744e-001
3.426885e+003, 3.834547e-001
3.428814e+003, 3.832554e-001
3.430742e+003, 3.835231e-001
3.432671e+003, 3.823885e-001
3.434599e+003, 3.824613e-001
3.436528e+003, 3.832945e-001
3.438456e+003, 3.832628e-001
3.440385e+003, 3.832393e-001
3.442313e+003, 3.831533e-001
3.444241e+003, 3.833511e-001
3.446170e+003, 3.830522e-001
3.448098e+003, 3.824472e-001
3.450027e+003, 3.817279e-001
3.451955e+003, 3.811295e-001
3.453884e+003, 3.812810e-001
3.455812e+003, 3.808424e-001
3.457741e+003, 3.812419e-001
3.459669e+003, 3.812270e-001
3.461598e+003, 3.808575e-001
3.463526e+003, 3.812430e-001
3.465455e+003, 3.806334e-001
3.467383e+003, 3.802167e-001
3.469312e+003, 3.804204e-001
3.471240e+003, 3.801613e-001
3.473168e+003, 3.792343e-001
3.475097e+003, 3.795275e-001
3.477025e+003, 3.798580e-001
3.478954e+003, 3.796474e-001
3.480882e+003, 3.788372e-001
3.482811e+003, 3.778951e-001
3.484739e+003, 3.786418e-001
3.486668e+003, 3.792550e-001
3.488596e+003, 3.785417e-001
3.490525e+003, 3.772976e-001
3.492453e+003, 3.775889e-001
3.494382e+003, 3.778487e-001
3.496310e+003, 3.761908e-001
3.498239e+003, 3.764775e-001
3.500167e+003, 3.783782e-001
3.502095e+003, 3.777153e-001
3.504024e+003, 3.759066e-001
3.505952e+003, 3.745790e-001
3.507881e+003, 3.750988e-001
3.509809e+003, 3.750485e-001
3.511738e+003, 3.748006e-001
3.513666e+003, 3.756375e-001
3.515595e+003, 3.755852e-001
3.517523e+003, 3.741312e-001
3.519452e+003, 3.746756e-001
3.521380e+003, 3.750946e-001
3.523309e+003, 3.750662e-001
3.525237e+003, 3.749389e-001
3.527166e+003, 3.746160e-001
3.529094e+003, 3.740163e-001
3.531022e+003, 3.751906e-001
3.532951e+003, 3.752385e-001
3.534879e+003, 3.741898e-001
3.536808e+003, 3.738480e-001
3.538736e+003, 3.745627e-001
3.540665e+003, 3.748229e-001
3.542593e+003, 3.747957e-001
3.544522e+003, 3.738407e-001
3.546450e+003, 3.733309e-001
3.548379e+003, 3.737299e-001
3.550307e+003, 3.740039e-001
3.552236e+003, 3.739692e-001
3.554164e+003, 3.736655e-001
3.556093e+003, 3.730689e-001
3.558021e+003, 3.725664e-001
3.559949e+003, 3.727240e-001
3.561878e+003, 3.735337e-001
3.563806e+003, 3.732092e-001
3.565735e+003, 3.731882e-001
3.567663e+003, 3.738474e-001
3.569592e+003, 3.737329e-001
3.571520e+003, 3.734618e-001
3.573449e+003, 3.727856e-001
3.575377e+003, 3.725653e-001
3.577306e+003, 3.728303e-001
3.579234e+003, 3.725751e-001
3.581163e+003, 3.721515e-001
3.583091e+003, 3.728353e-001
3.585020e+003, 3.735463e-001
3.586948e+003, 3.723972e-001
3.588876e+003, 3.718671e-001
3.590805e+003, 3.723853e-001
3.592733e+003, 3.727857e-001
3.594662e+003, 3.727910e-001
3.596590e+003, 3.737091e-001
3.598519e+003, 3.737928e-001
3.600447e+003, 3.730944e-001
3.602376e+003, 3.732145e-001
3.604304e+003, 3.735102e-001
3.606233e+003, 3.733758e-001
3.608161e+003, 3.737331e-001
3.610090e+003, 3.721006e-001
3.612018e+003, 3.714927e-001
3.613947e+003, 3.733618e-001
3.615875e+003, 3.742982e-001
3.617803e+003, 3.743598e-001
3.619732e+003, 3.746019e-001
3.621660e+003, 3.746222e-001
3.623589e+003, 3.747286e-001
3.625517e+003, 3.755069e-001
3.627446e+003, 3.746224e-001
3.629374e+003, 3.727099e-001
3.631303e+003, 3.731695e-001
3.633231e+003, 3.741461e-001
3.635160e+003, 3.743647e-001
3.637088e+003, 3.749009e-001
3.639017e+003, 3.760532e-001
3.640945e+003, 3.760166e-001
3.642874e+003, 3.747381e-001
3.644802e+003, 3.757647e-001
3.646730e+003, 3.765342e-001
3.648659e+003, 3.763081e-001
3.650587e+003, 3.762900e-001
3.652516e+003, 3.753913e-001
3.654444e+003, 3.767353e-001
3.656373e+003, 3.781558e-001
3.658301e+003, 3.776870e-001
3.660230e+003, 3.781718e-001
3.662158e+003, 3.791713e-001
3.664087e+003, 3.791293e-001
3.666015e+003, 3.791966e-001
3.667944e+003, 3.782053e-001
3.669872e+003, 3.776556e-001
3.671801e+003, 3.787507e-001
3.673729e+003, 3.801022e-001
3.675657e+003, 3.805764e-001
3.677586e+003, 3.803241e-001
3.679514e+003, 3.801396e-001
3.681443e+003, 3.804158e-001
3.683371e+003, 3.800317e-001
3.685300e+003, 3.803063e-001
3.687228e+003, 3.810316e-001
3.689157e+003, 3.810199e-001
3.691085e+003, 3.810833e-001
3.693014e+003, 3.816877e-001
3.694942e+003, 3.828118e-001
3.696871e+003, 3.822217e-001
3.698799e+003, 3.817530e-001
3.700728e+003, 3.819193e-001
3.702656e+003, 3.810181e-001
3.704584e+003, 3.815581e-001
3.706513e+003, 3.818673e-001
3.708441e+003, 3.821354e-001
3.710370e+003, 3.835614e-001
3.712298e+003, 3.841497e-001
3.714227e+003, 3.827190e-001
3.716155e+003, 3.837490e-001
3.718084e+003, 3.842293e-001
3.720012e+003, 3.837545e-001
3.721941e+003, 3.840904e-001
3.723869e+003, 3.837819e-001
3.725798e+003, 3.831229e-001
3.727726e+003, 3.831327e-001
3.729655e+003, 3.827438e-001
3.731583e+003, 3.827672e-001
3.733511e+003, 3.837780e-001
3.735440e+003, 3.840501e-001
3.737368e+003, 3.844654e-001
3.739297e+003, 3.856067e-001
3.741225e+003, 3.856040e-001
3.743154e+003, 3.849131e-001
3.745082e+003, 3.855045e-001
3.747011e+003, 3.868800e-001
3.748939e+003, 3.869503e-001
3.750868e+003, 3.858756e-001
3.752796e+003, 3.858412e-001
3.754725e+003, 3.870827e-001
3.756653e+003, 3.870808e-001
3.758582e+003, 3.878804e-001
3.760510e+003, 3.886540e-001
3.762438e+003, 3.882309e-001
3.764367e+003, 3.882229e-001
3.766295e+003, 3.883135e-001
3.768224e+003, 3.865441e-001
3.770152e+003, 3.861719e-001
3.772081e+003, 3.877047e-001
3.774009e+003, 3.880150e-001
3.775938e+003, 3.868898e-001
3.777866e+003, 3.880503e-001
3.779795e+003, 3.889743e-001
3.781723e+003, 3.882399e-001
3.783652e+003, 3.879308e-001
3.785580e+003, 3.873393e-001
3.787509e+003, 3.865397e-001
3.789437e+003, 3.874967e-001
3.791365e+003, 3.875289e-001
3.793294e+003, 3.873310e-001
3.795222e+003, 3.873270e-001
3.797151e+003, 3.872566e-001
3.799079e+003, 3.867840e-001
3.801008e+003, 3.862900e-001
3.802936e+003, 3.864349e-001
3.804865e+003, 3.865765e-001
3.806793e+003, 3.872575e-001
3.808722e+003, 3.874354e-001
3.810650e+003, 3.865901e-001
3.812579e+003, 3.874122e-001
3.814507e+003, 3.886448e-001
3.816436e+003, 3.889913e-001
3.818364e+003, 3.886307e-001
3.820292e+003, 3.897144e-001
3.822221e+003, 3.905063e-001
3.824149e+003, 3.902988e-001
3.826078e+003, 3.889781e-001
3.828006e+003, 3.884724e-001
3.829935e+003, 3.904524e-001
3.831863e+003, 3.911481e-001
3.833792e+003, 3.906714e-001
3.835720e+003, 3.895386e-001
3.837649e+003, 3.892610e-001
3.839577e+003, 3.896886e-001
3.841506e+003, 3.904887e-001
3.843434e+003, 3.897010e-001
3.845363e+003, 3.894706e-001
3.847291e+003, 3.900664e-001
3.849219e+003, 3.902058e-001
3.851148e+003, 3.908223e-001
3.853076e+003, 3.916488e-001
3.855005e+003, 3.919153e-001
3.856933e+003, 3.924345e-001
3.858862e+003, 3.922130e-001
3.860790e+003, 3.915907e-001
3.862719e+003, 3.904046e-001
3.864647e+003, 3.894258e-001
3.866576e+003, 3.892475e-001
3.868504e+003, 3.895167e-001
3.870433e+003, 3.899161e-001
3.872361e+003, 3.903005e-001
3.874290e+003, 3.915140e-001
3.876218e+003, 3.926364e-001
3.878146e+003, 3.919243e-001
3.880075e+003, 3.910646e-001
3.882003e+003, 3.912650e-001
3.883932e+003, 3.909071e-001
3.885860e+003, 3.913324e-001
3.887789e+003, 3.924303e-001
3.889717e+003, 3.927088e-001
3.891646e+003, 3.923597e-001
3.893574e+003, 3.914135e-001
3.895503e+003, 3.899963e-001
3.897431e+003, 3.903737e-001
3.899360e+003, 3.916133e-001
3.901288e+003, 3.901233e-001
3.903217e+003, 3.871843e-001
3.905145e+003, 3.874520e-001
3.907073e+003, 3.899869e-001
3.909002e+003, 3.910731e-001
3.910930e+003, 3.904928e-001
3.912859e+003, 3.910550e-001
3.914787e+003, 3.915001e-001
3.916716e+003, 3.916134e-001
3.918644e+003, 3.922116e-001
3.920573e+003, 3.924961e-001
3.922501e+003, 3.925288e-001
3.924430e+003, 3.931108e-001
3.926358e+003, 3.939377e-001
3.928287e+003, 3.936919e-001
3.930215e+003, 3.930529e-001
3.932144e+003, 3.931206e-001
3.934072e+003, 3.938039e-001
3.936000e+003, 3.933617e-001
3.937929e+003, 3.931369e-001
3.939857e+003, 3.919560e-001
3.941786e+003, 3.915203e-001
3.943714e+003, 3.924606e-001
3.945643e+003, 3.929164e-001
3.947571e+003, 3.929981e-001
3.949500e+003, 3.925476e-001
3.951428e+003, 3.909029e-001
3.953357e+003, 3.917284e-001
3.955285e+003, 3.935863e-001
3.957214e+003, 3.945661e-001
3.959142e+003, 3.938151e-001
3.961071e+003, 3.922648e-001
3.962999e+003, 3.918747e-001
3.964927e+003, 3.933023e-001
3.966856e+003, 3.941899e-001
3.968784e+003, 3.945281e-001
3.970713e+003, 3.944136e-001
3.972641e+003, 3.939778e-001
3.974570e+003, 3.926680e-001
3.976498e+003, 3.917987e-001
3.978427e+003, 3.930928e-001
3.980355e+003, 3.935660e-001
3.982284e+003, 3.931240e-001
3.984212e+003, 3.947497e-001
3.986141e+003, 3.934564e-001
3.988069e+003, 3.920290e-001
3.989998e+003, 3.931710e-001
3.991926e+003, 3.932000e-001
3.993854e+003, 3.934825e-001
3.995783e+003, 3.945541e-001
3.997711e+003, 3.943066e-001
3.999640e+003, 3.935240e-001
##END=



