##NAMES=Strunzite
##RRUFFID=R050619
##IDEAL CHEMISTRY=Mn^2+^Fe^3+^_2_(P^5+^O_4_)_2_(OH)_2_&#183;6H_2_O
##LOCALITY=Hagendorf, Germany
##OWNER=RRUFF
##SOURCE=University of Arizona Mineral Museum
##DESCRIPTION=Pale yellow acicular crystals
##STATUS=The identification of this mineral is confirmed by single-crystal X-ray diffraction and chemical analysis.
##URL=rruff.info/R050619
##MEASURED CHEMISTRY=(Mn^2+^_0.52_Fe^2+^_0.43_Mg_0.05_)_Σ=1_Fe^3+^_2.00_(P_1.00_O_4_)_2_(OH)_2_·6H_2_O
399.1926, 0.1763857
401.1211, 0.1748826
403.0496, 0.1757234
404.9780, 0.1759940
406.9065, 0.1752706
408.8350, 0.1756029
410.7634, 0.1742764
412.6919, 0.1746628
414.6204, 0.1767112
416.5488, 0.1806200
418.4773, 0.1859247
420.4058, 0.1864977
422.3342, 0.1869566
424.2627, 0.1873328
426.1912, 0.1885345
428.1196, 0.1911202
430.0481, 0.1891321
431.9766, 0.1862757
433.9050, 0.1854268
435.8335, 0.1835286
437.7620, 0.1809459
439.6904, 0.1811786
441.6189, 0.1815634
443.5474, 0.1799778
445.4758, 0.1787848
447.4043, 0.1802101
449.3328, 0.1775503
451.2612, 0.1755156
453.1897, 0.1751518
455.1182, 0.1771991
457.0466, 0.1792845
458.9751, 0.1781678
460.9036, 0.1767222
462.8320, 0.1761035
464.7605, 0.1758768
466.6890, 0.1765801
468.6174, 0.1769664
470.5459, 0.1764437
472.4744, 0.1766062
474.4028, 0.1768463
476.3313, 0.1760938
478.2598, 0.1759152
480.1882, 0.1779394
482.1167, 0.1797295
484.0452, 0.1807991
485.9736, 0.1810692
487.9021, 0.1826312
489.8306, 0.1848169
491.7590, 0.1858634
493.6875, 0.1863277
495.6160, 0.1861138
497.5444, 0.1860764
499.4729, 0.1865264
501.4014, 0.1872522
503.3298, 0.1870300
505.2583, 0.1858539
507.1868, 0.1830412
509.1152, 0.1803169
511.0437, 0.1788173
512.9722, 0.1761653
514.9006, 0.1729032
516.8291, 0.1703559
518.7576, 0.1683340
520.6860, 0.1670977
522.6145, 0.1655387
524.5430, 0.1644838
526.4714, 0.1642935
528.3999, 0.1631928
530.3284, 0.1620708
532.2568, 0.1613779
534.1853, 0.1609013
536.1138, 0.1602735
538.0422, 0.1601578
539.9707, 0.1602525
541.8992, 0.1592409
543.8276, 0.1584620
545.7561, 0.1579420
547.6846, 0.1582080
549.6130, 0.1577782
551.5415, 0.1574233
553.4700, 0.1560043
555.3984, 0.1550679
557.3269, 0.1555225
559.2554, 0.1563020
561.1838, 0.1552794
563.1123, 0.1543564
565.0408, 0.1544120
566.9692, 0.1545249
568.8977, 0.1535338
570.8262, 0.1531715
572.7546, 0.1527862
574.6831, 0.1513043
576.6116, 0.1500894
578.5400, 0.1500022
580.4685, 0.1500464
582.3970, 0.1489678
584.3254, 0.1466533
586.2539, 0.1452253
588.1824, 0.1442063
590.1108, 0.1432836
592.0393, 0.1428029
593.9678, 0.1420099
595.8962, 0.1412831
597.8247, 0.1407574
599.7532, 0.1399006
601.6816, 0.1394797
603.6101, 0.1392400
605.5386, 0.1391324
607.4670, 0.1389679
609.3955, 0.1386663
611.3240, 0.1385302
613.2524, 0.1383295
615.1809, 0.1380037
617.1094, 0.1374739
619.0378, 0.1371504
620.9663, 0.1360635
622.8948, 0.1351869
624.8232, 0.1340518
626.7517, 0.1321911
628.6802, 0.1299495
630.6086, 0.1281336
632.5371, 0.1262656
634.4656, 0.1241976
636.3940, 0.1224489
638.3225, 0.1203804
640.2510, 0.1179826
642.1794, 0.1157998
644.1079, 0.1139821
646.0364, 0.1120437
647.9648, 0.1100021
649.8933, 0.1079419
651.8218, 0.1063273
653.7502, 0.1045747
655.6787, 0.1030459
657.6072, 0.1022005
659.5356, 0.1011561
661.4641, 0.1008100
663.3926, 0.1008492
665.3210, 0.1003750
667.2495, 0.1001611
669.1780, 0.1000515
671.1064, 0.1000559
673.0349, 0.1006915
674.9634, 0.1011350
676.8918, 0.1013163
678.8203, 0.1017830
680.7488, 0.1020941
682.6772, 0.1022610
684.6057, 0.1030203
686.5342, 0.1033670
688.4626, 0.1036563
690.3911, 0.1039725
692.3196, 0.1042469
694.2480, 0.1047266
696.1765, 0.1049896
698.1050, 0.1051716
700.0334, 0.1056624
701.9619, 0.1060680
703.8904, 0.1065741
705.8188, 0.1070722
707.7473, 0.1074212
709.6758, 0.1075493
711.6042, 0.1078350
713.5327, 0.1082601
715.4612, 0.1086502
717.3896, 0.1086878
719.3181, 0.1089576
721.2466, 0.1097524
723.1750, 0.1100640
725.1035, 0.1100202
727.0320, 0.1105081
728.9604, 0.1109320
730.8889, 0.1110714
732.8174, 0.1115058
734.7458, 0.1114139
736.6743, 0.1107838
738.6028, 0.1104655
740.5313, 0.1102760
742.4597, 0.1103247
744.3882, 0.1103012
746.3167, 0.1095426
748.2451, 0.1085983
750.1736, 0.1085366
752.1021, 0.1081044
754.0305, 0.1072498
755.9590, 0.1064424
757.8875, 0.1058367
759.8159, 0.1052995
761.7444, 0.1046119
763.6729, 0.1041212
765.6013, 0.1041278
767.5298, 0.1042543
769.4583, 0.1042201
771.3867, 0.1038972
773.3152, 0.1038514
775.2437, 0.1044484
777.1721, 0.1046503
779.1006, 0.1046543
781.0291, 0.1055451
782.9575, 0.1060071
784.8860, 0.1066211
786.8145, 0.1078173
788.7429, 0.1088567
790.6714, 0.1094124
792.5999, 0.1104709
794.5283, 0.1117881
796.4568, 0.1127098
798.3853, 0.1139502
800.3137, 0.1151274
802.2422, 0.1160005
804.1707, 0.1163193
806.0991, 0.1165987
808.0276, 0.1172727
809.9561, 0.1175298
811.8845, 0.1172722
813.8130, 0.1166737
815.7415, 0.1158701
817.6699, 0.1156269
819.5984, 0.1156785
821.5269, 0.1153022
823.4553, 0.1150837
825.3838, 0.1153923
827.3123, 0.1157884
829.2407, 0.1159868
831.1692, 0.1166075
833.0977, 0.1171528
835.0261, 0.1173154
836.9546, 0.1174068
838.8831, 0.1176658
840.8115, 0.1178235
842.7400, 0.1174006
844.6685, 0.1169908
846.5969, 0.1168942
848.5254, 0.1168443
850.4539, 0.1169735
852.3823, 0.1169393
854.3108, 0.1166427
856.2393, 0.1168024
858.1677, 0.1171952
860.0962, 0.1172396
862.0247, 0.1178260
863.9531, 0.1187284
865.8816, 0.1194347
867.8101, 0.1204282
869.7385, 0.1215579
871.6670, 0.1229916
873.5955, 0.1247092
875.5239, 0.1263515
877.4524, 0.1284752
879.3809, 0.1304926
881.3093, 0.1324156
883.2378, 0.1344894
885.1663, 0.1367292
887.0947, 0.1389707
889.0232, 0.1416143
890.9517, 0.1443500
892.8801, 0.1474286
894.8085, 0.1503016
896.7370, 0.1532222
898.6655, 0.1567784
900.5939, 0.1604426
902.5224, 0.1639218
904.4509, 0.1675444
906.3793, 0.1717201
908.3078, 0.1757924
910.2363, 0.1805705
912.1647, 0.1858562
914.0932, 0.1910578
916.0217, 0.1963321
917.9501, 0.2017196
919.8786, 0.2083325
921.8071, 0.2155975
923.7355, 0.2227980
925.6640, 0.2298906
927.5925, 0.2376564
929.5209, 0.2461605
931.4494, 0.2546863
933.3779, 0.2638131
935.3063, 0.2737239
937.2348, 0.2835464
939.1633, 0.2934331
941.0917, 0.3035505
943.0202, 0.3135724
944.9487, 0.3243232
946.8771, 0.3348830
948.8056, 0.3449291
950.7341, 0.3549156
952.6625, 0.3636490
954.5910, 0.3707529
956.5195, 0.3773457
958.4479, 0.3831289
960.3764, 0.3866157
962.3049, 0.3884084
964.2333, 0.3885189
966.1618, 0.3882119
968.0903, 0.3877890
970.0187, 0.3859733
971.9472, 0.3830729
973.8757, 0.3798698
975.8041, 0.3762711
977.7326, 0.3719447
979.6611, 0.3678005
981.5895, 0.3636925
983.5180, 0.3597217
985.4465, 0.3564048
987.3749, 0.3534160
989.3034, 0.3508953
991.2319, 0.3481455
993.1603, 0.3452744
995.0888, 0.3423430
997.0173, 0.3395237
998.9457, 0.3369730
1000.874, 0.3347865
1002.803, 0.3321633
1004.731, 0.3287194
1006.660, 0.3250443
1008.588, 0.3212931
1010.517, 0.3166460
1012.445, 0.3118802
1014.373, 0.3071217
1016.302, 0.3011540
1018.230, 0.2945620
1020.159, 0.2880799
1022.087, 0.2814656
1024.016, 0.2746880
1025.944, 0.2683034
1027.873, 0.2621818
1029.801, 0.2555357
1031.730, 0.2494017
1033.658, 0.2435197
1035.587, 0.2376009
1037.515, 0.2322958
1039.444, 0.2274565
1041.372, 0.2232202
1043.301, 0.2186219
1045.229, 0.2142126
1047.157, 0.2102212
1049.086, 0.2060012
1051.014, 0.2018843
1052.943, 0.1981329
1054.871, 0.1943490
1056.800, 0.1906669
1058.728, 0.1867548
1060.657, 0.1832601
1062.585, 0.1803478
1064.514, 0.1774790
1066.442, 0.1745554
1068.371, 0.1719027
1070.299, 0.1694576
1072.228, 0.1675149
1074.156, 0.1662982
1076.084, 0.1652313
1078.013, 0.1643329
1079.941, 0.1638181
1081.870, 0.1631890
1083.798, 0.1624794
1085.727, 0.1610694
1087.655, 0.1586460
1089.584, 0.1558769
1091.512, 0.1527046
1093.441, 0.1485997
1095.369, 0.1442054
1097.298, 0.1397275
1099.226, 0.1347800
1101.155, 0.1294849
1103.083, 0.1241984
1105.011, 0.1193601
1106.940, 0.1146855
1108.868, 0.1096565
1110.797, 0.1047545
1112.725, 0.1001480
1114.654, 9.5402040E-02
1116.582, 9.0719037E-02
1118.511, 8.5968778E-02
1120.439, 8.1639849E-02
1122.368, 7.7607073E-02
1124.296, 7.3913522E-02
1126.225, 7.0350930E-02
1128.153, 6.7111842E-02
1130.082, 6.3824147E-02
1132.010, 6.0412131E-02
1133.938, 5.7493411E-02
1135.867, 5.4858219E-02
1137.795, 5.2609868E-02
1139.724, 5.0376259E-02
1141.652, 4.8007332E-02
1143.581, 4.6011008E-02
1145.509, 4.4349160E-02
1147.438, 4.2592589E-02
1149.366, 4.0585231E-02
1151.295, 3.9001338E-02
1153.223, 3.7495479E-02
1155.152, 3.5943490E-02
1157.080, 3.4504369E-02
1159.009, 3.3075251E-02
1160.937, 3.1870149E-02
1162.865, 3.0575311E-02
1164.794, 2.9360650E-02
1166.722, 2.8333100E-02
1168.651, 2.6894011E-02
1170.579, 2.5860680E-02
1172.508, 2.4928801E-02
1174.436, 2.4036460E-02
1176.365, 2.3222990E-02
1178.293, 2.2438399E-02
1180.222, 2.1725999E-02
1182.150, 2.1140810E-02
1184.079, 2.0556949E-02
1186.007, 1.9687049E-02
1187.936, 1.9139869E-02
1189.864, 1.8798210E-02
1191.792, 1.8024109E-02
1193.721, 1.7447989E-02
1195.649, 1.7113989E-02
1197.578, 1.6706649E-02
1199.506, 1.6552800E-02
1201.435, 1.6294090E-02
1203.363, 1.5765520E-02
1205.292, 1.5320960E-02
1207.220, 1.5163120E-02
1209.149, 1.4916880E-02
1211.077, 1.4525560E-02
1213.006, 1.4085020E-02
1214.934, 1.3970580E-02
1216.863, 1.4097220E-02
1218.791, 1.3836110E-02
1220.719, 1.3427380E-02
1222.648, 1.3188220E-02
1224.576, 1.3004290E-02
1226.505, 1.2885440E-02
1228.433, 1.2825230E-02
1230.362, 1.2915810E-02
1232.290, 1.2839480E-02
1234.219, 1.2634260E-02
1236.147, 1.2526620E-02
1238.076, 1.2609070E-02
1240.004, 1.2749610E-02
1241.933, 1.2699070E-02
1243.861, 1.2712590E-02
1245.790, 1.2803090E-02
1247.718, 1.2880820E-02
1249.646, 1.2946100E-02
1251.575, 1.3057870E-02
1253.503, 1.3249340E-02
1255.432, 1.3785520E-02
1257.360, 1.4430250E-02
1259.289, 1.4975180E-02
1261.217, 1.5383210E-02
1263.146, 1.5371690E-02
1265.074, 1.4792020E-02
1267.003, 1.4046240E-02
1268.931, 1.3487370E-02
1270.860, 1.3276670E-02
1272.788, 1.3086170E-02
1274.717, 1.2700990E-02
1276.645, 1.2315500E-02
1278.573, 1.2204990E-02
1280.502, 1.2158300E-02
1282.430, 1.2272520E-02
1284.359, 1.2461800E-02
1286.287, 1.2337100E-02
1288.216, 1.2197560E-02
1290.144, 1.2322870E-02
1292.073, 1.2519660E-02
1294.001, 1.2722640E-02
1295.930, 1.2538720E-02
1297.858, 1.2339230E-02
1299.787, 1.2504130E-02
1301.715, 1.2667340E-02
1303.644, 1.2749810E-02
1305.572, 1.2769950E-02
1307.500, 1.2945290E-02
1309.429, 1.3247020E-02
1311.357, 1.3295130E-02
1313.286, 1.3121850E-02
1315.214, 1.3201810E-02
1317.143, 1.3368570E-02
1319.071, 1.3506230E-02
1321.000, 1.3365600E-02
1322.928, 1.3317060E-02
1324.857, 1.3696130E-02
1326.785, 1.3882220E-02
1328.714, 1.3684390E-02
1330.642, 1.3435680E-02
1332.571, 1.3519100E-02
1334.499, 1.3723550E-02
1336.427, 1.3596990E-02
1338.356, 1.3569850E-02
1340.284, 1.3831520E-02
1342.213, 1.3789850E-02
1344.141, 1.3688920E-02
1346.070, 1.3736550E-02
1347.998, 1.3885930E-02
1349.927, 1.4120550E-02
1351.855, 1.4204640E-02
1353.784, 1.3990680E-02
1355.712, 1.4009080E-02
1357.641, 1.4272670E-02
1359.569, 1.4386690E-02
1361.498, 1.4406120E-02
1363.426, 1.4530690E-02
1365.354, 1.4771830E-02
1367.283, 1.4862970E-02
1369.211, 1.4855470E-02
1371.140, 1.4900940E-02
1373.068, 1.5014590E-02
1374.997, 1.5147260E-02
1376.925, 1.5132520E-02
1378.854, 1.5242800E-02
1380.782, 1.5458400E-02
1382.711, 1.5625030E-02
1384.639, 1.5840949E-02
1386.568, 1.6182240E-02
1388.496, 1.6592121E-02
1390.424, 1.6707329E-02
1392.353, 1.7101880E-02
1394.281, 1.7390380E-02
1396.210, 1.7603520E-02
1398.138, 1.7756660E-02
1400.067, 1.8100889E-02
1401.995, 1.8605109E-02
1403.924, 1.9065920E-02
1405.852, 1.9531930E-02
1407.781, 1.9946739E-02
1409.709, 2.0111470E-02
1411.638, 2.0170690E-02
1413.566, 2.0183969E-02
1415.495, 2.0533610E-02
1417.423, 2.1043779E-02
1419.351, 2.1397190E-02
1421.280, 2.1738920E-02
1423.208, 2.1926161E-02
1425.137, 2.2049520E-02
1427.065, 2.2107041E-02
1428.994, 2.1976830E-02
1430.922, 2.1962279E-02
1432.851, 2.2196170E-02
1434.779, 2.2410329E-02
1436.708, 2.2476630E-02
1438.636, 2.2569060E-02
1440.565, 2.2408269E-02
1442.493, 2.2293139E-02
1444.422, 2.2467230E-02
1446.350, 2.2680391E-02
1448.278, 2.2350481E-02
1450.207, 2.2012061E-02
1452.135, 2.1829750E-02
1454.064, 2.1396009E-02
1455.992, 2.1076201E-02
1457.921, 2.0975720E-02
1459.849, 2.1256410E-02
1461.778, 2.1188781E-02
1463.706, 2.0961201E-02
1465.635, 2.1089060E-02
1467.563, 2.1166621E-02
1469.492, 2.1289529E-02
1471.420, 2.1546960E-02
1473.349, 2.2049850E-02
1475.277, 2.2390811E-02
1477.205, 2.2786239E-02
1479.134, 2.3316950E-02
1481.062, 2.3561670E-02
1482.991, 2.3632521E-02
1484.919, 2.3793820E-02
1486.848, 2.3885960E-02
1488.776, 2.3913510E-02
1490.705, 2.3960840E-02
1492.633, 2.4040081E-02
1494.562, 2.4076330E-02
1496.490, 2.4346979E-02
1498.419, 2.4853511E-02
1500.347, 2.4984820E-02
1502.276, 2.5267061E-02
1504.204, 2.5744781E-02
1506.132, 2.6229819E-02
1508.061, 2.6339451E-02
1509.989, 2.6263770E-02
1511.918, 2.6760191E-02
1513.846, 2.7046669E-02
1515.775, 2.7290329E-02
1517.703, 2.7764341E-02
1519.632, 2.7809180E-02
1521.560, 2.8169001E-02
1523.489, 2.8869409E-02
1525.417, 2.9358471E-02
1527.346, 2.9959271E-02
1529.274, 3.0588180E-02
1531.203, 3.1191031E-02
1533.131, 3.1401820E-02
1535.059, 3.1801369E-02
1536.988, 3.2531321E-02
1538.916, 3.2714289E-02
1540.845, 3.2537699E-02
1542.773, 3.3099871E-02
1544.702, 3.3721719E-02
1546.630, 3.4036551E-02
1548.559, 3.4527630E-02
1550.487, 3.5173140E-02
1552.416, 3.5779189E-02
1554.344, 3.6269002E-02
1556.273, 3.6557321E-02
1558.201, 3.6719371E-02
1560.130, 3.7052382E-02
1562.058, 3.7532810E-02
1563.986, 3.7866529E-02
1565.915, 3.8432609E-02
1567.843, 3.8934249E-02
1569.772, 3.9428320E-02
1571.700, 4.0032949E-02
1573.629, 4.0436961E-02
1575.557, 4.0605389E-02
1577.486, 4.0574010E-02
1579.414, 4.0448450E-02
1581.343, 4.0384348E-02
1583.271, 4.0616289E-02
1585.200, 4.1154921E-02
1587.128, 4.1852169E-02
1589.057, 4.2205151E-02
1590.985, 4.2385899E-02
1592.913, 4.2511798E-02
1594.842, 4.2399708E-02
1596.770, 4.2826992E-02
1598.699, 4.3630090E-02
1600.627, 4.4382010E-02
1602.556, 4.5089800E-02
1604.484, 4.5402128E-02
1606.413, 4.6086282E-02
1608.341, 4.6948880E-02
1610.270, 4.7683999E-02
1612.198, 4.8583008E-02
1614.127, 4.9234871E-02
1616.055, 4.9621250E-02
1617.984, 5.0381739E-02
1619.912, 5.1226228E-02
1621.840, 5.1641129E-02
1623.769, 5.1636770E-02
1625.697, 5.1557150E-02
1627.626, 5.1315021E-02
1629.554, 5.0558940E-02
1631.483, 4.9405750E-02
1633.411, 4.7484320E-02
1635.340, 4.5693859E-02
1637.268, 4.4645142E-02
1639.197, 4.4184990E-02
1641.125, 4.3315701E-02
1643.054, 4.1990180E-02
1644.982, 4.0793389E-02
1646.911, 3.9900210E-02
1648.839, 3.8998049E-02
1650.767, 3.7939601E-02
1652.696, 3.7108012E-02
1654.624, 3.6367431E-02
1656.553, 3.5436619E-02
1658.481, 3.4697480E-02
1660.410, 3.4121059E-02
1662.338, 3.3175301E-02
1664.267, 3.1918861E-02
1666.195, 3.0939940E-02
1668.124, 3.0674640E-02
1670.052, 3.0049520E-02
1671.981, 2.9176030E-02
1673.909, 2.8369909E-02
1675.838, 2.7904090E-02
1677.766, 2.7519841E-02
1679.694, 2.7259950E-02
1681.623, 2.6544441E-02
1683.551, 2.5849249E-02
1685.480, 2.5465479E-02
1687.408, 2.4896629E-02
1689.337, 2.4507210E-02
1691.265, 2.4116620E-02
1693.194, 2.3500821E-02
1695.122, 2.2671340E-02
1697.051, 2.1991860E-02
1698.979, 2.1352829E-02
1700.908, 2.0672319E-02
1702.836, 2.0231130E-02
1704.765, 1.9735120E-02
1706.693, 1.8979970E-02
1708.621, 1.8058650E-02
1710.550, 1.7706640E-02
1712.478, 1.7575180E-02
1714.407, 1.7361250E-02
1716.335, 1.7339330E-02
1718.264, 1.7551441E-02
1720.192, 1.7753329E-02
1722.121, 1.7898301E-02
1724.049, 1.7712940E-02
1725.978, 1.7024720E-02
1727.906, 1.6572131E-02
1729.835, 1.5618030E-02
1731.763, 1.4644000E-02
1733.692, 1.4203570E-02
1735.620, 1.2948170E-02
1737.548, 1.1502600E-02
1739.477, 1.0386810E-02
1741.405, 9.8080710E-03
1743.334, 9.6228067E-03
1745.262, 9.6327476E-03
1747.191, 1.0238800E-02
1749.119, 1.1029190E-02
1751.048, 1.2287660E-02
1752.976, 1.3117480E-02
1754.905, 1.4288780E-02
1756.833, 1.5815610E-02
1758.762, 1.6820040E-02
1760.690, 1.7055601E-02
1762.619, 1.6835550E-02
1764.547, 1.7152740E-02
1766.475, 1.7714331E-02
1768.404, 1.7936070E-02
1770.332, 1.7907061E-02
1772.261, 1.7901320E-02
1774.189, 1.8240910E-02
1776.118, 1.8523330E-02
1778.046, 1.8322250E-02
1779.975, 1.8232031E-02
1781.903, 1.8322449E-02
1783.832, 1.8095629E-02
1785.760, 1.7856671E-02
1787.689, 1.7926089E-02
1789.617, 1.7990511E-02
1791.546, 1.8102430E-02
1793.474, 1.8102881E-02
1795.402, 1.7642271E-02
1797.331, 1.7350120E-02
1799.259, 1.7551880E-02
1801.188, 1.7638320E-02
1803.116, 1.7793121E-02
1805.045, 1.7660741E-02
1806.973, 1.7610289E-02
1808.902, 1.7908640E-02
1810.830, 1.7903730E-02
1812.759, 1.7492481E-02
1814.687, 1.7356550E-02
1816.616, 1.6989460E-02
1818.544, 1.6924759E-02
1820.473, 1.7386790E-02
1822.401, 1.8380890E-02
1824.329, 1.8318741E-02
1826.258, 1.6851779E-02
1828.186, 1.6078141E-02
1830.115, 1.6997879E-02
1832.043, 1.6584340E-02
1833.972, 1.6502591E-02
1835.900, 1.6802451E-02
1837.829, 1.6871030E-02
1839.757, 1.6563989E-02
1841.686, 1.6617110E-02
1843.614, 1.7496159E-02
1845.543, 1.7389091E-02
1847.471, 1.7301550E-02
1849.400, 1.7403079E-02
1851.328, 1.7238639E-02
1853.256, 1.6853120E-02
1855.185, 1.6947361E-02
1857.113, 1.7019911E-02
1859.042, 1.7381210E-02
1860.970, 1.7614869E-02
1862.899, 1.6423730E-02
1864.827, 1.5613670E-02
1866.756, 1.6235329E-02
1868.684, 1.6431831E-02
1870.613, 1.6603010E-02
1872.541, 1.7106419E-02
1874.470, 1.6937070E-02
1876.398, 1.6606379E-02
1878.327, 1.6551550E-02
1880.255, 1.6230000E-02
1882.183, 1.5954129E-02
1884.112, 1.6311120E-02
1886.040, 1.6761949E-02
1887.969, 1.6723091E-02
1889.897, 1.6176671E-02
1891.826, 1.5434670E-02
1893.754, 1.6399140E-02
1895.683, 1.6952081E-02
1897.611, 1.6109331E-02
1899.540, 1.6327061E-02
1901.468, 1.6594689E-02
1903.397, 1.5643921E-02
1905.325, 1.5085880E-02
1907.254, 1.5793540E-02
1909.182, 1.6776901E-02
1911.110, 1.6014351E-02
1913.039, 1.5365950E-02
1914.967, 1.5173340E-02
1916.896, 1.4916350E-02
1918.824, 1.5958630E-02
1920.753, 1.6345890E-02
1922.681, 1.5455600E-02
1924.610, 1.4789550E-02
1926.538, 1.4473710E-02
1928.467, 1.4809230E-02
1930.395, 1.5304440E-02
1932.324, 1.5490130E-02
1934.252, 1.4654590E-02
1936.181, 1.3644700E-02
1938.109, 1.4274320E-02
1940.037, 1.4909280E-02
1941.966, 1.5760479E-02
1943.894, 1.5766280E-02
1945.823, 1.5406270E-02
1947.751, 1.4699930E-02
1949.680, 1.3993500E-02
1951.608, 1.4676800E-02
1953.537, 1.3859910E-02
1955.465, 1.2549920E-02
1957.394, 1.2597710E-02
1959.322, 1.4327350E-02
1961.251, 1.5896130E-02
1963.179, 1.5130820E-02
1965.108, 1.3967020E-02
1967.036, 1.3858300E-02
1968.964, 1.0840090E-02
1970.893, 8.6029591E-03
1972.821, 1.0074090E-02
1974.750, 9.1865929E-03
1976.678, 9.2240972E-03
1978.607, 1.1253250E-02
1980.535, 1.5393920E-02
1982.464, 1.5611230E-02
1984.392, 1.3596410E-02
1986.321, 1.2980960E-02
1988.249, 1.4489170E-02
1990.178, 1.5249500E-02
1992.106, 1.3920150E-02
1994.035, 1.3178740E-02
1995.963, 1.1159340E-02
1997.891, 1.3008130E-02
1999.820, 1.4770610E-02
2001.748, 1.4717460E-02
2003.677, 1.3722610E-02
2005.605, 1.1975650E-02
2007.534, 1.3068540E-02
2009.462, 1.5331880E-02
2011.391, 1.5431650E-02
2013.319, 1.4890530E-02
2015.248, 1.4297800E-02
2017.176, 1.2880520E-02
2019.105, 1.2229100E-02
2021.033, 1.1646200E-02
2022.962, 1.2311260E-02
2024.890, 1.2716620E-02
2026.818, 1.3555260E-02
2028.747, 1.5024050E-02
2030.675, 1.4107130E-02
2032.604, 1.2860730E-02
2034.532, 1.4372540E-02
2036.461, 1.6714800E-02
2038.389, 1.6901610E-02
2040.318, 1.7979270E-02
2042.246, 1.7827099E-02
2044.175, 1.6938820E-02
2046.103, 1.7040830E-02
2048.032, 1.9743429E-02
2049.960, 1.9699380E-02
2051.889, 1.8079011E-02
2053.817, 1.9205751E-02
2055.746, 1.8804619E-02
2057.674, 1.8139800E-02
2059.603, 1.9122010E-02
2061.531, 2.1047641E-02
2063.459, 2.0124480E-02
2065.388, 1.9629920E-02
2067.316, 1.9741170E-02
2069.245, 1.9172169E-02
2071.173, 1.9202439E-02
2073.102, 2.0698169E-02
2075.030, 2.1209680E-02
2076.959, 1.9180929E-02
2078.887, 1.9504020E-02
2080.816, 2.0205749E-02
2082.744, 1.9336300E-02
2084.673, 2.1722039E-02
2086.601, 2.2252649E-02
2088.530, 2.0588690E-02
2090.458, 2.0476060E-02
2092.386, 1.9806311E-02
2094.315, 2.0611720E-02
2096.243, 2.2372780E-02
2098.172, 2.1147190E-02
2100.100, 2.0199919E-02
2102.029, 2.1365359E-02
2103.957, 2.3455270E-02
2105.886, 2.2761639E-02
2107.814, 1.9627489E-02
2109.743, 1.8161980E-02
2111.671, 2.0078041E-02
2113.600, 2.1266701E-02
2115.528, 2.1546910E-02
2117.457, 2.0740790E-02
2119.385, 2.1266120E-02
2121.313, 2.1499351E-02
2123.242, 2.0506591E-02
2125.170, 2.0155219E-02
2127.099, 2.0281350E-02
2129.027, 2.0822750E-02
2130.956, 2.0806950E-02
2132.884, 2.0825559E-02
2134.813, 1.9875711E-02
2136.741, 2.0799641E-02
2138.670, 2.2694940E-02
2140.598, 2.1656319E-02
2142.527, 2.0598700E-02
2144.455, 1.9683789E-02
2146.384, 1.8162480E-02
2148.312, 1.6763501E-02
2150.240, 1.8278450E-02
2152.169, 1.7005179E-02
2154.097, 1.1696930E-02
2156.026, 1.2940610E-02
2157.954, 1.6848490E-02
2159.883, 1.9982571E-02
2161.811, 2.0917840E-02
2163.740, 1.9860139E-02
2165.668, 1.8375790E-02
2167.597, 1.9175909E-02
2169.525, 2.0964921E-02
2171.454, 2.0784499E-02
2173.382, 1.8820900E-02
2175.311, 1.7275089E-02
2177.239, 1.7985260E-02
2179.167, 1.9455370E-02
2181.096, 2.0230129E-02
2183.024, 2.3408771E-02
2184.953, 2.3123330E-02
2186.881, 2.2106320E-02
2188.810, 2.1446981E-02
2190.738, 2.0030180E-02
2192.667, 2.0706400E-02
2194.595, 2.0923279E-02
2196.524, 2.1427510E-02
2198.452, 2.2125540E-02
2200.381, 2.3397541E-02
2202.309, 2.4336560E-02
2204.238, 2.2645591E-02
2206.166, 2.1913759E-02
2208.094, 2.2622891E-02
2210.023, 2.4593079E-02
2211.951, 2.5123360E-02
2213.880, 2.3810159E-02
2215.808, 2.4786871E-02
2217.737, 2.5420740E-02
2219.665, 2.6087791E-02
2221.594, 2.5388621E-02
2223.522, 2.4116140E-02
2225.451, 2.5481680E-02
2227.379, 2.6458601E-02
2229.308, 2.6312079E-02
2231.236, 2.6882490E-02
2233.165, 2.7102320E-02
2235.093, 2.6878860E-02
2237.021, 2.6772210E-02
2238.950, 2.7675170E-02
2240.878, 2.6521061E-02
2242.807, 2.5959700E-02
2244.735, 2.7383029E-02
2246.664, 2.8659070E-02
2248.592, 2.8309161E-02
2250.521, 2.8095510E-02
2252.449, 2.7652390E-02
2254.378, 2.8290350E-02
2256.306, 2.9327530E-02
2258.235, 2.9925760E-02
2260.163, 2.9972469E-02
2262.092, 2.9439650E-02
2264.020, 2.8434280E-02
2265.948, 2.7249070E-02
2267.877, 2.7319079E-02
2269.805, 2.8635999E-02
2271.734, 3.0095180E-02
2273.662, 2.9433129E-02
2275.591, 2.9191140E-02
2277.519, 3.0493040E-02
2279.448, 3.1386480E-02
2281.376, 3.1542491E-02
2283.305, 3.0695340E-02
2285.233, 3.1006141E-02
2287.162, 3.1911518E-02
2289.090, 3.1982761E-02
2291.019, 3.1364899E-02
2292.947, 3.1740271E-02
2294.875, 3.1764459E-02
2296.804, 3.1871531E-02
2298.732, 3.2017671E-02
2300.661, 3.1095680E-02
2302.589, 3.0318409E-02
2304.518, 3.0607039E-02
2306.446, 3.1421691E-02
2308.375, 3.1940330E-02
2310.303, 3.2111410E-02
2312.232, 3.2113768E-02
2314.160, 3.1759109E-02
2316.089, 3.1871121E-02
2318.017, 3.2716699E-02
2319.946, 3.3307388E-02
2321.874, 3.3421438E-02
2323.802, 3.4008410E-02
2325.731, 3.3193581E-02
2327.659, 3.2020312E-02
2329.588, 3.1853739E-02
2331.516, 3.2080311E-02
2333.445, 3.2020342E-02
2335.373, 3.2367509E-02
2337.302, 3.2729309E-02
2339.230, 3.3079989E-02
2341.159, 3.2503750E-02
2343.087, 3.2014281E-02
2345.016, 3.2392621E-02
2346.944, 3.2443661E-02
2348.873, 3.1723790E-02
2350.801, 3.2293230E-02
2352.729, 3.3037849E-02
2354.658, 3.3185810E-02
2356.586, 3.3114512E-02
2358.515, 3.2828320E-02
2360.443, 3.3251841E-02
2362.372, 3.3576030E-02
2364.300, 3.3474341E-02
2366.229, 3.3462681E-02
2368.157, 3.3370070E-02
2370.086, 3.2662880E-02
2372.014, 3.2559339E-02
2373.942, 3.3059210E-02
2375.871, 3.2308120E-02
2377.799, 3.1933490E-02
2379.728, 3.2317691E-02
2381.656, 3.2580521E-02
2383.585, 3.2634441E-02
2385.513, 3.2603510E-02
2387.442, 3.2865651E-02
2389.370, 3.3210378E-02
2391.299, 3.2473851E-02
2393.227, 3.1606250E-02
2395.156, 3.2127619E-02
2397.084, 3.2308970E-02
2399.012, 3.1517640E-02
2400.941, 3.1380799E-02
2402.869, 3.2391310E-02
2404.798, 3.2969210E-02
2406.726, 3.4424320E-02
2408.655, 3.5391200E-02
2410.583, 3.3524521E-02
2412.512, 3.3241540E-02
2414.440, 3.4314420E-02
2416.369, 3.4175061E-02
2418.297, 3.3348721E-02
2420.226, 3.2605909E-02
2422.154, 3.2966811E-02
2424.083, 3.2513980E-02
2426.011, 3.1797189E-02
2427.939, 3.2751001E-02
2429.868, 3.4135021E-02
2431.796, 3.3706728E-02
2433.725, 3.2328479E-02
2435.653, 3.1952679E-02
2437.582, 3.2843571E-02
2439.510, 3.3806220E-02
2441.439, 3.4026559E-02
2443.367, 3.2968879E-02
2445.296, 3.3137240E-02
2447.224, 3.4059878E-02
2449.153, 3.4813121E-02
2451.081, 3.4886520E-02
2453.010, 3.4674220E-02
2454.938, 3.4973189E-02
2456.866, 3.4737229E-02
2458.795, 3.4248520E-02
2460.723, 3.4154650E-02
2462.652, 3.4518551E-02
2464.580, 3.4061491E-02
2466.509, 3.3301700E-02
2468.437, 3.3767492E-02
2470.366, 3.5170902E-02
2472.294, 3.6320262E-02
2474.223, 3.6170010E-02
2476.151, 3.6211520E-02
2478.080, 3.6161181E-02
2480.008, 3.5815891E-02
2481.937, 3.5554469E-02
2483.865, 3.5775289E-02
2485.793, 3.5897829E-02
2487.722, 3.4906808E-02
2489.650, 3.5764821E-02
2491.579, 3.6661550E-02
2493.507, 3.7533049E-02
2495.436, 3.7507121E-02
2497.364, 3.6757551E-02
2499.293, 3.6019240E-02
2501.221, 3.5254169E-02
2503.150, 3.5195760E-02
2505.078, 3.5571359E-02
2507.007, 3.6185019E-02
2508.935, 3.5648461E-02
2510.864, 3.5114069E-02
2512.792, 3.5655860E-02
2514.720, 3.6587551E-02
2516.649, 3.6491100E-02
2518.577, 3.6714081E-02
2520.506, 3.6497030E-02
2522.434, 3.6906611E-02
2524.363, 3.8651980E-02
2526.291, 3.8871162E-02
2528.220, 3.8681529E-02
2530.148, 3.8526259E-02
2532.077, 3.8609412E-02
2534.005, 3.7975580E-02
2535.934, 3.6531579E-02
2537.862, 3.7294380E-02
2539.791, 3.9577700E-02
2541.719, 4.0381178E-02
2543.647, 3.9555158E-02
2545.576, 3.9737970E-02
2547.504, 4.0144209E-02
2549.433, 4.0048029E-02
2551.361, 3.9347030E-02
2553.290, 4.0187482E-02
2555.218, 4.0652119E-02
2557.147, 4.0440518E-02
2559.075, 4.0386070E-02
2561.004, 4.0333439E-02
2562.932, 3.9930571E-02
2564.861, 4.0503990E-02
2566.789, 4.1006140E-02
2568.718, 4.1411228E-02
2570.646, 4.2181380E-02
2572.574, 4.2572219E-02
2574.503, 4.3209098E-02
2576.431, 4.2083152E-02
2578.360, 4.1359849E-02
2580.288, 4.1806921E-02
2582.217, 4.1991372E-02
2584.145, 4.3008871E-02
2586.074, 4.3320570E-02
2588.002, 4.2947430E-02
2589.931, 4.3328281E-02
2591.859, 4.3754648E-02
2593.788, 4.3938491E-02
2595.716, 4.5075770E-02
2597.645, 4.4837501E-02
2599.573, 4.4541091E-02
2601.501, 4.4937171E-02
2603.430, 4.5589112E-02
2605.358, 4.6034321E-02
2607.287, 4.5703959E-02
2609.215, 4.5400079E-02
2611.144, 4.5680229E-02
2613.072, 4.6062499E-02
2615.001, 4.6280049E-02
2616.929, 4.7205228E-02
2618.858, 4.6602499E-02
2620.786, 4.6632919E-02
2622.715, 4.7565982E-02
2624.643, 4.8356969E-02
2626.572, 4.8695538E-02
2628.500, 4.9317058E-02
2630.428, 4.8738569E-02
2632.357, 4.8161980E-02
2634.285, 4.8944399E-02
2636.214, 4.9783871E-02
2638.142, 5.0501481E-02
2640.071, 5.0960459E-02
2641.999, 5.1203068E-02
2643.928, 5.0675310E-02
2645.856, 5.0615609E-02
2647.785, 5.1347401E-02
2649.713, 5.2338582E-02
2651.642, 5.2776068E-02
2653.570, 5.2737229E-02
2655.499, 5.3339109E-02
2657.427, 5.3396020E-02
2659.355, 5.3816810E-02
2661.284, 5.4223869E-02
2663.212, 5.3952001E-02
2665.141, 5.3698730E-02
2667.069, 5.3666681E-02
2668.998, 5.3975709E-02
2670.926, 5.4180499E-02
2672.855, 5.4031819E-02
2674.783, 5.4034401E-02
2676.712, 5.5026390E-02
2678.640, 5.4654978E-02
2680.569, 5.4243211E-02
2682.497, 5.5305991E-02
2684.426, 5.5272449E-02
2686.354, 5.5931669E-02
2688.282, 5.6914710E-02
2690.211, 5.7294950E-02
2692.139, 5.7492111E-02
2694.068, 5.7423599E-02
2695.996, 5.7589781E-02
2697.925, 5.7513788E-02
2699.853, 5.8066521E-02
2701.782, 5.9133939E-02
2703.710, 5.9949629E-02
2705.639, 6.0408819E-02
2707.567, 6.0148399E-02
2709.496, 6.0551759E-02
2711.424, 6.1164819E-02
2713.353, 6.2646702E-02
2715.281, 6.4292908E-02
2717.209, 6.3952520E-02
2719.138, 6.2345330E-02
2721.066, 6.2290162E-02
2722.995, 6.3085169E-02
2724.923, 6.3973121E-02
2726.852, 6.5002680E-02
2728.780, 6.4945199E-02
2730.709, 6.4355128E-02
2732.637, 6.4423099E-02
2734.566, 6.4955361E-02
2736.494, 6.6435948E-02
2738.423, 6.7496568E-02
2740.351, 6.7066208E-02
2742.280, 6.6994444E-02
2744.208, 6.7186818E-02
2746.136, 6.8564847E-02
2748.065, 6.9743499E-02
2749.993, 6.9225207E-02
2751.922, 6.9412798E-02
2753.850, 7.0744254E-02
2755.779, 7.0766643E-02
2757.707, 7.0805646E-02
2759.636, 7.1331322E-02
2761.564, 7.1820296E-02
2763.493, 7.1938880E-02
2765.421, 7.2967090E-02
2767.350, 7.3751390E-02
2769.278, 7.3019721E-02
2771.207, 7.2892368E-02
2773.135, 7.3142961E-02
2775.063, 7.4492112E-02
2776.992, 7.5020649E-02
2778.920, 7.5746641E-02
2780.849, 7.6858588E-02
2782.777, 7.7228382E-02
2784.706, 7.7440262E-02
2786.634, 7.8443922E-02
2788.563, 7.8911953E-02
2790.491, 7.8832977E-02
2792.420, 7.9003401E-02
2794.348, 7.9277068E-02
2796.277, 7.8572847E-02
2798.205, 7.8469276E-02
2800.134, 8.0643132E-02
2802.062, 8.1628159E-02
2803.990, 8.0972977E-02
2805.919, 8.1814513E-02
2807.847, 8.3526127E-02
2809.776, 8.4390968E-02
2811.704, 8.4716633E-02
2813.633, 8.5760549E-02
2815.561, 8.5515194E-02
2817.490, 8.5258581E-02
2819.418, 8.5376203E-02
2821.347, 8.6581796E-02
2823.275, 8.7969117E-02
2825.204, 8.8622801E-02
2827.132, 8.8338196E-02
2829.061, 8.8368483E-02
2830.989, 8.8800967E-02
2832.917, 8.8710733E-02
2834.846, 8.9392453E-02
2836.774, 9.0327993E-02
2838.703, 9.1547407E-02
2840.631, 9.0428568E-02
2842.560, 8.9445829E-02
2844.488, 8.9871168E-02
2846.417, 9.0704933E-02
2848.345, 9.2088223E-02
2850.274, 9.3824938E-02
2852.202, 9.4224326E-02
2854.131, 9.4061963E-02
2856.059, 9.5186546E-02
2857.988, 9.7229443E-02
2859.916, 9.7999997E-02
2861.844, 9.8164782E-02
2863.773, 9.9062763E-02
2865.701, 9.9421799E-02
2867.630, 9.9687651E-02
2869.558, 9.9366270E-02
2871.487, 9.9848934E-02
2873.415, 0.1008450
2875.344, 0.1019602
2877.272, 0.1020547
2879.201, 0.1017403
2881.129, 0.1022128
2883.058, 0.1011826
2884.986, 0.1022168
2886.915, 0.1045504
2888.843, 0.1050605
2890.771, 0.1051508
2892.700, 0.1065438
2894.628, 0.1072097
2896.557, 0.1076875
2898.485, 0.1086802
2900.414, 0.1093353
2902.342, 0.1085602
2904.271, 0.1073400
2906.199, 0.1083292
2908.128, 0.1097277
2910.056, 0.1105835
2911.985, 0.1117953
2913.913, 0.1131249
2915.842, 0.1123378
2917.770, 0.1124874
2919.698, 0.1155787
2921.627, 0.1155748
2923.555, 0.1125516
2925.484, 0.1127931
2927.412, 0.1168530
2929.341, 0.1192894
2931.269, 0.1198893
2933.198, 0.1198270
2935.126, 0.1194616
2937.055, 0.1198853
2938.983, 0.1200046
2940.912, 0.1210885
2942.840, 0.1226943
2944.769, 0.1226975
2946.697, 0.1213904
2948.625, 0.1211880
2950.554, 0.1224910
2952.482, 0.1231787
2954.411, 0.1230554
2956.339, 0.1254264
2958.268, 0.1276552
2960.196, 0.1272961
2962.125, 0.1264204
2964.053, 0.1264991
2965.982, 0.1276359
2967.910, 0.1292927
2969.839, 0.1305426
2971.767, 0.1307351
2973.696, 0.1293636
2975.624, 0.1284095
2977.552, 0.1272925
2979.481, 0.1271150
2981.409, 0.1264563
2983.338, 0.1270235
2985.266, 0.1291837
2987.195, 0.1304832
2989.123, 0.1303149
2991.052, 0.1299647
2992.980, 0.1301076
2994.909, 0.1307231
2996.837, 0.1309587
2998.766, 0.1308623
3000.694, 0.1320318
3002.623, 0.1331876
3004.551, 0.1356056
3006.479, 0.1355577
3008.408, 0.1335655
3010.336, 0.1330829
3012.265, 0.1338545
3014.193, 0.1338986
3016.122, 0.1335538
3018.050, 0.1329957
3019.979, 0.1341006
3021.907, 0.1360581
3023.836, 0.1362492
3025.764, 0.1370332
3027.693, 0.1375293
3029.621, 0.1378259
3031.550, 0.1352650
3033.478, 0.1341851
3035.406, 0.1364562
3037.335, 0.1380945
3039.263, 0.1374573
3041.192, 0.1379717
3043.120, 0.1389127
3045.049, 0.1372811
3046.977, 0.1376677
3048.906, 0.1391563
3050.834, 0.1384801
3052.763, 0.1387257
3054.691, 0.1398731
3056.620, 0.1412248
3058.548, 0.1424729
3060.477, 0.1410850
3062.405, 0.1386296
3064.333, 0.1385113
3066.262, 0.1400911
3068.190, 0.1399884
3070.119, 0.1392477
3072.047, 0.1386994
3073.976, 0.1387422
3075.904, 0.1405741
3077.833, 0.1420669
3079.761, 0.1428788
3081.690, 0.1427804
3083.618, 0.1432471
3085.547, 0.1448362
3087.475, 0.1452479
3089.404, 0.1459745
3091.332, 0.1455907
3093.260, 0.1455686
3095.189, 0.1469333
3097.117, 0.1461503
3099.046, 0.1460478
3100.974, 0.1473284
3102.903, 0.1493418
3104.831, 0.1494206
3106.760, 0.1477452
3108.688, 0.1466398
3110.617, 0.1455916
3112.545, 0.1457601
3114.474, 0.1456838
3116.402, 0.1451657
3118.331, 0.1447812
3120.259, 0.1449872
3122.188, 0.1456384
3124.116, 0.1467285
3126.044, 0.1482791
3127.973, 0.1482797
3129.901, 0.1493465
3131.830, 0.1517751
3133.758, 0.1503867
3135.687, 0.1499170
3137.615, 0.1489181
3139.544, 0.1475545
3141.472, 0.1475557
3143.401, 0.1488674
3145.329, 0.1502024
3147.258, 0.1507088
3149.186, 0.1494413
3151.115, 0.1504534
3153.043, 0.1522658
3154.971, 0.1518341
3156.900, 0.1495529
3158.828, 0.1501839
3160.757, 0.1516288
3162.685, 0.1510489
3164.614, 0.1515023
3166.542, 0.1523997
3168.471, 0.1516145
3170.399, 0.1518571
3172.328, 0.1522288
3174.256, 0.1525140
3176.185, 0.1537977
3178.113, 0.1541625
3180.042, 0.1523754
3181.970, 0.1522505
3183.898, 0.1543217
3185.827, 0.1554963
3187.755, 0.1553477
3189.684, 0.1555950
3191.612, 0.1564710
3193.541, 0.1561878
3195.469, 0.1546092
3197.398, 0.1546841
3199.326, 0.1550445
3201.255, 0.1548446
3203.183, 0.1544187
3205.112, 0.1549584
3207.040, 0.1573590
3208.969, 0.1591128
3210.897, 0.1587464
3212.825, 0.1587826
3214.754, 0.1592870
3216.682, 0.1605457
3218.611, 0.1594137
3220.539, 0.1560997
3222.468, 0.1561256
3224.396, 0.1575745
3226.325, 0.1586529
3228.253, 0.1590494
3230.182, 0.1586816
3232.110, 0.1577091
3234.039, 0.1581633
3235.967, 0.1599908
3237.896, 0.1609894
3239.824, 0.1610132
3241.752, 0.1604993
3243.681, 0.1606952
3245.609, 0.1613679
3247.538, 0.1616030
3249.466, 0.1622730
3251.395, 0.1621110
3253.323, 0.1627703
3255.252, 0.1637534
3257.180, 0.1638620
3259.109, 0.1649693
3261.037, 0.1660794
3262.966, 0.1671675
3264.894, 0.1672617
3266.823, 0.1672550
3268.751, 0.1668639
3270.679, 0.1659840
3272.608, 0.1655610
3274.536, 0.1675607
3276.465, 0.1693576
3278.393, 0.1693621
3280.322, 0.1668218
3282.250, 0.1671130
3284.179, 0.1697506
3286.107, 0.1706035
3288.036, 0.1702439
3289.964, 0.1693012
3291.893, 0.1706183
3293.821, 0.1718874
3295.750, 0.1704334
3297.678, 0.1702126
3299.606, 0.1721558
3301.535, 0.1734818
3303.463, 0.1724665
3305.392, 0.1735508
3307.320, 0.1749075
3309.249, 0.1739942
3311.177, 0.1738252
3313.106, 0.1752588
3315.034, 0.1765303
3316.963, 0.1769324
3318.891, 0.1759654
3320.820, 0.1772316
3322.748, 0.1786940
3324.677, 0.1789283
3326.605, 0.1801935
3328.533, 0.1800570
3330.462, 0.1794718
3332.390, 0.1810447
3334.319, 0.1815714
3336.247, 0.1803484
3338.176, 0.1798233
3340.104, 0.1829772
3342.033, 0.1851713
3343.961, 0.1839527
3345.890, 0.1834219
3347.818, 0.1838098
3349.747, 0.1844419
3351.675, 0.1878708
3353.604, 0.1903911
3355.532, 0.1889724
3357.460, 0.1876692
3359.389, 0.1890628
3361.317, 0.1907152
3363.246, 0.1910796
3365.174, 0.1909935
3367.103, 0.1897851
3369.031, 0.1906678
3370.960, 0.1934669
3372.888, 0.1937906
3374.817, 0.1927492
3376.745, 0.1936001
3378.674, 0.1937004
3380.602, 0.1917060
3382.531, 0.1913085
3384.459, 0.1912476
3386.387, 0.1930139
3388.316, 0.1942524
3390.244, 0.1943286
3392.173, 0.1942542
3394.101, 0.1923373
3396.030, 0.1917637
3397.958, 0.1913071
3399.887, 0.1889874
3401.815, 0.1869092
3403.744, 0.1863001
3405.672, 0.1852177
3407.601, 0.1832115
3409.529, 0.1824161
3411.458, 0.1844153
3413.386, 0.1842925
3415.314, 0.1810227
3417.243, 0.1781425
3419.171, 0.1735717
3421.100, 0.1726024
3423.028, 0.1740709
3424.957, 0.1718159
3426.885, 0.1694910
3428.814, 0.1692338
3430.742, 0.1665642
3432.671, 0.1641018
3434.599, 0.1652161
3436.528, 0.1637057
3438.456, 0.1583273
3440.385, 0.1552140
3442.313, 0.1533381
3444.241, 0.1517220
3446.170, 0.1505130
3448.098, 0.1481671
3450.027, 0.1477263
3451.955, 0.1468914
3453.884, 0.1424884
3455.812, 0.1404678
3457.741, 0.1392300
3459.669, 0.1379266
3461.598, 0.1351554
3463.526, 0.1322991
3465.455, 0.1308542
3467.383, 0.1287421
3469.312, 0.1275051
3471.240, 0.1249678
3473.168, 0.1236662
3475.097, 0.1246368
3477.025, 0.1257219
3478.954, 0.1209363
3480.882, 0.1184861
3482.811, 0.1172839
3484.739, 0.1157230
3486.668, 0.1129340
3488.596, 0.1093949
3490.525, 0.1088896
3492.453, 0.1093703
3494.382, 0.1094196
3496.310, 0.1080878
3498.239, 0.1062013
3500.167, 0.1021405
3502.095, 9.9440753E-02
3504.024, 9.8572247E-02
3505.952, 9.7577840E-02
3507.881, 9.7196847E-02
3509.809, 9.5881067E-02
3511.738, 9.4743051E-02
3513.666, 9.0845831E-02
3515.595, 8.8146381E-02
3517.523, 9.0494864E-02
3519.452, 9.0814114E-02
3521.380, 8.5998923E-02
3523.309, 8.3628558E-02
3525.237, 8.4131837E-02
3527.166, 8.0559857E-02
3529.094, 7.9600260E-02
3531.022, 7.9713389E-02
3532.951, 7.6254703E-02
3534.879, 7.5164899E-02
3536.808, 7.4487962E-02
3538.736, 7.3431350E-02
3540.665, 7.3343404E-02
3542.593, 7.1954891E-02
3544.522, 7.0225850E-02
3546.450, 6.8487227E-02
3548.379, 7.0035741E-02
3550.307, 6.9487453E-02
3552.236, 6.6691838E-02
3554.164, 6.5140508E-02
3556.093, 6.2367409E-02
3558.021, 5.8979191E-02
3559.949, 5.9698179E-02
3561.878, 5.9933420E-02
3563.806, 5.7422411E-02
3565.735, 5.4763731E-02
3567.663, 5.3308789E-02
3569.592, 5.1055390E-02
3571.520, 5.0418042E-02
3573.449, 5.1682848E-02
3575.377, 5.2553371E-02
3577.306, 4.9034100E-02
3579.234, 4.5223352E-02
3581.163, 4.3781739E-02
3583.091, 4.6752710E-02
3585.020, 4.7284730E-02
3586.948, 4.5722820E-02
3588.876, 4.4485509E-02
3590.805, 4.2150769E-02
3592.733, 3.9119910E-02
3594.662, 3.8908642E-02
3596.590, 4.2043611E-02
3598.519, 3.9357379E-02
3600.447, 3.5168931E-02
3602.376, 3.6439430E-02
3604.304, 3.7876081E-02
3606.233, 3.6110468E-02
3608.161, 3.5785180E-02
3610.090, 3.3664610E-02
3612.018, 3.2343108E-02
3613.947, 3.2831561E-02
3615.875, 2.9871430E-02
3617.803, 3.0885600E-02
3619.732, 3.1320568E-02
3621.660, 3.0607469E-02
3623.589, 2.8149329E-02
3625.517, 2.3995129E-02
3627.446, 2.4440210E-02
3629.374, 2.6709940E-02
3631.303, 2.5275620E-02
3633.231, 2.2966880E-02
3635.160, 2.3797130E-02
3637.088, 2.5760969E-02
3639.017, 2.5055129E-02
3640.945, 2.4048120E-02
3642.874, 2.2373959E-02
3644.802, 2.0139519E-02
3646.730, 2.1927729E-02
3648.659, 2.0979200E-02
3650.587, 1.8468561E-02
3652.516, 1.8487381E-02
3654.444, 2.1954229E-02
3656.373, 2.1445179E-02
3658.301, 1.9678939E-02
3660.230, 1.9984771E-02
3662.158, 1.9733220E-02
3664.087, 2.0624351E-02
3666.015, 2.2292500E-02
3667.944, 2.1574769E-02
3669.872, 1.9564031E-02
3671.801, 2.0530600E-02
3673.729, 2.2855600E-02
3675.657, 2.2123650E-02
3677.586, 2.1447580E-02
3679.514, 2.1727230E-02
3681.443, 1.7944571E-02
3683.371, 1.6977999E-02
3685.300, 1.6946411E-02
3687.228, 1.8518470E-02
3689.157, 1.9886499E-02
3691.085, 1.7519550E-02
3693.014, 1.4537240E-02
3694.942, 1.3758300E-02
3696.871, 1.4344650E-02
3698.799, 1.9459451E-02
3700.728, 1.9854769E-02
3702.656, 1.7418940E-02
3704.584, 1.7894519E-02
3706.513, 1.9506991E-02
3708.441, 1.8017519E-02
3710.370, 1.8388459E-02
3712.298, 2.0271551E-02
3714.227, 2.1539159E-02
3716.155, 1.7635560E-02
3718.084, 1.7953740E-02
3720.012, 1.8011540E-02
3721.941, 1.7684080E-02
3723.869, 1.8640829E-02
3725.798, 2.0879040E-02
3727.726, 1.9626640E-02
3729.655, 1.9461930E-02
3731.583, 1.9273659E-02
3733.511, 1.7267250E-02
3735.440, 1.8284500E-02
3737.368, 1.5804620E-02
3739.297, 1.4193780E-02
3741.225, 1.7869711E-02
3743.154, 1.9072510E-02
3745.082, 2.1563170E-02
3747.011, 2.2498740E-02
3748.939, 1.7204270E-02
3750.868, 1.7845901E-02
3752.796, 2.1567389E-02
3754.725, 2.1434009E-02
3756.653, 2.2632491E-02
3758.582, 2.3020711E-02
3760.510, 2.0385049E-02
3762.438, 1.9157780E-02
3764.367, 1.7734351E-02
3766.295, 1.9581260E-02
3768.224, 2.1920251E-02
3770.152, 2.0367879E-02
3772.081, 1.9229639E-02
3774.009, 1.9227579E-02
3775.938, 1.9681411E-02
3777.866, 2.2117039E-02
3779.795, 2.2247139E-02
3781.723, 2.0579221E-02
3783.652, 2.0914741E-02
3785.580, 1.9745629E-02
3787.509, 1.9987250E-02
3789.437, 1.9342510E-02
3791.365, 2.1388240E-02
3793.294, 2.4274070E-02
3795.222, 2.3087749E-02
3797.151, 2.1457590E-02
3799.079, 2.1864381E-02
3801.008, 2.3330890E-02
3802.936, 2.1636330E-02
3804.865, 1.9170750E-02
3806.793, 2.0184141E-02
3808.722, 2.2023970E-02
3810.650, 1.9919850E-02
3812.579, 1.7274830E-02
3814.507, 1.9725630E-02
3816.436, 2.3302980E-02
3818.364, 2.3271520E-02
3820.292, 2.3395721E-02
3822.221, 2.2199960E-02
3824.149, 2.0210110E-02
3826.078, 2.1740889E-02
3828.006, 2.2007210E-02
3829.935, 2.1518400E-02
3831.863, 2.1930451E-02
3833.792, 2.0804681E-02
3835.720, 1.9987870E-02
3837.649, 1.7340761E-02
3839.577, 1.7776441E-02
3841.506, 2.0719860E-02
3843.434, 1.9692739E-02
3845.363, 1.9256219E-02
3847.291, 2.0367119E-02
3849.219, 2.1610601E-02
3851.148, 2.4561930E-02
3853.076, 2.4884030E-02
3855.005, 2.3088390E-02
3856.933, 2.4474209E-02
3858.862, 2.5655180E-02
3860.790, 2.5246009E-02
3862.719, 2.3503030E-02
3864.647, 2.1186730E-02
3866.576, 2.1730240E-02
3868.504, 2.2222631E-02
3870.433, 1.9492030E-02
3872.361, 1.9621560E-02
3874.290, 2.3221590E-02
3876.218, 2.5735879E-02
3878.146, 2.4292130E-02
3880.075, 2.2878950E-02
3882.003, 2.3590241E-02
3883.932, 2.3579380E-02
3885.860, 2.4020450E-02
3887.789, 2.5115930E-02
3889.717, 2.3385409E-02
3891.646, 2.1409830E-02
3893.574, 2.3908880E-02
3895.503, 2.4606841E-02
3897.431, 2.4638809E-02
3899.360, 2.9851031E-02
3901.288, 2.9832250E-02
3903.217, 2.5109140E-02
3905.145, 2.2508500E-02
3907.073, 2.4717759E-02
3909.002, 2.7934941E-02
3910.930, 2.5906740E-02
3912.859, 2.3410570E-02
3914.787, 2.3154501E-02
3916.716, 2.3126310E-02
3918.644, 2.6195290E-02
3920.573, 2.6727499E-02
3922.501, 2.6331291E-02
3924.430, 2.7366931E-02
3926.358, 2.7800040E-02
3928.287, 2.3735680E-02
3930.215, 2.3033099E-02
3932.144, 2.3154540E-02
3934.072, 2.3367541E-02
3936.000, 2.3748040E-02
3937.929, 2.4088750E-02
3939.857, 2.5495499E-02
3941.786, 2.7248809E-02
3943.714, 2.8511150E-02
3945.643, 2.6678100E-02
3947.571, 2.3935230E-02
3949.500, 2.1634409E-02
3951.428, 2.4091391E-02
3953.357, 2.3224089E-02
3955.285, 2.2444669E-02
3957.214, 2.6967829E-02
3959.142, 3.0528599E-02
3961.071, 2.8684270E-02
3962.999, 2.5295950E-02
3964.927, 2.3729561E-02
3966.856, 2.5616851E-02
3968.784, 2.6584150E-02
3970.713, 2.1237331E-02
3972.641, 2.2196990E-02
3974.570, 2.6202880E-02
3976.498, 2.7508320E-02
3978.427, 2.9077111E-02
3980.355, 2.7119240E-02
3982.284, 2.3469990E-02
3984.212, 2.2555320E-02
3986.141, 2.7567510E-02
3988.069, 2.8967120E-02
3989.998, 2.6811231E-02
3991.926, 2.4473650E-02
3993.854, 2.4343351E-02
3995.783, 2.5399080E-02
3997.711, 2.3956651E-02
3999.640, 2.3968210E-02
##END=



