##NAMES=Sulphohalite
##RRUFFID=R050479
##IDEAL CHEMISTRY=Na_6_(S^6+^O_4_)_2_ClF
##LOCALITY=Searles Lake, Trona, San Bernardino County, California, USA
##OWNER=RRUFF
##SOURCE=California Institute of Technology
##DESCRIPTION=A pair of colorless octahedra
##STATUS=The identification of this mineral has been confirmed by X-ray diffraction and chemical analysis
##URL=rruff.info/R050479
##MEASURED CHEMISTRY=Na_6.00_(S_1.00_O_4_)_2_F_1.00_Cl_1.00_
5.014013e+001, 1.349744e-002
5.206860e+001, 1.530306e-002
5.399707e+001, 1.514321e-002
5.592553e+001, 1.208931e-002
5.785400e+001, 9.372517e-003
5.978246e+001, 1.239008e-002
6.171093e+001, 1.029061e-002
6.363940e+001, 1.033216e-002
6.556786e+001, 9.831578e-003
6.749633e+001, 9.523031e-003
6.942480e+001, 1.135671e-002
7.135326e+001, 1.074138e-002
7.328172e+001, 1.150926e-002
7.521019e+001, 1.137302e-002
7.713866e+001, 1.189902e-002
7.906712e+001, 1.317152e-002
8.099559e+001, 1.309400e-002
8.292406e+001, 1.277728e-002
8.485252e+001, 1.308856e-002
8.678099e+001, 1.386825e-002
8.870946e+001, 1.341095e-002
9.063792e+001, 1.346359e-002
9.256638e+001, 1.428498e-002
9.449485e+001, 1.473482e-002
9.642332e+001, 1.463903e-002
9.835178e+001, 1.500042e-002
1.002803e+002, 1.632077e-002
1.022087e+002, 1.770388e-002
1.041372e+002, 1.787149e-002
1.060657e+002, 1.754503e-002
1.079941e+002, 1.725780e-002
1.099226e+002, 1.749367e-002
1.118510e+002, 1.836658e-002
1.137795e+002, 1.923849e-002
1.157080e+002, 1.989104e-002
1.176364e+002, 2.048570e-002
1.195649e+002, 2.103540e-002
1.214934e+002, 2.195987e-002
1.234218e+002, 2.195339e-002
1.253503e+002, 2.297616e-002
1.272788e+002, 2.536435e-002
1.292072e+002, 2.665430e-002
1.311357e+002, 2.745384e-002
1.330642e+002, 2.837130e-002
1.349926e+002, 2.852652e-002
1.369211e+002, 2.946764e-002
1.388496e+002, 3.069782e-002
1.407780e+002, 3.139276e-002
1.427065e+002, 3.125791e-002
1.446350e+002, 3.184154e-002
1.465634e+002, 3.273183e-002
1.484919e+002, 3.328969e-002
1.504204e+002, 3.369666e-002
1.523488e+002, 3.487018e-002
1.542773e+002, 3.630886e-002
1.562058e+002, 3.749853e-002
1.581342e+002, 3.857733e-002
1.600627e+002, 3.970152e-002
1.619912e+002, 4.030401e-002
1.639196e+002, 4.073877e-002
1.658481e+002, 4.108405e-002
1.677766e+002, 4.168747e-002
1.697050e+002, 4.262305e-002
1.716335e+002, 4.320951e-002
1.735620e+002, 4.286239e-002
1.754904e+002, 4.305651e-002
1.774189e+002, 4.344663e-002
1.793474e+002, 4.348612e-002
1.812758e+002, 4.352988e-002
1.832043e+002, 4.399835e-002
1.851328e+002, 4.412361e-002
1.870612e+002, 4.362115e-002
1.889897e+002, 4.241835e-002
1.909182e+002, 4.146897e-002
1.928466e+002, 4.058718e-002
1.947751e+002, 3.940653e-002
1.967036e+002, 3.781274e-002
1.986320e+002, 3.604834e-002
2.005605e+002, 3.433178e-002
2.024890e+002, 3.297543e-002
2.044174e+002, 3.270495e-002
2.063459e+002, 3.422142e-002
2.082744e+002, 3.697015e-002
2.102028e+002, 3.923150e-002
2.121313e+002, 4.015174e-002
2.140598e+002, 3.975091e-002
2.159882e+002, 3.868185e-002
2.179167e+002, 3.739908e-002
2.198452e+002, 3.658119e-002
2.217736e+002, 3.601385e-002
2.237021e+002, 3.526931e-002
2.256305e+002, 3.437259e-002
2.275590e+002, 3.369526e-002
2.294875e+002, 3.321385e-002
2.314159e+002, 3.277929e-002
2.333444e+002, 3.199862e-002
2.352729e+002, 3.108446e-002
2.372013e+002, 3.038792e-002
2.391298e+002, 2.931616e-002
2.410583e+002, 2.831369e-002
2.429867e+002, 2.758202e-002
2.449152e+002, 2.696868e-002
2.468437e+002, 2.641453e-002
2.487721e+002, 2.582239e-002
2.507006e+002, 2.526717e-002
2.526291e+002, 2.505948e-002
2.545575e+002, 2.469279e-002
2.564860e+002, 2.418917e-002
2.584145e+002, 2.402704e-002
2.603429e+002, 2.400484e-002
2.622714e+002, 2.426162e-002
2.641999e+002, 2.430849e-002
2.661283e+002, 2.439613e-002
2.680568e+002, 2.464117e-002
2.699853e+002, 2.468101e-002
2.719137e+002, 2.456338e-002
2.738422e+002, 2.467681e-002
2.757707e+002, 2.493391e-002
2.776991e+002, 2.546744e-002
2.796276e+002, 2.605590e-002
2.815561e+002, 2.627922e-002
2.834845e+002, 2.669559e-002
2.854130e+002, 2.764174e-002
2.873415e+002, 2.897316e-002
2.892699e+002, 3.050593e-002
2.911984e+002, 3.225412e-002
2.931269e+002, 3.421340e-002
2.950553e+002, 3.672497e-002
2.969838e+002, 3.934748e-002
2.989123e+002, 4.221991e-002
3.008407e+002, 4.492356e-002
3.027692e+002, 4.778716e-002
3.046977e+002, 5.000714e-002
3.066261e+002, 5.099544e-002
3.085546e+002, 5.092956e-002
3.104831e+002, 5.018009e-002
3.124115e+002, 4.914029e-002
3.143400e+002, 4.770841e-002
3.162685e+002, 4.634432e-002
3.181969e+002, 4.522410e-002
3.201254e+002, 4.360799e-002
3.220539e+002, 4.190829e-002
3.239823e+002, 4.024697e-002
3.259108e+002, 3.838207e-002
3.278392e+002, 3.647617e-002
3.297677e+002, 3.452219e-002
3.316962e+002, 3.262470e-002
3.336246e+002, 3.085089e-002
3.355531e+002, 2.916995e-002
3.374816e+002, 2.728451e-002
3.394100e+002, 2.552822e-002
3.413385e+002, 2.423534e-002
3.432670e+002, 2.324482e-002
3.451954e+002, 2.234824e-002
3.471239e+002, 2.147504e-002
3.490524e+002, 2.079844e-002
3.509808e+002, 2.024687e-002
3.529093e+002, 2.003435e-002
3.548378e+002, 1.988235e-002
3.567662e+002, 1.960286e-002
3.586947e+002, 1.931072e-002
3.606232e+002, 1.930559e-002
3.625516e+002, 1.915764e-002
3.644801e+002, 1.909471e-002
3.664086e+002, 1.896310e-002
3.683370e+002, 1.877874e-002
3.702655e+002, 1.891464e-002
3.721940e+002, 1.923227e-002
3.741224e+002, 1.941411e-002
3.760509e+002, 1.918204e-002
3.779794e+002, 1.886147e-002
3.799078e+002, 1.866727e-002
3.818363e+002, 1.850717e-002
3.837648e+002, 1.844386e-002
3.856932e+002, 1.832327e-002
3.876217e+002, 1.819413e-002
3.895502e+002, 1.811540e-002
3.914786e+002, 1.793634e-002
3.934071e+002, 1.811529e-002
3.953356e+002, 1.809480e-002
3.972640e+002, 1.799682e-002
3.991925e+002, 1.804363e-002
4.011210e+002, 1.806565e-002
4.030494e+002, 1.814496e-002
4.049779e+002, 1.818351e-002
4.069064e+002, 1.836019e-002
4.088348e+002, 1.844802e-002
4.107633e+002, 1.843431e-002
4.126917e+002, 1.850515e-002
4.146202e+002, 1.868871e-002
4.165487e+002, 1.892504e-002
4.184771e+002, 1.894532e-002
4.204056e+002, 1.920290e-002
4.223341e+002, 1.955230e-002
4.242625e+002, 1.964184e-002
4.261910e+002, 1.963617e-002
4.281195e+002, 1.976367e-002
4.300479e+002, 2.000130e-002
4.319764e+002, 2.024785e-002
4.339049e+002, 2.053348e-002
4.358333e+002, 2.066164e-002
4.377618e+002, 2.030152e-002
4.396903e+002, 2.009101e-002
4.416187e+002, 1.992482e-002
4.435472e+002, 1.997987e-002
4.454757e+002, 2.050563e-002
4.474041e+002, 2.084578e-002
4.493326e+002, 2.029288e-002
4.512611e+002, 2.002199e-002
4.531895e+002, 2.030318e-002
4.551180e+002, 2.058138e-002
4.570465e+002, 2.064071e-002
4.589749e+002, 2.058021e-002
4.609034e+002, 2.065056e-002
4.628319e+002, 2.087323e-002
4.647603e+002, 2.102691e-002
4.666888e+002, 2.099044e-002
4.686173e+002, 2.118845e-002
4.705457e+002, 2.137095e-002
4.724742e+002, 2.146089e-002
4.744027e+002, 2.133777e-002
4.763311e+002, 2.116526e-002
4.782596e+002, 2.091177e-002
4.801881e+002, 2.104231e-002
4.821165e+002, 2.122675e-002
4.840450e+002, 2.138797e-002
4.859735e+002, 2.120992e-002
4.879019e+002, 2.116662e-002
4.898304e+002, 2.154112e-002
4.917589e+002, 2.183740e-002
4.936873e+002, 2.196151e-002
4.956158e+002, 2.241132e-002
4.975443e+002, 2.272771e-002
4.994727e+002, 2.272232e-002
5.014012e+002, 2.268897e-002
5.033297e+002, 2.298769e-002
5.052581e+002, 2.325047e-002
5.071866e+002, 2.329428e-002
5.091151e+002, 2.309495e-002
5.110435e+002, 2.246829e-002
5.129720e+002, 2.232337e-002
5.149005e+002, 2.281348e-002
5.168289e+002, 2.327596e-002
5.187574e+002, 2.306829e-002
5.206859e+002, 2.311072e-002
5.226143e+002, 2.340042e-002
5.245428e+002, 2.319749e-002
5.264713e+002, 2.326953e-002
5.283997e+002, 2.351390e-002
5.303282e+002, 2.346601e-002
5.322567e+002, 2.343431e-002
5.341851e+002, 2.373232e-002
5.361136e+002, 2.376442e-002
5.380421e+002, 2.371026e-002
5.399705e+002, 2.390275e-002
5.418990e+002, 2.419896e-002
5.438275e+002, 2.434760e-002
5.457559e+002, 2.454859e-002
5.476844e+002, 2.476408e-002
5.496129e+002, 2.494331e-002
5.515413e+002, 2.462758e-002
5.534698e+002, 2.444193e-002
5.553983e+002, 2.511134e-002
5.573267e+002, 2.541994e-002
5.592552e+002, 2.545661e-002
5.611837e+002, 2.575605e-002
5.631121e+002, 2.610189e-002
5.650406e+002, 2.619380e-002
5.669691e+002, 2.638760e-002
5.688975e+002, 2.660244e-002
5.708260e+002, 2.712154e-002
5.727545e+002, 2.796244e-002
5.746829e+002, 2.862158e-002
5.766114e+002, 2.845066e-002
5.785399e+002, 2.880574e-002
5.804683e+002, 2.949837e-002
5.823968e+002, 3.011066e-002
5.843253e+002, 3.026055e-002
5.862537e+002, 3.120538e-002
5.881822e+002, 3.236995e-002
5.901107e+002, 3.280281e-002
5.920391e+002, 3.347981e-002
5.939676e+002, 3.422970e-002
5.958961e+002, 3.551820e-002
5.978245e+002, 3.718521e-002
5.997530e+002, 3.874494e-002
6.016815e+002, 4.045800e-002
6.036099e+002, 4.326085e-002
6.055384e+002, 4.685746e-002
6.074669e+002, 5.128544e-002
6.093953e+002, 5.690004e-002
6.113238e+002, 6.310672e-002
6.132523e+002, 7.102090e-002
6.151807e+002, 8.003148e-002
6.171091e+002, 8.759782e-002
6.190376e+002, 9.243678e-002
6.209661e+002, 9.552272e-002
6.228945e+002, 9.798009e-002
6.248230e+002, 9.885515e-002
6.267515e+002, 9.444077e-002
6.286799e+002, 8.498747e-002
6.306084e+002, 7.367584e-002
6.325369e+002, 6.222755e-002
6.344653e+002, 5.149649e-002
6.363938e+002, 4.282390e-002
6.383223e+002, 3.720695e-002
6.402507e+002, 3.459002e-002
6.421792e+002, 3.325298e-002
6.441077e+002, 3.260082e-002
6.460361e+002, 3.240458e-002
6.479646e+002, 3.198074e-002
6.498931e+002, 3.168038e-002
6.518215e+002, 3.183760e-002
6.537500e+002, 3.199839e-002
6.556785e+002, 3.192895e-002
6.576069e+002, 3.173217e-002
6.595354e+002, 3.153701e-002
6.614639e+002, 3.172456e-002
6.633923e+002, 3.178750e-002
6.653208e+002, 3.194454e-002
6.672493e+002, 3.255355e-002
6.691777e+002, 3.286904e-002
6.711062e+002, 3.261299e-002
6.730347e+002, 3.249766e-002
6.749631e+002, 3.297304e-002
6.768916e+002, 3.344652e-002
6.788201e+002, 3.372925e-002
6.807485e+002, 3.395350e-002
6.826770e+002, 3.389046e-002
6.846055e+002, 3.335175e-002
6.865339e+002, 3.377408e-002
6.884624e+002, 3.446915e-002
6.903909e+002, 3.474501e-002
6.923193e+002, 3.482247e-002
6.942478e+002, 3.498862e-002
6.961763e+002, 3.532080e-002
6.981047e+002, 3.580667e-002
7.000332e+002, 3.656427e-002
##END=



