##NAMES=Thomsonite-Ca
##RRUFFID=R050103
##IDEAL CHEMISTRY=NaCa_2_(Al_5_Si_5_)O_20_&#183;6H_2_O
##LOCALITY=Seeberg, Bohemia, Czech Republic
##OWNER=RRUFF
##SOURCE=Rock Currier
##DESCRIPTION=Colorless prismatic crystals
##STATUS=The identification of this mineral has been confirmed by X-ray diffraction and chemical analysis
##URL=rruff.info/R050103
##MEASURED CHEMISTRY=Na_1.00_(Ca_0.92_Sr_0.08_)_2_(Al_5.00_Si_5.00_)O_20_Â·6H_2_O
5.014013e+001, 1.204983e-002
5.206860e+001, 8.398627e-003
5.399707e+001, 7.093700e-003
5.592553e+001, 6.140546e-003
5.785400e+001, 1.006144e-002
5.978246e+001, 1.291552e-002
6.171093e+001, 1.213104e-002
6.363940e+001, 1.314880e-002
6.556786e+001, 1.214194e-002
6.749633e+001, 1.172253e-002
6.942480e+001, 1.297786e-002
7.135326e+001, 1.392252e-002
7.328172e+001, 1.203570e-002
7.521019e+001, 1.083136e-002
7.713866e+001, 1.207271e-002
7.906712e+001, 1.339630e-002
8.099559e+001, 1.413532e-002
8.292406e+001, 1.364974e-002
8.485252e+001, 1.307426e-002
8.678099e+001, 1.333048e-002
8.870946e+001, 1.467222e-002
9.063792e+001, 1.518136e-002
9.256638e+001, 1.571347e-002
9.449485e+001, 1.634346e-002
9.642332e+001, 1.638176e-002
9.835178e+001, 1.581315e-002
1.002803e+002, 1.601333e-002
1.022087e+002, 1.651212e-002
1.041372e+002, 1.690451e-002
1.060657e+002, 1.697049e-002
1.079941e+002, 1.697981e-002
1.099226e+002, 1.659378e-002
1.118510e+002, 1.719258e-002
1.137795e+002, 1.776287e-002
1.157080e+002, 1.789636e-002
1.176364e+002, 1.781514e-002
1.195649e+002, 1.874450e-002
1.214934e+002, 1.956472e-002
1.234218e+002, 1.965757e-002
1.253503e+002, 1.953351e-002
1.272788e+002, 1.964831e-002
1.292072e+002, 2.018603e-002
1.311357e+002, 2.080786e-002
1.330642e+002, 2.108250e-002
1.349926e+002, 2.141377e-002
1.369211e+002, 2.182494e-002
1.388496e+002, 2.292688e-002
1.407780e+002, 2.317174e-002
1.427065e+002, 2.279489e-002
1.446350e+002, 2.253042e-002
1.465634e+002, 2.251594e-002
1.484919e+002, 2.281699e-002
1.504204e+002, 2.336234e-002
1.523488e+002, 2.365520e-002
1.542773e+002, 2.346073e-002
1.562058e+002, 2.333333e-002
1.581342e+002, 2.340822e-002
1.600627e+002, 2.282730e-002
1.619912e+002, 2.236855e-002
1.639196e+002, 2.231617e-002
1.658481e+002, 2.266554e-002
1.677766e+002, 2.277386e-002
1.697050e+002, 2.285940e-002
1.716335e+002, 2.239903e-002
1.735620e+002, 2.224625e-002
1.754904e+002, 2.179961e-002
1.774189e+002, 2.138281e-002
1.793474e+002, 2.058473e-002
1.812758e+002, 1.978061e-002
1.832043e+002, 1.960747e-002
1.851328e+002, 1.966671e-002
1.870612e+002, 1.976872e-002
1.889897e+002, 2.025062e-002
1.909182e+002, 2.009703e-002
1.928466e+002, 2.001515e-002
1.947751e+002, 2.041819e-002
1.967036e+002, 2.070945e-002
1.986320e+002, 2.100941e-002
2.005605e+002, 2.152784e-002
2.024890e+002, 2.213759e-002
2.044174e+002, 2.247732e-002
2.063459e+002, 2.254654e-002
2.082744e+002, 2.298920e-002
2.102028e+002, 2.325517e-002
2.121313e+002, 2.362048e-002
2.140598e+002, 2.419561e-002
2.159882e+002, 2.458278e-002
2.179167e+002, 2.470801e-002
2.198452e+002, 2.475914e-002
2.217736e+002, 2.469447e-002
2.237021e+002, 2.473726e-002
2.256305e+002, 2.481478e-002
2.275590e+002, 2.489964e-002
2.294875e+002, 2.449089e-002
2.314159e+002, 2.396902e-002
2.333444e+002, 2.349533e-002
2.352729e+002, 2.306617e-002
2.372013e+002, 2.260000e-002
2.391298e+002, 2.232012e-002
2.410583e+002, 2.183995e-002
2.429867e+002, 2.195239e-002
2.449152e+002, 2.226736e-002
2.468437e+002, 2.296848e-002
2.487721e+002, 2.376145e-002
2.507006e+002, 2.412072e-002
2.526291e+002, 2.460797e-002
2.545575e+002, 2.518150e-002
2.564860e+002, 2.555237e-002
2.584145e+002, 2.617531e-002
2.603429e+002, 2.665160e-002
2.622714e+002, 2.721851e-002
2.641999e+002, 2.806100e-002
2.661283e+002, 2.850949e-002
2.680568e+002, 2.866602e-002
2.699853e+002, 2.898735e-002
2.719137e+002, 2.917058e-002
2.738422e+002, 2.874136e-002
2.757707e+002, 2.849578e-002
2.776991e+002, 2.884481e-002
2.796276e+002, 2.913301e-002
2.815561e+002, 2.955060e-002
2.834845e+002, 3.017868e-002
2.854130e+002, 3.064399e-002
2.873415e+002, 3.091751e-002
2.892699e+002, 3.155381e-002
2.911984e+002, 3.230877e-002
2.931269e+002, 3.325593e-002
2.950553e+002, 3.383205e-002
2.969838e+002, 3.402407e-002
2.989123e+002, 3.387005e-002
3.008407e+002, 3.363479e-002
3.027692e+002, 3.333836e-002
3.046977e+002, 3.291172e-002
3.066261e+002, 3.291079e-002
3.085546e+002, 3.296606e-002
3.104831e+002, 3.276219e-002
3.124115e+002, 3.282393e-002
3.143400e+002, 3.304364e-002
3.162685e+002, 3.332851e-002
3.181969e+002, 3.317336e-002
3.201254e+002, 3.373094e-002
3.220539e+002, 3.475956e-002
3.239823e+002, 3.537229e-002
3.259108e+002, 3.620218e-002
3.278392e+002, 3.740888e-002
3.297677e+002, 3.815243e-002
3.316962e+002, 3.838401e-002
3.336246e+002, 3.820845e-002
3.355531e+002, 3.750216e-002
3.374816e+002, 3.677943e-002
3.394100e+002, 3.624805e-002
3.413385e+002, 3.580348e-002
3.432670e+002, 3.628951e-002
3.451954e+002, 3.736077e-002
3.471239e+002, 3.814381e-002
3.490524e+002, 3.887326e-002
3.509808e+002, 3.985680e-002
3.529093e+002, 4.032932e-002
3.548378e+002, 4.059133e-002
3.567662e+002, 4.059239e-002
3.586947e+002, 4.028174e-002
3.606232e+002, 4.021363e-002
3.625516e+002, 4.074356e-002
3.644801e+002, 4.142337e-002
3.664086e+002, 4.229044e-002
3.683370e+002, 4.298979e-002
3.702655e+002, 4.383770e-002
3.721940e+002, 4.445567e-002
3.741224e+002, 4.450861e-002
3.760509e+002, 4.364988e-002
3.779794e+002, 4.248312e-002
3.799078e+002, 4.126585e-002
3.818363e+002, 4.030718e-002
3.837648e+002, 3.932758e-002
3.856932e+002, 3.848120e-002
3.876217e+002, 3.807771e-002
3.895502e+002, 3.824886e-002
3.914786e+002, 3.878742e-002
3.934071e+002, 3.958492e-002
3.953356e+002, 4.034171e-002
3.972640e+002, 4.083928e-002
3.991925e+002, 4.134728e-002
4.011210e+002, 4.170139e-002
4.030494e+002, 4.219152e-002
4.049779e+002, 4.265916e-002
4.069064e+002, 4.309095e-002
4.088348e+002, 4.353387e-002
4.107633e+002, 4.348546e-002
4.126917e+002, 4.308031e-002
4.146202e+002, 4.284339e-002
4.165487e+002, 4.250016e-002
4.184771e+002, 4.188326e-002
4.204056e+002, 4.076634e-002
4.223341e+002, 3.957079e-002
4.242625e+002, 3.861711e-002
4.261910e+002, 3.820108e-002
4.281195e+002, 3.851926e-002
4.300479e+002, 3.899483e-002
4.319764e+002, 3.946669e-002
4.339049e+002, 3.935793e-002
4.358333e+002, 3.864706e-002
4.377618e+002, 3.747048e-002
4.396903e+002, 3.599481e-002
4.416187e+002, 3.431341e-002
4.435472e+002, 3.238755e-002
4.454757e+002, 3.042582e-002
4.474041e+002, 2.858882e-002
4.493326e+002, 2.713107e-002
4.512611e+002, 2.638482e-002
4.531895e+002, 2.603376e-002
4.551180e+002, 2.603569e-002
4.570465e+002, 2.657729e-002
4.589749e+002, 2.719419e-002
4.609034e+002, 2.748481e-002
4.628319e+002, 2.808274e-002
4.647603e+002, 2.824367e-002
4.666888e+002, 2.830298e-002
4.686173e+002, 2.849485e-002
4.705457e+002, 2.845896e-002
4.724742e+002, 2.857608e-002
4.744027e+002, 2.886499e-002
4.763311e+002, 2.916074e-002
4.782596e+002, 2.922374e-002
4.801881e+002, 2.930396e-002
4.821165e+002, 2.961919e-002
4.840450e+002, 2.973682e-002
4.859735e+002, 2.986063e-002
4.879019e+002, 2.983909e-002
4.898304e+002, 3.012951e-002
4.917589e+002, 3.076302e-002
4.936873e+002, 3.154918e-002
4.956158e+002, 3.217738e-002
4.975443e+002, 3.279839e-002
4.994727e+002, 3.354507e-002
5.014012e+002, 3.430568e-002
5.033297e+002, 3.506985e-002
5.052581e+002, 3.597872e-002
5.071866e+002, 3.627407e-002
5.091151e+002, 3.593148e-002
5.110435e+002, 3.557668e-002
5.129720e+002, 3.534900e-002
5.149005e+002, 3.534096e-002
5.168289e+002, 3.548227e-002
5.187574e+002, 3.577157e-002
5.206859e+002, 3.614527e-002
5.226143e+002, 3.650169e-002
5.245428e+002, 3.696620e-002
5.264713e+002, 3.715343e-002
5.283997e+002, 3.753975e-002
5.303282e+002, 3.762390e-002
5.322567e+002, 3.767184e-002
5.341851e+002, 3.781413e-002
5.361136e+002, 3.816578e-002
5.380421e+002, 3.866325e-002
5.399705e+002, 3.870349e-002
5.418990e+002, 3.870563e-002
5.438275e+002, 3.930508e-002
5.457559e+002, 3.912127e-002
5.476844e+002, 3.844875e-002
5.496129e+002, 3.832339e-002
5.515413e+002, 3.884029e-002
5.534698e+002, 3.928515e-002
5.553983e+002, 3.932859e-002
5.573267e+002, 3.952337e-002
5.592552e+002, 4.017311e-002
5.611837e+002, 4.066368e-002
5.631121e+002, 4.099920e-002
5.650406e+002, 4.148715e-002
5.669691e+002, 4.201248e-002
5.688975e+002, 4.232868e-002
5.708260e+002, 4.314917e-002
5.727545e+002, 4.379215e-002
5.746829e+002, 4.427302e-002
5.766114e+002, 4.479393e-002
5.785399e+002, 4.527276e-002
5.804683e+002, 4.549038e-002
5.823968e+002, 4.547970e-002
5.843253e+002, 4.487906e-002
5.862537e+002, 4.437742e-002
5.881822e+002, 4.378261e-002
5.901107e+002, 4.273270e-002
5.920391e+002, 4.184171e-002
5.939676e+002, 4.096724e-002
5.958961e+002, 3.964607e-002
5.978245e+002, 3.883366e-002
5.997530e+002, 3.836055e-002
6.016815e+002, 3.783734e-002
6.036099e+002, 3.768884e-002
6.055384e+002, 3.764717e-002
6.074669e+002, 3.748757e-002
6.093953e+002, 3.762299e-002
6.113238e+002, 3.792623e-002
6.132523e+002, 3.866718e-002
6.151807e+002, 3.991856e-002
6.171091e+002, 4.134811e-002
6.190376e+002, 4.288887e-002
6.209661e+002, 4.421288e-002
6.228945e+002, 4.499564e-002
6.248230e+002, 4.520480e-002
6.267515e+002, 4.574985e-002
6.286799e+002, 4.676383e-002
6.306084e+002, 4.739029e-002
6.325369e+002, 4.733901e-002
6.344653e+002, 4.681243e-002
6.363938e+002, 4.598268e-002
6.383223e+002, 4.494095e-002
6.402507e+002, 4.360207e-002
6.421792e+002, 4.209491e-002
6.441077e+002, 4.081887e-002
6.460361e+002, 3.973437e-002
6.479646e+002, 3.890770e-002
6.498931e+002, 3.825304e-002
6.518215e+002, 3.825149e-002
6.537500e+002, 3.858694e-002
6.556785e+002, 3.925980e-002
6.576069e+002, 4.011879e-002
6.595354e+002, 4.055188e-002
6.614639e+002, 4.058669e-002
6.633923e+002, 4.024917e-002
6.653208e+002, 3.990421e-002
6.672493e+002, 3.974980e-002
6.691777e+002, 3.895423e-002
6.711062e+002, 3.804253e-002
6.730347e+002, 3.714278e-002
6.749631e+002, 3.634624e-002
6.768916e+002, 3.566958e-002
6.788201e+002, 3.512463e-002
6.807485e+002, 3.445491e-002
6.826770e+002, 3.397395e-002
6.846055e+002, 3.419857e-002
6.865339e+002, 3.464121e-002
6.884624e+002, 3.520087e-002
6.903909e+002, 3.519668e-002
6.923193e+002, 3.519082e-002
6.942478e+002, 3.583495e-002
6.961763e+002, 3.706575e-002
6.981047e+002, 3.739145e-002
7.000332e+002, 3.752804e-002
##END=



