##NAMES=Thomsonite-Ca
##RRUFFID=R050103
##IDEAL CHEMISTRY=NaCa_2_(Al_5_Si_5_)O_20_&#183;6H_2_O
##LOCALITY=Seeberg, Bohemia, Czech Republic
##OWNER=RRUFF
##SOURCE=Rock Currier
##DESCRIPTION=Colorless prismatic crystals
##STATUS=The identification of this mineral has been confirmed by X-ray diffraction and chemical analysis
##URL=rruff.info/R050103
##MEASURED CHEMISTRY=Na_1.00_(Ca_0.92_Sr_0.08_)_2_(Al_5.00_Si_5.00_)O_20_Â·6H_2_O
3.991926e+002, 1.289103e-001
4.011211e+002, 1.264855e-001
4.030495e+002, 1.240562e-001
4.049780e+002, 1.260545e-001
4.069065e+002, 1.282873e-001
4.088349e+002, 1.317087e-001
4.107634e+002, 1.299604e-001
4.126919e+002, 1.321927e-001
4.146203e+002, 1.369810e-001
4.165488e+002, 1.359608e-001
4.184773e+002, 1.287968e-001
4.204057e+002, 1.214669e-001
4.223342e+002, 1.162851e-001
4.242627e+002, 1.093497e-001
4.261911e+002, 1.050961e-001
4.281196e+002, 1.064849e-001
4.300481e+002, 1.095794e-001
4.319765e+002, 1.104003e-001
4.339050e+002, 1.091759e-001
4.358335e+002, 1.063637e-001
4.377619e+002, 1.029886e-001
4.396904e+002, 9.798606e-002
4.416189e+002, 8.886188e-002
4.435473e+002, 7.993627e-002
4.454758e+002, 7.167292e-002
4.474043e+002, 6.402924e-002
4.493327e+002, 5.674232e-002
4.512612e+002, 5.234160e-002
4.531897e+002, 4.990518e-002
4.551181e+002, 4.831388e-002
4.570466e+002, 4.688342e-002
4.589751e+002, 4.810768e-002
4.609035e+002, 4.910423e-002
4.628320e+002, 4.946694e-002
4.647605e+002, 5.034854e-002
4.666889e+002, 5.053182e-002
4.686174e+002, 5.107391e-002
4.705459e+002, 5.180607e-002
4.724743e+002, 5.103515e-002
4.744028e+002, 5.045860e-002
4.763313e+002, 5.097180e-002
4.782597e+002, 5.201246e-002
4.801882e+002, 5.334574e-002
4.821167e+002, 5.462860e-002
4.840451e+002, 5.560843e-002
4.859736e+002, 5.697627e-002
4.879021e+002, 5.862615e-002
4.898305e+002, 6.081918e-002
4.917590e+002, 6.327877e-002
4.936875e+002, 6.574974e-002
4.956159e+002, 6.825290e-002
4.975444e+002, 7.094584e-002
4.994729e+002, 7.295811e-002
5.014013e+002, 7.438952e-002
5.033298e+002, 7.618409e-002
5.052583e+002, 7.730871e-002
5.071867e+002, 7.805972e-002
5.091152e+002, 7.885290e-002
5.110437e+002, 8.021030e-002
5.129721e+002, 8.134370e-002
5.149006e+002, 8.198007e-002
5.168290e+002, 8.320617e-002
5.187575e+002, 8.457702e-002
5.206860e+002, 8.507366e-002
5.226144e+002, 8.562266e-002
5.245429e+002, 8.680005e-002
5.264714e+002, 8.827363e-002
5.283998e+002, 8.940082e-002
5.303283e+002, 9.030571e-002
5.322568e+002, 9.163126e-002
5.341852e+002, 9.228034e-002
5.361137e+002, 9.229155e-002
5.380422e+002, 9.224033e-002
5.399706e+002, 9.231399e-002
5.418991e+002, 9.176279e-002
5.438276e+002, 9.020531e-002
5.457560e+002, 8.926294e-002
5.476845e+002, 8.916067e-002
5.496130e+002, 8.845630e-002
5.515414e+002, 8.809648e-002
5.534699e+002, 8.860613e-002
5.553984e+002, 8.850109e-002
5.573268e+002, 8.850679e-002
5.592553e+002, 8.904160e-002
5.611838e+002, 9.022746e-002
5.631122e+002, 9.164835e-002
5.650407e+002, 9.309562e-002
5.669692e+002, 9.514672e-002
5.688976e+002, 9.724344e-002
5.708261e+002, 9.911186e-002
5.727546e+002, 1.009569e-001
5.746830e+002, 1.031612e-001
5.766115e+002, 1.049801e-001
5.785400e+002, 1.062374e-001
5.804684e+002, 1.074251e-001
5.823969e+002, 1.081490e-001
5.843254e+002, 1.079853e-001
5.862538e+002, 1.073996e-001
5.881823e+002, 1.061208e-001
5.901108e+002, 1.038665e-001
5.920392e+002, 1.004020e-001
5.939677e+002, 9.635855e-002
5.958962e+002, 9.187298e-002
5.978246e+002, 8.717047e-002
5.997531e+002, 8.357549e-002
6.016816e+002, 8.078138e-002
6.036100e+002, 7.887570e-002
6.055385e+002, 7.839495e-002
6.074670e+002, 7.843943e-002
6.093954e+002, 7.866812e-002
6.113239e+002, 8.055922e-002
6.132524e+002, 8.362605e-002
6.151808e+002, 8.686037e-002
6.171093e+002, 9.033481e-002
6.190378e+002, 9.416914e-002
6.209662e+002, 9.740376e-002
6.228947e+002, 1.000335e-001
6.248232e+002, 1.013692e-001
6.267516e+002, 1.017070e-001
6.286801e+002, 1.012547e-001
6.306086e+002, 9.987818e-002
6.325370e+002, 9.738297e-002
6.344655e+002, 9.422176e-002
6.363940e+002, 9.035447e-002
6.383224e+002, 8.598452e-002
6.402509e+002, 8.127776e-002
6.421794e+002, 7.645939e-002
6.441078e+002, 7.196231e-002
6.460363e+002, 6.835557e-002
6.479648e+002, 6.484921e-002
6.498932e+002, 6.258424e-002
6.518217e+002, 6.190502e-002
6.537502e+002, 6.228850e-002
6.556786e+002, 6.334778e-002
6.576071e+002, 6.497338e-002
6.595356e+002, 6.643993e-002
6.614641e+002, 6.730206e-002
6.633925e+002, 6.693931e-002
6.653210e+002, 6.544311e-002
6.672495e+002, 6.343484e-002
6.691779e+002, 6.102967e-002
6.711064e+002, 5.846343e-002
6.730349e+002, 5.585871e-002
6.749633e+002, 5.335377e-002
6.768918e+002, 5.126421e-002
6.788203e+002, 4.946238e-002
6.807487e+002, 4.794973e-002
6.826772e+002, 4.669360e-002
6.846057e+002, 4.577724e-002
6.865341e+002, 4.530464e-002
6.884626e+002, 4.511854e-002
6.903911e+002, 4.492206e-002
6.923195e+002, 4.502152e-002
6.942480e+002, 4.546098e-002
6.961765e+002, 4.577526e-002
6.981049e+002, 4.551857e-002
7.000334e+002, 4.533279e-002
7.019619e+002, 4.475993e-002
7.038903e+002, 4.406707e-002
7.058188e+002, 4.315293e-002
7.077473e+002, 4.210177e-002
7.096757e+002, 4.109957e-002
7.116042e+002, 4.011429e-002
7.135327e+002, 3.904590e-002
7.154611e+002, 3.792386e-002
7.173896e+002, 3.684339e-002
7.193181e+002, 3.608925e-002
7.212465e+002, 3.520876e-002
7.231750e+002, 3.424728e-002
7.251035e+002, 3.350878e-002
7.270319e+002, 3.294014e-002
7.289604e+002, 3.274660e-002
7.308889e+002, 3.278405e-002
7.328173e+002, 3.267942e-002
7.347458e+002, 3.270112e-002
7.366743e+002, 3.259473e-002
7.386027e+002, 3.218478e-002
7.405312e+002, 3.158730e-002
7.424597e+002, 3.088335e-002
7.443881e+002, 3.004395e-002
7.463166e+002, 2.887661e-002
7.482451e+002, 2.725841e-002
7.501735e+002, 2.566097e-002
7.521020e+002, 2.378681e-002
7.540305e+002, 2.198101e-002
7.559589e+002, 2.066328e-002
7.578874e+002, 1.962770e-002
7.598159e+002, 1.852622e-002
7.617443e+002, 1.773678e-002
7.636728e+002, 1.703415e-002
7.656013e+002, 1.673859e-002
7.675297e+002, 1.670472e-002
7.694582e+002, 1.649499e-002
7.713867e+002, 1.618967e-002
7.733151e+002, 1.598427e-002
7.752436e+002, 1.610789e-002
7.771721e+002, 1.635640e-002
7.791005e+002, 1.630162e-002
7.810290e+002, 1.628688e-002
7.829575e+002, 1.642723e-002
7.848859e+002, 1.666069e-002
7.868144e+002, 1.686837e-002
7.887429e+002, 1.731595e-002
7.906713e+002, 1.747398e-002
7.925998e+002, 1.763613e-002
7.945283e+002, 1.783757e-002
7.964567e+002, 1.820310e-002
7.983852e+002, 1.863351e-002
8.003137e+002, 1.898064e-002
8.022421e+002, 1.920572e-002
8.041706e+002, 1.964034e-002
8.060991e+002, 2.024624e-002
8.080275e+002, 2.096315e-002
8.099560e+002, 2.146720e-002
8.118845e+002, 2.190188e-002
8.138129e+002, 2.266940e-002
8.157414e+002, 2.351825e-002
8.176699e+002, 2.432701e-002
8.195983e+002, 2.527389e-002
8.215268e+002, 2.618703e-002
8.234553e+002, 2.696548e-002
8.253837e+002, 2.751018e-002
8.273122e+002, 2.817135e-002
8.292407e+002, 2.881374e-002
8.311691e+002, 2.974665e-002
8.330976e+002, 3.087749e-002
8.350261e+002, 3.214220e-002
8.369545e+002, 3.327206e-002
8.388830e+002, 3.442960e-002
8.408115e+002, 3.567157e-002
8.427399e+002, 3.730876e-002
8.446684e+002, 3.897020e-002
8.465969e+002, 4.071600e-002
8.485253e+002, 4.246147e-002
8.504538e+002, 4.432993e-002
8.523823e+002, 4.638597e-002
8.543107e+002, 4.893474e-002
8.562392e+002, 5.139216e-002
8.581677e+002, 5.403763e-002
8.600961e+002, 5.678713e-002
8.620246e+002, 5.938755e-002
8.639531e+002, 6.200995e-002
8.658815e+002, 6.509070e-002
8.678100e+002, 6.837557e-002
8.697385e+002, 7.198906e-002
8.716669e+002, 7.584680e-002
8.735954e+002, 7.988036e-002
8.755239e+002, 8.429594e-002
8.774523e+002, 8.920947e-002
8.793808e+002, 9.411039e-002
8.813093e+002, 9.943163e-002
8.832377e+002, 1.048545e-001
8.851662e+002, 1.104417e-001
8.870947e+002, 1.161117e-001
8.890231e+002, 1.220227e-001
8.909516e+002, 1.275572e-001
8.928801e+002, 1.323982e-001
8.948085e+002, 1.364028e-001
8.967370e+002, 1.394579e-001
8.986655e+002, 1.420801e-001
9.005939e+002, 1.452999e-001
9.025224e+002, 1.495704e-001
9.044509e+002, 1.547503e-001
9.063793e+002, 1.597994e-001
9.083078e+002, 1.646823e-001
9.102363e+002, 1.683068e-001
9.121647e+002, 1.702233e-001
9.140932e+002, 1.711609e-001
9.160217e+002, 1.715538e-001
9.179501e+002, 1.715869e-001
9.198786e+002, 1.720482e-001
9.218071e+002, 1.731944e-001
9.237355e+002, 1.750870e-001
9.256640e+002, 1.782963e-001
9.275925e+002, 1.827857e-001
9.295209e+002, 1.866040e-001
9.314494e+002, 1.891087e-001
9.333779e+002, 1.900120e-001
9.353063e+002, 1.895350e-001
9.372348e+002, 1.876428e-001
9.391633e+002, 1.846894e-001
9.410917e+002, 1.810184e-001
9.430202e+002, 1.771289e-001
9.449487e+002, 1.732156e-001
9.468771e+002, 1.697596e-001
9.488056e+002, 1.672907e-001
9.507341e+002, 1.657046e-001
9.526625e+002, 1.647810e-001
9.545910e+002, 1.646645e-001
9.565195e+002, 1.648142e-001
9.584479e+002, 1.648583e-001
9.603764e+002, 1.644051e-001
9.623049e+002, 1.633827e-001
9.642333e+002, 1.619062e-001
9.661618e+002, 1.602262e-001
9.680903e+002, 1.583800e-001
9.700187e+002, 1.566271e-001
9.719472e+002, 1.548570e-001
9.738757e+002, 1.538678e-001
9.758041e+002, 1.536524e-001
9.777326e+002, 1.537290e-001
9.796611e+002, 1.537514e-001
9.815895e+002, 1.537529e-001
9.835180e+002, 1.534759e-001
9.854465e+002, 1.530598e-001
9.873749e+002, 1.523937e-001
9.893034e+002, 1.517594e-001
9.912319e+002, 1.510206e-001
9.931603e+002, 1.502750e-001
9.950888e+002, 1.492965e-001
9.970173e+002, 1.476876e-001
9.989457e+002, 1.454574e-001
1.000874e+003, 1.426000e-001
1.002803e+003, 1.387399e-001
1.004731e+003, 1.339380e-001
1.006660e+003, 1.287903e-001
1.008588e+003, 1.237853e-001
1.010517e+003, 1.187760e-001
1.012445e+003, 1.139666e-001
1.014373e+003, 1.093113e-001
1.016302e+003, 1.046056e-001
1.018230e+003, 1.001479e-001
1.020159e+003, 9.589206e-002
1.022087e+003, 9.118813e-002
1.024016e+003, 8.664349e-002
1.025944e+003, 8.208551e-002
1.027873e+003, 7.820406e-002
1.029801e+003, 7.490624e-002
1.031730e+003, 7.187312e-002
1.033658e+003, 6.962147e-002
1.035587e+003, 6.821355e-002
1.037515e+003, 6.719235e-002
1.039443e+003, 6.674629e-002
1.041372e+003, 6.675329e-002
1.043300e+003, 6.727163e-002
1.045229e+003, 6.830313e-002
1.047157e+003, 7.021558e-002
1.049086e+003, 7.209969e-002
1.051014e+003, 7.371040e-002
1.052943e+003, 7.485893e-002
1.054871e+003, 7.519840e-002
1.056800e+003, 7.469202e-002
1.058728e+003, 7.346050e-002
1.060657e+003, 7.131040e-002
1.062585e+003, 6.868841e-002
1.064514e+003, 6.586984e-002
1.066442e+003, 6.300978e-002
1.068370e+003, 6.012018e-002
1.070299e+003, 5.735245e-002
1.072227e+003, 5.449906e-002
1.074156e+003, 5.177542e-002
1.076084e+003, 4.936952e-002
1.078013e+003, 4.710506e-002
1.079941e+003, 4.468803e-002
1.081870e+003, 4.237014e-002
1.083798e+003, 4.035102e-002
1.085727e+003, 3.853082e-002
1.087655e+003, 3.652483e-002
1.089584e+003, 3.447378e-002
1.091512e+003, 3.239982e-002
1.093441e+003, 3.056700e-002
1.095369e+003, 2.869107e-002
1.097297e+003, 2.700718e-002
1.099226e+003, 2.520969e-002
1.101154e+003, 2.359065e-002
1.103083e+003, 2.222641e-002
1.105011e+003, 2.103080e-002
1.106940e+003, 1.966790e-002
1.108868e+003, 1.844856e-002
1.110797e+003, 1.720056e-002
1.112725e+003, 1.613487e-002
1.114654e+003, 1.523893e-002
1.116582e+003, 1.449029e-002
1.118511e+003, 1.362579e-002
1.120439e+003, 1.288040e-002
1.122368e+003, 1.220839e-002
1.124296e+003, 1.184668e-002
1.126224e+003, 1.152759e-002
1.128153e+003, 1.102661e-002
1.130081e+003, 1.035875e-002
1.132010e+003, 9.797885e-003
1.133938e+003, 9.222183e-003
1.135867e+003, 8.868932e-003
1.137795e+003, 8.570665e-003
1.139724e+003, 8.345417e-003
1.141652e+003, 7.892059e-003
1.143581e+003, 7.566075e-003
1.145509e+003, 7.317520e-003
1.147438e+003, 7.112021e-003
1.149366e+003, 6.754205e-003
1.151295e+003, 6.478693e-003
1.153223e+003, 6.190084e-003
1.155151e+003, 6.043842e-003
1.157080e+003, 5.841113e-003
1.159008e+003, 5.593424e-003
1.160937e+003, 5.281107e-003
1.162865e+003, 5.106768e-003
1.164794e+003, 5.071269e-003
1.166722e+003, 4.850097e-003
1.168651e+003, 4.718188e-003
1.170579e+003, 4.770721e-003
1.172508e+003, 4.623950e-003
1.174436e+003, 4.489319e-003
1.176365e+003, 4.303315e-003
1.178293e+003, 4.163510e-003
1.180222e+003, 3.989176e-003
1.182150e+003, 3.952915e-003
1.184078e+003, 3.981429e-003
1.186007e+003, 3.988274e-003
1.187935e+003, 3.804967e-003
1.189864e+003, 3.569106e-003
1.191792e+003, 3.475870e-003
1.193721e+003, 3.552500e-003
1.195649e+003, 3.428194e-003
1.197578e+003, 3.283453e-003
1.199506e+003, 3.215648e-003
1.201435e+003, 3.111617e-003
1.203363e+003, 3.047156e-003
1.205292e+003, 3.205434e-003
1.207220e+003, 3.075536e-003
1.209149e+003, 3.026905e-003
1.211077e+003, 3.104072e-003
1.213005e+003, 3.128272e-003
1.214934e+003, 2.965320e-003
1.216862e+003, 2.795805e-003
1.218791e+003, 2.798058e-003
1.220719e+003, 2.964555e-003
1.222648e+003, 3.061933e-003
1.224576e+003, 3.081674e-003
1.226505e+003, 2.822322e-003
1.228433e+003, 2.685263e-003
1.230362e+003, 2.695514e-003
1.232290e+003, 2.776539e-003
1.234219e+003, 2.718791e-003
1.236147e+003, 2.744707e-003
1.238076e+003, 2.707246e-003
1.240004e+003, 2.657021e-003
1.241932e+003, 2.656702e-003
1.243861e+003, 2.703051e-003
1.245789e+003, 2.691204e-003
1.247718e+003, 2.650314e-003
1.249646e+003, 2.713055e-003
1.251575e+003, 2.836884e-003
1.253503e+003, 2.765174e-003
1.255432e+003, 2.661555e-003
1.257360e+003, 2.491040e-003
1.259289e+003, 2.569449e-003
1.261217e+003, 2.627863e-003
1.263146e+003, 2.562433e-003
1.265074e+003, 2.494531e-003
1.267003e+003, 2.494310e-003
1.268931e+003, 2.582182e-003
1.270859e+003, 2.592853e-003
1.272788e+003, 2.499033e-003
1.274716e+003, 2.532586e-003
1.276645e+003, 2.488769e-003
1.278573e+003, 2.535913e-003
1.280502e+003, 2.662435e-003
1.282430e+003, 2.724624e-003
1.284359e+003, 2.769759e-003
1.286287e+003, 2.906435e-003
1.288216e+003, 2.673604e-003
1.290144e+003, 2.601445e-003
1.292073e+003, 2.647981e-003
1.294001e+003, 2.805852e-003
1.295930e+003, 2.698564e-003
1.297858e+003, 2.619137e-003
1.299786e+003, 2.571531e-003
1.301715e+003, 2.470536e-003
1.303643e+003, 2.365131e-003
1.305572e+003, 2.465053e-003
1.307500e+003, 2.755135e-003
1.309429e+003, 2.941224e-003
1.311357e+003, 2.823052e-003
1.313286e+003, 2.838824e-003
1.315214e+003, 2.785789e-003
1.317143e+003, 2.746230e-003
1.319071e+003, 2.789980e-003
1.321000e+003, 2.795456e-003
1.322928e+003, 2.863661e-003
1.324857e+003, 2.851234e-003
1.326785e+003, 2.641146e-003
1.328714e+003, 2.666650e-003
1.330642e+003, 2.716399e-003
1.332570e+003, 2.737535e-003
1.334499e+003, 2.839094e-003
1.336427e+003, 2.943494e-003
1.338356e+003, 2.916977e-003
1.340284e+003, 2.871635e-003
1.342213e+003, 2.806000e-003
1.344141e+003, 2.905659e-003
1.346070e+003, 2.808398e-003
1.347998e+003, 2.871478e-003
1.349927e+003, 2.927091e-003
1.351855e+003, 2.866849e-003
1.353784e+003, 2.789174e-003
1.355712e+003, 2.731265e-003
1.357641e+003, 2.770756e-003
1.359569e+003, 2.975397e-003
1.361497e+003, 3.190246e-003
1.363426e+003, 3.253489e-003
1.365354e+003, 3.124502e-003
1.367283e+003, 3.066613e-003
1.369211e+003, 3.025381e-003
1.371140e+003, 3.023973e-003
1.373068e+003, 3.058493e-003
1.374997e+003, 3.099879e-003
1.376925e+003, 2.973586e-003
1.378854e+003, 2.939912e-003
1.380782e+003, 3.037170e-003
1.382711e+003, 3.119186e-003
1.384639e+003, 2.881194e-003
1.386568e+003, 2.932569e-003
1.388496e+003, 3.012236e-003
1.390424e+003, 3.095129e-003
1.392353e+003, 3.162626e-003
1.394281e+003, 3.268902e-003
1.396210e+003, 3.206870e-003
1.398138e+003, 3.311522e-003
1.400067e+003, 3.262968e-003
1.401995e+003, 3.232904e-003
1.403924e+003, 3.259608e-003
1.405852e+003, 3.223767e-003
1.407781e+003, 3.341630e-003
1.409709e+003, 3.460060e-003
1.411638e+003, 3.327554e-003
1.413566e+003, 3.379617e-003
1.415495e+003, 3.455067e-003
1.417423e+003, 3.606717e-003
1.419351e+003, 3.638732e-003
1.421280e+003, 3.502154e-003
1.423208e+003, 3.561070e-003
1.425137e+003, 3.633195e-003
1.427065e+003, 3.457214e-003
1.428994e+003, 3.451701e-003
1.430922e+003, 3.418698e-003
1.432851e+003, 3.523804e-003
1.434779e+003, 3.644593e-003
1.436708e+003, 3.817105e-003
1.438636e+003, 3.654205e-003
1.440565e+003, 3.466378e-003
1.442493e+003, 3.191476e-003
1.444422e+003, 3.149279e-003
1.446350e+003, 3.395990e-003
1.448278e+003, 3.530417e-003
1.450207e+003, 3.367906e-003
1.452135e+003, 3.425894e-003
1.454064e+003, 3.593521e-003
1.455992e+003, 4.037912e-003
1.457921e+003, 3.953188e-003
1.459849e+003, 3.467999e-003
1.461778e+003, 3.264922e-003
1.463706e+003, 3.347283e-003
1.465635e+003, 3.229915e-003
1.467563e+003, 3.001389e-003
1.469492e+003, 3.017816e-003
1.471420e+003, 3.451907e-003
1.473349e+003, 3.597511e-003
1.475277e+003, 3.434487e-003
1.477205e+003, 3.318481e-003
1.479134e+003, 3.381744e-003
1.481062e+003, 3.416158e-003
1.482991e+003, 3.415332e-003
1.484919e+003, 3.378729e-003
1.486848e+003, 3.604979e-003
1.488776e+003, 3.651633e-003
1.490705e+003, 3.700580e-003
1.492633e+003, 3.701053e-003
1.494562e+003, 3.958448e-003
1.496490e+003, 4.093087e-003
1.498419e+003, 3.929225e-003
1.500347e+003, 3.780526e-003
1.502276e+003, 3.865007e-003
1.504204e+003, 4.034296e-003
1.506132e+003, 4.346651e-003
1.508061e+003, 4.137729e-003
1.509989e+003, 3.980834e-003
1.511918e+003, 3.980742e-003
1.513846e+003, 3.944254e-003
1.515775e+003, 4.024580e-003
1.517703e+003, 4.078744e-003
1.519632e+003, 4.251607e-003
1.521560e+003, 4.375854e-003
1.523489e+003, 4.123182e-003
1.525417e+003, 4.115704e-003
1.527346e+003, 4.065065e-003
1.529274e+003, 4.063689e-003
1.531203e+003, 4.166589e-003
1.533131e+003, 4.462415e-003
1.535059e+003, 4.444485e-003
1.536988e+003, 4.601134e-003
1.538916e+003, 5.020715e-003
1.540845e+003, 5.142463e-003
1.542773e+003, 4.888673e-003
1.544702e+003, 4.768666e-003
1.546630e+003, 4.600261e-003
1.548559e+003, 4.657259e-003
1.550487e+003, 4.833291e-003
1.552416e+003, 5.027201e-003
1.554344e+003, 5.193657e-003
1.556273e+003, 5.526162e-003
1.558201e+003, 6.150443e-003
1.560130e+003, 6.190723e-003
1.562058e+003, 5.639493e-003
1.563986e+003, 5.639579e-003
1.565915e+003, 5.711116e-003
1.567843e+003, 5.857637e-003
1.569772e+003, 6.044148e-003
1.571700e+003, 6.191312e-003
1.573629e+003, 6.354839e-003
1.575557e+003, 6.821427e-003
1.577486e+003, 6.865118e-003
1.579414e+003, 6.755406e-003
1.581343e+003, 6.858665e-003
1.583271e+003, 7.169773e-003
1.585200e+003, 7.512762e-003
1.587128e+003, 7.860823e-003
1.589057e+003, 8.257980e-003
1.590985e+003, 8.874288e-003
1.592913e+003, 9.338139e-003
1.594842e+003, 9.805850e-003
1.596770e+003, 1.011008e-002
1.598699e+003, 1.044779e-002
1.600627e+003, 1.068991e-002
1.602556e+003, 1.090397e-002
1.604484e+003, 1.083412e-002
1.606413e+003, 1.050241e-002
1.608341e+003, 1.029463e-002
1.610270e+003, 1.004222e-002
1.612198e+003, 9.694654e-003
1.614127e+003, 9.455848e-003
1.616055e+003, 9.377512e-003
1.617984e+003, 8.961662e-003
1.619912e+003, 8.480023e-003
1.621840e+003, 8.422761e-003
1.623769e+003, 8.128941e-003
1.625697e+003, 7.853812e-003
1.627626e+003, 7.645273e-003
1.629554e+003, 7.656708e-003
1.631483e+003, 7.716128e-003
1.633411e+003, 8.011268e-003
1.635340e+003, 8.239605e-003
1.637268e+003, 7.947515e-003
1.639197e+003, 7.626568e-003
1.641125e+003, 7.678379e-003
1.643054e+003, 7.965324e-003
1.644982e+003, 8.474338e-003
1.646911e+003, 8.611597e-003
1.648839e+003, 8.440042e-003
1.650767e+003, 8.683147e-003
1.652696e+003, 9.391708e-003
1.654624e+003, 9.422746e-003
1.656553e+003, 9.448719e-003
1.658481e+003, 9.620512e-003
1.660410e+003, 9.987536e-003
1.662338e+003, 1.046592e-002
1.664267e+003, 1.126247e-002
1.666195e+003, 1.207106e-002
1.668124e+003, 1.306845e-002
1.670052e+003, 1.398015e-002
1.671981e+003, 1.504513e-002
1.673909e+003, 1.637159e-002
1.675838e+003, 1.758618e-002
1.677766e+003, 1.794037e-002
1.679694e+003, 1.806623e-002
1.681623e+003, 1.770465e-002
1.683551e+003, 1.697584e-002
1.685480e+003, 1.511223e-002
1.687408e+003, 1.274697e-002
1.689337e+003, 1.080860e-002
1.691265e+003, 9.077783e-003
1.693194e+003, 7.631522e-003
1.695122e+003, 6.995319e-003
1.697051e+003, 6.156339e-003
1.698979e+003, 5.524810e-003
1.700908e+003, 4.845639e-003
1.702836e+003, 4.041584e-003
1.704765e+003, 3.635972e-003
1.706693e+003, 3.359961e-003
1.708621e+003, 3.127473e-003
1.710550e+003, 2.821141e-003
1.712478e+003, 2.403115e-003
1.714407e+003, 2.627634e-003
1.716335e+003, 2.848494e-003
1.718264e+003, 2.668418e-003
1.720192e+003, 2.359375e-003
1.722121e+003, 2.175699e-003
1.724049e+003, 1.989656e-003
1.725978e+003, 1.890494e-003
1.727906e+003, 1.688802e-003
1.729835e+003, 1.573261e-003
1.731763e+003, 1.568097e-003
1.733692e+003, 1.755031e-003
1.735620e+003, 1.358414e-003
1.737548e+003, 1.057799e-003
1.739477e+003, 1.026174e-003
1.741405e+003, 9.815363e-004
1.743334e+003, 9.504496e-004
1.745262e+003, 9.157615e-004
1.747191e+003, 9.055709e-004
1.749119e+003, 9.232573e-004
1.751048e+003, 9.386076e-004
1.752976e+003, 8.941503e-004
1.754905e+003, 7.893494e-004
1.756833e+003, 9.248767e-004
1.758762e+003, 1.046077e-003
1.760690e+003, 1.259939e-003
1.762619e+003, 1.165481e-003
1.764547e+003, 1.046654e-003
1.766475e+003, 9.187942e-004
1.768404e+003, 9.664806e-004
1.770332e+003, 1.173519e-003
1.772261e+003, 1.769654e-003
1.774189e+003, 1.444978e-003
1.776118e+003, 7.802143e-004
1.778046e+003, 5.622891e-004
1.779975e+003, 6.968135e-004
1.781903e+003, 1.007448e-003
1.783832e+003, 1.133824e-003
1.785760e+003, 1.029865e-003
1.787689e+003, 9.390283e-004
1.789617e+003, 8.026619e-004
1.791546e+003, 1.047479e-003
1.793474e+003, 1.084893e-003
1.795402e+003, 9.158701e-004
1.797331e+003, 8.118537e-004
1.799259e+003, 8.114593e-004
1.801188e+003, 8.458846e-004
1.803116e+003, 7.498344e-004
1.805045e+003, 7.572097e-004
1.806973e+003, 8.887245e-004
1.808902e+003, 5.574916e-004
1.810830e+003, 3.978981e-004
1.812759e+003, 5.171853e-004
1.814687e+003, 5.269218e-004
1.816616e+003, 4.007536e-004
1.818544e+003, 8.071167e-004
1.820473e+003, 1.062870e-003
1.822401e+003, 6.285210e-004
1.824329e+003, 4.307166e-004
1.826258e+003, 5.573448e-004
1.828186e+003, 5.968324e-004
1.830115e+003, 5.634088e-004
1.832043e+003, 2.094995e-004
1.833972e+003, 2.186373e-004
1.835900e+003, 2.080877e-004
1.837829e+003, 2.278491e-004
1.839757e+003, 1.986282e-004
1.841686e+003, 7.216518e-004
1.843614e+003, 1.127071e-003
1.845543e+003, 9.661050e-004
1.847471e+003, 5.219134e-004
1.849400e+003, 5.445242e-004
1.851328e+003, 3.442628e-004
1.853256e+003, 2.925820e-004
1.855185e+003, 3.768722e-004
1.857113e+003, 5.507565e-004
1.859042e+003, 2.293811e-004
1.860970e+003, -2.828373e-004
1.862899e+003, -3.246634e-004
1.864827e+003, 6.753712e-005
1.866756e+003, -2.920241e-005
1.868684e+003, 3.099707e-005
1.870613e+003, -8.617947e-005
1.872541e+003, -3.461108e-004
1.874470e+003, -7.386137e-004
1.876398e+003, -6.503792e-004
1.878327e+003, -5.071324e-004
1.880255e+003, -5.434850e-004
1.882183e+003, -4.909051e-004
1.884112e+003, -1.313945e-004
1.886040e+003, -2.923531e-004
1.887969e+003, -5.144741e-004
1.889897e+003, -4.908788e-005
1.891826e+003, 1.912260e-004
1.893754e+003, -3.612154e-004
1.895683e+003, -6.186950e-004
1.897611e+003, -6.324797e-004
1.899540e+003, -5.418834e-004
1.901468e+003, -2.968845e-004
1.903397e+003, -1.109742e-004
1.905325e+003, -3.862591e-004
1.907254e+003, -3.785782e-004
1.909182e+003, -3.643342e-004
1.911110e+003, -4.691123e-004
1.913039e+003, -4.729830e-004
1.914967e+003, -8.959402e-005
1.916896e+003, -2.795660e-004
1.918824e+003, -9.089856e-004
1.920753e+003, -1.262624e-003
1.922681e+003, -4.337857e-004
1.924610e+003, -1.752218e-004
1.926538e+003, -7.284579e-004
1.928467e+003, -1.415466e-003
1.930395e+003, -1.404190e-003
1.932324e+003, -1.297523e-003
1.934252e+003, -8.831715e-004
1.936181e+003, -9.398133e-004
1.938109e+003, -6.267740e-004
1.940037e+003, -1.111544e-003
1.941966e+003, -1.282243e-003
1.943894e+003, -9.573298e-005
1.945823e+003, -9.780924e-005
1.947751e+003, -1.428519e-003
1.949680e+003, -1.108584e-003
1.951608e+003, -1.126140e-003
1.953537e+003, -1.561327e-003
1.955465e+003, -2.674403e-003
1.957394e+003, -2.244903e-003
1.959322e+003, -1.458016e-003
1.961251e+003, -4.919709e-004
1.963179e+003, -4.453762e-004
1.965108e+003, -7.681544e-004
1.967036e+003, -1.685124e-003
1.968964e+003, -2.108330e-003
1.970893e+003, -2.425211e-003
1.972821e+003, -1.742148e-003
1.974750e+003, -1.184541e-003
1.976678e+003, -2.521025e-004
1.978607e+003, 5.383927e-004
1.980535e+003, 1.382575e-003
1.982464e+003, 8.436128e-004
1.984392e+003, 3.637613e-004
1.986321e+003, -4.122804e-004
1.988249e+003, 4.212029e-004
1.990178e+003, 4.494580e-004
1.992106e+003, -8.953644e-004
1.994035e+003, -1.827495e-003
1.995963e+003, -1.247590e-003
1.997891e+003, -1.005250e-003
1.999820e+003, -1.362670e-003
2.001748e+003, -1.850820e-003
2.003677e+003, -2.267047e-003
2.005605e+003, -1.832780e-003
2.007534e+003, 1.091386e-003
2.009462e+003, 1.350567e-003
2.011391e+003, -4.994636e-004
2.013319e+003, -1.355727e-003
2.015248e+003, -1.070863e-004
2.017176e+003, -7.612212e-005
2.019105e+003, -6.556741e-004
2.021033e+003, -1.425311e-003
2.022962e+003, -7.217303e-004
2.024890e+003, -2.713480e-004
2.026818e+003, 6.172641e-004
2.028747e+003, 6.655368e-004
2.030675e+003, 1.599655e-003
2.032604e+003, 1.304547e-003
2.034532e+003, 1.454833e-004
2.036461e+003, -5.485655e-004
2.038389e+003, 9.942197e-004
2.040318e+003, 1.634588e-003
2.042246e+003, 2.107058e-003
2.044175e+003, 1.722368e-003
2.046103e+003, 2.068064e-003
2.048031e+003, 2.901554e-003
2.049960e+003, 3.072569e-003
2.051888e+003, 1.942784e-003
2.053817e+003, 1.142531e-003
2.055745e+003, 1.577873e-003
2.057674e+003, 2.210357e-003
2.059602e+003, 1.394867e-003
2.061531e+003, 4.473377e-004
2.063459e+003, 4.914984e-004
2.065388e+003, 1.692559e-003
2.067316e+003, 1.960647e-003
2.069245e+003, 1.771959e-003
2.071173e+003, 2.321319e-003
2.073102e+003, 2.548557e-003
2.075030e+003, 1.768064e-003
2.076958e+003, 1.845211e-003
2.078887e+003, 2.245359e-003
2.080815e+003, 2.810552e-003
2.082744e+003, 2.678582e-003
2.084672e+003, 2.336598e-003
2.086601e+003, 1.712555e-003
2.088529e+003, 1.494091e-003
2.090458e+003, 1.442106e-003
2.092386e+003, 1.395668e-003
2.094315e+003, 6.881009e-004
2.096243e+003, 8.844355e-004
2.098172e+003, 1.304580e-003
2.100100e+003, 1.252354e-003
2.102029e+003, 1.113290e-003
2.103957e+003, 1.968233e-003
2.105885e+003, 2.000933e-003
2.107814e+003, 1.227438e-003
2.109742e+003, 1.267140e-003
2.111671e+003, 2.094322e-003
2.113599e+003, 1.452053e-003
2.115528e+003, 1.204237e-003
2.117456e+003, 1.005554e-003
2.119385e+003, 8.095317e-004
2.121313e+003, 8.558553e-004
2.123242e+003, 1.728815e-003
2.125170e+003, 2.515414e-003
2.127099e+003, 1.354670e-003
2.129027e+003, -8.045130e-004
2.130956e+003, -9.485320e-004
2.132884e+003, 2.594665e-006
2.134813e+003, 8.651218e-004
2.136741e+003, 6.963584e-004
2.138669e+003, 5.357662e-004
2.140598e+003, 9.138579e-005
2.142526e+003, 2.564215e-004
2.144455e+003, 7.388555e-005
2.146383e+003, 8.405561e-004
2.148312e+003, 2.222331e-003
2.150240e+003, 1.453625e-003
2.152169e+003, 1.151217e-003
2.154097e+003, 2.221281e-003
2.156026e+003, 1.311014e-003
2.157954e+003, 9.894492e-004
2.159883e+003, 3.219747e-003
2.161811e+003, 5.250133e-003
2.163740e+003, 4.035626e-003
2.165668e+003, 4.288299e-003
2.167596e+003, 4.292185e-003
2.169525e+003, 2.710843e-003
2.171453e+003, 2.646454e-003
2.173382e+003, 3.357466e-003
2.175310e+003, 1.739369e-003
2.177239e+003, 1.582416e-003
2.179167e+003, 2.675735e-003
2.181096e+003, 3.235343e-003
2.183024e+003, 2.207590e-003
2.184953e+003, 2.635651e-003
2.186881e+003, 3.582941e-003
2.188810e+003, 2.917895e-003
2.190738e+003, 2.242726e-003
2.192667e+003, 3.510835e-003
2.194595e+003, 3.571539e-003
2.196523e+003, 3.677334e-003
2.198452e+003, 3.735315e-003
2.200380e+003, 3.324799e-003
2.202309e+003, 2.182672e-003
2.204237e+003, 2.801219e-003
2.206166e+003, 4.063604e-003
2.208094e+003, 4.763718e-003
2.210023e+003, 4.133192e-003
2.211951e+003, 2.573292e-003
2.213880e+003, 1.846756e-003
2.215808e+003, 2.870937e-003
2.217737e+003, 2.884556e-003
2.219665e+003, 3.393003e-003
2.221594e+003, 4.740263e-003
2.223522e+003, 4.769780e-003
2.225450e+003, 3.075600e-003
2.227379e+003, 2.745497e-003
2.229307e+003, 2.542436e-003
2.231236e+003, 3.386152e-003
2.233164e+003, 4.204140e-003
2.235093e+003, 4.751174e-003
2.237021e+003, 4.497019e-003
2.238950e+003, 3.686202e-003
2.240878e+003, 3.401252e-003
2.242807e+003, 4.156659e-003
2.244735e+003, 4.291080e-003
2.246664e+003, 4.017381e-003
2.248592e+003, 3.548007e-003
2.250521e+003, 3.849495e-003
2.252449e+003, 3.564012e-003
2.254377e+003, 3.924819e-003
2.256306e+003, 3.948703e-003
2.258234e+003, 3.843158e-003
2.260163e+003, 3.934977e-003
2.262091e+003, 4.210223e-003
2.264020e+003, 4.290104e-003
2.265948e+003, 4.358472e-003
2.267877e+003, 4.005334e-003
2.269805e+003, 4.479168e-003
2.271734e+003, 4.477879e-003
2.273662e+003, 4.160366e-003
2.275591e+003, 3.997480e-003
2.277519e+003, 4.326649e-003
2.279448e+003, 4.516315e-003
2.281376e+003, 4.851415e-003
2.283304e+003, 5.034745e-003
2.285233e+003, 4.993609e-003
2.287161e+003, 4.865443e-003
2.289090e+003, 5.152403e-003
2.291018e+003, 4.955755e-003
2.292947e+003, 4.927504e-003
2.294875e+003, 4.620305e-003
2.296804e+003, 4.082211e-003
2.298732e+003, 3.724734e-003
2.300661e+003, 4.250192e-003
2.302589e+003, 4.652594e-003
2.304518e+003, 4.642021e-003
2.306446e+003, 4.275150e-003
2.308375e+003, 4.226595e-003
2.310303e+003, 4.100016e-003
2.312231e+003, 3.940634e-003
2.314160e+003, 4.129880e-003
2.316088e+003, 4.886347e-003
2.318017e+003, 4.884350e-003
2.319945e+003, 5.368206e-003
2.321874e+003, 5.621803e-003
2.323802e+003, 5.685485e-003
2.325731e+003, 4.941935e-003
2.327659e+003, 4.417573e-003
2.329588e+003, 4.195611e-003
2.331516e+003, 4.072588e-003
2.333445e+003, 4.027553e-003
2.335373e+003, 4.710006e-003
2.337302e+003, 5.024893e-003
2.339230e+003, 4.571347e-003
2.341158e+003, 4.212393e-003
2.343087e+003, 4.281274e-003
2.345015e+003, 3.787844e-003
2.346944e+003, 3.632589e-003
2.348872e+003, 3.490263e-003
2.350801e+003, 3.378005e-003
2.352729e+003, 3.675473e-003
2.354658e+003, 4.284093e-003
2.356586e+003, 4.710395e-003
2.358515e+003, 4.775384e-003
2.360443e+003, 4.474485e-003
2.362372e+003, 4.360571e-003
2.364300e+003, 4.340545e-003
2.366229e+003, 4.310155e-003
2.368157e+003, 3.749271e-003
2.370085e+003, 3.411127e-003
2.372014e+003, 3.458037e-003
2.373942e+003, 3.298432e-003
2.375871e+003, 2.852035e-003
2.377799e+003, 2.385873e-003
2.379728e+003, 2.136359e-003
2.381656e+003, 2.355723e-003
2.383585e+003, 2.630629e-003
2.385513e+003, 2.855793e-003
2.387442e+003, 2.320601e-003
2.389370e+003, 2.219337e-003
2.391299e+003, 2.592856e-003
2.393227e+003, 2.694827e-003
2.395156e+003, 2.913123e-003
2.397084e+003, 3.065183e-003
2.399012e+003, 2.949481e-003
2.400941e+003, 2.860335e-003
2.402869e+003, 2.296621e-003
2.404798e+003, 2.261154e-003
2.406726e+003, 2.391172e-003
2.408655e+003, 2.593216e-003
2.410583e+003, 2.865269e-003
2.412512e+003, 2.850024e-003
2.414440e+003, 2.824042e-003
2.416369e+003, 3.079966e-003
2.418297e+003, 2.871653e-003
2.420226e+003, 2.269747e-003
2.422154e+003, 1.903103e-003
2.424083e+003, 2.261311e-003
2.426011e+003, 2.530625e-003
2.427939e+003, 2.658227e-003
2.429868e+003, 2.675124e-003
2.431796e+003, 2.815672e-003
2.433725e+003, 2.425448e-003
2.435653e+003, 2.573815e-003
2.437582e+003, 2.992689e-003
2.439510e+003, 3.187138e-003
2.441439e+003, 3.048197e-003
2.443367e+003, 3.015490e-003
2.445296e+003, 2.669637e-003
2.447224e+003, 2.765755e-003
2.449153e+003, 3.138549e-003
2.451081e+003, 3.620504e-003
2.453010e+003, 3.244811e-003
2.454938e+003, 2.829421e-003
2.456866e+003, 2.666498e-003
2.458795e+003, 2.578054e-003
2.460723e+003, 2.394691e-003
2.462652e+003, 2.479706e-003
2.464580e+003, 2.632865e-003
2.466509e+003, 2.662575e-003
2.468437e+003, 2.152617e-003
2.470366e+003, 2.416247e-003
2.472294e+003, 3.577131e-003
2.474223e+003, 3.788573e-003
2.476151e+003, 3.429696e-003
2.478080e+003, 3.169347e-003
2.480008e+003, 2.626010e-003
2.481937e+003, 2.281914e-003
2.483865e+003, 1.949932e-003
2.485793e+003, 2.935541e-003
2.487722e+003, 3.517973e-003
2.489650e+003, 3.650855e-003
2.491579e+003, 3.671277e-003
2.493507e+003, 3.404111e-003
2.495436e+003, 2.847480e-003
2.497364e+003, 2.961729e-003
2.499293e+003, 3.081967e-003
2.501221e+003, 3.267076e-003
2.503150e+003, 3.148441e-003
2.505078e+003, 3.044024e-003
2.507007e+003, 2.773812e-003
2.508935e+003, 2.868576e-003
2.510864e+003, 2.599184e-003
2.512792e+003, 2.483968e-003
2.514720e+003, 2.547641e-003
2.516649e+003, 2.998792e-003
2.518577e+003, 2.984315e-003
2.520506e+003, 3.102880e-003
2.522434e+003, 2.921084e-003
2.524363e+003, 2.995318e-003
2.526291e+003, 3.055305e-003
2.528220e+003, 3.213599e-003
2.530148e+003, 3.103176e-003
2.532077e+003, 3.402950e-003
2.534005e+003, 3.404323e-003
2.535934e+003, 3.550410e-003
2.537862e+003, 3.369520e-003
2.539791e+003, 2.734517e-003
2.541719e+003, 2.870542e-003
2.543647e+003, 3.516738e-003
2.545576e+003, 3.233075e-003
2.547504e+003, 3.301770e-003
2.549433e+003, 3.525541e-003
2.551361e+003, 3.899587e-003
2.553290e+003, 3.852059e-003
2.555218e+003, 3.729880e-003
2.557147e+003, 3.441605e-003
2.559075e+003, 3.270326e-003
2.561004e+003, 3.145272e-003
2.562932e+003, 3.515538e-003
2.564861e+003, 3.665210e-003
2.566789e+003, 3.541737e-003
2.568718e+003, 3.429271e-003
2.570646e+003, 4.110792e-003
2.572574e+003, 4.310451e-003
2.574503e+003, 4.047269e-003
2.576431e+003, 3.711383e-003
2.578360e+003, 3.975147e-003
2.580288e+003, 3.507404e-003
2.582217e+003, 3.390781e-003
2.584145e+003, 3.832285e-003
2.586074e+003, 4.302750e-003
2.588002e+003, 4.521049e-003
2.589931e+003, 3.833514e-003
2.591859e+003, 3.198769e-003
2.593788e+003, 3.716347e-003
2.595716e+003, 3.850496e-003
2.597645e+003, 4.048074e-003
2.599573e+003, 4.223331e-003
2.601501e+003, 4.067320e-003
2.603430e+003, 3.947719e-003
2.605358e+003, 3.875588e-003
2.607287e+003, 3.672641e-003
2.609215e+003, 3.540457e-003
2.611144e+003, 3.698740e-003
2.613072e+003, 4.080128e-003
2.615001e+003, 4.139702e-003
2.616929e+003, 4.131926e-003
2.618858e+003, 4.291873e-003
2.620786e+003, 4.283221e-003
2.622715e+003, 4.334483e-003
2.624643e+003, 4.728943e-003
2.626572e+003, 4.671034e-003
2.628500e+003, 4.449619e-003
2.630428e+003, 4.154081e-003
2.632357e+003, 4.150786e-003
2.634285e+003, 4.380774e-003
2.636214e+003, 4.183082e-003
2.638142e+003, 4.182858e-003
2.640071e+003, 4.570830e-003
2.641999e+003, 4.654638e-003
2.643928e+003, 4.613835e-003
2.645856e+003, 4.269269e-003
2.647785e+003, 4.208768e-003
2.649713e+003, 4.316834e-003
2.651642e+003, 4.466770e-003
2.653570e+003, 4.190486e-003
2.655499e+003, 4.007793e-003
2.657427e+003, 4.183237e-003
2.659355e+003, 4.256983e-003
2.661284e+003, 3.817066e-003
2.663212e+003, 3.339878e-003
2.665141e+003, 3.437634e-003
2.667069e+003, 3.755122e-003
2.668998e+003, 4.037558e-003
2.670926e+003, 4.030224e-003
2.672855e+003, 3.859638e-003
2.674783e+003, 3.857575e-003
2.676712e+003, 3.722759e-003
2.678640e+003, 3.789681e-003
2.680569e+003, 3.925058e-003
2.682497e+003, 3.869603e-003
2.684426e+003, 3.314020e-003
2.686354e+003, 3.255757e-003
2.688282e+003, 3.519347e-003
2.690211e+003, 3.905442e-003
2.692139e+003, 4.108420e-003
2.694068e+003, 4.096813e-003
2.695996e+003, 3.932891e-003
2.697925e+003, 3.835755e-003
2.699853e+003, 3.804535e-003
2.701782e+003, 3.645561e-003
2.703710e+003, 3.320807e-003
2.705639e+003, 3.552578e-003
2.707567e+003, 3.664046e-003
2.709496e+003, 3.790892e-003
2.711424e+003, 3.779673e-003
2.713353e+003, 3.632165e-003
2.715281e+003, 3.512345e-003
2.717209e+003, 3.558057e-003
2.719138e+003, 3.918078e-003
2.721066e+003, 4.089263e-003
2.722995e+003, 4.092207e-003
2.724923e+003, 4.148340e-003
2.726852e+003, 3.846540e-003
2.728780e+003, 3.632815e-003
2.730709e+003, 3.611114e-003
2.732637e+003, 3.869660e-003
2.734566e+003, 4.317761e-003
2.736494e+003, 4.646673e-003
2.738423e+003, 4.733260e-003
2.740351e+003, 4.156291e-003
2.742280e+003, 3.918127e-003
2.744208e+003, 4.181136e-003
2.746136e+003, 4.299448e-003
2.748065e+003, 4.352783e-003
2.749993e+003, 4.038964e-003
2.751922e+003, 4.242411e-003
2.753850e+003, 4.453493e-003
2.755779e+003, 4.237830e-003
2.757707e+003, 3.894382e-003
2.759636e+003, 4.258545e-003
2.761564e+003, 4.493549e-003
2.763493e+003, 4.388840e-003
2.765421e+003, 4.411831e-003
2.767350e+003, 4.594793e-003
2.769278e+003, 4.450688e-003
2.771207e+003, 4.358555e-003
2.773135e+003, 4.579101e-003
2.775063e+003, 4.859726e-003
2.776992e+003, 4.632678e-003
2.778920e+003, 4.280800e-003
2.780849e+003, 4.368983e-003
2.782777e+003, 4.964077e-003
2.784706e+003, 4.729867e-003
2.786634e+003, 4.768508e-003
2.788563e+003, 5.012969e-003
2.790491e+003, 5.018442e-003
2.792420e+003, 4.924326e-003
2.794348e+003, 5.143468e-003
2.796277e+003, 5.194156e-003
2.798205e+003, 5.317161e-003
2.800134e+003, 5.168349e-003
2.802062e+003, 4.970032e-003
2.803990e+003, 4.745534e-003
2.805919e+003, 4.704709e-003
2.807847e+003, 4.826513e-003
2.809776e+003, 5.271407e-003
2.811704e+003, 5.382116e-003
2.813633e+003, 5.458436e-003
2.815561e+003, 5.417257e-003
2.817490e+003, 5.355391e-003
2.819418e+003, 5.215943e-003
2.821347e+003, 4.715438e-003
2.823275e+003, 4.573081e-003
2.825204e+003, 5.243171e-003
2.827132e+003, 5.332034e-003
2.829061e+003, 5.586648e-003
2.830989e+003, 5.630460e-003
2.832917e+003, 5.936417e-003
2.834846e+003, 5.694008e-003
2.836774e+003, 5.696996e-003
2.838703e+003, 5.636581e-003
2.840631e+003, 5.841492e-003
2.842560e+003, 5.930979e-003
2.844488e+003, 6.102024e-003
2.846417e+003, 6.063949e-003
2.848345e+003, 6.138293e-003
2.850274e+003, 6.019417e-003
2.852202e+003, 5.513511e-003
2.854131e+003, 5.179367e-003
2.856059e+003, 5.643132e-003
2.857988e+003, 5.804248e-003
2.859916e+003, 5.866299e-003
2.861844e+003, 5.943668e-003
2.863773e+003, 6.223872e-003
2.865701e+003, 6.225443e-003
2.867630e+003, 5.986702e-003
2.869558e+003, 6.137922e-003
2.871487e+003, 6.345865e-003
2.873415e+003, 6.170491e-003
2.875344e+003, 5.863371e-003
2.877272e+003, 5.729925e-003
2.879201e+003, 6.147994e-003
2.881129e+003, 6.337719e-003
2.883058e+003, 6.266559e-003
2.884986e+003, 6.316150e-003
2.886915e+003, 6.457531e-003
2.888843e+003, 6.446600e-003
2.890771e+003, 6.877052e-003
2.892700e+003, 6.480659e-003
2.894628e+003, 6.225845e-003
2.896557e+003, 6.512874e-003
2.898485e+003, 6.705618e-003
2.900414e+003, 6.671399e-003
2.902342e+003, 6.574482e-003
2.904271e+003, 6.582298e-003
2.906199e+003, 6.581689e-003
2.908128e+003, 6.931471e-003
2.910056e+003, 7.315166e-003
2.911985e+003, 6.587406e-003
2.913913e+003, 6.256561e-003
2.915842e+003, 6.662094e-003
2.917770e+003, 6.993059e-003
2.919698e+003, 6.790071e-003
2.921627e+003, 7.315890e-003
2.923555e+003, 7.355467e-003
2.925484e+003, 6.714639e-003
2.927412e+003, 6.351378e-003
2.929341e+003, 6.830750e-003
2.931269e+003, 7.050344e-003
2.933198e+003, 7.200267e-003
2.935126e+003, 6.762198e-003
2.937055e+003, 6.806612e-003
2.938983e+003, 7.213485e-003
2.940912e+003, 7.509163e-003
2.942840e+003, 7.335255e-003
2.944769e+003, 7.062542e-003
2.946697e+003, 7.071936e-003
2.948625e+003, 7.377570e-003
2.950554e+003, 7.303301e-003
2.952482e+003, 7.769055e-003
2.954411e+003, 7.903806e-003
2.956339e+003, 7.629342e-003
2.958268e+003, 7.540519e-003
2.960196e+003, 7.804693e-003
2.962125e+003, 7.616026e-003
2.964053e+003, 7.990676e-003
2.965982e+003, 8.520736e-003
2.967910e+003, 9.132993e-003
2.969839e+003, 9.256622e-003
2.971767e+003, 9.190799e-003
2.973696e+003, 8.844592e-003
2.975624e+003, 8.920282e-003
2.977552e+003, 9.254280e-003
2.979481e+003, 9.979215e-003
2.981409e+003, 9.934274e-003
2.983338e+003, 8.954206e-003
2.985266e+003, 8.751418e-003
2.987195e+003, 9.463913e-003
2.989123e+003, 9.945354e-003
2.991052e+003, 1.048523e-002
2.992980e+003, 1.116114e-002
2.994909e+003, 1.111355e-002
2.996837e+003, 1.056146e-002
2.998766e+003, 1.084732e-002
3.000694e+003, 1.131019e-002
3.002623e+003, 1.153652e-002
3.004551e+003, 1.128771e-002
3.006479e+003, 1.094991e-002
3.008408e+003, 1.043149e-002
3.010336e+003, 1.061994e-002
3.012265e+003, 1.036733e-002
3.014193e+003, 9.738383e-003
3.016122e+003, 9.728481e-003
3.018050e+003, 1.056414e-002
3.019979e+003, 1.128492e-002
3.021907e+003, 1.197497e-002
3.023836e+003, 1.240335e-002
3.025764e+003, 1.237794e-002
3.027693e+003, 1.215714e-002
3.029621e+003, 1.251565e-002
3.031550e+003, 1.307909e-002
3.033478e+003, 1.315712e-002
3.035406e+003, 1.326053e-002
3.037335e+003, 1.325336e-002
3.039263e+003, 1.309799e-002
3.041192e+003, 1.330920e-002
3.043120e+003, 1.376257e-002
3.045049e+003, 1.402707e-002
3.046977e+003, 1.427041e-002
3.048906e+003, 1.479418e-002
3.050834e+003, 1.477088e-002
3.052763e+003, 1.449281e-002
3.054691e+003, 1.475980e-002
3.056620e+003, 1.514376e-002
3.058548e+003, 1.544482e-002
3.060477e+003, 1.537451e-002
3.062405e+003, 1.519499e-002
3.064333e+003, 1.570815e-002
3.066262e+003, 1.576488e-002
3.068190e+003, 1.589749e-002
3.070119e+003, 1.657253e-002
3.072047e+003, 1.718337e-002
3.073976e+003, 1.664825e-002
3.075904e+003, 1.610287e-002
3.077833e+003, 1.600693e-002
3.079761e+003, 1.590054e-002
3.081690e+003, 1.678231e-002
3.083618e+003, 1.778295e-002
3.085547e+003, 1.764775e-002
3.087475e+003, 1.802273e-002
3.089404e+003, 1.816893e-002
3.091332e+003, 1.818014e-002
3.093260e+003, 1.786840e-002
3.095189e+003, 1.755830e-002
3.097117e+003, 1.759582e-002
3.099046e+003, 1.770027e-002
3.100974e+003, 1.845581e-002
3.102903e+003, 1.922114e-002
3.104831e+003, 1.929128e-002
3.106760e+003, 2.020207e-002
3.108688e+003, 2.008075e-002
3.110617e+003, 1.943094e-002
3.112545e+003, 1.901469e-002
3.114474e+003, 1.962562e-002
3.116402e+003, 2.030379e-002
3.118331e+003, 2.075176e-002
3.120259e+003, 2.074997e-002
3.122188e+003, 2.077841e-002
3.124116e+003, 2.075863e-002
3.126044e+003, 2.070683e-002
3.127973e+003, 2.043631e-002
3.129901e+003, 2.121244e-002
3.131830e+003, 2.225247e-002
3.133758e+003, 2.272459e-002
3.135687e+003, 2.266860e-002
3.137615e+003, 2.227086e-002
3.139544e+003, 2.151992e-002
3.141472e+003, 2.194906e-002
3.143401e+003, 2.254760e-002
3.145329e+003, 2.302969e-002
3.147258e+003, 2.391898e-002
3.149186e+003, 2.445061e-002
3.151115e+003, 2.460288e-002
3.153043e+003, 2.466704e-002
3.154971e+003, 2.443232e-002
3.156900e+003, 2.473889e-002
3.158828e+003, 2.539556e-002
3.160757e+003, 2.548859e-002
3.162685e+003, 2.556507e-002
3.164614e+003, 2.563681e-002
3.166542e+003, 2.575021e-002
3.168471e+003, 2.654759e-002
3.170399e+003, 2.712798e-002
3.172328e+003, 2.699417e-002
3.174256e+003, 2.614976e-002
3.176185e+003, 2.709335e-002
3.178113e+003, 2.833316e-002
3.180042e+003, 2.863267e-002
3.181970e+003, 2.789641e-002
3.183898e+003, 2.822441e-002
3.185827e+003, 2.913941e-002
3.187755e+003, 2.913187e-002
3.189684e+003, 2.864346e-002
3.191612e+003, 2.882248e-002
3.193541e+003, 2.870373e-002
3.195469e+003, 2.879163e-002
3.197398e+003, 2.883611e-002
3.199326e+003, 2.982939e-002
3.201255e+003, 3.120891e-002
3.203183e+003, 3.172142e-002
3.205112e+003, 3.098962e-002
3.207040e+003, 3.108798e-002
3.208969e+003, 3.142611e-002
3.210897e+003, 3.136672e-002
3.212825e+003, 3.154036e-002
3.214754e+003, 3.205780e-002
3.216682e+003, 3.302490e-002
3.218611e+003, 3.383775e-002
3.220539e+003, 3.409645e-002
3.222468e+003, 3.417373e-002
3.224396e+003, 3.455776e-002
3.226325e+003, 3.471832e-002
3.228253e+003, 3.428539e-002
3.230182e+003, 3.358611e-002
3.232110e+003, 3.336934e-002
3.234039e+003, 3.446303e-002
3.235967e+003, 3.601900e-002
3.237896e+003, 3.698325e-002
3.239824e+003, 3.699324e-002
3.241752e+003, 3.708524e-002
3.243681e+003, 3.715175e-002
3.245609e+003, 3.734871e-002
3.247538e+003, 3.755805e-002
3.249466e+003, 3.792136e-002
3.251395e+003, 3.834725e-002
3.253323e+003, 3.924581e-002
3.255252e+003, 3.888894e-002
3.257180e+003, 3.856166e-002
3.259109e+003, 3.857237e-002
3.261037e+003, 3.864279e-002
3.262966e+003, 3.847264e-002
3.264894e+003, 3.840786e-002
3.266823e+003, 3.919320e-002
3.268751e+003, 3.949368e-002
3.270679e+003, 3.942892e-002
3.272608e+003, 3.945158e-002
3.274536e+003, 3.915378e-002
3.276465e+003, 3.931508e-002
3.278393e+003, 3.956980e-002
3.280322e+003, 3.962858e-002
3.282250e+003, 3.967488e-002
3.284179e+003, 3.949678e-002
3.286107e+003, 3.922702e-002
3.288036e+003, 3.872973e-002
3.289964e+003, 3.872688e-002
3.291893e+003, 3.891037e-002
3.293821e+003, 3.808288e-002
3.295750e+003, 3.753219e-002
3.297678e+003, 3.782906e-002
3.299606e+003, 3.804210e-002
3.301535e+003, 3.742661e-002
3.303463e+003, 3.734553e-002
3.305392e+003, 3.740428e-002
3.307320e+003, 3.703336e-002
3.309249e+003, 3.695051e-002
3.311177e+003, 3.639061e-002
3.313106e+003, 3.604702e-002
3.315034e+003, 3.653094e-002
3.316963e+003, 3.649298e-002
3.318891e+003, 3.572125e-002
3.320820e+003, 3.587430e-002
3.322748e+003, 3.665771e-002
3.324677e+003, 3.602443e-002
3.326605e+003, 3.542388e-002
3.328533e+003, 3.567203e-002
3.330462e+003, 3.539614e-002
3.332390e+003, 3.508850e-002
3.334319e+003, 3.525978e-002
3.336247e+003, 3.500107e-002
3.338176e+003, 3.592837e-002
3.340104e+003, 3.643541e-002
3.342033e+003, 3.648378e-002
3.343961e+003, 3.671217e-002
3.345890e+003, 3.683564e-002
3.347818e+003, 3.654082e-002
3.349747e+003, 3.637223e-002
3.351675e+003, 3.582142e-002
3.353604e+003, 3.527382e-002
3.355532e+003, 3.536641e-002
3.357460e+003, 3.638275e-002
3.359389e+003, 3.652013e-002
3.361317e+003, 3.610582e-002
3.363246e+003, 3.503466e-002
3.365174e+003, 3.488731e-002
3.367103e+003, 3.531774e-002
3.369031e+003, 3.515292e-002
3.370960e+003, 3.451761e-002
3.372888e+003, 3.456547e-002
3.374817e+003, 3.550255e-002
3.376745e+003, 3.597312e-002
3.378674e+003, 3.564331e-002
3.380602e+003, 3.532945e-002
3.382531e+003, 3.501473e-002
3.384459e+003, 3.441773e-002
3.386387e+003, 3.362478e-002
3.388316e+003, 3.307784e-002
3.390244e+003, 3.364795e-002
3.392173e+003, 3.413458e-002
3.394101e+003, 3.385369e-002
3.396030e+003, 3.308685e-002
3.397958e+003, 3.294741e-002
3.399887e+003, 3.337772e-002
3.401815e+003, 3.283619e-002
3.403744e+003, 3.187551e-002
3.405672e+003, 3.185641e-002
3.407601e+003, 3.236906e-002
3.409529e+003, 3.206223e-002
3.411458e+003, 3.160879e-002
3.413386e+003, 3.157556e-002
3.415314e+003, 3.217182e-002
3.417243e+003, 3.199545e-002
3.419171e+003, 3.140877e-002
3.421100e+003, 2.985597e-002
3.423028e+003, 2.888671e-002
3.424957e+003, 2.914120e-002
3.426885e+003, 2.960877e-002
3.428814e+003, 2.929063e-002
3.430742e+003, 2.902063e-002
3.432671e+003, 2.842575e-002
3.434599e+003, 2.835074e-002
3.436528e+003, 2.943572e-002
3.438456e+003, 2.940746e-002
3.440385e+003, 2.833393e-002
3.442313e+003, 2.784597e-002
3.444241e+003, 2.739143e-002
3.446170e+003, 2.787374e-002
3.448098e+003, 2.774998e-002
3.450027e+003, 2.768268e-002
3.451955e+003, 2.746348e-002
3.453884e+003, 2.713757e-002
3.455812e+003, 2.642206e-002
3.457741e+003, 2.603780e-002
3.459669e+003, 2.674936e-002
3.461598e+003, 2.737475e-002
3.463526e+003, 2.633223e-002
3.465455e+003, 2.550133e-002
3.467383e+003, 2.506720e-002
3.469312e+003, 2.511442e-002
3.471240e+003, 2.484467e-002
3.473168e+003, 2.473631e-002
3.475097e+003, 2.449627e-002
3.477025e+003, 2.472284e-002
3.478954e+003, 2.468461e-002
3.480882e+003, 2.449218e-002
3.482811e+003, 2.424854e-002
3.484739e+003, 2.429221e-002
3.486668e+003, 2.406651e-002
3.488596e+003, 2.390140e-002
3.490525e+003, 2.387828e-002
3.492453e+003, 2.386675e-002
3.494382e+003, 2.242226e-002
3.496310e+003, 2.203763e-002
3.498239e+003, 2.209362e-002
3.500167e+003, 2.201387e-002
3.502095e+003, 2.171813e-002
3.504024e+003, 2.158356e-002
3.505952e+003, 2.058198e-002
3.507881e+003, 2.016109e-002
3.509809e+003, 2.033843e-002
3.511738e+003, 2.050960e-002
3.513666e+003, 2.088643e-002
3.515595e+003, 2.075769e-002
3.517523e+003, 1.962573e-002
3.519452e+003, 1.912012e-002
3.521380e+003, 1.912089e-002
3.523309e+003, 2.025448e-002
3.525237e+003, 2.096556e-002
3.527166e+003, 2.049487e-002
3.529094e+003, 2.067764e-002
3.531022e+003, 1.977869e-002
3.532951e+003, 1.836599e-002
3.534879e+003, 1.772372e-002
3.536808e+003, 1.706880e-002
3.538736e+003, 1.707025e-002
3.540665e+003, 1.728156e-002
3.542593e+003, 1.676706e-002
3.544522e+003, 1.724201e-002
3.546450e+003, 1.823962e-002
3.548379e+003, 1.759865e-002
3.550307e+003, 1.722081e-002
3.552236e+003, 1.659505e-002
3.554164e+003, 1.531946e-002
3.556093e+003, 1.379825e-002
3.558021e+003, 1.428396e-002
3.559949e+003, 1.465314e-002
3.561878e+003, 1.425721e-002
3.563806e+003, 1.370714e-002
3.565735e+003, 1.188999e-002
3.567663e+003, 1.116076e-002
3.569592e+003, 1.205058e-002
3.571520e+003, 1.244495e-002
3.573449e+003, 1.168951e-002
3.575377e+003, 1.105268e-002
3.577306e+003, 1.081498e-002
3.579234e+003, 9.802576e-003
3.581163e+003, 8.734728e-003
3.583091e+003, 8.462558e-003
3.585020e+003, 8.528831e-003
3.586948e+003, 8.318416e-003
3.588876e+003, 7.719613e-003
3.590805e+003, 7.268243e-003
3.592733e+003, 8.202496e-003
3.594662e+003, 8.005966e-003
3.596590e+003, 7.275193e-003
3.598519e+003, 6.433477e-003
3.600447e+003, 6.853328e-003
3.602376e+003, 5.757422e-003
3.604304e+003, 4.286478e-003
3.606233e+003, 4.418030e-003
3.608161e+003, 5.363449e-003
3.610090e+003, 4.869102e-003
3.612018e+003, 3.850131e-003
3.613947e+003, 3.271638e-003
3.615875e+003, 2.842171e-003
3.617803e+003, 2.154618e-003
3.619732e+003, 1.592574e-003
3.621660e+003, 1.423186e-003
3.623589e+003, 2.536262e-003
3.625517e+003, 2.931683e-003
3.627446e+003, 1.836373e-003
3.629374e+003, 9.346223e-004
3.631303e+003, 5.693827e-004
3.633231e+003, 2.942688e-004
3.635160e+003, 1.088235e-003
3.637088e+003, -4.353800e-005
3.639017e+003, -1.022919e-003
3.640945e+003, -1.459409e-004
3.642874e+003, 4.536583e-004
3.644802e+003, -3.909077e-004
3.646730e+003, -9.387519e-004
3.648659e+003, -7.892077e-004
3.650587e+003, -1.586646e-003
3.652516e+003, -2.971936e-003
3.654444e+003, -2.523280e-003
3.656373e+003, -2.193909e-003
3.658301e+003, -2.946252e-003
3.660230e+003, -2.328894e-003
3.662158e+003, -1.483729e-003
3.664087e+003, -2.500391e-003
3.666015e+003, -3.049087e-003
3.667944e+003, -2.247641e-003
3.669872e+003, -1.349081e-003
3.671801e+003, -1.673499e-003
3.673729e+003, -1.468034e-003
3.675657e+003, -5.956986e-004
3.677586e+003, -7.924993e-004
3.679514e+003, -2.045244e-003
3.681443e+003, -2.734870e-003
3.683371e+003, -2.624969e-003
3.685300e+003, -2.757301e-003
3.687228e+003, -2.356981e-003
3.689157e+003, -2.095563e-003
3.691085e+003, -2.705189e-003
3.693014e+003, -2.950313e-003
3.694942e+003, -2.767720e-003
3.696871e+003, -2.403044e-003
3.698799e+003, -2.025051e-003
3.700728e+003, -1.653922e-003
3.702656e+003, -1.673079e-003
3.704584e+003, -1.490406e-003
3.706513e+003, -2.370710e-003
3.708441e+003, -2.190865e-003
3.710370e+003, -2.513658e-003
3.712298e+003, -3.001009e-003
3.714227e+003, -3.411958e-003
3.716155e+003, -3.849646e-003
3.718084e+003, -3.782107e-003
3.720012e+003, -3.524364e-003
3.721941e+003, -3.131301e-003
3.723869e+003, -2.440833e-003
3.725798e+003, -2.146273e-003
3.727726e+003, -3.352332e-003
3.729655e+003, -3.628468e-003
3.731583e+003, -2.629947e-003
3.733511e+003, -2.817945e-003
3.735440e+003, -2.580456e-003
3.737368e+003, -2.368787e-003
3.739297e+003, -2.403333e-003
3.741225e+003, -2.867221e-003
3.743154e+003, -2.276225e-003
3.745082e+003, -1.681790e-003
3.747011e+003, -2.213807e-003
3.748939e+003, -2.624781e-003
3.750868e+003, -3.051829e-003
3.752796e+003, -3.190569e-003
3.754725e+003, -3.826973e-003
3.756653e+003, -2.968683e-003
3.758582e+003, -2.316243e-003
3.760510e+003, -1.984234e-003
3.762438e+003, -1.390754e-003
3.764367e+003, -2.216659e-003
3.766295e+003, -3.376661e-003
3.768224e+003, -3.004836e-003
3.770152e+003, -1.242720e-003
3.772081e+003, -1.588292e-003
3.774009e+003, -1.935152e-003
3.775938e+003, -2.128229e-003
3.777866e+003, -1.909560e-003
3.779795e+003, -1.847150e-003
3.781723e+003, -2.338058e-003
3.783652e+003, -2.508284e-003
3.785580e+003, -2.254201e-003
3.787509e+003, -2.669651e-003
3.789437e+003, -2.347969e-003
3.791365e+003, -1.837430e-003
3.793294e+003, -9.794416e-004
3.795222e+003, -1.527570e-003
3.797151e+003, -2.206130e-003
3.799079e+003, -2.318277e-003
3.801008e+003, -2.048694e-003
3.802936e+003, -3.130581e-003
3.804865e+003, -2.996418e-003
3.806793e+003, -2.467826e-003
3.808722e+003, -2.290159e-003
3.810650e+003, -1.263426e-003
3.812579e+003, -1.954168e-003
3.814507e+003, -3.753517e-003
3.816436e+003, -3.848044e-003
3.818364e+003, -3.724030e-003
3.820292e+003, -3.427350e-003
3.822221e+003, -3.413560e-003
3.824149e+003, -3.398370e-003
3.826078e+003, -3.209441e-003
3.828006e+003, -2.480241e-003
3.829935e+003, -2.212737e-003
3.831863e+003, -2.651896e-003
3.833792e+003, -2.759285e-003
3.835720e+003, -3.591312e-003
3.837649e+003, -2.690896e-003
3.839577e+003, -1.929243e-003
3.841506e+003, -2.562502e-003
3.843434e+003, -2.716768e-003
3.845363e+003, -3.562587e-003
3.847291e+003, -2.930924e-003
3.849219e+003, -2.692915e-003
3.851148e+003, -2.053475e-003
3.853076e+003, -1.039738e-003
3.855005e+003, -2.204581e-003
3.856933e+003, -2.479442e-003
3.858862e+003, -2.267741e-003
3.860790e+003, -2.675730e-003
3.862719e+003, -2.394788e-003
3.864647e+003, -2.744672e-003
3.866576e+003, -3.165411e-003
3.868504e+003, -2.782135e-003
3.870433e+003, -3.074913e-003
3.872361e+003, -4.023300e-003
3.874290e+003, -2.648966e-003
3.876218e+003, -2.387404e-003
3.878146e+003, -2.943751e-003
3.880075e+003, -3.259373e-003
3.882003e+003, -2.823320e-003
3.883932e+003, -1.628340e-003
3.885860e+003, -1.326727e-003
3.887789e+003, -1.728822e-003
3.889717e+003, -1.811964e-003
3.891646e+003, -1.942203e-003
3.893574e+003, -2.485988e-003
3.895503e+003, -2.618184e-003
3.897431e+003, -2.924792e-003
3.899360e+003, -2.590884e-003
3.901288e+003, -2.132117e-003
3.903217e+003, -2.236773e-003
3.905145e+003, -2.768535e-003
3.907073e+003, -2.612486e-003
3.909002e+003, -1.676210e-003
3.910930e+003, -1.880932e-003
3.912859e+003, -2.477631e-003
3.914787e+003, -2.915823e-003
3.916716e+003, -3.984726e-003
3.918644e+003, -3.337724e-003
3.920573e+003, -3.151115e-003
3.922501e+003, -2.769941e-003
3.924430e+003, -2.300256e-003
3.926358e+003, -2.788280e-003
3.928287e+003, -3.465904e-003
3.930215e+003, -4.401514e-003
3.932144e+003, -3.605335e-003
3.934072e+003, -1.690907e-003
3.936000e+003, -2.016529e-003
3.937929e+003, -2.671899e-003
3.939857e+003, -2.361421e-003
3.941786e+003, -2.463534e-003
3.943714e+003, -2.844805e-003
3.945643e+003, -3.148205e-003
3.947571e+003, -3.014878e-003
3.949500e+003, -3.877941e-003
3.951428e+003, -3.608620e-003
3.953357e+003, -2.696968e-003
3.955285e+003, -2.368910e-003
3.957214e+003, -2.643064e-003
3.959142e+003, -2.193067e-003
3.961071e+003, -1.723368e-003
3.962999e+003, -3.146800e-003
3.964927e+003, -3.879915e-003
3.966856e+003, -2.584190e-003
3.968784e+003, -1.273601e-003
3.970713e+003, -1.243336e-003
3.972641e+003, -2.618340e-003
3.974570e+003, -3.054809e-003
3.976498e+003, -2.613530e-003
3.978427e+003, -2.238976e-003
3.980355e+003, -2.981341e-003
3.982284e+003, -3.999654e-003
3.984212e+003, -3.751986e-003
3.986141e+003, -2.709564e-003
3.988069e+003, -1.955778e-003
3.989998e+003, -2.012328e-003
3.991926e+003, -1.894658e-003
3.993854e+003, -1.965244e-003
3.995783e+003, -2.800081e-003
3.997711e+003, -3.460044e-003
3.999640e+003, -3.130499e-003
4.001568e+003, 0.000000e+000
##END=



