##NAMES=Tincalconite
##RRUFFID=R050660
##IDEAL CHEMISTRY=Na_2_B_4_O_5_(OH)_4_&#183;3H_2_O
##LOCALITY=Boron, Kern County, California, USA
##OWNER=RRUFF
##SOURCE=Marcus Origlieri
##DESCRIPTION=Colorless pseudo-octahedral crystal
##STATUS=The identification of this mineral has been confirmed by X-ray diffraction.
##URL=rruff.info/R050660
3.991926e+002, 6.189251e-002
4.011211e+002, 5.629739e-002
4.030495e+002, 5.681799e-002
4.049780e+002, 6.253161e-002
4.069065e+002, 6.261338e-002
4.088349e+002, 6.390069e-002
4.107634e+002, 7.076238e-002
4.126919e+002, 6.669465e-002
4.146203e+002, 6.320686e-002
4.165488e+002, 6.647464e-002
4.184773e+002, 6.912361e-002
4.204057e+002, 7.163641e-002
4.223342e+002, 7.374519e-002
4.242627e+002, 7.167757e-002
4.261911e+002, 6.816597e-002
4.281196e+002, 7.019907e-002
4.300481e+002, 7.562046e-002
4.319765e+002, 7.934187e-002
4.339050e+002, 8.046579e-002
4.358335e+002, 8.283545e-002
4.377619e+002, 8.568723e-002
4.396904e+002, 8.557497e-002
4.416189e+002, 8.696940e-002
4.435473e+002, 9.058837e-002
4.454758e+002, 9.151159e-002
4.474043e+002, 9.084091e-002
4.493327e+002, 9.499582e-002
4.512612e+002, 9.972923e-002
4.531897e+002, 1.007373e-001
4.551181e+002, 1.029975e-001
4.570466e+002, 1.060747e-001
4.589751e+002, 1.116136e-001
4.609035e+002, 1.149115e-001
4.628320e+002, 1.117313e-001
4.647605e+002, 1.061650e-001
4.666889e+002, 1.008110e-001
4.686174e+002, 9.294615e-002
4.705459e+002, 8.533975e-002
4.724743e+002, 8.054978e-002
4.744028e+002, 7.610040e-002
4.763313e+002, 7.220556e-002
4.782597e+002, 6.961134e-002
4.801882e+002, 6.869577e-002
4.821167e+002, 6.744985e-002
4.840451e+002, 6.554317e-002
4.859736e+002, 6.472359e-002
4.879021e+002, 6.454694e-002
4.898305e+002, 6.239121e-002
4.917590e+002, 6.092041e-002
4.936875e+002, 6.211118e-002
4.956159e+002, 6.248002e-002
4.975444e+002, 6.286570e-002
4.994729e+002, 6.341150e-002
5.014013e+002, 6.221414e-002
5.033298e+002, 6.006408e-002
5.052583e+002, 5.868569e-002
5.071867e+002, 5.789145e-002
5.091152e+002, 5.605457e-002
5.110437e+002, 5.361765e-002
5.129721e+002, 5.314997e-002
5.149006e+002, 5.316898e-002
5.168290e+002, 5.234503e-002
5.187575e+002, 5.249233e-002
5.206860e+002, 5.350017e-002
5.226144e+002, 5.438183e-002
5.245429e+002, 5.428838e-002
5.264714e+002, 5.228522e-002
5.283998e+002, 5.051669e-002
5.303283e+002, 4.992814e-002
5.322568e+002, 4.836465e-002
5.341852e+002, 4.685992e-002
5.361137e+002, 4.576017e-002
5.380422e+002, 4.449689e-002
5.399706e+002, 4.471362e-002
5.418991e+002, 4.435315e-002
5.438276e+002, 4.353270e-002
5.457560e+002, 4.233523e-002
5.476845e+002, 4.176747e-002
5.496130e+002, 4.152870e-002
5.515414e+002, 4.161415e-002
5.534699e+002, 4.168563e-002
5.553984e+002, 4.094626e-002
5.573268e+002, 4.070279e-002
5.592553e+002, 4.151979e-002
5.611838e+002, 4.086205e-002
5.631122e+002, 4.030430e-002
5.650407e+002, 4.074194e-002
5.669692e+002, 4.149132e-002
5.688976e+002, 4.236464e-002
5.708261e+002, 4.371499e-002
5.727546e+002, 4.499137e-002
5.746830e+002, 4.542717e-002
5.766115e+002, 4.449182e-002
5.785400e+002, 4.325846e-002
5.804684e+002, 4.253594e-002
5.823969e+002, 4.328690e-002
5.843254e+002, 4.444254e-002
5.862538e+002, 4.466594e-002
5.881823e+002, 4.512864e-002
5.901108e+002, 4.507310e-002
5.920392e+002, 4.439161e-002
5.939677e+002, 4.520182e-002
5.958962e+002, 4.588038e-002
5.978246e+002, 4.605076e-002
5.997531e+002, 4.722036e-002
6.016816e+002, 4.869370e-002
6.036100e+002, 4.966251e-002
6.055385e+002, 5.018650e-002
6.074670e+002, 5.107760e-002
6.093954e+002, 5.057533e-002
6.113239e+002, 4.847946e-002
6.132524e+002, 4.579229e-002
6.151808e+002, 4.366495e-002
6.171093e+002, 4.272627e-002
6.190378e+002, 4.228970e-002
6.209662e+002, 4.259442e-002
6.228947e+002, 4.360208e-002
6.248232e+002, 4.469033e-002
6.267516e+002, 4.605065e-002
6.286801e+002, 4.800346e-002
6.306086e+002, 5.070851e-002
6.325370e+002, 5.239617e-002
6.344655e+002, 5.338196e-002
6.363940e+002, 5.489839e-002
6.383224e+002, 5.592220e-002
6.402509e+002, 5.658044e-002
6.421794e+002, 5.732280e-002
6.441078e+002, 5.826201e-002
6.460363e+002, 5.892204e-002
6.479648e+002, 5.946992e-002
6.498932e+002, 6.019730e-002
6.518217e+002, 6.109785e-002
6.537502e+002, 6.191110e-002
6.556786e+002, 6.283585e-002
6.576071e+002, 6.365388e-002
6.595356e+002, 6.491566e-002
6.614641e+002, 6.623746e-002
6.633925e+002, 6.799490e-002
6.653210e+002, 7.011552e-002
6.672495e+002, 7.185525e-002
6.691779e+002, 7.375345e-002
6.711064e+002, 7.520279e-002
6.730349e+002, 7.638296e-002
6.749633e+002, 7.730363e-002
6.768918e+002, 7.781199e-002
6.788203e+002, 7.832557e-002
6.807487e+002, 7.899604e-002
6.826772e+002, 7.932032e-002
6.846057e+002, 8.065391e-002
6.865341e+002, 8.334550e-002
6.884626e+002, 8.655005e-002
6.903911e+002, 9.053393e-002
6.923195e+002, 9.557382e-002
6.942480e+002, 1.009717e-001
6.961765e+002, 1.063666e-001
6.981049e+002, 1.121911e-001
7.000334e+002, 1.184461e-001
7.019619e+002, 1.242421e-001
7.038903e+002, 1.292950e-001
7.058188e+002, 1.326470e-001
7.077473e+002, 1.328060e-001
7.096757e+002, 1.295869e-001
7.116042e+002, 1.250323e-001
7.135327e+002, 1.199407e-001
7.154611e+002, 1.144197e-001
7.173896e+002, 1.093215e-001
7.193181e+002, 1.050083e-001
7.212465e+002, 1.013930e-001
7.231750e+002, 9.822248e-002
7.251035e+002, 9.588744e-002
7.270319e+002, 9.405286e-002
7.289604e+002, 9.284358e-002
7.308889e+002, 9.162394e-002
7.328173e+002, 9.036784e-002
7.347458e+002, 8.973119e-002
7.366743e+002, 8.987565e-002
7.386027e+002, 9.058604e-002
7.405312e+002, 9.210354e-002
7.424597e+002, 9.408575e-002
7.443881e+002, 9.568001e-002
7.463166e+002, 9.804108e-002
7.482451e+002, 1.012140e-001
7.501735e+002, 1.043604e-001
7.521020e+002, 1.077430e-001
7.540305e+002, 1.110899e-001
7.559589e+002, 1.143612e-001
7.578874e+002, 1.180480e-001
7.598159e+002, 1.214835e-001
7.617443e+002, 1.248965e-001
7.636728e+002, 1.287397e-001
7.656013e+002, 1.328488e-001
7.675297e+002, 1.364638e-001
7.694582e+002, 1.390101e-001
7.713867e+002, 1.406780e-001
7.733151e+002, 1.407486e-001
7.752436e+002, 1.388843e-001
7.771721e+002, 1.361192e-001
7.791005e+002, 1.347211e-001
7.810290e+002, 1.349652e-001
7.829575e+002, 1.362421e-001
7.848859e+002, 1.386497e-001
7.868144e+002, 1.414848e-001
7.887429e+002, 1.446071e-001
7.906713e+002, 1.476168e-001
7.925998e+002, 1.502963e-001
7.945283e+002, 1.530643e-001
7.964567e+002, 1.566264e-001
7.983852e+002, 1.611129e-001
8.003137e+002, 1.664228e-001
8.022421e+002, 1.726173e-001
8.041706e+002, 1.796604e-001
8.060991e+002, 1.875189e-001
8.080275e+002, 1.968074e-001
8.099560e+002, 2.074903e-001
8.118845e+002, 2.184259e-001
8.138129e+002, 2.294267e-001
8.157414e+002, 2.403715e-001
8.176699e+002, 2.487664e-001
8.195983e+002, 2.535212e-001
8.215268e+002, 2.533128e-001
8.234553e+002, 2.466617e-001
8.253837e+002, 2.338280e-001
8.273122e+002, 2.179381e-001
8.292407e+002, 2.006750e-001
8.311691e+002, 1.819530e-001
8.330976e+002, 1.633458e-001
8.350261e+002, 1.457280e-001
8.369545e+002, 1.296644e-001
8.388830e+002, 1.157576e-001
8.408115e+002, 1.041616e-001
8.427399e+002, 9.463304e-002
8.446684e+002, 8.629132e-002
8.465969e+002, 7.921427e-002
8.485253e+002, 7.369190e-002
8.504538e+002, 6.945587e-002
8.523823e+002, 6.577058e-002
8.543107e+002, 6.347975e-002
8.562392e+002, 6.218285e-002
8.581677e+002, 6.147724e-002
8.600961e+002, 6.151511e-002
8.620246e+002, 6.223932e-002
8.639531e+002, 6.318793e-002
8.658815e+002, 6.440238e-002
8.678100e+002, 6.582788e-002
8.697385e+002, 6.772687e-002
8.716669e+002, 7.026632e-002
8.735954e+002, 7.275812e-002
8.755239e+002, 7.484995e-002
8.774523e+002, 7.662512e-002
8.793808e+002, 7.765358e-002
8.813093e+002, 7.809114e-002
8.832377e+002, 7.812253e-002
8.851662e+002, 7.732254e-002
8.870947e+002, 7.627884e-002
8.890231e+002, 7.568790e-002
8.909516e+002, 7.544807e-002
8.928801e+002, 7.561591e-002
8.948085e+002, 7.633647e-002
8.967370e+002, 7.744876e-002
8.986655e+002, 7.913063e-002
9.005939e+002, 8.112834e-002
9.025224e+002, 8.374078e-002
9.044509e+002, 8.654140e-002
9.063793e+002, 8.886230e-002
9.083078e+002, 9.144624e-002
9.102363e+002, 9.434964e-002
9.121647e+002, 9.748647e-002
9.140932e+002, 1.012928e-001
9.160217e+002, 1.056561e-001
9.179501e+002, 1.111053e-001
9.198786e+002, 1.172702e-001
9.218071e+002, 1.240209e-001
9.237355e+002, 1.316012e-001
9.256640e+002, 1.401180e-001
9.275925e+002, 1.496098e-001
9.295209e+002, 1.598765e-001
9.314494e+002, 1.707765e-001
9.333779e+002, 1.822982e-001
9.353063e+002, 1.940292e-001
9.372348e+002, 2.047222e-001
9.391633e+002, 2.136888e-001
9.410917e+002, 2.196318e-001
9.430202e+002, 2.202704e-001
9.449487e+002, 2.144507e-001
9.468771e+002, 2.030288e-001
9.488056e+002, 1.854936e-001
9.507341e+002, 1.640479e-001
9.526625e+002, 1.414305e-001
9.545910e+002, 1.205046e-001
9.565195e+002, 1.044583e-001
9.584479e+002, 9.394950e-002
9.603764e+002, 8.879425e-002
9.623049e+002, 8.816694e-002
9.642333e+002, 9.130848e-002
9.661618e+002, 9.713914e-002
9.680903e+002, 1.056547e-001
9.700187e+002, 1.171286e-001
9.719472e+002, 1.307637e-001
9.738757e+002, 1.465274e-001
9.758041e+002, 1.637931e-001
9.777326e+002, 1.815178e-001
9.796611e+002, 1.998170e-001
9.815895e+002, 2.180904e-001
9.835180e+002, 2.352740e-001
9.854465e+002, 2.508513e-001
9.873749e+002, 2.640948e-001
9.893034e+002, 2.748813e-001
9.912319e+002, 2.829654e-001
9.931603e+002, 2.873069e-001
9.950888e+002, 2.884490e-001
9.970173e+002, 2.867865e-001
9.989457e+002, 2.814825e-001
1.000874e+003, 2.741501e-001
1.002803e+003, 2.648534e-001
1.004731e+003, 2.542235e-001
1.006660e+003, 2.424887e-001
1.008588e+003, 2.299445e-001
1.010517e+003, 2.170671e-001
1.012445e+003, 2.045313e-001
1.014373e+003, 1.924210e-001
1.016302e+003, 1.818821e-001
1.018230e+003, 1.735312e-001
1.020159e+003, 1.675398e-001
1.022087e+003, 1.635796e-001
1.024016e+003, 1.612561e-001
1.025944e+003, 1.599382e-001
1.027873e+003, 1.582733e-001
1.029801e+003, 1.553535e-001
1.031730e+003, 1.508550e-001
1.033658e+003, 1.446096e-001
1.035587e+003, 1.377900e-001
1.037515e+003, 1.304927e-001
1.039443e+003, 1.229776e-001
1.041372e+003, 1.158071e-001
1.043300e+003, 1.084139e-001
1.045229e+003, 1.014912e-001
1.047157e+003, 9.524398e-002
1.049086e+003, 8.916501e-002
1.051014e+003, 8.344331e-002
1.052943e+003, 7.854562e-002
1.054871e+003, 7.440317e-002
1.056800e+003, 7.088090e-002
1.058728e+003, 6.884430e-002
1.060657e+003, 6.831045e-002
1.062585e+003, 6.948571e-002
1.064514e+003, 7.221058e-002
1.066442e+003, 7.589097e-002
1.068370e+003, 8.051318e-002
1.070299e+003, 8.580338e-002
1.072227e+003, 9.098991e-002
1.074156e+003, 9.534005e-002
1.076084e+003, 9.783502e-002
1.078013e+003, 9.834348e-002
1.079941e+003, 9.736425e-002
1.081870e+003, 9.507670e-002
1.083798e+003, 9.186593e-002
1.085727e+003, 8.863989e-002
1.087655e+003, 8.527508e-002
1.089584e+003, 8.178819e-002
1.091512e+003, 7.935053e-002
1.093441e+003, 7.788265e-002
1.095369e+003, 7.726651e-002
1.097297e+003, 7.668307e-002
1.099226e+003, 7.501851e-002
1.101154e+003, 7.317598e-002
1.103083e+003, 7.070460e-002
1.105011e+003, 6.785744e-002
1.106940e+003, 6.565943e-002
1.108868e+003, 6.435248e-002
1.110797e+003, 6.425010e-002
1.112725e+003, 6.564301e-002
1.114654e+003, 6.896330e-002
1.116582e+003, 7.512315e-002
1.118511e+003, 8.437094e-002
1.120439e+003, 9.693184e-002
1.122368e+003, 1.137449e-001
1.124296e+003, 1.332600e-001
1.126224e+003, 1.515082e-001
1.128153e+003, 1.638776e-001
1.130081e+003, 1.663202e-001
1.132010e+003, 1.600034e-001
1.133938e+003, 1.483913e-001
1.135867e+003, 1.346594e-001
1.137795e+003, 1.212448e-001
1.139724e+003, 1.092461e-001
1.141652e+003, 9.938677e-002
1.143581e+003, 9.191658e-002
1.145509e+003, 8.567210e-002
1.147438e+003, 8.059426e-002
1.149366e+003, 7.611340e-002
1.151295e+003, 7.243100e-002
1.153223e+003, 6.982628e-002
1.155151e+003, 6.829837e-002
1.157080e+003, 6.746390e-002
1.159008e+003, 6.707306e-002
1.160937e+003, 6.660093e-002
1.162865e+003, 6.531872e-002
1.164794e+003, 6.318029e-002
1.166722e+003, 6.047515e-002
1.168651e+003, 5.743884e-002
1.170579e+003, 5.447787e-002
1.172508e+003, 5.147611e-002
1.174436e+003, 4.887465e-002
1.176365e+003, 4.637166e-002
1.178293e+003, 4.410105e-002
1.180222e+003, 4.241989e-002
1.182150e+003, 4.119413e-002
1.184078e+003, 4.011235e-002
1.186007e+003, 3.948874e-002
1.187935e+003, 3.927976e-002
1.189864e+003, 3.905447e-002
1.191792e+003, 3.910635e-002
1.193721e+003, 4.008913e-002
1.195649e+003, 4.155729e-002
1.197578e+003, 4.306090e-002
1.199506e+003, 4.475550e-002
1.201435e+003, 4.702451e-002
1.203363e+003, 4.951337e-002
1.205292e+003, 5.236128e-002
1.207220e+003, 5.547791e-002
1.209149e+003, 5.900735e-002
1.211077e+003, 6.297661e-002
1.213005e+003, 6.698669e-002
1.214934e+003, 7.119349e-002
1.216862e+003, 7.510781e-002
1.218791e+003, 7.810039e-002
1.220719e+003, 7.976532e-002
1.222648e+003, 8.102319e-002
1.224576e+003, 8.207898e-002
1.226505e+003, 8.266521e-002
1.228433e+003, 8.354598e-002
1.230362e+003, 8.587105e-002
1.232290e+003, 8.945121e-002
1.234219e+003, 9.333972e-002
1.236147e+003, 9.802189e-002
1.238076e+003, 1.036780e-001
1.240004e+003, 1.098129e-001
1.241932e+003, 1.156800e-001
1.243861e+003, 1.212795e-001
1.245789e+003, 1.271777e-001
1.247718e+003, 1.334886e-001
1.249646e+003, 1.394336e-001
1.251575e+003, 1.439255e-001
1.253503e+003, 1.463020e-001
1.255432e+003, 1.467247e-001
1.257360e+003, 1.452370e-001
1.259289e+003, 1.422585e-001
1.261217e+003, 1.389150e-001
1.263146e+003, 1.365872e-001
1.265074e+003, 1.346729e-001
1.267003e+003, 1.328204e-001
1.268931e+003, 1.314054e-001
1.270859e+003, 1.301607e-001
1.272788e+003, 1.286464e-001
1.274716e+003, 1.262857e-001
1.276645e+003, 1.232663e-001
1.278573e+003, 1.195641e-001
1.280502e+003, 1.145307e-001
1.282430e+003, 1.089422e-001
1.284359e+003, 1.031504e-001
1.286287e+003, 9.712251e-002
1.288216e+003, 9.127624e-002
1.290144e+003, 8.564443e-002
1.292073e+003, 8.035652e-002
1.294001e+003, 7.563145e-002
1.295930e+003, 7.126759e-002
1.297858e+003, 6.757270e-002
1.299786e+003, 6.450969e-002
1.301715e+003, 6.231243e-002
1.303643e+003, 6.062352e-002
1.305572e+003, 5.968342e-002
1.307500e+003, 6.014178e-002
1.309429e+003, 6.138512e-002
1.311357e+003, 6.321284e-002
1.313286e+003, 6.646625e-002
1.315214e+003, 7.118633e-002
1.317143e+003, 7.718062e-002
1.319071e+003, 8.498457e-002
1.321000e+003, 9.494232e-002
1.322928e+003, 1.072232e-001
1.324857e+003, 1.214520e-001
1.326785e+003, 1.369794e-001
1.328714e+003, 1.526085e-001
1.330642e+003, 1.670732e-001
1.332570e+003, 1.784612e-001
1.334499e+003, 1.860349e-001
1.336427e+003, 1.907896e-001
1.338356e+003, 1.931664e-001
1.340284e+003, 1.934159e-001
1.342213e+003, 1.918199e-001
1.344141e+003, 1.885302e-001
1.346070e+003, 1.836150e-001
1.347998e+003, 1.773027e-001
1.349927e+003, 1.695582e-001
1.351855e+003, 1.616016e-001
1.353784e+003, 1.541983e-001
1.355712e+003, 1.468273e-001
1.357641e+003, 1.397063e-001
1.359569e+003, 1.338042e-001
1.361497e+003, 1.291130e-001
1.363426e+003, 1.252821e-001
1.365354e+003, 1.225016e-001
1.367283e+003, 1.214131e-001
1.369211e+003, 1.218268e-001
1.371140e+003, 1.232411e-001
1.373068e+003, 1.249899e-001
1.374997e+003, 1.270430e-001
1.376925e+003, 1.288878e-001
1.378854e+003, 1.299790e-001
1.380782e+003, 1.302850e-001
1.382711e+003, 1.298247e-001
1.384639e+003, 1.293512e-001
1.386568e+003, 1.288382e-001
1.388496e+003, 1.282110e-001
1.390424e+003, 1.276431e-001
1.392353e+003, 1.270110e-001
1.394281e+003, 1.264323e-001
1.396210e+003, 1.257542e-001
1.398138e+003, 1.255627e-001
1.400067e+003, 1.254571e-001
1.401995e+003, 1.257644e-001
1.403924e+003, 1.263984e-001
1.405852e+003, 1.269432e-001
1.407781e+003, 1.276642e-001
1.409709e+003, 1.292571e-001
1.411638e+003, 1.312162e-001
1.413566e+003, 1.332688e-001
1.415495e+003, 1.357311e-001
1.417423e+003, 1.382664e-001
1.419351e+003, 1.408483e-001
1.421280e+003, 1.436596e-001
1.423208e+003, 1.460249e-001
1.425137e+003, 1.471338e-001
1.427065e+003, 1.469172e-001
1.428994e+003, 1.459396e-001
1.430922e+003, 1.440927e-001
1.432851e+003, 1.409231e-001
1.434779e+003, 1.372640e-001
1.436708e+003, 1.335728e-001
1.438636e+003, 1.302549e-001
1.440565e+003, 1.275440e-001
1.442493e+003, 1.248327e-001
1.444422e+003, 1.225867e-001
1.446350e+003, 1.208735e-001
1.448278e+003, 1.195204e-001
1.450207e+003, 1.182396e-001
1.452135e+003, 1.169674e-001
1.454064e+003, 1.160413e-001
1.455992e+003, 1.152826e-001
1.457921e+003, 1.147042e-001
1.459849e+003, 1.138632e-001
1.461778e+003, 1.125552e-001
1.463706e+003, 1.112991e-001
1.465635e+003, 1.096955e-001
1.467563e+003, 1.074129e-001
1.469492e+003, 1.047093e-001
1.471420e+003, 1.017346e-001
1.473349e+003, 9.843105e-002
1.475277e+003, 9.514229e-002
1.477205e+003, 9.146643e-002
1.479134e+003, 8.795232e-002
1.481062e+003, 8.398436e-002
1.482991e+003, 7.998681e-002
1.484919e+003, 7.599501e-002
1.486848e+003, 7.175101e-002
1.488776e+003, 6.748946e-002
1.490705e+003, 6.328936e-002
1.492633e+003, 5.881599e-002
1.494562e+003, 5.442692e-002
1.496490e+003, 5.009929e-002
1.498419e+003, 4.588665e-002
1.500347e+003, 4.169013e-002
1.502276e+003, 3.750731e-002
1.504204e+003, 3.342338e-002
1.506132e+003, 2.975666e-002
1.508061e+003, 2.630800e-002
1.509989e+003, 2.308748e-002
1.511918e+003, 2.045438e-002
1.513846e+003, 1.861383e-002
1.515775e+003, 1.687156e-002
1.517703e+003, 1.548372e-002
1.519632e+003, 1.427300e-002
1.521560e+003, 1.332827e-002
1.523489e+003, 1.244819e-002
1.525417e+003, 1.176762e-002
1.527346e+003, 1.099253e-002
1.529274e+003, 1.086627e-002
1.531203e+003, 1.076217e-002
1.533131e+003, 1.042009e-002
1.535059e+003, 1.004027e-002
1.536988e+003, 9.674693e-003
1.538916e+003, 9.734197e-003
1.540845e+003, 9.542972e-003
1.542773e+003, 9.368919e-003
1.544702e+003, 9.426287e-003
1.546630e+003, 9.651293e-003
1.548559e+003, 9.505337e-003
1.550487e+003, 9.257149e-003
1.552416e+003, 8.997886e-003
1.554344e+003, 8.902679e-003
1.556273e+003, 9.115152e-003
1.558201e+003, 8.919335e-003
1.560130e+003, 8.541389e-003
1.562058e+003, 8.832444e-003
1.563986e+003, 9.018485e-003
1.565915e+003, 8.917759e-003
1.567843e+003, 9.039785e-003
1.569772e+003, 9.155935e-003
1.571700e+003, 8.786724e-003
1.573629e+003, 8.400052e-003
1.575557e+003, 8.365878e-003
1.577486e+003, 8.402817e-003
1.579414e+003, 8.634548e-003
1.581343e+003, 8.990359e-003
1.583271e+003, 9.095648e-003
1.585200e+003, 8.915557e-003
1.587128e+003, 8.921642e-003
1.589057e+003, 8.553068e-003
1.590985e+003, 8.424247e-003
1.592913e+003, 8.782863e-003
1.594842e+003, 9.019463e-003
1.596770e+003, 9.076931e-003
1.598699e+003, 9.017302e-003
1.600627e+003, 9.218113e-003
1.602556e+003, 9.626077e-003
1.604484e+003, 9.607779e-003
1.606413e+003, 9.768160e-003
1.608341e+003, 9.933144e-003
1.610270e+003, 9.966792e-003
1.612198e+003, 1.014085e-002
1.614127e+003, 1.046976e-002
1.616055e+003, 1.062101e-002
1.617984e+003, 1.084553e-002
1.619912e+003, 1.112612e-002
1.621840e+003, 1.152118e-002
1.623769e+003, 1.195679e-002
1.625697e+003, 1.257629e-002
1.627626e+003, 1.311687e-002
1.629554e+003, 1.353541e-002
1.631483e+003, 1.324628e-002
1.633411e+003, 1.372134e-002
1.635340e+003, 1.462578e-002
1.637268e+003, 1.538700e-002
1.639197e+003, 1.607048e-002
1.641125e+003, 1.658520e-002
1.643054e+003, 1.738012e-002
1.644982e+003, 1.853876e-002
1.646911e+003, 1.943717e-002
1.648839e+003, 2.056526e-002
1.650767e+003, 2.183223e-002
1.652696e+003, 2.297636e-002
1.654624e+003, 2.392105e-002
1.656553e+003, 2.426591e-002
1.658481e+003, 2.412757e-002
1.660410e+003, 2.346980e-002
1.662338e+003, 2.241315e-002
1.664267e+003, 2.161777e-002
1.666195e+003, 2.134776e-002
1.668124e+003, 2.090273e-002
1.670052e+003, 2.048010e-002
1.671981e+003, 2.034949e-002
1.673909e+003, 2.043997e-002
1.675838e+003, 2.033223e-002
1.677766e+003, 1.999807e-002
1.679694e+003, 2.002213e-002
1.681623e+003, 1.976597e-002
1.683551e+003, 1.925822e-002
1.685480e+003, 1.897805e-002
1.687408e+003, 1.873912e-002
1.689337e+003, 1.856285e-002
1.691265e+003, 1.781313e-002
1.693194e+003, 1.703279e-002
1.695122e+003, 1.670546e-002
1.697051e+003, 1.619167e-002
1.698979e+003, 1.494374e-002
1.700908e+003, 1.423407e-002
1.702836e+003, 1.407455e-002
1.704765e+003, 1.348267e-002
1.706693e+003, 1.296806e-002
1.708621e+003, 1.239333e-002
1.710550e+003, 1.162560e-002
1.712478e+003, 1.106619e-002
1.714407e+003, 1.101268e-002
1.716335e+003, 1.077894e-002
1.718264e+003, 1.020257e-002
1.720192e+003, 9.934057e-003
1.722121e+003, 9.845437e-003
1.724049e+003, 9.772760e-003
1.725978e+003, 9.724875e-003
1.727906e+003, 9.520061e-003
1.729835e+003, 9.261269e-003
1.731763e+003, 8.645098e-003
1.733692e+003, 8.656283e-003
1.735620e+003, 8.830016e-003
1.737548e+003, 8.425536e-003
1.739477e+003, 7.719276e-003
1.741405e+003, 7.350597e-003
1.743334e+003, 6.877564e-003
1.745262e+003, 7.122644e-003
1.747191e+003, 7.418072e-003
1.749119e+003, 7.683678e-003
1.751048e+003, 7.724552e-003
1.752976e+003, 7.695909e-003
1.754905e+003, 7.869789e-003
1.756833e+003, 7.864843e-003
1.758762e+003, 7.418183e-003
1.760690e+003, 7.280231e-003
1.762619e+003, 7.366376e-003
1.764547e+003, 7.869861e-003
1.766475e+003, 8.114436e-003
1.768404e+003, 8.209512e-003
1.770332e+003, 8.187095e-003
1.772261e+003, 8.143424e-003
1.774189e+003, 7.961830e-003
1.776118e+003, 7.786402e-003
1.778046e+003, 7.857220e-003
1.779975e+003, 7.596419e-003
1.781903e+003, 7.191618e-003
1.783832e+003, 7.854643e-003
1.785760e+003, 8.701882e-003
1.787689e+003, 8.966128e-003
1.789617e+003, 8.472980e-003
1.791546e+003, 7.835391e-003
1.793474e+003, 7.188791e-003
1.795402e+003, 7.249833e-003
1.797331e+003, 8.205803e-003
1.799259e+003, 8.670921e-003
1.801188e+003, 8.182928e-003
1.803116e+003, 7.676756e-003
1.805045e+003, 7.153043e-003
1.806973e+003, 7.257843e-003
1.808902e+003, 8.021561e-003
1.810830e+003, 7.871677e-003
1.812759e+003, 7.189958e-003
1.814687e+003, 6.889042e-003
1.816616e+003, 6.918158e-003
1.818544e+003, 7.325024e-003
1.820473e+003, 7.515514e-003
1.822401e+003, 7.610222e-003
1.824329e+003, 7.395967e-003
1.826258e+003, 6.817158e-003
1.828186e+003, 6.853735e-003
1.830115e+003, 7.865671e-003
1.832043e+003, 7.789112e-003
1.833972e+003, 7.441959e-003
1.835900e+003, 6.922272e-003
1.837829e+003, 6.540752e-003
1.839757e+003, 6.709331e-003
1.841686e+003, 6.918774e-003
1.843614e+003, 7.741682e-003
1.845543e+003, 7.623829e-003
1.847471e+003, 7.029172e-003
1.849400e+003, 6.853860e-003
1.851328e+003, 6.010595e-003
1.853256e+003, 5.522756e-003
1.855185e+003, 5.908543e-003
1.857113e+003, 5.699806e-003
1.859042e+003, 6.373672e-003
1.860970e+003, 6.755072e-003
1.862899e+003, 5.854764e-003
1.864827e+003, 5.351818e-003
1.866756e+003, 5.467938e-003
1.868684e+003, 5.894828e-003
1.870613e+003, 5.407782e-003
1.872541e+003, 5.204708e-003
1.874470e+003, 5.341406e-003
1.876398e+003, 4.514038e-003
1.878327e+003, 4.803597e-003
1.880255e+003, 5.328890e-003
1.882183e+003, 5.507051e-003
1.884112e+003, 5.910628e-003
1.886040e+003, 5.611331e-003
1.887969e+003, 4.155463e-003
1.889897e+003, 4.276933e-003
1.891826e+003, 5.384900e-003
1.893754e+003, 4.970180e-003
1.895683e+003, 5.274901e-003
1.897611e+003, 6.271311e-003
1.899540e+003, 7.710144e-003
1.901468e+003, 7.559136e-003
1.903397e+003, 6.658222e-003
1.905325e+003, 6.559858e-003
1.907254e+003, 5.911596e-003
1.909182e+003, 6.340862e-003
1.911110e+003, 7.812158e-003
1.913039e+003, 7.300936e-003
1.914967e+003, 6.344552e-003
1.916896e+003, 5.849558e-003
1.918824e+003, 5.254904e-003
1.920753e+003, 6.296641e-003
1.922681e+003, 6.865510e-003
1.924610e+003, 6.920774e-003
1.926538e+003, 6.954773e-003
1.928467e+003, 7.026404e-003
1.930395e+003, 7.693383e-003
1.932324e+003, 7.352940e-003
1.934252e+003, 6.505825e-003
1.936181e+003, 5.460364e-003
1.938109e+003, 6.877627e-003
1.940037e+003, 6.309468e-003
1.941966e+003, 3.593908e-003
1.943894e+003, 6.145532e-003
1.945823e+003, 7.292967e-003
1.947751e+003, 6.412087e-003
1.949680e+003, 6.724437e-003
1.951608e+003, 6.758221e-003
1.953537e+003, 7.066509e-003
1.955465e+003, 4.269538e-003
1.957394e+003, 3.042534e-003
1.959322e+003, 3.137593e-003
1.961251e+003, 6.919004e-004
1.963179e+003, 5.611866e-004
1.965108e+003, 1.110557e-003
1.967036e+003, 3.438314e-003
1.968964e+003, 3.613937e-003
1.970893e+003, 3.692221e-003
1.972821e+003, 3.256482e-003
1.974750e+003, 5.754919e-004
1.976678e+003, 5.986146e-005
1.978607e+003, 1.890052e-003
1.980535e+003, 2.931460e-003
1.982464e+003, 3.012915e-003
1.984392e+003, 3.643514e-003
1.986321e+003, 4.982200e-003
1.988249e+003, 2.529551e-003
1.990178e+003, 3.337578e-004
1.992106e+003, 2.468416e-003
1.994035e+003, 3.678308e-003
1.995963e+003, 3.147275e-003
1.997891e+003, 3.321865e-003
1.999820e+003, 2.264018e-003
2.001748e+003, 1.037421e-004
2.003677e+003, 8.807390e-004
2.005605e+003, 1.748467e-003
2.007534e+003, 9.691708e-004
2.009462e+003, 9.767481e-004
2.011391e+003, 1.419038e-003
2.013319e+003, 1.594643e-003
2.015248e+003, 5.183565e-003
2.017176e+003, 6.262684e-003
2.019105e+003, 3.064020e-003
2.021033e+003, 4.983707e-004
2.022962e+003, 2.908018e-003
2.024890e+003, 5.336000e-003
2.026818e+003, 5.611702e-003
2.028747e+003, 3.597233e-003
2.030675e+003, 3.122878e-003
2.032604e+003, 2.506507e-003
2.034532e+003, 3.741794e-003
2.036461e+003, 4.160766e-003
2.038389e+003, 3.941206e-003
2.040318e+003, 4.757836e-003
2.042246e+003, 4.313610e-003
2.044175e+003, 6.345673e-003
2.046103e+003, 7.840787e-003
2.048031e+003, 6.604700e-003
2.049960e+003, 7.474192e-003
2.051888e+003, 6.407734e-003
2.053817e+003, 5.905616e-003
2.055745e+003, 5.797661e-003
2.057674e+003, 6.563920e-003
2.059602e+003, 7.781933e-003
2.061531e+003, 6.536440e-003
2.063459e+003, 5.624814e-003
2.065388e+003, 6.228943e-003
2.067316e+003, 6.796828e-003
2.069245e+003, 7.879386e-003
2.071173e+003, 7.626033e-003
2.073102e+003, 7.433096e-003
2.075030e+003, 8.935641e-003
2.076958e+003, 1.064295e-002
2.078887e+003, 9.891324e-003
2.080815e+003, 8.623652e-003
2.082744e+003, 8.445445e-003
2.084672e+003, 8.605331e-003
2.086601e+003, 7.695183e-003
2.088529e+003, 5.322719e-003
2.090458e+003, 5.514680e-003
2.092386e+003, 6.979187e-003
2.094315e+003, 6.385855e-003
2.096243e+003, 8.354435e-003
2.098172e+003, 1.121565e-002
2.100100e+003, 9.232424e-003
2.102029e+003, 6.965721e-003
2.103957e+003, 7.333649e-003
2.105885e+003, 7.709840e-003
2.107814e+003, 8.737065e-003
2.109742e+003, 8.362766e-003
2.111671e+003, 8.092185e-003
2.113599e+003, 9.577231e-003
2.115528e+003, 1.016724e-002
2.117456e+003, 9.724074e-003
2.119385e+003, 9.473624e-003
2.121313e+003, 8.623898e-003
2.123242e+003, 1.023632e-002
2.125170e+003, 1.166376e-002
2.127099e+003, 9.327075e-003
2.129027e+003, 8.589629e-003
2.130956e+003, 7.005852e-003
2.132884e+003, 4.697089e-003
2.134813e+003, 5.362772e-003
2.136741e+003, 7.785888e-003
2.138669e+003, 8.298573e-003
2.140598e+003, 7.599746e-003
2.142526e+003, 9.569398e-003
2.144455e+003, 1.014996e-002
2.146383e+003, 8.739528e-003
2.148312e+003, 7.332744e-003
2.150240e+003, 9.716501e-003
2.152169e+003, 8.650960e-003
2.154097e+003, 8.676335e-003
2.156026e+003, 6.666099e-003
2.157954e+003, 9.255746e-003
2.159883e+003, 1.353268e-002
2.161811e+003, 1.222706e-002
2.163740e+003, 9.664624e-003
2.165668e+003, 8.646972e-003
2.167596e+003, 1.095429e-002
2.169525e+003, 1.010729e-002
2.171453e+003, 6.899514e-003
2.173382e+003, 6.877738e-003
2.175310e+003, 1.023944e-002
2.177239e+003, 1.248023e-002
2.179167e+003, 1.264379e-002
2.181096e+003, 1.425756e-002
2.183024e+003, 1.469240e-002
2.184953e+003, 1.065202e-002
2.186881e+003, 1.118593e-002
2.188810e+003, 1.352478e-002
2.190738e+003, 1.098046e-002
2.192667e+003, 9.229792e-003
2.194595e+003, 9.825456e-003
2.196523e+003, 1.096785e-002
2.198452e+003, 1.030439e-002
2.200380e+003, 8.866104e-003
2.202309e+003, 1.029976e-002
2.204237e+003, 1.140535e-002
2.206166e+003, 1.026067e-002
2.208094e+003, 1.022967e-002
2.210023e+003, 1.185596e-002
2.211951e+003, 9.594738e-003
2.213880e+003, 9.642823e-003
2.215808e+003, 1.301236e-002
2.217737e+003, 1.291198e-002
2.219665e+003, 1.117932e-002
2.221594e+003, 9.404108e-003
2.223522e+003, 8.774372e-003
2.225450e+003, 1.207825e-002
2.227379e+003, 1.632940e-002
2.229307e+003, 1.505112e-002
2.231236e+003, 1.285730e-002
2.233164e+003, 1.175328e-002
2.235093e+003, 1.010636e-002
2.237021e+003, 8.710059e-003
2.238950e+003, 8.953190e-003
2.240878e+003, 1.015903e-002
2.242807e+003, 1.173067e-002
2.244735e+003, 1.335958e-002
2.246664e+003, 1.282816e-002
2.248592e+003, 1.232881e-002
2.250521e+003, 1.240585e-002
2.252449e+003, 1.085160e-002
2.254377e+003, 9.922621e-003
2.256306e+003, 1.118426e-002
2.258234e+003, 1.117983e-002
2.260163e+003, 8.986233e-003
2.262091e+003, 8.602520e-003
2.264020e+003, 1.065205e-002
2.265948e+003, 1.299932e-002
2.267877e+003, 1.076325e-002
2.269805e+003, 8.725791e-003
2.271734e+003, 9.780105e-003
2.273662e+003, 1.181539e-002
2.275591e+003, 1.228450e-002
2.277519e+003, 1.347620e-002
2.279448e+003, 1.460725e-002
2.281376e+003, 1.505975e-002
2.283304e+003, 1.393987e-002
2.285233e+003, 1.270735e-002
2.287161e+003, 1.387761e-002
2.289090e+003, 1.497814e-002
2.291018e+003, 1.414301e-002
2.292947e+003, 1.314997e-002
2.294875e+003, 1.337994e-002
2.296804e+003, 1.391232e-002
2.298732e+003, 1.333167e-002
2.300661e+003, 1.303712e-002
2.302589e+003, 1.419257e-002
2.304518e+003, 1.445169e-002
2.306446e+003, 1.431663e-002
2.308375e+003, 1.395510e-002
2.310303e+003, 1.202309e-002
2.312231e+003, 1.291941e-002
2.314160e+003, 1.409730e-002
2.316088e+003, 1.408552e-002
2.318017e+003, 1.456230e-002
2.319945e+003, 1.511268e-002
2.321874e+003, 1.604297e-002
2.323802e+003, 1.671531e-002
2.325731e+003, 1.574460e-002
2.327659e+003, 1.458068e-002
2.329588e+003, 1.420147e-002
2.331516e+003, 1.391611e-002
2.333445e+003, 1.453490e-002
2.335373e+003, 1.497400e-002
2.337302e+003, 1.428750e-002
2.339230e+003, 1.395488e-002
2.341158e+003, 1.452660e-002
2.343087e+003, 1.579620e-002
2.345015e+003, 1.552289e-002
2.346944e+003, 1.488404e-002
2.348872e+003, 1.461435e-002
2.350801e+003, 1.512701e-002
2.352729e+003, 1.584388e-002
2.354658e+003, 1.559830e-002
2.356586e+003, 1.574658e-002
2.358515e+003, 1.589986e-002
2.360443e+003, 1.548134e-002
2.362372e+003, 1.500254e-002
2.364300e+003, 1.511134e-002
2.366229e+003, 1.524277e-002
2.368157e+003, 1.568701e-002
2.370085e+003, 1.550798e-002
2.372014e+003, 1.562813e-002
2.373942e+003, 1.723606e-002
2.375871e+003, 1.776595e-002
2.377799e+003, 1.680966e-002
2.379728e+003, 1.658279e-002
2.381656e+003, 1.724871e-002
2.383585e+003, 1.787620e-002
2.385513e+003, 1.826735e-002
2.387442e+003, 1.835888e-002
2.389370e+003, 1.836632e-002
2.391299e+003, 1.828779e-002
2.393227e+003, 1.853279e-002
2.395156e+003, 1.901607e-002
2.397084e+003, 1.912270e-002
2.399012e+003, 1.945213e-002
2.400941e+003, 2.057279e-002
2.402869e+003, 2.077560e-002
2.404798e+003, 2.009839e-002
2.406726e+003, 2.133742e-002
2.408655e+003, 2.174966e-002
2.410583e+003, 2.218213e-002
2.412512e+003, 2.301182e-002
2.414440e+003, 2.255767e-002
2.416369e+003, 2.215413e-002
2.418297e+003, 2.230764e-002
2.420226e+003, 2.284697e-002
2.422154e+003, 2.379055e-002
2.424083e+003, 2.483356e-002
2.426011e+003, 2.483711e-002
2.427939e+003, 2.441558e-002
2.429868e+003, 2.469226e-002
2.431796e+003, 2.586733e-002
2.433725e+003, 2.650564e-002
2.435653e+003, 2.488371e-002
2.437582e+003, 2.422672e-002
2.439510e+003, 2.584556e-002
2.441439e+003, 2.602105e-002
2.443367e+003, 2.499337e-002
2.445296e+003, 2.567836e-002
2.447224e+003, 2.654704e-002
2.449153e+003, 2.553591e-002
2.451081e+003, 2.528116e-002
2.453010e+003, 2.492880e-002
2.454938e+003, 2.481571e-002
2.456866e+003, 2.367498e-002
2.458795e+003, 2.291798e-002
2.460723e+003, 2.362295e-002
2.462652e+003, 2.377775e-002
2.464580e+003, 2.253988e-002
2.466509e+003, 2.216361e-002
2.468437e+003, 2.354125e-002
2.470366e+003, 2.418822e-002
2.472294e+003, 2.359863e-002
2.474223e+003, 2.301130e-002
2.476151e+003, 2.283115e-002
2.478080e+003, 2.271789e-002
2.480008e+003, 2.361012e-002
2.481937e+003, 2.256371e-002
2.483865e+003, 2.207339e-002
2.485793e+003, 2.203845e-002
2.487722e+003, 2.189997e-002
2.489650e+003, 2.311376e-002
2.491579e+003, 2.375649e-002
2.493507e+003, 2.374275e-002
2.495436e+003, 2.360312e-002
2.497364e+003, 2.370345e-002
2.499293e+003, 2.359636e-002
2.501221e+003, 2.215783e-002
2.503150e+003, 2.163547e-002
2.505078e+003, 2.049680e-002
2.507007e+003, 2.009854e-002
2.508935e+003, 2.056115e-002
2.510864e+003, 2.083789e-002
2.512792e+003, 2.040884e-002
2.514720e+003, 2.036699e-002
2.516649e+003, 2.161212e-002
2.518577e+003, 2.294643e-002
2.520506e+003, 2.271257e-002
2.522434e+003, 2.167934e-002
2.524363e+003, 2.095818e-002
2.526291e+003, 2.088268e-002
2.528220e+003, 1.951301e-002
2.530148e+003, 1.977365e-002
2.532077e+003, 2.151679e-002
2.534005e+003, 2.100594e-002
2.535934e+003, 2.107721e-002
2.537862e+003, 2.182868e-002
2.539791e+003, 2.303503e-002
2.541719e+003, 2.182708e-002
2.543647e+003, 2.103929e-002
2.545576e+003, 2.061214e-002
2.547504e+003, 2.142200e-002
2.549433e+003, 2.229766e-002
2.551361e+003, 2.197548e-002
2.553290e+003, 2.155480e-002
2.555218e+003, 2.263783e-002
2.557147e+003, 2.383395e-002
2.559075e+003, 2.444624e-002
2.561004e+003, 2.428864e-002
2.562932e+003, 2.406841e-002
2.564861e+003, 2.408075e-002
2.566789e+003, 2.480419e-002
2.568718e+003, 2.482714e-002
2.570646e+003, 2.477145e-002
2.572574e+003, 2.532226e-002
2.574503e+003, 2.624092e-002
2.576431e+003, 2.612378e-002
2.578360e+003, 2.595784e-002
2.580288e+003, 2.728125e-002
2.582217e+003, 2.806315e-002
2.584145e+003, 2.913524e-002
2.586074e+003, 2.966931e-002
2.588002e+003, 2.894986e-002
2.589931e+003, 2.793269e-002
2.591859e+003, 2.722440e-002
2.593788e+003, 2.883917e-002
2.595716e+003, 3.147181e-002
2.597645e+003, 3.039734e-002
2.599573e+003, 3.006086e-002
2.601501e+003, 3.118452e-002
2.603430e+003, 3.080278e-002
2.605358e+003, 3.140853e-002
2.607287e+003, 3.165123e-002
2.609215e+003, 3.256460e-002
2.611144e+003, 3.291687e-002
2.613072e+003, 3.252686e-002
2.615001e+003, 3.174695e-002
2.616929e+003, 3.073977e-002
2.618858e+003, 2.957892e-002
2.620786e+003, 3.038440e-002
2.622715e+003, 3.172321e-002
2.624643e+003, 3.179944e-002
2.626572e+003, 3.157544e-002
2.628500e+003, 3.120685e-002
2.630428e+003, 3.043863e-002
2.632357e+003, 3.049262e-002
2.634285e+003, 3.025068e-002
2.636214e+003, 3.020867e-002
2.638142e+003, 3.003348e-002
2.640071e+003, 2.890002e-002
2.641999e+003, 2.876374e-002
2.643928e+003, 2.934795e-002
2.645856e+003, 2.968781e-002
2.647785e+003, 2.954000e-002
2.649713e+003, 2.874782e-002
2.651642e+003, 2.931995e-002
2.653570e+003, 2.913662e-002
2.655499e+003, 2.803276e-002
2.657427e+003, 2.760119e-002
2.659355e+003, 2.743999e-002
2.661284e+003, 2.792478e-002
2.663212e+003, 2.771052e-002
2.665141e+003, 2.645234e-002
2.667069e+003, 2.665952e-002
2.668998e+003, 2.729508e-002
2.670926e+003, 2.703112e-002
2.672855e+003, 2.674597e-002
2.674783e+003, 2.810785e-002
2.676712e+003, 2.861528e-002
2.678640e+003, 2.754371e-002
2.680569e+003, 2.720243e-002
2.682497e+003, 2.737236e-002
2.684426e+003, 2.739364e-002
2.686354e+003, 2.715589e-002
2.688282e+003, 2.659083e-002
2.690211e+003, 2.670498e-002
2.692139e+003, 2.707695e-002
2.694068e+003, 2.703374e-002
2.695996e+003, 2.804029e-002
2.697925e+003, 2.830242e-002
2.699853e+003, 2.845385e-002
2.701782e+003, 2.886969e-002
2.703710e+003, 2.873291e-002
2.705639e+003, 2.857359e-002
2.707567e+003, 2.889747e-002
2.709496e+003, 2.963258e-002
2.711424e+003, 2.929991e-002
2.713353e+003, 2.929611e-002
2.715281e+003, 2.956429e-002
2.717209e+003, 2.936279e-002
2.719138e+003, 2.979302e-002
2.721066e+003, 3.045024e-002
2.722995e+003, 3.066620e-002
2.724923e+003, 3.020422e-002
2.726852e+003, 3.044042e-002
2.728780e+003, 3.123380e-002
2.730709e+003, 3.149470e-002
2.732637e+003, 3.207713e-002
2.734566e+003, 3.272321e-002
2.736494e+003, 3.350656e-002
2.738423e+003, 3.333585e-002
2.740351e+003, 3.310570e-002
2.742280e+003, 3.338104e-002
2.744208e+003, 3.362070e-002
2.746136e+003, 3.349202e-002
2.748065e+003, 3.412567e-002
2.749993e+003, 3.427663e-002
2.751922e+003, 3.452088e-002
2.753850e+003, 3.528261e-002
2.755779e+003, 3.511564e-002
2.757707e+003, 3.587282e-002
2.759636e+003, 3.735741e-002
2.761564e+003, 3.723302e-002
2.763493e+003, 3.673839e-002
2.765421e+003, 3.736615e-002
2.767350e+003, 3.765459e-002
2.769278e+003, 3.806135e-002
2.771207e+003, 3.887886e-002
2.773135e+003, 3.880168e-002
2.775063e+003, 3.902483e-002
2.776992e+003, 3.950343e-002
2.778920e+003, 3.998283e-002
2.780849e+003, 3.990407e-002
2.782777e+003, 3.937861e-002
2.784706e+003, 3.958509e-002
2.786634e+003, 4.048858e-002
2.788563e+003, 4.104806e-002
2.790491e+003, 4.156574e-002
2.792420e+003, 4.081585e-002
2.794348e+003, 4.070018e-002
2.796277e+003, 4.088058e-002
2.798205e+003, 4.141417e-002
2.800134e+003, 4.181154e-002
2.802062e+003, 4.196917e-002
2.803990e+003, 4.232031e-002
2.805919e+003, 4.270896e-002
2.807847e+003, 4.326177e-002
2.809776e+003, 4.338134e-002
2.811704e+003, 4.314565e-002
2.813633e+003, 4.241673e-002
2.815561e+003, 4.202859e-002
2.817490e+003, 4.242571e-002
2.819418e+003, 4.334518e-002
2.821347e+003, 4.340694e-002
2.823275e+003, 4.291721e-002
2.825204e+003, 4.238852e-002
2.827132e+003, 4.288672e-002
2.829061e+003, 4.447166e-002
2.830989e+003, 4.510285e-002
2.832917e+003, 4.429692e-002
2.834846e+003, 4.302479e-002
2.836774e+003, 4.332300e-002
2.838703e+003, 4.464208e-002
2.840631e+003, 4.422997e-002
2.842560e+003, 4.258290e-002
2.844488e+003, 4.229172e-002
2.846417e+003, 4.319834e-002
2.848345e+003, 4.270385e-002
2.850274e+003, 4.378650e-002
2.852202e+003, 4.386240e-002
2.854131e+003, 4.312854e-002
2.856059e+003, 4.432358e-002
2.857988e+003, 4.487922e-002
2.859916e+003, 4.640619e-002
2.861844e+003, 4.746038e-002
2.863773e+003, 4.735541e-002
2.865701e+003, 4.779045e-002
2.867630e+003, 4.845553e-002
2.869558e+003, 4.922513e-002
2.871487e+003, 4.958137e-002
2.873415e+003, 4.826082e-002
2.875344e+003, 4.840240e-002
2.877272e+003, 5.043740e-002
2.879201e+003, 5.049361e-002
2.881129e+003, 5.000837e-002
2.883058e+003, 5.104844e-002
2.884986e+003, 5.101912e-002
2.886915e+003, 5.076142e-002
2.888843e+003, 5.187520e-002
2.890771e+003, 5.252208e-002
2.892700e+003, 5.327534e-002
2.894628e+003, 5.310233e-002
2.896557e+003, 5.354099e-002
2.898485e+003, 5.376992e-002
2.900414e+003, 5.212234e-002
2.902342e+003, 5.250300e-002
2.904271e+003, 5.437265e-002
2.906199e+003, 5.496529e-002
2.908128e+003, 5.471644e-002
2.910056e+003, 5.547997e-002
2.911985e+003, 5.574496e-002
2.913913e+003, 5.529169e-002
2.915842e+003, 5.519189e-002
2.917770e+003, 5.598385e-002
2.919698e+003, 5.636361e-002
2.921627e+003, 5.719369e-002
2.923555e+003, 5.754518e-002
2.925484e+003, 5.733158e-002
2.927412e+003, 5.789132e-002
2.929341e+003, 6.049173e-002
2.931269e+003, 6.055648e-002
2.933198e+003, 6.012233e-002
2.935126e+003, 6.217796e-002
2.937055e+003, 6.300376e-002
2.938983e+003, 6.223006e-002
2.940912e+003, 6.290586e-002
2.942840e+003, 6.436065e-002
2.944769e+003, 6.380668e-002
2.946697e+003, 6.421947e-002
2.948625e+003, 6.659352e-002
2.950554e+003, 6.754441e-002
2.952482e+003, 6.827291e-002
2.954411e+003, 6.931405e-002
2.956339e+003, 7.012675e-002
2.958268e+003, 6.908358e-002
2.960196e+003, 6.909949e-002
2.962125e+003, 7.052356e-002
2.964053e+003, 7.057286e-002
2.965982e+003, 7.173967e-002
2.967910e+003, 7.351885e-002
2.969839e+003, 7.303841e-002
2.971767e+003, 7.226840e-002
2.973696e+003, 7.246481e-002
2.975624e+003, 7.296380e-002
2.977552e+003, 7.306335e-002
2.979481e+003, 7.299303e-002
2.981409e+003, 7.350930e-002
2.983338e+003, 7.513820e-002
2.985266e+003, 7.516661e-002
2.987195e+003, 7.495273e-002
2.989123e+003, 7.518809e-002
2.991052e+003, 7.734275e-002
2.992980e+003, 7.783987e-002
2.994909e+003, 7.760336e-002
2.996837e+003, 7.728317e-002
2.998766e+003, 7.781281e-002
3.000694e+003, 7.951796e-002
3.002623e+003, 7.980032e-002
3.004551e+003, 7.931074e-002
3.006479e+003, 7.949033e-002
3.008408e+003, 7.939679e-002
3.010336e+003, 8.013976e-002
3.012265e+003, 7.965848e-002
3.014193e+003, 7.873894e-002
3.016122e+003, 7.793066e-002
3.018050e+003, 7.850822e-002
3.019979e+003, 8.050056e-002
3.021907e+003, 8.119056e-002
3.023836e+003, 8.119032e-002
3.025764e+003, 8.174352e-002
3.027693e+003, 8.233950e-002
3.029621e+003, 8.249751e-002
3.031550e+003, 8.163336e-002
3.033478e+003, 8.217492e-002
3.035406e+003, 8.250419e-002
3.037335e+003, 8.258250e-002
3.039263e+003, 8.262922e-002
3.041192e+003, 8.262476e-002
3.043120e+003, 8.297771e-002
3.045049e+003, 8.136527e-002
3.046977e+003, 8.085055e-002
3.048906e+003, 8.229350e-002
3.050834e+003, 8.181606e-002
3.052763e+003, 8.074068e-002
3.054691e+003, 8.103336e-002
3.056620e+003, 8.114327e-002
3.058548e+003, 8.185735e-002
3.060477e+003, 8.256773e-002
3.062405e+003, 8.069772e-002
3.064333e+003, 7.968304e-002
3.066262e+003, 8.129909e-002
3.068190e+003, 8.203006e-002
3.070119e+003, 8.092410e-002
3.072047e+003, 7.991116e-002
3.073976e+003, 7.947358e-002
3.075904e+003, 7.915169e-002
3.077833e+003, 7.998046e-002
3.079761e+003, 8.065253e-002
3.081690e+003, 8.044534e-002
3.083618e+003, 7.999686e-002
3.085547e+003, 8.088256e-002
3.087475e+003, 8.126564e-002
3.089404e+003, 7.902895e-002
3.091332e+003, 7.763607e-002
3.093260e+003, 7.821613e-002
3.095189e+003, 7.920513e-002
3.097117e+003, 7.787596e-002
3.099046e+003, 7.735126e-002
3.100974e+003, 7.783636e-002
3.102903e+003, 7.981446e-002
3.104831e+003, 7.953651e-002
3.106760e+003, 7.824130e-002
3.108688e+003, 7.892350e-002
3.110617e+003, 8.056893e-002
3.112545e+003, 8.063647e-002
3.114474e+003, 8.047633e-002
3.116402e+003, 7.915325e-002
3.118331e+003, 7.775503e-002
3.120259e+003, 7.837685e-002
3.122188e+003, 7.968678e-002
3.124116e+003, 7.960787e-002
3.126044e+003, 7.966861e-002
3.127973e+003, 7.998625e-002
3.129901e+003, 7.936550e-002
3.131830e+003, 7.909143e-002
3.133758e+003, 8.009026e-002
3.135687e+003, 8.127289e-002
3.137615e+003, 8.175075e-002
3.139544e+003, 8.122638e-002
3.141472e+003, 8.243144e-002
3.143401e+003, 8.282603e-002
3.145329e+003, 8.208518e-002
3.147258e+003, 8.125695e-002
3.149186e+003, 7.976770e-002
3.151115e+003, 8.095431e-002
3.153043e+003, 8.322237e-002
3.154971e+003, 8.341555e-002
3.156900e+003, 8.286612e-002
3.158828e+003, 8.364183e-002
3.160757e+003, 8.493999e-002
3.162685e+003, 8.558097e-002
3.164614e+003, 8.567052e-002
3.166542e+003, 8.598434e-002
3.168471e+003, 8.754096e-002
3.170399e+003, 8.823760e-002
3.172328e+003, 8.646990e-002
3.174256e+003, 8.638246e-002
3.176185e+003, 8.763317e-002
3.178113e+003, 8.878667e-002
3.180042e+003, 8.972567e-002
3.181970e+003, 9.091999e-002
3.183898e+003, 9.080246e-002
3.185827e+003, 9.137538e-002
3.187755e+003, 9.244944e-002
3.189684e+003, 9.377564e-002
3.191612e+003, 9.364970e-002
3.193541e+003, 9.295825e-002
3.195469e+003, 9.483279e-002
3.197398e+003, 9.621700e-002
3.199326e+003, 9.488896e-002
3.201255e+003, 9.546158e-002
3.203183e+003, 9.783965e-002
3.205112e+003, 9.940612e-002
3.207040e+003, 1.018374e-001
3.208969e+003, 1.025518e-001
3.210897e+003, 1.012206e-001
3.212825e+003, 1.010355e-001
3.214754e+003, 1.022232e-001
3.216682e+003, 1.010472e-001
3.218611e+003, 1.018534e-001
3.220539e+003, 1.031577e-001
3.222468e+003, 1.042330e-001
3.224396e+003, 1.055304e-001
3.226325e+003, 1.067551e-001
3.228253e+003, 1.080627e-001
3.230182e+003, 1.086660e-001
3.232110e+003, 1.090165e-001
3.234039e+003, 1.087926e-001
3.235967e+003, 1.080015e-001
3.237896e+003, 1.073120e-001
3.239824e+003, 1.067340e-001
3.241752e+003, 1.077229e-001
3.243681e+003, 1.108190e-001
3.245609e+003, 1.117640e-001
3.247538e+003, 1.116904e-001
3.249466e+003, 1.151781e-001
3.251395e+003, 1.152274e-001
3.253323e+003, 1.123939e-001
3.255252e+003, 1.122496e-001
3.257180e+003, 1.133346e-001
3.259109e+003, 1.136069e-001
3.261037e+003, 1.139022e-001
3.262966e+003, 1.142033e-001
3.264894e+003, 1.148974e-001
3.266823e+003, 1.169866e-001
3.268751e+003, 1.175672e-001
3.270679e+003, 1.176803e-001
3.272608e+003, 1.188037e-001
3.274536e+003, 1.188339e-001
3.276465e+003, 1.192610e-001
3.278393e+003, 1.203599e-001
3.280322e+003, 1.211277e-001
3.282250e+003, 1.210782e-001
3.284179e+003, 1.219784e-001
3.286107e+003, 1.247728e-001
3.288036e+003, 1.249688e-001
3.289964e+003, 1.230542e-001
3.291893e+003, 1.235839e-001
3.293821e+003, 1.276159e-001
3.295750e+003, 1.315762e-001
3.297678e+003, 1.331034e-001
3.299606e+003, 1.335666e-001
3.301535e+003, 1.359178e-001
3.303463e+003, 1.381720e-001
3.305392e+003, 1.394213e-001
3.307320e+003, 1.419609e-001
3.309249e+003, 1.416856e-001
3.311177e+003, 1.442266e-001
3.313106e+003, 1.474009e-001
3.315034e+003, 1.499260e-001
3.316963e+003, 1.524898e-001
3.318891e+003, 1.548653e-001
3.320820e+003, 1.584919e-001
3.322748e+003, 1.609685e-001
3.324677e+003, 1.629131e-001
3.326605e+003, 1.661335e-001
3.328533e+003, 1.681697e-001
3.330462e+003, 1.704364e-001
3.332390e+003, 1.735330e-001
3.334319e+003, 1.777170e-001
3.336247e+003, 1.791639e-001
3.338176e+003, 1.791169e-001
3.340104e+003, 1.806851e-001
3.342033e+003, 1.832167e-001
3.343961e+003, 1.848111e-001
3.345890e+003, 1.838242e-001
3.347818e+003, 1.804322e-001
3.349747e+003, 1.776641e-001
3.351675e+003, 1.780501e-001
3.353604e+003, 1.785918e-001
3.355532e+003, 1.771035e-001
3.357460e+003, 1.742222e-001
3.359389e+003, 1.704839e-001
3.361317e+003, 1.651107e-001
3.363246e+003, 1.623421e-001
3.365174e+003, 1.598077e-001
3.367103e+003, 1.534546e-001
3.369031e+003, 1.495777e-001
3.370960e+003, 1.455076e-001
3.372888e+003, 1.394104e-001
3.374817e+003, 1.357664e-001
3.376745e+003, 1.336413e-001
3.378674e+003, 1.315281e-001
3.380602e+003, 1.270693e-001
3.382531e+003, 1.232649e-001
3.384459e+003, 1.212345e-001
3.386387e+003, 1.184526e-001
3.388316e+003, 1.169642e-001
3.390244e+003, 1.133438e-001
3.392173e+003, 1.097001e-001
3.394101e+003, 1.070379e-001
3.396030e+003, 1.019960e-001
3.397958e+003, 9.742248e-002
3.399887e+003, 9.701248e-002
3.401815e+003, 9.725116e-002
3.403744e+003, 9.566939e-002
3.405672e+003, 9.480398e-002
3.407601e+003, 9.127200e-002
3.409529e+003, 8.976146e-002
3.411458e+003, 9.065564e-002
3.413386e+003, 8.862803e-002
3.415314e+003, 8.739609e-002
3.417243e+003, 8.756766e-002
3.419171e+003, 8.655437e-002
3.421100e+003, 8.431713e-002
3.423028e+003, 8.283540e-002
3.424957e+003, 7.901937e-002
3.426885e+003, 7.659110e-002
3.428814e+003, 7.898071e-002
3.430742e+003, 7.990313e-002
3.432671e+003, 7.745201e-002
3.434599e+003, 7.611500e-002
3.436528e+003, 7.354098e-002
3.438456e+003, 7.331906e-002
3.440385e+003, 7.522321e-002
3.442313e+003, 7.548846e-002
3.444241e+003, 7.333613e-002
3.446170e+003, 7.071214e-002
3.448098e+003, 7.058902e-002
3.450027e+003, 7.100227e-002
3.451955e+003, 7.112180e-002
3.453884e+003, 7.058106e-002
3.455812e+003, 6.914756e-002
3.457741e+003, 6.621023e-002
3.459669e+003, 6.599282e-002
3.461598e+003, 6.818281e-002
3.463526e+003, 6.811798e-002
3.465455e+003, 6.800774e-002
3.467383e+003, 7.076677e-002
3.469312e+003, 7.041820e-002
3.471240e+003, 6.957599e-002
3.473168e+003, 6.915023e-002
3.475097e+003, 6.843007e-002
3.477025e+003, 6.887312e-002
3.478954e+003, 6.943838e-002
3.480882e+003, 6.906197e-002
3.482811e+003, 7.086783e-002
3.484739e+003, 7.139390e-002
3.486668e+003, 6.928758e-002
3.488596e+003, 6.744339e-002
3.490525e+003, 6.415747e-002
3.492453e+003, 6.431856e-002
3.494382e+003, 6.695256e-002
3.496310e+003, 6.526303e-002
3.498239e+003, 6.470247e-002
3.500167e+003, 6.571770e-002
3.502095e+003, 6.558645e-002
3.504024e+003, 6.495212e-002
3.505952e+003, 6.395602e-002
3.507881e+003, 6.356177e-002
3.509809e+003, 6.317348e-002
3.511738e+003, 6.141002e-002
3.513666e+003, 6.022406e-002
3.515595e+003, 6.073809e-002
3.517523e+003, 5.983346e-002
3.519452e+003, 5.749493e-002
3.521380e+003, 5.578578e-002
3.523309e+003, 5.440035e-002
3.525237e+003, 5.324518e-002
3.527166e+003, 5.200838e-002
3.529094e+003, 5.196989e-002
3.531022e+003, 5.098145e-002
3.532951e+003, 4.892787e-002
3.534879e+003, 4.629604e-002
3.536808e+003, 4.290279e-002
3.538736e+003, 4.148865e-002
3.540665e+003, 4.177448e-002
3.542593e+003, 4.034934e-002
3.544522e+003, 3.758276e-002
3.546450e+003, 3.634178e-002
3.548379e+003, 3.618338e-002
3.550307e+003, 3.509859e-002
3.552236e+003, 3.250493e-002
3.554164e+003, 3.432211e-002
3.556093e+003, 3.665255e-002
3.558021e+003, 3.497431e-002
3.559949e+003, 3.318629e-002
3.561878e+003, 3.427909e-002
3.563806e+003, 3.280734e-002
3.565735e+003, 2.794042e-002
3.567663e+003, 2.576539e-002
3.569592e+003, 2.717561e-002
3.571520e+003, 2.814353e-002
3.573449e+003, 2.823213e-002
3.575377e+003, 2.835797e-002
3.577306e+003, 2.539663e-002
3.579234e+003, 2.315986e-002
3.581163e+003, 2.608132e-002
3.583091e+003, 2.799386e-002
3.585020e+003, 2.652095e-002
3.586948e+003, 2.374427e-002
3.588876e+003, 2.486832e-002
3.590805e+003, 2.444168e-002
3.592733e+003, 2.112081e-002
3.594662e+003, 2.126806e-002
3.596590e+003, 2.122944e-002
3.598519e+003, 2.084841e-002
3.600447e+003, 2.192599e-002
3.602376e+003, 2.217776e-002
3.604304e+003, 2.501287e-002
3.606233e+003, 2.394918e-002
3.608161e+003, 1.970937e-002
3.610090e+003, 1.985228e-002
3.612018e+003, 2.107112e-002
3.613947e+003, 2.033347e-002
3.615875e+003, 2.059312e-002
3.617803e+003, 1.800409e-002
3.619732e+003, 1.377546e-002
3.621660e+003, 1.393131e-002
3.623589e+003, 1.625753e-002
3.625517e+003, 1.632587e-002
3.627446e+003, 1.713346e-002
3.629374e+003, 1.830919e-002
3.631303e+003, 1.662564e-002
3.633231e+003, 1.699362e-002
3.635160e+003, 1.669522e-002
3.637088e+003, 1.785077e-002
3.639017e+003, 1.892526e-002
3.640945e+003, 1.738180e-002
3.642874e+003, 1.443840e-002
3.644802e+003, 1.086019e-002
3.646730e+003, 9.987276e-003
3.648659e+003, 1.244889e-002
3.650587e+003, 1.219141e-002
3.652516e+003, 1.101554e-002
3.654444e+003, 1.136179e-002
3.656373e+003, 1.233237e-002
3.658301e+003, 1.267005e-002
3.660230e+003, 1.396327e-002
3.662158e+003, 1.529809e-002
3.664087e+003, 1.246693e-002
3.666015e+003, 9.528833e-003
3.667944e+003, 1.189742e-002
3.669872e+003, 1.393257e-002
3.671801e+003, 1.191147e-002
3.673729e+003, 7.750320e-003
3.675657e+003, 3.736020e-003
3.677586e+003, 2.760057e-003
3.679514e+003, 4.869187e-003
3.681443e+003, 6.387265e-003
3.683371e+003, 7.022732e-003
3.685300e+003, 4.896231e-003
3.687228e+003, 5.865456e-003
3.689157e+003, 9.728722e-003
3.691085e+003, 1.143799e-002
3.693014e+003, 6.590241e-003
3.694942e+003, 5.024221e-003
3.696871e+003, 7.333733e-003
3.698799e+003, 1.041394e-002
3.700728e+003, 1.249260e-002
3.702656e+003, 1.310366e-002
3.704584e+003, 1.208218e-002
3.706513e+003, 1.066597e-002
3.708441e+003, 1.052864e-002
3.710370e+003, 1.165127e-002
3.712298e+003, 1.155373e-002
3.714227e+003, 8.767892e-003
3.716155e+003, 8.096107e-003
3.718084e+003, 8.182003e-003
3.720012e+003, 6.855144e-003
3.721941e+003, 6.183105e-003
3.723869e+003, 7.091826e-003
3.725798e+003, 1.025128e-002
3.727726e+003, 8.226061e-003
3.729655e+003, 7.084511e-003
3.731583e+003, 8.858725e-003
3.733511e+003, 8.891881e-003
3.735440e+003, 9.235111e-003
3.737368e+003, 8.195568e-003
3.739297e+003, 7.657943e-003
3.741225e+003, 9.896914e-003
3.743154e+003, 1.116004e-002
3.745082e+003, 1.168013e-002
3.747011e+003, 8.606137e-003
3.748939e+003, 8.354585e-003
3.750868e+003, 1.007417e-002
3.752796e+003, 8.887183e-003
3.754725e+003, 6.206559e-003
3.756653e+003, 4.872103e-003
3.758582e+003, 7.923958e-003
3.760510e+003, 8.692197e-003
3.762438e+003, 1.007071e-002
3.764367e+003, 1.036554e-002
3.766295e+003, 1.007900e-002
3.768224e+003, 9.824886e-003
3.770152e+003, 7.031202e-003
3.772081e+003, 6.649991e-003
3.774009e+003, 5.747620e-003
3.775938e+003, 5.741010e-003
3.777866e+003, 5.867045e-003
3.779795e+003, 6.756869e-003
3.781723e+003, 8.052864e-003
3.783652e+003, 8.158631e-003
3.785580e+003, 8.177165e-003
3.787509e+003, 8.493372e-003
3.789437e+003, 1.040960e-002
3.791365e+003, 1.167920e-002
3.793294e+003, 8.385560e-003
3.795222e+003, 6.667494e-003
3.797151e+003, 8.611596e-003
3.799079e+003, 7.383072e-003
3.801008e+003, 7.150262e-003
3.802936e+003, 6.562486e-003
3.804865e+003, 6.270295e-003
3.806793e+003, 9.139308e-003
3.808722e+003, 1.309567e-002
3.810650e+003, 9.970334e-003
3.812579e+003, 5.626271e-003
3.814507e+003, 6.939041e-003
3.816436e+003, 1.039261e-002
3.818364e+003, 9.488219e-003
3.820292e+003, 6.972323e-003
3.822221e+003, 6.587361e-003
3.824149e+003, 5.887214e-003
3.826078e+003, 7.313149e-003
3.828006e+003, 7.967954e-003
3.829935e+003, 6.476946e-003
3.831863e+003, 7.023024e-003
3.833792e+003, 9.391135e-003
3.835720e+003, 9.699955e-003
3.837649e+003, 7.787446e-003
3.839577e+003, 8.435427e-003
3.841506e+003, 1.083994e-002
3.843434e+003, 1.173519e-002
3.845363e+003, 1.080415e-002
3.847291e+003, 8.794503e-003
3.849219e+003, 8.170024e-003
3.851148e+003, 6.877076e-003
3.853076e+003, 7.185783e-003
3.855005e+003, 6.626447e-003
3.856933e+003, 4.822962e-003
3.858862e+003, 6.930535e-003
3.860790e+003, 8.984094e-003
3.862719e+003, 9.479813e-003
3.864647e+003, 7.618319e-003
3.866576e+003, 7.034467e-003
3.868504e+003, 6.380232e-003
3.870433e+003, 7.749425e-003
3.872361e+003, 7.158263e-003
3.874290e+003, 7.801909e-003
3.876218e+003, 9.948964e-003
3.878146e+003, 1.097150e-002
3.880075e+003, 8.716912e-003
3.882003e+003, 7.347029e-003
3.883932e+003, 8.743830e-003
3.885860e+003, 8.774197e-003
3.887789e+003, 8.999486e-003
3.889717e+003, 7.994647e-003
3.891646e+003, 6.356231e-003
3.893574e+003, 7.066329e-003
3.895503e+003, 6.982736e-003
3.897431e+003, 6.939135e-003
3.899360e+003, 7.873530e-003
3.901288e+003, 7.112037e-003
3.903217e+003, 7.028292e-003
3.905145e+003, 7.365597e-003
3.907073e+003, 8.426128e-003
3.909002e+003, 9.257440e-003
3.910930e+003, 9.811950e-003
3.912859e+003, 8.481499e-003
3.914787e+003, 9.178058e-003
3.916716e+003, 1.012923e-002
3.918644e+003, 8.884818e-003
3.920573e+003, 9.744230e-003
3.922501e+003, 1.202472e-002
3.924430e+003, 9.136021e-003
3.926358e+003, 7.579009e-003
3.928287e+003, 6.233256e-003
3.930215e+003, 5.831207e-003
3.932144e+003, 8.927567e-003
3.934072e+003, 8.795428e-003
3.936000e+003, 8.618987e-003
3.937929e+003, 9.503139e-003
3.939857e+003, 7.464340e-003
3.941786e+003, 6.435420e-003
3.943714e+003, 9.030643e-003
3.945643e+003, 1.203581e-002
3.947571e+003, 9.230178e-003
3.949500e+003, 4.641559e-003
3.951428e+003, 4.728662e-003
3.953357e+003, 8.157324e-003
3.955285e+003, 1.008215e-002
3.957214e+003, 8.637154e-003
3.959142e+003, 9.341619e-003
3.961071e+003, 1.139877e-002
3.962999e+003, 1.108196e-002
3.964927e+003, 8.379055e-003
3.966856e+003, 8.073444e-003
3.968784e+003, 9.738947e-003
3.970713e+003, 9.508193e-003
3.972641e+003, 6.681365e-003
3.974570e+003, 4.422226e-003
3.976498e+003, 6.180577e-003
3.978427e+003, 7.401272e-003
3.980355e+003, 5.192216e-003
3.982284e+003, 6.319940e-003
3.984212e+003, 8.729127e-003
3.986141e+003, 1.102968e-002
3.988069e+003, 9.803756e-003
3.989998e+003, 8.188931e-003
3.991926e+003, 8.045405e-003
3.993854e+003, 8.249143e-003
3.995783e+003, 8.831391e-003
3.997711e+003, 9.726722e-003
3.999640e+003, 9.727042e-003
4.001568e+003, 0.000000e+000
##END=



