##NAMES=Topaz
##RRUFFID=R050404
##IDEAL CHEMISTRY=Al_2_SiO_4_F_2_
##LOCALITY=Minas Gerais, Brazil
##OWNER=RRUFF
##SOURCE=Gerry Gibbs
##DESCRIPTION=Colorless cleavage fragments
##STATUS=The identification of this mineral has been confirmed by X-ray diffraction and chemical analysis
##URL=rruff.info/R050404
##MEASURED CHEMISTRY=Al_2.00_Si_1.00_O_4_(F_0.86_(OH)_0.14_)_2_
3.991926e+002, 2.052124e-001
4.011211e+002, 1.846429e-001
4.030496e+002, 1.855306e-001
4.049780e+002, 1.940477e-001
4.069065e+002, 2.068677e-001
4.088350e+002, 2.104652e-001
4.107634e+002, 2.174359e-001
4.126919e+002, 2.340567e-001
4.146204e+002, 2.444366e-001
4.165488e+002, 2.495381e-001
4.184773e+002, 2.547168e-001
4.204058e+002, 2.576087e-001
4.223342e+002, 2.505655e-001
4.242627e+002, 2.465166e-001
4.261912e+002, 2.575469e-001
4.281196e+002, 2.700565e-001
4.300481e+002, 2.742468e-001
4.319766e+002, 2.790711e-001
4.339050e+002, 2.873720e-001
4.358335e+002, 2.907860e-001
4.377620e+002, 2.851845e-001
4.396904e+002, 2.860452e-001
4.416189e+002, 2.978709e-001
4.435474e+002, 3.032820e-001
4.454758e+002, 2.984954e-001
4.474043e+002, 2.921656e-001
4.493328e+002, 2.890179e-001
4.512612e+002, 2.884032e-001
4.531897e+002, 2.809871e-001
4.551182e+002, 2.677031e-001
4.570466e+002, 2.544420e-001
4.589751e+002, 2.393742e-001
4.609036e+002, 2.241358e-001
4.628320e+002, 2.117114e-001
4.647605e+002, 2.040968e-001
4.666890e+002, 1.956941e-001
4.686174e+002, 1.863535e-001
4.705459e+002, 1.822584e-001
4.724744e+002, 1.893037e-001
4.744028e+002, 2.044548e-001
4.763313e+002, 2.179825e-001
4.782598e+002, 2.259940e-001
4.801882e+002, 2.269577e-001
4.821167e+002, 2.197213e-001
4.840452e+002, 2.030775e-001
4.859736e+002, 1.821105e-001
4.879021e+002, 1.672557e-001
4.898306e+002, 1.610345e-001
4.917590e+002, 1.603974e-001
4.936875e+002, 1.601235e-001
4.956160e+002, 1.590418e-001
4.975444e+002, 1.598519e-001
4.994729e+002, 1.623379e-001
5.014014e+002, 1.644650e-001
5.033298e+002, 1.658692e-001
5.052583e+002, 1.668750e-001
5.071868e+002, 1.672863e-001
5.091152e+002, 1.667190e-001
5.110437e+002, 1.654367e-001
5.129722e+002, 1.627615e-001
5.149006e+002, 1.607420e-001
5.168291e+002, 1.610201e-001
5.187576e+002, 1.625357e-001
5.206860e+002, 1.629277e-001
5.226145e+002, 1.635790e-001
5.245430e+002, 1.607587e-001
5.264714e+002, 1.536615e-001
5.283999e+002, 1.428261e-001
5.303284e+002, 1.326353e-001
5.322568e+002, 1.260259e-001
5.341853e+002, 1.204851e-001
5.361138e+002, 1.157289e-001
5.380422e+002, 1.127028e-001
5.399707e+002, 1.097954e-001
5.418992e+002, 1.071987e-001
5.438276e+002, 1.049266e-001
5.457561e+002, 1.032647e-001
5.476846e+002, 1.029593e-001
5.496130e+002, 1.056565e-001
5.515415e+002, 1.103503e-001
5.534700e+002, 1.192227e-001
5.553984e+002, 1.315336e-001
5.573269e+002, 1.401948e-001
5.592554e+002, 1.419518e-001
5.611838e+002, 1.392579e-001
5.631123e+002, 1.343123e-001
5.650408e+002, 1.285246e-001
5.669692e+002, 1.206472e-001
5.688977e+002, 1.107145e-001
5.708262e+002, 1.029094e-001
5.727546e+002, 1.005097e-001
5.746831e+002, 1.052285e-001
5.766116e+002, 1.169842e-001
5.785400e+002, 1.326104e-001
5.804685e+002, 1.483072e-001
5.823970e+002, 1.595691e-001
5.843254e+002, 1.641312e-001
5.862539e+002, 1.643073e-001
5.881824e+002, 1.632667e-001
5.901108e+002, 1.677476e-001
5.920393e+002, 1.811554e-001
5.939678e+002, 1.996752e-001
5.958962e+002, 2.195908e-001
5.978247e+002, 2.380058e-001
5.997532e+002, 2.557493e-001
6.016816e+002, 2.710404e-001
6.036101e+002, 2.825162e-001
6.055386e+002, 2.924979e-001
6.074670e+002, 2.999315e-001
6.093955e+002, 3.032570e-001
6.113240e+002, 3.037554e-001
6.132524e+002, 3.008968e-001
6.151809e+002, 2.939379e-001
6.171094e+002, 2.836089e-001
6.190378e+002, 2.701308e-001
6.209663e+002, 2.564923e-001
6.228948e+002, 2.429731e-001
6.248232e+002, 2.293220e-001
6.267517e+002, 2.169816e-001
6.286802e+002, 2.050101e-001
6.306086e+002, 1.932754e-001
6.325371e+002, 1.833423e-001
6.344656e+002, 1.744894e-001
6.363940e+002, 1.655423e-001
6.383225e+002, 1.572280e-001
6.402510e+002, 1.494976e-001
6.421794e+002, 1.417041e-001
6.441079e+002, 1.342284e-001
6.460364e+002, 1.276383e-001
6.479648e+002, 1.209568e-001
6.498933e+002, 1.140592e-001
6.518218e+002, 1.077474e-001
6.537502e+002, 1.015676e-001
6.556787e+002, 9.569308e-002
6.576072e+002, 9.034970e-002
6.595356e+002, 8.456632e-002
6.614641e+002, 7.896122e-002
6.633926e+002, 7.343709e-002
6.653210e+002, 6.799791e-002
6.672495e+002, 6.297497e-002
6.691780e+002, 5.791901e-002
6.711064e+002, 5.308101e-002
6.730349e+002, 4.907755e-002
6.749634e+002, 4.583614e-002
6.768918e+002, 4.336251e-002
6.788203e+002, 4.120152e-002
6.807488e+002, 3.882609e-002
6.826772e+002, 3.630874e-002
6.846057e+002, 3.409813e-002
6.865342e+002, 3.175599e-002
6.884626e+002, 2.947383e-002
6.903911e+002, 2.848716e-002
6.923196e+002, 2.831944e-002
6.942480e+002, 2.846779e-002
6.961765e+002, 2.929354e-002
6.981050e+002, 3.032135e-002
7.000334e+002, 3.216301e-002
7.019619e+002, 3.537982e-002
7.038904e+002, 3.848327e-002
7.058188e+002, 4.004424e-002
7.077473e+002, 3.899064e-002
7.096758e+002, 3.570661e-002
7.116042e+002, 3.186755e-002
7.135327e+002, 2.837010e-002
7.154612e+002, 2.567789e-002
7.173896e+002, 2.375965e-002
7.193181e+002, 2.279957e-002
7.212466e+002, 2.215793e-002
7.231750e+002, 2.164908e-002
7.251035e+002, 2.128128e-002
7.270320e+002, 2.126225e-002
7.289604e+002, 2.127370e-002
7.308889e+002, 2.131576e-002
7.328174e+002, 2.169138e-002
7.347458e+002, 2.224664e-002
7.366743e+002, 2.243065e-002
7.386028e+002, 2.250803e-002
7.405313e+002, 2.268669e-002
7.424597e+002, 2.307605e-002
7.443882e+002, 2.314402e-002
7.463167e+002, 2.329361e-002
7.482451e+002, 2.392290e-002
7.501736e+002, 2.494276e-002
7.521021e+002, 2.592389e-002
7.540305e+002, 2.687206e-002
7.559590e+002, 2.828829e-002
7.578875e+002, 2.962302e-002
7.598159e+002, 3.131290e-002
7.617444e+002, 3.376038e-002
7.636729e+002, 3.641572e-002
7.656013e+002, 3.974969e-002
7.675298e+002, 4.339344e-002
7.694583e+002, 4.529363e-002
7.713867e+002, 4.544798e-002
7.733152e+002, 4.529521e-002
7.752437e+002, 4.540917e-002
7.771721e+002, 4.610676e-002
7.791006e+002, 4.730620e-002
7.810291e+002, 4.950085e-002
7.829575e+002, 5.218688e-002
7.848860e+002, 5.521360e-002
7.868145e+002, 5.903368e-002
7.887429e+002, 6.346048e-002
7.906714e+002, 6.816046e-002
7.925999e+002, 7.313523e-002
7.945283e+002, 7.896148e-002
7.964568e+002, 8.477589e-002
7.983853e+002, 9.076305e-002
8.003137e+002, 9.770645e-002
8.022422e+002, 1.054357e-001
8.041707e+002, 1.133420e-001
8.060991e+002, 1.215606e-001
8.080276e+002, 1.298862e-001
8.099561e+002, 1.385635e-001
8.118845e+002, 1.470855e-001
8.138130e+002, 1.563243e-001
8.157415e+002, 1.664457e-001
8.176699e+002, 1.762114e-001
8.195984e+002, 1.862719e-001
8.215269e+002, 1.966374e-001
8.234553e+002, 2.063880e-001
8.253838e+002, 2.161090e-001
8.273123e+002, 2.268757e-001
8.292407e+002, 2.373694e-001
8.311692e+002, 2.474668e-001
8.330977e+002, 2.577215e-001
8.350261e+002, 2.676188e-001
8.369546e+002, 2.772471e-001
8.388831e+002, 2.862823e-001
8.408115e+002, 2.942873e-001
8.427400e+002, 3.013698e-001
8.446685e+002, 3.068736e-001
8.465969e+002, 3.115794e-001
8.485254e+002, 3.154887e-001
8.504539e+002, 3.199176e-001
8.523823e+002, 3.243741e-001
8.543108e+002, 3.278308e-001
8.562393e+002, 3.315593e-001
8.581677e+002, 3.345208e-001
8.600962e+002, 3.360642e-001
8.620247e+002, 3.365390e-001
8.639531e+002, 3.354763e-001
8.658816e+002, 3.330984e-001
8.678101e+002, 3.303737e-001
8.697385e+002, 3.268607e-001
8.716670e+002, 3.212544e-001
8.735955e+002, 3.150481e-001
8.755239e+002, 3.087182e-001
8.774524e+002, 3.010442e-001
8.793809e+002, 2.920379e-001
8.813093e+002, 2.819358e-001
8.832378e+002, 2.714639e-001
8.851663e+002, 2.616397e-001
8.870947e+002, 2.527859e-001
8.890232e+002, 2.452427e-001
8.909517e+002, 2.389780e-001
8.928801e+002, 2.339073e-001
8.948085e+002, 2.293951e-001
8.967370e+002, 2.245430e-001
8.986655e+002, 2.193415e-001
9.005939e+002, 2.136106e-001
9.025224e+002, 2.079663e-001
9.044509e+002, 2.027373e-001
9.063793e+002, 1.976671e-001
9.083078e+002, 1.931759e-001
9.102363e+002, 1.889818e-001
9.121647e+002, 1.851919e-001
9.140932e+002, 1.815594e-001
9.160217e+002, 1.777320e-001
9.179501e+002, 1.733530e-001
9.198786e+002, 1.685930e-001
9.218071e+002, 1.638997e-001
9.237355e+002, 1.595381e-001
9.256640e+002, 1.550044e-001
9.275925e+002, 1.515895e-001
9.295209e+002, 1.493079e-001
9.314494e+002, 1.477319e-001
9.333779e+002, 1.462624e-001
9.353063e+002, 1.447242e-001
9.372348e+002, 1.424513e-001
9.391633e+002, 1.389541e-001
9.410917e+002, 1.342458e-001
9.430202e+002, 1.286314e-001
9.449487e+002, 1.231979e-001
9.468771e+002, 1.184250e-001
9.488056e+002, 1.140173e-001
9.507341e+002, 1.098682e-001
9.526625e+002, 1.054352e-001
9.545910e+002, 1.011416e-001
9.565195e+002, 9.732452e-002
9.584479e+002, 9.327261e-002
9.603764e+002, 8.985130e-002
9.623049e+002, 8.647185e-002
9.642333e+002, 8.257427e-002
9.661618e+002, 7.907403e-002
9.680903e+002, 7.584967e-002
9.700187e+002, 7.251801e-002
9.719472e+002, 6.930979e-002
9.738757e+002, 6.596132e-002
9.758041e+002, 6.293110e-002
9.777326e+002, 6.026927e-002
9.796611e+002, 5.814619e-002
9.815895e+002, 5.655613e-002
9.835180e+002, 5.525666e-002
9.854465e+002, 5.472539e-002
9.873749e+002, 5.480494e-002
9.893034e+002, 5.553146e-002
9.912319e+002, 5.680588e-002
9.931603e+002, 5.863613e-002
9.950888e+002, 6.060022e-002
9.970173e+002, 6.257299e-002
9.989457e+002, 6.400140e-002
1.000874e+003, 6.431870e-002
1.002803e+003, 6.350919e-002
1.004731e+003, 6.144363e-002
1.006660e+003, 5.868170e-002
1.008588e+003, 5.564826e-002
1.010517e+003, 5.276454e-002
1.012445e+003, 4.965880e-002
1.014373e+003, 4.649126e-002
1.016302e+003, 4.356473e-002
1.018230e+003, 4.069705e-002
1.020159e+003, 3.800634e-002
1.022087e+003, 3.594291e-002
1.024016e+003, 3.393473e-002
1.025944e+003, 3.184057e-002
1.027873e+003, 3.012866e-002
1.029801e+003, 2.857443e-002
1.031730e+003, 2.712887e-002
1.033658e+003, 2.557934e-002
1.035587e+003, 2.387825e-002
1.037515e+003, 2.267088e-002
1.039444e+003, 2.114626e-002
1.041372e+003, 1.961261e-002
1.043301e+003, 1.850036e-002
1.045229e+003, 1.732204e-002
1.047157e+003, 1.597523e-002
1.049086e+003, 1.486194e-002
1.051014e+003, 1.394094e-002
1.052943e+003, 1.308836e-002
1.054871e+003, 1.233707e-002
1.056800e+003, 1.169923e-002
1.058728e+003, 1.111936e-002
1.060657e+003, 1.033681e-002
1.062585e+003, 9.488223e-003
1.064514e+003, 8.993603e-003
1.066442e+003, 8.584256e-003
1.068371e+003, 7.943020e-003
1.070299e+003, 7.756243e-003
1.072228e+003, 7.492572e-003
1.074156e+003, 6.979626e-003
1.076084e+003, 6.682233e-003
1.078013e+003, 6.433148e-003
1.079941e+003, 6.255106e-003
1.081870e+003, 6.067495e-003
1.083798e+003, 5.703773e-003
1.085727e+003, 5.471728e-003
1.087655e+003, 5.522538e-003
1.089584e+003, 5.226479e-003
1.091512e+003, 4.738302e-003
1.093441e+003, 4.404788e-003
1.095369e+003, 4.361531e-003
1.097298e+003, 4.341288e-003
1.099226e+003, 4.038841e-003
1.101155e+003, 3.789603e-003
1.103083e+003, 3.878769e-003
1.105011e+003, 4.059065e-003
1.106940e+003, 3.780235e-003
1.108868e+003, 3.231338e-003
1.110797e+003, 2.965250e-003
1.112725e+003, 3.019591e-003
1.114654e+003, 2.831979e-003
1.116582e+003, 2.646753e-003
1.118511e+003, 2.684117e-003
1.120439e+003, 2.696995e-003
1.122368e+003, 2.666636e-003
1.124296e+003, 2.620879e-003
1.126225e+003, 2.956313e-003
1.128153e+003, 3.210095e-003
1.130082e+003, 2.860818e-003
1.132010e+003, 2.774522e-003
1.133938e+003, 2.918806e-003
1.135867e+003, 2.834998e-003
1.137795e+003, 2.804209e-003
1.139724e+003, 3.117025e-003
1.141652e+003, 3.376040e-003
1.143581e+003, 3.506853e-003
1.145509e+003, 3.927368e-003
1.147438e+003, 4.962223e-003
1.149366e+003, 6.125865e-003
1.151295e+003, 7.898724e-003
1.153223e+003, 1.038034e-002
1.155152e+003, 1.374200e-002
1.157080e+003, 1.836620e-002
1.159009e+003, 2.346841e-002
1.160937e+003, 2.792443e-002
1.162865e+003, 3.083818e-002
1.164794e+003, 3.038600e-002
1.166722e+003, 2.636851e-002
1.168651e+003, 2.092994e-002
1.170579e+003, 1.562966e-002
1.172508e+003, 1.085458e-002
1.174436e+003, 7.248844e-003
1.176365e+003, 5.010363e-003
1.178293e+003, 3.527044e-003
1.180222e+003, 2.383422e-003
1.182150e+003, 1.360235e-003
1.184079e+003, 7.173318e-004
1.186007e+003, 5.949102e-004
1.187936e+003, 5.912276e-004
1.189864e+003, 3.358524e-004
1.191792e+003, -1.383901e-004
1.193721e+003, -4.024122e-004
1.195649e+003, -3.420171e-004
1.197578e+003, -4.547788e-004
1.199506e+003, -7.403507e-004
1.201435e+003, -7.391161e-004
1.203363e+003, -6.772701e-004
1.205292e+003, -8.238340e-004
1.207220e+003, -8.745920e-004
1.209149e+003, -9.405806e-004
1.211077e+003, -1.105804e-003
1.213006e+003, -1.447125e-003
1.214934e+003, -1.557245e-003
1.216863e+003, -1.683681e-003
1.218791e+003, -1.914426e-003
1.220719e+003, -2.019206e-003
1.222648e+003, -2.137200e-003
1.224576e+003, -2.457671e-003
1.226505e+003, -2.501547e-003
1.228433e+003, -2.472057e-003
1.230362e+003, -2.506817e-003
1.232290e+003, -2.552765e-003
1.234219e+003, -2.692274e-003
1.236147e+003, -2.732058e-003
1.238076e+003, -2.830511e-003
1.240004e+003, -3.080496e-003
1.241933e+003, -3.255919e-003
1.243861e+003, -3.368377e-003
1.245790e+003, -3.384634e-003
1.247718e+003, -3.339050e-003
1.249646e+003, -3.281574e-003
1.251575e+003, -3.312400e-003
1.253503e+003, -3.350652e-003
1.255432e+003, -3.292218e-003
1.257360e+003, -3.167148e-003
1.259289e+003, -3.102640e-003
1.261217e+003, -3.236190e-003
1.263146e+003, -3.468388e-003
1.265074e+003, -3.680284e-003
1.267003e+003, -3.755030e-003
1.268931e+003, -3.676344e-003
1.270860e+003, -3.439397e-003
1.272788e+003, -3.590194e-003
1.274717e+003, -3.564286e-003
1.276645e+003, -3.470524e-003
1.278573e+003, -3.581301e-003
1.280502e+003, -3.562758e-003
1.282430e+003, -3.385868e-003
1.284359e+003, -3.412574e-003
1.286287e+003, -3.437268e-003
1.288216e+003, -3.419852e-003
1.290144e+003, -3.425822e-003
1.292073e+003, -3.495020e-003
1.294001e+003, -3.407298e-003
1.295930e+003, -3.420442e-003
1.297858e+003, -3.325805e-003
1.299787e+003, -3.362128e-003
1.301715e+003, -3.435927e-003
1.303644e+003, -3.343206e-003
1.305572e+003, -3.362171e-003
1.307500e+003, -3.487797e-003
1.309429e+003, -3.524549e-003
1.311357e+003, -3.324501e-003
1.313286e+003, -3.119794e-003
1.315214e+003, -3.044449e-003
1.317143e+003, -3.019003e-003
1.319071e+003, -3.218554e-003
1.321000e+003, -3.268698e-003
1.322928e+003, -3.000868e-003
1.324857e+003, -3.158021e-003
1.326785e+003, -3.401985e-003
1.328714e+003, -3.348936e-003
1.330642e+003, -3.292513e-003
1.332571e+003, -3.513991e-003
1.334499e+003, -3.879923e-003
1.336427e+003, -3.895426e-003
1.338356e+003, -3.817614e-003
1.340284e+003, -4.054690e-003
1.342213e+003, -4.193841e-003
1.344141e+003, -4.080599e-003
1.346070e+003, -4.325925e-003
1.347998e+003, -4.817571e-003
1.349927e+003, -5.056652e-003
1.351855e+003, -5.322804e-003
1.353784e+003, -5.673863e-003
1.355712e+003, -6.030456e-003
1.357641e+003, -6.425124e-003
1.359569e+003, -6.504295e-003
1.361498e+003, -6.196739e-003
1.363426e+003, -6.359103e-003
1.365354e+003, -6.278218e-003
1.367283e+003, -6.176623e-003
1.369211e+003, -6.156690e-003
1.371140e+003, -5.882969e-003
1.373068e+003, -5.994349e-003
1.374997e+003, -6.290098e-003
1.376925e+003, -6.199999e-003
1.378854e+003, -6.096402e-003
1.380782e+003, -5.845057e-003
1.382711e+003, -5.509351e-003
1.384639e+003, -5.200962e-003
1.386568e+003, -5.069909e-003
1.388496e+003, -5.080929e-003
1.390424e+003, -4.831417e-003
1.392353e+003, -4.435924e-003
1.394281e+003, -4.253231e-003
1.396210e+003, -4.205272e-003
1.398138e+003, -4.319046e-003
1.400067e+003, -4.554252e-003
1.401995e+003, -4.461848e-003
1.403924e+003, -4.258301e-003
1.405852e+003, -4.192448e-003
1.407781e+003, -4.361800e-003
1.409709e+003, -4.349503e-003
1.411638e+003, -4.365670e-003
1.413566e+003, -4.348613e-003
1.415495e+003, -4.234710e-003
1.417423e+003, -4.341173e-003
1.419351e+003, -4.213040e-003
1.421280e+003, -4.020466e-003
1.423208e+003, -3.904285e-003
1.425137e+003, -3.846695e-003
1.427065e+003, -3.845698e-003
1.428994e+003, -3.954926e-003
1.430922e+003, -4.041618e-003
1.432851e+003, -4.057913e-003
1.434779e+003, -3.897856e-003
1.436708e+003, -4.179874e-003
1.438636e+003, -4.655016e-003
1.440565e+003, -4.759557e-003
1.442493e+003, -4.633242e-003
1.444422e+003, -4.702238e-003
1.446350e+003, -4.929515e-003
1.448278e+003, -5.093140e-003
1.450207e+003, -5.175130e-003
1.452135e+003, -5.305169e-003
1.454064e+003, -5.696928e-003
1.455992e+003, -5.924753e-003
1.457921e+003, -6.135574e-003
1.459849e+003, -6.218894e-003
1.461778e+003, -6.252049e-003
1.463706e+003, -6.387642e-003
1.465635e+003, -6.376539e-003
1.467563e+003, -6.143309e-003
1.469492e+003, -5.461756e-003
1.471420e+003, -4.371129e-003
1.473349e+003, -3.290498e-003
1.475277e+003, -2.650459e-003
1.477205e+003, -2.396212e-003
1.479134e+003, -2.270864e-003
1.481062e+003, -2.117716e-003
1.482991e+003, -2.160975e-003
1.484919e+003, -1.910805e-003
1.486848e+003, -1.746013e-003
1.488776e+003, -2.073578e-003
1.490705e+003, -2.283952e-003
1.492633e+003, -2.112225e-003
1.494562e+003, -1.947899e-003
1.496490e+003, -1.912296e-003
1.498419e+003, -1.906048e-003
1.500347e+003, -1.736778e-003
1.502276e+003, -1.711407e-003
1.504204e+003, -1.526917e-003
1.506132e+003, -1.280985e-003
1.508061e+003, -1.479035e-003
1.509989e+003, -1.626225e-003
1.511918e+003, -1.547093e-003
1.513846e+003, -1.801928e-003
1.515775e+003, -1.727838e-003
1.517703e+003, -1.496319e-003
1.519632e+003, -1.596427e-003
1.521560e+003, -1.779183e-003
1.523489e+003, -2.027573e-003
1.525417e+003, -2.104055e-003
1.527346e+003, -1.834348e-003
1.529274e+003, -1.876431e-003
1.531203e+003, -2.220204e-003
1.533131e+003, -2.349208e-003
1.535059e+003, -2.290833e-003
1.536988e+003, -2.344765e-003
1.538916e+003, -2.479246e-003
1.540845e+003, -2.602689e-003
1.542773e+003, -2.706099e-003
1.544702e+003, -3.053480e-003
1.546630e+003, -2.901837e-003
1.548559e+003, -2.791313e-003
1.550487e+003, -3.043540e-003
1.552416e+003, -2.861013e-003
1.554344e+003, -2.706389e-003
1.556273e+003, -2.782776e-003
1.558201e+003, -2.774656e-003
1.560130e+003, -2.838012e-003
1.562058e+003, -2.875072e-003
1.563986e+003, -2.734843e-003
1.565915e+003, -2.740386e-003
1.567843e+003, -2.772631e-003
1.569772e+003, -2.663156e-003
1.571700e+003, -2.662122e-003
1.573629e+003, -2.745940e-003
1.575557e+003, -2.732354e-003
1.577486e+003, -2.822530e-003
1.579414e+003, -3.024674e-003
1.581343e+003, -3.011831e-003
1.583271e+003, -2.857070e-003
1.585200e+003, -3.059285e-003
1.587128e+003, -3.464817e-003
1.589057e+003, -3.629735e-003
1.590985e+003, -3.615576e-003
1.592913e+003, -3.281591e-003
1.594842e+003, -3.114403e-003
1.596770e+003, -3.599039e-003
1.598699e+003, -4.308326e-003
1.600627e+003, -4.206467e-003
1.602556e+003, -3.771326e-003
1.604484e+003, -4.028405e-003
1.606413e+003, -4.360852e-003
1.608341e+003, -4.163967e-003
1.610270e+003, -3.902660e-003
1.612198e+003, -4.261829e-003
1.614127e+003, -4.583040e-003
1.616055e+003, -4.494828e-003
1.617984e+003, -4.106857e-003
1.619912e+003, -4.042218e-003
1.621840e+003, -4.172795e-003
1.623769e+003, -4.362199e-003
1.625697e+003, -4.552529e-003
1.627626e+003, -4.457186e-003
1.629554e+003, -4.224631e-003
1.631483e+003, -4.207598e-003
1.633411e+003, -4.229895e-003
1.635340e+003, -4.441156e-003
1.637268e+003, -4.461542e-003
1.639197e+003, -4.633340e-003
1.641125e+003, -4.907511e-003
1.643054e+003, -4.707684e-003
1.644982e+003, -4.223286e-003
1.646911e+003, -4.136879e-003
1.648839e+003, -4.133576e-003
1.650767e+003, -3.918021e-003
1.652696e+003, -4.092935e-003
1.654624e+003, -4.367607e-003
1.656553e+003, -4.334999e-003
1.658481e+003, -4.204351e-003
1.660410e+003, -4.241948e-003
1.662338e+003, -4.192060e-003
1.664267e+003, -3.927027e-003
1.666195e+003, -3.929161e-003
1.668124e+003, -4.365718e-003
1.670052e+003, -4.703622e-003
1.671981e+003, -4.532405e-003
1.673909e+003, -4.258625e-003
1.675838e+003, -4.102873e-003
1.677766e+003, -3.936985e-003
1.679694e+003, -3.924239e-003
1.681623e+003, -3.719393e-003
1.683551e+003, -3.581122e-003
1.685480e+003, -3.744703e-003
1.687408e+003, -3.673445e-003
1.689337e+003, -3.372429e-003
1.691265e+003, -3.414934e-003
1.693194e+003, -3.714676e-003
1.695122e+003, -3.790992e-003
1.697051e+003, -3.884022e-003
1.698979e+003, -3.820620e-003
1.700908e+003, -3.751113e-003
1.702836e+003, -4.085091e-003
1.704765e+003, -4.293884e-003
1.706693e+003, -4.325165e-003
1.708621e+003, -4.703179e-003
1.710550e+003, -5.056966e-003
1.712478e+003, -5.139702e-003
1.714407e+003, -5.103573e-003
1.716335e+003, -5.279414e-003
1.718264e+003, -5.174933e-003
1.720192e+003, -5.197608e-003
1.722121e+003, -5.827512e-003
1.724049e+003, -6.232628e-003
1.725978e+003, -6.187591e-003
1.727906e+003, -6.305050e-003
1.729835e+003, -6.989789e-003
1.731763e+003, -8.154306e-003
1.733692e+003, -9.145019e-003
1.735620e+003, -9.833810e-003
1.737548e+003, -1.055052e-002
1.739477e+003, -1.105649e-002
1.741405e+003, -1.163669e-002
1.743334e+003, -1.152858e-002
1.745262e+003, -1.086134e-002
1.747191e+003, -1.023466e-002
1.749119e+003, -9.529793e-003
1.751048e+003, -8.307667e-003
1.752976e+003, -7.202695e-003
1.754905e+003, -5.774057e-003
1.756833e+003, -4.352049e-003
1.758762e+003, -3.443266e-003
1.760690e+003, -3.153874e-003
1.762619e+003, -2.952046e-003
1.764547e+003, -2.656438e-003
1.766475e+003, -2.336545e-003
1.768404e+003, -2.001434e-003
1.770332e+003, -1.609773e-003
1.772261e+003, -1.425276e-003
1.774189e+003, -1.497119e-003
1.776118e+003, -1.548963e-003
1.778046e+003, -1.393527e-003
1.779975e+003, -1.252734e-003
1.781903e+003, -1.305018e-003
1.783832e+003, -1.382486e-003
1.785760e+003, -1.221360e-003
1.787689e+003, -1.135265e-003
1.789617e+003, -9.159583e-004
1.791546e+003, -2.825671e-004
1.793474e+003, -3.013455e-004
1.795402e+003, -9.398345e-004
1.797331e+003, -9.608887e-004
1.799259e+003, -9.898453e-004
1.801188e+003, -1.079653e-003
1.803116e+003, -7.673412e-004
1.805045e+003, -7.464126e-004
1.806973e+003, -8.739484e-004
1.808902e+003, -9.455838e-004
1.810830e+003, -1.086931e-003
1.812759e+003, -6.079134e-004
1.814687e+003, -6.327125e-004
1.816616e+003, -6.374746e-004
1.818544e+003, -8.266973e-004
1.820473e+003, -6.537149e-004
1.822401e+003, -3.402483e-004
1.824329e+003, -1.407536e-003
1.826258e+003, -1.897481e-003
1.828186e+003, -1.147918e-003
1.830115e+003, -6.899554e-004
1.832043e+003, -6.208101e-004
1.833972e+003, -6.201278e-004
1.835900e+003, -6.571883e-004
1.837829e+003, -8.817550e-004
1.839757e+003, -7.790367e-004
1.841686e+003, -4.547933e-004
1.843614e+003, -4.868937e-004
1.845543e+003, -5.070812e-004
1.847471e+003, -2.834328e-004
1.849400e+003, -7.101815e-005
1.851328e+003, -4.238840e-004
1.853256e+003, -5.057641e-004
1.855185e+003, -4.847277e-004
1.857113e+003, -1.110595e-003
1.859042e+003, -1.436716e-003
1.860970e+003, -1.080019e-003
1.862899e+003, -1.671339e-003
1.864827e+003, -2.267270e-003
1.866756e+003, -1.865076e-003
1.868684e+003, -1.665221e-003
1.870613e+003, -1.195043e-003
1.872541e+003, -1.290563e-003
1.874470e+003, -1.395753e-003
1.876398e+003, -1.089158e-003
1.878327e+003, -1.149881e-003
1.880255e+003, -1.765181e-003
1.882183e+003, -1.088780e-003
1.884112e+003, 5.912168e-005
1.886040e+003, -6.749494e-004
1.887969e+003, -1.915853e-003
1.889897e+003, -1.663440e-003
1.891826e+003, -1.550963e-003
1.893754e+003, -1.978189e-003
1.895683e+003, -1.123749e-003
1.897611e+003, -9.304096e-004
1.899540e+003, -1.177700e-003
1.901468e+003, -1.629296e-003
1.903397e+003, -1.535458e-003
1.905325e+003, -1.731830e-003
1.907254e+003, -2.160409e-003
1.909182e+003, -1.135416e-003
1.911110e+003, -1.293373e-003
1.913039e+003, -1.702849e-003
1.914967e+003, -1.533075e-003
1.916896e+003, 1.831960e-004
1.918824e+003, -4.784173e-004
1.920753e+003, -2.820563e-003
1.922681e+003, -2.907389e-003
1.924610e+003, -3.056136e-003
1.926538e+003, -3.207693e-003
1.928467e+003, -2.871244e-003
1.930395e+003, -2.854929e-003
1.932324e+003, -2.842531e-003
1.934252e+003, -2.417183e-003
1.936181e+003, -2.040426e-003
1.938109e+003, -3.454731e-003
1.940037e+003, -3.461625e-003
1.941966e+003, -2.412900e-003
1.943894e+003, -2.221121e-003
1.945823e+003, -2.770821e-003
1.947751e+003, -2.197335e-003
1.949680e+003, -7.802115e-004
1.951608e+003, -1.623855e-003
1.953537e+003, -4.075861e-003
1.955465e+003, -5.175692e-003
1.957394e+003, -4.779424e-003
1.959322e+003, -4.324174e-003
1.961251e+003, -3.332359e-003
1.963179e+003, -1.755205e-003
1.965108e+003, -1.331412e-003
1.967036e+003, -3.072398e-003
1.968964e+003, -4.523417e-003
1.970893e+003, -2.478339e-003
1.972821e+003, -2.435659e-003
1.974750e+003, -4.531501e-003
1.976678e+003, -1.650336e-003
1.978607e+003, -1.367330e-003
1.980535e+003, -4.053817e-003
1.982464e+003, -4.050442e-003
1.984392e+003, -4.257294e-003
1.986321e+003, -5.735803e-003
1.988249e+003, -3.870515e-003
1.990178e+003, -1.601054e-003
1.992106e+003, -9.935535e-004
1.994035e+003, -1.299489e-003
1.995963e+003, -3.672584e-003
1.997891e+003, -5.190536e-003
1.999820e+003, -6.086861e-003
2.001748e+003, -5.921076e-003
2.003677e+003, -3.113488e-003
2.005605e+003, -2.403041e-003
2.007534e+003, -3.924943e-003
2.009462e+003, -5.845420e-003
2.011391e+003, -5.331796e-003
2.013319e+003, -3.990907e-003
2.015248e+003, -4.317711e-003
2.017176e+003, -6.238110e-003
2.019105e+003, -6.559277e-003
2.021033e+003, -4.884671e-003
2.022962e+003, -4.346711e-003
2.024890e+003, -5.541477e-003
2.026818e+003, -5.706970e-003
2.028747e+003, -5.107510e-003
2.030675e+003, -5.239458e-003
2.032604e+003, -4.729442e-003
2.034532e+003, -4.497674e-003
2.036461e+003, -4.182457e-003
2.038389e+003, -4.641457e-003
2.040318e+003, -4.193137e-003
2.042246e+003, -3.070791e-003
2.044175e+003, -1.953198e-003
2.046103e+003, -1.597930e-003
2.048032e+003, -2.412187e-003
2.049960e+003, -1.702300e-003
2.051889e+003, -2.271077e-003
2.053817e+003, -1.645526e-003
2.055746e+003, -1.114349e-003
2.057674e+003, -1.741572e-003
2.059603e+003, -2.721547e-003
2.061531e+003, -3.374072e-003
2.063459e+003, -3.955802e-003
2.065388e+003, -2.657756e-003
2.067316e+003, -1.377134e-003
2.069245e+003, -2.636400e-003
2.071173e+003, -1.922501e-003
2.073102e+003, 5.113379e-004
2.075030e+003, -3.261793e-004
2.076959e+003, -1.370502e-003
2.078887e+003, -1.210958e-003
2.080816e+003, -1.319349e-003
2.082744e+003, -8.654508e-004
2.084673e+003, -1.222951e-003
2.086601e+003, -1.982698e-003
2.088530e+003, -1.442463e-003
2.090458e+003, -2.534064e-004
2.092386e+003, -4.742267e-004
2.094315e+003, -8.475195e-004
2.096243e+003, -3.860297e-004
2.098172e+003, -7.834670e-005
2.100100e+003, -4.014956e-005
2.102029e+003, 1.891158e-004
2.103957e+003, -3.073112e-004
2.105886e+003, -6.839028e-004
2.107814e+003, 5.789505e-004
2.109743e+003, 3.263714e-004
2.111671e+003, -2.419881e-004
2.113600e+003, -2.191743e-004
2.115528e+003, -1.892572e-005
2.117457e+003, -7.345447e-005
2.119385e+003, 1.952242e-005
2.121313e+003, -7.503669e-004
2.123242e+003, -2.410890e-003
2.125170e+003, -1.811982e-003
2.127099e+003, -1.545165e-003
2.129027e+003, -1.182818e-003
2.130956e+003, -1.253276e-003
2.132884e+003, -1.758252e-003
2.134813e+003, 9.769014e-005
2.136741e+003, -1.004582e-004
2.138670e+003, -2.584875e-003
2.140598e+003, -1.730772e-003
2.142527e+003, -1.857530e-003
2.144455e+003, -3.546106e-003
2.146384e+003, -2.875073e-003
2.148312e+003, -4.249484e-005
2.150240e+003, 1.588924e-004
2.152169e+003, -1.791729e-003
2.154097e+003, -3.468332e-003
2.156026e+003, -1.150799e-003
2.157954e+003, 1.362240e-003
2.159883e+003, 3.520112e-003
2.161811e+003, 4.902137e-003
2.163740e+003, 4.571810e-003
2.165668e+003, 9.892645e-004
2.167597e+003, 4.681035e-004
2.169525e+003, 1.566384e-003
2.171454e+003, 1.519204e-003
2.173382e+003, -1.510486e-003
2.175311e+003, -3.962534e-003
2.177239e+003, -3.514576e-003
2.179167e+003, -3.526970e-003
2.181096e+003, -1.346489e-003
2.183024e+003, -8.163537e-004
2.184953e+003, -1.793811e-004
2.186881e+003, 1.117922e-003
2.188810e+003, 2.701182e-004
2.190738e+003, -9.778385e-004
2.192667e+003, 9.339622e-004
2.194595e+003, 2.367146e-003
2.196524e+003, 4.294012e-006
2.198452e+003, -1.933641e-003
2.200381e+003, -2.533164e-003
2.202309e+003, -3.475726e-004
2.204238e+003, 1.069103e-003
2.206166e+003, -1.627267e-003
2.208094e+003, -1.728602e-003
2.210023e+003, -1.128362e-004
2.211951e+003, -8.111342e-004
2.213880e+003, -2.144701e-003
2.215808e+003, -1.592894e-003
2.217737e+003, -2.492388e-003
2.219665e+003, -2.008593e-003
2.221594e+003, -4.726101e-004
2.223522e+003, 3.240738e-004
2.225451e+003, 1.319782e-003
2.227379e+003, 1.474582e-003
2.229308e+003, 8.595165e-004
2.231236e+003, -8.457207e-005
2.233165e+003, -1.181552e-003
2.235093e+003, -1.094843e-003
2.237021e+003, 4.447571e-004
2.238950e+003, 1.506081e-004
2.240878e+003, 6.649073e-004
2.242807e+003, 1.038784e-003
2.244735e+003, 1.541960e-004
2.246664e+003, -2.239674e-004
2.248592e+003, 2.728007e-004
2.250521e+003, 3.929822e-004
2.252449e+003, 1.862366e-003
2.254378e+003, 2.771729e-003
2.256306e+003, 1.750136e-003
2.258235e+003, 3.679059e-004
2.260163e+003, -7.877338e-004
2.262092e+003, -1.273512e-003
2.264020e+003, -1.226948e-003
2.265948e+003, -6.457016e-004
2.267877e+003, 1.367215e-003
2.269805e+003, 2.149902e-003
2.271734e+003, 3.208602e-004
2.273662e+003, 7.631793e-005
2.275591e+003, 3.904204e-004
2.277519e+003, 1.273737e-003
2.279448e+003, 1.778604e-003
2.281376e+003, 8.738416e-004
2.283305e+003, 8.837428e-004
2.285233e+003, 1.533813e-003
2.287162e+003, 1.071314e-003
2.289090e+003, 1.401748e-004
2.291019e+003, -2.616298e-004
2.292947e+003, 4.225084e-004
2.294875e+003, 1.700835e-003
2.296804e+003, 2.771691e-003
2.298732e+003, 1.921696e-003
2.300661e+003, 4.722814e-004
2.302589e+003, 4.273382e-004
2.304518e+003, 5.573394e-004
2.306446e+003, 5.595644e-004
2.308375e+003, 1.015480e-003
2.310303e+003, 1.316599e-003
2.312232e+003, 7.786191e-004
2.314160e+003, 4.307897e-004
2.316089e+003, 1.426251e-003
2.318017e+003, 1.992071e-003
2.319946e+003, 1.782635e-003
2.321874e+003, 1.586222e-003
2.323802e+003, 2.299823e-003
2.325731e+003, 1.876247e-003
2.327659e+003, 1.744712e-004
2.329588e+003, 9.587286e-005
2.331516e+003, 6.744849e-004
2.333445e+003, 6.595693e-004
2.335373e+003, 4.989939e-004
2.337302e+003, 7.180847e-004
2.339230e+003, 8.079561e-004
2.341159e+003, 8.496912e-004
2.343087e+003, 8.769652e-004
2.345016e+003, 8.901298e-004
2.346944e+003, 3.548199e-004
2.348873e+003, 9.386445e-005
2.350801e+003, 4.139995e-004
2.352729e+003, 9.803700e-004
2.354658e+003, 7.954043e-004
2.356586e+003, 1.446204e-004
2.358515e+003, -8.892758e-005
2.360443e+003, 4.794675e-004
2.362372e+003, 1.382797e-003
2.364300e+003, 1.068941e-003
2.366229e+003, 4.112261e-004
2.368157e+003, 1.085766e-003
2.370086e+003, 1.603506e-003
2.372014e+003, 1.310452e-003
2.373942e+003, 8.911903e-004
2.375871e+003, 6.987387e-004
2.377799e+003, 7.761771e-004
2.379728e+003, 4.795192e-004
2.381656e+003, 1.597108e-003
2.383585e+003, 1.418860e-003
2.385513e+003, 6.466838e-004
2.387442e+003, 6.100044e-004
2.389370e+003, 4.387709e-004
2.391299e+003, 2.817922e-004
2.393227e+003, -1.638946e-004
2.395156e+003, 3.335291e-004
2.397084e+003, 8.435978e-004
2.399012e+003, 1.873968e-003
2.400941e+003, 2.060306e-003
2.402869e+003, 1.494122e-003
2.404798e+003, 1.494523e-003
2.406726e+003, 1.308869e-003
2.408655e+003, 6.150252e-004
2.410583e+003, 9.459563e-004
2.412512e+003, 9.835976e-004
2.414440e+003, 2.513106e-004
2.416369e+003, 8.180930e-004
2.418297e+003, 2.257867e-003
2.420226e+003, 2.591384e-003
2.422154e+003, 2.070226e-003
2.424083e+003, 1.703029e-003
2.426011e+003, 1.174898e-003
2.427939e+003, 5.755171e-004
2.429868e+003, 1.623234e-004
2.431796e+003, -2.658950e-005
2.433725e+003, 5.166199e-004
2.435653e+003, 8.317295e-004
2.437582e+003, 9.576019e-004
2.439510e+003, 1.721316e-003
2.441439e+003, 1.520292e-003
2.443367e+003, 4.986604e-004
2.445296e+003, 8.343735e-004
2.447224e+003, 1.665360e-003
2.449153e+003, 2.253577e-003
2.451081e+003, 2.896626e-003
2.453010e+003, 3.071942e-003
2.454938e+003, 1.517050e-003
2.456866e+003, 1.001355e-003
2.458795e+003, 1.836360e-003
2.460723e+003, 1.662133e-003
2.462652e+003, 1.931590e-004
2.464580e+003, -2.384250e-004
2.466509e+003, -4.061676e-005
2.468437e+003, 1.000095e-003
2.470366e+003, 8.456311e-004
2.472294e+003, 1.572104e-004
2.474223e+003, 7.841883e-004
2.476151e+003, 1.846774e-003
2.478080e+003, 1.762676e-003
2.480008e+003, 1.450749e-003
2.481937e+003, 1.911639e-003
2.483865e+003, 1.266525e-003
2.485793e+003, -1.612574e-004
2.487722e+003, 3.462043e-005
2.489650e+003, 2.250621e-004
2.491579e+003, 4.625780e-004
2.493507e+003, 7.652487e-004
2.495436e+003, 5.321186e-004
2.497364e+003, 3.666346e-004
2.499293e+003, 6.825827e-004
2.501221e+003, 7.891791e-004
2.503150e+003, -9.370607e-004
2.505078e+003, -1.508701e-003
2.507007e+003, -5.264360e-004
2.508935e+003, 4.122423e-004
2.510864e+003, 8.609926e-004
2.512792e+003, 7.855811e-004
2.514720e+003, 5.017188e-004
2.516649e+003, 5.821945e-004
2.518577e+003, 2.961230e-004
2.520506e+003, 7.620013e-004
2.522434e+003, 6.189061e-004
2.524363e+003, -3.918780e-004
2.526291e+003, -2.166104e-004
2.528220e+003, 1.225655e-003
2.530148e+003, 1.091558e-003
2.532077e+003, -7.723447e-004
2.534005e+003, -8.686620e-004
2.535934e+003, -2.700256e-004
2.537862e+003, -3.830457e-004
2.539791e+003, 2.428938e-004
2.541719e+003, 1.195440e-003
2.543647e+003, 4.196321e-004
2.545576e+003, 4.461952e-005
2.547504e+003, -8.955444e-005
2.549433e+003, -1.311427e-003
2.551361e+003, -3.226304e-004
2.553290e+003, 9.935739e-004
2.555218e+003, 1.911003e-003
2.557147e+003, 2.263457e-003
2.559075e+003, 2.421172e-003
2.561004e+003, 1.291925e-003
2.562932e+003, 1.815744e-004
2.564861e+003, 5.450519e-004
2.566789e+003, 1.004275e-003
2.568718e+003, 9.090259e-004
2.570646e+003, -4.371222e-004
2.572574e+003, 6.163006e-005
2.574503e+003, 8.239959e-004
2.576431e+003, 9.954018e-004
2.578360e+003, 9.232968e-004
2.580288e+003, 3.094505e-004
2.582217e+003, 3.595777e-004
2.584145e+003, 1.661463e-003
2.586074e+003, 2.759082e-003
2.588002e+003, 2.194536e-003
2.589931e+003, 8.954054e-004
2.591859e+003, 6.352527e-004
2.593788e+003, 4.954825e-004
2.595716e+003, 6.380051e-004
2.597645e+003, 7.814461e-004
2.599573e+003, 1.103403e-003
2.601501e+003, 1.223816e-003
2.603430e+003, 7.730005e-004
2.605358e+003, 1.650675e-004
2.607287e+003, 2.486576e-004
2.609215e+003, 1.058690e-003
2.611144e+003, 9.306205e-004
2.613072e+003, 1.231513e-003
2.615001e+003, 1.121834e-003
2.616929e+003, 4.807321e-004
2.618858e+003, 3.349500e-005
2.620786e+003, 2.651449e-004
2.622715e+003, 1.299913e-003
2.624643e+003, 1.952645e-003
2.626572e+003, 2.084942e-003
2.628500e+003, 2.600853e-003
2.630428e+003, 2.154540e-003
2.632357e+003, 1.078294e-003
2.634285e+003, 1.000194e-003
2.636214e+003, 1.405512e-003
2.638142e+003, 6.452845e-004
2.640071e+003, 6.923208e-004
2.641999e+003, 1.492829e-003
2.643928e+003, 1.790093e-003
2.645856e+003, 8.520973e-004
2.647785e+003, 2.344433e-004
2.649713e+003, 1.121698e-003
2.651642e+003, 6.107861e-004
2.653570e+003, -5.495666e-004
2.655499e+003, 2.690088e-004
2.657427e+003, 1.275599e-003
2.659355e+003, 8.495667e-004
2.661284e+003, 1.696690e-004
2.663212e+003, 1.949452e-004
2.665141e+003, 2.631844e-004
2.667069e+003, -2.122472e-004
2.668998e+003, -8.910790e-004
2.670926e+003, -8.104523e-004
2.672855e+003, -7.716540e-004
2.674783e+003, -8.372174e-004
2.676712e+003, -5.275874e-004
2.678640e+003, 4.228129e-004
2.680569e+003, 1.139472e-003
2.682497e+003, 6.103345e-004
2.684426e+003, 1.259541e-004
2.686354e+003, 3.164726e-004
2.688282e+003, 6.419522e-004
2.690211e+003, 4.007421e-004
2.692139e+003, 3.579310e-004
2.694068e+003, 5.745636e-004
2.695996e+003, -5.788393e-005
2.697925e+003, -1.323011e-005
2.699853e+003, 1.697123e-004
2.701782e+003, 1.546129e-004
2.703710e+003, 1.072424e-003
2.705639e+003, 2.237582e-003
2.707567e+003, 1.180412e-003
2.709496e+003, 5.804998e-004
2.711424e+003, -1.195240e-004
2.713353e+003, 1.155215e-003
2.715281e+003, 2.755971e-003
2.717209e+003, 2.008588e-003
2.719138e+003, 6.019045e-004
2.721066e+003, 9.465590e-004
2.722995e+003, 2.791705e-003
2.724923e+003, 2.996282e-003
2.726852e+003, 2.620549e-003
2.728780e+003, 2.913902e-003
2.730709e+003, 1.475719e-003
2.732637e+003, 6.455159e-004
2.734566e+003, 4.288147e-004
2.736494e+003, 1.847692e-003
2.738423e+003, 2.445033e-003
2.740351e+003, 1.298604e-003
2.742280e+003, -2.882963e-004
2.744208e+003, -2.142779e-004
2.746136e+003, 6.468404e-004
2.748065e+003, 5.111564e-005
2.749993e+003, 6.792459e-004
2.751922e+003, 1.734681e-003
2.753850e+003, 2.417907e-003
2.755779e+003, 1.845153e-003
2.757707e+003, 1.847620e-003
2.759636e+003, 2.512565e-003
2.761564e+003, 2.487140e-003
2.763493e+003, 1.286856e-003
2.765421e+003, 9.649647e-004
2.767350e+003, 1.256904e-003
2.769278e+003, 1.148507e-003
2.771207e+003, 1.018074e-003
2.773135e+003, 3.760774e-005
2.775063e+003, 2.949537e-004
2.776992e+003, 7.976366e-004
2.778920e+003, 1.603901e-003
2.780849e+003, 2.103045e-003
2.782777e+003, 5.360988e-004
2.784706e+003, 3.670795e-004
2.786634e+003, 1.457839e-003
2.788563e+003, 3.511047e-004
2.790491e+003, 2.098032e-004
2.792420e+003, 1.305350e-003
2.794348e+003, 1.548640e-003
2.796277e+003, 1.167104e-004
2.798205e+003, 4.716303e-004
2.800134e+003, 1.366712e-003
2.802062e+003, 1.000986e-003
2.803990e+003, 6.844577e-004
2.805919e+003, 1.809972e-003
2.807847e+003, 2.227696e-003
2.809776e+003, 2.432758e-003
2.811704e+003, 1.015404e-003
2.813633e+003, 5.841879e-004
2.815561e+003, 2.784084e-004
2.817490e+003, -2.709302e-004
2.819418e+003, 4.846992e-004
2.821347e+003, 1.321669e-003
2.823275e+003, 1.171467e-003
2.825204e+003, 1.354909e-003
2.827132e+003, 4.752008e-004
2.829061e+003, -6.571084e-004
2.830989e+003, -8.649910e-004
2.832917e+003, -5.466831e-004
2.834846e+003, 1.071561e-004
2.836774e+003, 1.686970e-004
2.838703e+003, -1.993356e-005
2.840631e+003, -2.514120e-003
2.842560e+003, -2.769210e-003
2.844488e+003, -2.206690e-003
2.846417e+003, -1.560414e-003
2.848345e+003, -8.073803e-004
2.850274e+003, -7.888619e-004
2.852202e+003, 6.793123e-004
2.854131e+003, 5.003940e-004
2.856059e+003, -3.705360e-005
2.857988e+003, 1.948409e-003
2.859916e+003, 3.950818e-003
2.861844e+003, 3.553136e-003
2.863773e+003, 3.951709e-003
2.865701e+003, 3.961022e-003
2.867630e+003, 2.797826e-003
2.869558e+003, 4.580151e-004
2.871487e+003, 6.213300e-004
2.873415e+003, 1.012215e-003
2.875344e+003, 5.296180e-004
2.877272e+003, 1.803845e-003
2.879201e+003, 1.648886e-003
2.881129e+003, 1.434677e-003
2.883058e+003, 1.440663e-005
2.884986e+003, 4.693326e-004
2.886915e+003, 1.025833e-003
2.888843e+003, 1.467437e-003
2.890771e+003, 1.838656e-003
2.892700e+003, 4.690355e-004
2.894628e+003, -1.243316e-006
2.896557e+003, 1.278219e-003
2.898485e+003, 2.388641e-003
2.900414e+003, 2.508195e-003
2.902342e+003, -1.309775e-004
2.904271e+003, -1.940483e-003
2.906199e+003, -8.679740e-005
2.908128e+003, 2.106136e-003
2.910056e+003, 1.941863e-003
2.911985e+003, 3.512707e-004
2.913913e+003, -3.628507e-004
2.915842e+003, -1.138490e-003
2.917770e+003, -9.446330e-004
2.919698e+003, 2.375253e-003
2.921627e+003, 3.353052e-003
2.923555e+003, 2.094638e-003
2.925484e+003, 3.882963e-003
2.927412e+003, 4.946470e-003
2.929341e+003, 5.954720e-003
2.931269e+003, 5.714927e-003
2.933198e+003, 5.905833e-003
2.935126e+003, 5.257837e-003
2.937055e+003, 4.079940e-003
2.938983e+003, 4.228042e-003
2.940912e+003, 5.894838e-003
2.942840e+003, 5.814930e-003
2.944769e+003, 3.583444e-003
2.946697e+003, 1.867199e-003
2.948625e+003, 2.094913e-003
2.950554e+003, 1.351104e-003
2.952482e+003, 7.413588e-004
2.954411e+003, 1.271992e-003
2.956339e+003, 3.030679e-003
2.958268e+003, 4.588859e-003
2.960196e+003, 5.621313e-003
2.962125e+003, 6.085515e-003
2.964053e+003, 5.526602e-003
2.965982e+003, 4.205828e-003
2.967910e+003, 4.049316e-003
2.969839e+003, 5.604968e-003
2.971767e+003, 4.824213e-003
2.973696e+003, 2.213124e-003
2.975624e+003, 3.794166e-003
2.977552e+003, 5.014133e-003
2.979481e+003, 3.943449e-003
2.981409e+003, 3.187077e-003
2.983338e+003, 4.763791e-003
2.985266e+003, 7.270951e-003
2.987195e+003, 8.239458e-003
2.989123e+003, 7.107488e-003
2.991052e+003, 5.191358e-003
2.992980e+003, 6.168203e-003
2.994909e+003, 4.922823e-003
2.996837e+003, 4.242170e-003
2.998766e+003, 5.294980e-003
3.000694e+003, 4.696774e-003
3.002623e+003, 4.868072e-003
3.004551e+003, 7.003251e-003
3.006479e+003, 6.610957e-003
3.008408e+003, 4.739240e-003
3.010336e+003, 4.391936e-003
3.012265e+003, 3.850687e-003
3.014193e+003, 4.514485e-003
3.016122e+003, 5.133191e-003
3.018050e+003, 4.117238e-003
3.019979e+003, 4.532462e-003
3.021907e+003, 5.793025e-003
3.023836e+003, 6.065658e-003
3.025764e+003, 6.541782e-003
3.027693e+003, 4.437848e-003
3.029621e+003, 3.302565e-003
3.031550e+003, -3.848150e-004
3.033478e+003, -1.414115e-003
3.035406e+003, 2.154871e-003
3.037335e+003, 3.655633e-003
3.039263e+003, 3.602020e-003
3.041192e+003, 4.327417e-003
3.043120e+003, 4.411692e-003
3.045049e+003, 3.030100e-003
3.046977e+003, 2.043472e-003
3.048906e+003, 1.480878e-003
3.050834e+003, 1.932933e-003
3.052763e+003, 2.398174e-003
3.054691e+003, 2.923617e-003
3.056620e+003, 4.027530e-003
3.058548e+003, 3.904303e-003
3.060477e+003, 2.691502e-003
3.062405e+003, 3.745376e-003
3.064333e+003, 1.388586e-003
3.066262e+003, -5.344431e-004
3.068190e+003, 7.590827e-004
3.070119e+003, -2.242715e-004
3.072047e+003, 2.765706e-004
3.073976e+003, 8.480206e-004
3.075904e+003, 3.636901e-004
3.077833e+003, 1.724054e-003
3.079761e+003, 1.930355e-003
3.081690e+003, 1.051326e-003
3.083618e+003, 1.226202e-003
3.085547e+003, 2.405165e-003
3.087475e+003, 4.244170e-003
3.089404e+003, 4.891910e-003
3.091332e+003, 2.466866e-003
3.093260e+003, 2.780570e-003
3.095189e+003, 3.927093e-003
3.097117e+003, 2.844397e-003
3.099046e+003, 2.806074e-003
3.100974e+003, 2.825715e-003
3.102903e+003, 3.286751e-003
3.104831e+003, 2.452871e-003
3.106760e+003, 1.349803e-003
3.108688e+003, 7.971894e-004
3.110617e+003, -5.144528e-004
3.112545e+003, -2.275798e-004
3.114474e+003, 9.363231e-004
3.116402e+003, -1.804872e-004
3.118331e+003, -1.945639e-003
3.120259e+003, -1.627281e-003
3.122188e+003, -1.622531e-003
3.124116e+003, -1.979935e-003
3.126044e+003, 8.630222e-004
3.127973e+003, 2.076612e-003
3.129901e+003, 1.444283e-003
3.131830e+003, 3.034360e-003
3.133758e+003, 2.023997e-003
3.135687e+003, 1.701800e-003
3.137615e+003, 1.755069e-003
3.139544e+003, 1.632393e-003
3.141472e+003, 1.221685e-003
3.143401e+003, 2.866805e-003
3.145329e+003, 2.837891e-003
3.147258e+003, 2.952606e-003
3.149186e+003, 2.104384e-003
3.151115e+003, 1.181273e-003
3.153043e+003, 3.873364e-004
3.154971e+003, -4.066427e-005
3.156900e+003, 8.200020e-004
3.158828e+003, 1.036220e-004
3.160757e+003, -3.390695e-004
3.162685e+003, 1.588747e-004
3.164614e+003, -1.677601e-004
3.166542e+003, -1.635611e-004
3.168471e+003, 2.186353e-003
3.170399e+003, 4.276947e-003
3.172328e+003, 4.074486e-003
3.174256e+003, 3.373646e-003
3.176185e+003, 1.614271e-003
3.178113e+003, 4.441373e-004
3.180042e+003, 9.400937e-004
3.181970e+003, -4.210293e-004
3.183898e+003, -6.779583e-004
3.185827e+003, 8.822294e-004
3.187755e+003, 3.105357e-005
3.189684e+003, -1.366283e-003
3.191612e+003, 4.067781e-004
3.193541e+003, 9.788225e-005
3.195469e+003, -7.324880e-004
3.197398e+003, 8.563870e-004
3.199326e+003, -2.300324e-005
3.201255e+003, -2.666070e-003
3.203183e+003, -1.941859e-003
3.205112e+003, -1.394004e-003
3.207040e+003, 9.242564e-004
3.208969e+003, 3.117030e-003
3.210897e+003, 1.238397e-003
3.212825e+003, 7.717912e-004
3.214754e+003, 4.406270e-004
3.216682e+003, -6.041875e-004
3.218611e+003, -6.505365e-006
3.220539e+003, 5.292724e-004
3.222468e+003, 8.272043e-004
3.224396e+003, 6.033332e-004
3.226325e+003, 3.931308e-004
3.228253e+003, 1.661266e-004
3.230182e+003, 6.326839e-004
3.232110e+003, 9.081770e-005
3.234039e+003, 8.206319e-004
3.235967e+003, 2.215423e-003
3.237896e+003, 4.099940e-004
3.239824e+003, -1.177871e-003
3.241752e+003, -3.364827e-004
3.243681e+003, 9.012616e-004
3.245609e+003, 1.008550e-003
3.247538e+003, 1.731982e-003
3.249466e+003, 2.769567e-003
3.251395e+003, 1.315911e-003
3.253323e+003, -1.982225e-004
3.255252e+003, 1.177876e-004
3.257180e+003, 9.039325e-004
3.259109e+003, 5.494388e-004
3.261037e+003, -4.994333e-004
3.262966e+003, -1.050058e-003
3.264894e+003, -1.575294e-003
3.266823e+003, -6.315657e-004
3.268751e+003, 4.013339e-004
3.270679e+003, -3.894313e-004
3.272608e+003, -5.588711e-004
3.274536e+003, 1.004944e-003
3.276465e+003, 1.493627e-003
3.278393e+003, 5.007766e-005
3.280322e+003, -2.026176e-003
3.282250e+003, -2.441181e-003
3.284179e+003, -7.620672e-004
3.286107e+003, 2.603607e-004
3.288036e+003, -2.666466e-003
3.289964e+003, -2.397947e-003
3.291893e+003, -1.511682e-004
3.293821e+003, 7.769432e-004
3.295750e+003, -3.601012e-004
3.297678e+003, -5.233948e-004
3.299606e+003, -1.311951e-006
3.301535e+003, -7.227974e-004
3.303463e+003, -3.219866e-004
3.305392e+003, 1.537074e-003
3.307320e+003, 1.842975e-003
3.309249e+003, -2.643389e-004
3.311177e+003, -2.520976e-004
3.313106e+003, 9.743775e-004
3.315034e+003, 1.260642e-003
3.316963e+003, 4.359467e-004
3.318891e+003, -1.108438e-004
3.320820e+003, -4.830331e-005
3.322748e+003, -2.911747e-004
3.324677e+003, -1.512417e-004
3.326605e+003, -4.482109e-004
3.328533e+003, -1.164611e-003
3.330462e+003, 9.649057e-004
3.332390e+003, 2.045679e-003
3.334319e+003, 2.164454e-004
3.336247e+003, 7.782462e-005
3.338176e+003, -1.210975e-003
3.340104e+003, -1.315173e-003
3.342033e+003, -6.639262e-004
3.343961e+003, -1.568828e-004
3.345890e+003, 1.504078e-003
3.347818e+003, 9.042231e-004
3.349747e+003, -3.809810e-004
3.351675e+003, -8.228908e-005
3.353604e+003, 4.836677e-004
3.355532e+003, -2.364656e-004
3.357460e+003, -1.119819e-003
3.359389e+003, 1.005365e-003
3.361317e+003, 7.860667e-004
3.363246e+003, -7.706129e-004
3.365174e+003, -1.616106e-003
3.367103e+003, -1.352666e-003
3.369031e+003, 8.716404e-004
3.370960e+003, 8.336944e-004
3.372888e+003, 2.265397e-003
3.374817e+003, 1.916304e-003
3.376745e+003, 1.405840e-003
3.378674e+003, 3.683588e-004
3.380602e+003, -1.191895e-003
3.382531e+003, -1.960597e-003
3.384459e+003, -2.402110e-003
3.386387e+003, -7.849989e-004
3.388316e+003, 1.469993e-003
3.390244e+003, 1.486909e-003
3.392173e+003, 1.584179e-003
3.394101e+003, 2.168254e-003
3.396030e+003, 1.999690e-004
3.397958e+003, -1.320743e-003
3.399887e+003, -3.254157e-004
3.401815e+003, -4.634150e-004
3.403744e+003, -2.183495e-003
3.405672e+003, -2.350921e-003
3.407601e+003, -3.471501e-004
3.409529e+003, 1.003221e-004
3.411458e+003, -2.292180e-004
3.413386e+003, 1.679910e-003
3.415314e+003, 3.621338e-003
3.417243e+003, 3.292556e-003
3.419171e+003, 2.642483e-003
3.421100e+003, 2.070508e-003
3.423028e+003, 1.596205e-003
3.424957e+003, 1.446699e-003
3.426885e+003, 2.282104e-003
3.428814e+003, 1.146089e-003
3.430742e+003, 1.413187e-003
3.432671e+003, 2.160658e-003
3.434599e+003, 1.127978e-003
3.436528e+003, -1.699166e-003
3.438456e+003, -1.188272e-003
3.440385e+003, 1.476293e-004
3.442313e+003, 9.153654e-004
3.444241e+003, 3.021338e-003
3.446170e+003, 2.754977e-003
3.448098e+003, 1.558830e-003
3.450027e+003, 2.587085e-003
3.451955e+003, 3.088619e-003
3.453884e+003, 1.153094e-003
3.455812e+003, 1.061499e-004
3.457741e+003, -5.061947e-004
3.459669e+003, -2.390370e-003
3.461598e+003, -2.378304e-003
3.463526e+003, -1.570991e-004
3.465455e+003, -3.520108e-004
3.467383e+003, -1.060162e-003
3.469312e+003, 9.217396e-004
3.471240e+003, 1.402009e-003
3.473168e+003, 2.531764e-006
3.475097e+003, 1.344790e-003
3.477025e+003, 3.650509e-003
3.478954e+003, 3.548888e-003
3.480882e+003, 3.809143e-003
3.482811e+003, 2.104274e-003
3.484739e+003, -1.506723e-004
3.486668e+003, -1.303093e-004
3.488596e+003, 1.797551e-004
3.490525e+003, 1.242299e-003
3.492453e+003, 1.959232e-003
3.494382e+003, 1.059900e-003
3.496310e+003, 5.458528e-004
3.498239e+003, 4.984171e-006
3.500167e+003, 2.407825e-004
3.502095e+003, 1.598923e-003
3.504024e+003, 9.910250e-004
3.505952e+003, 1.611964e-003
3.507881e+003, 3.417164e-003
3.509809e+003, 3.035041e-003
3.511738e+003, 3.657327e-003
3.513666e+003, 4.204662e-003
3.515595e+003, 2.704866e-003
3.517523e+003, 2.815404e-003
3.519452e+003, 3.602707e-003
3.521380e+003, 2.937961e-003
3.523309e+003, 2.438803e-003
3.525237e+003, 1.292296e-003
3.527166e+003, 1.158495e-003
3.529094e+003, 1.468448e-003
3.531022e+003, 2.371491e-003
3.532951e+003, 3.883256e-003
3.534879e+003, 3.724281e-003
3.536808e+003, 1.681993e-003
3.538736e+003, 2.106001e-004
3.540665e+003, 1.345975e-003
3.542593e+003, -3.332070e-004
3.544522e+003, -1.747871e-003
3.546450e+003, -3.390914e-004
3.548379e+003, 4.621277e-004
3.550307e+003, 2.591463e-003
3.552236e+003, 4.939171e-003
3.554164e+003, 2.937822e-003
3.556093e+003, 1.092413e-003
3.558021e+003, 2.416899e-003
3.559949e+003, 4.255316e-003
3.561878e+003, 6.315327e-004
3.563806e+003, 7.582806e-004
3.565735e+003, 3.876769e-003
3.567663e+003, 3.740573e-003
3.569592e+003, 1.776917e-003
3.571520e+003, -1.856626e-004
3.573449e+003, 2.740246e-003
3.575377e+003, 3.102898e-003
3.577306e+003, 2.882729e-003
3.579234e+003, 3.437940e-003
3.581163e+003, 3.359641e-003
3.583091e+003, 3.414516e-003
3.585020e+003, 3.017597e-003
3.586948e+003, 7.745008e-004
3.588876e+003, 7.601646e-004
3.590805e+003, 6.523619e-003
3.592733e+003, 6.382843e-003
3.594662e+003, 1.976022e-003
3.596590e+003, 2.544913e-003
3.598519e+003, 2.703571e-003
3.600447e+003, 1.915418e-003
3.602376e+003, 2.741981e-003
3.604304e+003, 2.968618e-003
3.606233e+003, 2.342901e-003
3.608161e+003, 3.116615e-003
3.610090e+003, 1.319570e-003
3.612018e+003, 1.271644e-003
3.613947e+003, 3.930747e-003
3.615875e+003, 3.997944e-003
3.617803e+003, 1.908809e-003
3.619732e+003, 2.931577e-003
3.621660e+003, 2.552555e-003
3.623589e+003, 3.779110e-003
3.625517e+003, 3.243793e-003
3.627446e+003, 2.777799e-003
3.629374e+003, 6.337338e-003
3.631303e+003, 8.891136e-003
3.633231e+003, 8.156571e-003
3.635160e+003, 7.537020e-003
3.637088e+003, 6.547198e-003
3.639017e+003, 6.421123e-003
3.640945e+003, 7.470590e-003
3.642874e+003, 1.194352e-002
3.644802e+003, 2.117108e-002
3.646730e+003, 2.631447e-002
3.648659e+003, 2.440855e-002
3.650587e+003, 1.872068e-002
3.652516e+003, 1.416241e-002
3.654444e+003, 1.127363e-002
3.656373e+003, 6.024715e-003
3.658301e+003, 3.039081e-003
3.660230e+003, 6.653502e-004
3.662158e+003, -9.664388e-004
3.664087e+003, -2.658269e-003
3.666015e+003, -2.257496e-003
3.667944e+003, 3.678037e-004
3.669872e+003, 3.738037e-003
3.671801e+003, 2.109752e-004
3.673729e+003, -1.549300e-003
3.675657e+003, 6.351362e-004
3.677586e+003, -4.301363e-005
3.679514e+003, -2.299193e-004
3.681443e+003, 2.067818e-003
3.683371e+003, 1.314476e-003
3.685300e+003, 4.600502e-004
3.687228e+003, 2.397480e-003
3.689157e+003, 2.010098e-003
3.691085e+003, 7.137827e-004
3.693014e+003, 2.405163e-003
3.694942e+003, 3.158085e-003
3.696871e+003, 2.195459e-003
3.698799e+003, 2.918383e-003
3.700728e+003, 2.162510e-003
3.702656e+003, 1.054446e-003
3.704584e+003, -1.451943e-003
3.706513e+003, 1.392551e-003
3.708441e+003, 3.303826e-003
3.710370e+003, -4.296165e-004
3.712298e+003, -9.207868e-004
3.714227e+003, 1.294449e-003
3.716155e+003, 5.854721e-004
3.718084e+003, 1.637971e-003
3.720012e+003, 2.198341e-003
3.721941e+003, 1.066232e-003
3.723869e+003, 9.134438e-004
3.725798e+003, 1.056773e-004
3.727726e+003, 1.420053e-003
3.729655e+003, 3.706898e-003
3.731583e+003, 2.797969e-003
3.733511e+003, 3.323434e-003
3.735440e+003, 3.952586e-003
3.737368e+003, 1.962471e-003
3.739297e+003, 1.826664e-003
3.741225e+003, 3.623477e-003
3.743154e+003, 4.677286e-003
3.745082e+003, 5.249764e-003
3.747011e+003, 4.040127e-003
3.748939e+003, 3.221038e-003
3.750868e+003, 1.777572e-003
3.752796e+003, 8.828420e-004
3.754725e+003, 1.481142e-003
3.756653e+003, 1.151783e-003
3.758582e+003, 1.278624e-003
3.760510e+003, 2.251594e-003
3.762438e+003, 2.731818e-003
3.764367e+003, 2.214186e-003
3.766295e+003, -1.046924e-003
3.768224e+003, 9.534321e-004
3.770152e+003, 5.439937e-004
3.772081e+003, -2.637147e-005
3.774009e+003, 2.998395e-003
3.775938e+003, 1.800600e-003
3.777866e+003, 3.053326e-004
3.779795e+003, -4.984471e-005
3.781723e+003, 2.093959e-004
3.783652e+003, 2.234191e-003
3.785580e+003, 4.981277e-003
3.787509e+003, 3.234687e-003
3.789437e+003, 5.246565e-003
3.791365e+003, 7.474817e-003
3.793294e+003, 6.965582e-003
3.795222e+003, 7.841849e-003
3.797151e+003, 3.391556e-003
3.799079e+003, 1.781266e-003
3.801008e+003, 4.624288e-003
3.802936e+003, 4.777009e-003
3.804865e+003, 4.284510e-003
3.806793e+003, 2.754673e-003
3.808722e+003, 4.775797e-003
3.810650e+003, 3.378436e-003
3.812579e+003, -8.917486e-004
3.814507e+003, -5.118717e-005
3.816436e+003, 5.863660e-003
3.818364e+003, 6.489001e-003
3.820292e+003, 4.238429e-003
3.822221e+003, 1.781593e-003
3.824149e+003, -2.363225e-003
3.826078e+003, 2.346742e-004
3.828006e+003, 8.795958e-004
3.829935e+003, 2.303201e-003
3.831863e+003, 1.631285e-003
3.833792e+003, 1.307896e-003
3.835720e+003, 3.230273e-003
3.837649e+003, 1.089836e-003
3.839577e+003, -9.111601e-004
3.841506e+003, 1.991665e-003
3.843434e+003, 3.600457e-003
3.845363e+003, 5.915264e-003
3.847291e+003, 5.014404e-003
3.849219e+003, 1.541268e-003
3.851148e+003, 1.986955e-003
3.853076e+003, 3.563430e-003
3.855005e+003, 1.736521e-003
3.856933e+003, 2.314190e-003
3.858862e+003, 5.481605e-003
3.860790e+003, 4.615562e-003
3.862719e+003, 3.037844e-003
3.864647e+003, 4.870708e-003
3.866576e+003, 3.156651e-003
3.868504e+003, 5.071533e-004
3.870433e+003, 1.123913e-003
3.872361e+003, 7.410076e-004
3.874290e+003, -6.658563e-004
3.876218e+003, 1.409519e-003
3.878146e+003, 3.861439e-003
3.880075e+003, 4.066708e-003
3.882003e+003, 3.555896e-003
3.883932e+003, 1.863693e-003
3.885860e+003, 3.676459e-003
3.887789e+003, 3.477030e-003
3.889717e+003, 3.597481e-004
3.891646e+003, 1.259756e-003
3.893574e+003, 3.756938e-003
3.895503e+003, 2.666441e-003
3.897431e+003, 2.181119e-003
3.899360e+003, 2.616413e-003
3.901288e+003, 3.961961e-003
3.903217e+003, 5.607284e-003
3.905145e+003, 3.900901e-003
3.907073e+003, 3.681220e-003
3.909002e+003, 5.852251e-003
3.910930e+003, 1.917773e-003
3.912859e+003, -2.098237e-003
3.914787e+003, 6.002867e-004
3.916716e+003, 4.364531e-003
3.918644e+003, 4.668191e-003
3.920573e+003, 4.977671e-003
3.922501e+003, 3.579967e-003
3.924430e+003, 2.838886e-003
3.926358e+003, 4.267022e-003
3.928287e+003, 3.866486e-003
3.930215e+003, 5.091920e-003
3.932144e+003, 5.757864e-003
3.934072e+003, 2.788411e-003
3.936000e+003, 1.133349e-004
3.937929e+003, 1.386515e-003
3.939857e+003, 6.313354e-003
3.941786e+003, 7.605414e-003
3.943714e+003, 3.263222e-003
3.945643e+003, 1.882704e-003
3.947571e+003, 6.160176e-003
3.949500e+003, 7.919625e-003
3.951428e+003, 4.971283e-003
3.953357e+003, 4.736995e-003
3.955285e+003, 3.851422e-003
3.957214e+003, 3.299615e-003
3.959142e+003, 3.664283e-003
3.961071e+003, 4.587262e-003
3.962999e+003, 2.992927e-003
3.964927e+003, 1.533555e-003
3.966856e+003, 4.499472e-003
3.968784e+003, 5.505034e-003
3.970713e+003, 5.423994e-004
3.972641e+003, 2.502910e-003
3.974570e+003, 5.412919e-003
3.976498e+003, 1.903363e-003
3.978427e+003, -6.874434e-004
3.980355e+003, 1.100273e-003
3.982284e+003, 4.950421e-003
3.984212e+003, 7.028902e-003
3.986141e+003, 5.319507e-003
3.988069e+003, 5.852219e-003
3.989998e+003, 7.850889e-003
3.991926e+003, 5.597111e-003
3.993854e+003, 4.226288e-003
3.995783e+003, 3.939422e-003
3.997711e+003, 3.517734e-003
3.999640e+003, 3.519431e-003
4.001568e+003, 0.000000e+000
##END=



