##NAMES=Trilithionite
##RRUFFID=R040101
##IDEAL CHEMISTRY=KLi_1.5_Al_1.5_(Si_3_Al)O_10_F_2_
##LOCALITY=Zambezi Region, Mozambique
##OWNER=RRUFF
##SOURCE=University of Arizona Mineral Museum
##DESCRIPTION=Aggregate of purple hexagonal plates, polytype is 2M1
##STATUS=The identification of this mineral has been confirmed by X-ray diffraction and chemical analysis
##URL=rruff.info/R040101
##MEASURED CHEMISTRY=(K_0.84_Li_0.13_Na_0.02_)(Li_0.54_Al_0.44_Mn_0.02_)_3_(Si_0.82_Al_0.18_)_4_O_10_F_2.00_
3.991926e+002, 0.000000e+000
4.011211e+002, 2.326576e-001
4.030496e+002, 2.337500e-001
4.049780e+002, 2.370231e-001
4.069065e+002, 2.370323e-001
4.088350e+002, 2.374987e-001
4.107634e+002, 2.407423e-001
4.126919e+002, 2.496551e-001
4.146204e+002, 2.521263e-001
4.165488e+002, 2.482426e-001
4.184773e+002, 2.499138e-001
4.204058e+002, 2.488249e-001
4.223342e+002, 2.462003e-001
4.242627e+002, 2.529824e-001
4.261912e+002, 2.592168e-001
4.281196e+002, 2.609785e-001
4.300481e+002, 2.623994e-001
4.319766e+002, 2.629906e-001
4.339050e+002, 2.670239e-001
4.358335e+002, 2.755098e-001
4.377620e+002, 2.776992e-001
4.396904e+002, 2.771414e-001
4.416189e+002, 2.748743e-001
4.435474e+002, 2.729861e-001
4.454758e+002, 2.722432e-001
4.474043e+002, 2.730675e-001
4.493328e+002, 2.745113e-001
4.512612e+002, 2.765826e-001
4.531897e+002, 2.823808e-001
4.551182e+002, 2.904391e-001
4.570466e+002, 2.979545e-001
4.589751e+002, 3.041438e-001
4.609036e+002, 3.087181e-001
4.628320e+002, 3.133745e-001
4.647605e+002, 3.163354e-001
4.666890e+002, 3.173761e-001
4.686174e+002, 3.177097e-001
4.705459e+002, 3.155542e-001
4.724744e+002, 3.144242e-001
4.744028e+002, 3.095219e-001
4.763313e+002, 3.032705e-001
4.782598e+002, 2.989430e-001
4.801882e+002, 2.924536e-001
4.821167e+002, 2.845985e-001
4.840452e+002, 2.760750e-001
4.859736e+002, 2.674809e-001
4.879021e+002, 2.591855e-001
4.898306e+002, 2.515292e-001
4.917590e+002, 2.456768e-001
4.936875e+002, 2.416571e-001
4.956160e+002, 2.399663e-001
4.975444e+002, 2.406023e-001
4.994729e+002, 2.416278e-001
5.014014e+002, 2.439183e-001
5.033298e+002, 2.467702e-001
5.052583e+002, 2.499834e-001
5.071868e+002, 2.535545e-001
5.091152e+002, 2.569168e-001
5.110437e+002, 2.593687e-001
5.129722e+002, 2.621744e-001
5.149006e+002, 2.660496e-001
5.168291e+002, 2.700615e-001
5.187576e+002, 2.735972e-001
5.206860e+002, 2.756054e-001
5.226145e+002, 2.772487e-001
5.245430e+002, 2.777284e-001
5.264714e+002, 2.757803e-001
5.283999e+002, 2.709576e-001
5.303284e+002, 2.639513e-001
5.322568e+002, 2.558028e-001
5.341853e+002, 2.479108e-001
5.361138e+002, 2.401279e-001
5.380422e+002, 2.310351e-001
5.399707e+002, 2.210990e-001
5.418992e+002, 2.112244e-001
5.438276e+002, 2.019869e-001
5.457561e+002, 1.927422e-001
5.476846e+002, 1.839629e-001
5.496130e+002, 1.748569e-001
5.515415e+002, 1.658810e-001
5.534700e+002, 1.579461e-001
5.553984e+002, 1.499598e-001
5.573269e+002, 1.421460e-001
5.592554e+002, 1.349104e-001
5.611838e+002, 1.277870e-001
5.631123e+002, 1.214945e-001
5.650408e+002, 1.159773e-001
5.669692e+002, 1.109882e-001
5.688977e+002, 1.068559e-001
5.708262e+002, 1.030504e-001
5.727546e+002, 9.965637e-002
5.746831e+002, 9.654642e-002
5.766116e+002, 9.383738e-002
5.785400e+002, 9.107829e-002
5.804685e+002, 8.762185e-002
5.823970e+002, 8.405399e-002
5.843254e+002, 8.073674e-002
5.862539e+002, 7.748748e-002
5.881824e+002, 7.398684e-002
5.901108e+002, 7.058787e-002
5.920393e+002, 6.741917e-002
5.939678e+002, 6.403385e-002
5.958962e+002, 6.078083e-002
5.978247e+002, 5.784306e-002
5.997532e+002, 5.535857e-002
6.016816e+002, 5.320971e-002
6.036101e+002, 5.154010e-002
6.055386e+002, 5.032306e-002
6.074670e+002, 4.932630e-002
6.093955e+002, 4.884777e-002
6.113240e+002, 4.849491e-002
6.132524e+002, 4.802129e-002
6.151809e+002, 4.763075e-002
6.171094e+002, 4.719786e-002
6.190378e+002, 4.630719e-002
6.209663e+002, 4.529041e-002
6.228948e+002, 4.415130e-002
6.248232e+002, 4.285789e-002
6.267517e+002, 4.167808e-002
6.286802e+002, 4.079066e-002
6.306086e+002, 3.988753e-002
6.325371e+002, 3.897507e-002
6.344656e+002, 3.818778e-002
6.363940e+002, 3.767306e-002
6.383225e+002, 3.729094e-002
6.402510e+002, 3.690421e-002
6.421794e+002, 3.665670e-002
6.441079e+002, 3.653899e-002
6.460364e+002, 3.649738e-002
6.479648e+002, 3.654024e-002
6.498933e+002, 3.708135e-002
6.518218e+002, 3.754470e-002
6.537502e+002, 3.772996e-002
6.556787e+002, 3.818481e-002
6.576072e+002, 3.886247e-002
6.595356e+002, 3.970702e-002
6.614641e+002, 4.035969e-002
6.633926e+002, 4.139300e-002
6.653210e+002, 4.235725e-002
6.672495e+002, 4.349739e-002
6.691780e+002, 4.473376e-002
6.711064e+002, 4.590972e-002
6.730349e+002, 4.735798e-002
6.749634e+002, 4.891983e-002
6.768918e+002, 5.033193e-002
6.788203e+002, 5.168089e-002
6.807488e+002, 5.314068e-002
6.826772e+002, 5.471386e-002
6.846057e+002, 5.605973e-002
6.865342e+002, 5.729114e-002
6.884626e+002, 5.833587e-002
6.903911e+002, 5.936610e-002
6.923196e+002, 6.011017e-002
6.942480e+002, 6.055830e-002
6.961765e+002, 6.121179e-002
6.981050e+002, 6.190668e-002
7.000334e+002, 6.236127e-002
7.019619e+002, 6.280034e-002
7.038904e+002, 6.315199e-002
7.058188e+002, 6.360725e-002
7.077473e+002, 6.448703e-002
7.096758e+002, 6.592486e-002
7.116042e+002, 6.770151e-002
7.135327e+002, 6.974205e-002
7.154612e+002, 7.184423e-002
7.173896e+002, 7.432792e-002
7.193181e+002, 7.699364e-002
7.212466e+002, 7.948890e-002
7.231750e+002, 8.192711e-002
7.251035e+002, 8.425856e-002
7.270320e+002, 8.644295e-002
7.289604e+002, 8.880026e-002
7.308889e+002, 9.151065e-002
7.328174e+002, 9.404262e-002
7.347458e+002, 9.642617e-002
7.366743e+002, 9.872418e-002
7.386028e+002, 1.008907e-001
7.405313e+002, 1.032279e-001
7.424597e+002, 1.060084e-001
7.443882e+002, 1.087725e-001
7.463167e+002, 1.110800e-001
7.482451e+002, 1.124366e-001
7.501736e+002, 1.125188e-001
7.521021e+002, 1.114646e-001
7.540305e+002, 1.093888e-001
7.559590e+002, 1.064602e-001
7.578875e+002, 1.030997e-001
7.598159e+002, 9.928014e-002
7.617444e+002, 9.548391e-002
7.636729e+002, 9.239475e-002
7.656013e+002, 8.996147e-002
7.675298e+002, 8.825209e-002
7.694583e+002, 8.743958e-002
7.713867e+002, 8.768077e-002
7.733152e+002, 8.873773e-002
7.752437e+002, 9.054075e-002
7.771721e+002, 9.283058e-002
7.791006e+002, 9.519225e-002
7.810291e+002, 9.744334e-002
7.829575e+002, 9.946384e-002
7.848860e+002, 1.009945e-001
7.868145e+002, 1.023155e-001
7.887429e+002, 1.032968e-001
7.906714e+002, 1.039507e-001
7.925999e+002, 1.046482e-001
7.945283e+002, 1.053458e-001
7.964568e+002, 1.060351e-001
7.983853e+002, 1.062887e-001
8.003137e+002, 1.060898e-001
8.022422e+002, 1.052256e-001
8.041707e+002, 1.038621e-001
8.060991e+002, 1.017795e-001
8.080276e+002, 9.915688e-002
8.099561e+002, 9.611499e-002
8.118845e+002, 9.332375e-002
8.138130e+002, 9.101103e-002
8.157415e+002, 8.936425e-002
8.176699e+002, 8.856916e-002
8.195984e+002, 8.854942e-002
8.215269e+002, 8.921771e-002
8.234553e+002, 9.068783e-002
8.253838e+002, 9.240460e-002
8.273123e+002, 9.352155e-002
8.292407e+002, 9.373758e-002
8.311692e+002, 9.282812e-002
8.330977e+002, 9.041052e-002
8.350261e+002, 8.699742e-002
8.369546e+002, 8.369631e-002
8.388831e+002, 8.154013e-002
8.408115e+002, 8.086182e-002
8.427400e+002, 8.148870e-002
8.446685e+002, 8.330993e-002
8.465969e+002, 8.613814e-002
8.485254e+002, 8.971987e-002
8.504539e+002, 9.376737e-002
8.523823e+002, 9.838305e-002
8.543108e+002, 1.031157e-001
8.562393e+002, 1.078681e-001
8.581677e+002, 1.129950e-001
8.600962e+002, 1.185718e-001
8.620247e+002, 1.240726e-001
8.639531e+002, 1.298684e-001
8.658816e+002, 1.361748e-001
8.678101e+002, 1.424890e-001
8.697385e+002, 1.489916e-001
8.716670e+002, 1.554672e-001
8.735955e+002, 1.614282e-001
8.755239e+002, 1.669521e-001
8.774524e+002, 1.720379e-001
8.793809e+002, 1.770512e-001
8.813093e+002, 1.822174e-001
8.832378e+002, 1.873631e-001
8.851663e+002, 1.928314e-001
8.870947e+002, 1.985480e-001
8.890232e+002, 2.051060e-001
8.909517e+002, 2.124023e-001
8.928801e+002, 2.205669e-001
8.948085e+002, 2.295093e-001
8.967370e+002, 2.390680e-001
8.986655e+002, 2.492182e-001
9.005939e+002, 2.594885e-001
9.025224e+002, 2.697379e-001
9.044509e+002, 2.794364e-001
9.063793e+002, 2.884097e-001
9.083078e+002, 2.965877e-001
9.102363e+002, 3.043661e-001
9.121647e+002, 3.116514e-001
9.140932e+002, 3.181258e-001
9.160217e+002, 3.239377e-001
9.179501e+002, 3.294947e-001
9.198786e+002, 3.351053e-001
9.218071e+002, 3.401649e-001
9.237355e+002, 3.445649e-001
9.256640e+002, 3.491322e-001
9.275925e+002, 3.531127e-001
9.295209e+002, 3.569141e-001
9.314494e+002, 3.605543e-001
9.333779e+002, 3.643527e-001
9.353063e+002, 3.683084e-001
9.372348e+002, 3.730869e-001
9.391633e+002, 3.785621e-001
9.410917e+002, 3.841220e-001
9.430202e+002, 3.896152e-001
9.449487e+002, 3.952607e-001
9.468771e+002, 4.016140e-001
9.488056e+002, 4.073873e-001
9.507341e+002, 4.125747e-001
9.526625e+002, 4.174334e-001
9.545910e+002, 4.216714e-001
9.565195e+002, 4.245310e-001
9.584479e+002, 4.256575e-001
9.603764e+002, 4.256515e-001
9.623049e+002, 4.245929e-001
9.642333e+002, 4.227563e-001
9.661618e+002, 4.208203e-001
9.680903e+002, 4.190518e-001
9.700187e+002, 4.169589e-001
9.719472e+002, 4.149833e-001
9.738757e+002, 4.139448e-001
9.758041e+002, 4.133748e-001
9.777326e+002, 4.129258e-001
9.796611e+002, 4.121180e-001
9.815895e+002, 4.112788e-001
9.835180e+002, 4.102942e-001
9.854465e+002, 4.085383e-001
9.873749e+002, 4.064769e-001
9.893034e+002, 4.035314e-001
9.912319e+002, 3.992927e-001
9.931603e+002, 3.939413e-001
9.950888e+002, 3.878630e-001
9.970173e+002, 3.814293e-001
9.989457e+002, 3.750928e-001
1.000874e+003, 3.692746e-001
1.002803e+003, 3.638874e-001
1.004731e+003, 3.589895e-001
1.006660e+003, 3.546293e-001
1.008588e+003, 3.504430e-001
1.010517e+003, 3.463969e-001
1.012445e+003, 3.423557e-001
1.014373e+003, 3.383636e-001
1.016302e+003, 3.343261e-001
1.018230e+003, 3.297504e-001
1.020159e+003, 3.243032e-001
1.022087e+003, 3.180493e-001
1.024016e+003, 3.108794e-001
1.025944e+003, 3.023409e-001
1.027873e+003, 2.924251e-001
1.029801e+003, 2.814894e-001
1.031730e+003, 2.697640e-001
1.033658e+003, 2.573625e-001
1.035587e+003, 2.448853e-001
1.037515e+003, 2.318466e-001
1.039444e+003, 2.187705e-001
1.041372e+003, 2.062803e-001
1.043301e+003, 1.948051e-001
1.045229e+003, 1.848284e-001
1.047157e+003, 1.765511e-001
1.049086e+003, 1.698901e-001
1.051014e+003, 1.647448e-001
1.052943e+003, 1.609225e-001
1.054871e+003, 1.580785e-001
1.056800e+003, 1.556635e-001
1.058728e+003, 1.534658e-001
1.060657e+003, 1.510618e-001
1.062585e+003, 1.482625e-001
1.064514e+003, 1.449330e-001
1.066442e+003, 1.412929e-001
1.068371e+003, 1.377617e-001
1.070299e+003, 1.342387e-001
1.072228e+003, 1.308192e-001
1.074156e+003, 1.274581e-001
1.076084e+003, 1.245769e-001
1.078013e+003, 1.220230e-001
1.079941e+003, 1.198781e-001
1.081870e+003, 1.181198e-001
1.083798e+003, 1.164357e-001
1.085727e+003, 1.145775e-001
1.087655e+003, 1.127460e-001
1.089584e+003, 1.106837e-001
1.091512e+003, 1.080618e-001
1.093441e+003, 1.050739e-001
1.095369e+003, 1.017173e-001
1.097298e+003, 9.805440e-002
1.099226e+003, 9.422684e-002
1.101155e+003, 9.047531e-002
1.103083e+003, 8.650864e-002
1.105011e+003, 8.241478e-002
1.106940e+003, 7.856053e-002
1.108868e+003, 7.485496e-002
1.110797e+003, 7.119089e-002
1.112725e+003, 6.766254e-002
1.114654e+003, 6.412091e-002
1.116582e+003, 6.072168e-002
1.118511e+003, 5.761693e-002
1.120439e+003, 5.462253e-002
1.122368e+003, 5.173590e-002
1.124296e+003, 4.897748e-002
1.126225e+003, 4.637706e-002
1.128153e+003, 4.372867e-002
1.130082e+003, 4.093933e-002
1.132010e+003, 3.816152e-002
1.133938e+003, 3.537650e-002
1.135867e+003, 3.252614e-002
1.137795e+003, 2.966879e-002
1.139724e+003, 2.714239e-002
1.141652e+003, 2.463968e-002
1.143581e+003, 2.203949e-002
1.145509e+003, 1.975566e-002
1.147438e+003, 1.795343e-002
1.149366e+003, 1.627443e-002
1.151295e+003, 1.478902e-002
1.153223e+003, 1.386345e-002
1.155152e+003, 1.324196e-002
1.157080e+003, 1.238262e-002
1.159009e+003, 1.160683e-002
1.160937e+003, 1.102440e-002
1.162865e+003, 1.066475e-002
1.164794e+003, 1.021863e-002
1.166722e+003, 9.647699e-003
1.168651e+003, 9.174540e-003
1.170579e+003, 8.801811e-003
1.172508e+003, 8.532424e-003
1.174436e+003, 8.254788e-003
1.176365e+003, 8.055866e-003
1.178293e+003, 7.949630e-003
1.180222e+003, 7.693749e-003
1.182150e+003, 7.530372e-003
1.184079e+003, 7.278651e-003
1.186007e+003, 7.010271e-003
1.187936e+003, 6.743206e-003
1.189864e+003, 6.561148e-003
1.191792e+003, 6.457300e-003
1.193721e+003, 6.415975e-003
1.195649e+003, 6.311164e-003
1.197578e+003, 6.113091e-003
1.199506e+003, 5.974049e-003
1.201435e+003, 5.961112e-003
1.203363e+003, 5.754479e-003
1.205292e+003, 5.525287e-003
1.207220e+003, 5.490114e-003
1.209149e+003, 5.291402e-003
1.211077e+003, 5.019547e-003
1.213006e+003, 4.883679e-003
1.214934e+003, 4.860409e-003
1.216863e+003, 4.933408e-003
1.218791e+003, 4.854131e-003
1.220719e+003, 4.686648e-003
1.222648e+003, 4.441290e-003
1.224576e+003, 4.500104e-003
1.226505e+003, 4.564621e-003
1.228433e+003, 4.252218e-003
1.230362e+003, 3.915513e-003
1.232290e+003, 3.812793e-003
1.234219e+003, 3.704814e-003
1.236147e+003, 3.740059e-003
1.238076e+003, 3.830922e-003
1.240004e+003, 3.908407e-003
1.241933e+003, 3.962991e-003
1.243861e+003, 3.856857e-003
1.245790e+003, 3.780880e-003
1.247718e+003, 3.853421e-003
1.249646e+003, 3.693137e-003
1.251575e+003, 3.492313e-003
1.253503e+003, 3.612572e-003
1.255432e+003, 3.660135e-003
1.257360e+003, 3.439780e-003
1.259289e+003, 3.351640e-003
1.261217e+003, 3.390395e-003
1.263146e+003, 3.305100e-003
1.265074e+003, 3.370585e-003
1.267003e+003, 3.520142e-003
1.268931e+003, 3.559453e-003
1.270860e+003, 3.565246e-003
1.272788e+003, 3.554767e-003
1.274717e+003, 3.681052e-003
1.276645e+003, 3.539583e-003
1.278573e+003, 3.360542e-003
1.280502e+003, 3.360508e-003
1.282430e+003, 3.348365e-003
1.284359e+003, 3.291593e-003
1.286287e+003, 3.236535e-003
1.288216e+003, 3.274512e-003
1.290144e+003, 3.291313e-003
1.292073e+003, 3.381297e-003
1.294001e+003, 3.296710e-003
1.295930e+003, 3.266171e-003
1.297858e+003, 3.340808e-003
1.299787e+003, 3.426775e-003
1.301715e+003, 3.440449e-003
1.303644e+003, 3.270959e-003
1.305572e+003, 3.243559e-003
1.307500e+003, 3.313832e-003
1.309429e+003, 3.306173e-003
1.311357e+003, 3.278436e-003
1.313286e+003, 3.199565e-003
1.315214e+003, 3.224308e-003
1.317143e+003, 3.435252e-003
1.319071e+003, 3.344570e-003
1.321000e+003, 3.291359e-003
1.322928e+003, 3.239945e-003
1.324857e+003, 3.183462e-003
1.326785e+003, 3.153313e-003
1.328714e+003, 3.197098e-003
1.330642e+003, 3.165056e-003
1.332571e+003, 3.062899e-003
1.334499e+003, 3.160326e-003
1.336427e+003, 3.230717e-003
1.338356e+003, 2.969102e-003
1.340284e+003, 2.953836e-003
1.342213e+003, 3.226716e-003
1.344141e+003, 3.391449e-003
1.346070e+003, 3.476967e-003
1.347998e+003, 3.389952e-003
1.349927e+003, 3.268553e-003
1.351855e+003, 3.346466e-003
1.353784e+003, 3.494047e-003
1.355712e+003, 3.624953e-003
1.357641e+003, 3.626280e-003
1.359569e+003, 3.503941e-003
1.361498e+003, 3.565550e-003
1.363426e+003, 3.799100e-003
1.365354e+003, 3.746965e-003
1.367283e+003, 3.727240e-003
1.369211e+003, 3.628211e-003
1.371140e+003, 3.525017e-003
1.373068e+003, 3.526369e-003
1.374997e+003, 3.520843e-003
1.376925e+003, 3.464290e-003
1.378854e+003, 3.587402e-003
1.380782e+003, 3.691218e-003
1.382711e+003, 3.668000e-003
1.384639e+003, 3.730458e-003
1.386568e+003, 3.702941e-003
1.388496e+003, 3.620334e-003
1.390424e+003, 3.473775e-003
1.392353e+003, 3.487507e-003
1.394281e+003, 3.731739e-003
1.396210e+003, 4.006215e-003
1.398138e+003, 3.912386e-003
1.400067e+003, 3.748224e-003
1.401995e+003, 3.735757e-003
1.403924e+003, 3.792974e-003
1.405852e+003, 3.799326e-003
1.407781e+003, 3.827230e-003
1.409709e+003, 3.885997e-003
1.411638e+003, 3.928551e-003
1.413566e+003, 3.986318e-003
1.415495e+003, 3.870961e-003
1.417423e+003, 3.765182e-003
1.419351e+003, 3.942568e-003
1.421280e+003, 3.959140e-003
1.423208e+003, 3.796580e-003
1.425137e+003, 3.809655e-003
1.427065e+003, 3.865947e-003
1.428994e+003, 3.833484e-003
1.430922e+003, 3.845415e-003
1.432851e+003, 3.951300e-003
1.434779e+003, 4.001840e-003
1.436708e+003, 3.993683e-003
1.438636e+003, 3.902431e-003
1.440565e+003, 3.807361e-003
1.442493e+003, 3.845436e-003
1.444422e+003, 3.762446e-003
1.446350e+003, 3.674893e-003
1.448278e+003, 3.922914e-003
1.450207e+003, 4.070719e-003
1.452135e+003, 3.977831e-003
1.454064e+003, 3.965197e-003
1.455992e+003, 4.053680e-003
1.457921e+003, 4.188036e-003
1.459849e+003, 4.108043e-003
1.461778e+003, 4.002079e-003
1.463706e+003, 3.933465e-003
1.465635e+003, 4.041696e-003
1.467563e+003, 4.143214e-003
1.469492e+003, 4.041328e-003
1.471420e+003, 3.862573e-003
1.473349e+003, 3.772280e-003
1.475277e+003, 3.780248e-003
1.477205e+003, 3.855017e-003
1.479134e+003, 3.835689e-003
1.481062e+003, 3.829175e-003
1.482991e+003, 3.693790e-003
1.484919e+003, 3.542243e-003
1.486848e+003, 3.523889e-003
1.488776e+003, 3.650016e-003
1.490705e+003, 3.756888e-003
1.492633e+003, 3.730357e-003
1.494562e+003, 3.925920e-003
1.496490e+003, 4.047906e-003
1.498419e+003, 3.832720e-003
1.500347e+003, 3.819560e-003
1.502276e+003, 3.882059e-003
1.504204e+003, 3.901893e-003
1.506132e+003, 4.020231e-003
1.508061e+003, 4.130805e-003
1.509989e+003, 4.263691e-003
1.511918e+003, 4.296057e-003
1.513846e+003, 4.244201e-003
1.515775e+003, 4.327676e-003
1.517703e+003, 4.309426e-003
1.519632e+003, 4.209706e-003
1.521560e+003, 4.246288e-003
1.523489e+003, 4.173035e-003
1.525417e+003, 4.230082e-003
1.527346e+003, 4.036723e-003
1.529274e+003, 4.048963e-003
1.531203e+003, 4.420788e-003
1.533131e+003, 4.621077e-003
1.535059e+003, 4.631714e-003
1.536988e+003, 4.413959e-003
1.538916e+003, 4.373967e-003
1.540845e+003, 4.622801e-003
1.542773e+003, 4.647571e-003
1.544702e+003, 4.641371e-003
1.546630e+003, 4.855415e-003
1.548559e+003, 4.935305e-003
1.550487e+003, 5.082340e-003
1.552416e+003, 4.979392e-003
1.554344e+003, 4.928441e-003
1.556273e+003, 4.938037e-003
1.558201e+003, 4.913416e-003
1.560130e+003, 4.960344e-003
1.562058e+003, 4.844556e-003
1.563986e+003, 4.758042e-003
1.565915e+003, 4.837904e-003
1.567843e+003, 4.815902e-003
1.569772e+003, 4.822929e-003
1.571700e+003, 5.099532e-003
1.573629e+003, 5.020231e-003
1.575557e+003, 4.977079e-003
1.577486e+003, 5.232202e-003
1.579414e+003, 5.274812e-003
1.581343e+003, 5.056866e-003
1.583271e+003, 4.909579e-003
1.585200e+003, 5.050312e-003
1.587128e+003, 5.157372e-003
1.589057e+003, 5.026064e-003
1.590985e+003, 5.075474e-003
1.592913e+003, 5.206038e-003
1.594842e+003, 5.169856e-003
1.596770e+003, 5.264940e-003
1.598699e+003, 5.486870e-003
1.600627e+003, 5.499102e-003
1.602556e+003, 5.552551e-003
1.604484e+003, 5.622422e-003
1.606413e+003, 5.543350e-003
1.608341e+003, 5.618780e-003
1.610270e+003, 5.806651e-003
1.612198e+003, 5.525897e-003
1.614127e+003, 5.384619e-003
1.616055e+003, 5.475650e-003
1.617984e+003, 5.879679e-003
1.619912e+003, 6.077926e-003
1.621840e+003, 6.089702e-003
1.623769e+003, 6.097330e-003
1.625697e+003, 6.178358e-003
1.627626e+003, 6.273217e-003
1.629554e+003, 6.311345e-003
1.631483e+003, 6.346127e-003
1.633411e+003, 6.453769e-003
1.635340e+003, 6.568792e-003
1.637268e+003, 6.617554e-003
1.639197e+003, 6.637231e-003
1.641125e+003, 6.938351e-003
1.643054e+003, 7.059871e-003
1.644982e+003, 6.961811e-003
1.646911e+003, 6.929535e-003
1.648839e+003, 6.776880e-003
1.650767e+003, 6.787199e-003
1.652696e+003, 6.932755e-003
1.654624e+003, 6.868067e-003
1.656553e+003, 6.771983e-003
1.658481e+003, 6.809585e-003
1.660410e+003, 6.722703e-003
1.662338e+003, 6.645267e-003
1.664267e+003, 6.940873e-003
1.666195e+003, 6.937301e-003
1.668124e+003, 7.013261e-003
1.670052e+003, 7.075285e-003
1.671981e+003, 6.963854e-003
1.673909e+003, 7.054425e-003
1.675838e+003, 7.244729e-003
1.677766e+003, 7.342134e-003
1.679694e+003, 7.377468e-003
1.681623e+003, 7.384914e-003
1.683551e+003, 7.145547e-003
1.685480e+003, 6.947505e-003
1.687408e+003, 6.815237e-003
1.689337e+003, 6.940745e-003
1.691265e+003, 6.987432e-003
1.693194e+003, 6.846273e-003
1.695122e+003, 6.914923e-003
1.697051e+003, 7.082575e-003
1.698979e+003, 7.069267e-003
1.700908e+003, 7.324443e-003
1.702836e+003, 7.298363e-003
1.704765e+003, 7.173767e-003
1.706693e+003, 7.105822e-003
1.708621e+003, 7.066744e-003
1.710550e+003, 7.118593e-003
1.712478e+003, 7.024291e-003
1.714407e+003, 6.776481e-003
1.716335e+003, 6.586554e-003
1.718264e+003, 6.686495e-003
1.720192e+003, 6.990666e-003
1.722121e+003, 7.249272e-003
1.724049e+003, 7.114729e-003
1.725978e+003, 7.097705e-003
1.727906e+003, 7.152327e-003
1.729835e+003, 6.913049e-003
1.731763e+003, 6.800877e-003
1.733692e+003, 6.676216e-003
1.735620e+003, 6.351385e-003
1.737548e+003, 6.080620e-003
1.739477e+003, 6.193794e-003
1.741405e+003, 6.435649e-003
1.743334e+003, 6.065871e-003
1.745262e+003, 5.731663e-003
1.747191e+003, 5.827049e-003
1.749119e+003, 5.936658e-003
1.751048e+003, 5.975374e-003
1.752976e+003, 5.928861e-003
1.754905e+003, 6.030273e-003
1.756833e+003, 6.456764e-003
1.758762e+003, 6.671166e-003
1.760690e+003, 6.836274e-003
1.762619e+003, 7.059525e-003
1.764547e+003, 6.823076e-003
1.766475e+003, 6.718991e-003
1.768404e+003, 6.859527e-003
1.770332e+003, 6.642515e-003
1.772261e+003, 6.660749e-003
1.774189e+003, 6.746484e-003
1.776118e+003, 6.748560e-003
1.778046e+003, 6.604718e-003
1.779975e+003, 6.689227e-003
1.781903e+003, 6.745122e-003
1.783832e+003, 6.695815e-003
1.785760e+003, 6.703933e-003
1.787689e+003, 6.610991e-003
1.789617e+003, 6.555751e-003
1.791546e+003, 6.688681e-003
1.793474e+003, 6.729358e-003
1.795402e+003, 6.668351e-003
1.797331e+003, 6.561269e-003
1.799259e+003, 6.374784e-003
1.801188e+003, 6.107384e-003
1.803116e+003, 6.318112e-003
1.805045e+003, 6.450852e-003
1.806973e+003, 6.232604e-003
1.808902e+003, 6.400771e-003
1.810830e+003, 6.619713e-003
1.812759e+003, 6.540234e-003
1.814687e+003, 6.338798e-003
1.816616e+003, 6.245394e-003
1.818544e+003, 6.531255e-003
1.820473e+003, 6.703923e-003
1.822401e+003, 6.324039e-003
1.824329e+003, 5.972184e-003
1.826258e+003, 6.053047e-003
1.828186e+003, 6.044859e-003
1.830115e+003, 5.884428e-003
1.832043e+003, 5.853833e-003
1.833972e+003, 6.059579e-003
1.835900e+003, 6.251885e-003
1.837829e+003, 5.886523e-003
1.839757e+003, 5.855863e-003
1.841686e+003, 6.010483e-003
1.843614e+003, 5.765398e-003
1.845543e+003, 5.681715e-003
1.847471e+003, 5.588427e-003
1.849400e+003, 5.604935e-003
1.851328e+003, 5.922310e-003
1.853256e+003, 5.656914e-003
1.855185e+003, 5.662173e-003
1.857113e+003, 6.224553e-003
1.859042e+003, 6.098944e-003
1.860970e+003, 5.538060e-003
1.862899e+003, 5.488128e-003
1.864827e+003, 5.312770e-003
1.866756e+003, 5.250237e-003
1.868684e+003, 4.746742e-003
1.870613e+003, 4.810146e-003
1.872541e+003, 5.079664e-003
1.874470e+003, 4.899095e-003
1.876398e+003, 5.066951e-003
1.878327e+003, 5.231659e-003
1.880255e+003, 4.682778e-003
1.882183e+003, 4.660493e-003
1.884112e+003, 4.857982e-003
1.886040e+003, 4.396264e-003
1.887969e+003, 4.083606e-003
1.889897e+003, 4.263196e-003
1.891826e+003, 4.559325e-003
1.893754e+003, 4.824151e-003
1.895683e+003, 4.568973e-003
1.897611e+003, 4.347708e-003
1.899540e+003, 4.535294e-003
1.901468e+003, 4.525765e-003
1.903397e+003, 4.502743e-003
1.905325e+003, 4.603887e-003
1.907254e+003, 4.009604e-003
1.909182e+003, 3.475441e-003
1.911110e+003, 4.022900e-003
1.913039e+003, 3.776975e-003
1.914967e+003, 3.340334e-003
1.916896e+003, 3.458114e-003
1.918824e+003, 3.560010e-003
1.920753e+003, 3.042216e-003
1.922681e+003, 2.703692e-003
1.924610e+003, 2.613316e-003
1.926538e+003, 2.632480e-003
1.928467e+003, 2.438833e-003
1.930395e+003, 1.530435e-003
1.932324e+003, 2.047142e-003
1.934252e+003, 2.167779e-003
1.936181e+003, 1.135494e-003
1.938109e+003, 1.317912e-003
1.940037e+003, 1.536167e-003
1.941966e+003, 7.673455e-004
1.943894e+003, 7.298485e-004
1.945823e+003, 1.529011e-004
1.947751e+003, -4.224697e-004
1.949680e+003, -4.737518e-004
1.951608e+003, -1.744073e-004
1.953537e+003, 4.061958e-004
1.955465e+003, -4.016016e-004
1.957394e+003, -2.230180e-003
1.959322e+003, -3.117869e-003
1.961251e+003, -2.506921e-003
1.963179e+003, -2.255736e-003
1.965108e+003, -2.520528e-003
1.967036e+003, -2.442004e-003
1.968964e+003, -3.414897e-003
1.970893e+003, -4.244084e-003
1.972821e+003, -5.432883e-003
1.974750e+003, -5.244320e-003
1.976678e+003, -3.736046e-003
1.978607e+003, -2.336079e-003
1.980535e+003, -2.480116e-003
1.982464e+003, -3.165765e-003
1.984392e+003, -3.369533e-003
1.986321e+003, -2.337098e-003
1.988249e+003, -1.937425e-003
1.990178e+003, -1.938443e-003
1.992106e+003, -1.455013e-003
1.994035e+003, -2.102452e-003
1.995963e+003, -2.259438e-003
1.997891e+003, -1.898456e-003
1.999820e+003, -2.299522e-003
2.001748e+003, -3.314025e-003
2.003677e+003, -3.164614e-003
2.005605e+003, -3.910817e-003
2.007534e+003, -3.544717e-003
2.009462e+003, -3.366945e-003
2.011391e+003, -3.915020e-003
2.013319e+003, -3.646089e-003
2.015248e+003, -3.407780e-003
2.017176e+003, -2.543993e-003
2.019105e+003, -3.029986e-003
2.021033e+003, -3.582619e-003
2.022962e+003, -4.487349e-003
2.024890e+003, -5.094100e-003
2.026818e+003, -5.713583e-003
2.028747e+003, -5.031866e-003
2.030675e+003, -4.219594e-003
2.032604e+003, -4.255807e-003
2.034532e+003, -3.516634e-003
2.036461e+003, -3.261028e-003
2.038389e+003, -2.217598e-003
2.040318e+003, -4.345995e-004
2.042246e+003, 1.588738e-003
2.044175e+003, 1.143871e-003
2.046103e+003, 8.678280e-005
2.048032e+003, -1.669536e-004
2.049960e+003, -5.754849e-005
2.051889e+003, 1.090125e-003
2.053817e+003, 1.401655e-003
2.055746e+003, 5.967321e-004
2.057674e+003, 6.001091e-004
2.059603e+003, 7.580023e-004
2.061531e+003, 1.177121e-003
2.063459e+003, 1.866243e-003
2.065388e+003, 2.001478e-003
2.067316e+003, 2.027375e-003
2.069245e+003, 2.339801e-003
2.071173e+003, 1.380325e-003
2.073102e+003, 6.911922e-005
2.075030e+003, 8.584105e-004
2.076959e+003, 3.040295e-003
2.078887e+003, 3.700848e-003
2.080816e+003, 3.336198e-003
2.082744e+003, 3.176743e-003
2.084673e+003, 3.307517e-003
2.086601e+003, 3.629485e-003
2.088530e+003, 3.988646e-003
2.090458e+003, 4.215056e-003
2.092386e+003, 4.062313e-003
2.094315e+003, 3.516888e-003
2.096243e+003, 3.423982e-003
2.098172e+003, 3.197159e-003
2.100100e+003, 3.368615e-003
2.102029e+003, 3.541880e-003
2.103957e+003, 3.993628e-003
2.105886e+003, 5.067513e-003
2.107814e+003, 4.650882e-003
2.109743e+003, 3.980185e-003
2.111671e+003, 4.561651e-003
2.113600e+003, 5.074538e-003
2.115528e+003, 4.272335e-003
2.117457e+003, 4.194612e-003
2.119385e+003, 5.468344e-003
2.121313e+003, 5.153361e-003
2.123242e+003, 4.001928e-003
2.125170e+003, 3.890863e-003
2.127099e+003, 3.146300e-003
2.129027e+003, 2.574426e-003
2.130956e+003, 2.750389e-003
2.132884e+003, 2.762308e-003
2.134813e+003, 2.925942e-003
2.136741e+003, 2.786980e-003
2.138670e+003, 1.938894e-003
2.140598e+003, 1.874121e-003
2.142527e+003, 1.053796e-003
2.144455e+003, -6.072632e-004
2.146384e+003, -6.869063e-004
2.148312e+003, -1.183073e-004
2.150240e+003, -1.283979e-003
2.152169e+003, -1.699918e-003
2.154097e+003, -2.876732e-003
2.156026e+003, -5.982068e-003
2.157954e+003, -5.937682e-003
2.159883e+003, 9.364841e-004
2.161811e+003, 4.393366e-003
2.163740e+003, 2.271428e-003
2.165668e+003, 2.517262e-003
2.167597e+003, 2.579928e-003
2.169525e+003, 1.202856e-003
2.171454e+003, 1.610399e-003
2.173382e+003, 1.926614e-003
2.175311e+003, 2.005466e-003
2.177239e+003, 1.492001e-003
2.179167e+003, 3.558109e-003
2.181096e+003, 6.415979e-003
2.183024e+003, 5.973455e-003
2.184953e+003, 4.279843e-003
2.186881e+003, 3.903019e-003
2.188810e+003, 5.509701e-003
2.190738e+003, 5.314166e-003
2.192667e+003, 5.801085e-003
2.194595e+003, 6.563700e-003
2.196524e+003, 5.346652e-003
2.198452e+003, 3.691630e-003
2.200381e+003, 4.874911e-003
2.202309e+003, 5.817145e-003
2.204238e+003, 5.058144e-003
2.206166e+003, 5.060395e-003
2.208094e+003, 5.437614e-003
2.210023e+003, 5.509596e-003
2.211951e+003, 5.859022e-003
2.213880e+003, 5.522095e-003
2.215808e+003, 5.047434e-003
2.217737e+003, 5.149711e-003
2.219665e+003, 5.080893e-003
2.221594e+003, 4.947236e-003
2.223522e+003, 5.396144e-003
2.225451e+003, 5.750933e-003
2.227379e+003, 5.458943e-003
2.229308e+003, 4.761321e-003
2.231236e+003, 5.150480e-003
2.233165e+003, 6.418997e-003
2.235093e+003, 7.105181e-003
2.237021e+003, 7.082872e-003
2.238950e+003, 6.366970e-003
2.240878e+003, 6.095597e-003
2.242807e+003, 6.416761e-003
2.244735e+003, 6.735811e-003
2.246664e+003, 6.685041e-003
2.248592e+003, 8.093282e-003
2.250521e+003, 8.174036e-003
2.252449e+003, 6.710309e-003
2.254378e+003, 6.745335e-003
2.256306e+003, 7.607901e-003
2.258235e+003, 7.700789e-003
2.260163e+003, 8.303487e-003
2.262092e+003, 7.823926e-003
2.264020e+003, 6.821592e-003
2.265948e+003, 7.722169e-003
2.267877e+003, 8.631343e-003
2.269805e+003, 8.492091e-003
2.271734e+003, 9.137960e-003
2.273662e+003, 9.759058e-003
2.275591e+003, 9.661394e-003
2.277519e+003, 9.007833e-003
2.279448e+003, 9.010472e-003
2.281376e+003, 9.551032e-003
2.283305e+003, 1.024160e-002
2.285233e+003, 1.111935e-002
2.287162e+003, 1.049893e-002
2.289090e+003, 9.736890e-003
2.291019e+003, 9.524038e-003
2.292947e+003, 1.032025e-002
2.294875e+003, 1.040393e-002
2.296804e+003, 1.012275e-002
2.298732e+003, 9.941107e-003
2.300661e+003, 9.544304e-003
2.302589e+003, 9.829769e-003
2.304518e+003, 1.012121e-002
2.306446e+003, 1.025630e-002
2.308375e+003, 1.059739e-002
2.310303e+003, 1.067620e-002
2.312232e+003, 1.049551e-002
2.314160e+003, 1.036823e-002
2.316089e+003, 1.069418e-002
2.318017e+003, 1.074159e-002
2.319946e+003, 1.062058e-002
2.321874e+003, 1.147865e-002
2.323802e+003, 1.205232e-002
2.325731e+003, 1.108712e-002
2.327659e+003, 1.052909e-002
2.329588e+003, 1.059115e-002
2.331516e+003, 1.052408e-002
2.333445e+003, 1.052967e-002
2.335373e+003, 1.032623e-002
2.337302e+003, 1.027701e-002
2.339230e+003, 1.025607e-002
2.341159e+003, 9.996922e-003
2.343087e+003, 1.010595e-002
2.345016e+003, 1.049295e-002
2.346944e+003, 1.063041e-002
2.348873e+003, 1.073375e-002
2.350801e+003, 1.038550e-002
2.352729e+003, 1.044636e-002
2.354658e+003, 1.114886e-002
2.356586e+003, 1.136966e-002
2.358515e+003, 1.126621e-002
2.360443e+003, 1.091975e-002
2.362372e+003, 1.036462e-002
2.364300e+003, 1.006374e-002
2.366229e+003, 9.987300e-003
2.368157e+003, 9.978567e-003
2.370086e+003, 1.003878e-002
2.372014e+003, 1.002690e-002
2.373942e+003, 1.017363e-002
2.375871e+003, 1.004421e-002
2.377799e+003, 9.558666e-003
2.379728e+003, 9.513067e-003
2.381656e+003, 1.027962e-002
2.383585e+003, 1.029975e-002
2.385513e+003, 1.069605e-002
2.387442e+003, 1.093195e-002
2.389370e+003, 1.079198e-002
2.391299e+003, 1.019442e-002
2.393227e+003, 9.876275e-003
2.395156e+003, 9.618565e-003
2.397084e+003, 9.447428e-003
2.399012e+003, 9.708161e-003
2.400941e+003, 9.643225e-003
2.402869e+003, 9.665910e-003
2.404798e+003, 9.887153e-003
2.406726e+003, 9.857086e-003
2.408655e+003, 1.025080e-002
2.410583e+003, 1.082498e-002
2.412512e+003, 1.030758e-002
2.414440e+003, 9.723140e-003
2.416369e+003, 9.538110e-003
2.418297e+003, 9.930119e-003
2.420226e+003, 1.096236e-002
2.422154e+003, 1.065227e-002
2.424083e+003, 1.023365e-002
2.426011e+003, 1.041802e-002
2.427939e+003, 1.032126e-002
2.429868e+003, 1.079104e-002
2.431796e+003, 1.144264e-002
2.433725e+003, 1.065550e-002
2.435653e+003, 9.579949e-003
2.437582e+003, 9.841117e-003
2.439510e+003, 1.085052e-002
2.441439e+003, 1.085591e-002
2.443367e+003, 1.054056e-002
2.445296e+003, 1.081592e-002
2.447224e+003, 1.141729e-002
2.449153e+003, 1.164384e-002
2.451081e+003, 1.102515e-002
2.453010e+003, 1.078181e-002
2.454938e+003, 1.076745e-002
2.456866e+003, 1.083207e-002
2.458795e+003, 1.054655e-002
2.460723e+003, 1.068518e-002
2.462652e+003, 1.079700e-002
2.464580e+003, 1.042763e-002
2.466509e+003, 1.077048e-002
2.468437e+003, 1.082624e-002
2.470366e+003, 1.068142e-002
2.472294e+003, 1.085979e-002
2.474223e+003, 1.193644e-002
2.476151e+003, 1.178108e-002
2.478080e+003, 1.139701e-002
2.480008e+003, 1.126271e-002
2.481937e+003, 1.068710e-002
2.483865e+003, 1.141156e-002
2.485793e+003, 1.171405e-002
2.487722e+003, 1.131607e-002
2.489650e+003, 1.094345e-002
2.491579e+003, 1.086620e-002
2.493507e+003, 1.114337e-002
2.495436e+003, 1.091584e-002
2.497364e+003, 9.995289e-003
2.499293e+003, 9.674343e-003
2.501221e+003, 1.004260e-002
2.503150e+003, 1.028810e-002
2.505078e+003, 1.069160e-002
2.507007e+003, 1.092358e-002
2.508935e+003, 1.119039e-002
2.510864e+003, 1.095770e-002
2.512792e+003, 1.087403e-002
2.514720e+003, 1.079486e-002
2.516649e+003, 1.056828e-002
2.518577e+003, 1.057158e-002
2.520506e+003, 1.042326e-002
2.522434e+003, 1.034914e-002
2.524363e+003, 1.077940e-002
2.526291e+003, 1.140880e-002
2.528220e+003, 1.097498e-002
2.530148e+003, 9.928450e-003
2.532077e+003, 1.000333e-002
2.534005e+003, 1.092750e-002
2.535934e+003, 1.115386e-002
2.537862e+003, 1.083789e-002
2.539791e+003, 1.045799e-002
2.541719e+003, 1.054117e-002
2.543647e+003, 1.129081e-002
2.545576e+003, 1.187504e-002
2.547504e+003, 1.212467e-002
2.549433e+003, 1.175378e-002
2.551361e+003, 1.076860e-002
2.553290e+003, 1.090643e-002
2.555218e+003, 1.177369e-002
2.557147e+003, 1.182094e-002
2.559075e+003, 1.133402e-002
2.561004e+003, 1.167463e-002
2.562932e+003, 1.200357e-002
2.564861e+003, 1.174873e-002
2.566789e+003, 1.154486e-002
2.568718e+003, 1.194773e-002
2.570646e+003, 1.190883e-002
2.572574e+003, 1.131011e-002
2.574503e+003, 1.144846e-002
2.576431e+003, 1.125852e-002
2.578360e+003, 1.118453e-002
2.580288e+003, 1.163434e-002
2.582217e+003, 1.163110e-002
2.584145e+003, 1.194394e-002
2.586074e+003, 1.203686e-002
2.588002e+003, 1.188836e-002
2.589931e+003, 1.173756e-002
2.591859e+003, 1.190582e-002
2.593788e+003, 1.150947e-002
2.595716e+003, 1.078665e-002
2.597645e+003, 1.089304e-002
2.599573e+003, 1.160981e-002
2.601501e+003, 1.179279e-002
2.603430e+003, 1.235257e-002
2.605358e+003, 1.276954e-002
2.607287e+003, 1.235235e-002
2.609215e+003, 1.215393e-002
2.611144e+003, 1.197176e-002
2.613072e+003, 1.207650e-002
2.615001e+003, 1.220295e-002
2.616929e+003, 1.242205e-002
2.618858e+003, 1.218498e-002
2.620786e+003, 1.210557e-002
2.622715e+003, 1.242193e-002
2.624643e+003, 1.249674e-002
2.626572e+003, 1.302922e-002
2.628500e+003, 1.266569e-002
2.630428e+003, 1.195290e-002
2.632357e+003, 1.196246e-002
2.634285e+003, 1.282384e-002
2.636214e+003, 1.285805e-002
2.638142e+003, 1.189706e-002
2.640071e+003, 1.216221e-002
2.641999e+003, 1.301721e-002
2.643928e+003, 1.319667e-002
2.645856e+003, 1.306947e-002
2.647785e+003, 1.323367e-002
2.649713e+003, 1.307298e-002
2.651642e+003, 1.218124e-002
2.653570e+003, 1.243119e-002
2.655499e+003, 1.271251e-002
2.657427e+003, 1.194960e-002
2.659355e+003, 1.208355e-002
2.661284e+003, 1.263679e-002
2.663212e+003, 1.272607e-002
2.665141e+003, 1.235383e-002
2.667069e+003, 1.161854e-002
2.668998e+003, 1.141695e-002
2.670926e+003, 1.163105e-002
2.672855e+003, 1.176469e-002
2.674783e+003, 1.199075e-002
2.676712e+003, 1.232841e-002
2.678640e+003, 1.258651e-002
2.680569e+003, 1.205609e-002
2.682497e+003, 1.174769e-002
2.684426e+003, 1.155130e-002
2.686354e+003, 1.136625e-002
2.688282e+003, 1.206576e-002
2.690211e+003, 1.260970e-002
2.692139e+003, 1.194428e-002
2.694068e+003, 1.159839e-002
2.695996e+003, 1.198838e-002
2.697925e+003, 1.181698e-002
2.699853e+003, 1.127252e-002
2.701782e+003, 1.178151e-002
2.703710e+003, 1.244941e-002
2.705639e+003, 1.201287e-002
2.707567e+003, 1.172899e-002
2.709496e+003, 1.205058e-002
2.711424e+003, 1.233185e-002
2.713353e+003, 1.247773e-002
2.715281e+003, 1.255898e-002
2.717209e+003, 1.288078e-002
2.719138e+003, 1.276177e-002
2.721066e+003, 1.227987e-002
2.722995e+003, 1.213834e-002
2.724923e+003, 1.229517e-002
2.726852e+003, 1.203313e-002
2.728780e+003, 1.199186e-002
2.730709e+003, 1.226021e-002
2.732637e+003, 1.198576e-002
2.734566e+003, 1.205655e-002
2.736494e+003, 1.252111e-002
2.738423e+003, 1.297676e-002
2.740351e+003, 1.307393e-002
2.742280e+003, 1.292063e-002
2.744208e+003, 1.268303e-002
2.746136e+003, 1.271816e-002
2.748065e+003, 1.290334e-002
2.749993e+003, 1.280758e-002
2.751922e+003, 1.268394e-002
2.753850e+003, 1.272133e-002
2.755779e+003, 1.294289e-002
2.757707e+003, 1.324571e-002
2.759636e+003, 1.372325e-002
2.761564e+003, 1.325674e-002
2.763493e+003, 1.235273e-002
2.765421e+003, 1.246023e-002
2.767350e+003, 1.278063e-002
2.769278e+003, 1.278286e-002
2.771207e+003, 1.247924e-002
2.773135e+003, 1.243315e-002
2.775063e+003, 1.249559e-002
2.776992e+003, 1.268270e-002
2.778920e+003, 1.270314e-002
2.780849e+003, 1.254073e-002
2.782777e+003, 1.226828e-002
2.784706e+003, 1.282330e-002
2.786634e+003, 1.340407e-002
2.788563e+003, 1.360320e-002
2.790491e+003, 1.319668e-002
2.792420e+003, 1.271389e-002
2.794348e+003, 1.260741e-002
2.796277e+003, 1.310884e-002
2.798205e+003, 1.319773e-002
2.800134e+003, 1.302413e-002
2.802062e+003, 1.272711e-002
2.803990e+003, 1.300629e-002
2.805919e+003, 1.286912e-002
2.807847e+003, 1.232260e-002
2.809776e+003, 1.241120e-002
2.811704e+003, 1.294801e-002
2.813633e+003, 1.285127e-002
2.815561e+003, 1.237945e-002
2.817490e+003, 1.269126e-002
2.819418e+003, 1.309948e-002
2.821347e+003, 1.311193e-002
2.823275e+003, 1.337120e-002
2.825204e+003, 1.409875e-002
2.827132e+003, 1.452187e-002
2.829061e+003, 1.463109e-002
2.830989e+003, 1.397667e-002
2.832917e+003, 1.374307e-002
2.834846e+003, 1.347586e-002
2.836774e+003, 1.314839e-002
2.838703e+003, 1.352986e-002
2.840631e+003, 1.385350e-002
2.842560e+003, 1.345835e-002
2.844488e+003, 1.340431e-002
2.846417e+003, 1.404139e-002
2.848345e+003, 1.408765e-002
2.850274e+003, 1.369004e-002
2.852202e+003, 1.342203e-002
2.854131e+003, 1.364173e-002
2.856059e+003, 1.398970e-002
2.857988e+003, 1.407883e-002
2.859916e+003, 1.411498e-002
2.861844e+003, 1.352071e-002
2.863773e+003, 1.313984e-002
2.865701e+003, 1.351906e-002
2.867630e+003, 1.425233e-002
2.869558e+003, 1.451815e-002
2.871487e+003, 1.428853e-002
2.873415e+003, 1.374334e-002
2.875344e+003, 1.321662e-002
2.877272e+003, 1.266081e-002
2.879201e+003, 1.322847e-002
2.881129e+003, 1.460364e-002
2.883058e+003, 1.500336e-002
2.884986e+003, 1.406421e-002
2.886915e+003, 1.360695e-002
2.888843e+003, 1.432436e-002
2.890771e+003, 1.483287e-002
2.892700e+003, 1.437015e-002
2.894628e+003, 1.400113e-002
2.896557e+003, 1.439426e-002
2.898485e+003, 1.436595e-002
2.900414e+003, 1.419958e-002
2.902342e+003, 1.400753e-002
2.904271e+003, 1.450823e-002
2.906199e+003, 1.557928e-002
2.908128e+003, 1.573332e-002
2.910056e+003, 1.562182e-002
2.911985e+003, 1.578692e-002
2.913913e+003, 1.552191e-002
2.915842e+003, 1.519841e-002
2.917770e+003, 1.564522e-002
2.919698e+003, 1.620279e-002
2.921627e+003, 1.586625e-002
2.923555e+003, 1.502668e-002
2.925484e+003, 1.443644e-002
2.927412e+003, 1.495306e-002
2.929341e+003, 1.472615e-002
2.931269e+003, 1.440251e-002
2.933198e+003, 1.402899e-002
2.935126e+003, 1.368408e-002
2.937055e+003, 1.393438e-002
2.938983e+003, 1.416113e-002
2.940912e+003, 1.457318e-002
2.942840e+003, 1.486583e-002
2.944769e+003, 1.466474e-002
2.946697e+003, 1.437839e-002
2.948625e+003, 1.443196e-002
2.950554e+003, 1.472272e-002
2.952482e+003, 1.461984e-002
2.954411e+003, 1.456443e-002
2.956339e+003, 1.504949e-002
2.958268e+003, 1.504294e-002
2.960196e+003, 1.463353e-002
2.962125e+003, 1.418312e-002
2.964053e+003, 1.393003e-002
2.965982e+003, 1.407977e-002
2.967910e+003, 1.404171e-002
2.969839e+003, 1.400248e-002
2.971767e+003, 1.413890e-002
2.973696e+003, 1.339111e-002
2.975624e+003, 1.349604e-002
2.977552e+003, 1.391419e-002
2.979481e+003, 1.407899e-002
2.981409e+003, 1.359036e-002
2.983338e+003, 1.366048e-002
2.985266e+003, 1.398664e-002
2.987195e+003, 1.349021e-002
2.989123e+003, 1.325255e-002
2.991052e+003, 1.384064e-002
2.992980e+003, 1.426379e-002
2.994909e+003, 1.431612e-002
2.996837e+003, 1.444381e-002
2.998766e+003, 1.444979e-002
3.000694e+003, 1.359096e-002
3.002623e+003, 1.406765e-002
3.004551e+003, 1.423439e-002
3.006479e+003, 1.382675e-002
3.008408e+003, 1.423462e-002
3.010336e+003, 1.454146e-002
3.012265e+003, 1.475143e-002
3.014193e+003, 1.448970e-002
3.016122e+003, 1.471432e-002
3.018050e+003, 1.463019e-002
3.019979e+003, 1.433985e-002
3.021907e+003, 1.428706e-002
3.023836e+003, 1.480961e-002
3.025764e+003, 1.502764e-002
3.027693e+003, 1.515798e-002
3.029621e+003, 1.577411e-002
3.031550e+003, 1.499937e-002
3.033478e+003, 1.427531e-002
3.035406e+003, 1.452852e-002
3.037335e+003, 1.443051e-002
3.039263e+003, 1.422416e-002
3.041192e+003, 1.448745e-002
3.043120e+003, 1.456127e-002
3.045049e+003, 1.416342e-002
3.046977e+003, 1.461739e-002
3.048906e+003, 1.460039e-002
3.050834e+003, 1.437130e-002
3.052763e+003, 1.482976e-002
3.054691e+003, 1.478796e-002
3.056620e+003, 1.456340e-002
3.058548e+003, 1.387553e-002
3.060477e+003, 1.440504e-002
3.062405e+003, 1.480478e-002
3.064333e+003, 1.461483e-002
3.066262e+003, 1.520082e-002
3.068190e+003, 1.525738e-002
3.070119e+003, 1.482942e-002
3.072047e+003, 1.486467e-002
3.073976e+003, 1.481499e-002
3.075904e+003, 1.475328e-002
3.077833e+003, 1.462633e-002
3.079761e+003, 1.442081e-002
3.081690e+003, 1.496502e-002
3.083618e+003, 1.491291e-002
3.085547e+003, 1.525631e-002
3.087475e+003, 1.574759e-002
3.089404e+003, 1.551011e-002
3.091332e+003, 1.564114e-002
3.093260e+003, 1.636668e-002
3.095189e+003, 1.633173e-002
3.097117e+003, 1.643342e-002
3.099046e+003, 1.649459e-002
3.100974e+003, 1.599101e-002
3.102903e+003, 1.523606e-002
3.104831e+003, 1.460923e-002
3.106760e+003, 1.572420e-002
3.108688e+003, 1.650149e-002
3.110617e+003, 1.606514e-002
3.112545e+003, 1.578792e-002
3.114474e+003, 1.531647e-002
3.116402e+003, 1.533566e-002
3.118331e+003, 1.494863e-002
3.120259e+003, 1.549644e-002
3.122188e+003, 1.583630e-002
3.124116e+003, 1.602236e-002
3.126044e+003, 1.592535e-002
3.127973e+003, 1.564630e-002
3.129901e+003, 1.615708e-002
3.131830e+003, 1.600417e-002
3.133758e+003, 1.546539e-002
3.135687e+003, 1.526213e-002
3.137615e+003, 1.506862e-002
3.139544e+003, 1.590666e-002
3.141472e+003, 1.666339e-002
3.143401e+003, 1.658970e-002
3.145329e+003, 1.745495e-002
3.147258e+003, 1.731525e-002
3.149186e+003, 1.594643e-002
3.151115e+003, 1.522234e-002
3.153043e+003, 1.551027e-002
3.154971e+003, 1.553265e-002
3.156900e+003, 1.581671e-002
3.158828e+003, 1.621945e-002
3.160757e+003, 1.627111e-002
3.162685e+003, 1.684986e-002
3.164614e+003, 1.732367e-002
3.166542e+003, 1.717273e-002
3.168471e+003, 1.594457e-002
3.170399e+003, 1.569467e-002
3.172328e+003, 1.681132e-002
3.174256e+003, 1.718059e-002
3.176185e+003, 1.636289e-002
3.178113e+003, 1.587154e-002
3.180042e+003, 1.614127e-002
3.181970e+003, 1.675847e-002
3.183898e+003, 1.745541e-002
3.185827e+003, 1.786478e-002
3.187755e+003, 1.790844e-002
3.189684e+003, 1.861944e-002
3.191612e+003, 1.921550e-002
3.193541e+003, 1.825034e-002
3.195469e+003, 1.792282e-002
3.197398e+003, 1.840099e-002
3.199326e+003, 1.811209e-002
3.201255e+003, 1.706243e-002
3.203183e+003, 1.625079e-002
3.205112e+003, 1.690906e-002
3.207040e+003, 1.758616e-002
3.208969e+003, 1.808751e-002
3.210897e+003, 1.849334e-002
3.212825e+003, 1.820221e-002
3.214754e+003, 1.670323e-002
3.216682e+003, 1.593005e-002
3.218611e+003, 1.688992e-002
3.220539e+003, 1.757611e-002
3.222468e+003, 1.750479e-002
3.224396e+003, 1.706011e-002
3.226325e+003, 1.727940e-002
3.228253e+003, 1.759622e-002
3.230182e+003, 1.678707e-002
3.232110e+003, 1.730951e-002
3.234039e+003, 1.818963e-002
3.235967e+003, 1.786575e-002
3.237896e+003, 1.755264e-002
3.239824e+003, 1.826720e-002
3.241752e+003, 1.839548e-002
3.243681e+003, 1.900502e-002
3.245609e+003, 1.957909e-002
3.247538e+003, 1.867810e-002
3.249466e+003, 1.830291e-002
3.251395e+003, 1.794733e-002
3.253323e+003, 1.753084e-002
3.255252e+003, 1.716201e-002
3.257180e+003, 1.742990e-002
3.259109e+003, 1.788711e-002
3.261037e+003, 1.850525e-002
3.262966e+003, 1.854566e-002
3.264894e+003, 1.889895e-002
3.266823e+003, 1.916781e-002
3.268751e+003, 1.860159e-002
3.270679e+003, 1.857105e-002
3.272608e+003, 1.901009e-002
3.274536e+003, 1.762274e-002
3.276465e+003, 1.662027e-002
3.278393e+003, 1.691374e-002
3.280322e+003, 1.715898e-002
3.282250e+003, 1.841596e-002
3.284179e+003, 1.925223e-002
3.286107e+003, 1.942710e-002
3.288036e+003, 1.881112e-002
3.289964e+003, 1.843241e-002
3.291893e+003, 1.930132e-002
3.293821e+003, 1.989395e-002
3.295750e+003, 1.984746e-002
3.297678e+003, 1.932140e-002
3.299606e+003, 1.869831e-002
3.301535e+003, 1.886530e-002
3.303463e+003, 1.877240e-002
3.305392e+003, 1.745518e-002
3.307320e+003, 1.827069e-002
3.309249e+003, 1.907493e-002
3.311177e+003, 1.777517e-002
3.313106e+003, 1.760404e-002
3.315034e+003, 1.910627e-002
3.316963e+003, 1.858044e-002
3.318891e+003, 1.784587e-002
3.320820e+003, 1.795539e-002
3.322748e+003, 1.787775e-002
3.324677e+003, 1.743236e-002
3.326605e+003, 1.813210e-002
3.328533e+003, 1.941030e-002
3.330462e+003, 1.858922e-002
3.332390e+003, 1.859931e-002
3.334319e+003, 1.966800e-002
3.336247e+003, 1.979110e-002
3.338176e+003, 1.866174e-002
3.340104e+003, 1.846537e-002
3.342033e+003, 1.947095e-002
3.343961e+003, 1.980698e-002
3.345890e+003, 1.948556e-002
3.347818e+003, 1.982263e-002
3.349747e+003, 1.960488e-002
3.351675e+003, 1.910472e-002
3.353604e+003, 1.790814e-002
3.355532e+003, 1.751222e-002
3.357460e+003, 1.887155e-002
3.359389e+003, 1.940122e-002
3.361317e+003, 1.859788e-002
3.363246e+003, 1.923830e-002
3.365174e+003, 1.866018e-002
3.367103e+003, 1.852658e-002
3.369031e+003, 1.930572e-002
3.370960e+003, 1.877365e-002
3.372888e+003, 1.855543e-002
3.374817e+003, 1.824908e-002
3.376745e+003, 1.802382e-002
3.378674e+003, 1.937511e-002
3.380602e+003, 2.070481e-002
3.382531e+003, 1.977554e-002
3.384459e+003, 1.975448e-002
3.386387e+003, 1.953400e-002
3.388316e+003, 1.846850e-002
3.390244e+003, 1.906210e-002
3.392173e+003, 1.908114e-002
3.394101e+003, 1.851803e-002
3.396030e+003, 1.850104e-002
3.397958e+003, 1.944347e-002
3.399887e+003, 2.033182e-002
3.401815e+003, 2.079886e-002
3.403744e+003, 2.142521e-002
3.405672e+003, 2.081357e-002
3.407601e+003, 1.975076e-002
3.409529e+003, 1.969520e-002
3.411458e+003, 2.041723e-002
3.413386e+003, 1.955639e-002
3.415314e+003, 1.867303e-002
3.417243e+003, 1.914163e-002
3.419171e+003, 2.013791e-002
3.421100e+003, 2.117401e-002
3.423028e+003, 2.205666e-002
3.424957e+003, 2.130692e-002
3.426885e+003, 2.072114e-002
3.428814e+003, 2.089936e-002
3.430742e+003, 2.055296e-002
3.432671e+003, 2.135530e-002
3.434599e+003, 2.059845e-002
3.436528e+003, 1.951630e-002
3.438456e+003, 1.913348e-002
3.440385e+003, 1.996331e-002
3.442313e+003, 1.999670e-002
3.444241e+003, 2.014532e-002
3.446170e+003, 2.037611e-002
3.448098e+003, 2.167393e-002
3.450027e+003, 2.118170e-002
3.451955e+003, 2.092137e-002
3.453884e+003, 2.068383e-002
3.455812e+003, 2.005433e-002
3.457741e+003, 2.113407e-002
3.459669e+003, 2.150922e-002
3.461598e+003, 2.014583e-002
3.463526e+003, 2.007759e-002
3.465455e+003, 2.141981e-002
3.467383e+003, 2.187239e-002
3.469312e+003, 2.100770e-002
3.471240e+003, 2.047861e-002
3.473168e+003, 1.982982e-002
3.475097e+003, 1.937243e-002
3.477025e+003, 1.921571e-002
3.478954e+003, 2.061540e-002
3.480882e+003, 2.132128e-002
3.482811e+003, 2.126348e-002
3.484739e+003, 1.988157e-002
3.486668e+003, 1.948570e-002
3.488596e+003, 2.068498e-002
3.490525e+003, 2.104528e-002
3.492453e+003, 2.142277e-002
3.494382e+003, 2.146532e-002
3.496310e+003, 2.079101e-002
3.498239e+003, 1.995661e-002
3.500167e+003, 2.051569e-002
3.502095e+003, 2.191686e-002
3.504024e+003, 2.272495e-002
3.505952e+003, 2.202551e-002
3.507881e+003, 2.041582e-002
3.509809e+003, 2.016210e-002
3.511738e+003, 1.999820e-002
3.513666e+003, 2.005908e-002
3.515595e+003, 1.993095e-002
3.517523e+003, 1.953518e-002
3.519452e+003, 1.916363e-002
3.521380e+003, 2.049608e-002
3.523309e+003, 2.168512e-002
3.525237e+003, 2.138077e-002
3.527166e+003, 2.009244e-002
3.529094e+003, 2.081113e-002
3.531022e+003, 2.146774e-002
3.532951e+003, 2.115881e-002
3.534879e+003, 2.184605e-002
3.536808e+003, 2.176615e-002
3.538736e+003, 2.066662e-002
3.540665e+003, 2.032034e-002
3.542593e+003, 2.064954e-002
3.544522e+003, 2.087113e-002
3.546450e+003, 2.030919e-002
3.548379e+003, 2.087045e-002
3.550307e+003, 2.083245e-002
3.552236e+003, 2.041424e-002
3.554164e+003, 2.002916e-002
3.556093e+003, 1.984419e-002
3.558021e+003, 1.943154e-002
3.559949e+003, 2.016949e-002
3.561878e+003, 2.073115e-002
3.563806e+003, 2.223450e-002
3.565735e+003, 2.214117e-002
3.567663e+003, 2.263745e-002
3.569592e+003, 2.225903e-002
3.571520e+003, 1.942270e-002
3.573449e+003, 1.993402e-002
3.575377e+003, 2.160248e-002
3.577306e+003, 2.201119e-002
3.579234e+003, 2.235870e-002
3.581163e+003, 2.374234e-002
3.583091e+003, 2.228964e-002
3.585020e+003, 2.144407e-002
3.586948e+003, 2.296250e-002
3.588876e+003, 2.328918e-002
3.590805e+003, 2.291650e-002
3.592733e+003, 2.399827e-002
3.594662e+003, 2.529683e-002
3.596590e+003, 2.697015e-002
3.598519e+003, 2.826420e-002
3.600447e+003, 2.807052e-002
3.602376e+003, 2.875782e-002
3.604304e+003, 3.084347e-002
3.606233e+003, 3.368603e-002
3.608161e+003, 3.626174e-002
3.610090e+003, 3.742108e-002
3.612018e+003, 3.989784e-002
3.613947e+003, 4.248511e-002
3.615875e+003, 4.540748e-002
3.617803e+003, 4.835306e-002
3.619732e+003, 5.176408e-002
3.621660e+003, 5.482029e-002
3.623589e+003, 5.496742e-002
3.625517e+003, 5.507407e-002
3.627446e+003, 5.665003e-002
3.629374e+003, 5.523343e-002
3.631303e+003, 5.361399e-002
3.633231e+003, 5.319617e-002
3.635160e+003, 5.094099e-002
3.637088e+003, 4.871977e-002
3.639017e+003, 4.779208e-002
3.640945e+003, 4.687732e-002
3.642874e+003, 4.488957e-002
3.644802e+003, 4.396608e-002
3.646730e+003, 4.448408e-002
3.648659e+003, 4.513940e-002
3.650587e+003, 4.531498e-002
3.652516e+003, 4.588237e-002
3.654444e+003, 4.401738e-002
3.656373e+003, 4.068898e-002
3.658301e+003, 3.872192e-002
3.660230e+003, 3.801049e-002
3.662158e+003, 3.655522e-002
3.664087e+003, 3.534686e-002
3.666015e+003, 3.400680e-002
3.667944e+003, 3.214287e-002
3.669872e+003, 3.096578e-002
3.671801e+003, 2.791631e-002
3.673729e+003, 2.470056e-002
3.675657e+003, 2.520053e-002
3.677586e+003, 2.405459e-002
3.679514e+003, 2.163835e-002
3.681443e+003, 2.100248e-002
3.683371e+003, 2.120162e-002
3.685300e+003, 2.013905e-002
3.687228e+003, 2.055008e-002
3.689157e+003, 2.352006e-002
3.691085e+003, 2.324701e-002
3.693014e+003, 2.221215e-002
3.694942e+003, 2.199112e-002
3.696871e+003, 2.178112e-002
3.698799e+003, 2.180361e-002
3.700728e+003, 2.130482e-002
3.702656e+003, 1.877146e-002
3.704584e+003, 1.724477e-002
3.706513e+003, 1.661155e-002
3.708441e+003, 1.692946e-002
3.710370e+003, 1.726594e-002
3.712298e+003, 1.732840e-002
3.714227e+003, 1.668706e-002
3.716155e+003, 1.847204e-002
3.718084e+003, 1.850513e-002
3.720012e+003, 1.871278e-002
3.721941e+003, 1.843206e-002
3.723869e+003, 1.728704e-002
3.725798e+003, 1.689753e-002
3.727726e+003, 1.741756e-002
3.729655e+003, 1.817332e-002
3.731583e+003, 1.657281e-002
3.733511e+003, 1.503641e-002
3.735440e+003, 1.508000e-002
3.737368e+003, 1.635636e-002
3.739297e+003, 1.695612e-002
3.741225e+003, 1.751401e-002
3.743154e+003, 1.727855e-002
3.745082e+003, 1.752366e-002
3.747011e+003, 1.798515e-002
3.748939e+003, 1.933167e-002
3.750868e+003, 1.999869e-002
3.752796e+003, 1.798119e-002
3.754725e+003, 1.805634e-002
3.756653e+003, 1.900587e-002
3.758582e+003, 1.985411e-002
3.760510e+003, 2.049283e-002
3.762438e+003, 1.828241e-002
3.764367e+003, 1.775812e-002
3.766295e+003, 1.809260e-002
3.768224e+003, 1.681590e-002
3.770152e+003, 1.672858e-002
3.772081e+003, 1.793265e-002
3.774009e+003, 1.893669e-002
3.775938e+003, 1.884410e-002
3.777866e+003, 1.777366e-002
3.779795e+003, 1.836145e-002
3.781723e+003, 1.989942e-002
3.783652e+003, 1.946659e-002
3.785580e+003, 1.800546e-002
3.787509e+003, 1.789364e-002
3.789437e+003, 1.770729e-002
3.791365e+003, 1.759144e-002
3.793294e+003, 1.775407e-002
3.795222e+003, 1.922759e-002
3.797151e+003, 1.993681e-002
3.799079e+003, 2.121670e-002
3.801008e+003, 2.036539e-002
3.802936e+003, 1.878989e-002
3.804865e+003, 1.864276e-002
3.806793e+003, 1.950461e-002
3.808722e+003, 2.039608e-002
3.810650e+003, 2.084135e-002
3.812579e+003, 1.959380e-002
3.814507e+003, 1.821325e-002
3.816436e+003, 1.736329e-002
3.818364e+003, 1.725529e-002
3.820292e+003, 1.766120e-002
3.822221e+003, 1.752085e-002
3.824149e+003, 1.730734e-002
3.826078e+003, 1.837412e-002
3.828006e+003, 1.760307e-002
3.829935e+003, 1.785694e-002
3.831863e+003, 1.820711e-002
3.833792e+003, 1.770075e-002
3.835720e+003, 1.853300e-002
3.837649e+003, 2.005549e-002
3.839577e+003, 1.946781e-002
3.841506e+003, 1.800286e-002
3.843434e+003, 1.887928e-002
3.845363e+003, 1.969330e-002
3.847291e+003, 1.985847e-002
3.849219e+003, 1.782548e-002
3.851148e+003, 1.718256e-002
3.853076e+003, 1.969939e-002
3.855005e+003, 2.006812e-002
3.856933e+003, 2.003720e-002
3.858862e+003, 1.994201e-002
3.860790e+003, 1.941987e-002
3.862719e+003, 1.942859e-002
3.864647e+003, 1.864611e-002
3.866576e+003, 1.827449e-002
3.868504e+003, 1.821108e-002
3.870433e+003, 1.711811e-002
3.872361e+003, 1.655754e-002
3.874290e+003, 1.720778e-002
3.876218e+003, 1.876486e-002
3.878146e+003, 2.025200e-002
3.880075e+003, 2.093535e-002
3.882003e+003, 1.981981e-002
3.883932e+003, 1.783662e-002
3.885860e+003, 1.657790e-002
3.887789e+003, 1.800152e-002
3.889717e+003, 1.877213e-002
3.891646e+003, 1.968531e-002
3.893574e+003, 1.917310e-002
3.895503e+003, 1.741870e-002
3.897431e+003, 1.820151e-002
3.899360e+003, 1.844742e-002
3.901288e+003, 1.651445e-002
3.903217e+003, 1.579308e-002
3.905145e+003, 1.537968e-002
3.907073e+003, 1.733314e-002
3.909002e+003, 1.900025e-002
3.910930e+003, 1.874017e-002
3.912859e+003, 1.854126e-002
3.914787e+003, 1.908387e-002
3.916716e+003, 2.031384e-002
3.918644e+003, 1.952765e-002
3.920573e+003, 1.884433e-002
3.922501e+003, 1.965343e-002
3.924430e+003, 2.117491e-002
3.926358e+003, 2.099696e-002
3.928287e+003, 2.004124e-002
3.930215e+003, 2.092458e-002
3.932144e+003, 1.862026e-002
3.934072e+003, 1.651377e-002
3.936000e+003, 1.769815e-002
3.937929e+003, 1.906934e-002
3.939857e+003, 1.896990e-002
3.941786e+003, 1.981140e-002
3.943714e+003, 2.090328e-002
3.945643e+003, 2.200685e-002
3.947571e+003, 2.252158e-002
3.949500e+003, 2.230631e-002
3.951428e+003, 1.966830e-002
3.953357e+003, 1.912701e-002
3.955285e+003, 1.750876e-002
3.957214e+003, 1.577116e-002
3.959142e+003, 1.690382e-002
3.961071e+003, 1.867143e-002
3.962999e+003, 1.885061e-002
3.964927e+003, 1.768024e-002
3.966856e+003, 1.796453e-002
3.968784e+003, 1.880183e-002
3.970713e+003, 1.818929e-002
3.972641e+003, 1.895856e-002
3.974570e+003, 2.070183e-002
3.976498e+003, 2.015516e-002
3.978427e+003, 1.874482e-002
3.980355e+003, 2.053325e-002
3.982284e+003, 2.060513e-002
3.984212e+003, 2.017187e-002
3.986141e+003, 2.026828e-002
3.988069e+003, 1.977012e-002
3.989998e+003, 1.795942e-002
3.991926e+003, 1.728564e-002
3.993854e+003, 1.820284e-002
3.995783e+003, 1.896211e-002
3.997711e+003, 2.078079e-002
3.999640e+003, 2.079039e-002
##END=



