##NAMES=Ulexite
##RRUFFID=R050491
##IDEAL CHEMISTRY=NaCaB_5_O_6_(OH)_6_&#183;5H_2_O
##LOCALITY=Open Pit mine, Boron, Kern County, California, USA
##OWNER=RRUFF
##SOURCE=California Institute of Technology
##DESCRIPTION=Colorless fragment
##STATUS=The identification of this mineral has been confirmed by X-ray diffraction.
##URL=rruff.info/R050491
3.741225e+002, 8.754396e-002
3.760510e+002, 1.007611e-001
3.779795e+002, 9.878221e-002
3.799079e+002, 8.960470e-002
3.818364e+002, 8.501751e-002
3.837649e+002, 8.618484e-002
3.856933e+002, 8.595648e-002
3.876218e+002, 8.178538e-002
3.895503e+002, 8.149874e-002
3.914787e+002, 8.448242e-002
3.934072e+002, 9.010874e-002
3.953357e+002, 9.475803e-002
3.972641e+002, 9.893282e-002
3.991926e+002, 1.033181e-001
4.011211e+002, 1.060453e-001
4.030495e+002, 1.065868e-001
4.049780e+002, 1.090204e-001
4.069065e+002, 1.108864e-001
4.088349e+002, 1.105543e-001
4.107634e+002, 1.110260e-001
4.126919e+002, 1.119224e-001
4.146203e+002, 1.141935e-001
4.165488e+002, 1.160052e-001
4.184773e+002, 1.179204e-001
4.204057e+002, 1.213142e-001
4.223342e+002, 1.226865e-001
4.242627e+002, 1.216538e-001
4.261911e+002, 1.192617e-001
4.281196e+002, 1.153657e-001
4.300481e+002, 1.099835e-001
4.319765e+002, 1.069977e-001
4.339050e+002, 1.069174e-001
4.358335e+002, 1.099335e-001
4.377619e+002, 1.155239e-001
4.396904e+002, 1.210698e-001
4.416189e+002, 1.249386e-001
4.435473e+002, 1.272044e-001
4.454758e+002, 1.270216e-001
4.474043e+002, 1.233897e-001
4.493327e+002, 1.164211e-001
4.512612e+002, 1.098175e-001
4.531897e+002, 1.040395e-001
4.551181e+002, 9.959556e-002
4.570466e+002, 9.695479e-002
4.589751e+002, 9.574007e-002
4.609035e+002, 9.672203e-002
4.628320e+002, 9.865605e-002
4.647605e+002, 1.014158e-001
4.666889e+002, 1.050271e-001
4.686174e+002, 1.091263e-001
4.705459e+002, 1.127078e-001
4.724743e+002, 1.146004e-001
4.744028e+002, 1.145451e-001
4.763313e+002, 1.133354e-001
4.782597e+002, 1.123800e-001
4.801882e+002, 1.122058e-001
4.821167e+002, 1.124238e-001
4.840451e+002, 1.123887e-001
4.859736e+002, 1.122815e-001
4.879021e+002, 1.126759e-001
4.898305e+002, 1.136970e-001
4.917590e+002, 1.148836e-001
4.936875e+002, 1.158946e-001
4.956159e+002, 1.161505e-001
4.975444e+002, 1.166080e-001
4.994729e+002, 1.171684e-001
5.014013e+002, 1.173761e-001
5.033298e+002, 1.175615e-001
5.052583e+002, 1.177728e-001
5.071867e+002, 1.186442e-001
5.091152e+002, 1.190419e-001
5.110437e+002, 1.195826e-001
5.129721e+002, 1.205840e-001
5.149006e+002, 1.220733e-001
5.168290e+002, 1.233378e-001
5.187575e+002, 1.251221e-001
5.206860e+002, 1.273309e-001
5.226144e+002, 1.290044e-001
5.245429e+002, 1.313120e-001
5.264714e+002, 1.339895e-001
5.283998e+002, 1.370150e-001
5.303283e+002, 1.395246e-001
5.322568e+002, 1.407219e-001
5.341852e+002, 1.413137e-001
5.361137e+002, 1.405782e-001
5.380422e+002, 1.382993e-001
5.399706e+002, 1.355114e-001
5.418991e+002, 1.336371e-001
5.438276e+002, 1.310829e-001
5.457560e+002, 1.274617e-001
5.476845e+002, 1.244108e-001
5.496130e+002, 1.218700e-001
5.515414e+002, 1.197023e-001
5.534699e+002, 1.178009e-001
5.553984e+002, 1.149834e-001
5.573268e+002, 1.126164e-001
5.592553e+002, 1.108724e-001
5.611838e+002, 1.093042e-001
5.631122e+002, 1.075981e-001
5.650407e+002, 1.064149e-001
5.669692e+002, 1.055488e-001
5.688976e+002, 1.049009e-001
5.708261e+002, 1.048751e-001
5.727546e+002, 1.045145e-001
5.746830e+002, 1.040987e-001
5.766115e+002, 1.037088e-001
5.785400e+002, 1.042554e-001
5.804684e+002, 1.049772e-001
5.823969e+002, 1.056317e-001
5.843254e+002, 1.063837e-001
5.862538e+002, 1.076616e-001
5.881823e+002, 1.086714e-001
5.901108e+002, 1.094572e-001
5.920392e+002, 1.097335e-001
5.939677e+002, 1.098276e-001
5.958962e+002, 1.102727e-001
5.978246e+002, 1.109739e-001
5.997531e+002, 1.118024e-001
6.016816e+002, 1.128465e-001
6.036100e+002, 1.139251e-001
6.055385e+002, 1.148026e-001
6.074670e+002, 1.148894e-001
6.093954e+002, 1.142557e-001
6.113239e+002, 1.135143e-001
6.132524e+002, 1.126191e-001
6.151808e+002, 1.118830e-001
6.171093e+002, 1.109791e-001
6.190378e+002, 1.101419e-001
6.209662e+002, 1.097717e-001
6.228947e+002, 1.097741e-001
6.248232e+002, 1.104253e-001
6.267516e+002, 1.117875e-001
6.286801e+002, 1.134546e-001
6.306086e+002, 1.155462e-001
6.325370e+002, 1.174761e-001
6.344655e+002, 1.195818e-001
6.363940e+002, 1.216988e-001
6.383224e+002, 1.233653e-001
6.402509e+002, 1.245770e-001
6.421794e+002, 1.249390e-001
6.441078e+002, 1.245661e-001
6.460363e+002, 1.240223e-001
6.479648e+002, 1.228097e-001
6.498932e+002, 1.203569e-001
6.518217e+002, 1.177199e-001
6.537502e+002, 1.151461e-001
6.556786e+002, 1.124261e-001
6.576071e+002, 1.098671e-001
6.595356e+002, 1.076495e-001
6.614641e+002, 1.057847e-001
6.633925e+002, 1.039859e-001
6.653210e+002, 1.023592e-001
6.672495e+002, 1.014996e-001
6.691779e+002, 1.010841e-001
6.711064e+002, 1.007838e-001
6.730349e+002, 1.009936e-001
6.749633e+002, 1.014357e-001
6.768918e+002, 1.018286e-001
6.788203e+002, 1.021675e-001
6.807487e+002, 1.028086e-001
6.826772e+002, 1.031980e-001
6.846057e+002, 1.034135e-001
6.865341e+002, 1.036983e-001
6.884626e+002, 1.039774e-001
6.903911e+002, 1.047008e-001
6.923195e+002, 1.060437e-001
6.942480e+002, 1.077066e-001
6.961765e+002, 1.098796e-001
6.981049e+002, 1.127821e-001
7.000334e+002, 1.165526e-001
7.019619e+002, 1.205413e-001
7.038903e+002, 1.251968e-001
7.058188e+002, 1.302557e-001
7.077473e+002, 1.354337e-001
7.096757e+002, 1.403205e-001
7.116042e+002, 1.437631e-001
7.135327e+002, 1.443352e-001
7.154611e+002, 1.410381e-001
7.173896e+002, 1.344329e-001
7.193181e+002, 1.262758e-001
7.212465e+002, 1.187065e-001
7.231750e+002, 1.126986e-001
7.251035e+002, 1.078788e-001
7.270319e+002, 1.039722e-001
7.289604e+002, 1.014439e-001
7.308889e+002, 1.003089e-001
7.328173e+002, 1.004632e-001
7.347458e+002, 1.019503e-001
7.366743e+002, 1.047850e-001
7.386027e+002, 1.084692e-001
7.405312e+002, 1.118147e-001
7.424597e+002, 1.138955e-001
7.443881e+002, 1.142422e-001
7.463166e+002, 1.124632e-001
7.482451e+002, 1.085021e-001
7.501735e+002, 1.023423e-001
7.521020e+002, 9.452855e-002
7.540305e+002, 8.663902e-002
7.559589e+002, 8.012441e-002
7.578874e+002, 7.496715e-002
7.598159e+002, 7.123832e-002
7.617443e+002, 6.872828e-002
7.636728e+002, 6.667511e-002
7.656013e+002, 6.521990e-002
7.675297e+002, 6.434868e-002
7.694582e+002, 6.352186e-002
7.713867e+002, 6.293426e-002
7.733151e+002, 6.262874e-002
7.752436e+002, 6.284978e-002
7.771721e+002, 6.321798e-002
7.791005e+002, 6.376335e-002
7.810290e+002, 6.436010e-002
7.829575e+002, 6.516106e-002
7.848859e+002, 6.601468e-002
7.868144e+002, 6.688501e-002
7.887429e+002, 6.798834e-002
7.906713e+002, 6.946386e-002
7.925998e+002, 7.089712e-002
7.945283e+002, 7.221475e-002
7.964567e+002, 7.382616e-002
7.983852e+002, 7.585006e-002
8.003137e+002, 7.805445e-002
8.022421e+002, 8.050195e-002
8.041706e+002, 8.373224e-002
8.060991e+002, 8.761395e-002
8.080275e+002, 9.203110e-002
8.099560e+002, 9.748367e-002
8.118845e+002, 1.040271e-001
8.138129e+002, 1.116341e-001
8.157414e+002, 1.205430e-001
8.176699e+002, 1.303520e-001
8.195983e+002, 1.404768e-001
8.215268e+002, 1.502513e-001
8.234553e+002, 1.586745e-001
8.253837e+002, 1.649096e-001
8.273122e+002, 1.690570e-001
8.292407e+002, 1.714406e-001
8.311691e+002, 1.730654e-001
8.330976e+002, 1.745061e-001
8.350261e+002, 1.763088e-001
8.369545e+002, 1.789648e-001
8.388830e+002, 1.830768e-001
8.408115e+002, 1.891410e-001
8.427399e+002, 1.975647e-001
8.446684e+002, 2.083059e-001
8.465969e+002, 2.207018e-001
8.485253e+002, 2.340701e-001
8.504538e+002, 2.472088e-001
8.523823e+002, 2.579158e-001
8.543107e+002, 2.644922e-001
8.562392e+002, 2.654185e-001
8.581677e+002, 2.609526e-001
8.600961e+002, 2.513974e-001
8.620246e+002, 2.382359e-001
8.639531e+002, 2.234381e-001
8.658815e+002, 2.081742e-001
8.678100e+002, 1.936303e-001
8.697385e+002, 1.802624e-001
8.716669e+002, 1.682396e-001
8.735954e+002, 1.578142e-001
8.755239e+002, 1.485076e-001
8.774523e+002, 1.398985e-001
8.793808e+002, 1.314848e-001
8.813093e+002, 1.233226e-001
8.832377e+002, 1.155461e-001
8.851662e+002, 1.085029e-001
8.870947e+002, 1.027299e-001
8.890231e+002, 9.860557e-002
8.909516e+002, 9.595545e-002
8.928801e+002, 9.470443e-002
8.948085e+002, 9.477056e-002
8.967370e+002, 9.558120e-002
8.986655e+002, 9.689970e-002
9.005939e+002, 9.878361e-002
9.025224e+002, 1.012218e-001
9.044509e+002, 1.039277e-001
9.063793e+002, 1.065664e-001
9.083078e+002, 1.096230e-001
9.102363e+002, 1.131712e-001
9.121647e+002, 1.170927e-001
9.140932e+002, 1.212885e-001
9.160217e+002, 1.255206e-001
9.179501e+002, 1.293568e-001
9.198786e+002, 1.321563e-001
9.218071e+002, 1.333742e-001
9.237355e+002, 1.330616e-001
9.256640e+002, 1.315498e-001
9.275925e+002, 1.295996e-001
9.295209e+002, 1.279957e-001
9.314494e+002, 1.269993e-001
9.333779e+002, 1.268638e-001
9.353063e+002, 1.278320e-001
9.372348e+002, 1.297698e-001
9.391633e+002, 1.325997e-001
9.410917e+002, 1.366558e-001
9.430202e+002, 1.419269e-001
9.449487e+002, 1.483337e-001
9.468771e+002, 1.558025e-001
9.488056e+002, 1.641131e-001
9.507341e+002, 1.728162e-001
9.526625e+002, 1.807557e-001
9.545910e+002, 1.869757e-001
9.565195e+002, 1.913067e-001
9.584479e+002, 1.945489e-001
9.603764e+002, 1.980369e-001
9.623049e+002, 2.030215e-001
9.642333e+002, 2.104969e-001
9.661618e+002, 2.201551e-001
9.680903e+002, 2.309342e-001
9.700187e+002, 2.411370e-001
9.719472e+002, 2.487647e-001
9.738757e+002, 2.526589e-001
9.758041e+002, 2.529582e-001
9.777326e+002, 2.504922e-001
9.796611e+002, 2.466986e-001
9.815895e+002, 2.429153e-001
9.835180e+002, 2.404136e-001
9.854465e+002, 2.389923e-001
9.873749e+002, 2.382739e-001
9.893034e+002, 2.384115e-001
9.912319e+002, 2.389373e-001
9.931603e+002, 2.394153e-001
9.950888e+002, 2.397570e-001
9.970173e+002, 2.397750e-001
9.989457e+002, 2.391786e-001
1.000874e+003, 2.371364e-001
1.002803e+003, 2.328793e-001
1.004731e+003, 2.264009e-001
1.006660e+003, 2.181883e-001
1.008588e+003, 2.089127e-001
1.010517e+003, 1.989191e-001
1.012445e+003, 1.888151e-001
1.014373e+003, 1.796532e-001
1.016302e+003, 1.719690e-001
1.018230e+003, 1.655320e-001
1.020159e+003, 1.607082e-001
1.022087e+003, 1.577863e-001
1.024016e+003, 1.566680e-001
1.025944e+003, 1.572286e-001
1.027873e+003, 1.597419e-001
1.029801e+003, 1.636758e-001
1.031730e+003, 1.688987e-001
1.033658e+003, 1.754256e-001
1.035587e+003, 1.827238e-001
1.037515e+003, 1.904278e-001
1.039443e+003, 1.981747e-001
1.041372e+003, 2.055914e-001
1.043300e+003, 2.120819e-001
1.045229e+003, 2.171964e-001
1.047157e+003, 2.209334e-001
1.049086e+003, 2.230129e-001
1.051014e+003, 2.233882e-001
1.052943e+003, 2.223255e-001
1.054871e+003, 2.201134e-001
1.056800e+003, 2.166971e-001
1.058728e+003, 2.125307e-001
1.060657e+003, 2.076894e-001
1.062585e+003, 2.027301e-001
1.064514e+003, 1.977201e-001
1.066442e+003, 1.926293e-001
1.068370e+003, 1.877726e-001
1.070299e+003, 1.832632e-001
1.072227e+003, 1.794596e-001
1.074156e+003, 1.761661e-001
1.076084e+003, 1.734265e-001
1.078013e+003, 1.717701e-001
1.079941e+003, 1.706394e-001
1.081870e+003, 1.696786e-001
1.083798e+003, 1.691218e-001
1.085727e+003, 1.687098e-001
1.087655e+003, 1.682357e-001
1.089584e+003, 1.678982e-001
1.091512e+003, 1.676205e-001
1.093441e+003, 1.672013e-001
1.095369e+003, 1.667396e-001
1.097297e+003, 1.661384e-001
1.099226e+003, 1.648614e-001
1.101154e+003, 1.630734e-001
1.103083e+003, 1.606762e-001
1.105011e+003, 1.573496e-001
1.106940e+003, 1.532235e-001
1.108868e+003, 1.485169e-001
1.110797e+003, 1.433191e-001
1.112725e+003, 1.378369e-001
1.114654e+003, 1.324657e-001
1.116582e+003, 1.272697e-001
1.118511e+003, 1.222454e-001
1.120439e+003, 1.176307e-001
1.122368e+003, 1.133831e-001
1.124296e+003, 1.094364e-001
1.126224e+003, 1.061364e-001
1.128153e+003, 1.032066e-001
1.130081e+003, 1.003250e-001
1.132010e+003, 9.774187e-002
1.133938e+003, 9.537753e-002
1.135867e+003, 9.305630e-002
1.137795e+003, 9.070531e-002
1.139724e+003, 8.813498e-002
1.141652e+003, 8.537129e-002
1.143581e+003, 8.256008e-002
1.145509e+003, 7.981852e-002
1.147438e+003, 7.711374e-002
1.149366e+003, 7.442608e-002
1.151295e+003, 7.194161e-002
1.153223e+003, 6.943621e-002
1.155151e+003, 6.710423e-002
1.157080e+003, 6.525471e-002
1.159008e+003, 6.366991e-002
1.160937e+003, 6.232120e-002
1.162865e+003, 6.132288e-002
1.164794e+003, 6.061513e-002
1.166722e+003, 6.030457e-002
1.168651e+003, 6.035794e-002
1.170579e+003, 6.081771e-002
1.172508e+003, 6.174663e-002
1.174436e+003, 6.296768e-002
1.176365e+003, 6.454763e-002
1.178293e+003, 6.662526e-002
1.180222e+003, 6.907676e-002
1.182150e+003, 7.174709e-002
1.184078e+003, 7.460232e-002
1.186007e+003, 7.722837e-002
1.187935e+003, 7.969739e-002
1.189864e+003, 8.195752e-002
1.191792e+003, 8.396864e-002
1.193721e+003, 8.575380e-002
1.195649e+003, 8.719710e-002
1.197578e+003, 8.876581e-002
1.199506e+003, 9.084297e-002
1.201435e+003, 9.347884e-002
1.203363e+003, 9.667850e-002
1.205292e+003, 1.004183e-001
1.207220e+003, 1.039449e-001
1.209149e+003, 1.062073e-001
1.211077e+003, 1.063627e-001
1.213005e+003, 1.038500e-001
1.214934e+003, 9.914277e-002
1.216862e+003, 9.324051e-002
1.218791e+003, 8.700133e-002
1.220719e+003, 8.108097e-002
1.222648e+003, 7.605450e-002
1.224576e+003, 7.178775e-002
1.226505e+003, 6.832585e-002
1.228433e+003, 6.558253e-002
1.230362e+003, 6.322748e-002
1.232290e+003, 6.118264e-002
1.234219e+003, 5.920339e-002
1.236147e+003, 5.717191e-002
1.238076e+003, 5.525988e-002
1.240004e+003, 5.349177e-002
1.241932e+003, 5.173494e-002
1.243861e+003, 4.992058e-002
1.245789e+003, 4.833573e-002
1.247718e+003, 4.714539e-002
1.249646e+003, 4.620755e-002
1.251575e+003, 4.537178e-002
1.253503e+003, 4.476577e-002
1.255432e+003, 4.435498e-002
1.257360e+003, 4.417813e-002
1.259289e+003, 4.419416e-002
1.261217e+003, 4.428243e-002
1.263146e+003, 4.475085e-002
1.265074e+003, 4.558482e-002
1.267003e+003, 4.639351e-002
1.268931e+003, 4.741709e-002
1.270859e+003, 4.885558e-002
1.272788e+003, 5.054004e-002
1.274716e+003, 5.225053e-002
1.276645e+003, 5.393216e-002
1.278573e+003, 5.579533e-002
1.280502e+003, 5.791595e-002
1.282430e+003, 6.016777e-002
1.284359e+003, 6.257588e-002
1.286287e+003, 6.511024e-002
1.288216e+003, 6.784300e-002
1.290144e+003, 7.070156e-002
1.292073e+003, 7.388449e-002
1.294001e+003, 7.743525e-002
1.295930e+003, 8.134611e-002
1.297858e+003, 8.645235e-002
1.299786e+003, 9.284558e-002
1.301715e+003, 1.007950e-001
1.303643e+003, 1.108661e-001
1.305572e+003, 1.234260e-001
1.307500e+003, 1.381686e-001
1.309429e+003, 1.533117e-001
1.311357e+003, 1.666365e-001
1.313286e+003, 1.760855e-001
1.315214e+003, 1.804340e-001
1.317143e+003, 1.796921e-001
1.319071e+003, 1.750760e-001
1.321000e+003, 1.681130e-001
1.322928e+003, 1.601586e-001
1.324857e+003, 1.522244e-001
1.326785e+003, 1.448310e-001
1.328714e+003, 1.381190e-001
1.330642e+003, 1.318634e-001
1.332570e+003, 1.263439e-001
1.334499e+003, 1.217229e-001
1.336427e+003, 1.178937e-001
1.338356e+003, 1.152636e-001
1.340284e+003, 1.142705e-001
1.342213e+003, 1.149777e-001
1.344141e+003, 1.173406e-001
1.346070e+003, 1.208816e-001
1.347998e+003, 1.252324e-001
1.349927e+003, 1.297136e-001
1.351855e+003, 1.335399e-001
1.353784e+003, 1.361442e-001
1.355712e+003, 1.370127e-001
1.357641e+003, 1.355629e-001
1.359569e+003, 1.320802e-001
1.361497e+003, 1.271110e-001
1.363426e+003, 1.211454e-001
1.365354e+003, 1.150440e-001
1.367283e+003, 1.090912e-001
1.369211e+003, 1.037522e-001
1.371140e+003, 9.961370e-002
1.373068e+003, 9.699395e-002
1.374997e+003, 9.621773e-002
1.376925e+003, 9.736077e-002
1.378854e+003, 1.002712e-001
1.380782e+003, 1.046508e-001
1.382711e+003, 1.101387e-001
1.384639e+003, 1.157237e-001
1.386568e+003, 1.205223e-001
1.388496e+003, 1.239109e-001
1.390424e+003, 1.254835e-001
1.392353e+003, 1.255531e-001
1.394281e+003, 1.244766e-001
1.396210e+003, 1.232003e-001
1.398138e+003, 1.223905e-001
1.400067e+003, 1.223259e-001
1.401995e+003, 1.231432e-001
1.403924e+003, 1.246933e-001
1.405852e+003, 1.268448e-001
1.407781e+003, 1.291399e-001
1.409709e+003, 1.310724e-001
1.411638e+003, 1.323564e-001
1.413566e+003, 1.325878e-001
1.415495e+003, 1.315658e-001
1.417423e+003, 1.292477e-001
1.419351e+003, 1.257628e-001
1.421280e+003, 1.215484e-001
1.423208e+003, 1.168362e-001
1.425137e+003, 1.115397e-001
1.427065e+003, 1.056669e-001
1.428994e+003, 9.939066e-002
1.430922e+003, 9.279506e-002
1.432851e+003, 8.596489e-002
1.434779e+003, 7.931300e-002
1.436708e+003, 7.315224e-002
1.438636e+003, 6.738756e-002
1.440565e+003, 6.248063e-002
1.442493e+003, 5.854249e-002
1.444422e+003, 5.509881e-002
1.446350e+003, 5.208205e-002
1.448278e+003, 4.949286e-002
1.450207e+003, 4.713351e-002
1.452135e+003, 4.495077e-002
1.454064e+003, 4.315665e-002
1.455992e+003, 4.173143e-002
1.457921e+003, 4.042875e-002
1.459849e+003, 3.929550e-002
1.461778e+003, 3.824342e-002
1.463706e+003, 3.734528e-002
1.465635e+003, 3.702827e-002
1.467563e+003, 3.709522e-002
1.469492e+003, 3.753569e-002
1.471420e+003, 3.806157e-002
1.473349e+003, 3.826501e-002
1.475277e+003, 3.781754e-002
1.477205e+003, 3.671289e-002
1.479134e+003, 3.496439e-002
1.481062e+003, 3.240222e-002
1.482991e+003, 2.936028e-002
1.484919e+003, 2.647627e-002
1.486848e+003, 2.395054e-002
1.488776e+003, 2.170455e-002
1.490705e+003, 1.958497e-002
1.492633e+003, 1.782496e-002
1.494562e+003, 1.662887e-002
1.496490e+003, 1.573872e-002
1.498419e+003, 1.483804e-002
1.500347e+003, 1.405490e-002
1.502276e+003, 1.338631e-002
1.504204e+003, 1.275585e-002
1.506132e+003, 1.234036e-002
1.508061e+003, 1.201223e-002
1.509989e+003, 1.155752e-002
1.511918e+003, 1.118210e-002
1.513846e+003, 1.104800e-002
1.515775e+003, 1.085964e-002
1.517703e+003, 1.069501e-002
1.519632e+003, 1.054413e-002
1.521560e+003, 1.035574e-002
1.523489e+003, 1.022823e-002
1.525417e+003, 1.022468e-002
1.527346e+003, 1.017285e-002
1.529274e+003, 1.015327e-002
1.531203e+003, 1.012655e-002
1.533131e+003, 1.004332e-002
1.535059e+003, 1.009512e-002
1.536988e+003, 1.012785e-002
1.538916e+003, 1.023912e-002
1.540845e+003, 1.032592e-002
1.542773e+003, 1.027435e-002
1.544702e+003, 1.029521e-002
1.546630e+003, 1.046068e-002
1.548559e+003, 1.062359e-002
1.550487e+003, 1.067100e-002
1.552416e+003, 1.069487e-002
1.554344e+003, 1.093810e-002
1.556273e+003, 1.121312e-002
1.558201e+003, 1.138555e-002
1.560130e+003, 1.169228e-002
1.562058e+003, 1.191533e-002
1.563986e+003, 1.207703e-002
1.565915e+003, 1.229317e-002
1.567843e+003, 1.242193e-002
1.569772e+003, 1.270734e-002
1.571700e+003, 1.295670e-002
1.573629e+003, 1.313568e-002
1.575557e+003, 1.335823e-002
1.577486e+003, 1.354856e-002
1.579414e+003, 1.378848e-002
1.581343e+003, 1.411641e-002
1.583271e+003, 1.450491e-002
1.585200e+003, 1.490950e-002
1.587128e+003, 1.521493e-002
1.589057e+003, 1.548895e-002
1.590985e+003, 1.589807e-002
1.592913e+003, 1.655171e-002
1.594842e+003, 1.720006e-002
1.596770e+003, 1.776441e-002
1.598699e+003, 1.834643e-002
1.600627e+003, 1.905066e-002
1.602556e+003, 1.981837e-002
1.604484e+003, 2.047995e-002
1.606413e+003, 2.112236e-002
1.608341e+003, 2.177940e-002
1.610270e+003, 2.260002e-002
1.612198e+003, 2.359861e-002
1.614127e+003, 2.455607e-002
1.616055e+003, 2.557450e-002
1.617984e+003, 2.688940e-002
1.619912e+003, 2.808849e-002
1.621840e+003, 2.914679e-002
1.623769e+003, 3.024726e-002
1.625697e+003, 3.128943e-002
1.627626e+003, 3.199413e-002
1.629554e+003, 3.217629e-002
1.631483e+003, 3.175004e-002
1.633411e+003, 3.083401e-002
1.635340e+003, 2.948768e-002
1.637268e+003, 2.797392e-002
1.639197e+003, 2.653614e-002
1.641125e+003, 2.532377e-002
1.643054e+003, 2.433974e-002
1.644982e+003, 2.356623e-002
1.646911e+003, 2.300916e-002
1.648839e+003, 2.270492e-002
1.650767e+003, 2.265268e-002
1.652696e+003, 2.272822e-002
1.654624e+003, 2.310895e-002
1.656553e+003, 2.356765e-002
1.658481e+003, 2.409966e-002
1.660410e+003, 2.466895e-002
1.662338e+003, 2.525946e-002
1.664267e+003, 2.552342e-002
1.666195e+003, 2.530582e-002
1.668124e+003, 2.461949e-002
1.670052e+003, 2.338004e-002
1.671981e+003, 2.203639e-002
1.673909e+003, 2.074821e-002
1.675838e+003, 1.943650e-002
1.677766e+003, 1.810707e-002
1.679694e+003, 1.704081e-002
1.681623e+003, 1.618082e-002
1.683551e+003, 1.539598e-002
1.685480e+003, 1.501178e-002
1.687408e+003, 1.475522e-002
1.689337e+003, 1.432163e-002
1.691265e+003, 1.392698e-002
1.693194e+003, 1.368616e-002
1.695122e+003, 1.352371e-002
1.697051e+003, 1.323444e-002
1.698979e+003, 1.283370e-002
1.700908e+003, 1.238400e-002
1.702836e+003, 1.204559e-002
1.704765e+003, 1.167435e-002
1.706693e+003, 1.136979e-002
1.708621e+003, 1.107642e-002
1.710550e+003, 1.059322e-002
1.712478e+003, 1.003216e-002
1.714407e+003, 9.638554e-003
1.716335e+003, 9.331835e-003
1.718264e+003, 8.809286e-003
1.720192e+003, 8.349548e-003
1.722121e+003, 8.055880e-003
1.724049e+003, 7.953263e-003
1.725978e+003, 8.109933e-003
1.727906e+003, 8.084008e-003
1.729835e+003, 7.537023e-003
1.731763e+003, 7.235793e-003
1.733692e+003, 7.186462e-003
1.735620e+003, 6.918337e-003
1.737548e+003, 6.574895e-003
1.739477e+003, 6.339182e-003
1.741405e+003, 6.016870e-003
1.743334e+003, 5.695833e-003
1.745262e+003, 5.387027e-003
1.747191e+003, 5.185071e-003
1.749119e+003, 5.099437e-003
1.751048e+003, 5.258663e-003
1.752976e+003, 5.318937e-003
1.754905e+003, 5.067228e-003
1.756833e+003, 5.007788e-003
1.758762e+003, 5.164023e-003
1.760690e+003, 5.138885e-003
1.762619e+003, 5.259954e-003
1.764547e+003, 5.476167e-003
1.766475e+003, 5.399662e-003
1.768404e+003, 5.225286e-003
1.770332e+003, 5.223697e-003
1.772261e+003, 5.157829e-003
1.774189e+003, 5.099447e-003
1.776118e+003, 5.231200e-003
1.778046e+003, 5.293088e-003
1.779975e+003, 5.300825e-003
1.781903e+003, 5.363259e-003
1.783832e+003, 5.417012e-003
1.785760e+003, 5.539042e-003
1.787689e+003, 5.436359e-003
1.789617e+003, 5.300039e-003
1.791546e+003, 5.158120e-003
1.793474e+003, 5.017826e-003
1.795402e+003, 5.011526e-003
1.797331e+003, 5.198036e-003
1.799259e+003, 5.177727e-003
1.801188e+003, 5.105626e-003
1.803116e+003, 5.407232e-003
1.805045e+003, 5.604043e-003
1.806973e+003, 5.363058e-003
1.808902e+003, 5.351383e-003
1.810830e+003, 5.605028e-003
1.812759e+003, 5.477906e-003
1.814687e+003, 5.383441e-003
1.816616e+003, 5.516240e-003
1.818544e+003, 5.587916e-003
1.820473e+003, 5.725596e-003
1.822401e+003, 5.906160e-003
1.824329e+003, 5.738911e-003
1.826258e+003, 5.611857e-003
1.828186e+003, 5.661187e-003
1.830115e+003, 5.714476e-003
1.832043e+003, 5.475898e-003
1.833972e+003, 5.410293e-003
1.835900e+003, 5.752209e-003
1.837829e+003, 5.579588e-003
1.839757e+003, 5.486482e-003
1.841686e+003, 5.586584e-003
1.843614e+003, 5.478197e-003
1.845543e+003, 5.424933e-003
1.847471e+003, 5.528091e-003
1.849400e+003, 5.538970e-003
1.851328e+003, 5.593467e-003
1.853256e+003, 5.513337e-003
1.855185e+003, 5.477518e-003
1.857113e+003, 5.490944e-003
1.859042e+003, 5.652872e-003
1.860970e+003, 5.536595e-003
1.862899e+003, 5.705789e-003
1.864827e+003, 5.967412e-003
1.866756e+003, 5.908524e-003
1.868684e+003, 5.739488e-003
1.870613e+003, 5.894973e-003
1.872541e+003, 5.875919e-003
1.874470e+003, 5.817841e-003
1.876398e+003, 5.957060e-003
1.878327e+003, 5.803654e-003
1.880255e+003, 5.839893e-003
1.882183e+003, 5.879553e-003
1.884112e+003, 5.602338e-003
1.886040e+003, 5.701313e-003
1.887969e+003, 5.726624e-003
1.889897e+003, 5.678073e-003
1.891826e+003, 5.876044e-003
1.893754e+003, 6.057664e-003
1.895683e+003, 5.937364e-003
1.897611e+003, 6.326484e-003
1.899540e+003, 6.420086e-003
1.901468e+003, 5.848988e-003
1.903397e+003, 5.364378e-003
1.905325e+003, 5.833993e-003
1.907254e+003, 5.924823e-003
1.909182e+003, 5.797455e-003
1.911110e+003, 6.006274e-003
1.913039e+003, 5.734929e-003
1.914967e+003, 5.556316e-003
1.916896e+003, 5.561565e-003
1.918824e+003, 5.612359e-003
1.920753e+003, 5.228758e-003
1.922681e+003, 5.185307e-003
1.924610e+003, 5.240283e-003
1.926538e+003, 5.484666e-003
1.928467e+003, 5.241973e-003
1.930395e+003, 4.748726e-003
1.932324e+003, 4.668260e-003
1.934252e+003, 4.786087e-003
1.936181e+003, 4.784160e-003
1.938109e+003, 4.381983e-003
1.940037e+003, 4.452481e-003
1.941966e+003, 4.792187e-003
1.943894e+003, 4.607284e-003
1.945823e+003, 4.341840e-003
1.947751e+003, 4.323531e-003
1.949680e+003, 4.369613e-003
1.951608e+003, 4.553080e-003
1.953537e+003, 4.656928e-003
1.955465e+003, 4.374450e-003
1.957394e+003, 4.290414e-003
1.959322e+003, 4.656378e-003
1.961251e+003, 5.289029e-003
1.963179e+003, 5.248531e-003
1.965108e+003, 5.258364e-003
1.967036e+003, 4.557075e-003
1.968964e+003, 3.823256e-003
1.970893e+003, 4.254597e-003
1.972821e+003, 3.761641e-003
1.974750e+003, 3.550077e-003
1.976678e+003, 4.480306e-003
1.978607e+003, 5.650897e-003
1.980535e+003, 6.249539e-003
1.982464e+003, 6.299338e-003
1.984392e+003, 5.788075e-003
1.986321e+003, 5.283421e-003
1.988249e+003, 5.298839e-003
1.990178e+003, 5.282335e-003
1.992106e+003, 5.698363e-003
1.994035e+003, 5.706067e-003
1.995963e+003, 5.195308e-003
1.997891e+003, 5.251925e-003
1.999820e+003, 5.735535e-003
2.001748e+003, 5.286162e-003
2.003677e+003, 4.437181e-003
2.005605e+003, 5.409557e-003
2.007534e+003, 6.336068e-003
2.009462e+003, 6.216593e-003
2.011391e+003, 6.263413e-003
2.013319e+003, 6.520540e-003
2.015248e+003, 6.762058e-003
2.017176e+003, 7.161153e-003
2.019105e+003, 6.952394e-003
2.021033e+003, 6.086752e-003
2.022962e+003, 5.672447e-003
2.024890e+003, 6.187222e-003
2.026818e+003, 6.882991e-003
2.028747e+003, 8.069253e-003
2.030675e+003, 8.047763e-003
2.032604e+003, 8.146175e-003
2.034532e+003, 7.807640e-003
2.036461e+003, 7.332325e-003
2.038389e+003, 7.100460e-003
2.040318e+003, 7.462146e-003
2.042246e+003, 8.311395e-003
2.044175e+003, 8.442121e-003
2.046103e+003, 7.705623e-003
2.048031e+003, 7.697448e-003
2.049960e+003, 7.921429e-003
2.051888e+003, 7.879329e-003
2.053817e+003, 8.339955e-003
2.055745e+003, 8.191366e-003
2.057674e+003, 7.910858e-003
2.059602e+003, 7.894086e-003
2.061531e+003, 7.582535e-003
2.063459e+003, 7.242627e-003
2.065388e+003, 7.031771e-003
2.067316e+003, 7.413656e-003
2.069245e+003, 7.599297e-003
2.071173e+003, 7.508039e-003
2.073102e+003, 7.456625e-003
2.075030e+003, 7.383486e-003
2.076958e+003, 7.048759e-003
2.078887e+003, 7.079999e-003
2.080815e+003, 7.584578e-003
2.082744e+003, 7.398665e-003
2.084672e+003, 7.084683e-003
2.086601e+003, 7.124181e-003
2.088529e+003, 7.066479e-003
2.090458e+003, 7.588853e-003
2.092386e+003, 8.067603e-003
2.094315e+003, 7.894612e-003
2.096243e+003, 8.081021e-003
2.098172e+003, 8.279962e-003
2.100100e+003, 8.352942e-003
2.102029e+003, 8.166399e-003
2.103957e+003, 8.396148e-003
2.105885e+003, 8.697760e-003
2.107814e+003, 8.483188e-003
2.109742e+003, 7.995516e-003
2.111671e+003, 7.738718e-003
2.113599e+003, 7.947042e-003
2.115528e+003, 8.257288e-003
2.117456e+003, 7.857610e-003
2.119385e+003, 7.728320e-003
2.121313e+003, 8.102492e-003
2.123242e+003, 8.266410e-003
2.125170e+003, 7.843584e-003
2.127099e+003, 7.533303e-003
2.129027e+003, 7.557964e-003
2.130956e+003, 7.739168e-003
2.132884e+003, 7.556327e-003
2.134813e+003, 7.269997e-003
2.136741e+003, 6.990121e-003
2.138669e+003, 7.506983e-003
2.140598e+003, 7.962485e-003
2.142526e+003, 8.005905e-003
2.144455e+003, 7.498032e-003
2.146383e+003, 7.265982e-003
2.148312e+003, 7.712646e-003
2.150240e+003, 7.907256e-003
2.152169e+003, 7.604083e-003
2.154097e+003, 7.544216e-003
2.156026e+003, 7.238652e-003
2.157954e+003, 8.165065e-003
2.159883e+003, 9.623731e-003
2.161811e+003, 9.907415e-003
2.163740e+003, 9.723154e-003
2.165668e+003, 1.016488e-002
2.167596e+003, 9.087792e-003
2.169525e+003, 8.916083e-003
2.171453e+003, 9.144960e-003
2.173382e+003, 8.821209e-003
2.175310e+003, 9.097964e-003
2.177239e+003, 9.093766e-003
2.179167e+003, 8.242164e-003
2.181096e+003, 7.783509e-003
2.183024e+003, 8.378606e-003
2.184953e+003, 9.215325e-003
2.186881e+003, 8.648512e-003
2.188810e+003, 8.501009e-003
2.190738e+003, 8.977005e-003
2.192667e+003, 8.795583e-003
2.194595e+003, 8.945238e-003
2.196523e+003, 9.523597e-003
2.198452e+003, 9.515509e-003
2.200380e+003, 9.483372e-003
2.202309e+003, 9.310672e-003
2.204237e+003, 9.050127e-003
2.206166e+003, 9.006280e-003
2.208094e+003, 8.690688e-003
2.210023e+003, 9.021726e-003
2.211951e+003, 9.144480e-003
2.213880e+003, 9.241814e-003
2.215808e+003, 9.433657e-003
2.217737e+003, 9.712994e-003
2.219665e+003, 1.031427e-002
2.221594e+003, 9.937972e-003
2.223522e+003, 9.339713e-003
2.225450e+003, 8.927920e-003
2.227379e+003, 8.624308e-003
2.229307e+003, 9.748719e-003
2.231236e+003, 1.033792e-002
2.233164e+003, 9.883402e-003
2.235093e+003, 9.545296e-003
2.237021e+003, 1.021310e-002
2.238950e+003, 1.070210e-002
2.240878e+003, 1.051069e-002
2.242807e+003, 9.854536e-003
2.244735e+003, 9.608589e-003
2.246664e+003, 1.018851e-002
2.248592e+003, 1.100876e-002
2.250521e+003, 1.105315e-002
2.252449e+003, 1.064898e-002
2.254377e+003, 1.034128e-002
2.256306e+003, 1.005120e-002
2.258234e+003, 1.028171e-002
2.260163e+003, 1.058164e-002
2.262091e+003, 1.065849e-002
2.264020e+003, 1.059160e-002
2.265948e+003, 1.078626e-002
2.267877e+003, 1.074397e-002
2.269805e+003, 1.095590e-002
2.271734e+003, 1.149599e-002
2.273662e+003, 1.202834e-002
2.275591e+003, 1.207132e-002
2.277519e+003, 1.217176e-002
2.279448e+003, 1.188080e-002
2.281376e+003, 1.202244e-002
2.283304e+003, 1.215480e-002
2.285233e+003, 1.213111e-002
2.287161e+003, 1.200546e-002
2.289090e+003, 1.174780e-002
2.291018e+003, 1.183463e-002
2.292947e+003, 1.198912e-002
2.294875e+003, 1.163552e-002
2.296804e+003, 1.172608e-002
2.298732e+003, 1.216022e-002
2.300661e+003, 1.253281e-002
2.302589e+003, 1.238617e-002
2.304518e+003, 1.230403e-002
2.306446e+003, 1.234264e-002
2.308375e+003, 1.215813e-002
2.310303e+003, 1.218654e-002
2.312231e+003, 1.251673e-002
2.314160e+003, 1.270272e-002
2.316088e+003, 1.265636e-002
2.318017e+003, 1.279316e-002
2.319945e+003, 1.311390e-002
2.321874e+003, 1.344456e-002
2.323802e+003, 1.357731e-002
2.325731e+003, 1.344234e-002
2.327659e+003, 1.347494e-002
2.329588e+003, 1.348831e-002
2.331516e+003, 1.337370e-002
2.333445e+003, 1.318700e-002
2.335373e+003, 1.321253e-002
2.337302e+003, 1.330620e-002
2.339230e+003, 1.319632e-002
2.341158e+003, 1.330437e-002
2.343087e+003, 1.352289e-002
2.345015e+003, 1.356453e-002
2.346944e+003, 1.365708e-002
2.348872e+003, 1.381937e-002
2.350801e+003, 1.412911e-002
2.352729e+003, 1.406147e-002
2.354658e+003, 1.394162e-002
2.356586e+003, 1.404119e-002
2.358515e+003, 1.413825e-002
2.360443e+003, 1.424270e-002
2.362372e+003, 1.456504e-002
2.364300e+003, 1.486636e-002
2.366229e+003, 1.479880e-002
2.368157e+003, 1.477187e-002
2.370085e+003, 1.509224e-002
2.372014e+003, 1.525558e-002
2.373942e+003, 1.519324e-002
2.375871e+003, 1.522550e-002
2.377799e+003, 1.534726e-002
2.379728e+003, 1.552153e-002
2.381656e+003, 1.582334e-002
2.383585e+003, 1.596738e-002
2.385513e+003, 1.598656e-002
2.387442e+003, 1.586637e-002
2.389370e+003, 1.577568e-002
2.391299e+003, 1.590617e-002
2.393227e+003, 1.590449e-002
2.395156e+003, 1.551809e-002
2.397084e+003, 1.543345e-002
2.399012e+003, 1.529480e-002
2.400941e+003, 1.512841e-002
2.402869e+003, 1.490571e-002
2.404798e+003, 1.495451e-002
2.406726e+003, 1.496992e-002
2.408655e+003, 1.474720e-002
2.410583e+003, 1.501476e-002
2.412512e+003, 1.540441e-002
2.414440e+003, 1.564753e-002
2.416369e+003, 1.555671e-002
2.418297e+003, 1.479320e-002
2.420226e+003, 1.457255e-002
2.422154e+003, 1.483968e-002
2.424083e+003, 1.499345e-002
2.426011e+003, 1.508216e-002
2.427939e+003, 1.500812e-002
2.429868e+003, 1.512749e-002
2.431796e+003, 1.538304e-002
2.433725e+003, 1.514065e-002
2.435653e+003, 1.547939e-002
2.437582e+003, 1.586478e-002
2.439510e+003, 1.606688e-002
2.441439e+003, 1.606240e-002
2.443367e+003, 1.619575e-002
2.445296e+003, 1.639042e-002
2.447224e+003, 1.631763e-002
2.449153e+003, 1.622123e-002
2.451081e+003, 1.639298e-002
2.453010e+003, 1.682969e-002
2.454938e+003, 1.672401e-002
2.456866e+003, 1.652185e-002
2.458795e+003, 1.672602e-002
2.460723e+003, 1.720890e-002
2.462652e+003, 1.729090e-002
2.464580e+003, 1.712784e-002
2.466509e+003, 1.729122e-002
2.468437e+003, 1.755261e-002
2.470366e+003, 1.766925e-002
2.472294e+003, 1.769902e-002
2.474223e+003, 1.769199e-002
2.476151e+003, 1.787610e-002
2.478080e+003, 1.770696e-002
2.480008e+003, 1.771422e-002
2.481937e+003, 1.778375e-002
2.483865e+003, 1.795612e-002
2.485793e+003, 1.801427e-002
2.487722e+003, 1.822723e-002
2.489650e+003, 1.843401e-002
2.491579e+003, 1.847339e-002
2.493507e+003, 1.852778e-002
2.495436e+003, 1.839299e-002
2.497364e+003, 1.845198e-002
2.499293e+003, 1.823445e-002
2.501221e+003, 1.812894e-002
2.503150e+003, 1.814588e-002
2.505078e+003, 1.817360e-002
2.507007e+003, 1.805281e-002
2.508935e+003, 1.796831e-002
2.510864e+003, 1.798779e-002
2.512792e+003, 1.794159e-002
2.514720e+003, 1.787145e-002
2.516649e+003, 1.797372e-002
2.518577e+003, 1.831219e-002
2.520506e+003, 1.837403e-002
2.522434e+003, 1.816101e-002
2.524363e+003, 1.759401e-002
2.526291e+003, 1.737637e-002
2.528220e+003, 1.747483e-002
2.530148e+003, 1.732335e-002
2.532077e+003, 1.682941e-002
2.534005e+003, 1.662077e-002
2.535934e+003, 1.636279e-002
2.537862e+003, 1.661747e-002
2.539791e+003, 1.656399e-002
2.541719e+003, 1.638288e-002
2.543647e+003, 1.614419e-002
2.545576e+003, 1.579765e-002
2.547504e+003, 1.562385e-002
2.549433e+003, 1.513282e-002
2.551361e+003, 1.489416e-002
2.553290e+003, 1.471585e-002
2.555218e+003, 1.511078e-002
2.557147e+003, 1.515499e-002
2.559075e+003, 1.470727e-002
2.561004e+003, 1.443544e-002
2.562932e+003, 1.400310e-002
2.564861e+003, 1.377857e-002
2.566789e+003, 1.368725e-002
2.568718e+003, 1.390452e-002
2.570646e+003, 1.383078e-002
2.572574e+003, 1.361984e-002
2.574503e+003, 1.340643e-002
2.576431e+003, 1.350193e-002
2.578360e+003, 1.336290e-002
2.580288e+003, 1.331588e-002
2.582217e+003, 1.340099e-002
2.584145e+003, 1.338569e-002
2.586074e+003, 1.320165e-002
2.588002e+003, 1.291882e-002
2.589931e+003, 1.274627e-002
2.591859e+003, 1.316779e-002
2.593788e+003, 1.358554e-002
2.595716e+003, 1.342662e-002
2.597645e+003, 1.336273e-002
2.599573e+003, 1.353993e-002
2.601501e+003, 1.356829e-002
2.603430e+003, 1.357792e-002
2.605358e+003, 1.380231e-002
2.607287e+003, 1.376181e-002
2.609215e+003, 1.368187e-002
2.611144e+003, 1.413673e-002
2.613072e+003, 1.405322e-002
2.615001e+003, 1.422991e-002
2.616929e+003, 1.451350e-002
2.618858e+003, 1.431911e-002
2.620786e+003, 1.407986e-002
2.622715e+003, 1.432815e-002
2.624643e+003, 1.432248e-002
2.626572e+003, 1.384517e-002
2.628500e+003, 1.371106e-002
2.630428e+003, 1.400932e-002
2.632357e+003, 1.429105e-002
2.634285e+003, 1.473748e-002
2.636214e+003, 1.498073e-002
2.638142e+003, 1.482558e-002
2.640071e+003, 1.497591e-002
2.641999e+003, 1.512886e-002
2.643928e+003, 1.504919e-002
2.645856e+003, 1.508770e-002
2.647785e+003, 1.546196e-002
2.649713e+003, 1.584461e-002
2.651642e+003, 1.604427e-002
2.653570e+003, 1.618274e-002
2.655499e+003, 1.600518e-002
2.657427e+003, 1.605574e-002
2.659355e+003, 1.632564e-002
2.661284e+003, 1.633104e-002
2.663212e+003, 1.643160e-002
2.665141e+003, 1.665157e-002
2.667069e+003, 1.667359e-002
2.668998e+003, 1.665362e-002
2.670926e+003, 1.661970e-002
2.672855e+003, 1.664565e-002
2.674783e+003, 1.669083e-002
2.676712e+003, 1.673284e-002
2.678640e+003, 1.658023e-002
2.680569e+003, 1.644382e-002
2.682497e+003, 1.647449e-002
2.684426e+003, 1.628412e-002
2.686354e+003, 1.627977e-002
2.688282e+003, 1.636427e-002
2.690211e+003, 1.633346e-002
2.692139e+003, 1.635068e-002
2.694068e+003, 1.609316e-002
2.695996e+003, 1.591804e-002
2.697925e+003, 1.594739e-002
2.699853e+003, 1.581391e-002
2.701782e+003, 1.580679e-002
2.703710e+003, 1.591334e-002
2.705639e+003, 1.605527e-002
2.707567e+003, 1.615886e-002
2.709496e+003, 1.597799e-002
2.711424e+003, 1.605613e-002
2.713353e+003, 1.642642e-002
2.715281e+003, 1.653810e-002
2.717209e+003, 1.640370e-002
2.719138e+003, 1.622425e-002
2.721066e+003, 1.634072e-002
2.722995e+003, 1.659016e-002
2.724923e+003, 1.670750e-002
2.726852e+003, 1.695421e-002
2.728780e+003, 1.693347e-002
2.730709e+003, 1.692389e-002
2.732637e+003, 1.698572e-002
2.734566e+003, 1.733526e-002
2.736494e+003, 1.742413e-002
2.738423e+003, 1.738349e-002
2.740351e+003, 1.767577e-002
2.742280e+003, 1.814978e-002
2.744208e+003, 1.825119e-002
2.746136e+003, 1.802143e-002
2.748065e+003, 1.801211e-002
2.749993e+003, 1.804991e-002
2.751922e+003, 1.809916e-002
2.753850e+003, 1.844723e-002
2.755779e+003, 1.870804e-002
2.757707e+003, 1.872320e-002
2.759636e+003, 1.872581e-002
2.761564e+003, 1.880406e-002
2.763493e+003, 1.878121e-002
2.765421e+003, 1.921212e-002
2.767350e+003, 1.948130e-002
2.769278e+003, 1.953500e-002
2.771207e+003, 1.953967e-002
2.773135e+003, 1.971530e-002
2.775063e+003, 1.976829e-002
2.776992e+003, 1.969926e-002
2.778920e+003, 1.983913e-002
2.780849e+003, 2.027990e-002
2.782777e+003, 2.042517e-002
2.784706e+003, 2.042227e-002
2.786634e+003, 2.045745e-002
2.788563e+003, 2.100783e-002
2.790491e+003, 2.122005e-002
2.792420e+003, 2.092360e-002
2.794348e+003, 2.098308e-002
2.796277e+003, 2.123761e-002
2.798205e+003, 2.134840e-002
2.800134e+003, 2.157183e-002
2.802062e+003, 2.171694e-002
2.803990e+003, 2.163212e-002
2.805919e+003, 2.191941e-002
2.807847e+003, 2.218002e-002
2.809776e+003, 2.211384e-002
2.811704e+003, 2.221744e-002
2.813633e+003, 2.243674e-002
2.815561e+003, 2.258080e-002
2.817490e+003, 2.261312e-002
2.819418e+003, 2.256421e-002
2.821347e+003, 2.277343e-002
2.823275e+003, 2.291892e-002
2.825204e+003, 2.295034e-002
2.827132e+003, 2.306403e-002
2.829061e+003, 2.323491e-002
2.830989e+003, 2.353976e-002
2.832917e+003, 2.365341e-002
2.834846e+003, 2.355932e-002
2.836774e+003, 2.356704e-002
2.838703e+003, 2.369143e-002
2.840631e+003, 2.377230e-002
2.842560e+003, 2.383870e-002
2.844488e+003, 2.382711e-002
2.846417e+003, 2.334632e-002
2.848345e+003, 2.279688e-002
2.850274e+003, 2.288670e-002
2.852202e+003, 2.330669e-002
2.854131e+003, 2.359750e-002
2.856059e+003, 2.411877e-002
2.857988e+003, 2.457938e-002
2.859916e+003, 2.481087e-002
2.861844e+003, 2.521335e-002
2.863773e+003, 2.545493e-002
2.865701e+003, 2.553527e-002
2.867630e+003, 2.592235e-002
2.869558e+003, 2.635351e-002
2.871487e+003, 2.649718e-002
2.873415e+003, 2.655789e-002
2.875344e+003, 2.703933e-002
2.877272e+003, 2.766086e-002
2.879201e+003, 2.772447e-002
2.881129e+003, 2.755618e-002
2.883058e+003, 2.759077e-002
2.884986e+003, 2.789177e-002
2.886915e+003, 2.811732e-002
2.888843e+003, 2.825926e-002
2.890771e+003, 2.857344e-002
2.892700e+003, 2.860164e-002
2.894628e+003, 2.854962e-002
2.896557e+003, 2.878428e-002
2.898485e+003, 2.918849e-002
2.900414e+003, 2.954848e-002
2.902342e+003, 2.964927e-002
2.904271e+003, 2.978762e-002
2.906199e+003, 3.006575e-002
2.908128e+003, 3.007152e-002
2.910056e+003, 2.978227e-002
2.911985e+003, 2.974434e-002
2.913913e+003, 2.927825e-002
2.915842e+003, 2.921815e-002
2.917770e+003, 2.937583e-002
2.919698e+003, 2.950130e-002
2.921627e+003, 3.008937e-002
2.923555e+003, 3.039268e-002
2.925484e+003, 3.056058e-002
2.927412e+003, 3.098658e-002
2.929341e+003, 3.190647e-002
2.931269e+003, 3.242624e-002
2.933198e+003, 3.234321e-002
2.935126e+003, 3.228302e-002
2.937055e+003, 3.238359e-002
2.938983e+003, 3.286414e-002
2.940912e+003, 3.331853e-002
2.942840e+003, 3.361335e-002
2.944769e+003, 3.353064e-002
2.946697e+003, 3.324927e-002
2.948625e+003, 3.370791e-002
2.950554e+003, 3.450966e-002
2.952482e+003, 3.483738e-002
2.954411e+003, 3.483794e-002
2.956339e+003, 3.482044e-002
2.958268e+003, 3.480532e-002
2.960196e+003, 3.491037e-002
2.962125e+003, 3.526274e-002
2.964053e+003, 3.574900e-002
2.965982e+003, 3.569451e-002
2.967910e+003, 3.520792e-002
2.969839e+003, 3.535571e-002
2.971767e+003, 3.571584e-002
2.973696e+003, 3.598824e-002
2.975624e+003, 3.625494e-002
2.977552e+003, 3.626354e-002
2.979481e+003, 3.648170e-002
2.981409e+003, 3.666936e-002
2.983338e+003, 3.679571e-002
2.985266e+003, 3.688791e-002
2.987195e+003, 3.685708e-002
2.989123e+003, 3.738282e-002
2.991052e+003, 3.801869e-002
2.992980e+003, 3.821265e-002
2.994909e+003, 3.830936e-002
2.996837e+003, 3.866674e-002
2.998766e+003, 3.895627e-002
3.000694e+003, 3.889315e-002
3.002623e+003, 3.914903e-002
3.004551e+003, 3.980822e-002
3.006479e+003, 4.022596e-002
3.008408e+003, 4.034852e-002
3.010336e+003, 4.052719e-002
3.012265e+003, 4.059416e-002
3.014193e+003, 4.036544e-002
3.016122e+003, 4.005518e-002
3.018050e+003, 4.101968e-002
3.019979e+003, 4.263897e-002
3.021907e+003, 4.343485e-002
3.023836e+003, 4.368435e-002
3.025764e+003, 4.387145e-002
3.027693e+003, 4.425618e-002
3.029621e+003, 4.471635e-002
3.031550e+003, 4.531359e-002
3.033478e+003, 4.567226e-002
3.035406e+003, 4.609913e-002
3.037335e+003, 4.640673e-002
3.039263e+003, 4.721823e-002
3.041192e+003, 4.793870e-002
3.043120e+003, 4.844161e-002
3.045049e+003, 4.895165e-002
3.046977e+003, 4.967514e-002
3.048906e+003, 5.027667e-002
3.050834e+003, 5.111143e-002
3.052763e+003, 5.173271e-002
3.054691e+003, 5.206021e-002
3.056620e+003, 5.214853e-002
3.058548e+003, 5.283762e-002
3.060477e+003, 5.405129e-002
3.062405e+003, 5.513877e-002
3.064333e+003, 5.586994e-002
3.066262e+003, 5.664053e-002
3.068190e+003, 5.753069e-002
3.070119e+003, 5.884574e-002
3.072047e+003, 6.018171e-002
3.073976e+003, 6.142386e-002
3.075904e+003, 6.217493e-002
3.077833e+003, 6.293100e-002
3.079761e+003, 6.416061e-002
3.081690e+003, 6.578395e-002
3.083618e+003, 6.715427e-002
3.085547e+003, 6.820258e-002
3.087475e+003, 6.982037e-002
3.089404e+003, 7.168945e-002
3.091332e+003, 7.401088e-002
3.093260e+003, 7.630765e-002
3.095189e+003, 7.775732e-002
3.097117e+003, 8.020266e-002
3.099046e+003, 8.305973e-002
3.100974e+003, 8.571626e-002
3.102903e+003, 8.792930e-002
3.104831e+003, 9.020823e-002
3.106760e+003, 9.309058e-002
3.108688e+003, 9.600170e-002
3.110617e+003, 9.828904e-002
3.112545e+003, 1.002010e-001
3.114474e+003, 1.022914e-001
3.116402e+003, 1.044724e-001
3.118331e+003, 1.065536e-001
3.120259e+003, 1.079453e-001
3.122188e+003, 1.086648e-001
3.124116e+003, 1.091519e-001
3.126044e+003, 1.095288e-001
3.127973e+003, 1.094769e-001
3.129901e+003, 1.090262e-001
3.131830e+003, 1.083861e-001
3.133758e+003, 1.077344e-001
3.135687e+003, 1.065857e-001
3.137615e+003, 1.054990e-001
3.139544e+003, 1.041519e-001
3.141472e+003, 1.030378e-001
3.143401e+003, 1.027946e-001
3.145329e+003, 1.019180e-001
3.147258e+003, 1.006633e-001
3.149186e+003, 9.992120e-002
3.151115e+003, 9.926626e-002
3.153043e+003, 9.859419e-002
3.154971e+003, 9.834474e-002
3.156900e+003, 9.846412e-002
3.158828e+003, 9.823872e-002
3.160757e+003, 9.777795e-002
3.162685e+003, 9.764750e-002
3.164614e+003, 9.799331e-002
3.166542e+003, 9.800450e-002
3.168471e+003, 9.739646e-002
3.170399e+003, 9.758656e-002
3.172328e+003, 9.819714e-002
3.174256e+003, 9.853451e-002
3.176185e+003, 9.869028e-002
3.178113e+003, 9.918274e-002
3.180042e+003, 9.992581e-002
3.181970e+003, 1.001014e-001
3.183898e+003, 1.001292e-001
3.185827e+003, 1.004195e-001
3.187755e+003, 1.010781e-001
3.189684e+003, 1.016140e-001
3.191612e+003, 1.022359e-001
3.193541e+003, 1.024882e-001
3.195469e+003, 1.030036e-001
3.197398e+003, 1.041600e-001
3.199326e+003, 1.048587e-001
3.201255e+003, 1.054811e-001
3.203183e+003, 1.060834e-001
3.205112e+003, 1.063505e-001
3.207040e+003, 1.069724e-001
3.208969e+003, 1.076464e-001
3.210897e+003, 1.079500e-001
3.212825e+003, 1.076481e-001
3.214754e+003, 1.072345e-001
3.216682e+003, 1.073422e-001
3.218611e+003, 1.073598e-001
3.220539e+003, 1.069040e-001
3.222468e+003, 1.073206e-001
3.224396e+003, 1.073449e-001
3.226325e+003, 1.063665e-001
3.228253e+003, 1.054904e-001
3.230182e+003, 1.051414e-001
3.232110e+003, 1.047301e-001
3.234039e+003, 1.040464e-001
3.235967e+003, 1.037527e-001
3.237896e+003, 1.036026e-001
3.239824e+003, 1.032403e-001
3.241752e+003, 1.027714e-001
3.243681e+003, 1.019399e-001
3.245609e+003, 1.014465e-001
3.247538e+003, 1.013354e-001
3.249466e+003, 1.007739e-001
3.251395e+003, 1.006576e-001
3.253323e+003, 1.007983e-001
3.255252e+003, 1.007825e-001
3.257180e+003, 1.005228e-001
3.259109e+003, 1.003644e-001
3.261037e+003, 1.007614e-001
3.262966e+003, 1.015002e-001
3.264894e+003, 1.011734e-001
3.266823e+003, 1.012583e-001
3.268751e+003, 1.016123e-001
3.270679e+003, 1.017757e-001
3.272608e+003, 1.020299e-001
3.274536e+003, 1.023361e-001
3.276465e+003, 1.029358e-001
3.278393e+003, 1.030092e-001
3.280322e+003, 1.032949e-001
3.282250e+003, 1.037263e-001
3.284179e+003, 1.041942e-001
3.286107e+003, 1.046880e-001
3.288036e+003, 1.050288e-001
3.289964e+003, 1.051603e-001
3.291893e+003, 1.049543e-001
3.293821e+003, 1.052991e-001
3.295750e+003, 1.057859e-001
3.297678e+003, 1.057992e-001
3.299606e+003, 1.056342e-001
3.301535e+003, 1.055240e-001
3.303463e+003, 1.054356e-001
3.305392e+003, 1.051758e-001
3.307320e+003, 1.045513e-001
3.309249e+003, 1.038318e-001
3.311177e+003, 1.033842e-001
3.313106e+003, 1.031268e-001
3.315034e+003, 1.029108e-001
3.316963e+003, 1.029123e-001
3.318891e+003, 1.025127e-001
3.320820e+003, 1.015008e-001
3.322748e+003, 1.007737e-001
3.324677e+003, 1.006534e-001
3.326605e+003, 1.004632e-001
3.328533e+003, 1.000545e-001
3.330462e+003, 1.000763e-001
3.332390e+003, 1.000884e-001
3.334319e+003, 9.997280e-002
3.336247e+003, 9.981630e-002
3.338176e+003, 9.974479e-002
3.340104e+003, 9.975077e-002
3.342033e+003, 1.000395e-001
3.343961e+003, 1.004055e-001
3.345890e+003, 1.005640e-001
3.347818e+003, 1.007309e-001
3.349747e+003, 1.012809e-001
3.351675e+003, 1.023131e-001
3.353604e+003, 1.028540e-001
3.355532e+003, 1.028319e-001
3.357460e+003, 1.028070e-001
3.359389e+003, 1.029835e-001
3.361317e+003, 1.037606e-001
3.363246e+003, 1.046392e-001
3.365174e+003, 1.048656e-001
3.367103e+003, 1.053607e-001
3.369031e+003, 1.060163e-001
3.370960e+003, 1.065901e-001
3.372888e+003, 1.067338e-001
3.374817e+003, 1.073723e-001
3.376745e+003, 1.086006e-001
3.378674e+003, 1.092738e-001
3.380602e+003, 1.102072e-001
3.382531e+003, 1.111463e-001
3.384459e+003, 1.119352e-001
3.386387e+003, 1.132089e-001
3.388316e+003, 1.140244e-001
3.390244e+003, 1.150931e-001
3.392173e+003, 1.170684e-001
3.394101e+003, 1.188550e-001
3.396030e+003, 1.197259e-001
3.397958e+003, 1.213676e-001
3.399887e+003, 1.232182e-001
3.401815e+003, 1.250403e-001
3.403744e+003, 1.266791e-001
3.405672e+003, 1.285560e-001
3.407601e+003, 1.301539e-001
3.409529e+003, 1.312078e-001
3.411458e+003, 1.315786e-001
3.413386e+003, 1.314350e-001
3.415314e+003, 1.317909e-001
3.417243e+003, 1.326037e-001
3.419171e+003, 1.320003e-001
3.421100e+003, 1.307574e-001
3.423028e+003, 1.292984e-001
3.424957e+003, 1.275798e-001
3.426885e+003, 1.261202e-001
3.428814e+003, 1.242215e-001
3.430742e+003, 1.214578e-001
3.432671e+003, 1.193398e-001
3.434599e+003, 1.175356e-001
3.436528e+003, 1.155454e-001
3.438456e+003, 1.132101e-001
3.440385e+003, 1.117416e-001
3.442313e+003, 1.112856e-001
3.444241e+003, 1.104429e-001
3.446170e+003, 1.091257e-001
3.448098e+003, 1.078864e-001
3.450027e+003, 1.066632e-001
3.451955e+003, 1.054143e-001
3.453884e+003, 1.039041e-001
3.455812e+003, 1.026685e-001
3.457741e+003, 1.010902e-001
3.459669e+003, 9.969772e-002
3.461598e+003, 9.932322e-002
3.463526e+003, 9.883820e-002
3.465455e+003, 9.732285e-002
3.467383e+003, 9.541226e-002
3.469312e+003, 9.431452e-002
3.471240e+003, 9.352876e-002
3.473168e+003, 9.276249e-002
3.475097e+003, 9.207111e-002
3.477025e+003, 9.182253e-002
3.478954e+003, 9.133683e-002
3.480882e+003, 9.081241e-002
3.482811e+003, 9.068412e-002
3.484739e+003, 9.020783e-002
3.486668e+003, 9.009364e-002
3.488596e+003, 8.990824e-002
3.490525e+003, 8.980941e-002
3.492453e+003, 8.956874e-002
3.494382e+003, 8.939425e-002
3.496310e+003, 8.947130e-002
3.498239e+003, 8.945814e-002
3.500167e+003, 8.896185e-002
3.502095e+003, 8.887547e-002
3.504024e+003, 8.878442e-002
3.505952e+003, 8.826476e-002
3.507881e+003, 8.842497e-002
3.509809e+003, 8.918837e-002
3.511738e+003, 8.914564e-002
3.513666e+003, 8.837694e-002
3.515595e+003, 8.816595e-002
3.517523e+003, 8.853137e-002
3.519452e+003, 8.820239e-002
3.521380e+003, 8.700833e-002
3.523309e+003, 8.604716e-002
3.525237e+003, 8.422405e-002
3.527166e+003, 8.167607e-002
3.529094e+003, 7.935756e-002
3.531022e+003, 7.651059e-002
3.532951e+003, 7.362661e-002
3.534879e+003, 7.095917e-002
3.536808e+003, 6.805916e-002
3.538736e+003, 6.460731e-002
3.540665e+003, 6.223515e-002
3.542593e+003, 6.034756e-002
3.544522e+003, 5.816709e-002
3.546450e+003, 5.623072e-002
3.548379e+003, 5.506598e-002
3.550307e+003, 5.362956e-002
3.552236e+003, 5.186562e-002
3.554164e+003, 5.095406e-002
3.556093e+003, 5.049727e-002
3.558021e+003, 5.031328e-002
3.559949e+003, 5.023095e-002
3.561878e+003, 5.048658e-002
3.563806e+003, 5.157498e-002
3.565735e+003, 5.281855e-002
3.567663e+003, 5.392854e-002
3.569592e+003, 5.506898e-002
3.571520e+003, 5.563852e-002
3.573449e+003, 5.600260e-002
3.575377e+003, 5.670398e-002
3.577306e+003, 5.810362e-002
3.579234e+003, 6.018455e-002
3.581163e+003, 6.330125e-002
3.583091e+003, 6.807806e-002
3.585020e+003, 7.397239e-002
3.586948e+003, 8.107742e-002
3.588876e+003, 8.934639e-002
3.590805e+003, 9.673422e-002
3.592733e+003, 1.023050e-001
3.594662e+003, 1.047721e-001
3.596590e+003, 1.017515e-001
3.598519e+003, 9.347311e-002
3.600447e+003, 8.222862e-002
3.602376e+003, 6.996367e-002
3.604304e+003, 5.862140e-002
3.606233e+003, 4.898078e-002
3.608161e+003, 4.140753e-002
3.610090e+003, 3.545811e-002
3.612018e+003, 3.046721e-002
3.613947e+003, 2.693071e-002
3.615875e+003, 2.346303e-002
3.617803e+003, 2.003563e-002
3.619732e+003, 1.816129e-002
3.621660e+003, 1.660391e-002
3.623589e+003, 1.552241e-002
3.625517e+003, 1.460864e-002
3.627446e+003, 1.307962e-002
3.629374e+003, 1.151123e-002
3.631303e+003, 1.151546e-002
3.633231e+003, 1.169943e-002
3.635160e+003, 1.064650e-002
3.637088e+003, 9.624453e-003
3.639017e+003, 8.619927e-003
3.640945e+003, 8.044738e-003
3.642874e+003, 7.023676e-003
3.644802e+003, 5.341408e-003
3.646730e+003, 5.020394e-003
3.648659e+003, 4.926585e-003
3.650587e+003, 4.104048e-003
3.652516e+003, 3.314662e-003
3.654444e+003, 2.801353e-003
3.656373e+003, 2.775473e-003
3.658301e+003, 2.773104e-003
3.660230e+003, 2.496454e-003
3.662158e+003, 1.986751e-003
3.664087e+003, 1.914692e-003
3.666015e+003, 1.761814e-003
3.667944e+003, 1.176111e-003
3.669872e+003, 7.487703e-004
3.671801e+003, 7.421580e-004
3.673729e+003, 1.169648e-003
3.675657e+003, 9.711835e-004
3.677586e+003, 6.113949e-004
3.679514e+003, 9.701464e-004
3.681443e+003, 1.014160e-003
3.683371e+003, 1.835887e-004
3.685300e+003, -3.655838e-004
3.687228e+003, -1.166999e-003
3.689157e+003, -6.369933e-004
3.691085e+003, -5.451151e-005
3.693014e+003, -6.665064e-004
3.694942e+003, -1.007576e-003
3.696871e+003, -1.394074e-003
3.698799e+003, -1.445790e-003
3.700728e+003, -8.111500e-004
3.702656e+003, 7.894347e-005
3.704584e+003, -1.625000e-004
3.706513e+003, -7.794627e-004
3.708441e+003, -8.940094e-004
3.710370e+003, -5.697521e-004
3.712298e+003, -4.664594e-004
3.714227e+003, -1.035907e-003
3.716155e+003, -1.249127e-003
3.718084e+003, -8.715059e-004
3.720012e+003, -5.110237e-004
3.721941e+003, 2.490969e-004
3.723869e+003, 3.634653e-004
3.725798e+003, 8.139479e-006
3.727726e+003, -1.846260e-005
3.729655e+003, -5.118957e-004
3.731583e+003, -8.916206e-004
3.733511e+003, -3.509060e-004
3.735440e+003, 2.085125e-004
3.737368e+003, -2.741219e-004
3.739297e+003, -6.215188e-004
3.741225e+003, -2.457808e-004
3.743154e+003, 4.396843e-005
3.745082e+003, -4.124048e-004
3.747011e+003, -1.063937e-003
3.748939e+003, -5.438391e-004
3.750868e+003, 1.218750e-004
3.752796e+003, -1.091454e-004
3.754725e+003, -4.188525e-004
3.756653e+003, -7.489893e-004
3.758582e+003, -1.229465e-003
3.760510e+003, -1.212981e-003
3.762438e+003, -1.039122e-003
3.764367e+003, -1.248352e-003
3.766295e+003, -7.777663e-004
3.768224e+003, 3.328377e-004
3.770152e+003, -4.171913e-005
3.772081e+003, -3.429601e-004
3.774009e+003, 4.082180e-004
3.775938e+003, 7.401626e-004
3.777866e+003, 2.909786e-004
3.779795e+003, -6.270845e-004
3.781723e+003, -6.288278e-004
3.783652e+003, -8.925155e-005
3.785580e+003, 1.916871e-005
3.787509e+003, -1.396246e-004
3.789437e+003, -2.033949e-005
3.791365e+003, 3.232139e-004
3.793294e+003, 3.440629e-004
3.795222e+003, 6.337573e-004
3.797151e+003, 1.098392e-003
3.799079e+003, 9.614917e-004
3.801008e+003, 5.827899e-004
3.802936e+003, -6.564388e-004
3.804865e+003, -7.567407e-004
3.806793e+003, 3.665338e-004
3.808722e+003, 6.723006e-004
3.810650e+003, 5.614372e-004
3.812579e+003, 3.396715e-004
3.814507e+003, -1.420313e-004
3.816436e+003, 1.881602e-004
3.818364e+003, 6.282426e-004
3.820292e+003, 2.934843e-004
3.822221e+003, 3.914407e-005
3.824149e+003, 4.471756e-004
3.826078e+003, 4.146523e-004
3.828006e+003, 4.726661e-004
3.829935e+003, 8.024318e-004
3.831863e+003, 9.270402e-004
3.833792e+003, 7.448292e-004
3.835720e+003, 4.625455e-004
3.837649e+003, 2.276996e-004
3.839577e+003, 5.128208e-004
3.841506e+003, 7.614598e-004
3.843434e+003, 3.255054e-004
3.845363e+003, 3.496768e-005
3.847291e+003, 1.356794e-003
3.849219e+003, 1.849203e-003
3.851148e+003, 1.051250e-003
3.853076e+003, 8.168395e-004
3.855005e+003, 8.444280e-004
3.856933e+003, 5.314708e-004
3.858862e+003, 3.298829e-004
3.860790e+003, -1.465161e-004
3.862719e+003, 4.127363e-004
3.864647e+003, 1.188881e-003
3.866576e+003, 1.078173e-003
3.868504e+003, 9.724770e-004
3.870433e+003, 1.196613e-003
3.872361e+003, 1.166101e-003
3.874290e+003, 1.489642e-003
3.876218e+003, 1.438689e-003
3.878146e+003, 1.249812e-003
3.880075e+003, 1.167819e-003
3.882003e+003, 1.481304e-003
3.883932e+003, 9.649549e-004
3.885860e+003, 7.699966e-004
3.887789e+003, 1.399530e-003
3.889717e+003, 2.151609e-003
3.891646e+003, 2.165815e-003
3.893574e+003, 1.537906e-003
3.895503e+003, 1.428700e-003
3.897431e+003, 1.857256e-003
3.899360e+003, 1.664013e-003
3.901288e+003, 1.177858e-003
3.903217e+003, 9.682637e-004
3.905145e+003, 6.729070e-004
3.907073e+003, 7.177802e-004
3.909002e+003, 1.389059e-003
3.910930e+003, 1.472221e-003
3.912859e+003, 1.780486e-003
3.914787e+003, 2.089516e-003
3.916716e+003, 2.074555e-003
3.918644e+003, 1.824039e-003
3.920573e+003, 1.833902e-003
3.922501e+003, 1.963075e-003
3.924430e+003, 1.997232e-003
3.926358e+003, 2.111513e-003
3.928287e+003, 2.436819e-003
3.930215e+003, 2.272918e-003
3.932144e+003, 1.770894e-003
3.934072e+003, 2.251893e-003
3.936000e+003, 2.580266e-003
3.937929e+003, 1.986263e-003
3.939857e+003, 1.359598e-003
3.941786e+003, 1.356602e-003
3.943714e+003, 1.921658e-003
3.945643e+003, 2.846737e-003
3.947571e+003, 3.254333e-003
3.949500e+003, 2.279787e-003
3.951428e+003, 8.853733e-004
3.953357e+003, 9.545992e-004
3.955285e+003, 1.528853e-003
3.957214e+003, 1.871886e-003
3.959142e+003, 2.129566e-003
3.961071e+003, 2.828671e-003
3.962999e+003, 2.634992e-003
3.964927e+003, 2.373672e-003
3.966856e+003, 2.312034e-003
3.968784e+003, 2.237581e-003
3.970713e+003, 2.848981e-003
3.972641e+003, 2.832046e-003
3.974570e+003, 2.729485e-003
3.976498e+003, 2.486810e-003
3.978427e+003, 2.196299e-003
3.980355e+003, 2.378811e-003
3.982284e+003, 2.159986e-003
3.984212e+003, 1.671515e-003
3.986141e+003, 1.798861e-003
3.988069e+003, 2.703720e-003
3.989998e+003, 3.605406e-003
3.991926e+003, 3.721288e-003
3.993854e+003, 3.391566e-003
3.995783e+003, 3.489000e-003
3.997711e+003, 3.490947e-003
3.999640e+003, 3.360654e-003
##END=



