##NAMES=Viitaniemiite
##RRUFFID=R060052
##IDEAL CHEMISTRY=NaCaAlPO_4_F_3_
##LOCALITY=Paprook, Afghanistan
##OWNER=RRUFF
##SOURCE=Marcus Origlieri
##DESCRIPTION=Clear, colorless fragment
##STATUS=The identification of this mineral has been confirmed by X-ray diffraction and chemical analysis
##URL=rruff.info/R060052
##MEASURED CHEMISTRY=Na_1.00_(Ca_0.97_Mn^2+^_0.03_)_Σ=1_Al_1.00_P_1.00_O_4_(F_1.60_(OH)_1.40_)_Σ=3_
3.991926e+002, 1.062593e-001
4.011211e+002, 1.474332e-001
4.030495e+002, 1.624372e-001
4.049780e+002, 1.810419e-001
4.069065e+002, 2.324689e-001
4.088349e+002, 2.669450e-001
4.107634e+002, 2.668788e-001
4.126919e+002, 2.457912e-001
4.146203e+002, 2.437902e-001
4.165488e+002, 2.396904e-001
4.184773e+002, 2.402146e-001
4.204057e+002, 2.454924e-001
4.223342e+002, 2.349704e-001
4.242627e+002, 2.160148e-001
4.261911e+002, 2.034033e-001
4.281196e+002, 1.887757e-001
4.300481e+002, 1.723150e-001
4.319765e+002, 1.545455e-001
4.339050e+002, 1.409707e-001
4.358335e+002, 1.336511e-001
4.377619e+002, 1.224057e-001
4.396904e+002, 1.109396e-001
4.416189e+002, 1.028536e-001
4.435473e+002, 9.755167e-002
4.454758e+002, 9.297037e-002
4.474043e+002, 9.177247e-002
4.493327e+002, 9.381145e-002
4.512612e+002, 9.757273e-002
4.531897e+002, 1.051138e-001
4.551181e+002, 1.149942e-001
4.570466e+002, 1.248778e-001
4.589751e+002, 1.383409e-001
4.609035e+002, 1.514649e-001
4.628320e+002, 1.675700e-001
4.647605e+002, 1.892754e-001
4.666889e+002, 2.127690e-001
4.686174e+002, 2.317362e-001
4.705459e+002, 2.551824e-001
4.724743e+002, 2.845305e-001
4.744028e+002, 3.019857e-001
4.763313e+002, 3.078041e-001
4.782597e+002, 3.066665e-001
4.801882e+002, 2.964073e-001
4.821167e+002, 2.875215e-001
4.840451e+002, 2.792038e-001
4.859736e+002, 2.684436e-001
4.879021e+002, 2.587025e-001
4.898305e+002, 2.528598e-001
4.917590e+002, 2.471633e-001
4.936875e+002, 2.423674e-001
4.956159e+002, 2.356587e-001
4.975444e+002, 2.275286e-001
4.994729e+002, 2.173260e-001
5.014013e+002, 2.071049e-001
5.033298e+002, 1.961889e-001
5.052583e+002, 1.845983e-001
5.071867e+002, 1.773714e-001
5.091152e+002, 1.726068e-001
5.110437e+002, 1.642004e-001
5.129721e+002, 1.560733e-001
5.149006e+002, 1.517221e-001
5.168290e+002, 1.500825e-001
5.187575e+002, 1.492288e-001
5.206860e+002, 1.520640e-001
5.226144e+002, 1.578004e-001
5.245429e+002, 1.615772e-001
5.264714e+002, 1.657064e-001
5.283998e+002, 1.726396e-001
5.303283e+002, 1.779522e-001
5.322568e+002, 1.803770e-001
5.341852e+002, 1.807993e-001
5.361137e+002, 1.812655e-001
5.380422e+002, 1.818996e-001
5.399706e+002, 1.810857e-001
5.418991e+002, 1.785453e-001
5.438276e+002, 1.751155e-001
5.457560e+002, 1.708670e-001
5.476845e+002, 1.651893e-001
5.496130e+002, 1.603164e-001
5.515414e+002, 1.596915e-001
5.534699e+002, 1.599064e-001
5.553984e+002, 1.614382e-001
5.573268e+002, 1.645267e-001
5.592553e+002, 1.726680e-001
5.611838e+002, 1.848460e-001
5.631122e+002, 1.970681e-001
5.650407e+002, 2.102304e-001
5.669692e+002, 2.241881e-001
5.688976e+002, 2.310129e-001
5.708261e+002, 2.288186e-001
5.727546e+002, 2.236998e-001
5.746830e+002, 2.192243e-001
5.766115e+002, 2.146240e-001
5.785400e+002, 2.100297e-001
5.804684e+002, 2.079367e-001
5.823969e+002, 2.091658e-001
5.843254e+002, 2.118084e-001
5.862538e+002, 2.127791e-001
5.881823e+002, 2.073437e-001
5.901108e+002, 1.896922e-001
5.920392e+002, 1.671516e-001
5.939677e+002, 1.477989e-001
5.958962e+002, 1.335438e-001
5.978246e+002, 1.267591e-001
5.997531e+002, 1.269560e-001
6.016816e+002, 1.282821e-001
6.036100e+002, 1.314227e-001
6.055385e+002, 1.381946e-001
6.074670e+002, 1.436063e-001
6.093954e+002, 1.458721e-001
6.113239e+002, 1.482414e-001
6.132524e+002, 1.493847e-001
6.151808e+002, 1.476451e-001
6.171093e+002, 1.446634e-001
6.190378e+002, 1.429379e-001
6.209662e+002, 1.395387e-001
6.228947e+002, 1.326036e-001
6.248232e+002, 1.265158e-001
6.267516e+002, 1.208167e-001
6.286801e+002, 1.138672e-001
6.306086e+002, 1.073567e-001
6.325370e+002, 1.026736e-001
6.344655e+002, 9.804682e-002
6.363940e+002, 9.213836e-002
6.383224e+002, 8.801635e-002
6.402509e+002, 8.586051e-002
6.421794e+002, 8.428125e-002
6.441078e+002, 8.357100e-002
6.460363e+002, 8.345848e-002
6.479648e+002, 8.381765e-002
6.498932e+002, 8.484830e-002
6.518217e+002, 8.609191e-002
6.537502e+002, 8.683492e-002
6.556786e+002, 8.641142e-002
6.576071e+002, 8.502775e-002
6.595356e+002, 8.320449e-002
6.614641e+002, 8.035968e-002
6.633925e+002, 7.630216e-002
6.653210e+002, 7.207913e-002
6.672495e+002, 6.704130e-002
6.691779e+002, 6.115002e-002
6.711064e+002, 5.607576e-002
6.730349e+002, 5.134714e-002
6.749633e+002, 4.685612e-002
6.768918e+002, 4.266234e-002
6.788203e+002, 3.911240e-002
6.807487e+002, 3.659470e-002
6.826772e+002, 3.436659e-002
6.846057e+002, 3.224845e-002
6.865341e+002, 3.080882e-002
6.884626e+002, 2.869665e-002
6.903911e+002, 2.668426e-002
6.923195e+002, 2.597069e-002
6.942480e+002, 2.541281e-002
6.961765e+002, 2.439601e-002
6.981049e+002, 2.311336e-002
7.000334e+002, 2.264746e-002
7.019619e+002, 2.221592e-002
7.038903e+002, 2.190951e-002
7.058188e+002, 2.193690e-002
7.077473e+002, 2.171192e-002
7.096757e+002, 2.120214e-002
7.116042e+002, 2.114191e-002
7.135327e+002, 2.123340e-002
7.154611e+002, 2.124751e-002
7.173896e+002, 2.153075e-002
7.193181e+002, 2.208220e-002
7.212465e+002, 2.298575e-002
7.231750e+002, 2.383308e-002
7.251035e+002, 2.452574e-002
7.270319e+002, 2.573070e-002
7.289604e+002, 2.728231e-002
7.308889e+002, 2.835904e-002
7.328173e+002, 2.912789e-002
7.347458e+002, 3.052839e-002
7.366743e+002, 3.277946e-002
7.386027e+002, 3.514943e-002
7.405312e+002, 3.700680e-002
7.424597e+002, 3.907450e-002
7.443881e+002, 4.144575e-002
7.463166e+002, 4.339537e-002
7.482451e+002, 4.441058e-002
7.501735e+002, 4.515527e-002
7.521020e+002, 4.509008e-002
7.540305e+002, 4.358776e-002
7.559589e+002, 4.131873e-002
7.578874e+002, 3.912554e-002
7.598159e+002, 3.637768e-002
7.617443e+002, 3.344677e-002
7.636728e+002, 3.062981e-002
7.656013e+002, 2.811961e-002
7.675297e+002, 2.629133e-002
7.694582e+002, 2.526294e-002
7.713867e+002, 2.449860e-002
7.733151e+002, 2.374464e-002
7.752436e+002, 2.274767e-002
7.771721e+002, 2.228700e-002
7.791005e+002, 2.183224e-002
7.810290e+002, 2.085027e-002
7.829575e+002, 2.007033e-002
7.848859e+002, 1.952147e-002
7.868144e+002, 1.858848e-002
7.887429e+002, 1.757777e-002
7.906713e+002, 1.739643e-002
7.925998e+002, 1.697333e-002
7.945283e+002, 1.637903e-002
7.964567e+002, 1.612240e-002
7.983852e+002, 1.551094e-002
8.003137e+002, 1.517427e-002
8.022421e+002, 1.540393e-002
8.041706e+002, 1.541526e-002
8.060991e+002, 1.484011e-002
8.080275e+002, 1.460104e-002
8.099560e+002, 1.446954e-002
8.118845e+002, 1.414869e-002
8.138129e+002, 1.403143e-002
8.157414e+002, 1.402078e-002
8.176699e+002, 1.406997e-002
8.195983e+002, 1.370417e-002
8.215268e+002, 1.304708e-002
8.234553e+002, 1.334659e-002
8.253837e+002, 1.376743e-002
8.273122e+002, 1.365904e-002
8.292407e+002, 1.374537e-002
8.311691e+002, 1.405036e-002
8.330976e+002, 1.391365e-002
8.350261e+002, 1.374927e-002
8.369545e+002, 1.357808e-002
8.388830e+002, 1.367899e-002
8.408115e+002, 1.353016e-002
8.427399e+002, 1.332586e-002
8.446684e+002, 1.341853e-002
8.465969e+002, 1.365068e-002
8.485253e+002, 1.347685e-002
8.504538e+002, 1.331459e-002
8.523823e+002, 1.378339e-002
8.543107e+002, 1.430632e-002
8.562392e+002, 1.398973e-002
8.581677e+002, 1.396963e-002
8.600961e+002, 1.444838e-002
8.620246e+002, 1.442962e-002
8.639531e+002, 1.439366e-002
8.658815e+002, 1.488437e-002
8.678100e+002, 1.500039e-002
8.697385e+002, 1.532322e-002
8.716669e+002, 1.587531e-002
8.735954e+002, 1.599895e-002
8.755239e+002, 1.666130e-002
8.774523e+002, 1.737248e-002
8.793808e+002, 1.725949e-002
8.813093e+002, 1.734946e-002
8.832377e+002, 1.768359e-002
8.851662e+002, 1.803542e-002
8.870947e+002, 1.866696e-002
8.890231e+002, 1.914440e-002
8.909516e+002, 1.928434e-002
8.928801e+002, 1.921427e-002
8.948085e+002, 1.926600e-002
8.967370e+002, 1.993848e-002
8.986655e+002, 2.068241e-002
9.005939e+002, 2.118666e-002
9.025224e+002, 2.182414e-002
9.044509e+002, 2.216780e-002
9.063793e+002, 2.271219e-002
9.083078e+002, 2.367833e-002
9.102363e+002, 2.456358e-002
9.121647e+002, 2.499827e-002
9.140932e+002, 2.570798e-002
9.160217e+002, 2.649177e-002
9.179501e+002, 2.732173e-002
9.198786e+002, 2.804001e-002
9.218071e+002, 2.918150e-002
9.237355e+002, 3.018161e-002
9.256640e+002, 3.105241e-002
9.275925e+002, 3.246361e-002
9.295209e+002, 3.396955e-002
9.314494e+002, 3.504411e-002
9.333779e+002, 3.597710e-002
9.353063e+002, 3.736046e-002
9.372348e+002, 3.907044e-002
9.391633e+002, 4.113935e-002
9.410917e+002, 4.333209e-002
9.430202e+002, 4.552074e-002
9.449487e+002, 4.787304e-002
9.468771e+002, 5.048519e-002
9.488056e+002, 5.339725e-002
9.507341e+002, 5.641323e-002
9.526625e+002, 5.904209e-002
9.545910e+002, 6.226581e-002
9.565195e+002, 6.629471e-002
9.584479e+002, 7.083513e-002
9.603764e+002, 7.583061e-002
9.623049e+002, 8.086243e-002
9.642333e+002, 8.661292e-002
9.661618e+002, 9.332690e-002
9.680903e+002, 1.008712e-001
9.700187e+002, 1.095881e-001
9.719472e+002, 1.193624e-001
9.738757e+002, 1.306387e-001
9.758041e+002, 1.416750e-001
9.777326e+002, 1.503770e-001
9.796611e+002, 1.567290e-001
9.815895e+002, 1.631050e-001
9.835180e+002, 1.709318e-001
9.854465e+002, 1.808860e-001
9.873749e+002, 1.919518e-001
9.893034e+002, 2.037718e-001
9.912319e+002, 2.172282e-001
9.931603e+002, 2.303583e-001
9.950888e+002, 2.402315e-001
9.970173e+002, 2.466577e-001
9.989457e+002, 2.538068e-001
1.000874e+003, 2.667040e-001
1.002803e+003, 2.853537e-001
1.004731e+003, 3.080465e-001
1.006660e+003, 3.320593e-001
1.008588e+003, 3.561417e-001
1.010517e+003, 3.808750e-001
1.012445e+003, 4.065409e-001
1.014373e+003, 4.318116e-001
1.016302e+003, 4.574538e-001
1.018230e+003, 4.835257e-001
1.020159e+003, 5.092314e-001
1.022087e+003, 5.335561e-001
1.024016e+003, 5.567384e-001
1.025944e+003, 5.773510e-001
1.027873e+003, 5.956276e-001
1.029801e+003, 6.108049e-001
1.031730e+003, 6.197484e-001
1.033658e+003, 6.216083e-001
1.035587e+003, 6.214139e-001
1.037515e+003, 6.189273e-001
1.039443e+003, 6.159918e-001
1.041372e+003, 6.098776e-001
1.043300e+003, 5.993911e-001
1.045229e+003, 5.851715e-001
1.047157e+003, 5.689920e-001
1.049086e+003, 5.503552e-001
1.051014e+003, 5.306181e-001
1.052943e+003, 5.095879e-001
1.054871e+003, 4.875056e-001
1.056800e+003, 4.646288e-001
1.058728e+003, 4.435535e-001
1.060657e+003, 4.251619e-001
1.062585e+003, 4.086873e-001
1.064514e+003, 3.926191e-001
1.066442e+003, 3.772275e-001
1.068370e+003, 3.633168e-001
1.070299e+003, 3.499149e-001
1.072227e+003, 3.368512e-001
1.074156e+003, 3.246318e-001
1.076084e+003, 3.125834e-001
1.078013e+003, 3.002095e-001
1.079941e+003, 2.866755e-001
1.081870e+003, 2.716864e-001
1.083798e+003, 2.570556e-001
1.085727e+003, 2.424284e-001
1.087655e+003, 2.279391e-001
1.089584e+003, 2.144565e-001
1.091512e+003, 2.004736e-001
1.093441e+003, 1.879381e-001
1.095369e+003, 1.765978e-001
1.097297e+003, 1.654455e-001
1.099226e+003, 1.552642e-001
1.101154e+003, 1.458220e-001
1.103083e+003, 1.363713e-001
1.105011e+003, 1.279684e-001
1.106940e+003, 1.197927e-001
1.108868e+003, 1.117643e-001
1.110797e+003, 1.047802e-001
1.112725e+003, 9.817994e-002
1.114654e+003, 9.187394e-002
1.116582e+003, 8.638233e-002
1.118511e+003, 8.146750e-002
1.120439e+003, 7.674594e-002
1.122368e+003, 7.178500e-002
1.124296e+003, 6.668699e-002
1.126224e+003, 6.209814e-002
1.128153e+003, 5.802001e-002
1.130081e+003, 5.396200e-002
1.132010e+003, 5.004353e-002
1.133938e+003, 4.611311e-002
1.135867e+003, 4.225880e-002
1.137795e+003, 3.894582e-002
1.139724e+003, 3.602859e-002
1.141652e+003, 3.310918e-002
1.143581e+003, 3.080908e-002
1.145509e+003, 2.877531e-002
1.147438e+003, 2.734165e-002
1.149366e+003, 2.732098e-002
1.151295e+003, 2.769686e-002
1.153223e+003, 2.782722e-002
1.155151e+003, 2.852306e-002
1.157080e+003, 2.977321e-002
1.159008e+003, 3.098186e-002
1.160937e+003, 3.202827e-002
1.162865e+003, 3.220925e-002
1.164794e+003, 3.043793e-002
1.166722e+003, 2.756653e-002
1.168651e+003, 2.442451e-002
1.170579e+003, 2.156971e-002
1.172508e+003, 1.867439e-002
1.174436e+003, 1.613606e-002
1.176365e+003, 1.430720e-002
1.178293e+003, 1.318608e-002
1.180222e+003, 1.184626e-002
1.182150e+003, 1.039984e-002
1.184078e+003, 9.011173e-003
1.186007e+003, 8.223995e-003
1.187935e+003, 7.411939e-003
1.189864e+003, 6.543860e-003
1.191792e+003, 5.613388e-003
1.193721e+003, 5.154190e-003
1.195649e+003, 4.834437e-003
1.197578e+003, 4.673123e-003
1.199506e+003, 4.319123e-003
1.201435e+003, 3.889890e-003
1.203363e+003, 3.439512e-003
1.205292e+003, 3.214649e-003
1.207220e+003, 2.754509e-003
1.209149e+003, 2.195401e-003
1.211077e+003, 1.977926e-003
1.213005e+003, 1.973168e-003
1.214934e+003, 1.756296e-003
1.216862e+003, 1.586050e-003
1.218791e+003, 1.439364e-003
1.220719e+003, 1.288478e-003
1.222648e+003, 1.057099e-003
1.224576e+003, 8.540622e-004
1.226505e+003, 9.434987e-004
1.228433e+003, 9.256958e-004
1.230362e+003, 8.390286e-004
1.232290e+003, 6.997656e-004
1.234219e+003, 6.641315e-004
1.236147e+003, 6.344130e-004
1.238076e+003, 4.345211e-004
1.240004e+003, 4.178869e-004
1.241932e+003, 1.694422e-004
1.243861e+003, 5.502368e-005
1.245789e+003, 6.551221e-005
1.247718e+003, -1.575105e-005
1.249646e+003, 8.074197e-006
1.251575e+003, 2.257252e-004
1.253503e+003, 2.163917e-004
1.255432e+003, 1.576569e-005
1.257360e+003, -3.268610e-004
1.259289e+003, -2.018716e-004
1.261217e+003, 2.122933e-005
1.263146e+003, -8.905621e-005
1.265074e+003, -1.638931e-005
1.267003e+003, -2.253494e-004
1.268931e+003, -4.609967e-004
1.270859e+003, -5.426828e-004
1.272788e+003, -7.510431e-005
1.274716e+003, 2.541532e-004
1.276645e+003, -9.660571e-005
1.278573e+003, -4.057017e-004
1.280502e+003, -8.269468e-004
1.282430e+003, -8.641710e-004
1.284359e+003, -6.840085e-004
1.286287e+003, -5.175918e-004
1.288216e+003, -4.883028e-004
1.290144e+003, -5.039822e-004
1.292073e+003, -7.652917e-004
1.294001e+003, -6.599806e-004
1.295930e+003, -7.315549e-004
1.297858e+003, -7.577672e-004
1.299786e+003, -7.264201e-004
1.301715e+003, -1.169884e-003
1.303643e+003, -1.438206e-003
1.305572e+003, -1.625974e-003
1.307500e+003, -1.433040e-003
1.309429e+003, -1.018067e-003
1.311357e+003, -6.575052e-004
1.313286e+003, -7.281412e-004
1.315214e+003, -1.005426e-003
1.317143e+003, -1.036437e-003
1.319071e+003, -9.424469e-004
1.321000e+003, -8.722864e-004
1.322928e+003, -9.067347e-004
1.324857e+003, -1.147399e-003
1.326785e+003, -1.326337e-003
1.328714e+003, -1.158384e-003
1.330642e+003, -1.196893e-003
1.332570e+003, -1.261633e-003
1.334499e+003, -1.255738e-003
1.336427e+003, -1.179250e-003
1.338356e+003, -1.129702e-003
1.340284e+003, -9.414646e-004
1.342213e+003, -8.204815e-004
1.344141e+003, -9.162494e-004
1.346070e+003, -1.013297e-003
1.347998e+003, -1.070347e-003
1.349927e+003, -1.364732e-003
1.351855e+003, -1.543576e-003
1.353784e+003, -1.285611e-003
1.355712e+003, -1.171655e-003
1.357641e+003, -1.061658e-003
1.359569e+003, -8.403130e-004
1.361497e+003, -1.340018e-003
1.363426e+003, -1.558005e-003
1.365354e+003, -1.409260e-003
1.367283e+003, -1.208285e-003
1.369211e+003, -1.210307e-003
1.371140e+003, -1.121961e-003
1.373068e+003, -9.384659e-004
1.374997e+003, -8.826491e-004
1.376925e+003, -8.237960e-004
1.378854e+003, -5.738277e-004
1.380782e+003, -6.821693e-004
1.382711e+003, -5.867839e-004
1.384639e+003, -7.487785e-004
1.386568e+003, -6.280750e-004
1.388496e+003, -5.010324e-004
1.390424e+003, -3.760015e-004
1.392353e+003, -1.190147e-004
1.394281e+003, -3.478186e-004
1.396210e+003, -4.846328e-004
1.398138e+003, -5.268219e-004
1.400067e+003, -7.802406e-004
1.401995e+003, -5.440092e-004
1.403924e+003, -4.054527e-004
1.405852e+003, -6.070285e-004
1.407781e+003, -6.111231e-004
1.409709e+003, -1.250749e-004
1.411638e+003, 2.513642e-004
1.413566e+003, 4.751594e-004
1.415495e+003, 4.002432e-004
1.417423e+003, 1.830496e-004
1.419351e+003, 3.424651e-004
1.421280e+003, 6.965649e-004
1.423208e+003, 5.370172e-004
1.425137e+003, 2.807898e-004
1.427065e+003, 5.362287e-005
1.428994e+003, 2.352711e-004
1.430922e+003, 3.690241e-004
1.432851e+003, 3.151314e-004
1.434779e+003, 3.975139e-004
1.436708e+003, 7.068902e-004
1.438636e+003, 9.876472e-004
1.440565e+003, 9.032586e-004
1.442493e+003, 5.240113e-004
1.444422e+003, 4.997567e-004
1.446350e+003, 2.972914e-004
1.448278e+003, 2.983599e-004
1.450207e+003, 4.109239e-004
1.452135e+003, 5.991733e-004
1.454064e+003, 8.605332e-004
1.455992e+003, 1.137142e-003
1.457921e+003, 1.071191e-003
1.459849e+003, 8.628430e-004
1.461778e+003, 8.796002e-004
1.463706e+003, 1.118437e-003
1.465635e+003, 1.160776e-003
1.467563e+003, 1.208682e-003
1.469492e+003, 1.278960e-003
1.471420e+003, 1.108312e-003
1.473349e+003, 7.509194e-004
1.475277e+003, 4.507517e-004
1.477205e+003, 6.194632e-004
1.479134e+003, 9.528665e-004
1.481062e+003, 1.086031e-003
1.482991e+003, 1.039556e-003
1.484919e+003, 6.198416e-004
1.486848e+003, 6.605910e-004
1.488776e+003, 7.131010e-004
1.490705e+003, 4.140957e-004
1.492633e+003, 1.944445e-004
1.494562e+003, 3.639813e-004
1.496490e+003, 5.921134e-004
1.498419e+003, 4.300001e-004
1.500347e+003, 3.075447e-004
1.502276e+003, 5.780611e-004
1.504204e+003, 3.930596e-004
1.506132e+003, 2.767776e-004
1.508061e+003, 2.473470e-005
1.509989e+003, -1.671049e-005
1.511918e+003, 2.528328e-004
1.513846e+003, 3.835839e-004
1.515775e+003, 6.701248e-004
1.517703e+003, 7.962324e-004
1.519632e+003, 7.065584e-004
1.521560e+003, 7.773589e-004
1.523489e+003, 6.804578e-004
1.525417e+003, 7.101085e-004
1.527346e+003, 6.515324e-004
1.529274e+003, 5.964123e-004
1.531203e+003, 4.298638e-004
1.533131e+003, 7.861184e-004
1.535059e+003, 7.908246e-004
1.536988e+003, 7.336445e-004
1.538916e+003, 1.066093e-003
1.540845e+003, 1.156871e-003
1.542773e+003, 1.219514e-003
1.544702e+003, 1.139874e-003
1.546630e+003, 8.405007e-004
1.548559e+003, 4.356604e-004
1.550487e+003, 5.685380e-004
1.552416e+003, 7.294224e-004
1.554344e+003, 6.976418e-004
1.556273e+003, 1.105542e-003
1.558201e+003, 7.818122e-004
1.560130e+003, 6.227780e-004
1.562058e+003, 8.859903e-004
1.563986e+003, 1.123687e-003
1.565915e+003, 1.569414e-003
1.567843e+003, 1.446132e-003
1.569772e+003, 1.090229e-003
1.571700e+003, 9.712456e-004
1.573629e+003, 8.110078e-004
1.575557e+003, 5.383364e-004
1.577486e+003, 7.241965e-004
1.579414e+003, 9.999629e-004
1.581343e+003, 1.137312e-003
1.583271e+003, 1.030933e-003
1.585200e+003, 9.796402e-004
1.587128e+003, 1.176081e-003
1.589057e+003, 1.169862e-003
1.590985e+003, 1.188497e-003
1.592913e+003, 1.109526e-003
1.594842e+003, 8.513042e-004
1.596770e+003, 9.979174e-004
1.598699e+003, 1.137909e-003
1.600627e+003, 1.393571e-003
1.602556e+003, 1.543284e-003
1.604484e+003, 1.261797e-003
1.606413e+003, 1.148838e-003
1.608341e+003, 9.892987e-004
1.610270e+003, 7.580480e-004
1.612198e+003, 9.430999e-004
1.614127e+003, 9.618477e-004
1.616055e+003, 4.597931e-004
1.617984e+003, 5.324987e-004
1.619912e+003, 7.491005e-004
1.621840e+003, 4.494478e-004
1.623769e+003, 4.851921e-004
1.625697e+003, 8.109323e-004
1.627626e+003, 8.706397e-004
1.629554e+003, 6.598948e-004
1.631483e+003, 9.304557e-004
1.633411e+003, 8.355327e-004
1.635340e+003, 4.589361e-004
1.637268e+003, 8.652059e-004
1.639197e+003, 1.065825e-003
1.641125e+003, 5.839774e-004
1.643054e+003, 5.770357e-004
1.644982e+003, 7.052053e-004
1.646911e+003, 6.322953e-004
1.648839e+003, 1.014537e-003
1.650767e+003, 1.265757e-003
1.652696e+003, 7.898617e-004
1.654624e+003, 6.857416e-004
1.656553e+003, 9.693762e-004
1.658481e+003, 1.050077e-003
1.660410e+003, 6.556496e-004
1.662338e+003, 7.466646e-004
1.664267e+003, 1.150776e-003
1.666195e+003, 4.894168e-004
1.668124e+003, 1.426023e-005
1.670052e+003, 2.130733e-004
1.671981e+003, 4.883443e-004
1.673909e+003, 1.151277e-003
1.675838e+003, 9.990101e-004
1.677766e+003, 3.632120e-004
1.679694e+003, 2.580625e-004
1.681623e+003, 1.978291e-004
1.683551e+003, 8.736118e-005
1.685480e+003, -7.030769e-005
1.687408e+003, -1.063343e-004
1.689337e+003, -1.478699e-004
1.691265e+003, -2.138677e-004
1.693194e+003, 2.447592e-004
1.695122e+003, 3.201049e-004
1.697051e+003, -4.810605e-004
1.698979e+003, -8.399918e-004
1.700908e+003, -4.344483e-004
1.702836e+003, -1.954194e-004
1.704765e+003, -7.055659e-004
1.706693e+003, -8.504707e-004
1.708621e+003, -5.668812e-004
1.710550e+003, -5.385237e-004
1.712478e+003, -9.035672e-004
1.714407e+003, -4.619104e-004
1.716335e+003, -4.691363e-004
1.718264e+003, -1.013857e-003
1.720192e+003, -8.000932e-004
1.722121e+003, -3.967527e-004
1.724049e+003, -7.557212e-004
1.725978e+003, -7.458258e-004
1.727906e+003, -2.012728e-004
1.729835e+003, -4.676874e-005
1.731763e+003, -1.246197e-004
1.733692e+003, -2.630899e-005
1.735620e+003, -4.128526e-004
1.737548e+003, -7.036047e-004
1.739477e+003, -7.565533e-004
1.741405e+003, -7.883452e-004
1.743334e+003, -1.057607e-003
1.745262e+003, -1.324655e-003
1.747191e+003, -1.579949e-003
1.749119e+003, -1.670638e-003
1.751048e+003, -1.210479e-003
1.752976e+003, -1.030569e-003
1.754905e+003, -1.263767e-003
1.756833e+003, -1.586171e-003
1.758762e+003, -1.826015e-003
1.760690e+003, -2.000327e-003
1.762619e+003, -2.211723e-003
1.764547e+003, -1.770193e-003
1.766475e+003, -1.204956e-003
1.768404e+003, -9.502812e-004
1.770332e+003, -1.207763e-003
1.772261e+003, -1.596584e-003
1.774189e+003, -1.805085e-003
1.776118e+003, -1.991088e-003
1.778046e+003, -2.255519e-003
1.779975e+003, -2.095762e-003
1.781903e+003, -1.936915e-003
1.783832e+003, -1.976861e-003
1.785760e+003, -2.012638e-003
1.787689e+003, -1.645889e-003
1.789617e+003, -1.140931e-003
1.791546e+003, -1.206766e-003
1.793474e+003, -1.897031e-003
1.795402e+003, -1.598909e-003
1.797331e+003, -1.371784e-003
1.799259e+003, -1.762190e-003
1.801188e+003, -2.499962e-003
1.803116e+003, -2.594881e-003
1.805045e+003, -2.424767e-003
1.806973e+003, -1.869739e-003
1.808902e+003, -1.830416e-003
1.810830e+003, -2.136759e-003
1.812759e+003, -2.426686e-003
1.814687e+003, -2.642516e-003
1.816616e+003, -2.733685e-003
1.818544e+003, -2.338673e-003
1.820473e+003, -2.198786e-003
1.822401e+003, -1.716350e-003
1.824329e+003, -1.955778e-003
1.826258e+003, -2.321082e-003
1.828186e+003, -2.434718e-003
1.830115e+003, -2.144093e-003
1.832043e+003, -1.944549e-003
1.833972e+003, -2.534621e-003
1.835900e+003, -2.208139e-003
1.837829e+003, -1.971282e-003
1.839757e+003, -2.495523e-003
1.841686e+003, -2.223738e-003
1.843614e+003, -2.237702e-003
1.845543e+003, -2.681535e-003
1.847471e+003, -2.411578e-003
1.849400e+003, -9.686510e-004
1.851328e+003, -1.089615e-003
1.853256e+003, -2.642741e-003
1.855185e+003, -3.442075e-003
1.857113e+003, -3.163449e-003
1.859042e+003, -2.200282e-003
1.860970e+003, -1.942344e-003
1.862899e+003, -2.993136e-003
1.864827e+003, -3.004915e-003
1.866756e+003, -1.855141e-003
1.868684e+003, -6.330407e-004
1.870613e+003, -9.801332e-004
1.872541e+003, -2.981429e-003
1.874470e+003, -4.379597e-003
1.876398e+003, -3.928098e-003
1.878327e+003, -3.058414e-003
1.880255e+003, -1.941340e-003
1.882183e+003, -3.547138e-004
1.884112e+003, -7.063827e-004
1.886040e+003, -1.855787e-003
1.887969e+003, -1.597500e-003
1.889897e+003, -2.217192e-003
1.891826e+003, -3.476102e-003
1.893754e+003, -3.462838e-003
1.895683e+003, -3.442408e-003
1.897611e+003, -5.198778e-003
1.899540e+003, -5.820511e-003
1.901468e+003, -4.990316e-003
1.903397e+003, -3.813631e-003
1.905325e+003, -3.220608e-003
1.907254e+003, -4.125129e-003
1.909182e+003, -5.076202e-003
1.911110e+003, -5.220219e-003
1.913039e+003, -5.524569e-003
1.914967e+003, -4.551714e-003
1.916896e+003, -3.249340e-003
1.918824e+003, -2.258040e-003
1.920753e+003, -3.483370e-003
1.922681e+003, -4.701191e-003
1.924610e+003, -4.627525e-003
1.926538e+003, -4.722936e-003
1.928467e+003, -5.353154e-003
1.930395e+003, -6.406116e-003
1.932324e+003, -6.810045e-003
1.934252e+003, -6.613960e-003
1.936181e+003, -6.616608e-003
1.938109e+003, -6.154387e-003
1.940037e+003, -6.659252e-003
1.941966e+003, -6.307598e-003
1.943894e+003, -5.733825e-003
1.945823e+003, -5.577805e-003
1.947751e+003, -5.541274e-003
1.949680e+003, -7.624122e-003
1.951608e+003, -9.183280e-003
1.953537e+003, -8.648043e-003
1.955465e+003, -8.168755e-003
1.957394e+003, -8.768214e-003
1.959322e+003, -8.883636e-003
1.961251e+003, -1.027712e-002
1.963179e+003, -1.438907e-002
1.965108e+003, -1.570008e-002
1.967036e+003, -1.356343e-002
1.968964e+003, -1.222952e-002
1.970893e+003, -1.338278e-002
1.972821e+003, -1.260370e-002
1.974750e+003, -1.359685e-002
1.976678e+003, -1.361290e-002
1.978607e+003, -1.057311e-002
1.980535e+003, -7.724555e-003
1.982464e+003, -5.520077e-003
1.984392e+003, -4.854566e-003
1.986321e+003, -8.844834e-003
1.988249e+003, -1.081131e-002
1.990178e+003, -7.540326e-003
1.992106e+003, -6.016123e-003
1.994035e+003, -5.667698e-003
1.995963e+003, -5.276308e-003
1.997891e+003, -7.370691e-003
1.999820e+003, -8.444735e-003
2.001748e+003, -9.642985e-003
2.003677e+003, -1.117190e-002
2.005605e+003, -8.485882e-003
2.007534e+003, -8.479681e-003
2.009462e+003, -1.177493e-002
2.011391e+003, -1.108950e-002
2.013319e+003, -7.234839e-003
2.015248e+003, -8.431255e-003
2.017176e+003, -1.231363e-002
2.019105e+003, -1.247619e-002
2.021033e+003, -1.151775e-002
2.022962e+003, -1.093367e-002
2.024890e+003, -1.067900e-002
2.026818e+003, -1.120532e-002
2.028747e+003, -1.712459e-002
2.030675e+003, -1.681000e-002
2.032604e+003, -1.040145e-002
2.034532e+003, -7.350447e-003
2.036461e+003, -7.049140e-003
2.038389e+003, -7.619406e-003
2.040318e+003, -1.078047e-002
2.042246e+003, -1.469170e-002
2.044175e+003, -1.356525e-002
2.046103e+003, -9.919006e-003
2.048031e+003, -1.187352e-002
2.049960e+003, -1.120154e-002
2.051888e+003, -6.193559e-003
2.053817e+003, -3.180279e-003
2.055745e+003, -6.034791e-003
2.057674e+003, -7.487534e-003
2.059602e+003, -5.773109e-003
2.061531e+003, -5.515828e-003
2.063459e+003, -6.661428e-003
2.065388e+003, -7.948672e-003
2.067316e+003, -7.778601e-003
2.069245e+003, -6.297761e-003
2.071173e+003, -5.730876e-003
2.073102e+003, -5.601741e-003
2.075030e+003, -5.171326e-003
2.076958e+003, -6.193575e-003
2.078887e+003, -6.999169e-003
2.080815e+003, -4.840660e-003
2.082744e+003, -3.145577e-003
2.084672e+003, -3.646434e-003
2.086601e+003, -6.030391e-003
2.088529e+003, -6.581202e-003
2.090458e+003, -5.904329e-003
2.092386e+003, -7.117399e-003
2.094315e+003, -8.986762e-003
2.096243e+003, -7.748753e-003
2.098172e+003, -6.027228e-003
2.100100e+003, -4.950027e-003
2.102029e+003, -5.141448e-003
2.103957e+003, -6.553478e-003
2.105885e+003, -6.959199e-003
2.107814e+003, -5.374334e-003
2.109742e+003, -5.520872e-003
2.111671e+003, -7.596523e-003
2.113599e+003, -7.601585e-003
2.115528e+003, -5.610142e-003
2.117456e+003, -5.196067e-003
2.119385e+003, -5.696167e-003
2.121313e+003, -6.437107e-003
2.123242e+003, -5.957502e-003
2.125170e+003, -7.291794e-003
2.127099e+003, -9.271326e-003
2.129027e+003, -9.521552e-003
2.130956e+003, -8.676992e-003
2.132884e+003, -9.733653e-003
2.134813e+003, -1.161106e-002
2.136741e+003, -1.124581e-002
2.138669e+003, -1.188526e-002
2.140598e+003, -1.198953e-002
2.142526e+003, -8.534272e-003
2.144455e+003, -8.544700e-003
2.146383e+003, -1.279936e-002
2.148312e+003, -1.611835e-002
2.150240e+003, -1.641211e-002
2.152169e+003, -1.546332e-002
2.154097e+003, -2.061530e-002
2.156026e+003, -2.746645e-002
2.157954e+003, -2.644585e-002
2.159883e+003, -1.841047e-002
2.161811e+003, -1.371785e-002
2.163740e+003, -9.377158e-003
2.165668e+003, -8.038038e-003
2.167596e+003, -7.891939e-003
2.169525e+003, -8.526630e-003
2.171453e+003, -9.067176e-003
2.173382e+003, -7.790810e-003
2.175310e+003, -6.998691e-003
2.177239e+003, -7.186118e-003
2.179167e+003, -5.543345e-003
2.181096e+003, -5.514051e-003
2.183024e+003, -5.372860e-003
2.184953e+003, -3.744324e-003
2.186881e+003, -4.772608e-003
2.188810e+003, -5.997783e-003
2.190738e+003, -7.436178e-003
2.192667e+003, -6.283808e-003
2.194595e+003, -3.615979e-003
2.196523e+003, -3.125565e-003
2.198452e+003, -5.734112e-003
2.200380e+003, -6.726700e-003
2.202309e+003, -5.702464e-003
2.204237e+003, -5.393188e-003
2.206166e+003, -5.696102e-003
2.208094e+003, -5.438637e-003
2.210023e+003, -5.809201e-003
2.211951e+003, -5.472404e-003
2.213880e+003, -4.848097e-003
2.215808e+003, -4.894688e-003
2.217737e+003, -4.732097e-003
2.219665e+003, -5.050567e-003
2.221594e+003, -5.785984e-003
2.223522e+003, -5.494731e-003
2.225450e+003, -3.451560e-003
2.227379e+003, -2.491152e-003
2.229307e+003, -1.298800e-003
2.231236e+003, -2.556896e-004
2.233164e+003, -1.646960e-003
2.235093e+003, -4.087806e-003
2.237021e+003, -4.474036e-003
2.238950e+003, -3.890282e-003
2.240878e+003, -3.006163e-003
2.242807e+003, -1.812448e-003
2.244735e+003, -2.564643e-003
2.246664e+003, -3.248553e-003
2.248592e+003, -1.593254e-003
2.250521e+003, -1.768365e-003
2.252449e+003, -1.700372e-003
2.254377e+003, 4.037439e-004
2.256306e+003, 9.371975e-004
2.258234e+003, 2.061258e-003
2.260163e+003, 2.355366e-003
2.262091e+003, -3.935702e-004
2.264020e+003, -1.967878e-003
2.265948e+003, -5.768959e-004
2.267877e+003, 1.119905e-003
2.269805e+003, 9.141234e-004
2.271734e+003, 9.705791e-004
2.273662e+003, 3.682407e-003
2.275591e+003, 4.996366e-003
2.277519e+003, 4.208100e-003
2.279448e+003, 3.509548e-003
2.281376e+003, 3.389404e-003
2.283304e+003, 3.458773e-003
2.285233e+003, 4.036372e-003
2.287161e+003, 3.634900e-003
2.289090e+003, 3.990867e-003
2.291018e+003, 5.893438e-003
2.292947e+003, 6.297652e-003
2.294875e+003, 6.060102e-003
2.296804e+003, 5.563273e-003
2.298732e+003, 5.300903e-003
2.300661e+003, 5.821243e-003
2.302589e+003, 6.697116e-003
2.304518e+003, 6.188436e-003
2.306446e+003, 5.319997e-003
2.308375e+003, 5.154141e-003
2.310303e+003, 4.686582e-003
2.312231e+003, 4.456064e-003
2.314160e+003, 3.889697e-003
2.316088e+003, 5.370398e-003
2.318017e+003, 5.447995e-003
2.319945e+003, 4.894290e-003
2.321874e+003, 5.219700e-003
2.323802e+003, 4.749320e-003
2.325731e+003, 3.138165e-003
2.327659e+003, 2.875982e-003
2.329588e+003, 4.164008e-003
2.331516e+003, 4.250150e-003
2.333445e+003, 2.551172e-003
2.335373e+003, 1.842396e-003
2.337302e+003, 1.770447e-003
2.339230e+003, 1.554219e-003
2.341158e+003, 1.948536e-003
2.343087e+003, 2.047533e-003
2.345015e+003, 1.716514e-003
2.346944e+003, 1.981322e-003
2.348872e+003, 1.677474e-003
2.350801e+003, 1.174579e-003
2.352729e+003, 1.908415e-003
2.354658e+003, 2.079924e-003
2.356586e+003, 1.503190e-003
2.358515e+003, 1.428431e-003
2.360443e+003, 1.026642e-003
2.362372e+003, 7.300167e-004
2.364300e+003, 1.281796e-003
2.366229e+003, 1.356085e-003
2.368157e+003, -2.184278e-004
2.370085e+003, -2.127171e-004
2.372014e+003, 5.850656e-004
2.373942e+003, 9.565352e-004
2.375871e+003, 6.439124e-004
2.377799e+003, 5.255582e-004
2.379728e+003, 4.773893e-004
2.381656e+003, 7.907475e-005
2.383585e+003, -1.457038e-004
2.385513e+003, -6.062305e-004
2.387442e+003, -7.189786e-004
2.389370e+003, -3.569138e-004
2.391299e+003, -1.224084e-004
2.393227e+003, 1.340354e-003
2.395156e+003, 1.114669e-003
2.397084e+003, 1.353491e-004
2.399012e+003, 5.166797e-006
2.400941e+003, 2.844403e-004
2.402869e+003, 1.318331e-003
2.404798e+003, 5.212416e-004
2.406726e+003, -3.042610e-004
2.408655e+003, 5.136936e-004
2.410583e+003, 1.033020e-003
2.412512e+003, 6.727997e-004
2.414440e+003, 4.718671e-004
2.416369e+003, 1.100337e-003
2.418297e+003, 9.920308e-005
2.420226e+003, -2.008614e-004
2.422154e+003, 9.639118e-004
2.424083e+003, 9.311558e-004
2.426011e+003, 1.843356e-004
2.427939e+003, 8.307861e-004
2.429868e+003, 1.960016e-003
2.431796e+003, 2.865029e-003
2.433725e+003, 2.572210e-003
2.435653e+003, 2.552486e-003
2.437582e+003, 9.192844e-004
2.439510e+003, -2.648495e-004
2.441439e+003, 3.319630e-004
2.443367e+003, 9.046124e-004
2.445296e+003, 2.298858e-004
2.447224e+003, -1.858338e-004
2.449153e+003, 8.468973e-004
2.451081e+003, 2.001456e-003
2.453010e+003, 1.680449e-003
2.454938e+003, 2.001916e-003
2.456866e+003, 5.744733e-004
2.458795e+003, -5.061334e-004
2.460723e+003, 1.422858e-004
2.462652e+003, 7.972609e-004
2.464580e+003, 8.751156e-004
2.466509e+003, 1.748470e-003
2.468437e+003, 1.496070e-003
2.470366e+003, 3.988629e-004
2.472294e+003, 3.359946e-004
2.474223e+003, 7.967406e-004
2.476151e+003, 1.395258e-003
2.478080e+003, 1.098190e-003
2.480008e+003, 5.849819e-004
2.481937e+003, 1.297569e-003
2.483865e+003, -6.443935e-005
2.485793e+003, -1.290573e-004
2.487722e+003, 1.639175e-003
2.489650e+003, 1.112567e-003
2.491579e+003, 1.138800e-003
2.493507e+003, 7.020842e-004
2.495436e+003, 2.728602e-005
2.497364e+003, 6.625982e-004
2.499293e+003, -8.148362e-005
2.501221e+003, 5.573154e-004
2.503150e+003, 9.935710e-004
2.505078e+003, -6.363665e-004
2.507007e+003, -6.617618e-004
2.508935e+003, 1.120436e-003
2.510864e+003, 1.670504e-003
2.512792e+003, 1.109898e-004
2.514720e+003, -3.850503e-004
2.516649e+003, 5.096119e-004
2.518577e+003, 3.176593e-004
2.520506e+003, 1.381116e-003
2.522434e+003, 7.087681e-005
2.524363e+003, -9.758390e-004
2.526291e+003, 6.916315e-004
2.528220e+003, 1.509234e-003
2.530148e+003, 7.809399e-004
2.532077e+003, 1.193676e-003
2.534005e+003, 9.521191e-004
2.535934e+003, -4.397029e-004
2.537862e+003, -4.895451e-004
2.539791e+003, 8.600825e-005
2.541719e+003, -7.465034e-004
2.543647e+003, -1.025228e-003
2.545576e+003, -3.753298e-005
2.547504e+003, 9.273694e-004
2.549433e+003, 5.197999e-004
2.551361e+003, 8.186196e-004
2.553290e+003, 3.634200e-004
2.555218e+003, 1.075247e-005
2.557147e+003, -1.003141e-004
2.559075e+003, 4.762967e-004
2.561004e+003, 1.232543e-003
2.562932e+003, 1.232961e-003
2.564861e+003, 1.149409e-003
2.566789e+003, 1.154786e-003
2.568718e+003, 6.852769e-004
2.570646e+003, 1.077398e-003
2.572574e+003, 1.598366e-003
2.574503e+003, 2.026689e-003
2.576431e+003, 9.613957e-004
2.578360e+003, -2.460156e-004
2.580288e+003, 8.045404e-005
2.582217e+003, 1.489292e-003
2.584145e+003, 3.054135e-003
2.586074e+003, 3.193122e-003
2.588002e+003, 2.508698e-003
2.589931e+003, 1.822811e-003
2.591859e+003, 9.731693e-004
2.593788e+003, 6.943729e-004
2.595716e+003, 6.273343e-004
2.597645e+003, 1.830482e-003
2.599573e+003, 2.439461e-003
2.601501e+003, 2.105370e-003
2.603430e+003, 2.093363e-003
2.605358e+003, 2.228023e-003
2.607287e+003, 7.884099e-004
2.609215e+003, -7.531085e-004
2.611144e+003, 7.101003e-004
2.613072e+003, 1.905703e-003
2.615001e+003, 1.726511e-003
2.616929e+003, 1.899309e-003
2.618858e+003, 2.836162e-003
2.620786e+003, 3.495176e-003
2.622715e+003, 3.169954e-003
2.624643e+003, 1.793760e-003
2.626572e+003, 2.041610e-003
2.628500e+003, 2.791076e-003
2.630428e+003, 2.630627e-003
2.632357e+003, 1.855728e-003
2.634285e+003, 1.705676e-003
2.636214e+003, 3.348940e-003
2.638142e+003, 3.403904e-003
2.640071e+003, 3.684112e-003
2.641999e+003, 3.568865e-003
2.643928e+003, 2.982670e-003
2.645856e+003, 2.669078e-003
2.647785e+003, 2.429138e-003
2.649713e+003, 2.850479e-003
2.651642e+003, 2.529706e-003
2.653570e+003, 1.388005e-003
2.655499e+003, 1.473234e-003
2.657427e+003, 2.156276e-003
2.659355e+003, 2.565855e-003
2.661284e+003, 2.763748e-003
2.663212e+003, 2.362028e-003
2.665141e+003, 1.719198e-003
2.667069e+003, 2.365803e-003
2.668998e+003, 1.999729e-003
2.670926e+003, 1.093827e-003
2.672855e+003, 8.985482e-004
2.674783e+003, 1.315073e-003
2.676712e+003, 2.615312e-003
2.678640e+003, 3.235769e-003
2.680569e+003, 2.278369e-003
2.682497e+003, 1.637823e-003
2.684426e+003, 9.493498e-004
2.686354e+003, 1.367011e-003
2.688282e+003, 1.986874e-003
2.690211e+003, 1.739298e-003
2.692139e+003, 1.023231e-003
2.694068e+003, 1.580528e-003
2.695996e+003, 2.217554e-003
2.697925e+003, 1.915383e-003
2.699853e+003, 2.209343e-003
2.701782e+003, 3.422718e-003
2.703710e+003, 3.839516e-003
2.705639e+003, 4.014597e-003
2.707567e+003, 2.819637e-003
2.709496e+003, 2.022337e-003
2.711424e+003, 3.325733e-003
2.713353e+003, 2.747350e-003
2.715281e+003, 3.066231e-003
2.717209e+003, 3.002878e-003
2.719138e+003, 2.412712e-003
2.721066e+003, 2.816433e-003
2.722995e+003, 3.825174e-003
2.724923e+003, 4.206387e-003
2.726852e+003, 3.280146e-003
2.728780e+003, 1.664633e-003
2.730709e+003, 1.040517e-003
2.732637e+003, 3.189505e-003
2.734566e+003, 3.890334e-003
2.736494e+003, 2.798410e-003
2.738423e+003, 2.203816e-003
2.740351e+003, 1.852831e-003
2.742280e+003, 1.488536e-003
2.744208e+003, 1.697355e-003
2.746136e+003, 1.693081e-003
2.748065e+003, 2.024948e-003
2.749993e+003, 2.852950e-003
2.751922e+003, 4.487928e-003
2.753850e+003, 4.540441e-003
2.755779e+003, 3.377207e-003
2.757707e+003, 3.099484e-003
2.759636e+003, 3.120078e-003
2.761564e+003, 3.195286e-003
2.763493e+003, 3.206423e-003
2.765421e+003, 2.570301e-003
2.767350e+003, 2.922612e-003
2.769278e+003, 3.625747e-003
2.771207e+003, 3.989721e-003
2.773135e+003, 3.792921e-003
2.775063e+003, 3.398996e-003
2.776992e+003, 3.350609e-003
2.778920e+003, 3.922396e-003
2.780849e+003, 3.789330e-003
2.782777e+003, 2.839826e-003
2.784706e+003, 3.225022e-003
2.786634e+003, 3.259659e-003
2.788563e+003, 3.237086e-003
2.790491e+003, 3.251840e-003
2.792420e+003, 3.069484e-003
2.794348e+003, 2.628178e-003
2.796277e+003, 2.589601e-003
2.798205e+003, 4.002823e-003
2.800134e+003, 5.570430e-003
2.802062e+003, 4.664666e-003
2.803990e+003, 3.075962e-003
2.805919e+003, 2.408666e-003
2.807847e+003, 2.843402e-003
2.809776e+003, 2.485019e-003
2.811704e+003, 2.728066e-003
2.813633e+003, 3.823436e-003
2.815561e+003, 4.363997e-003
2.817490e+003, 4.584832e-003
2.819418e+003, 3.290139e-003
2.821347e+003, 2.418069e-003
2.823275e+003, 2.656135e-003
2.825204e+003, 3.179381e-003
2.827132e+003, 3.695199e-003
2.829061e+003, 3.613103e-003
2.830989e+003, 4.842867e-003
2.832917e+003, 5.848401e-003
2.834846e+003, 5.022518e-003
2.836774e+003, 6.081061e-003
2.838703e+003, 7.177799e-003
2.840631e+003, 6.556868e-003
2.842560e+003, 5.583491e-003
2.844488e+003, 5.086920e-003
2.846417e+003, 4.959023e-003
2.848345e+003, 5.941795e-003
2.850274e+003, 5.982163e-003
2.852202e+003, 4.572168e-003
2.854131e+003, 3.927514e-003
2.856059e+003, 5.330557e-003
2.857988e+003, 6.311454e-003
2.859916e+003, 5.960886e-003
2.861844e+003, 6.013118e-003
2.863773e+003, 5.765285e-003
2.865701e+003, 4.893001e-003
2.867630e+003, 4.824753e-003
2.869558e+003, 5.227898e-003
2.871487e+003, 6.043321e-003
2.873415e+003, 6.436628e-003
2.875344e+003, 6.655382e-003
2.877272e+003, 7.541933e-003
2.879201e+003, 7.092810e-003
2.881129e+003, 6.207897e-003
2.883058e+003, 6.185172e-003
2.884986e+003, 6.425651e-003
2.886915e+003, 6.729960e-003
2.888843e+003, 6.057150e-003
2.890771e+003, 6.135690e-003
2.892700e+003, 6.652484e-003
2.894628e+003, 6.279974e-003
2.896557e+003, 5.599993e-003
2.898485e+003, 5.882542e-003
2.900414e+003, 6.615928e-003
2.902342e+003, 7.389594e-003
2.904271e+003, 7.002735e-003
2.906199e+003, 6.428182e-003
2.908128e+003, 7.518119e-003
2.910056e+003, 8.925886e-003
2.911985e+003, 8.619439e-003
2.913913e+003, 8.152989e-003
2.915842e+003, 9.247141e-003
2.917770e+003, 1.050490e-002
2.919698e+003, 1.027629e-002
2.921627e+003, 9.596204e-003
2.923555e+003, 1.059635e-002
2.925484e+003, 1.074156e-002
2.927412e+003, 1.054558e-002
2.929341e+003, 1.091518e-002
2.931269e+003, 1.030516e-002
2.933198e+003, 9.786004e-003
2.935126e+003, 1.117365e-002
2.937055e+003, 1.225585e-002
2.938983e+003, 1.166203e-002
2.940912e+003, 1.145935e-002
2.942840e+003, 1.078021e-002
2.944769e+003, 9.294847e-003
2.946697e+003, 8.823641e-003
2.948625e+003, 7.735156e-003
2.950554e+003, 8.949385e-003
2.952482e+003, 1.080783e-002
2.954411e+003, 9.623796e-003
2.956339e+003, 9.723741e-003
2.958268e+003, 9.106833e-003
2.960196e+003, 8.998583e-003
2.962125e+003, 1.052654e-002
2.964053e+003, 1.150532e-002
2.965982e+003, 1.139135e-002
2.967910e+003, 1.058537e-002
2.969839e+003, 9.585517e-003
2.971767e+003, 8.213087e-003
2.973696e+003, 6.954058e-003
2.975624e+003, 8.470044e-003
2.977552e+003, 9.241119e-003
2.979481e+003, 8.578509e-003
2.981409e+003, 9.357165e-003
2.983338e+003, 8.673204e-003
2.985266e+003, 7.925320e-003
2.987195e+003, 6.875868e-003
2.989123e+003, 7.388203e-003
2.991052e+003, 9.307571e-003
2.992980e+003, 8.460354e-003
2.994909e+003, 7.720704e-003
2.996837e+003, 7.825268e-003
2.998766e+003, 8.494411e-003
3.000694e+003, 8.780616e-003
3.002623e+003, 7.906435e-003
3.004551e+003, 8.645880e-003
3.006479e+003, 9.666548e-003
3.008408e+003, 8.736755e-003
3.010336e+003, 7.311839e-003
3.012265e+003, 8.276798e-003
3.014193e+003, 8.419999e-003
3.016122e+003, 8.504847e-003
3.018050e+003, 9.089260e-003
3.019979e+003, 1.026512e-002
3.021907e+003, 9.222880e-003
3.023836e+003, 8.636725e-003
3.025764e+003, 9.542624e-003
3.027693e+003, 9.092439e-003
3.029621e+003, 9.214983e-003
3.031550e+003, 9.944700e-003
3.033478e+003, 1.002091e-002
3.035406e+003, 9.685187e-003
3.037335e+003, 8.443420e-003
3.039263e+003, 8.212150e-003
3.041192e+003, 8.876396e-003
3.043120e+003, 8.700739e-003
3.045049e+003, 9.138263e-003
3.046977e+003, 1.059725e-002
3.048906e+003, 1.154392e-002
3.050834e+003, 1.178730e-002
3.052763e+003, 1.144996e-002
3.054691e+003, 9.874788e-003
3.056620e+003, 9.553224e-003
3.058548e+003, 9.127958e-003
3.060477e+003, 9.778867e-003
3.062405e+003, 1.053962e-002
3.064333e+003, 1.005726e-002
3.066262e+003, 1.047640e-002
3.068190e+003, 9.450854e-003
3.070119e+003, 9.451774e-003
3.072047e+003, 1.174326e-002
3.073976e+003, 1.210929e-002
3.075904e+003, 1.159813e-002
3.077833e+003, 1.147260e-002
3.079761e+003, 9.748690e-003
3.081690e+003, 9.023690e-003
3.083618e+003, 9.566188e-003
3.085547e+003, 1.014604e-002
3.087475e+003, 9.790729e-003
3.089404e+003, 9.801485e-003
3.091332e+003, 9.872710e-003
3.093260e+003, 1.048869e-002
3.095189e+003, 1.186141e-002
3.097117e+003, 1.131121e-002
3.099046e+003, 9.544449e-003
3.100974e+003, 9.369312e-003
3.102903e+003, 9.374725e-003
3.104831e+003, 1.007263e-002
3.106760e+003, 1.116425e-002
3.108688e+003, 1.127483e-002
3.110617e+003, 1.035933e-002
3.112545e+003, 1.088642e-002
3.114474e+003, 1.198060e-002
3.116402e+003, 1.306628e-002
3.118331e+003, 1.404723e-002
3.120259e+003, 1.502841e-002
3.122188e+003, 1.377812e-002
3.124116e+003, 1.286838e-002
3.126044e+003, 1.266449e-002
3.127973e+003, 1.283562e-002
3.129901e+003, 1.459750e-002
3.131830e+003, 1.569874e-002
3.133758e+003, 1.533063e-002
3.135687e+003, 1.394433e-002
3.137615e+003, 1.414313e-002
3.139544e+003, 1.445931e-002
3.141472e+003, 1.411940e-002
3.143401e+003, 1.427372e-002
3.145329e+003, 1.448585e-002
3.147258e+003, 1.558525e-002
3.149186e+003, 1.639874e-002
3.151115e+003, 1.709527e-002
3.153043e+003, 1.652720e-002
3.154971e+003, 1.630667e-002
3.156900e+003, 1.461177e-002
3.158828e+003, 1.384053e-002
3.160757e+003, 1.423189e-002
3.162685e+003, 1.475601e-002
3.164614e+003, 1.566335e-002
3.166542e+003, 1.531998e-002
3.168471e+003, 1.728840e-002
3.170399e+003, 1.756021e-002
3.172328e+003, 1.525295e-002
3.174256e+003, 1.592524e-002
3.176185e+003, 1.675044e-002
3.178113e+003, 1.665893e-002
3.180042e+003, 1.498089e-002
3.181970e+003, 1.544344e-002
3.183898e+003, 1.669897e-002
3.185827e+003, 1.684906e-002
3.187755e+003, 1.723138e-002
3.189684e+003, 1.874441e-002
3.191612e+003, 1.856656e-002
3.193541e+003, 1.816153e-002
3.195469e+003, 1.797909e-002
3.197398e+003, 1.838356e-002
3.199326e+003, 1.897988e-002
3.201255e+003, 1.807193e-002
3.203183e+003, 1.728941e-002
3.205112e+003, 1.782702e-002
3.207040e+003, 1.842080e-002
3.208969e+003, 1.886453e-002
3.210897e+003, 2.069695e-002
3.212825e+003, 1.847722e-002
3.214754e+003, 1.671354e-002
3.216682e+003, 1.710104e-002
3.218611e+003, 1.783027e-002
3.220539e+003, 1.931777e-002
3.222468e+003, 2.019654e-002
3.224396e+003, 1.915915e-002
3.226325e+003, 1.956081e-002
3.228253e+003, 1.929311e-002
3.230182e+003, 1.786662e-002
3.232110e+003, 1.673246e-002
3.234039e+003, 1.586456e-002
3.235967e+003, 1.777917e-002
3.237896e+003, 2.004705e-002
3.239824e+003, 1.987868e-002
3.241752e+003, 1.938163e-002
3.243681e+003, 2.015438e-002
3.245609e+003, 2.054572e-002
3.247538e+003, 2.215510e-002
3.249466e+003, 2.360790e-002
3.251395e+003, 2.138297e-002
3.253323e+003, 1.967640e-002
3.255252e+003, 2.126664e-002
3.257180e+003, 2.199199e-002
3.259109e+003, 2.156209e-002
3.261037e+003, 2.334371e-002
3.262966e+003, 2.203841e-002
3.264894e+003, 2.083696e-002
3.266823e+003, 2.092858e-002
3.268751e+003, 2.282505e-002
3.270679e+003, 2.654837e-002
3.272608e+003, 2.844643e-002
3.274536e+003, 2.793661e-002
3.276465e+003, 2.572808e-002
3.278393e+003, 2.479894e-002
3.280322e+003, 2.550307e-002
3.282250e+003, 2.773427e-002
3.284179e+003, 2.997285e-002
3.286107e+003, 2.815382e-002
3.288036e+003, 2.716808e-002
3.289964e+003, 3.002209e-002
3.291893e+003, 3.133998e-002
3.293821e+003, 3.331615e-002
3.295750e+003, 3.372424e-002
3.297678e+003, 3.493992e-002
3.299606e+003, 3.544900e-002
3.301535e+003, 3.429560e-002
3.303463e+003, 3.481673e-002
3.305392e+003, 3.557234e-002
3.307320e+003, 3.484996e-002
3.309249e+003, 3.346973e-002
3.311177e+003, 3.528824e-002
3.313106e+003, 3.594875e-002
3.315034e+003, 3.395227e-002
3.316963e+003, 3.452441e-002
3.318891e+003, 3.766968e-002
3.320820e+003, 3.667654e-002
3.322748e+003, 3.364199e-002
3.324677e+003, 3.508770e-002
3.326605e+003, 3.772442e-002
3.328533e+003, 3.924942e-002
3.330462e+003, 3.980156e-002
3.332390e+003, 3.949619e-002
3.334319e+003, 3.864122e-002
3.336247e+003, 4.056661e-002
3.338176e+003, 4.287204e-002
3.340104e+003, 4.358651e-002
3.342033e+003, 4.447041e-002
3.343961e+003, 4.824395e-002
3.345890e+003, 4.908365e-002
3.347818e+003, 4.836301e-002
3.349747e+003, 5.235783e-002
3.351675e+003, 5.535245e-002
3.353604e+003, 5.524395e-002
3.355532e+003, 5.706109e-002
3.357460e+003, 5.998677e-002
3.359389e+003, 6.365387e-002
3.361317e+003, 6.757297e-002
3.363246e+003, 7.079237e-002
3.365174e+003, 7.270163e-002
3.367103e+003, 7.585423e-002
3.369031e+003, 7.952353e-002
3.370960e+003, 8.176577e-002
3.372888e+003, 8.303796e-002
3.374817e+003, 8.714764e-002
3.376745e+003, 9.199249e-002
3.378674e+003, 9.550568e-002
3.380602e+003, 1.017334e-001
3.382531e+003, 1.085586e-001
3.384459e+003, 1.081809e-001
3.386387e+003, 1.064598e-001
3.388316e+003, 1.105131e-001
3.390244e+003, 1.145656e-001
3.392173e+003, 1.173853e-001
3.394101e+003, 1.162127e-001
3.396030e+003, 1.145481e-001
3.397958e+003, 1.124298e-001
3.399887e+003, 1.094829e-001
3.401815e+003, 1.055361e-001
3.403744e+003, 1.008851e-001
3.405672e+003, 9.387480e-002
3.407601e+003, 8.489186e-002
3.409529e+003, 7.492030e-002
3.411458e+003, 6.771423e-002
3.413386e+003, 6.509576e-002
3.415314e+003, 6.107173e-002
3.417243e+003, 5.737604e-002
3.419171e+003, 5.399764e-002
3.421100e+003, 4.957552e-002
3.423028e+003, 4.331474e-002
3.424957e+003, 4.015487e-002
3.426885e+003, 3.843301e-002
3.428814e+003, 3.682058e-002
3.430742e+003, 3.379915e-002
3.432671e+003, 3.159419e-002
3.434599e+003, 3.093360e-002
3.436528e+003, 2.966868e-002
3.438456e+003, 3.119261e-002
3.440385e+003, 3.086374e-002
3.442313e+003, 2.807972e-002
3.444241e+003, 2.708643e-002
3.446170e+003, 2.538885e-002
3.448098e+003, 2.428338e-002
3.450027e+003, 2.373242e-002
3.451955e+003, 2.313156e-002
3.453884e+003, 2.421421e-002
3.455812e+003, 2.490329e-002
3.457741e+003, 2.276816e-002
3.459669e+003, 2.173993e-002
3.461598e+003, 2.370668e-002
3.463526e+003, 2.343685e-002
3.465455e+003, 2.126751e-002
3.467383e+003, 2.089778e-002
3.469312e+003, 2.127439e-002
3.471240e+003, 2.033627e-002
3.473168e+003, 2.001308e-002
3.475097e+003, 2.186842e-002
3.477025e+003, 2.163838e-002
3.478954e+003, 1.889672e-002
3.480882e+003, 1.591573e-002
3.482811e+003, 1.560400e-002
3.484739e+003, 1.636412e-002
3.486668e+003, 1.727992e-002
3.488596e+003, 1.865335e-002
3.490525e+003, 2.022419e-002
3.492453e+003, 1.995018e-002
3.494382e+003, 1.802251e-002
3.496310e+003, 1.543578e-002
3.498239e+003, 1.587433e-002
3.500167e+003, 1.614655e-002
3.502095e+003, 1.429890e-002
3.504024e+003, 1.145460e-002
3.505952e+003, 1.198652e-002
3.507881e+003, 1.428228e-002
3.509809e+003, 1.414317e-002
3.511738e+003, 1.211748e-002
3.513666e+003, 1.139697e-002
3.515595e+003, 1.483514e-002
3.517523e+003, 1.508032e-002
3.519452e+003, 1.141104e-002
3.521380e+003, 8.754473e-003
3.523309e+003, 9.638112e-003
3.525237e+003, 1.290610e-002
3.527166e+003, 1.433131e-002
3.529094e+003, 1.381210e-002
3.531022e+003, 1.177675e-002
3.532951e+003, 1.113122e-002
3.534879e+003, 1.178454e-002
3.536808e+003, 1.408638e-002
3.538736e+003, 1.471744e-002
3.540665e+003, 1.193080e-002
3.542593e+003, 9.676336e-003
3.544522e+003, 9.429890e-003
3.546450e+003, 9.291260e-003
3.548379e+003, 6.535801e-003
3.550307e+003, 7.852521e-003
3.552236e+003, 1.004714e-002
3.554164e+003, 1.090663e-002
3.556093e+003, 9.589900e-003
3.558021e+003, 7.861169e-003
3.559949e+003, 8.780844e-003
3.561878e+003, 7.313694e-003
3.563806e+003, 5.917352e-003
3.565735e+003, 4.272775e-003
3.567663e+003, 4.633823e-003
3.569592e+003, 7.527644e-003
3.571520e+003, 9.320390e-003
3.573449e+003, 9.348175e-003
3.575377e+003, 6.411248e-003
3.577306e+003, 7.127925e-003
3.579234e+003, 6.281460e-003
3.581163e+003, 4.903924e-003
3.583091e+003, 6.839402e-003
3.585020e+003, 7.747234e-003
3.586948e+003, 4.407724e-003
3.588876e+003, 3.635870e-003
3.590805e+003, 2.499467e-003
3.592733e+003, 5.630943e-003
3.594662e+003, 8.388240e-003
3.596590e+003, 7.357073e-003
3.598519e+003, 7.507774e-003
3.600447e+003, 6.889188e-003
3.602376e+003, 4.657719e-003
3.604304e+003, 1.833414e-003
3.606233e+003, 1.387045e-003
3.608161e+003, 2.410247e-003
3.610090e+003, 3.880384e-003
3.612018e+003, 3.438124e-003
3.613947e+003, 5.470478e-003
3.615875e+003, 6.162327e-003
3.617803e+003, 6.023494e-003
3.619732e+003, 9.536943e-003
3.621660e+003, 6.101592e-003
3.623589e+003, 2.946369e-003
3.625517e+003, 5.848832e-003
3.627446e+003, 5.646387e-003
3.629374e+003, 2.812285e-003
3.631303e+003, 4.032976e-003
3.633231e+003, 6.522847e-003
3.635160e+003, 4.443414e-003
3.637088e+003, 1.232228e-003
3.639017e+003, 2.430858e-003
3.640945e+003, 4.273745e-003
3.642874e+003, 3.301655e-003
3.644802e+003, 1.220580e-003
3.646730e+003, -2.404039e-003
3.648659e+003, -2.479184e-003
3.650587e+003, 2.133332e-003
3.652516e+003, 1.778577e-003
3.654444e+003, -1.561006e-003
3.656373e+003, -1.345290e-003
3.658301e+003, 1.170877e-003
3.660230e+003, 4.350497e-003
3.662158e+003, 6.311009e-003
3.664087e+003, 4.289465e-003
3.666015e+003, -4.265451e-004
3.667944e+003, -5.031920e-004
3.669872e+003, -4.319780e-004
3.671801e+003, 4.825828e-004
3.673729e+003, 3.669736e-003
3.675657e+003, 2.730660e-003
3.677586e+003, 1.777854e-003
3.679514e+003, 2.530199e-003
3.681443e+003, 4.427328e-003
3.683371e+003, 2.192453e-003
3.685300e+003, -1.506359e-003
3.687228e+003, -1.242382e-003
3.689157e+003, 3.073531e-003
3.691085e+003, 1.855517e-003
3.693014e+003, -1.125358e-003
3.694942e+003, 1.851224e-004
3.696871e+003, 2.313094e-003
3.698799e+003, 1.715108e-003
3.700728e+003, 2.437818e-003
3.702656e+003, 3.666046e-003
3.704584e+003, 3.748541e-003
3.706513e+003, 3.571395e-003
3.708441e+003, 4.064690e-003
3.710370e+003, 1.451340e-003
3.712298e+003, -8.679247e-004
3.714227e+003, 1.416512e-003
3.716155e+003, 3.173131e-003
3.718084e+003, 3.613658e-003
3.720012e+003, 3.068364e-003
3.721941e+003, 2.967529e-003
3.723869e+003, 3.215324e-003
3.725798e+003, 2.821703e-003
3.727726e+003, 3.026713e-003
3.729655e+003, -2.409763e-005
3.731583e+003, -7.389659e-004
3.733511e+003, 7.249573e-004
3.735440e+003, -8.884268e-004
3.737368e+003, -7.854136e-004
3.739297e+003, 2.122273e-003
3.741225e+003, 3.708086e-003
3.743154e+003, 4.180207e-004
3.745082e+003, -2.077795e-003
3.747011e+003, 2.518030e-004
3.748939e+003, 1.909348e-003
3.750868e+003, -2.304907e-003
3.752796e+003, -5.688929e-003
3.754725e+003, -3.176554e-003
3.756653e+003, -3.805943e-004
3.758582e+003, 1.102899e-003
3.760510e+003, 2.621837e-003
3.762438e+003, 2.019196e-003
3.764367e+003, 4.301211e-004
3.766295e+003, -1.567891e-003
3.768224e+003, -2.325547e-003
3.770152e+003, 5.411195e-004
3.772081e+003, 2.820823e-003
3.774009e+003, -1.451916e-003
3.775938e+003, -2.306904e-004
3.777866e+003, 4.956938e-003
3.779795e+003, 5.536160e-003
3.781723e+003, 1.977355e-003
3.783652e+003, 1.696473e-003
3.785580e+003, 1.521310e-003
3.787509e+003, 3.987805e-003
3.789437e+003, 6.255816e-003
3.791365e+003, 7.016920e-003
3.793294e+003, 7.499577e-003
3.795222e+003, 8.718831e-003
3.797151e+003, 6.635854e-003
3.799079e+003, 5.404765e-003
3.801008e+003, 4.062366e-003
3.802936e+003, 2.024529e-003
3.804865e+003, 1.954997e-003
3.806793e+003, 1.652051e-003
3.808722e+003, 1.909726e-003
3.810650e+003, 3.630438e-004
3.812579e+003, -1.063325e-003
3.814507e+003, 2.388470e-003
3.816436e+003, 4.588023e-003
3.818364e+003, 3.054801e-003
3.820292e+003, 3.266130e-004
3.822221e+003, 4.254572e-004
3.824149e+003, 2.743372e-003
3.826078e+003, 1.482008e-003
3.828006e+003, 2.100738e-003
3.829935e+003, 9.877115e-004
3.831863e+003, -2.175648e-003
3.833792e+003, -2.189175e-003
3.835720e+003, 5.420123e-004
3.837649e+003, 2.591817e-003
3.839577e+003, 1.947359e-003
3.841506e+003, 2.841629e-003
3.843434e+003, 2.354296e-003
3.845363e+003, -4.479219e-004
3.847291e+003, 2.390360e-003
3.849219e+003, 8.282153e-003
3.851148e+003, 2.144996e-003
3.853076e+003, -3.347120e-004
3.855005e+003, 3.096272e-003
3.856933e+003, 4.458589e-003
3.858862e+003, 2.134314e-003
3.860790e+003, -2.172653e-003
3.862719e+003, -8.966965e-004
3.864647e+003, 2.254962e-003
3.866576e+003, 1.505901e-003
3.868504e+003, -1.007058e-003
3.870433e+003, -5.619954e-004
3.872361e+003, 2.784284e-005
3.874290e+003, 6.361979e-004
3.876218e+003, -4.779663e-004
3.878146e+003, -2.438728e-004
3.880075e+003, 1.677805e-003
3.882003e+003, 3.621224e-004
3.883932e+003, -1.225588e-003
3.885860e+003, 6.532968e-004
3.887789e+003, 9.523635e-004
3.889717e+003, 3.633576e-004
3.891646e+003, -5.569547e-004
3.893574e+003, -5.102859e-004
3.895503e+003, -1.732186e-003
3.897431e+003, -4.680058e-003
3.899360e+003, -4.886452e-003
3.901288e+003, -8.181820e-004
3.903217e+003, 3.459336e-003
3.905145e+003, 4.853491e-003
3.907073e+003, 2.838520e-003
3.909002e+003, 2.958246e-003
3.910930e+003, 3.880314e-003
3.912859e+003, 2.466932e-003
3.914787e+003, 1.166128e-003
3.916716e+003, 3.355697e-003
3.918644e+003, 2.789311e-003
3.920573e+003, 1.103766e-003
3.922501e+003, -1.224122e-003
3.924430e+003, -1.718809e-003
3.926358e+003, 5.189023e-004
3.928287e+003, -1.248038e-003
3.930215e+003, -1.506416e-003
3.932144e+003, 4.055982e-003
3.934072e+003, 3.765967e-003
3.936000e+003, 1.279204e-003
3.937929e+003, 4.180711e-003
3.939857e+003, 6.711064e-003
3.941786e+003, 5.859395e-003
3.943714e+003, 2.943152e-003
3.945643e+003, 3.464712e-003
3.947571e+003, 8.504043e-004
3.949500e+003, -3.788612e-003
3.951428e+003, -3.464881e-003
3.953357e+003, -3.020380e-004
3.955285e+003, -3.067714e-004
3.957214e+003, -3.122763e-003
3.959142e+003, -3.343079e-003
3.961071e+003, -1.503556e-003
3.962999e+003, 3.297514e-004
3.964927e+003, 4.416544e-003
3.966856e+003, 2.936591e-003
3.968784e+003, -6.201827e-004
3.970713e+003, -2.104557e-003
3.972641e+003, -5.585210e-003
3.974570e+003, -7.486718e-003
3.976498e+003, -3.048547e-003
3.978427e+003, 1.421619e-003
3.980355e+003, 2.935619e-003
3.982284e+003, 4.002481e-004
3.984212e+003, -7.995503e-004
3.986141e+003, 1.158354e-004
3.988069e+003, 1.664850e-003
3.989998e+003, 9.057069e-004
3.991926e+003, 1.743388e-004
3.993854e+003, 4.402596e-003
3.995783e+003, 4.154140e-003
3.997711e+003, -1.726292e-003
3.999640e+003, -2.729312e-003
4.001568e+003, 0.000000e+000
##END=



