##NAMES=Vivianite
##RRUFFID=R050076
##IDEAL CHEMISTRY=Fe^2+^_3_(PO_4_)_2_&#183;8H_2_O
##LOCALITY=near Canutillos mine, Potosi, Saavedra, Bolivia
##OWNER=RRUFF
##SOURCE=Rock Currier
##DESCRIPTION=Green prismatic and elongated single crystal
##STATUS=The identification of this mineral has been confirmed by X-ray diffraction and chemical analysis
##URL=rruff.info/R050076
##MEASURED CHEMISTRY=(Fe^2+^_0.99_Mn_0.01_)_3_(P_1.00_O_4_)_2_Â·8H_2_O
3.991926e+002, 2.527083e-001
4.011211e+002, 2.454676e-001
4.030496e+002, 2.466477e-001
4.049780e+002, 2.540221e-001
4.069065e+002, 2.622884e-001
4.088350e+002, 2.591582e-001
4.107634e+002, 2.588592e-001
4.126919e+002, 2.639859e-001
4.146204e+002, 2.696671e-001
4.165488e+002, 2.728516e-001
4.184773e+002, 2.733793e-001
4.204058e+002, 2.764456e-001
4.223342e+002, 2.816180e-001
4.242627e+002, 2.861857e-001
4.261912e+002, 2.851049e-001
4.281196e+002, 2.845317e-001
4.300481e+002, 2.875661e-001
4.319766e+002, 2.915766e-001
4.339050e+002, 2.941199e-001
4.358335e+002, 2.924768e-001
4.377620e+002, 2.920422e-001
4.396904e+002, 2.906598e-001
4.416189e+002, 2.896009e-001
4.435474e+002, 2.891772e-001
4.454758e+002, 2.899792e-001
4.474043e+002, 2.881750e-001
4.493328e+002, 2.824890e-001
4.512612e+002, 2.781172e-001
4.531897e+002, 2.736079e-001
4.551182e+002, 2.690749e-001
4.570466e+002, 2.633187e-001
4.589751e+002, 2.544172e-001
4.609036e+002, 2.433395e-001
4.628320e+002, 2.320724e-001
4.647605e+002, 2.224707e-001
4.666890e+002, 2.137578e-001
4.686174e+002, 2.035228e-001
4.705459e+002, 1.916497e-001
4.724744e+002, 1.812567e-001
4.744028e+002, 1.729748e-001
4.763313e+002, 1.661003e-001
4.782598e+002, 1.622935e-001
4.801882e+002, 1.617594e-001
4.821167e+002, 1.632193e-001
4.840452e+002, 1.656046e-001
4.859736e+002, 1.672776e-001
4.879021e+002, 1.680309e-001
4.898306e+002, 1.668099e-001
4.917590e+002, 1.649140e-001
4.936875e+002, 1.622736e-001
4.956160e+002, 1.586535e-001
4.975444e+002, 1.539394e-001
4.994729e+002, 1.501565e-001
5.014014e+002, 1.478719e-001
5.033298e+002, 1.464012e-001
5.052583e+002, 1.469983e-001
5.071868e+002, 1.488235e-001
5.091152e+002, 1.522747e-001
5.110437e+002, 1.569238e-001
5.129722e+002, 1.616214e-001
5.149006e+002, 1.675506e-001
5.168291e+002, 1.750225e-001
5.187576e+002, 1.821588e-001
5.206860e+002, 1.896317e-001
5.226145e+002, 1.981279e-001
5.245430e+002, 2.070442e-001
5.264714e+002, 2.160919e-001
5.283999e+002, 2.247512e-001
5.303284e+002, 2.324837e-001
5.322568e+002, 2.390556e-001
5.341853e+002, 2.464135e-001
5.361138e+002, 2.524434e-001
5.380422e+002, 2.566368e-001
5.399707e+002, 2.611193e-001
5.418992e+002, 2.663245e-001
5.438276e+002, 2.709917e-001
5.457561e+002, 2.753615e-001
5.476846e+002, 2.791265e-001
5.496130e+002, 2.832961e-001
5.515415e+002, 2.871637e-001
5.534700e+002, 2.901642e-001
5.553984e+002, 2.938941e-001
5.573269e+002, 2.966977e-001
5.592554e+002, 2.983299e-001
5.611838e+002, 2.999439e-001
5.631123e+002, 3.014240e-001
5.650408e+002, 3.023038e-001
5.669692e+002, 3.032610e-001
5.688977e+002, 3.044407e-001
5.708262e+002, 3.050300e-001
5.727546e+002, 3.053829e-001
5.746831e+002, 3.051541e-001
5.766116e+002, 3.040409e-001
5.785400e+002, 3.038081e-001
5.804685e+002, 3.034968e-001
5.823970e+002, 3.030209e-001
5.843254e+002, 3.026115e-001
5.862539e+002, 3.012841e-001
5.881824e+002, 2.998402e-001
5.901108e+002, 2.982536e-001
5.920393e+002, 2.964982e-001
5.939678e+002, 2.947873e-001
5.958962e+002, 2.938161e-001
5.978247e+002, 2.925190e-001
5.997532e+002, 2.907118e-001
6.016816e+002, 2.895167e-001
6.036101e+002, 2.879908e-001
6.055386e+002, 2.863695e-001
6.074670e+002, 2.842916e-001
6.093955e+002, 2.824829e-001
6.113240e+002, 2.795230e-001
6.132524e+002, 2.747581e-001
6.151809e+002, 2.704169e-001
6.171094e+002, 2.664607e-001
6.190378e+002, 2.618600e-001
6.209663e+002, 2.569627e-001
6.228948e+002, 2.525305e-001
6.248232e+002, 2.488323e-001
6.267517e+002, 2.472336e-001
6.286802e+002, 2.483335e-001
6.306086e+002, 2.516535e-001
6.325371e+002, 2.563770e-001
6.344656e+002, 2.605971e-001
6.363940e+002, 2.633290e-001
6.383225e+002, 2.644841e-001
6.402510e+002, 2.642144e-001
6.421794e+002, 2.628379e-001
6.441079e+002, 2.605917e-001
6.460364e+002, 2.578322e-001
6.479648e+002, 2.549353e-001
6.498933e+002, 2.514409e-001
6.518218e+002, 2.485692e-001
6.537502e+002, 2.461969e-001
6.556787e+002, 2.430888e-001
6.576072e+002, 2.394488e-001
6.595356e+002, 2.362549e-001
6.614641e+002, 2.335231e-001
6.633926e+002, 2.307009e-001
6.653210e+002, 2.278232e-001
6.672495e+002, 2.248221e-001
6.691780e+002, 2.215465e-001
6.711064e+002, 2.185189e-001
6.730349e+002, 2.155969e-001
6.749634e+002, 2.127849e-001
6.768918e+002, 2.107871e-001
6.788203e+002, 2.087376e-001
6.807488e+002, 2.061970e-001
6.826772e+002, 2.033547e-001
6.846057e+002, 2.011193e-001
6.865342e+002, 1.990115e-001
6.884626e+002, 1.962933e-001
6.903911e+002, 1.939564e-001
6.923196e+002, 1.923164e-001
6.942480e+002, 1.905409e-001
6.961765e+002, 1.882495e-001
6.981050e+002, 1.863906e-001
7.000334e+002, 1.844573e-001
7.019619e+002, 1.823511e-001
7.038904e+002, 1.805620e-001
7.058188e+002, 1.787842e-001
7.077473e+002, 1.768607e-001
7.096758e+002, 1.748057e-001
7.116042e+002, 1.728885e-001
7.135327e+002, 1.715881e-001
7.154612e+002, 1.702640e-001
7.173896e+002, 1.682090e-001
7.193181e+002, 1.662538e-001
7.212466e+002, 1.644296e-001
7.231750e+002, 1.628089e-001
7.251035e+002, 1.612038e-001
7.270320e+002, 1.594466e-001
7.289604e+002, 1.576192e-001
7.308889e+002, 1.561314e-001
7.328174e+002, 1.549722e-001
7.347458e+002, 1.535152e-001
7.366743e+002, 1.519460e-001
7.386028e+002, 1.504257e-001
7.405313e+002, 1.489431e-001
7.424597e+002, 1.476833e-001
7.443882e+002, 1.464527e-001
7.463167e+002, 1.450156e-001
7.482451e+002, 1.436616e-001
7.501736e+002, 1.421333e-001
7.521021e+002, 1.410289e-001
7.540305e+002, 1.400581e-001
7.559590e+002, 1.389716e-001
7.578875e+002, 1.380560e-001
7.598159e+002, 1.371245e-001
7.617444e+002, 1.361940e-001
7.636729e+002, 1.352009e-001
7.656013e+002, 1.339765e-001
7.675298e+002, 1.329161e-001
7.694583e+002, 1.319947e-001
7.713867e+002, 1.307216e-001
7.733152e+002, 1.295239e-001
7.752437e+002, 1.286401e-001
7.771721e+002, 1.276356e-001
7.791006e+002, 1.267196e-001
7.810291e+002, 1.257641e-001
7.829575e+002, 1.247187e-001
7.848860e+002, 1.235562e-001
7.868145e+002, 1.226120e-001
7.887429e+002, 1.213895e-001
7.906714e+002, 1.200190e-001
7.925999e+002, 1.191468e-001
7.945283e+002, 1.184153e-001
7.964568e+002, 1.177354e-001
7.983853e+002, 1.166572e-001
8.003137e+002, 1.155067e-001
8.022422e+002, 1.144518e-001
8.041707e+002, 1.134275e-001
8.060991e+002, 1.123309e-001
8.080276e+002, 1.112818e-001
8.099561e+002, 1.104930e-001
8.118845e+002, 1.093915e-001
8.138130e+002, 1.081747e-001
8.157415e+002, 1.068983e-001
8.176699e+002, 1.057288e-001
8.195984e+002, 1.045736e-001
8.215269e+002, 1.034515e-001
8.234553e+002, 1.021080e-001
8.253838e+002, 1.008860e-001
8.273123e+002, 9.930480e-002
8.292407e+002, 9.773511e-002
8.311692e+002, 9.634198e-002
8.330977e+002, 9.483536e-002
8.350261e+002, 9.343729e-002
8.369546e+002, 9.196917e-002
8.388831e+002, 9.040707e-002
8.408115e+002, 8.860505e-002
8.427400e+002, 8.658257e-002
8.446685e+002, 8.452762e-002
8.465969e+002, 8.267690e-002
8.485254e+002, 8.102272e-002
8.504539e+002, 7.939467e-002
8.523823e+002, 7.797649e-002
8.543108e+002, 7.632653e-002
8.562393e+002, 7.449923e-002
8.581677e+002, 7.248444e-002
8.600962e+002, 7.070660e-002
8.620247e+002, 6.900580e-002
8.639531e+002, 6.726465e-002
8.658816e+002, 6.540433e-002
8.678101e+002, 6.367462e-002
8.697385e+002, 6.208025e-002
8.716670e+002, 6.029162e-002
8.735955e+002, 5.868900e-002
8.755239e+002, 5.751897e-002
8.774524e+002, 5.644915e-002
8.793809e+002, 5.520100e-002
8.813093e+002, 5.391555e-002
8.832378e+002, 5.276551e-002
8.851663e+002, 5.217023e-002
8.870947e+002, 5.135183e-002
8.890232e+002, 5.032716e-002
8.909517e+002, 5.005289e-002
8.928801e+002, 4.988739e-002
8.948085e+002, 4.944940e-002
8.967370e+002, 4.911401e-002
8.986655e+002, 4.900843e-002
9.005939e+002, 4.908115e-002
9.025224e+002, 4.890349e-002
9.044509e+002, 4.873492e-002
9.063793e+002, 4.905433e-002
9.083078e+002, 4.926389e-002
9.102363e+002, 4.941687e-002
9.121647e+002, 4.981471e-002
9.140932e+002, 5.037321e-002
9.160217e+002, 5.090347e-002
9.179501e+002, 5.159644e-002
9.198786e+002, 5.252318e-002
9.218071e+002, 5.354991e-002
9.237355e+002, 5.463559e-002
9.256640e+002, 5.610288e-002
9.275925e+002, 5.761425e-002
9.295209e+002, 5.941930e-002
9.314494e+002, 6.147839e-002
9.333779e+002, 6.349193e-002
9.353063e+002, 6.580770e-002
9.372348e+002, 6.806543e-002
9.391633e+002, 7.012622e-002
9.410917e+002, 7.211971e-002
9.430202e+002, 7.355922e-002
9.449487e+002, 7.499579e-002
9.468771e+002, 7.638262e-002
9.488056e+002, 7.738597e-002
9.507341e+002, 7.847523e-002
9.526625e+002, 7.946268e-002
9.545910e+002, 8.076631e-002
9.565195e+002, 8.243965e-002
9.584479e+002, 8.428761e-002
9.603764e+002, 8.650668e-002
9.623049e+002, 8.944450e-002
9.642333e+002, 9.289385e-002
9.661618e+002, 9.614877e-002
9.680903e+002, 9.898913e-002
9.700187e+002, 1.008943e-001
9.719472e+002, 1.019853e-001
9.738757e+002, 1.024148e-001
9.758041e+002, 1.023565e-001
9.777326e+002, 1.022617e-001
9.796611e+002, 1.021166e-001
9.815895e+002, 1.020051e-001
9.835180e+002, 1.019426e-001
9.854465e+002, 1.016032e-001
9.873749e+002, 1.014962e-001
9.893034e+002, 1.014138e-001
9.912319e+002, 1.014546e-001
9.931603e+002, 1.017969e-001
9.950888e+002, 1.024354e-001
9.970173e+002, 1.032711e-001
9.989457e+002, 1.040669e-001
1.000874e+003, 1.049325e-001
1.002803e+003, 1.058150e-001
1.004731e+003, 1.063371e-001
1.006660e+003, 1.065279e-001
1.008588e+003, 1.068176e-001
1.010517e+003, 1.068274e-001
1.012445e+003, 1.065786e-001
1.014373e+003, 1.063757e-001
1.016302e+003, 1.065211e-001
1.018230e+003, 1.065379e-001
1.020159e+003, 1.064210e-001
1.022087e+003, 1.063151e-001
1.024016e+003, 1.061392e-001
1.025944e+003, 1.062154e-001
1.027873e+003, 1.066496e-001
1.029801e+003, 1.069503e-001
1.031730e+003, 1.072548e-001
1.033658e+003, 1.080278e-001
1.035587e+003, 1.087238e-001
1.037515e+003, 1.092166e-001
1.039444e+003, 1.094454e-001
1.041372e+003, 1.096690e-001
1.043301e+003, 1.096902e-001
1.045229e+003, 1.094025e-001
1.047157e+003, 1.090287e-001
1.049086e+003, 1.079321e-001
1.051014e+003, 1.060821e-001
1.052943e+003, 1.043994e-001
1.054871e+003, 1.025014e-001
1.056800e+003, 1.003006e-001
1.058728e+003, 9.766532e-002
1.060657e+003, 9.506281e-002
1.062585e+003, 9.277049e-002
1.064514e+003, 9.066018e-002
1.066442e+003, 8.835885e-002
1.068371e+003, 8.611354e-002
1.070299e+003, 8.399244e-002
1.072228e+003, 8.183607e-002
1.074156e+003, 7.958602e-002
1.076084e+003, 7.738422e-002
1.078013e+003, 7.504001e-002
1.079941e+003, 7.257224e-002
1.081870e+003, 7.024985e-002
1.083798e+003, 6.782686e-002
1.085727e+003, 6.539926e-002
1.087655e+003, 6.328361e-002
1.089584e+003, 6.161411e-002
1.091512e+003, 5.997577e-002
1.093441e+003, 5.837547e-002
1.095369e+003, 5.698665e-002
1.097298e+003, 5.561548e-002
1.099226e+003, 5.431607e-002
1.101155e+003, 5.308205e-002
1.103083e+003, 5.223619e-002
1.105011e+003, 5.138562e-002
1.106940e+003, 5.041787e-002
1.108868e+003, 4.937987e-002
1.110797e+003, 4.836193e-002
1.112725e+003, 4.731765e-002
1.114654e+003, 4.640152e-002
1.116582e+003, 4.531912e-002
1.118511e+003, 4.441756e-002
1.120439e+003, 4.368741e-002
1.122368e+003, 4.266446e-002
1.124296e+003, 4.163406e-002
1.126225e+003, 4.078464e-002
1.128153e+003, 3.991799e-002
1.130082e+003, 3.904420e-002
1.132010e+003, 3.810917e-002
1.133938e+003, 3.713625e-002
1.135867e+003, 3.617419e-002
1.137795e+003, 3.529992e-002
1.139724e+003, 3.442788e-002
1.141652e+003, 3.369097e-002
1.143581e+003, 3.293801e-002
1.145509e+003, 3.180426e-002
1.147438e+003, 3.069182e-002
1.149366e+003, 3.000980e-002
1.151295e+003, 2.924136e-002
1.153223e+003, 2.835027e-002
1.155152e+003, 2.763775e-002
1.157080e+003, 2.687417e-002
1.159009e+003, 2.624274e-002
1.160937e+003, 2.569859e-002
1.162865e+003, 2.516885e-002
1.164794e+003, 2.470427e-002
1.166722e+003, 2.392654e-002
1.168651e+003, 2.298842e-002
1.170579e+003, 2.214798e-002
1.172508e+003, 2.156578e-002
1.174436e+003, 2.104877e-002
1.176365e+003, 2.043206e-002
1.178293e+003, 1.997131e-002
1.180222e+003, 1.959216e-002
1.182150e+003, 1.911161e-002
1.184079e+003, 1.841086e-002
1.186007e+003, 1.777963e-002
1.187936e+003, 1.761259e-002
1.189864e+003, 1.733853e-002
1.191792e+003, 1.681135e-002
1.193721e+003, 1.638955e-002
1.195649e+003, 1.617414e-002
1.197578e+003, 1.589606e-002
1.199506e+003, 1.546171e-002
1.201435e+003, 1.511664e-002
1.203363e+003, 1.467731e-002
1.205292e+003, 1.434048e-002
1.207220e+003, 1.425646e-002
1.209149e+003, 1.395770e-002
1.211077e+003, 1.355290e-002
1.213006e+003, 1.331525e-002
1.214934e+003, 1.317364e-002
1.216863e+003, 1.297750e-002
1.218791e+003, 1.257121e-002
1.220719e+003, 1.197132e-002
1.222648e+003, 1.168069e-002
1.224576e+003, 1.158484e-002
1.226505e+003, 1.130873e-002
1.228433e+003, 1.097374e-002
1.230362e+003, 1.067558e-002
1.232290e+003, 1.039673e-002
1.234219e+003, 1.027839e-002
1.236147e+003, 1.014418e-002
1.238076e+003, 9.957005e-003
1.240004e+003, 9.612588e-003
1.241933e+003, 9.495444e-003
1.243861e+003, 9.182069e-003
1.245790e+003, 8.821373e-003
1.247718e+003, 8.689572e-003
1.249646e+003, 8.667110e-003
1.251575e+003, 8.527339e-003
1.253503e+003, 8.243619e-003
1.255432e+003, 8.141885e-003
1.257360e+003, 8.116418e-003
1.259289e+003, 8.007269e-003
1.261217e+003, 7.802642e-003
1.263146e+003, 7.733157e-003
1.265074e+003, 7.797514e-003
1.267003e+003, 7.829355e-003
1.268931e+003, 7.753808e-003
1.270860e+003, 7.525450e-003
1.272788e+003, 7.406468e-003
1.274717e+003, 7.451435e-003
1.276645e+003, 7.586811e-003
1.278573e+003, 7.605338e-003
1.280502e+003, 7.580465e-003
1.282430e+003, 7.528624e-003
1.284359e+003, 7.288160e-003
1.286287e+003, 7.183679e-003
1.288216e+003, 7.250090e-003
1.290144e+003, 7.294050e-003
1.292073e+003, 7.350333e-003
1.294001e+003, 7.196319e-003
1.295930e+003, 6.974834e-003
1.297858e+003, 6.922071e-003
1.299787e+003, 7.090348e-003
1.301715e+003, 7.205912e-003
1.303644e+003, 7.010420e-003
1.305572e+003, 6.992165e-003
1.307500e+003, 7.009537e-003
1.309429e+003, 7.025890e-003
1.311357e+003, 7.308303e-003
1.313286e+003, 7.396213e-003
1.315214e+003, 7.468875e-003
1.317143e+003, 7.448018e-003
1.319071e+003, 7.212179e-003
1.321000e+003, 7.066027e-003
1.322928e+003, 7.213288e-003
1.324857e+003, 7.154623e-003
1.326785e+003, 7.078662e-003
1.328714e+003, 6.994656e-003
1.330642e+003, 7.057086e-003
1.332571e+003, 7.158012e-003
1.334499e+003, 7.174084e-003
1.336427e+003, 7.076358e-003
1.338356e+003, 6.897176e-003
1.340284e+003, 6.650371e-003
1.342213e+003, 6.730124e-003
1.344141e+003, 6.976405e-003
1.346070e+003, 7.069280e-003
1.347998e+003, 7.056284e-003
1.349927e+003, 7.113587e-003
1.351855e+003, 7.143059e-003
1.353784e+003, 7.197101e-003
1.355712e+003, 7.160603e-003
1.357641e+003, 7.312026e-003
1.359569e+003, 7.454904e-003
1.361498e+003, 7.535331e-003
1.363426e+003, 7.725175e-003
1.365354e+003, 7.793537e-003
1.367283e+003, 7.552154e-003
1.369211e+003, 7.595505e-003
1.371140e+003, 7.953022e-003
1.373068e+003, 8.435656e-003
1.374997e+003, 8.728181e-003
1.376925e+003, 8.897327e-003
1.378854e+003, 8.657765e-003
1.380782e+003, 8.014837e-003
1.382711e+003, 7.626032e-003
1.384639e+003, 7.738270e-003
1.386568e+003, 7.780572e-003
1.388496e+003, 7.784233e-003
1.390424e+003, 7.821701e-003
1.392353e+003, 8.029681e-003
1.394281e+003, 8.057021e-003
1.396210e+003, 7.906490e-003
1.398138e+003, 7.888678e-003
1.400067e+003, 8.095879e-003
1.401995e+003, 8.297269e-003
1.403924e+003, 8.463446e-003
1.405852e+003, 8.475373e-003
1.407781e+003, 8.331054e-003
1.409709e+003, 8.086185e-003
1.411638e+003, 8.180007e-003
1.413566e+003, 8.426902e-003
1.415495e+003, 8.432496e-003
1.417423e+003, 8.426746e-003
1.419351e+003, 8.660541e-003
1.421280e+003, 8.679050e-003
1.423208e+003, 8.679728e-003
1.425137e+003, 8.875510e-003
1.427065e+003, 8.828145e-003
1.428994e+003, 8.859145e-003
1.430922e+003, 8.964920e-003
1.432851e+003, 8.895908e-003
1.434779e+003, 8.858551e-003
1.436708e+003, 8.965787e-003
1.438636e+003, 8.891822e-003
1.440565e+003, 8.975510e-003
1.442493e+003, 9.230090e-003
1.444422e+003, 9.339461e-003
1.446350e+003, 9.530772e-003
1.448278e+003, 9.724355e-003
1.450207e+003, 9.921337e-003
1.452135e+003, 9.952039e-003
1.454064e+003, 9.863988e-003
1.455992e+003, 9.795752e-003
1.457921e+003, 9.918336e-003
1.459849e+003, 9.908641e-003
1.461778e+003, 9.730850e-003
1.463706e+003, 9.633745e-003
1.465635e+003, 9.604370e-003
1.467563e+003, 9.560644e-003
1.469492e+003, 9.611122e-003
1.471420e+003, 9.406290e-003
1.473349e+003, 9.016093e-003
1.475277e+003, 8.778961e-003
1.477205e+003, 8.621898e-003
1.479134e+003, 8.508006e-003
1.481062e+003, 8.562073e-003
1.482991e+003, 8.539779e-003
1.484919e+003, 8.462097e-003
1.486848e+003, 8.465986e-003
1.488776e+003, 8.467968e-003
1.490705e+003, 8.588912e-003
1.492633e+003, 8.731106e-003
1.494562e+003, 8.608716e-003
1.496490e+003, 8.587991e-003
1.498419e+003, 8.606007e-003
1.500347e+003, 8.831993e-003
1.502276e+003, 8.972224e-003
1.504204e+003, 8.702450e-003
1.506132e+003, 8.624108e-003
1.508061e+003, 8.853547e-003
1.509989e+003, 9.098927e-003
1.511918e+003, 9.321141e-003
1.513846e+003, 9.499403e-003
1.515775e+003, 9.600508e-003
1.517703e+003, 9.529592e-003
1.519632e+003, 9.822777e-003
1.521560e+003, 9.991434e-003
1.523489e+003, 1.026617e-002
1.525417e+003, 1.035900e-002
1.527346e+003, 1.035471e-002
1.529274e+003, 1.041492e-002
1.531203e+003, 1.065487e-002
1.533131e+003, 1.092440e-002
1.535059e+003, 1.122019e-002
1.536988e+003, 1.151506e-002
1.538916e+003, 1.154812e-002
1.540845e+003, 1.140934e-002
1.542773e+003, 1.157138e-002
1.544702e+003, 1.197811e-002
1.546630e+003, 1.217283e-002
1.548559e+003, 1.262010e-002
1.550487e+003, 1.303245e-002
1.552416e+003, 1.315104e-002
1.554344e+003, 1.337073e-002
1.556273e+003, 1.358042e-002
1.558201e+003, 1.371734e-002
1.560130e+003, 1.410379e-002
1.562058e+003, 1.442606e-002
1.563986e+003, 1.467838e-002
1.565915e+003, 1.518979e-002
1.567843e+003, 1.542981e-002
1.569772e+003, 1.547850e-002
1.571700e+003, 1.568226e-002
1.573629e+003, 1.568879e-002
1.575557e+003, 1.583700e-002
1.577486e+003, 1.624150e-002
1.579414e+003, 1.665674e-002
1.581343e+003, 1.679314e-002
1.583271e+003, 1.701209e-002
1.585200e+003, 1.729456e-002
1.587128e+003, 1.746288e-002
1.589057e+003, 1.795093e-002
1.590985e+003, 1.831869e-002
1.592913e+003, 1.840864e-002
1.594842e+003, 1.823894e-002
1.596770e+003, 1.802104e-002
1.598699e+003, 1.818139e-002
1.600627e+003, 1.821237e-002
1.602556e+003, 1.836980e-002
1.604484e+003, 1.891628e-002
1.606413e+003, 1.901485e-002
1.608341e+003, 1.908160e-002
1.610270e+003, 1.949034e-002
1.612198e+003, 1.964304e-002
1.614127e+003, 1.954000e-002
1.616055e+003, 1.987751e-002
1.617984e+003, 2.000394e-002
1.619912e+003, 1.998171e-002
1.621840e+003, 1.997180e-002
1.623769e+003, 1.985192e-002
1.625697e+003, 1.984653e-002
1.627626e+003, 2.016578e-002
1.629554e+003, 2.024149e-002
1.631483e+003, 2.005717e-002
1.633411e+003, 1.969126e-002
1.635340e+003, 1.921275e-002
1.637268e+003, 1.904917e-002
1.639197e+003, 1.922910e-002
1.641125e+003, 1.922539e-002
1.643054e+003, 1.920014e-002
1.644982e+003, 1.893493e-002
1.646911e+003, 1.849757e-002
1.648839e+003, 1.831435e-002
1.650767e+003, 1.823170e-002
1.652696e+003, 1.801820e-002
1.654624e+003, 1.779358e-002
1.656553e+003, 1.775294e-002
1.658481e+003, 1.750753e-002
1.660410e+003, 1.731121e-002
1.662338e+003, 1.747034e-002
1.664267e+003, 1.741298e-002
1.666195e+003, 1.687322e-002
1.668124e+003, 1.630275e-002
1.670052e+003, 1.613112e-002
1.671981e+003, 1.594130e-002
1.673909e+003, 1.540182e-002
1.675838e+003, 1.469581e-002
1.677766e+003, 1.452161e-002
1.679694e+003, 1.436170e-002
1.681623e+003, 1.380755e-002
1.683551e+003, 1.340496e-002
1.685480e+003, 1.326277e-002
1.687408e+003, 1.287642e-002
1.689337e+003, 1.251725e-002
1.691265e+003, 1.233212e-002
1.693194e+003, 1.222889e-002
1.695122e+003, 1.176881e-002
1.697051e+003, 1.107221e-002
1.698979e+003, 1.102398e-002
1.700908e+003, 1.093553e-002
1.702836e+003, 1.059699e-002
1.704765e+003, 1.042162e-002
1.706693e+003, 1.042080e-002
1.708621e+003, 1.026001e-002
1.710550e+003, 1.024440e-002
1.712478e+003, 1.001267e-002
1.714407e+003, 9.718722e-003
1.716335e+003, 9.497378e-003
1.718264e+003, 9.348584e-003
1.720192e+003, 9.369591e-003
1.722121e+003, 9.227579e-003
1.724049e+003, 8.919581e-003
1.725978e+003, 8.878262e-003
1.727906e+003, 8.649461e-003
1.729835e+003, 8.047100e-003
1.731763e+003, 7.529810e-003
1.733692e+003, 7.234981e-003
1.735620e+003, 6.897460e-003
1.737548e+003, 6.679618e-003
1.739477e+003, 6.233296e-003
1.741405e+003, 5.915682e-003
1.743334e+003, 5.831315e-003
1.745262e+003, 5.512618e-003
1.747191e+003, 5.343202e-003
1.749119e+003, 5.367578e-003
1.751048e+003, 5.529947e-003
1.752976e+003, 5.515941e-003
1.754905e+003, 5.713896e-003
1.756833e+003, 6.024252e-003
1.758762e+003, 5.944675e-003
1.760690e+003, 5.990270e-003
1.762619e+003, 6.344143e-003
1.764547e+003, 6.707229e-003
1.766475e+003, 6.546770e-003
1.768404e+003, 6.336202e-003
1.770332e+003, 6.400102e-003
1.772261e+003, 6.107816e-003
1.774189e+003, 5.962003e-003
1.776118e+003, 5.886793e-003
1.778046e+003, 5.874824e-003
1.779975e+003, 6.075320e-003
1.781903e+003, 5.855909e-003
1.783832e+003, 6.066654e-003
1.785760e+003, 6.304442e-003
1.787689e+003, 5.947160e-003
1.789617e+003, 5.634361e-003
1.791546e+003, 5.804652e-003
1.793474e+003, 5.633550e-003
1.795402e+003, 5.479646e-003
1.797331e+003, 5.596350e-003
1.799259e+003, 5.865271e-003
1.801188e+003, 6.239006e-003
1.803116e+003, 6.266513e-003
1.805045e+003, 5.945107e-003
1.806973e+003, 5.755886e-003
1.808902e+003, 5.426631e-003
1.810830e+003, 5.285935e-003
1.812759e+003, 5.262822e-003
1.814687e+003, 5.112433e-003
1.816616e+003, 5.129707e-003
1.818544e+003, 5.772625e-003
1.820473e+003, 6.146565e-003
1.822401e+003, 5.899285e-003
1.824329e+003, 5.567057e-003
1.826258e+003, 5.749564e-003
1.828186e+003, 5.947137e-003
1.830115e+003, 5.925144e-003
1.832043e+003, 5.647382e-003
1.833972e+003, 5.436372e-003
1.835900e+003, 5.103084e-003
1.837829e+003, 4.926719e-003
1.839757e+003, 5.199022e-003
1.841686e+003, 5.236608e-003
1.843614e+003, 4.916342e-003
1.845543e+003, 5.177944e-003
1.847471e+003, 5.594839e-003
1.849400e+003, 5.390035e-003
1.851328e+003, 5.120056e-003
1.853256e+003, 5.263753e-003
1.855185e+003, 5.579643e-003
1.857113e+003, 5.174276e-003
1.859042e+003, 4.848104e-003
1.860970e+003, 4.802418e-003
1.862899e+003, 4.490493e-003
1.864827e+003, 4.783417e-003
1.866756e+003, 5.232322e-003
1.868684e+003, 5.111328e-003
1.870613e+003, 4.567987e-003
1.872541e+003, 4.730449e-003
1.874470e+003, 5.152374e-003
1.876398e+003, 5.249629e-003
1.878327e+003, 4.996065e-003
1.880255e+003, 4.941697e-003
1.882183e+003, 5.118919e-003
1.884112e+003, 4.730658e-003
1.886040e+003, 4.914380e-003
1.887969e+003, 4.577694e-003
1.889897e+003, 3.747811e-003
1.891826e+003, 3.598251e-003
1.893754e+003, 4.033045e-003
1.895683e+003, 4.605087e-003
1.897611e+003, 4.778931e-003
1.899540e+003, 3.914261e-003
1.901468e+003, 3.640226e-003
1.903397e+003, 3.960837e-003
1.905325e+003, 4.325885e-003
1.907254e+003, 5.149693e-003
1.909182e+003, 5.045391e-003
1.911110e+003, 4.708678e-003
1.913039e+003, 5.286617e-003
1.914967e+003, 5.165646e-003
1.916896e+003, 4.302357e-003
1.918824e+003, 3.690220e-003
1.920753e+003, 3.590815e-003
1.922681e+003, 3.205056e-003
1.924610e+003, 2.754577e-003
1.926538e+003, 2.969824e-003
1.928467e+003, 2.792298e-003
1.930395e+003, 2.659291e-003
1.932324e+003, 3.371717e-003
1.934252e+003, 3.125126e-003
1.936181e+003, 3.478858e-003
1.938109e+003, 3.108174e-003
1.940037e+003, 3.043919e-003
1.941966e+003, 3.053467e-003
1.943894e+003, 3.147033e-003
1.945823e+003, 3.105700e-003
1.947751e+003, 3.153516e-003
1.949680e+003, 2.099165e-003
1.951608e+003, 1.905195e-003
1.953537e+003, 2.784788e-003
1.955465e+003, 3.888432e-003
1.957394e+003, 2.795850e-003
1.959322e+003, 2.417826e-003
1.961251e+003, 2.315713e-003
1.963179e+003, 1.408652e-003
1.965108e+003, 2.393407e-003
1.967036e+003, 1.767889e-003
1.968964e+003, -8.341948e-004
1.970893e+003, -1.141686e-003
1.972821e+003, 8.892362e-004
1.974750e+003, 9.162326e-004
1.976678e+003, 9.574676e-004
1.978607e+003, 2.499181e-003
1.980535e+003, 2.347285e-003
1.982464e+003, 2.084128e-003
1.984392e+003, 3.330497e-003
1.986321e+003, 3.853513e-003
1.988249e+003, 2.494812e-003
1.990178e+003, 1.055830e-003
1.992106e+003, 1.038804e-003
1.994035e+003, 2.104801e-003
1.995963e+003, 2.576387e-003
1.997891e+003, 2.124873e-003
1.999820e+003, 8.380801e-004
2.001748e+003, 1.031827e-003
2.003677e+003, 1.812074e-003
2.005605e+003, 1.175244e-003
2.007534e+003, 9.711747e-004
2.009462e+003, 5.139734e-005
2.011391e+003, 1.801131e-003
2.013319e+003, 3.410420e-003
2.015248e+003, 1.163414e-003
2.017176e+003, -1.539774e-003
2.019105e+003, -4.895921e-004
2.021033e+003, 7.292274e-004
2.022962e+003, 6.840862e-004
2.024890e+003, 4.558021e-005
2.026818e+003, 1.080045e-003
2.028747e+003, 1.536612e-003
2.030675e+003, 1.531993e-003
2.032604e+003, 2.651726e-003
2.034532e+003, 2.793633e-003
2.036461e+003, 3.028801e-003
2.038389e+003, 2.927140e-003
2.040318e+003, 4.588263e-004
2.042246e+003, 9.978764e-004
2.044175e+003, 2.487076e-003
2.046103e+003, 3.156476e-003
2.048032e+003, 4.358234e-003
2.049960e+003, 4.900490e-003
2.051889e+003, 3.944863e-003
2.053817e+003, 3.032568e-003
2.055746e+003, 2.530100e-003
2.057674e+003, 2.412188e-003
2.059603e+003, 4.477373e-003
2.061531e+003, 4.820910e-003
2.063459e+003, 4.459953e-003
2.065388e+003, 3.261290e-003
2.067316e+003, 2.821828e-003
2.069245e+003, 3.850952e-003
2.071173e+003, 4.665205e-003
2.073102e+003, 4.173611e-003
2.075030e+003, 4.070279e-003
2.076959e+003, 3.873191e-003
2.078887e+003, 2.965461e-003
2.080816e+003, 3.559311e-003
2.082744e+003, 4.989663e-003
2.084673e+003, 4.957767e-003
2.086601e+003, 4.556552e-003
2.088530e+003, 4.266276e-003
2.090458e+003, 4.802077e-003
2.092386e+003, 3.728884e-003
2.094315e+003, 3.009305e-003
2.096243e+003, 3.728213e-003
2.098172e+003, 4.275637e-003
2.100100e+003, 5.001162e-003
2.102029e+003, 5.629210e-003
2.103957e+003, 5.336216e-003
2.105886e+003, 4.464553e-003
2.107814e+003, 4.091633e-003
2.109743e+003, 4.656602e-003
2.111671e+003, 4.087672e-003
2.113600e+003, 3.524195e-003
2.115528e+003, 3.574591e-003
2.117457e+003, 3.672888e-003
2.119385e+003, 3.421255e-003
2.121313e+003, 4.039535e-003
2.123242e+003, 4.385520e-003
2.125170e+003, 4.434426e-003
2.127099e+003, 4.658742e-003
2.129027e+003, 4.247240e-003
2.130956e+003, 3.313334e-003
2.132884e+003, 3.137568e-003
2.134813e+003, 2.519277e-003
2.136741e+003, 2.294564e-003
2.138670e+003, 3.665278e-003
2.140598e+003, 4.374862e-003
2.142527e+003, 4.648050e-003
2.144455e+003, 5.353057e-003
2.146384e+003, 3.638370e-003
2.148312e+003, 1.848570e-003
2.150240e+003, 1.114530e-003
2.152169e+003, -4.596309e-004
2.154097e+003, 8.166162e-004
2.156026e+003, -5.076872e-005
2.157954e+003, 6.363939e-004
2.159883e+003, 6.494547e-003
2.161811e+003, 7.686695e-003
2.163740e+003, 5.976038e-003
2.165668e+003, 5.003623e-003
2.167597e+003, 4.428341e-003
2.169525e+003, 3.087313e-003
2.171454e+003, 3.015132e-003
2.173382e+003, 4.541209e-003
2.175311e+003, 6.771910e-003
2.177239e+003, 7.146052e-003
2.179167e+003, 3.506493e-003
2.181096e+003, 2.905063e-003
2.183024e+003, 5.393536e-003
2.184953e+003, 6.145377e-003
2.186881e+003, 6.931199e-003
2.188810e+003, 6.731275e-003
2.190738e+003, 7.747279e-003
2.192667e+003, 9.614810e-003
2.194595e+003, 8.290773e-003
2.196524e+003, 6.868834e-003
2.198452e+003, 7.110040e-003
2.200381e+003, 6.917428e-003
2.202309e+003, 6.836376e-003
2.204238e+003, 6.226467e-003
2.206166e+003, 6.145872e-003
2.208094e+003, 5.595018e-003
2.210023e+003, 5.719702e-003
2.211951e+003, 6.680848e-003
2.213880e+003, 7.037384e-003
2.215808e+003, 6.085966e-003
2.217737e+003, 5.925742e-003
2.219665e+003, 7.484916e-003
2.221594e+003, 7.464160e-003
2.223522e+003, 7.520116e-003
2.225451e+003, 8.186503e-003
2.227379e+003, 7.608445e-003
2.229308e+003, 6.065973e-003
2.231236e+003, 7.128762e-003
2.233165e+003, 9.803358e-003
2.235093e+003, 1.033193e-002
2.237021e+003, 8.430016e-003
2.238950e+003, 7.996808e-003
2.240878e+003, 8.007675e-003
2.242807e+003, 7.713623e-003
2.244735e+003, 8.399755e-003
2.246664e+003, 9.564977e-003
2.248592e+003, 9.760845e-003
2.250521e+003, 9.370703e-003
2.252449e+003, 8.753192e-003
2.254378e+003, 7.764488e-003
2.256306e+003, 7.887375e-003
2.258235e+003, 8.337580e-003
2.260163e+003, 8.010386e-003
2.262092e+003, 7.642676e-003
2.264020e+003, 8.189604e-003
2.265948e+003, 9.633629e-003
2.267877e+003, 1.014164e-002
2.269805e+003, 9.999083e-003
2.271734e+003, 1.069245e-002
2.273662e+003, 1.126401e-002
2.275591e+003, 1.133893e-002
2.277519e+003, 1.036382e-002
2.279448e+003, 9.863653e-003
2.281376e+003, 1.119844e-002
2.283305e+003, 1.188699e-002
2.285233e+003, 1.136149e-002
2.287162e+003, 1.037397e-002
2.289090e+003, 9.678580e-003
2.291019e+003, 1.000198e-002
2.292947e+003, 1.031855e-002
2.294875e+003, 9.905493e-003
2.296804e+003, 1.045067e-002
2.298732e+003, 1.050144e-002
2.300661e+003, 1.035491e-002
2.302589e+003, 1.047584e-002
2.304518e+003, 1.025574e-002
2.306446e+003, 1.052746e-002
2.308375e+003, 1.082657e-002
2.310303e+003, 1.038887e-002
2.312232e+003, 1.068943e-002
2.314160e+003, 1.148184e-002
2.316089e+003, 1.194147e-002
2.318017e+003, 1.186425e-002
2.319946e+003, 1.178591e-002
2.321874e+003, 1.168495e-002
2.323802e+003, 1.151572e-002
2.325731e+003, 1.031514e-002
2.327659e+003, 9.973698e-003
2.329588e+003, 1.053055e-002
2.331516e+003, 1.054271e-002
2.333445e+003, 1.091057e-002
2.335373e+003, 1.147009e-002
2.337302e+003, 1.092059e-002
2.339230e+003, 1.038711e-002
2.341159e+003, 1.022790e-002
2.343087e+003, 1.055065e-002
2.345016e+003, 1.108442e-002
2.346944e+003, 1.083495e-002
2.348873e+003, 1.078001e-002
2.350801e+003, 1.048988e-002
2.352729e+003, 9.962772e-003
2.354658e+003, 9.756638e-003
2.356586e+003, 1.010202e-002
2.358515e+003, 1.058945e-002
2.360443e+003, 1.106787e-002
2.362372e+003, 1.096527e-002
2.364300e+003, 1.023330e-002
2.366229e+003, 9.825570e-003
2.368157e+003, 1.002808e-002
2.370086e+003, 9.637870e-003
2.372014e+003, 9.990366e-003
2.373942e+003, 1.018777e-002
2.375871e+003, 9.928716e-003
2.377799e+003, 1.031945e-002
2.379728e+003, 1.021742e-002
2.381656e+003, 1.043150e-002
2.383585e+003, 1.070675e-002
2.385513e+003, 1.015018e-002
2.387442e+003, 9.943091e-003
2.389370e+003, 1.034391e-002
2.391299e+003, 1.083928e-002
2.393227e+003, 1.063326e-002
2.395156e+003, 1.022517e-002
2.397084e+003, 1.039325e-002
2.399012e+003, 1.041311e-002
2.400941e+003, 1.064547e-002
2.402869e+003, 1.078922e-002
2.404798e+003, 1.101091e-002
2.406726e+003, 1.147483e-002
2.408655e+003, 1.107497e-002
2.410583e+003, 1.069525e-002
2.412512e+003, 1.060990e-002
2.414440e+003, 1.125778e-002
2.416369e+003, 1.207382e-002
2.418297e+003, 1.156702e-002
2.420226e+003, 1.075906e-002
2.422154e+003, 1.044974e-002
2.424083e+003, 1.026260e-002
2.426011e+003, 1.057632e-002
2.427939e+003, 1.126822e-002
2.429868e+003, 1.201424e-002
2.431796e+003, 1.215275e-002
2.433725e+003, 1.227152e-002
2.435653e+003, 1.241603e-002
2.437582e+003, 1.235936e-002
2.439510e+003, 1.228617e-002
2.441439e+003, 1.238133e-002
2.443367e+003, 1.155096e-002
2.445296e+003, 1.172002e-002
2.447224e+003, 1.177759e-002
2.449153e+003, 1.157519e-002
2.451081e+003, 1.185958e-002
2.453010e+003, 1.198255e-002
2.454938e+003, 1.240822e-002
2.456866e+003, 1.225928e-002
2.458795e+003, 1.161440e-002
2.460723e+003, 1.257106e-002
2.462652e+003, 1.292118e-002
2.464580e+003, 1.187794e-002
2.466509e+003, 1.133399e-002
2.468437e+003, 1.136189e-002
2.470366e+003, 1.152520e-002
2.472294e+003, 1.227614e-002
2.474223e+003, 1.264436e-002
2.476151e+003, 1.185313e-002
2.478080e+003, 1.109628e-002
2.480008e+003, 1.141050e-002
2.481937e+003, 1.162044e-002
2.483865e+003, 1.184902e-002
2.485793e+003, 1.210214e-002
2.487722e+003, 1.202250e-002
2.489650e+003, 1.163607e-002
2.491579e+003, 1.156930e-002
2.493507e+003, 1.128868e-002
2.495436e+003, 1.107088e-002
2.497364e+003, 1.157204e-002
2.499293e+003, 1.211101e-002
2.501221e+003, 1.183924e-002
2.503150e+003, 1.151851e-002
2.505078e+003, 1.159864e-002
2.507007e+003, 1.221268e-002
2.508935e+003, 1.279372e-002
2.510864e+003, 1.322134e-002
2.512792e+003, 1.246251e-002
2.514720e+003, 1.172802e-002
2.516649e+003, 1.197914e-002
2.518577e+003, 1.229872e-002
2.520506e+003, 1.180157e-002
2.522434e+003, 1.190625e-002
2.524363e+003, 1.275517e-002
2.526291e+003, 1.294042e-002
2.528220e+003, 1.235250e-002
2.530148e+003, 1.191278e-002
2.532077e+003, 1.249858e-002
2.534005e+003, 1.252884e-002
2.535934e+003, 1.172557e-002
2.537862e+003, 1.184498e-002
2.539791e+003, 1.279499e-002
2.541719e+003, 1.325590e-002
2.543647e+003, 1.302258e-002
2.545576e+003, 1.380431e-002
2.547504e+003, 1.381017e-002
2.549433e+003, 1.360684e-002
2.551361e+003, 1.367128e-002
2.553290e+003, 1.260911e-002
2.555218e+003, 1.269189e-002
2.557147e+003, 1.304332e-002
2.559075e+003, 1.299967e-002
2.561004e+003, 1.297740e-002
2.562932e+003, 1.262964e-002
2.564861e+003, 1.267031e-002
2.566789e+003, 1.345291e-002
2.568718e+003, 1.353232e-002
2.570646e+003, 1.306346e-002
2.572574e+003, 1.295090e-002
2.574503e+003, 1.274860e-002
2.576431e+003, 1.323848e-002
2.578360e+003, 1.310069e-002
2.580288e+003, 1.314590e-002
2.582217e+003, 1.287053e-002
2.584145e+003, 1.288439e-002
2.586074e+003, 1.400632e-002
2.588002e+003, 1.416325e-002
2.589931e+003, 1.329857e-002
2.591859e+003, 1.343584e-002
2.593788e+003, 1.407459e-002
2.595716e+003, 1.425543e-002
2.597645e+003, 1.392148e-002
2.599573e+003, 1.457862e-002
2.601501e+003, 1.483841e-002
2.603430e+003, 1.490735e-002
2.605358e+003, 1.461126e-002
2.607287e+003, 1.470365e-002
2.609215e+003, 1.517492e-002
2.611144e+003, 1.484472e-002
2.613072e+003, 1.478731e-002
2.615001e+003, 1.576608e-002
2.616929e+003, 1.564164e-002
2.618858e+003, 1.547157e-002
2.620786e+003, 1.567159e-002
2.622715e+003, 1.476204e-002
2.624643e+003, 1.464473e-002
2.626572e+003, 1.500504e-002
2.628500e+003, 1.503091e-002
2.630428e+003, 1.507700e-002
2.632357e+003, 1.505366e-002
2.634285e+003, 1.583776e-002
2.636214e+003, 1.601572e-002
2.638142e+003, 1.612484e-002
2.640071e+003, 1.689890e-002
2.641999e+003, 1.727183e-002
2.643928e+003, 1.717585e-002
2.645856e+003, 1.666074e-002
2.647785e+003, 1.596858e-002
2.649713e+003, 1.587949e-002
2.651642e+003, 1.623585e-002
2.653570e+003, 1.678770e-002
2.655499e+003, 1.708110e-002
2.657427e+003, 1.673607e-002
2.659355e+003, 1.664620e-002
2.661284e+003, 1.661773e-002
2.663212e+003, 1.675362e-002
2.665141e+003, 1.660099e-002
2.667069e+003, 1.694704e-002
2.668998e+003, 1.683234e-002
2.670926e+003, 1.619914e-002
2.672855e+003, 1.606078e-002
2.674783e+003, 1.641716e-002
2.676712e+003, 1.666625e-002
2.678640e+003, 1.681386e-002
2.680569e+003, 1.632097e-002
2.682497e+003, 1.598271e-002
2.684426e+003, 1.638951e-002
2.686354e+003, 1.689585e-002
2.688282e+003, 1.765543e-002
2.690211e+003, 1.821602e-002
2.692139e+003, 1.819297e-002
2.694068e+003, 1.788739e-002
2.695996e+003, 1.786261e-002
2.697925e+003, 1.770457e-002
2.699853e+003, 1.827152e-002
2.701782e+003, 1.872832e-002
2.703710e+003, 1.820390e-002
2.705639e+003, 1.836777e-002
2.707567e+003, 1.894748e-002
2.709496e+003, 1.862735e-002
2.711424e+003, 1.794199e-002
2.713353e+003, 1.762952e-002
2.715281e+003, 1.862288e-002
2.717209e+003, 1.939739e-002
2.719138e+003, 1.920869e-002
2.721066e+003, 1.883878e-002
2.722995e+003, 1.856146e-002
2.724923e+003, 1.891753e-002
2.726852e+003, 1.962737e-002
2.728780e+003, 1.957343e-002
2.730709e+003, 1.925782e-002
2.732637e+003, 1.930311e-002
2.734566e+003, 1.948985e-002
2.736494e+003, 1.973283e-002
2.738423e+003, 1.998033e-002
2.740351e+003, 1.986495e-002
2.742280e+003, 1.934001e-002
2.744208e+003, 1.968559e-002
2.746136e+003, 2.051971e-002
2.748065e+003, 2.092304e-002
2.749993e+003, 2.088047e-002
2.751922e+003, 2.065068e-002
2.753850e+003, 2.055134e-002
2.755779e+003, 2.105059e-002
2.757707e+003, 2.135704e-002
2.759636e+003, 2.117008e-002
2.761564e+003, 2.129163e-002
2.763493e+003, 2.174106e-002
2.765421e+003, 2.173033e-002
2.767350e+003, 2.198595e-002
2.769278e+003, 2.237798e-002
2.771207e+003, 2.190524e-002
2.773135e+003, 2.133941e-002
2.775063e+003, 2.208615e-002
2.776992e+003, 2.293447e-002
2.778920e+003, 2.278834e-002
2.780849e+003, 2.269100e-002
2.782777e+003, 2.248754e-002
2.784706e+003, 2.275934e-002
2.786634e+003, 2.281106e-002
2.788563e+003, 2.283189e-002
2.790491e+003, 2.290430e-002
2.792420e+003, 2.315393e-002
2.794348e+003, 2.311096e-002
2.796277e+003, 2.331431e-002
2.798205e+003, 2.354092e-002
2.800134e+003, 2.343793e-002
2.802062e+003, 2.399252e-002
2.803990e+003, 2.456589e-002
2.805919e+003, 2.417522e-002
2.807847e+003, 2.422781e-002
2.809776e+003, 2.483892e-002
2.811704e+003, 2.498853e-002
2.813633e+003, 2.515141e-002
2.815561e+003, 2.573134e-002
2.817490e+003, 2.588204e-002
2.819418e+003, 2.544714e-002
2.821347e+003, 2.536525e-002
2.823275e+003, 2.591419e-002
2.825204e+003, 2.622355e-002
2.827132e+003, 2.649676e-002
2.829061e+003, 2.636253e-002
2.830989e+003, 2.624572e-002
2.832917e+003, 2.683735e-002
2.834846e+003, 2.716643e-002
2.836774e+003, 2.701412e-002
2.838703e+003, 2.767961e-002
2.840631e+003, 2.869725e-002
2.842560e+003, 2.869727e-002
2.844488e+003, 2.835263e-002
2.846417e+003, 2.792802e-002
2.848345e+003, 2.805863e-002
2.850274e+003, 2.850996e-002
2.852202e+003, 2.874025e-002
2.854131e+003, 2.861492e-002
2.856059e+003, 2.839195e-002
2.857988e+003, 2.801442e-002
2.859916e+003, 2.771848e-002
2.861844e+003, 2.876536e-002
2.863773e+003, 3.007903e-002
2.865701e+003, 3.047038e-002
2.867630e+003, 3.099746e-002
2.869558e+003, 3.161457e-002
2.871487e+003, 3.124192e-002
2.873415e+003, 3.093966e-002
2.875344e+003, 3.119805e-002
2.877272e+003, 3.174469e-002
2.879201e+003, 3.254122e-002
2.881129e+003, 3.238516e-002
2.883058e+003, 3.200725e-002
2.884986e+003, 3.191100e-002
2.886915e+003, 3.200809e-002
2.888843e+003, 3.241268e-002
2.890771e+003, 3.273472e-002
2.892700e+003, 3.362268e-002
2.894628e+003, 3.449114e-002
2.896557e+003, 3.500977e-002
2.898485e+003, 3.459669e-002
2.900414e+003, 3.378529e-002
2.902342e+003, 3.378561e-002
2.904271e+003, 3.455882e-002
2.906199e+003, 3.545406e-002
2.908128e+003, 3.635316e-002
2.910056e+003, 3.581630e-002
2.911985e+003, 3.573078e-002
2.913913e+003, 3.635091e-002
2.915842e+003, 3.712184e-002
2.917770e+003, 3.685407e-002
2.919698e+003, 3.647799e-002
2.921627e+003, 3.636670e-002
2.923555e+003, 3.682317e-002
2.925484e+003, 3.745814e-002
2.927412e+003, 3.711349e-002
2.929341e+003, 3.625007e-002
2.931269e+003, 3.624362e-002
2.933198e+003, 3.650745e-002
2.935126e+003, 3.687747e-002
2.937055e+003, 3.707159e-002
2.938983e+003, 3.713395e-002
2.940912e+003, 3.716068e-002
2.942840e+003, 3.756408e-002
2.944769e+003, 3.837026e-002
2.946697e+003, 3.897066e-002
2.948625e+003, 3.896523e-002
2.950554e+003, 3.900685e-002
2.952482e+003, 3.893816e-002
2.954411e+003, 3.897138e-002
2.956339e+003, 3.912171e-002
2.958268e+003, 3.921114e-002
2.960196e+003, 3.890186e-002
2.962125e+003, 3.882357e-002
2.964053e+003, 4.002814e-002
2.965982e+003, 4.123459e-002
2.967910e+003, 4.076799e-002
2.969839e+003, 3.991854e-002
2.971767e+003, 3.971662e-002
2.973696e+003, 3.974727e-002
2.975624e+003, 3.927602e-002
2.977552e+003, 3.907867e-002
2.979481e+003, 3.903638e-002
2.981409e+003, 3.945563e-002
2.983338e+003, 4.038873e-002
2.985266e+003, 4.083624e-002
2.987195e+003, 4.083744e-002
2.989123e+003, 4.154230e-002
2.991052e+003, 4.133348e-002
2.992980e+003, 4.096203e-002
2.994909e+003, 4.087673e-002
2.996837e+003, 4.069459e-002
2.998766e+003, 4.116814e-002
3.000694e+003, 4.175889e-002
3.002623e+003, 4.144395e-002
3.004551e+003, 4.159136e-002
3.006479e+003, 4.149458e-002
3.008408e+003, 4.167549e-002
3.010336e+003, 4.248043e-002
3.012265e+003, 4.278211e-002
3.014193e+003, 4.322177e-002
3.016122e+003, 4.296087e-002
3.018050e+003, 4.315281e-002
3.019979e+003, 4.389016e-002
3.021907e+003, 4.362819e-002
3.023836e+003, 4.405266e-002
3.025764e+003, 4.474221e-002
3.027693e+003, 4.465421e-002
3.029621e+003, 4.516465e-002
3.031550e+003, 4.567191e-002
3.033478e+003, 4.573305e-002
3.035406e+003, 4.575018e-002
3.037335e+003, 4.568522e-002
3.039263e+003, 4.550985e-002
3.041192e+003, 4.590157e-002
3.043120e+003, 4.556277e-002
3.045049e+003, 4.479494e-002
3.046977e+003, 4.563087e-002
3.048906e+003, 4.656022e-002
3.050834e+003, 4.621320e-002
3.052763e+003, 4.636845e-002
3.054691e+003, 4.741362e-002
3.056620e+003, 4.767367e-002
3.058548e+003, 4.804082e-002
3.060477e+003, 4.900309e-002
3.062405e+003, 4.984606e-002
3.064333e+003, 4.976465e-002
3.066262e+003, 4.928787e-002
3.068190e+003, 5.029430e-002
3.070119e+003, 5.028636e-002
3.072047e+003, 4.970296e-002
3.073976e+003, 5.053382e-002
3.075904e+003, 5.115232e-002
3.077833e+003, 5.195768e-002
3.079761e+003, 5.224003e-002
3.081690e+003, 5.168349e-002
3.083618e+003, 5.128170e-002
3.085547e+003, 5.097328e-002
3.087475e+003, 5.169417e-002
3.089404e+003, 5.230993e-002
3.091332e+003, 5.288427e-002
3.093260e+003, 5.357311e-002
3.095189e+003, 5.319206e-002
3.097117e+003, 5.230166e-002
3.099046e+003, 5.249741e-002
3.100974e+003, 5.325986e-002
3.102903e+003, 5.369159e-002
3.104831e+003, 5.482649e-002
3.106760e+003, 5.521205e-002
3.108688e+003, 5.468998e-002
3.110617e+003, 5.422699e-002
3.112545e+003, 5.518287e-002
3.114474e+003, 5.635904e-002
3.116402e+003, 5.567723e-002
3.118331e+003, 5.542089e-002
3.120259e+003, 5.690837e-002
3.122188e+003, 5.705302e-002
3.124116e+003, 5.566956e-002
3.126044e+003, 5.507802e-002
3.127973e+003, 5.539974e-002
3.129901e+003, 5.658218e-002
3.131830e+003, 5.693263e-002
3.133758e+003, 5.656914e-002
3.135687e+003, 5.664048e-002
3.137615e+003, 5.757112e-002
3.139544e+003, 5.839491e-002
3.141472e+003, 5.828546e-002
3.143401e+003, 5.874215e-002
3.145329e+003, 5.877621e-002
3.147258e+003, 5.883286e-002
3.149186e+003, 5.862620e-002
3.151115e+003, 5.840407e-002
3.153043e+003, 5.913176e-002
3.154971e+003, 5.994739e-002
3.156900e+003, 5.970658e-002
3.158828e+003, 5.882195e-002
3.160757e+003, 5.829768e-002
3.162685e+003, 5.946342e-002
3.164614e+003, 5.984081e-002
3.166542e+003, 5.995358e-002
3.168471e+003, 5.982066e-002
3.170399e+003, 5.950978e-002
3.172328e+003, 5.964558e-002
3.174256e+003, 6.050851e-002
3.176185e+003, 6.059225e-002
3.178113e+003, 6.028690e-002
3.180042e+003, 6.006762e-002
3.181970e+003, 6.096758e-002
3.183898e+003, 6.141046e-002
3.185827e+003, 6.076069e-002
3.187755e+003, 6.052910e-002
3.189684e+003, 6.091481e-002
3.191612e+003, 6.116829e-002
3.193541e+003, 6.139573e-002
3.195469e+003, 6.189874e-002
3.197398e+003, 6.142651e-002
3.199326e+003, 6.100208e-002
3.201255e+003, 6.106973e-002
3.203183e+003, 6.142706e-002
3.205112e+003, 6.166494e-002
3.207040e+003, 6.207416e-002
3.208969e+003, 6.224262e-002
3.210897e+003, 6.098596e-002
3.212825e+003, 6.105958e-002
3.214754e+003, 6.175756e-002
3.216682e+003, 6.155823e-002
3.218611e+003, 6.096952e-002
3.220539e+003, 6.155166e-002
3.222468e+003, 6.224118e-002
3.224396e+003, 6.155290e-002
3.226325e+003, 6.185402e-002
3.228253e+003, 6.278252e-002
3.230182e+003, 6.303606e-002
3.232110e+003, 6.311246e-002
3.234039e+003, 6.179880e-002
3.235967e+003, 6.234344e-002
3.237896e+003, 6.298867e-002
3.239824e+003, 6.199358e-002
3.241752e+003, 6.081016e-002
3.243681e+003, 6.070655e-002
3.245609e+003, 6.079438e-002
3.247538e+003, 6.123631e-002
3.249466e+003, 6.160915e-002
3.251395e+003, 6.115310e-002
3.253323e+003, 6.109227e-002
3.255252e+003, 6.111048e-002
3.257180e+003, 6.125769e-002
3.259109e+003, 6.142363e-002
3.261037e+003, 6.146342e-002
3.262966e+003, 6.144844e-002
3.264894e+003, 6.138356e-002
3.266823e+003, 6.071552e-002
3.268751e+003, 6.125503e-002
3.270679e+003, 6.251436e-002
3.272608e+003, 6.251410e-002
3.274536e+003, 6.345356e-002
3.276465e+003, 6.251691e-002
3.278393e+003, 6.151487e-002
3.280322e+003, 6.111999e-002
3.282250e+003, 6.024564e-002
3.284179e+003, 6.072592e-002
3.286107e+003, 6.227187e-002
3.288036e+003, 6.197156e-002
3.289964e+003, 6.132987e-002
3.291893e+003, 6.063065e-002
3.293821e+003, 6.085304e-002
3.295750e+003, 6.307074e-002
3.297678e+003, 6.292477e-002
3.299606e+003, 6.242901e-002
3.301535e+003, 6.312414e-002
3.303463e+003, 6.209923e-002
3.305392e+003, 6.042241e-002
3.307320e+003, 6.028013e-002
3.309249e+003, 6.099458e-002
3.311177e+003, 6.072485e-002
3.313106e+003, 6.033355e-002
3.315034e+003, 5.903032e-002
3.316963e+003, 5.916036e-002
3.318891e+003, 6.031496e-002
3.320820e+003, 6.043033e-002
3.322748e+003, 6.037637e-002
3.324677e+003, 5.981211e-002
3.326605e+003, 5.829997e-002
3.328533e+003, 5.897188e-002
3.330462e+003, 5.925868e-002
3.332390e+003, 5.901623e-002
3.334319e+003, 5.922626e-002
3.336247e+003, 5.886208e-002
3.338176e+003, 6.066289e-002
3.340104e+003, 6.059261e-002
3.342033e+003, 5.870113e-002
3.343961e+003, 5.886542e-002
3.345890e+003, 6.023150e-002
3.347818e+003, 5.984579e-002
3.349747e+003, 5.931663e-002
3.351675e+003, 5.985826e-002
3.353604e+003, 5.922468e-002
3.355532e+003, 5.852579e-002
3.357460e+003, 5.889765e-002
3.359389e+003, 5.964174e-002
3.361317e+003, 5.961863e-002
3.363246e+003, 5.930556e-002
3.365174e+003, 5.909888e-002
3.367103e+003, 5.832431e-002
3.369031e+003, 5.828283e-002
3.370960e+003, 5.904690e-002
3.372888e+003, 5.849252e-002
3.374817e+003, 5.804209e-002
3.376745e+003, 5.835358e-002
3.378674e+003, 5.843382e-002
3.380602e+003, 5.788860e-002
3.382531e+003, 5.719837e-002
3.384459e+003, 5.783617e-002
3.386387e+003, 5.859502e-002
3.388316e+003, 5.810846e-002
3.390244e+003, 5.793598e-002
3.392173e+003, 5.781352e-002
3.394101e+003, 5.781537e-002
3.396030e+003, 5.737977e-002
3.397958e+003, 5.758188e-002
3.399887e+003, 5.734022e-002
3.401815e+003, 5.682014e-002
3.403744e+003, 5.525339e-002
3.405672e+003, 5.501453e-002
3.407601e+003, 5.561167e-002
3.409529e+003, 5.589942e-002
3.411458e+003, 5.637843e-002
3.413386e+003, 5.764638e-002
3.415314e+003, 5.697011e-002
3.417243e+003, 5.458077e-002
3.419171e+003, 5.374771e-002
3.421100e+003, 5.423915e-002
3.423028e+003, 5.538770e-002
3.424957e+003, 5.659031e-002
3.426885e+003, 5.598101e-002
3.428814e+003, 5.554206e-002
3.430742e+003, 5.519021e-002
3.432671e+003, 5.597956e-002
3.434599e+003, 5.618749e-002
3.436528e+003, 5.504746e-002
3.438456e+003, 5.477197e-002
3.440385e+003, 5.496756e-002
3.442313e+003, 5.532347e-002
3.444241e+003, 5.403905e-002
3.446170e+003, 5.283542e-002
3.448098e+003, 5.362163e-002
3.450027e+003, 5.478163e-002
3.451955e+003, 5.459822e-002
3.453884e+003, 5.339459e-002
3.455812e+003, 5.321230e-002
3.457741e+003, 5.301927e-002
3.459669e+003, 5.386355e-002
3.461598e+003, 5.395852e-002
3.463526e+003, 5.387186e-002
3.465455e+003, 5.335123e-002
3.467383e+003, 5.288070e-002
3.469312e+003, 5.334998e-002
3.471240e+003, 5.372601e-002
3.473168e+003, 5.274915e-002
3.475097e+003, 5.219521e-002
3.477025e+003, 5.311368e-002
3.478954e+003, 5.216300e-002
3.480882e+003, 5.026739e-002
3.482811e+003, 4.994212e-002
3.484739e+003, 5.019772e-002
3.486668e+003, 5.077656e-002
3.488596e+003, 4.941678e-002
3.490525e+003, 4.737207e-002
3.492453e+003, 4.849191e-002
3.494382e+003, 4.885576e-002
3.496310e+003, 4.920484e-002
3.498239e+003, 4.989431e-002
3.500167e+003, 4.856953e-002
3.502095e+003, 4.693628e-002
3.504024e+003, 4.521315e-002
3.505952e+003, 4.456796e-002
3.507881e+003, 4.621474e-002
3.509809e+003, 4.640091e-002
3.511738e+003, 4.411978e-002
3.513666e+003, 4.256321e-002
3.515595e+003, 4.213991e-002
3.517523e+003, 4.115716e-002
3.519452e+003, 4.117356e-002
3.521380e+003, 4.037874e-002
3.523309e+003, 3.861258e-002
3.525237e+003, 3.803259e-002
3.527166e+003, 3.847697e-002
3.529094e+003, 3.806001e-002
3.531022e+003, 3.693166e-002
3.532951e+003, 3.434432e-002
3.534879e+003, 3.332886e-002
3.536808e+003, 3.564321e-002
3.538736e+003, 3.692601e-002
3.540665e+003, 3.694441e-002
3.542593e+003, 3.500292e-002
3.544522e+003, 3.296806e-002
3.546450e+003, 3.281702e-002
3.548379e+003, 3.334475e-002
3.550307e+003, 3.209696e-002
3.552236e+003, 3.093089e-002
3.554164e+003, 3.070761e-002
3.556093e+003, 3.060626e-002
3.558021e+003, 3.111732e-002
3.559949e+003, 3.063173e-002
3.561878e+003, 2.977902e-002
3.563806e+003, 2.844379e-002
3.565735e+003, 2.760017e-002
3.567663e+003, 2.707198e-002
3.569592e+003, 2.626940e-002
3.571520e+003, 2.565117e-002
3.573449e+003, 2.673870e-002
3.575377e+003, 2.703118e-002
3.577306e+003, 2.671210e-002
3.579234e+003, 2.585084e-002
3.581163e+003, 2.391803e-002
3.583091e+003, 2.295469e-002
3.585020e+003, 2.418943e-002
3.586948e+003, 2.493048e-002
3.588876e+003, 2.387192e-002
3.590805e+003, 2.274581e-002
3.592733e+003, 2.285196e-002
3.594662e+003, 2.305463e-002
3.596590e+003, 2.128722e-002
3.598519e+003, 2.102039e-002
3.600447e+003, 2.045165e-002
3.602376e+003, 2.073050e-002
3.604304e+003, 2.103120e-002
3.606233e+003, 2.074496e-002
3.608161e+003, 2.024750e-002
3.610090e+003, 1.929686e-002
3.612018e+003, 2.082106e-002
3.613947e+003, 1.972871e-002
3.615875e+003, 1.760866e-002
3.617803e+003, 1.644254e-002
3.619732e+003, 1.532967e-002
3.621660e+003, 1.706414e-002
3.623589e+003, 1.829074e-002
3.625517e+003, 1.637453e-002
3.627446e+003, 1.542439e-002
3.629374e+003, 1.707360e-002
3.631303e+003, 1.765923e-002
3.633231e+003, 1.590125e-002
3.635160e+003, 1.584340e-002
3.637088e+003, 1.657211e-002
3.639017e+003, 1.511718e-002
3.640945e+003, 1.288201e-002
3.642874e+003, 1.375903e-002
3.644802e+003, 1.578047e-002
3.646730e+003, 1.586053e-002
3.648659e+003, 1.505369e-002
3.650587e+003, 1.317820e-002
3.652516e+003, 1.163194e-002
3.654444e+003, 1.090520e-002
3.656373e+003, 1.035025e-002
3.658301e+003, 9.796448e-003
3.660230e+003, 1.049369e-002
3.662158e+003, 9.979818e-003
3.664087e+003, 1.045254e-002
3.666015e+003, 1.040827e-002
3.667944e+003, 9.263070e-003
3.669872e+003, 1.011329e-002
3.671801e+003, 1.048673e-002
3.673729e+003, 9.382552e-003
3.675657e+003, 1.006986e-002
3.677586e+003, 1.034251e-002
3.679514e+003, 1.012471e-002
3.681443e+003, 1.084191e-002
3.683371e+003, 1.017381e-002
3.685300e+003, 1.072082e-002
3.687228e+003, 1.057117e-002
3.689157e+003, 8.998020e-003
3.691085e+003, 9.562619e-003
3.693014e+003, 1.071746e-002
3.694942e+003, 1.012846e-002
3.696871e+003, 9.930771e-003
3.698799e+003, 9.928419e-003
3.700728e+003, 1.034307e-002
3.702656e+003, 1.065069e-002
3.704584e+003, 8.983182e-003
3.706513e+003, 8.207600e-003
3.708441e+003, 8.377673e-003
3.710370e+003, 9.093923e-003
3.712298e+003, 9.174177e-003
3.714227e+003, 1.043238e-002
3.716155e+003, 1.116928e-002
3.718084e+003, 9.649159e-003
3.720012e+003, 9.010304e-003
3.721941e+003, 9.231932e-003
3.723869e+003, 8.365560e-003
3.725798e+003, 8.453013e-003
3.727726e+003, 9.784595e-003
3.729655e+003, 9.145343e-003
3.731583e+003, 9.084602e-003
3.733511e+003, 1.053788e-002
3.735440e+003, 1.007283e-002
3.737368e+003, 9.351810e-003
3.739297e+003, 9.829975e-003
3.741225e+003, 9.828874e-003
3.743154e+003, 9.687344e-003
3.745082e+003, 1.029978e-002
3.747011e+003, 8.503344e-003
3.748939e+003, 7.346005e-003
3.750868e+003, 7.161896e-003
3.752796e+003, 8.474534e-003
3.754725e+003, 1.135141e-002
3.756653e+003, 1.191452e-002
3.758582e+003, 1.002018e-002
3.760510e+003, 9.247836e-003
3.762438e+003, 1.136803e-002
3.764367e+003, 1.183132e-002
3.766295e+003, 1.093778e-002
3.768224e+003, 1.109082e-002
3.770152e+003, 1.196440e-002
3.772081e+003, 1.181778e-002
3.774009e+003, 1.051478e-002
3.775938e+003, 9.151053e-003
3.777866e+003, 1.002571e-002
3.779795e+003, 1.134734e-002
3.781723e+003, 1.089235e-002
3.783652e+003, 1.018139e-002
3.785580e+003, 1.060980e-002
3.787509e+003, 9.455182e-003
3.789437e+003, 9.534570e-003
3.791365e+003, 1.124682e-002
3.793294e+003, 1.044721e-002
3.795222e+003, 8.900362e-003
3.797151e+003, 9.262078e-003
3.799079e+003, 9.991977e-003
3.801008e+003, 1.139987e-002
3.802936e+003, 1.096510e-002
3.804865e+003, 1.109916e-002
3.806793e+003, 1.094614e-002
3.808722e+003, 1.120921e-002
3.810650e+003, 1.244118e-002
3.812579e+003, 1.345562e-002
3.814507e+003, 1.337151e-002
3.816436e+003, 1.337301e-002
3.818364e+003, 1.465027e-002
3.820292e+003, 1.424475e-002
3.822221e+003, 1.269399e-002
3.824149e+003, 1.268611e-002
3.826078e+003, 1.195847e-002
3.828006e+003, 1.009564e-002
3.829935e+003, 9.179323e-003
3.831863e+003, 9.982191e-003
3.833792e+003, 1.179567e-002
3.835720e+003, 1.225088e-002
3.837649e+003, 1.121640e-002
3.839577e+003, 1.084123e-002
3.841506e+003, 1.106293e-002
3.843434e+003, 1.035403e-002
3.845363e+003, 9.602697e-003
3.847291e+003, 9.574031e-003
3.849219e+003, 1.036751e-002
3.851148e+003, 9.889820e-003
3.853076e+003, 8.420610e-003
3.855005e+003, 9.480408e-003
3.856933e+003, 9.518247e-003
3.858862e+003, 1.171591e-002
3.860790e+003, 1.301340e-002
3.862719e+003, 1.153512e-002
3.864647e+003, 9.969606e-003
3.866576e+003, 9.408888e-003
3.868504e+003, 9.817110e-003
3.870433e+003, 8.962759e-003
3.872361e+003, 9.071200e-003
3.874290e+003, 1.084953e-002
3.876218e+003, 1.093396e-002
3.878146e+003, 9.191618e-003
3.880075e+003, 8.905591e-003
3.882003e+003, 9.933635e-003
3.883932e+003, 1.121838e-002
3.885860e+003, 1.120050e-002
3.887789e+003, 1.071385e-002
3.889717e+003, 1.176858e-002
3.891646e+003, 1.343782e-002
3.893574e+003, 1.107611e-002
3.895503e+003, 1.048639e-002
3.897431e+003, 1.095247e-002
3.899360e+003, 9.468963e-003
3.901288e+003, 9.406618e-003
3.903217e+003, 9.867133e-003
3.905145e+003, 8.947239e-003
3.907073e+003, 9.167201e-003
3.909002e+003, 9.709733e-003
3.910930e+003, 1.126724e-002
3.912859e+003, 1.290297e-002
3.914787e+003, 1.292368e-002
3.916716e+003, 1.182094e-002
3.918644e+003, 9.908494e-003
3.920573e+003, 8.842202e-003
3.922501e+003, 8.951136e-003
3.924430e+003, 1.061403e-002
3.926358e+003, 1.106340e-002
3.928287e+003, 1.014077e-002
3.930215e+003, 1.075312e-002
3.932144e+003, 1.089873e-002
3.934072e+003, 1.039172e-002
3.936000e+003, 1.090651e-002
3.937929e+003, 1.185125e-002
3.939857e+003, 1.137026e-002
3.941786e+003, 1.092651e-002
3.943714e+003, 1.072126e-002
3.945643e+003, 9.695671e-003
3.947571e+003, 9.991810e-003
3.949500e+003, 1.133619e-002
3.951428e+003, 1.095886e-002
3.953357e+003, 1.242456e-002
3.955285e+003, 1.302114e-002
3.957214e+003, 1.292103e-002
3.959142e+003, 1.339603e-002
3.961071e+003, 1.191578e-002
3.962999e+003, 1.099015e-002
3.964927e+003, 1.039100e-002
3.966856e+003, 1.248189e-002
3.968784e+003, 1.376167e-002
3.970713e+003, 1.320952e-002
3.972641e+003, 1.276465e-002
3.974570e+003, 1.289253e-002
3.976498e+003, 1.210479e-002
3.978427e+003, 1.095976e-002
3.980355e+003, 1.203071e-002
3.982284e+003, 1.292194e-002
3.984212e+003, 1.324424e-002
3.986141e+003, 1.271551e-002
3.988069e+003, 1.270686e-002
3.989998e+003, 1.187761e-002
3.991926e+003, 1.143472e-002
3.993854e+003, 1.161409e-002
3.995783e+003, 1.122969e-002
3.997711e+003, 1.080052e-002
3.999640e+003, 1.080573e-002
##END=



