##NAMES=Vonsenite
##RRUFFID=R050221
##IDEAL CHEMISTRY=Fe^2+^_2_Fe^3+^O_2_(BO_3_)
##LOCALITY=Monchi mine, Burguillos del Cerro, Badajoz, Extremadura, Spain
##OWNER=RRUFF
##SOURCE=Marcus Origlieri
##DESCRIPTION=Mass of thin bladed black crystals
##STATUS=The identification of this mineral has been confirmed by X-ray diffraction and chemical analysis
##URL=rruff.info/R050221
##MEASURED CHEMISTRY=(Fe^2+^_1.96_Mg_0.03_Mn_0.01_)_Σ=2_(Fe^3+^_0.98_Al_0.02_)_Σ=1_BO_5_
3.721941e+002, 0.000000e+000
3.741225e+002, 1.604459e-001
3.760510e+002, 1.649138e-001
3.779795e+002, 1.753352e-001
3.799079e+002, 1.738410e-001
3.818364e+002, 1.624399e-001
3.837649e+002, 1.552029e-001
3.856933e+002, 1.545801e-001
3.876218e+002, 1.595869e-001
3.895503e+002, 1.602655e-001
3.914787e+002, 1.543183e-001
3.934072e+002, 1.536682e-001
3.953357e+002, 1.557158e-001
3.972641e+002, 1.544754e-001
3.991926e+002, 1.502553e-001
4.011211e+002, 1.513242e-001
4.030495e+002, 1.534795e-001
4.049780e+002, 1.538871e-001
4.069065e+002, 1.536152e-001
4.088349e+002, 1.523583e-001
4.107634e+002, 1.492322e-001
4.126919e+002, 1.475724e-001
4.146203e+002, 1.461632e-001
4.165488e+002, 1.459090e-001
4.184773e+002, 1.452812e-001
4.204057e+002, 1.460002e-001
4.223342e+002, 1.457688e-001
4.242627e+002, 1.457415e-001
4.261911e+002, 1.486287e-001
4.281196e+002, 1.511017e-001
4.300481e+002, 1.508151e-001
4.319765e+002, 1.521912e-001
4.339050e+002, 1.511201e-001
4.358335e+002, 1.474138e-001
4.377619e+002, 1.461630e-001
4.396904e+002, 1.459678e-001
4.416189e+002, 1.446268e-001
4.435473e+002, 1.421911e-001
4.454758e+002, 1.399413e-001
4.474043e+002, 1.364575e-001
4.493327e+002, 1.327038e-001
4.512612e+002, 1.291467e-001
4.531897e+002, 1.260474e-001
4.551181e+002, 1.236250e-001
4.570466e+002, 1.212167e-001
4.589751e+002, 1.182469e-001
4.609035e+002, 1.151622e-001
4.628320e+002, 1.133282e-001
4.647605e+002, 1.115376e-001
4.666889e+002, 1.096094e-001
4.686174e+002, 1.076315e-001
4.705459e+002, 1.060664e-001
4.724743e+002, 1.044923e-001
4.744028e+002, 1.032594e-001
4.763313e+002, 1.020919e-001
4.782597e+002, 1.013127e-001
4.801882e+002, 1.003082e-001
4.821167e+002, 9.951641e-002
4.840451e+002, 9.919467e-002
4.859736e+002, 9.825046e-002
4.879021e+002, 9.699722e-002
4.898305e+002, 9.538771e-002
4.917590e+002, 9.329110e-002
4.936875e+002, 9.117837e-002
4.956159e+002, 8.917442e-002
4.975444e+002, 8.674195e-002
4.994729e+002, 8.345822e-002
5.014013e+002, 8.039200e-002
5.033298e+002, 7.774436e-002
5.052583e+002, 7.561208e-002
5.071867e+002, 7.338768e-002
5.091152e+002, 7.083517e-002
5.110437e+002, 6.880482e-002
5.129721e+002, 6.686965e-002
5.149006e+002, 6.562447e-002
5.168290e+002, 6.459472e-002
5.187575e+002, 6.284064e-002
5.206860e+002, 6.097561e-002
5.226144e+002, 5.956439e-002
5.245429e+002, 5.876872e-002
5.264714e+002, 5.809194e-002
5.283998e+002, 5.723186e-002
5.303283e+002, 5.664060e-002
5.322568e+002, 5.603605e-002
5.341852e+002, 5.572468e-002
5.361137e+002, 5.568762e-002
5.380422e+002, 5.539859e-002
5.399706e+002, 5.537427e-002
5.418991e+002, 5.589322e-002
5.438276e+002, 5.654247e-002
5.457560e+002, 5.705811e-002
5.476845e+002, 5.795083e-002
5.496130e+002, 5.929019e-002
5.515414e+002, 6.084817e-002
5.534699e+002, 6.235947e-002
5.553984e+002, 6.349413e-002
5.573268e+002, 6.529345e-002
5.592553e+002, 6.756891e-002
5.611838e+002, 6.977263e-002
5.631122e+002, 7.163857e-002
5.650407e+002, 7.376967e-002
5.669692e+002, 7.615159e-002
5.688976e+002, 7.874040e-002
5.708261e+002, 8.146214e-002
5.727546e+002, 8.383486e-002
5.746830e+002, 8.603971e-002
5.766115e+002, 8.805469e-002
5.785400e+002, 9.004524e-002
5.804684e+002, 9.171586e-002
5.823969e+002, 9.300246e-002
5.843254e+002, 9.385683e-002
5.862538e+002, 9.478299e-002
5.881823e+002, 9.519070e-002
5.901108e+002, 9.512943e-002
5.920392e+002, 9.425393e-002
5.939677e+002, 9.240945e-002
5.958962e+002, 9.022926e-002
5.978246e+002, 8.757253e-002
5.997531e+002, 8.403337e-002
6.016816e+002, 8.027039e-002
6.036100e+002, 7.625706e-002
6.055385e+002, 7.222425e-002
6.074670e+002, 6.893785e-002
6.093954e+002, 6.588072e-002
6.113239e+002, 6.294763e-002
6.132524e+002, 6.031984e-002
6.151808e+002, 5.818744e-002
6.171093e+002, 5.655310e-002
6.190378e+002, 5.535844e-002
6.209662e+002, 5.449076e-002
6.228947e+002, 5.388707e-002
6.248232e+002, 5.318519e-002
6.267516e+002, 5.238609e-002
6.286801e+002, 5.184207e-002
6.306086e+002, 5.164059e-002
6.325370e+002, 5.146132e-002
6.344655e+002, 5.167054e-002
6.363940e+002, 5.218302e-002
6.383224e+002, 5.290008e-002
6.402509e+002, 5.363067e-002
6.421794e+002, 5.458686e-002
6.441078e+002, 5.603260e-002
6.460363e+002, 5.753852e-002
6.479648e+002, 5.911463e-002
6.498932e+002, 6.048571e-002
6.518217e+002, 6.185006e-002
6.537502e+002, 6.322390e-002
6.556786e+002, 6.455658e-002
6.576071e+002, 6.593965e-002
6.595356e+002, 6.756632e-002
6.614641e+002, 6.961621e-002
6.633925e+002, 7.206848e-002
6.653210e+002, 7.495885e-002
6.672495e+002, 7.855169e-002
6.691779e+002, 8.208231e-002
6.711064e+002, 8.575835e-002
6.730349e+002, 9.029230e-002
6.749633e+002, 9.504778e-002
6.768918e+002, 9.890195e-002
6.788203e+002, 1.001433e-001
6.807487e+002, 9.870227e-002
6.826772e+002, 9.580030e-002
6.846057e+002, 9.283187e-002
6.865341e+002, 8.973166e-002
6.884626e+002, 8.641391e-002
6.903911e+002, 8.312678e-002
6.923195e+002, 7.962272e-002
6.942480e+002, 7.593466e-002
6.961765e+002, 7.206523e-002
6.981049e+002, 6.783487e-002
7.000334e+002, 6.383147e-002
7.019619e+002, 5.977577e-002
7.038903e+002, 5.598553e-002
7.058188e+002, 5.221863e-002
7.077473e+002, 4.891309e-002
7.096757e+002, 4.650875e-002
7.116042e+002, 4.503476e-002
7.135327e+002, 4.417002e-002
7.154611e+002, 4.358502e-002
7.173896e+002, 4.329554e-002
7.193181e+002, 4.328918e-002
7.212465e+002, 4.340480e-002
7.231750e+002, 4.375569e-002
7.251035e+002, 4.409184e-002
7.270319e+002, 4.426388e-002
7.289604e+002, 4.461451e-002
7.308889e+002, 4.516207e-002
7.328173e+002, 4.581311e-002
7.347458e+002, 4.647510e-002
7.366743e+002, 4.699677e-002
7.386027e+002, 4.726938e-002
7.405312e+002, 4.766419e-002
7.424597e+002, 4.819186e-002
7.443881e+002, 4.872383e-002
7.463166e+002, 4.914081e-002
7.482451e+002, 4.921097e-002
7.501735e+002, 4.943876e-002
7.521020e+002, 5.007195e-002
7.540305e+002, 5.087182e-002
7.559589e+002, 5.223200e-002
7.578874e+002, 5.374409e-002
7.598159e+002, 5.429730e-002
7.617443e+002, 5.398047e-002
7.636728e+002, 5.340683e-002
7.656013e+002, 5.306900e-002
7.675297e+002, 5.323589e-002
7.694582e+002, 5.356830e-002
7.713867e+002, 5.387658e-002
7.733151e+002, 5.430359e-002
7.752436e+002, 5.494874e-002
7.771721e+002, 5.555493e-002
7.791005e+002, 5.619969e-002
7.810290e+002, 5.694868e-002
7.829575e+002, 5.767729e-002
7.848859e+002, 5.809681e-002
7.868144e+002, 5.856399e-002
7.887429e+002, 5.929232e-002
7.906713e+002, 6.000783e-002
7.925998e+002, 6.069623e-002
7.945283e+002, 6.123163e-002
7.964567e+002, 6.187383e-002
7.983852e+002, 6.270667e-002
8.003137e+002, 6.345481e-002
8.022421e+002, 6.391025e-002
8.041706e+002, 6.434124e-002
8.060991e+002, 6.487674e-002
8.080275e+002, 6.555635e-002
8.099560e+002, 6.632996e-002
8.118845e+002, 6.697447e-002
8.138129e+002, 6.761255e-002
8.157414e+002, 6.818855e-002
8.176699e+002, 6.872451e-002
8.195983e+002, 6.942800e-002
8.215268e+002, 7.026443e-002
8.234553e+002, 7.095344e-002
8.253837e+002, 7.164498e-002
8.273122e+002, 7.230447e-002
8.292407e+002, 7.287001e-002
8.311691e+002, 7.342667e-002
8.330976e+002, 7.417613e-002
8.350261e+002, 7.502416e-002
8.369545e+002, 7.574965e-002
8.388830e+002, 7.632813e-002
8.408115e+002, 7.701998e-002
8.427399e+002, 7.800367e-002
8.446684e+002, 7.885705e-002
8.465969e+002, 7.955547e-002
8.485253e+002, 8.014393e-002
8.504538e+002, 8.092020e-002
8.523823e+002, 8.169763e-002
8.543107e+002, 8.241874e-002
8.562392e+002, 8.339098e-002
8.581677e+002, 8.462245e-002
8.600961e+002, 8.575599e-002
8.620246e+002, 8.715466e-002
8.639531e+002, 8.922777e-002
8.658815e+002, 9.163731e-002
8.678100e+002, 9.383701e-002
8.697385e+002, 9.669891e-002
8.716669e+002, 9.796846e-002
8.735954e+002, 9.544319e-002
8.755239e+002, 9.074463e-002
8.774523e+002, 8.715984e-002
8.793808e+002, 8.645902e-002
8.813093e+002, 8.698753e-002
8.832377e+002, 8.767983e-002
8.851662e+002, 8.834974e-002
8.870947e+002, 8.892316e-002
8.890231e+002, 8.956139e-002
8.909516e+002, 9.028015e-002
8.928801e+002, 9.101158e-002
8.948085e+002, 9.163266e-002
8.967370e+002, 9.228352e-002
8.986655e+002, 9.294648e-002
9.005939e+002, 9.353648e-002
9.025224e+002, 9.424249e-002
9.044509e+002, 9.487662e-002
9.063793e+002, 9.546500e-002
9.083078e+002, 9.616119e-002
9.102363e+002, 9.683723e-002
9.121647e+002, 9.751801e-002
9.140932e+002, 9.803046e-002
9.160217e+002, 9.846415e-002
9.179501e+002, 9.913067e-002
9.198786e+002, 9.956560e-002
9.218071e+002, 1.001387e-001
9.237355e+002, 1.007349e-001
9.256640e+002, 1.014134e-001
9.275925e+002, 1.021556e-001
9.295209e+002, 1.027556e-001
9.314494e+002, 1.031874e-001
9.333779e+002, 1.037423e-001
9.353063e+002, 1.045007e-001
9.372348e+002, 1.054201e-001
9.391633e+002, 1.060685e-001
9.410917e+002, 1.065542e-001
9.430202e+002, 1.071828e-001
9.449487e+002, 1.078275e-001
9.468771e+002, 1.085485e-001
9.488056e+002, 1.091160e-001
9.507341e+002, 1.095632e-001
9.526625e+002, 1.099737e-001
9.545910e+002, 1.104806e-001
9.565195e+002, 1.109689e-001
9.584479e+002, 1.115989e-001
9.603764e+002, 1.121324e-001
9.623049e+002, 1.124547e-001
9.642333e+002, 1.128052e-001
9.661618e+002, 1.133907e-001
9.680903e+002, 1.140180e-001
9.700187e+002, 1.145252e-001
9.719472e+002, 1.149051e-001
9.738757e+002, 1.151990e-001
9.758041e+002, 1.156678e-001
9.777326e+002, 1.161688e-001
9.796611e+002, 1.164787e-001
9.815895e+002, 1.166800e-001
9.835180e+002, 1.167831e-001
9.854465e+002, 1.169868e-001
9.873749e+002, 1.174316e-001
9.893034e+002, 1.177530e-001
9.912319e+002, 1.179383e-001
9.931603e+002, 1.181843e-001
9.950888e+002, 1.184500e-001
9.970173e+002, 1.186756e-001
9.989457e+002, 1.189626e-001
1.000874e+003, 1.191680e-001
1.002803e+003, 1.192432e-001
1.004731e+003, 1.194252e-001
1.006660e+003, 1.197849e-001
1.008588e+003, 1.199333e-001
1.010517e+003, 1.200909e-001
1.012445e+003, 1.204706e-001
1.014373e+003, 1.208540e-001
1.016302e+003, 1.211142e-001
1.018230e+003, 1.212543e-001
1.020159e+003, 1.212838e-001
1.022087e+003, 1.215615e-001
1.024016e+003, 1.219775e-001
1.025944e+003, 1.221823e-001
1.027873e+003, 1.224061e-001
1.029801e+003, 1.225120e-001
1.031730e+003, 1.226421e-001
1.033658e+003, 1.227791e-001
1.035587e+003, 1.228642e-001
1.037515e+003, 1.230401e-001
1.039443e+003, 1.232498e-001
1.041372e+003, 1.234103e-001
1.043300e+003, 1.234947e-001
1.045229e+003, 1.236390e-001
1.047157e+003, 1.237445e-001
1.049086e+003, 1.236598e-001
1.051014e+003, 1.236099e-001
1.052943e+003, 1.236157e-001
1.054871e+003, 1.235997e-001
1.056800e+003, 1.236511e-001
1.058728e+003, 1.236698e-001
1.060657e+003, 1.237977e-001
1.062585e+003, 1.237920e-001
1.064514e+003, 1.237719e-001
1.066442e+003, 1.239849e-001
1.068370e+003, 1.242995e-001
1.070299e+003, 1.244717e-001
1.072227e+003, 1.244387e-001
1.074156e+003, 1.243752e-001
1.076084e+003, 1.246020e-001
1.078013e+003, 1.249715e-001
1.079941e+003, 1.252099e-001
1.081870e+003, 1.254386e-001
1.083798e+003, 1.255786e-001
1.085727e+003, 1.255464e-001
1.087655e+003, 1.257897e-001
1.089584e+003, 1.261342e-001
1.091512e+003, 1.262441e-001
1.093441e+003, 1.264399e-001
1.095369e+003, 1.266942e-001
1.097297e+003, 1.269142e-001
1.099226e+003, 1.270332e-001
1.101154e+003, 1.274164e-001
1.103083e+003, 1.276874e-001
1.105011e+003, 1.279370e-001
1.106940e+003, 1.283251e-001
1.108868e+003, 1.285930e-001
1.110797e+003, 1.288478e-001
1.112725e+003, 1.292152e-001
1.114654e+003, 1.297227e-001
1.116582e+003, 1.303756e-001
1.118511e+003, 1.309310e-001
1.120439e+003, 1.313840e-001
1.122368e+003, 1.318464e-001
1.124296e+003, 1.321721e-001
1.126224e+003, 1.326480e-001
1.128153e+003, 1.331462e-001
1.130081e+003, 1.336199e-001
1.132010e+003, 1.342205e-001
1.133938e+003, 1.347887e-001
1.135867e+003, 1.354010e-001
1.137795e+003, 1.360397e-001
1.139724e+003, 1.367340e-001
1.141652e+003, 1.374495e-001
1.143581e+003, 1.380815e-001
1.145509e+003, 1.388718e-001
1.147438e+003, 1.395492e-001
1.149366e+003, 1.400036e-001
1.151295e+003, 1.405926e-001
1.153223e+003, 1.412527e-001
1.155151e+003, 1.418977e-001
1.157080e+003, 1.426586e-001
1.159008e+003, 1.433474e-001
1.160937e+003, 1.439502e-001
1.162865e+003, 1.447596e-001
1.164794e+003, 1.454363e-001
1.166722e+003, 1.462717e-001
1.168651e+003, 1.472270e-001
1.170579e+003, 1.478831e-001
1.172508e+003, 1.485478e-001
1.174436e+003, 1.492558e-001
1.176365e+003, 1.500729e-001
1.178293e+003, 1.508651e-001
1.180222e+003, 1.516559e-001
1.182150e+003, 1.524715e-001
1.184078e+003, 1.531509e-001
1.186007e+003, 1.537679e-001
1.187935e+003, 1.542282e-001
1.189864e+003, 1.547475e-001
1.191792e+003, 1.553343e-001
1.193721e+003, 1.558568e-001
1.195649e+003, 1.563595e-001
1.197578e+003, 1.567197e-001
1.199506e+003, 1.570379e-001
1.201435e+003, 1.573550e-001
1.203363e+003, 1.575478e-001
1.205292e+003, 1.574711e-001
1.207220e+003, 1.572212e-001
1.209149e+003, 1.568508e-001
1.211077e+003, 1.565355e-001
1.213005e+003, 1.563073e-001
1.214934e+003, 1.561766e-001
1.216862e+003, 1.559090e-001
1.218791e+003, 1.555751e-001
1.220719e+003, 1.549472e-001
1.222648e+003, 1.541759e-001
1.224576e+003, 1.533193e-001
1.226505e+003, 1.522991e-001
1.228433e+003, 1.510751e-001
1.230362e+003, 1.496515e-001
1.232290e+003, 1.483350e-001
1.234219e+003, 1.469097e-001
1.236147e+003, 1.452386e-001
1.238076e+003, 1.435695e-001
1.240004e+003, 1.418847e-001
1.241932e+003, 1.402073e-001
1.243861e+003, 1.385025e-001
1.245789e+003, 1.366908e-001
1.247718e+003, 1.348621e-001
1.249646e+003, 1.333629e-001
1.251575e+003, 1.318912e-001
1.253503e+003, 1.303598e-001
1.255432e+003, 1.291755e-001
1.257360e+003, 1.279591e-001
1.259289e+003, 1.264743e-001
1.261217e+003, 1.248439e-001
1.263146e+003, 1.233722e-001
1.265074e+003, 1.218231e-001
1.267003e+003, 1.200778e-001
1.268931e+003, 1.184995e-001
1.270859e+003, 1.170228e-001
1.272788e+003, 1.155521e-001
1.274716e+003, 1.141893e-001
1.276645e+003, 1.127579e-001
1.278573e+003, 1.112746e-001
1.280502e+003, 1.097984e-001
1.282430e+003, 1.084063e-001
1.284359e+003, 1.069967e-001
1.286287e+003, 1.053569e-001
1.288216e+003, 1.033932e-001
1.290144e+003, 1.012421e-001
1.292073e+003, 9.868865e-002
1.294001e+003, 9.576113e-002
1.295930e+003, 9.252793e-002
1.297858e+003, 8.903601e-002
1.299786e+003, 8.539256e-002
1.301715e+003, 8.154683e-002
1.303643e+003, 7.760807e-002
1.305572e+003, 7.402595e-002
1.307500e+003, 7.118557e-002
1.309429e+003, 6.812394e-002
1.311357e+003, 6.489820e-002
1.313286e+003, 6.181851e-002
1.315214e+003, 5.880240e-002
1.317143e+003, 5.604549e-002
1.319071e+003, 5.327515e-002
1.321000e+003, 5.070375e-002
1.322928e+003, 4.863501e-002
1.324857e+003, 4.684159e-002
1.326785e+003, 4.516472e-002
1.328714e+003, 4.406044e-002
1.330642e+003, 4.337737e-002
1.332570e+003, 4.294688e-002
1.334499e+003, 4.287701e-002
1.336427e+003, 4.282725e-002
1.338356e+003, 4.303250e-002
1.340284e+003, 4.346133e-002
1.342213e+003, 4.375859e-002
1.344141e+003, 4.434244e-002
1.346070e+003, 4.488117e-002
1.347998e+003, 4.555453e-002
1.349927e+003, 4.645677e-002
1.351855e+003, 4.721208e-002
1.353784e+003, 4.794079e-002
1.355712e+003, 4.879132e-002
1.357641e+003, 4.967493e-002
1.359569e+003, 5.050407e-002
1.361497e+003, 5.140883e-002
1.363426e+003, 5.219930e-002
1.365354e+003, 5.302823e-002
1.367283e+003, 5.393303e-002
1.369211e+003, 5.485502e-002
1.371140e+003, 5.578923e-002
1.373068e+003, 5.673689e-002
1.374997e+003, 5.775401e-002
1.376925e+003, 5.874357e-002
1.378854e+003, 5.975846e-002
1.380782e+003, 6.070411e-002
1.382711e+003, 6.143233e-002
1.384639e+003, 6.228743e-002
1.386568e+003, 6.339947e-002
1.388496e+003, 6.440371e-002
1.390424e+003, 6.518782e-002
1.392353e+003, 6.617206e-002
1.394281e+003, 6.737962e-002
1.396210e+003, 6.849110e-002
1.398138e+003, 6.949683e-002
1.400067e+003, 7.067042e-002
1.401995e+003, 7.190618e-002
1.403924e+003, 7.330581e-002
1.405852e+003, 7.470495e-002
1.407781e+003, 7.585006e-002
1.409709e+003, 7.701019e-002
1.411638e+003, 7.806090e-002
1.413566e+003, 7.903299e-002
1.415495e+003, 7.997534e-002
1.417423e+003, 8.086502e-002
1.419351e+003, 8.157892e-002
1.421280e+003, 8.246823e-002
1.423208e+003, 8.330460e-002
1.425137e+003, 8.413456e-002
1.427065e+003, 8.484615e-002
1.428994e+003, 8.550511e-002
1.430922e+003, 8.625431e-002
1.432851e+003, 8.718990e-002
1.434779e+003, 8.810110e-002
1.436708e+003, 8.893999e-002
1.438636e+003, 8.999393e-002
1.440565e+003, 9.115023e-002
1.442493e+003, 9.229688e-002
1.444422e+003, 9.347718e-002
1.446350e+003, 9.475788e-002
1.448278e+003, 9.598220e-002
1.450207e+003, 9.723013e-002
1.452135e+003, 9.819649e-002
1.454064e+003, 9.893760e-002
1.455992e+003, 9.945042e-002
1.457921e+003, 1.000381e-001
1.459849e+003, 1.004293e-001
1.461778e+003, 1.006399e-001
1.463706e+003, 1.009374e-001
1.465635e+003, 1.010026e-001
1.467563e+003, 1.010758e-001
1.469492e+003, 1.011795e-001
1.471420e+003, 1.012656e-001
1.473349e+003, 1.013639e-001
1.475277e+003, 1.013642e-001
1.477205e+003, 1.012783e-001
1.479134e+003, 1.012756e-001
1.481062e+003, 1.012303e-001
1.482991e+003, 1.011689e-001
1.484919e+003, 1.011623e-001
1.486848e+003, 1.009275e-001
1.488776e+003, 1.004201e-001
1.490705e+003, 9.982151e-002
1.492633e+003, 9.951337e-002
1.494562e+003, 9.929118e-002
1.496490e+003, 9.888337e-002
1.498419e+003, 9.844472e-002
1.500347e+003, 9.798384e-002
1.502276e+003, 9.752478e-002
1.504204e+003, 9.701222e-002
1.506132e+003, 9.657149e-002
1.508061e+003, 9.625454e-002
1.509989e+003, 9.581941e-002
1.511918e+003, 9.533212e-002
1.513846e+003, 9.502203e-002
1.515775e+003, 9.476042e-002
1.517703e+003, 9.455240e-002
1.519632e+003, 9.423415e-002
1.521560e+003, 9.395163e-002
1.523489e+003, 9.389396e-002
1.525417e+003, 9.386827e-002
1.527346e+003, 9.366348e-002
1.529274e+003, 9.346928e-002
1.531203e+003, 9.341795e-002
1.533131e+003, 9.319255e-002
1.535059e+003, 9.297384e-002
1.536988e+003, 9.298258e-002
1.538916e+003, 9.303287e-002
1.540845e+003, 9.283883e-002
1.542773e+003, 9.256616e-002
1.544702e+003, 9.251544e-002
1.546630e+003, 9.267253e-002
1.548559e+003, 9.267401e-002
1.550487e+003, 9.265478e-002
1.552416e+003, 9.250926e-002
1.554344e+003, 9.236438e-002
1.556273e+003, 9.233121e-002
1.558201e+003, 9.235472e-002
1.560130e+003, 9.239700e-002
1.562058e+003, 9.254213e-002
1.563986e+003, 9.260953e-002
1.565915e+003, 9.261446e-002
1.567843e+003, 9.262551e-002
1.569772e+003, 9.278451e-002
1.571700e+003, 9.293152e-002
1.573629e+003, 9.282884e-002
1.575557e+003, 9.284277e-002
1.577486e+003, 9.308603e-002
1.579414e+003, 9.327035e-002
1.581343e+003, 9.324364e-002
1.583271e+003, 9.342022e-002
1.585200e+003, 9.372496e-002
1.587128e+003, 9.387793e-002
1.589057e+003, 9.388547e-002
1.590985e+003, 9.407233e-002
1.592913e+003, 9.441835e-002
1.594842e+003, 9.466819e-002
1.596770e+003, 9.493010e-002
1.598699e+003, 9.504938e-002
1.600627e+003, 9.497283e-002
1.602556e+003, 9.502128e-002
1.604484e+003, 9.529685e-002
1.606413e+003, 9.549253e-002
1.608341e+003, 9.566966e-002
1.610270e+003, 9.590659e-002
1.612198e+003, 9.618839e-002
1.614127e+003, 9.639146e-002
1.616055e+003, 9.648968e-002
1.617984e+003, 9.670506e-002
1.619912e+003, 9.715173e-002
1.621840e+003, 9.732461e-002
1.623769e+003, 9.736340e-002
1.625697e+003, 9.753984e-002
1.627626e+003, 9.769055e-002
1.629554e+003, 9.782244e-002
1.631483e+003, 9.808356e-002
1.633411e+003, 9.839100e-002
1.635340e+003, 9.861139e-002
1.637268e+003, 9.866564e-002
1.639197e+003, 9.878811e-002
1.641125e+003, 9.897640e-002
1.643054e+003, 9.933201e-002
1.644982e+003, 9.969543e-002
1.646911e+003, 9.989309e-002
1.648839e+003, 9.991952e-002
1.650767e+003, 9.987243e-002
1.652696e+003, 9.988616e-002
1.654624e+003, 1.001466e-001
1.656553e+003, 1.004463e-001
1.658481e+003, 1.006009e-001
1.660410e+003, 1.008045e-001
1.662338e+003, 1.010022e-001
1.664267e+003, 1.012145e-001
1.666195e+003, 1.015046e-001
1.668124e+003, 1.016438e-001
1.670052e+003, 1.018112e-001
1.671981e+003, 1.019257e-001
1.673909e+003, 1.019673e-001
1.675838e+003, 1.021748e-001
1.677766e+003, 1.022694e-001
1.679694e+003, 1.022107e-001
1.681623e+003, 1.025418e-001
1.683551e+003, 1.028542e-001
1.685480e+003, 1.030600e-001
1.687408e+003, 1.031979e-001
1.689337e+003, 1.034079e-001
1.691265e+003, 1.036327e-001
1.693194e+003, 1.037344e-001
1.695122e+003, 1.037948e-001
1.697051e+003, 1.040429e-001
1.698979e+003, 1.041234e-001
1.700908e+003, 1.040796e-001
1.702836e+003, 1.043357e-001
1.704765e+003, 1.045429e-001
1.706693e+003, 1.047408e-001
1.708621e+003, 1.048798e-001
1.710550e+003, 1.050385e-001
1.712478e+003, 1.052201e-001
1.714407e+003, 1.053962e-001
1.716335e+003, 1.054646e-001
1.718264e+003, 1.056872e-001
1.720192e+003, 1.058991e-001
1.722121e+003, 1.058765e-001
1.724049e+003, 1.058414e-001
1.725978e+003, 1.058351e-001
1.727906e+003, 1.059699e-001
1.729835e+003, 1.060593e-001
1.731763e+003, 1.062077e-001
1.733692e+003, 1.063465e-001
1.735620e+003, 1.065750e-001
1.737548e+003, 1.067272e-001
1.739477e+003, 1.066549e-001
1.741405e+003, 1.067460e-001
1.743334e+003, 1.069651e-001
1.745262e+003, 1.069488e-001
1.747191e+003, 1.070294e-001
1.749119e+003, 1.072365e-001
1.751048e+003, 1.074813e-001
1.752976e+003, 1.080019e-001
1.754905e+003, 1.084250e-001
1.756833e+003, 1.085891e-001
1.758762e+003, 1.085390e-001
1.760690e+003, 1.085845e-001
1.762619e+003, 1.089601e-001
1.764547e+003, 1.093597e-001
1.766475e+003, 1.093574e-001
1.768404e+003, 1.092495e-001
1.770332e+003, 1.094413e-001
1.772261e+003, 1.097127e-001
1.774189e+003, 1.097349e-001
1.776118e+003, 1.097427e-001
1.778046e+003, 1.100003e-001
1.779975e+003, 1.102204e-001
1.781903e+003, 1.103941e-001
1.783832e+003, 1.104947e-001
1.785760e+003, 1.106427e-001
1.787689e+003, 1.107075e-001
1.789617e+003, 1.107257e-001
1.791546e+003, 1.108344e-001
1.793474e+003, 1.109391e-001
1.795402e+003, 1.112665e-001
1.797331e+003, 1.115620e-001
1.799259e+003, 1.116068e-001
1.801188e+003, 1.115832e-001
1.803116e+003, 1.117522e-001
1.805045e+003, 1.119598e-001
1.806973e+003, 1.120708e-001
1.808902e+003, 1.117768e-001
1.810830e+003, 1.118149e-001
1.812759e+003, 1.121196e-001
1.814687e+003, 1.122275e-001
1.816616e+003, 1.121518e-001
1.818544e+003, 1.124788e-001
1.820473e+003, 1.131279e-001
1.822401e+003, 1.135563e-001
1.824329e+003, 1.134225e-001
1.826258e+003, 1.133222e-001
1.828186e+003, 1.133129e-001
1.830115e+003, 1.132760e-001
1.832043e+003, 1.135178e-001
1.833972e+003, 1.138686e-001
1.835900e+003, 1.138281e-001
1.837829e+003, 1.140638e-001
1.839757e+003, 1.143341e-001
1.841686e+003, 1.146269e-001
1.843614e+003, 1.145784e-001
1.845543e+003, 1.146488e-001
1.847471e+003, 1.145360e-001
1.849400e+003, 1.143608e-001
1.851328e+003, 1.147278e-001
1.853256e+003, 1.150061e-001
1.855185e+003, 1.150941e-001
1.857113e+003, 1.155052e-001
1.859042e+003, 1.155786e-001
1.860970e+003, 1.152304e-001
1.862899e+003, 1.155047e-001
1.864827e+003, 1.159043e-001
1.866756e+003, 1.157612e-001
1.868684e+003, 1.155393e-001
1.870613e+003, 1.158385e-001
1.872541e+003, 1.163401e-001
1.874470e+003, 1.161517e-001
1.876398e+003, 1.158592e-001
1.878327e+003, 1.161129e-001
1.880255e+003, 1.163707e-001
1.882183e+003, 1.161626e-001
1.884112e+003, 1.163322e-001
1.886040e+003, 1.166209e-001
1.887969e+003, 1.167957e-001
1.889897e+003, 1.168483e-001
1.891826e+003, 1.170930e-001
1.893754e+003, 1.174901e-001
1.895683e+003, 1.176301e-001
1.897611e+003, 1.177069e-001
1.899540e+003, 1.177183e-001
1.901468e+003, 1.177660e-001
1.903397e+003, 1.179653e-001
1.905325e+003, 1.180802e-001
1.907254e+003, 1.183721e-001
1.909182e+003, 1.185907e-001
1.911110e+003, 1.186708e-001
1.913039e+003, 1.185861e-001
1.914967e+003, 1.186630e-001
1.916896e+003, 1.187881e-001
1.918824e+003, 1.189907e-001
1.920753e+003, 1.189544e-001
1.922681e+003, 1.187828e-001
1.924610e+003, 1.186465e-001
1.926538e+003, 1.189072e-001
1.928467e+003, 1.196575e-001
1.930395e+003, 1.201708e-001
1.932324e+003, 1.200268e-001
1.934252e+003, 1.196710e-001
1.936181e+003, 1.196078e-001
1.938109e+003, 1.198343e-001
1.940037e+003, 1.197408e-001
1.941966e+003, 1.200879e-001
1.943894e+003, 1.201647e-001
1.945823e+003, 1.200215e-001
1.947751e+003, 1.205777e-001
1.949680e+003, 1.209796e-001
1.951608e+003, 1.201702e-001
1.953537e+003, 1.202641e-001
1.955465e+003, 1.210433e-001
1.957394e+003, 1.211119e-001
1.959322e+003, 1.212184e-001
1.961251e+003, 1.211587e-001
1.963179e+003, 1.212582e-001
1.965108e+003, 1.210908e-001
1.967036e+003, 1.214250e-001
1.968964e+003, 1.204749e-001
1.970893e+003, 1.203485e-001
1.972821e+003, 1.221177e-001
1.974750e+003, 1.221536e-001
1.976678e+003, 1.219963e-001
1.978607e+003, 1.234108e-001
1.980535e+003, 1.234536e-001
1.982464e+003, 1.233329e-001
1.984392e+003, 1.240120e-001
1.986321e+003, 1.241039e-001
1.988249e+003, 1.242784e-001
1.990178e+003, 1.242639e-001
1.992106e+003, 1.237392e-001
1.994035e+003, 1.229619e-001
1.995963e+003, 1.221990e-001
1.997891e+003, 1.218735e-001
1.999820e+003, 1.227700e-001
2.001748e+003, 1.227603e-001
2.003677e+003, 1.214328e-001
2.005605e+003, 1.218786e-001
2.007534e+003, 1.237293e-001
2.009462e+003, 1.241585e-001
2.011391e+003, 1.247135e-001
2.013319e+003, 1.247472e-001
2.015248e+003, 1.253029e-001
2.017176e+003, 1.247913e-001
2.019105e+003, 1.239416e-001
2.021033e+003, 1.233710e-001
2.022962e+003, 1.232680e-001
2.024890e+003, 1.236187e-001
2.026818e+003, 1.248764e-001
2.028747e+003, 1.258875e-001
2.030675e+003, 1.265342e-001
2.032604e+003, 1.257614e-001
2.034532e+003, 1.256743e-001
2.036461e+003, 1.263490e-001
2.038389e+003, 1.269291e-001
2.040318e+003, 1.268512e-001
2.042246e+003, 1.267955e-001
2.044175e+003, 1.267902e-001
2.046103e+003, 1.265563e-001
2.048031e+003, 1.259171e-001
2.049960e+003, 1.265433e-001
2.051888e+003, 1.259514e-001
2.053817e+003, 1.259577e-001
2.055745e+003, 1.267737e-001
2.057674e+003, 1.260119e-001
2.059602e+003, 1.249775e-001
2.061531e+003, 1.258569e-001
2.063459e+003, 1.263053e-001
2.065388e+003, 1.259923e-001
2.067316e+003, 1.264020e-001
2.069245e+003, 1.271077e-001
2.071173e+003, 1.270848e-001
2.073102e+003, 1.271554e-001
2.075030e+003, 1.276769e-001
2.076958e+003, 1.279438e-001
2.078887e+003, 1.276007e-001
2.080815e+003, 1.273303e-001
2.082744e+003, 1.274485e-001
2.084672e+003, 1.279569e-001
2.086601e+003, 1.278625e-001
2.088529e+003, 1.275249e-001
2.090458e+003, 1.277101e-001
2.092386e+003, 1.277128e-001
2.094315e+003, 1.278848e-001
2.096243e+003, 1.282398e-001
2.098172e+003, 1.281415e-001
2.100100e+003, 1.283072e-001
2.102029e+003, 1.288853e-001
2.103957e+003, 1.295959e-001
2.105885e+003, 1.294525e-001
2.107814e+003, 1.289912e-001
2.109742e+003, 1.295385e-001
2.111671e+003, 1.301625e-001
2.113599e+003, 1.301263e-001
2.115528e+003, 1.296888e-001
2.117456e+003, 1.292875e-001
2.119385e+003, 1.286882e-001
2.121313e+003, 1.284519e-001
2.123242e+003, 1.288129e-001
2.125170e+003, 1.283172e-001
2.127099e+003, 1.279266e-001
2.129027e+003, 1.280423e-001
2.130956e+003, 1.280518e-001
2.132884e+003, 1.277739e-001
2.134813e+003, 1.283452e-001
2.136741e+003, 1.288892e-001
2.138669e+003, 1.280739e-001
2.140598e+003, 1.277467e-001
2.142526e+003, 1.286395e-001
2.144455e+003, 1.284431e-001
2.146383e+003, 1.273059e-001
2.148312e+003, 1.269264e-001
2.150240e+003, 1.273450e-001
2.152169e+003, 1.287965e-001
2.154097e+003, 1.300679e-001
2.156026e+003, 1.284155e-001
2.157954e+003, 1.288156e-001
2.159883e+003, 1.313391e-001
2.161811e+003, 1.323330e-001
2.163740e+003, 1.320804e-001
2.165668e+003, 1.322405e-001
2.167596e+003, 1.317264e-001
2.169525e+003, 1.316301e-001
2.171453e+003, 1.317990e-001
2.173382e+003, 1.312977e-001
2.175310e+003, 1.305974e-001
2.177239e+003, 1.301374e-001
2.179167e+003, 1.297540e-001
2.181096e+003, 1.309638e-001
2.183024e+003, 1.324928e-001
2.184953e+003, 1.335284e-001
2.186881e+003, 1.334708e-001
2.188810e+003, 1.326566e-001
2.190738e+003, 1.318683e-001
2.192667e+003, 1.313897e-001
2.194595e+003, 1.324602e-001
2.196523e+003, 1.334249e-001
2.198452e+003, 1.326767e-001
2.200380e+003, 1.322792e-001
2.202309e+003, 1.319170e-001
2.204237e+003, 1.307753e-001
2.206166e+003, 1.312682e-001
2.208094e+003, 1.318773e-001
2.210023e+003, 1.314200e-001
2.211951e+003, 1.316956e-001
2.213880e+003, 1.322988e-001
2.215808e+003, 1.321753e-001
2.217737e+003, 1.320869e-001
2.219665e+003, 1.322490e-001
2.221594e+003, 1.327448e-001
2.223522e+003, 1.326228e-001
2.225450e+003, 1.320256e-001
2.227379e+003, 1.319641e-001
2.229307e+003, 1.327610e-001
2.231236e+003, 1.328901e-001
2.233164e+003, 1.327688e-001
2.235093e+003, 1.333480e-001
2.237021e+003, 1.334597e-001
2.238950e+003, 1.328651e-001
2.240878e+003, 1.323550e-001
2.242807e+003, 1.328016e-001
2.244735e+003, 1.329528e-001
2.246664e+003, 1.330895e-001
2.248592e+003, 1.332748e-001
2.250521e+003, 1.334654e-001
2.252449e+003, 1.338632e-001
2.254377e+003, 1.341566e-001
2.256306e+003, 1.341640e-001
2.258234e+003, 1.337640e-001
2.260163e+003, 1.335292e-001
2.262091e+003, 1.335604e-001
2.264020e+003, 1.339165e-001
2.265948e+003, 1.340759e-001
2.267877e+003, 1.340176e-001
2.269805e+003, 1.346749e-001
2.271734e+003, 1.347988e-001
2.273662e+003, 1.350756e-001
2.275591e+003, 1.352384e-001
2.277519e+003, 1.350740e-001
2.279448e+003, 1.355949e-001
2.281376e+003, 1.358514e-001
2.283304e+003, 1.355986e-001
2.285233e+003, 1.361152e-001
2.287161e+003, 1.363601e-001
2.289090e+003, 1.359637e-001
2.291018e+003, 1.359975e-001
2.292947e+003, 1.361162e-001
2.294875e+003, 1.358945e-001
2.296804e+003, 1.358822e-001
2.298732e+003, 1.358384e-001
2.300661e+003, 1.360743e-001
2.302589e+003, 1.363533e-001
2.304518e+003, 1.363366e-001
2.306446e+003, 1.364241e-001
2.308375e+003, 1.365012e-001
2.310303e+003, 1.364656e-001
2.312231e+003, 1.369744e-001
2.314160e+003, 1.372088e-001
2.316088e+003, 1.375387e-001
2.318017e+003, 1.380750e-001
2.319945e+003, 1.386904e-001
2.321874e+003, 1.393429e-001
2.323802e+003, 1.397731e-001
2.325731e+003, 1.398203e-001
2.327659e+003, 1.394505e-001
2.329588e+003, 1.393545e-001
2.331516e+003, 1.395365e-001
2.333445e+003, 1.399196e-001
2.335373e+003, 1.405538e-001
2.337302e+003, 1.406436e-001
2.339230e+003, 1.403224e-001
2.341158e+003, 1.404458e-001
2.343087e+003, 1.400506e-001
2.345015e+003, 1.390193e-001
2.346944e+003, 1.384120e-001
2.348872e+003, 1.380884e-001
2.350801e+003, 1.382757e-001
2.352729e+003, 1.391617e-001
2.354658e+003, 1.404373e-001
2.356586e+003, 1.412114e-001
2.358515e+003, 1.415387e-001
2.360443e+003, 1.417887e-001
2.362372e+003, 1.418187e-001
2.364300e+003, 1.418184e-001
2.366229e+003, 1.416140e-001
2.368157e+003, 1.411593e-001
2.370085e+003, 1.403716e-001
2.372014e+003, 1.394318e-001
2.373942e+003, 1.387162e-001
2.375871e+003, 1.381757e-001
2.377799e+003, 1.379203e-001
2.379728e+003, 1.375619e-001
2.381656e+003, 1.373994e-001
2.383585e+003, 1.371483e-001
2.385513e+003, 1.371812e-001
2.387442e+003, 1.375281e-001
2.389370e+003, 1.375421e-001
2.391299e+003, 1.376584e-001
2.393227e+003, 1.374999e-001
2.395156e+003, 1.373366e-001
2.397084e+003, 1.373276e-001
2.399012e+003, 1.375695e-001
2.400941e+003, 1.378522e-001
2.402869e+003, 1.374816e-001
2.404798e+003, 1.375329e-001
2.406726e+003, 1.379194e-001
2.408655e+003, 1.383589e-001
2.410583e+003, 1.383995e-001
2.412512e+003, 1.381121e-001
2.414440e+003, 1.383251e-001
2.416369e+003, 1.385493e-001
2.418297e+003, 1.382135e-001
2.420226e+003, 1.377568e-001
2.422154e+003, 1.374778e-001
2.424083e+003, 1.379609e-001
2.426011e+003, 1.385831e-001
2.427939e+003, 1.385043e-001
2.429868e+003, 1.386509e-001
2.431796e+003, 1.386109e-001
2.433725e+003, 1.382563e-001
2.435653e+003, 1.382051e-001
2.437582e+003, 1.387191e-001
2.439510e+003, 1.391051e-001
2.441439e+003, 1.388782e-001
2.443367e+003, 1.385891e-001
2.445296e+003, 1.385125e-001
2.447224e+003, 1.386044e-001
2.449153e+003, 1.387770e-001
2.451081e+003, 1.392246e-001
2.453010e+003, 1.388621e-001
2.454938e+003, 1.387419e-001
2.456866e+003, 1.393801e-001
2.458795e+003, 1.393685e-001
2.460723e+003, 1.393197e-001
2.462652e+003, 1.391945e-001
2.464580e+003, 1.393007e-001
2.466509e+003, 1.394198e-001
2.468437e+003, 1.388210e-001
2.470366e+003, 1.384966e-001
2.472294e+003, 1.390066e-001
2.474223e+003, 1.395910e-001
2.476151e+003, 1.398209e-001
2.478080e+003, 1.399970e-001
2.480008e+003, 1.401003e-001
2.481937e+003, 1.401225e-001
2.483865e+003, 1.399475e-001
2.485793e+003, 1.404316e-001
2.487722e+003, 1.406237e-001
2.489650e+003, 1.406567e-001
2.491579e+003, 1.402528e-001
2.493507e+003, 1.402286e-001
2.495436e+003, 1.407982e-001
2.497364e+003, 1.406722e-001
2.499293e+003, 1.404479e-001
2.501221e+003, 1.404496e-001
2.503150e+003, 1.403819e-001
2.505078e+003, 1.407524e-001
2.507007e+003, 1.413348e-001
2.508935e+003, 1.415946e-001
2.510864e+003, 1.417061e-001
2.512792e+003, 1.416602e-001
2.514720e+003, 1.417749e-001
2.516649e+003, 1.418551e-001
2.518577e+003, 1.417343e-001
2.520506e+003, 1.417814e-001
2.522434e+003, 1.415898e-001
2.524363e+003, 1.414980e-001
2.526291e+003, 1.420110e-001
2.528220e+003, 1.426309e-001
2.530148e+003, 1.425097e-001
2.532077e+003, 1.425386e-001
2.534005e+003, 1.430793e-001
2.535934e+003, 1.430807e-001
2.537862e+003, 1.428718e-001
2.539791e+003, 1.429409e-001
2.541719e+003, 1.425346e-001
2.543647e+003, 1.425379e-001
2.545576e+003, 1.428094e-001
2.547504e+003, 1.430958e-001
2.549433e+003, 1.430602e-001
2.551361e+003, 1.432414e-001
2.553290e+003, 1.431996e-001
2.555218e+003, 1.430477e-001
2.557147e+003, 1.431607e-001
2.559075e+003, 1.434845e-001
2.561004e+003, 1.433370e-001
2.562932e+003, 1.436019e-001
2.564861e+003, 1.440398e-001
2.566789e+003, 1.439736e-001
2.568718e+003, 1.438463e-001
2.570646e+003, 1.446306e-001
2.572574e+003, 1.448940e-001
2.574503e+003, 1.444844e-001
2.576431e+003, 1.443797e-001
2.578360e+003, 1.444933e-001
2.580288e+003, 1.445940e-001
2.582217e+003, 1.446944e-001
2.584145e+003, 1.446546e-001
2.586074e+003, 1.449941e-001
2.588002e+003, 1.451087e-001
2.589931e+003, 1.451271e-001
2.591859e+003, 1.453291e-001
2.593788e+003, 1.457043e-001
2.595716e+003, 1.456556e-001
2.597645e+003, 1.453127e-001
2.599573e+003, 1.450994e-001
2.601501e+003, 1.454193e-001
2.603430e+003, 1.458474e-001
2.605358e+003, 1.461373e-001
2.607287e+003, 1.465069e-001
2.609215e+003, 1.467337e-001
2.611144e+003, 1.470608e-001
2.613072e+003, 1.474200e-001
2.615001e+003, 1.475643e-001
2.616929e+003, 1.473339e-001
2.618858e+003, 1.473042e-001
2.620786e+003, 1.472182e-001
2.622715e+003, 1.473180e-001
2.624643e+003, 1.476858e-001
2.626572e+003, 1.478228e-001
2.628500e+003, 1.479758e-001
2.630428e+003, 1.480521e-001
2.632357e+003, 1.480961e-001
2.634285e+003, 1.477897e-001
2.636214e+003, 1.474032e-001
2.638142e+003, 1.480052e-001
2.640071e+003, 1.488521e-001
2.641999e+003, 1.489566e-001
2.643928e+003, 1.489463e-001
2.645856e+003, 1.491531e-001
2.647785e+003, 1.492008e-001
2.649713e+003, 1.487705e-001
2.651642e+003, 1.486517e-001
2.653570e+003, 1.487800e-001
2.655499e+003, 1.490252e-001
2.657427e+003, 1.489654e-001
2.659355e+003, 1.488928e-001
2.661284e+003, 1.488501e-001
2.663212e+003, 1.485911e-001
2.665141e+003, 1.486104e-001
2.667069e+003, 1.489262e-001
2.668998e+003, 1.489144e-001
2.670926e+003, 1.490014e-001
2.672855e+003, 1.493659e-001
2.674783e+003, 1.494299e-001
2.676712e+003, 1.493355e-001
2.678640e+003, 1.494402e-001
2.680569e+003, 1.495492e-001
2.682497e+003, 1.494357e-001
2.684426e+003, 1.494335e-001
2.686354e+003, 1.495251e-001
2.688282e+003, 1.496390e-001
2.690211e+003, 1.496934e-001
2.692139e+003, 1.497291e-001
2.694068e+003, 1.496315e-001
2.695996e+003, 1.495019e-001
2.697925e+003, 1.496550e-001
2.699853e+003, 1.496958e-001
2.701782e+003, 1.496520e-001
2.703710e+003, 1.498912e-001
2.705639e+003, 1.501853e-001
2.707567e+003, 1.502291e-001
2.709496e+003, 1.502363e-001
2.711424e+003, 1.503020e-001
2.713353e+003, 1.501737e-001
2.715281e+003, 1.500104e-001
2.717209e+003, 1.500903e-001
2.719138e+003, 1.502342e-001
2.721066e+003, 1.501740e-001
2.722995e+003, 1.505335e-001
2.724923e+003, 1.509302e-001
2.726852e+003, 1.506833e-001
2.728780e+003, 1.507860e-001
2.730709e+003, 1.507288e-001
2.732637e+003, 1.504556e-001
2.734566e+003, 1.506236e-001
2.736494e+003, 1.510474e-001
2.738423e+003, 1.509691e-001
2.740351e+003, 1.509716e-001
2.742280e+003, 1.510709e-001
2.744208e+003, 1.507763e-001
2.746136e+003, 1.505885e-001
2.748065e+003, 1.508108e-001
2.749993e+003, 1.509671e-001
2.751922e+003, 1.511414e-001
2.753850e+003, 1.511172e-001
2.755779e+003, 1.512726e-001
2.757707e+003, 1.512182e-001
2.759636e+003, 1.510450e-001
2.761564e+003, 1.508724e-001
2.763493e+003, 1.509220e-001
2.765421e+003, 1.512325e-001
2.767350e+003, 1.516773e-001
2.769278e+003, 1.517055e-001
2.771207e+003, 1.516015e-001
2.773135e+003, 1.516555e-001
2.775063e+003, 1.517112e-001
2.776992e+003, 1.516343e-001
2.778920e+003, 1.517448e-001
2.780849e+003, 1.517517e-001
2.782777e+003, 1.516130e-001
2.784706e+003, 1.519938e-001
2.786634e+003, 1.520681e-001
2.788563e+003, 1.517153e-001
2.790491e+003, 1.517372e-001
2.792420e+003, 1.520291e-001
2.794348e+003, 1.524600e-001
2.796277e+003, 1.525030e-001
2.798205e+003, 1.521549e-001
2.800134e+003, 1.523189e-001
2.802062e+003, 1.527557e-001
2.803990e+003, 1.528664e-001
2.805919e+003, 1.529851e-001
2.807847e+003, 1.529131e-001
2.809776e+003, 1.530351e-001
2.811704e+003, 1.532132e-001
2.813633e+003, 1.531573e-001
2.815561e+003, 1.531767e-001
2.817490e+003, 1.529702e-001
2.819418e+003, 1.525751e-001
2.821347e+003, 1.525611e-001
2.823275e+003, 1.529522e-001
2.825204e+003, 1.529739e-001
2.827132e+003, 1.529378e-001
2.829061e+003, 1.530591e-001
2.830989e+003, 1.532923e-001
2.832917e+003, 1.533927e-001
2.834846e+003, 1.531980e-001
2.836774e+003, 1.534196e-001
2.838703e+003, 1.535530e-001
2.840631e+003, 1.536047e-001
2.842560e+003, 1.537012e-001
2.844488e+003, 1.537000e-001
2.846417e+003, 1.535092e-001
2.848345e+003, 1.530004e-001
2.850274e+003, 1.525349e-001
2.852202e+003, 1.521802e-001
2.854131e+003, 1.517201e-001
2.856059e+003, 1.518321e-001
2.857988e+003, 1.520099e-001
2.859916e+003, 1.524514e-001
2.861844e+003, 1.526771e-001
2.863773e+003, 1.529117e-001
2.865701e+003, 1.529851e-001
2.867630e+003, 1.529188e-001
2.869558e+003, 1.530497e-001
2.871487e+003, 1.531080e-001
2.873415e+003, 1.528954e-001
2.875344e+003, 1.529858e-001
2.877272e+003, 1.536811e-001
2.879201e+003, 1.539771e-001
2.881129e+003, 1.537212e-001
2.883058e+003, 1.537166e-001
2.884986e+003, 1.541412e-001
2.886915e+003, 1.544353e-001
2.888843e+003, 1.544904e-001
2.890771e+003, 1.541562e-001
2.892700e+003, 1.537343e-001
2.894628e+003, 1.532791e-001
2.896557e+003, 1.534180e-001
2.898485e+003, 1.536037e-001
2.900414e+003, 1.537171e-001
2.902342e+003, 1.536494e-001
2.904271e+003, 1.535551e-001
2.906199e+003, 1.535092e-001
2.908128e+003, 1.540402e-001
2.910056e+003, 1.542042e-001
2.911985e+003, 1.538140e-001
2.913913e+003, 1.535839e-001
2.915842e+003, 1.532240e-001
2.917770e+003, 1.530791e-001
2.919698e+003, 1.527376e-001
2.921627e+003, 1.517029e-001
2.923555e+003, 1.509115e-001
2.925484e+003, 1.507179e-001
2.927412e+003, 1.509337e-001
2.929341e+003, 1.515416e-001
2.931269e+003, 1.517377e-001
2.933198e+003, 1.517494e-001
2.935126e+003, 1.514772e-001
2.937055e+003, 1.517370e-001
2.938983e+003, 1.522337e-001
2.940912e+003, 1.527001e-001
2.942840e+003, 1.531769e-001
2.944769e+003, 1.531612e-001
2.946697e+003, 1.526512e-001
2.948625e+003, 1.527532e-001
2.950554e+003, 1.530724e-001
2.952482e+003, 1.531493e-001
2.954411e+003, 1.533587e-001
2.956339e+003, 1.527922e-001
2.958268e+003, 1.525433e-001
2.960196e+003, 1.532877e-001
2.962125e+003, 1.535995e-001
2.964053e+003, 1.535735e-001
2.965982e+003, 1.534664e-001
2.967910e+003, 1.533543e-001
2.969839e+003, 1.537646e-001
2.971767e+003, 1.541648e-001
2.973696e+003, 1.541090e-001
2.975624e+003, 1.542136e-001
2.977552e+003, 1.538117e-001
2.979481e+003, 1.541252e-001
2.981409e+003, 1.548862e-001
2.983338e+003, 1.549605e-001
2.985266e+003, 1.549862e-001
2.987195e+003, 1.545330e-001
2.989123e+003, 1.541640e-001
2.991052e+003, 1.546043e-001
2.992980e+003, 1.549002e-001
2.994909e+003, 1.552053e-001
2.996837e+003, 1.554780e-001
2.998766e+003, 1.555464e-001
3.000694e+003, 1.556044e-001
3.002623e+003, 1.559465e-001
3.004551e+003, 1.557202e-001
3.006479e+003, 1.555750e-001
3.008408e+003, 1.554487e-001
3.010336e+003, 1.558025e-001
3.012265e+003, 1.557608e-001
3.014193e+003, 1.536536e-001
3.016122e+003, 1.510931e-001
3.018050e+003, 1.523198e-001
3.019979e+003, 1.555102e-001
3.021907e+003, 1.563128e-001
3.023836e+003, 1.560725e-001
3.025764e+003, 1.562760e-001
3.027693e+003, 1.565922e-001
3.029621e+003, 1.569616e-001
3.031550e+003, 1.567383e-001
3.033478e+003, 1.567491e-001
3.035406e+003, 1.569265e-001
3.037335e+003, 1.570033e-001
3.039263e+003, 1.573873e-001
3.041192e+003, 1.581419e-001
3.043120e+003, 1.584281e-001
3.045049e+003, 1.576378e-001
3.046977e+003, 1.568792e-001
3.048906e+003, 1.567627e-001
3.050834e+003, 1.570937e-001
3.052763e+003, 1.574326e-001
3.054691e+003, 1.570784e-001
3.056620e+003, 1.565074e-001
3.058548e+003, 1.573684e-001
3.060477e+003, 1.581939e-001
3.062405e+003, 1.581822e-001
3.064333e+003, 1.576709e-001
3.066262e+003, 1.567923e-001
3.068190e+003, 1.573702e-001
3.070119e+003, 1.587513e-001
3.072047e+003, 1.587436e-001
3.073976e+003, 1.578089e-001
3.075904e+003, 1.565205e-001
3.077833e+003, 1.572474e-001
3.079761e+003, 1.587725e-001
3.081690e+003, 1.590301e-001
3.083618e+003, 1.584947e-001
3.085547e+003, 1.578418e-001
3.087475e+003, 1.586373e-001
3.089404e+003, 1.592143e-001
3.091332e+003, 1.589323e-001
3.093260e+003, 1.584574e-001
3.095189e+003, 1.582652e-001
3.097117e+003, 1.590297e-001
3.099046e+003, 1.593482e-001
3.100974e+003, 1.592973e-001
3.102903e+003, 1.589406e-001
3.104831e+003, 1.584597e-001
3.106760e+003, 1.588596e-001
3.108688e+003, 1.592058e-001
3.110617e+003, 1.591963e-001
3.112545e+003, 1.587649e-001
3.114474e+003, 1.590567e-001
3.116402e+003, 1.596183e-001
3.118331e+003, 1.597107e-001
3.120259e+003, 1.598425e-001
3.122188e+003, 1.599129e-001
3.124116e+003, 1.601368e-001
3.126044e+003, 1.603581e-001
3.127973e+003, 1.602250e-001
3.129901e+003, 1.601532e-001
3.131830e+003, 1.599465e-001
3.133758e+003, 1.602670e-001
3.135687e+003, 1.607467e-001
3.137615e+003, 1.607362e-001
3.139544e+003, 1.608383e-001
3.141472e+003, 1.610008e-001
3.143401e+003, 1.603461e-001
3.145329e+003, 1.599523e-001
3.147258e+003, 1.602304e-001
3.149186e+003, 1.607734e-001
3.151115e+003, 1.611892e-001
3.153043e+003, 1.614164e-001
3.154971e+003, 1.611627e-001
3.156900e+003, 1.610055e-001
3.158828e+003, 1.610718e-001
3.160757e+003, 1.612366e-001
3.162685e+003, 1.611518e-001
3.164614e+003, 1.617472e-001
3.166542e+003, 1.617933e-001
3.168471e+003, 1.617811e-001
3.170399e+003, 1.618031e-001
3.172328e+003, 1.614680e-001
3.174256e+003, 1.617188e-001
3.176185e+003, 1.617949e-001
3.178113e+003, 1.618685e-001
3.180042e+003, 1.616889e-001
3.181970e+003, 1.616919e-001
3.183898e+003, 1.616812e-001
3.185827e+003, 1.613901e-001
3.187755e+003, 1.619457e-001
3.189684e+003, 1.625389e-001
3.191612e+003, 1.619247e-001
3.193541e+003, 1.617072e-001
3.195469e+003, 1.624034e-001
3.197398e+003, 1.631471e-001
3.199326e+003, 1.629312e-001
3.201255e+003, 1.625024e-001
3.203183e+003, 1.622541e-001
3.205112e+003, 1.624334e-001
3.207040e+003, 1.622179e-001
3.208969e+003, 1.617296e-001
3.210897e+003, 1.620377e-001
3.212825e+003, 1.625102e-001
3.214754e+003, 1.626860e-001
3.216682e+003, 1.627800e-001
3.218611e+003, 1.625047e-001
3.220539e+003, 1.626756e-001
3.222468e+003, 1.630638e-001
3.224396e+003, 1.635324e-001
3.226325e+003, 1.633834e-001
3.228253e+003, 1.629667e-001
3.230182e+003, 1.632456e-001
3.232110e+003, 1.635029e-001
3.234039e+003, 1.631519e-001
3.235967e+003, 1.629589e-001
3.237896e+003, 1.627141e-001
3.239824e+003, 1.629638e-001
3.241752e+003, 1.636077e-001
3.243681e+003, 1.633207e-001
3.245609e+003, 1.630413e-001
3.247538e+003, 1.630713e-001
3.249466e+003, 1.631471e-001
3.251395e+003, 1.633436e-001
3.253323e+003, 1.634115e-001
3.255252e+003, 1.637431e-001
3.257180e+003, 1.639564e-001
3.259109e+003, 1.635720e-001
3.261037e+003, 1.640334e-001
3.262966e+003, 1.643940e-001
3.264894e+003, 1.639116e-001
3.266823e+003, 1.636193e-001
3.268751e+003, 1.631765e-001
3.270679e+003, 1.635312e-001
3.272608e+003, 1.645662e-001
3.274536e+003, 1.650134e-001
3.276465e+003, 1.645642e-001
3.278393e+003, 1.638519e-001
3.280322e+003, 1.640484e-001
3.282250e+003, 1.644050e-001
3.284179e+003, 1.649929e-001
3.286107e+003, 1.649077e-001
3.288036e+003, 1.648104e-001
3.289964e+003, 1.648581e-001
3.291893e+003, 1.652012e-001
3.293821e+003, 1.654399e-001
3.295750e+003, 1.651644e-001
3.297678e+003, 1.649232e-001
3.299606e+003, 1.649345e-001
3.301535e+003, 1.645756e-001
3.303463e+003, 1.645095e-001
3.305392e+003, 1.648642e-001
3.307320e+003, 1.648946e-001
3.309249e+003, 1.650523e-001
3.311177e+003, 1.654697e-001
3.313106e+003, 1.651206e-001
3.315034e+003, 1.650319e-001
3.316963e+003, 1.650288e-001
3.318891e+003, 1.648097e-001
3.320820e+003, 1.651029e-001
3.322748e+003, 1.653854e-001
3.324677e+003, 1.655562e-001
3.326605e+003, 1.656673e-001
3.328533e+003, 1.657503e-001
3.330462e+003, 1.656733e-001
3.332390e+003, 1.656716e-001
3.334319e+003, 1.654666e-001
3.336247e+003, 1.652388e-001
3.338176e+003, 1.654346e-001
3.340104e+003, 1.653644e-001
3.342033e+003, 1.646986e-001
3.343961e+003, 1.648732e-001
3.345890e+003, 1.652782e-001
3.347818e+003, 1.656298e-001
3.349747e+003, 1.660318e-001
3.351675e+003, 1.656957e-001
3.353604e+003, 1.656099e-001
3.355532e+003, 1.660882e-001
3.357460e+003, 1.664256e-001
3.359389e+003, 1.666497e-001
3.361317e+003, 1.663358e-001
3.363246e+003, 1.657280e-001
3.365174e+003, 1.655097e-001
3.367103e+003, 1.656906e-001
3.369031e+003, 1.660391e-001
3.370960e+003, 1.661860e-001
3.372888e+003, 1.657419e-001
3.374817e+003, 1.659783e-001
3.376745e+003, 1.664049e-001
3.378674e+003, 1.662477e-001
3.380602e+003, 1.663266e-001
3.382531e+003, 1.665528e-001
3.384459e+003, 1.666044e-001
3.386387e+003, 1.664799e-001
3.388316e+003, 1.663957e-001
3.390244e+003, 1.667337e-001
3.392173e+003, 1.665004e-001
3.394101e+003, 1.663146e-001
3.396030e+003, 1.666552e-001
3.397958e+003, 1.666530e-001
3.399887e+003, 1.661620e-001
3.401815e+003, 1.660276e-001
3.403744e+003, 1.662578e-001
3.405672e+003, 1.664355e-001
3.407601e+003, 1.665383e-001
3.409529e+003, 1.670370e-001
3.411458e+003, 1.669589e-001
3.413386e+003, 1.666582e-001
3.415314e+003, 1.668511e-001
3.417243e+003, 1.666265e-001
3.419171e+003, 1.664323e-001
3.421100e+003, 1.668403e-001
3.423028e+003, 1.668964e-001
3.424957e+003, 1.670375e-001
3.426885e+003, 1.667394e-001
3.428814e+003, 1.660127e-001
3.430742e+003, 1.658083e-001
3.432671e+003, 1.663838e-001
3.434599e+003, 1.672528e-001
3.436528e+003, 1.674108e-001
3.438456e+003, 1.668235e-001
3.440385e+003, 1.668110e-001
3.442313e+003, 1.668746e-001
3.444241e+003, 1.669884e-001
3.446170e+003, 1.674533e-001
3.448098e+003, 1.673408e-001
3.450027e+003, 1.667808e-001
3.451955e+003, 1.672966e-001
3.453884e+003, 1.675172e-001
3.455812e+003, 1.670226e-001
3.457741e+003, 1.672930e-001
3.459669e+003, 1.678779e-001
3.461598e+003, 1.673464e-001
3.463526e+003, 1.674902e-001
3.465455e+003, 1.686298e-001
3.467383e+003, 1.686881e-001
3.469312e+003, 1.684352e-001
3.471240e+003, 1.686408e-001
3.473168e+003, 1.686965e-001
3.475097e+003, 1.683725e-001
3.477025e+003, 1.682987e-001
3.478954e+003, 1.677747e-001
3.480882e+003, 1.672950e-001
3.482811e+003, 1.676757e-001
3.484739e+003, 1.679880e-001
3.486668e+003, 1.674821e-001
3.488596e+003, 1.676142e-001
3.490525e+003, 1.682432e-001
3.492453e+003, 1.682215e-001
3.494382e+003, 1.676267e-001
3.496310e+003, 1.681347e-001
3.498239e+003, 1.684783e-001
3.500167e+003, 1.682813e-001
3.502095e+003, 1.677760e-001
3.504024e+003, 1.679391e-001
3.505952e+003, 1.686627e-001
3.507881e+003, 1.686942e-001
3.509809e+003, 1.684189e-001
3.511738e+003, 1.688405e-001
3.513666e+003, 1.687762e-001
3.515595e+003, 1.692280e-001
3.517523e+003, 1.690439e-001
3.519452e+003, 1.685075e-001
3.521380e+003, 1.684285e-001
3.523309e+003, 1.693791e-001
3.525237e+003, 1.691635e-001
3.527166e+003, 1.687721e-001
3.529094e+003, 1.689518e-001
3.531022e+003, 1.693549e-001
3.532951e+003, 1.692716e-001
3.534879e+003, 1.691172e-001
3.536808e+003, 1.689401e-001
3.538736e+003, 1.695255e-001
3.540665e+003, 1.696053e-001
3.542593e+003, 1.694969e-001
3.544522e+003, 1.697041e-001
3.546450e+003, 1.696779e-001
3.548379e+003, 1.692816e-001
3.550307e+003, 1.695337e-001
3.552236e+003, 1.700429e-001
3.554164e+003, 1.697712e-001
3.556093e+003, 1.691674e-001
3.558021e+003, 1.694063e-001
3.559949e+003, 1.695826e-001
3.561878e+003, 1.696275e-001
3.563806e+003, 1.703721e-001
3.565735e+003, 1.700727e-001
3.567663e+003, 1.692260e-001
3.569592e+003, 1.694705e-001
3.571520e+003, 1.697389e-001
3.573449e+003, 1.695729e-001
3.575377e+003, 1.692633e-001
3.577306e+003, 1.697166e-001
3.579234e+003, 1.699655e-001
3.581163e+003, 1.699312e-001
3.583091e+003, 1.698273e-001
3.585020e+003, 1.698665e-001
3.586948e+003, 1.696795e-001
3.588876e+003, 1.697130e-001
3.590805e+003, 1.705306e-001
3.592733e+003, 1.704514e-001
3.594662e+003, 1.697729e-001
3.596590e+003, 1.695587e-001
3.598519e+003, 1.691915e-001
3.600447e+003, 1.690687e-001
3.602376e+003, 1.696474e-001
3.604304e+003, 1.706986e-001
3.606233e+003, 1.708716e-001
3.608161e+003, 1.692482e-001
3.610090e+003, 1.688592e-001
3.612018e+003, 1.694577e-001
3.613947e+003, 1.696320e-001
3.615875e+003, 1.695942e-001
3.617803e+003, 1.694076e-001
3.619732e+003, 1.693386e-001
3.621660e+003, 1.696867e-001
3.623589e+003, 1.703329e-001
3.625517e+003, 1.708989e-001
3.627446e+003, 1.707721e-001
3.629374e+003, 1.706914e-001
3.631303e+003, 1.705504e-001
3.633231e+003, 1.700978e-001
3.635160e+003, 1.699232e-001
3.637088e+003, 1.702286e-001
3.639017e+003, 1.706956e-001
3.640945e+003, 1.707410e-001
3.642874e+003, 1.707147e-001
3.644802e+003, 1.708654e-001
3.646730e+003, 1.703955e-001
3.648659e+003, 1.699640e-001
3.650587e+003, 1.692533e-001
3.652516e+003, 1.691451e-001
3.654444e+003, 1.696060e-001
3.656373e+003, 1.696862e-001
3.658301e+003, 1.695111e-001
3.660230e+003, 1.692328e-001
3.662158e+003, 1.692147e-001
3.664087e+003, 1.701357e-001
3.666015e+003, 1.706986e-001
3.667944e+003, 1.705560e-001
3.669872e+003, 1.709625e-001
3.671801e+003, 1.702437e-001
3.673729e+003, 1.688440e-001
3.675657e+003, 1.691588e-001
3.677586e+003, 1.706691e-001
3.679514e+003, 1.705188e-001
3.681443e+003, 1.704200e-001
3.683371e+003, 1.697438e-001
3.685300e+003, 1.690673e-001
3.687228e+003, 1.696582e-001
3.689157e+003, 1.700289e-001
3.691085e+003, 1.693001e-001
3.693014e+003, 1.699533e-001
3.694942e+003, 1.711021e-001
3.696871e+003, 1.706713e-001
3.698799e+003, 1.704505e-001
3.700728e+003, 1.708197e-001
3.702656e+003, 1.713408e-001
3.704584e+003, 1.718571e-001
3.706513e+003, 1.717262e-001
3.708441e+003, 1.711935e-001
3.710370e+003, 1.710463e-001
3.712298e+003, 1.713980e-001
3.714227e+003, 1.716141e-001
3.716155e+003, 1.716600e-001
3.718084e+003, 1.723017e-001
3.720012e+003, 1.731102e-001
3.721941e+003, 1.730392e-001
3.723869e+003, 1.727762e-001
3.725798e+003, 1.731684e-001
3.727726e+003, 1.726820e-001
3.729655e+003, 1.722313e-001
3.731583e+003, 1.721761e-001
3.733511e+003, 1.728709e-001
3.735440e+003, 1.730822e-001
3.737368e+003, 1.732942e-001
3.739297e+003, 1.733630e-001
3.741225e+003, 1.729508e-001
3.743154e+003, 1.722714e-001
3.745082e+003, 1.722933e-001
3.747011e+003, 1.725256e-001
3.748939e+003, 1.721335e-001
3.750868e+003, 1.723037e-001
3.752796e+003, 1.729989e-001
3.754725e+003, 1.731794e-001
3.756653e+003, 1.730733e-001
3.758582e+003, 1.726154e-001
3.760510e+003, 1.730184e-001
3.762438e+003, 1.740314e-001
3.764367e+003, 1.739930e-001
3.766295e+003, 1.735215e-001
3.768224e+003, 1.741767e-001
3.770152e+003, 1.739442e-001
3.772081e+003, 1.731200e-001
3.774009e+003, 1.736611e-001
3.775938e+003, 1.733093e-001
3.777866e+003, 1.728426e-001
3.779795e+003, 1.728834e-001
3.781723e+003, 1.736927e-001
3.783652e+003, 1.743167e-001
3.785580e+003, 1.744888e-001
3.787509e+003, 1.738435e-001
3.789437e+003, 1.733993e-001
3.791365e+003, 1.734824e-001
3.793294e+003, 1.743790e-001
3.795222e+003, 1.742601e-001
3.797151e+003, 1.732886e-001
3.799079e+003, 1.740064e-001
3.801008e+003, 1.746122e-001
3.802936e+003, 1.740690e-001
3.804865e+003, 1.735281e-001
3.806793e+003, 1.736227e-001
3.808722e+003, 1.741223e-001
3.810650e+003, 1.746265e-001
3.812579e+003, 1.744451e-001
3.814507e+003, 1.738061e-001
3.816436e+003, 1.736740e-001
3.818364e+003, 1.738657e-001
3.820292e+003, 1.745221e-001
3.822221e+003, 1.743492e-001
3.824149e+003, 1.736071e-001
3.826078e+003, 1.742413e-001
3.828006e+003, 1.742836e-001
3.829935e+003, 1.738754e-001
3.831863e+003, 1.739501e-001
3.833792e+003, 1.745841e-001
3.835720e+003, 1.740216e-001
3.837649e+003, 1.735909e-001
3.839577e+003, 1.741853e-001
3.841506e+003, 1.751380e-001
3.843434e+003, 1.755282e-001
3.845363e+003, 1.752426e-001
3.847291e+003, 1.750482e-001
3.849219e+003, 1.747815e-001
3.851148e+003, 1.744006e-001
3.853076e+003, 1.745983e-001
3.855005e+003, 1.741924e-001
3.856933e+003, 1.746241e-001
3.858862e+003, 1.758246e-001
3.860790e+003, 1.758759e-001
3.862719e+003, 1.751611e-001
3.864647e+003, 1.756026e-001
3.866576e+003, 1.755578e-001
3.868504e+003, 1.751861e-001
3.870433e+003, 1.754525e-001
3.872361e+003, 1.759496e-001
3.874290e+003, 1.762909e-001
3.876218e+003, 1.761265e-001
3.878146e+003, 1.759818e-001
3.880075e+003, 1.759897e-001
3.882003e+003, 1.760345e-001
3.883932e+003, 1.762541e-001
3.885860e+003, 1.762417e-001
3.887789e+003, 1.758244e-001
3.889717e+003, 1.745615e-001
3.891646e+003, 1.744725e-001
3.893574e+003, 1.753073e-001
3.895503e+003, 1.758095e-001
3.897431e+003, 1.761722e-001
3.899360e+003, 1.765725e-001
3.901288e+003, 1.760392e-001
3.903217e+003, 1.756744e-001
3.905145e+003, 1.766250e-001
3.907073e+003, 1.773331e-001
3.909002e+003, 1.765337e-001
3.910930e+003, 1.770228e-001
3.912859e+003, 1.775830e-001
3.914787e+003, 1.768103e-001
3.916716e+003, 1.767961e-001
3.918644e+003, 1.763794e-001
3.920573e+003, 1.756419e-001
3.922501e+003, 1.758627e-001
3.924430e+003, 1.762654e-001
3.926358e+003, 1.771546e-001
3.928287e+003, 1.771820e-001
3.930215e+003, 1.767781e-001
3.932144e+003, 1.763936e-001
3.934072e+003, 1.765776e-001
3.936000e+003, 1.766469e-001
3.937929e+003, 1.770706e-001
3.939857e+003, 1.778133e-001
3.941786e+003, 1.772441e-001
3.943714e+003, 1.772705e-001
3.945643e+003, 1.779182e-001
3.947571e+003, 1.775638e-001
3.949500e+003, 1.767531e-001
3.951428e+003, 1.770574e-001
3.953357e+003, 1.773383e-001
3.955285e+003, 1.773915e-001
3.957214e+003, 1.769572e-001
3.959142e+003, 1.767808e-001
3.961071e+003, 1.779813e-001
3.962999e+003, 1.779836e-001
3.964927e+003, 1.768871e-001
3.966856e+003, 1.769690e-001
3.968784e+003, 1.775097e-001
3.970713e+003, 1.783771e-001
3.972641e+003, 1.782968e-001
3.974570e+003, 1.783264e-001
3.976498e+003, 1.780198e-001
3.978427e+003, 1.781608e-001
3.980355e+003, 1.783876e-001
3.982284e+003, 1.777122e-001
3.984212e+003, 1.772335e-001
3.986141e+003, 1.770584e-001
3.988069e+003, 1.772583e-001
3.989998e+003, 1.773812e-001
3.991926e+003, 1.774712e-001
3.993854e+003, 1.776374e-001
3.995783e+003, 1.780602e-001
3.997711e+003, 1.785305e-001
3.999640e+003, 1.787497e-001
##END=



