##NAMES=Willemite
##RRUFFID=R050652
##IDEAL CHEMISTRY=Zn^2+^_2_SiO_4_
##LOCALITY=Franklin Furnace, Sussex County, New Jersey, USA
##OWNER=RRUFF
##SOURCE=University of Arizona Mineral Museum
##DESCRIPTION=Parallel aggregate of colorless acicular crystals
##STATUS=The identification of this mineral has been confirmed by X-ray diffraction and chemical analysis
##URL=rruff.info/R050652
##MEASURED CHEMISTRY=(Zn_1.99_Mn_0.01_)_Î£=2_Si_1.00_O_4_
3.991926e+002, 9.299797e-002
4.011211e+002, 8.462483e-002
4.030495e+002, 6.821830e-002
4.049780e+002, 5.301191e-002
4.069065e+002, 5.457873e-002
4.088349e+002, 5.730867e-002
4.107634e+002, 5.300618e-002
4.126919e+002, 3.963243e-002
4.146203e+002, 3.285525e-002
4.165488e+002, 3.097696e-002
4.184773e+002, 3.374265e-002
4.204057e+002, 3.680699e-002
4.223342e+002, 2.894656e-002
4.242627e+002, 2.322176e-002
4.261911e+002, 2.156477e-002
4.281196e+002, 2.289579e-002
4.300481e+002, 2.782709e-002
4.319765e+002, 2.872681e-002
4.339050e+002, 2.341333e-002
4.358335e+002, 2.377501e-002
4.377619e+002, 3.283712e-002
4.396904e+002, 3.248941e-002
4.416189e+002, 2.850196e-002
4.435473e+002, 3.048368e-002
4.454758e+002, 3.409572e-002
4.474043e+002, 4.188078e-002
4.493327e+002, 5.455378e-002
4.512612e+002, 6.469963e-002
4.531897e+002, 7.517113e-002
4.551181e+002, 9.232262e-002
4.570466e+002, 1.073066e-001
4.589751e+002, 1.104432e-001
4.609035e+002, 9.437012e-002
4.628320e+002, 7.414128e-002
4.647605e+002, 5.631837e-002
4.666889e+002, 4.344235e-002
4.686174e+002, 3.932115e-002
4.705459e+002, 3.805505e-002
4.724743e+002, 4.022004e-002
4.744028e+002, 4.082533e-002
4.763313e+002, 4.102389e-002
4.782597e+002, 4.115213e-002
4.801882e+002, 3.995719e-002
4.821167e+002, 4.225013e-002
4.840451e+002, 4.330160e-002
4.859736e+002, 4.455262e-002
4.879021e+002, 4.805020e-002
4.898305e+002, 4.966321e-002
4.917590e+002, 5.312949e-002
4.936875e+002, 5.960584e-002
4.956159e+002, 6.877030e-002
4.975444e+002, 6.991980e-002
4.994729e+002, 6.841673e-002
5.014013e+002, 7.051477e-002
5.033298e+002, 7.486625e-002
5.052583e+002, 7.530238e-002
5.071867e+002, 7.691982e-002
5.091152e+002, 8.016442e-002
5.110437e+002, 8.310880e-002
5.129721e+002, 8.632556e-002
5.149006e+002, 9.136944e-002
5.168290e+002, 9.722916e-002
5.187575e+002, 9.954922e-002
5.206860e+002, 1.039151e-001
5.226144e+002, 1.096396e-001
5.245429e+002, 1.143404e-001
5.264714e+002, 1.182701e-001
5.283998e+002, 1.213192e-001
5.303283e+002, 1.257475e-001
5.322568e+002, 1.333417e-001
5.341852e+002, 1.407383e-001
5.361137e+002, 1.446912e-001
5.380422e+002, 1.521382e-001
5.399706e+002, 1.599226e-001
5.418991e+002, 1.618193e-001
5.438276e+002, 1.673976e-001
5.457560e+002, 1.754597e-001
5.476845e+002, 1.870257e-001
5.496130e+002, 1.925440e-001
5.515414e+002, 1.966031e-001
5.534699e+002, 2.036492e-001
5.553984e+002, 2.103674e-001
5.573268e+002, 2.191836e-001
5.592553e+002, 2.267729e-001
5.611838e+002, 2.348578e-001
5.631122e+002, 2.403789e-001
5.650407e+002, 2.452891e-001
5.669692e+002, 2.530646e-001
5.688976e+002, 2.571237e-001
5.708261e+002, 2.615766e-001
5.727546e+002, 2.629098e-001
5.746830e+002, 2.480316e-001
5.766115e+002, 2.354365e-001
5.785400e+002, 2.261861e-001
5.804684e+002, 2.121301e-001
5.823969e+002, 2.012214e-001
5.843254e+002, 1.937277e-001
5.862538e+002, 1.856122e-001
5.881823e+002, 1.788415e-001
5.901108e+002, 1.703262e-001
5.920392e+002, 1.597230e-001
5.939677e+002, 1.503032e-001
5.958962e+002, 1.432849e-001
5.978246e+002, 1.393857e-001
5.997531e+002, 1.382801e-001
6.016816e+002, 1.394426e-001
6.036100e+002, 1.411422e-001
6.055385e+002, 1.449061e-001
6.074670e+002, 1.510010e-001
6.093954e+002, 1.558771e-001
6.113239e+002, 1.552496e-001
6.132524e+002, 1.470165e-001
6.151808e+002, 1.355740e-001
6.171093e+002, 1.190617e-001
6.190378e+002, 1.032511e-001
6.209662e+002, 9.187501e-002
6.228947e+002, 7.865338e-002
6.248232e+002, 6.552292e-002
6.267516e+002, 5.470306e-002
6.286801e+002, 4.652034e-002
6.306086e+002, 3.985248e-002
6.325370e+002, 3.514047e-002
6.344655e+002, 3.258960e-002
6.363940e+002, 2.922053e-002
6.383224e+002, 2.613086e-002
6.402509e+002, 2.467816e-002
6.421794e+002, 2.376170e-002
6.441078e+002, 2.464797e-002
6.460363e+002, 2.573629e-002
6.479648e+002, 2.622659e-002
6.498932e+002, 2.368923e-002
6.518217e+002, 2.070457e-002
6.537502e+002, 2.114749e-002
6.556786e+002, 2.223645e-002
6.576071e+002, 2.376000e-002
6.595356e+002, 2.260453e-002
6.614641e+002, 2.079218e-002
6.633925e+002, 2.108528e-002
6.653210e+002, 2.088098e-002
6.672495e+002, 2.256385e-002
6.691779e+002, 2.466324e-002
6.711064e+002, 2.426169e-002
6.730349e+002, 2.315110e-002
6.749633e+002, 2.398092e-002
6.768918e+002, 2.319206e-002
6.788203e+002, 2.215769e-002
6.807487e+002, 2.293994e-002
6.826772e+002, 2.257286e-002
6.846057e+002, 2.211020e-002
6.865341e+002, 2.332533e-002
6.884626e+002, 2.495118e-002
6.903911e+002, 2.529371e-002
6.923195e+002, 2.469447e-002
6.942480e+002, 2.485727e-002
6.961765e+002, 2.547100e-002
6.981049e+002, 2.553260e-002
7.000334e+002, 2.570686e-002
7.019619e+002, 2.646489e-002
7.038903e+002, 2.591627e-002
7.058188e+002, 2.606030e-002
7.077473e+002, 2.809302e-002
7.096757e+002, 2.895828e-002
7.116042e+002, 2.925174e-002
7.135327e+002, 3.021805e-002
7.154611e+002, 3.036930e-002
7.173896e+002, 3.164458e-002
7.193181e+002, 3.263524e-002
7.212465e+002, 3.290967e-002
7.231750e+002, 3.418443e-002
7.251035e+002, 3.423519e-002
7.270319e+002, 3.371447e-002
7.289604e+002, 3.503609e-002
7.308889e+002, 3.761259e-002
7.328173e+002, 3.885778e-002
7.347458e+002, 4.089081e-002
7.366743e+002, 4.284918e-002
7.386027e+002, 4.410281e-002
7.405312e+002, 4.442300e-002
7.424597e+002, 4.446300e-002
7.443881e+002, 4.584779e-002
7.463166e+002, 4.745521e-002
7.482451e+002, 4.907807e-002
7.501735e+002, 5.302190e-002
7.521020e+002, 5.646850e-002
7.540305e+002, 5.693902e-002
7.559589e+002, 5.732824e-002
7.578874e+002, 6.074227e-002
7.598159e+002, 6.361015e-002
7.617443e+002, 6.492592e-002
7.636728e+002, 6.746175e-002
7.656013e+002, 6.996488e-002
7.675297e+002, 7.059223e-002
7.694582e+002, 7.294751e-002
7.713867e+002, 7.711475e-002
7.733151e+002, 7.976938e-002
7.752436e+002, 8.202748e-002
7.771721e+002, 8.569857e-002
7.791005e+002, 8.932481e-002
7.810290e+002, 9.089928e-002
7.829575e+002, 9.285793e-002
7.848859e+002, 9.666655e-002
7.868144e+002, 1.002595e-001
7.887429e+002, 1.033890e-001
7.906713e+002, 1.057527e-001
7.925998e+002, 1.085980e-001
7.945283e+002, 1.118679e-001
7.964567e+002, 1.150258e-001
7.983852e+002, 1.186594e-001
8.003137e+002, 1.226271e-001
8.022421e+002, 1.273148e-001
8.041706e+002, 1.312722e-001
8.060991e+002, 1.354883e-001
8.080275e+002, 1.401623e-001
8.099560e+002, 1.450151e-001
8.118845e+002, 1.486564e-001
8.138129e+002, 1.533887e-001
8.157414e+002, 1.583317e-001
8.176699e+002, 1.618796e-001
8.195983e+002, 1.681009e-001
8.215268e+002, 1.745119e-001
8.234553e+002, 1.797206e-001
8.253837e+002, 1.850812e-001
8.273122e+002, 1.909817e-001
8.292407e+002, 1.979878e-001
8.311691e+002, 2.033870e-001
8.330976e+002, 2.086108e-001
8.350261e+002, 2.154228e-001
8.369545e+002, 2.240542e-001
8.388830e+002, 2.303164e-001
8.408115e+002, 2.369639e-001
8.427399e+002, 2.439930e-001
8.446684e+002, 2.491307e-001
8.465969e+002, 2.541490e-001
8.485253e+002, 2.613777e-001
8.504538e+002, 2.684007e-001
8.523823e+002, 2.747293e-001
8.543107e+002, 2.798642e-001
8.562392e+002, 2.853657e-001
8.581677e+002, 2.915883e-001
8.600961e+002, 2.955244e-001
8.620246e+002, 2.974356e-001
8.639531e+002, 2.977929e-001
8.658815e+002, 2.957774e-001
8.678100e+002, 2.888297e-001
8.697385e+002, 2.762646e-001
8.716669e+002, 2.585179e-001
8.735954e+002, 2.394855e-001
8.755239e+002, 2.300298e-001
8.774523e+002, 2.349676e-001
8.793808e+002, 2.493609e-001
8.813093e+002, 2.650524e-001
8.832377e+002, 2.799951e-001
8.851662e+002, 2.904069e-001
8.870947e+002, 2.950313e-001
8.890231e+002, 2.961540e-001
8.909516e+002, 2.961702e-001
8.928801e+002, 2.959334e-001
8.948085e+002, 2.913118e-001
8.967370e+002, 2.831702e-001
8.986655e+002, 2.779502e-001
9.005939e+002, 2.731353e-001
9.025224e+002, 2.671832e-001
9.044509e+002, 2.592122e-001
9.063793e+002, 2.508562e-001
9.083078e+002, 2.422813e-001
9.102363e+002, 2.318818e-001
9.121647e+002, 2.199707e-001
9.140932e+002, 2.084420e-001
9.160217e+002, 1.985656e-001
9.179501e+002, 1.885120e-001
9.198786e+002, 1.823486e-001
9.218071e+002, 1.834507e-001
9.237355e+002, 1.938379e-001
9.256640e+002, 2.101972e-001
9.275925e+002, 2.221216e-001
9.295209e+002, 2.241004e-001
9.314494e+002, 2.162404e-001
9.333779e+002, 2.049376e-001
9.353063e+002, 1.923587e-001
9.372348e+002, 1.788614e-001
9.391633e+002, 1.663721e-001
9.410917e+002, 1.548470e-001
9.430202e+002, 1.445983e-001
9.449487e+002, 1.365384e-001
9.468771e+002, 1.272276e-001
9.488056e+002, 1.172320e-001
9.507341e+002, 1.090953e-001
9.526625e+002, 1.021611e-001
9.545910e+002, 9.660983e-002
9.565195e+002, 9.300472e-002
9.584479e+002, 8.974884e-002
9.603764e+002, 8.737027e-002
9.623049e+002, 8.763681e-002
9.642333e+002, 9.040496e-002
9.661618e+002, 9.586427e-002
9.680903e+002, 1.016519e-001
9.700187e+002, 1.078291e-001
9.719472e+002, 1.129040e-001
9.738757e+002, 1.141332e-001
9.758041e+002, 1.116493e-001
9.777326e+002, 1.064324e-001
9.796611e+002, 9.916026e-002
9.815895e+002, 9.077910e-002
9.835180e+002, 8.238560e-002
9.854465e+002, 7.511514e-002
9.873749e+002, 6.813657e-002
9.893034e+002, 6.070769e-002
9.912319e+002, 5.389450e-002
9.931603e+002, 4.835614e-002
9.950888e+002, 4.317403e-002
9.970173e+002, 3.801839e-002
9.989457e+002, 3.359795e-002
1.000874e+003, 3.014258e-002
1.002803e+003, 2.734290e-002
1.004731e+003, 2.618226e-002
1.006660e+003, 2.519174e-002
1.008588e+003, 2.375516e-002
1.010517e+003, 2.252096e-002
1.012445e+003, 2.081565e-002
1.014373e+003, 1.844797e-002
1.016302e+003, 1.781140e-002
1.018230e+003, 1.760741e-002
1.020159e+003, 1.655111e-002
1.022087e+003, 1.559628e-002
1.024016e+003, 1.644881e-002
1.025944e+003, 1.704175e-002
1.027873e+003, 1.762199e-002
1.029801e+003, 1.467205e-002
1.031730e+003, 1.243029e-002
1.033658e+003, 1.454042e-002
1.035587e+003, 1.535865e-002
1.037515e+003, 1.327398e-002
1.039443e+003, 1.188715e-002
1.041372e+003, 1.196840e-002
1.043300e+003, 1.348605e-002
1.045229e+003, 1.442721e-002
1.047157e+003, 1.376105e-002
1.049086e+003, 1.266988e-002
1.051014e+003, 1.245530e-002
1.052943e+003, 1.273949e-002
1.054871e+003, 1.238314e-002
1.056800e+003, 1.248230e-002
1.058728e+003, 1.296166e-002
1.060657e+003, 1.285769e-002
1.062585e+003, 1.267746e-002
1.064514e+003, 1.362914e-002
1.066442e+003, 1.374096e-002
1.068370e+003, 1.344667e-002
1.070299e+003, 1.394525e-002
1.072227e+003, 1.388911e-002
1.074156e+003, 1.216337e-002
1.076084e+003, 1.238478e-002
1.078013e+003, 1.317582e-002
1.079941e+003, 1.159333e-002
1.081870e+003, 1.204799e-002
1.083798e+003, 1.254071e-002
1.085727e+003, 1.332417e-002
1.087655e+003, 1.297768e-002
1.089584e+003, 1.177427e-002
1.091512e+003, 1.147360e-002
1.093441e+003, 1.100999e-002
1.095369e+003, 1.049230e-002
1.097297e+003, 1.180559e-002
1.099226e+003, 1.152100e-002
1.101154e+003, 1.050721e-002
1.103083e+003, 1.008398e-002
1.105011e+003, 1.057074e-002
1.106940e+003, 9.911316e-003
1.108868e+003, 8.285373e-003
1.110797e+003, 8.059565e-003
1.112725e+003, 8.962967e-003
1.114654e+003, 8.889979e-003
1.116582e+003, 9.717572e-003
1.118511e+003, 1.081498e-002
1.120439e+003, 1.034870e-002
1.122368e+003, 9.346349e-003
1.124296e+003, 9.139706e-003
1.126224e+003, 8.095998e-003
1.128153e+003, 7.471239e-003
1.130081e+003, 8.034424e-003
1.132010e+003, 9.052016e-003
1.133938e+003, 9.699990e-003
1.135867e+003, 9.041956e-003
1.137795e+003, 8.724055e-003
1.139724e+003, 9.071504e-003
1.141652e+003, 8.329717e-003
1.143581e+003, 7.664215e-003
1.145509e+003, 8.284758e-003
1.147438e+003, 9.161790e-003
1.149366e+003, 8.609124e-003
1.151295e+003, 7.893684e-003
1.153223e+003, 8.527113e-003
1.155151e+003, 7.226492e-003
1.157080e+003, 6.963294e-003
1.159008e+003, 8.537939e-003
1.160937e+003, 7.694249e-003
1.162865e+003, 6.434323e-003
1.164794e+003, 7.275499e-003
1.166722e+003, 7.242211e-003
1.168651e+003, 7.619416e-003
1.170579e+003, 8.662472e-003
1.172508e+003, 8.372982e-003
1.174436e+003, 7.754914e-003
1.176365e+003, 8.191591e-003
1.178293e+003, 8.466807e-003
1.180222e+003, 9.175905e-003
1.182150e+003, 8.834602e-003
1.184078e+003, 7.902361e-003
1.186007e+003, 8.299987e-003
1.187935e+003, 8.518886e-003
1.189864e+003, 8.671415e-003
1.191792e+003, 8.584162e-003
1.193721e+003, 7.664556e-003
1.195649e+003, 7.614541e-003
1.197578e+003, 8.171555e-003
1.199506e+003, 8.959095e-003
1.201435e+003, 9.994340e-003
1.203363e+003, 1.073417e-002
1.205292e+003, 1.148648e-002
1.207220e+003, 1.096742e-002
1.209149e+003, 9.673786e-003
1.211077e+003, 9.630074e-003
1.213005e+003, 9.997603e-003
1.214934e+003, 1.053665e-002
1.216862e+003, 1.178863e-002
1.218791e+003, 1.240593e-002
1.220719e+003, 1.358965e-002
1.222648e+003, 1.528551e-002
1.224576e+003, 1.658902e-002
1.226505e+003, 1.685644e-002
1.228433e+003, 1.638114e-002
1.230362e+003, 1.611024e-002
1.232290e+003, 1.527559e-002
1.234219e+003, 1.425553e-002
1.236147e+003, 1.328979e-002
1.238076e+003, 1.151300e-002
1.240004e+003, 1.056301e-002
1.241932e+003, 1.048037e-002
1.243861e+003, 1.091552e-002
1.245789e+003, 1.117621e-002
1.247718e+003, 1.049172e-002
1.249646e+003, 9.346650e-003
1.251575e+003, 8.804996e-003
1.253503e+003, 9.545093e-003
1.255432e+003, 9.666469e-003
1.257360e+003, 9.118956e-003
1.259289e+003, 8.428370e-003
1.261217e+003, 8.766662e-003
1.263146e+003, 1.060693e-002
1.265074e+003, 1.208864e-002
1.267003e+003, 1.181481e-002
1.268931e+003, 1.158636e-002
1.270859e+003, 1.142544e-002
1.272788e+003, 1.047537e-002
1.274716e+003, 9.252347e-003
1.276645e+003, 8.500978e-003
1.278573e+003, 8.519283e-003
1.280502e+003, 8.597581e-003
1.282430e+003, 9.513181e-003
1.284359e+003, 1.016407e-002
1.286287e+003, 9.441826e-003
1.288216e+003, 8.787977e-003
1.290144e+003, 8.811728e-003
1.292073e+003, 8.550934e-003
1.294001e+003, 8.693443e-003
1.295930e+003, 9.369294e-003
1.297858e+003, 9.465052e-003
1.299786e+003, 8.527126e-003
1.301715e+003, 7.684859e-003
1.303643e+003, 8.094620e-003
1.305572e+003, 8.818628e-003
1.307500e+003, 7.856619e-003
1.309429e+003, 7.674371e-003
1.311357e+003, 8.561881e-003
1.313286e+003, 8.841829e-003
1.315214e+003, 8.124737e-003
1.317143e+003, 7.709938e-003
1.319071e+003, 7.102612e-003
1.321000e+003, 7.497966e-003
1.322928e+003, 8.075516e-003
1.324857e+003, 7.977959e-003
1.326785e+003, 7.856485e-003
1.328714e+003, 7.623561e-003
1.330642e+003, 7.349083e-003
1.332570e+003, 8.109971e-003
1.334499e+003, 9.416961e-003
1.336427e+003, 9.282201e-003
1.338356e+003, 9.246166e-003
1.340284e+003, 9.244058e-003
1.342213e+003, 8.394651e-003
1.344141e+003, 8.404588e-003
1.346070e+003, 9.231986e-003
1.347998e+003, 9.135689e-003
1.349927e+003, 9.614756e-003
1.351855e+003, 9.104777e-003
1.353784e+003, 9.037453e-003
1.355712e+003, 9.115926e-003
1.357641e+003, 8.643998e-003
1.359569e+003, 9.640251e-003
1.361497e+003, 1.032015e-002
1.363426e+003, 1.043229e-002
1.365354e+003, 9.898959e-003
1.367283e+003, 9.975870e-003
1.369211e+003, 1.044774e-002
1.371140e+003, 9.608383e-003
1.373068e+003, 8.972414e-003
1.374997e+003, 1.009021e-002
1.376925e+003, 1.039434e-002
1.378854e+003, 9.365963e-003
1.380782e+003, 9.561539e-003
1.382711e+003, 1.039424e-002
1.384639e+003, 1.066661e-002
1.386568e+003, 1.042179e-002
1.388496e+003, 1.023438e-002
1.390424e+003, 1.030009e-002
1.392353e+003, 1.167927e-002
1.394281e+003, 1.220089e-002
1.396210e+003, 1.110911e-002
1.398138e+003, 1.078045e-002
1.400067e+003, 1.136295e-002
1.401995e+003, 1.179515e-002
1.403924e+003, 1.249752e-002
1.405852e+003, 1.194667e-002
1.407781e+003, 1.162462e-002
1.409709e+003, 1.289067e-002
1.411638e+003, 1.295927e-002
1.413566e+003, 1.311830e-002
1.415495e+003, 1.390042e-002
1.417423e+003, 1.351371e-002
1.419351e+003, 1.213458e-002
1.421280e+003, 1.176042e-002
1.423208e+003, 1.245161e-002
1.425137e+003, 1.269599e-002
1.427065e+003, 1.323682e-002
1.428994e+003, 1.379926e-002
1.430922e+003, 1.336865e-002
1.432851e+003, 1.301326e-002
1.434779e+003, 1.279591e-002
1.436708e+003, 1.130723e-002
1.438636e+003, 1.153019e-002
1.440565e+003, 1.252759e-002
1.442493e+003, 1.297820e-002
1.444422e+003, 1.351389e-002
1.446350e+003, 1.462107e-002
1.448278e+003, 1.497426e-002
1.450207e+003, 1.436528e-002
1.452135e+003, 1.288887e-002
1.454064e+003, 1.246540e-002
1.455992e+003, 1.309655e-002
1.457921e+003, 1.285651e-002
1.459849e+003, 1.240124e-002
1.461778e+003, 1.311002e-002
1.463706e+003, 1.373461e-002
1.465635e+003, 1.427291e-002
1.467563e+003, 1.376841e-002
1.469492e+003, 1.423096e-002
1.471420e+003, 1.418164e-002
1.473349e+003, 1.329404e-002
1.475277e+003, 1.295913e-002
1.477205e+003, 1.280378e-002
1.479134e+003, 1.353751e-002
1.481062e+003, 1.348300e-002
1.482991e+003, 1.322262e-002
1.484919e+003, 1.367172e-002
1.486848e+003, 1.350256e-002
1.488776e+003, 1.285456e-002
1.490705e+003, 1.276440e-002
1.492633e+003, 1.235401e-002
1.494562e+003, 1.197257e-002
1.496490e+003, 1.131530e-002
1.498419e+003, 1.206162e-002
1.500347e+003, 1.337499e-002
1.502276e+003, 1.309923e-002
1.504204e+003, 1.206250e-002
1.506132e+003, 1.182085e-002
1.508061e+003, 1.157701e-002
1.509989e+003, 1.255483e-002
1.511918e+003, 1.349650e-002
1.513846e+003, 1.413518e-002
1.515775e+003, 1.436249e-002
1.517703e+003, 1.307041e-002
1.519632e+003, 1.222515e-002
1.521560e+003, 1.209241e-002
1.523489e+003, 1.204954e-002
1.525417e+003, 1.212636e-002
1.527346e+003, 1.205484e-002
1.529274e+003, 1.202512e-002
1.531203e+003, 1.213923e-002
1.533131e+003, 1.176165e-002
1.535059e+003, 1.188202e-002
1.536988e+003, 1.144529e-002
1.538916e+003, 1.099654e-002
1.540845e+003, 1.105122e-002
1.542773e+003, 1.158937e-002
1.544702e+003, 1.156495e-002
1.546630e+003, 1.211850e-002
1.548559e+003, 1.187322e-002
1.550487e+003, 1.267144e-002
1.552416e+003, 1.350799e-002
1.554344e+003, 1.239350e-002
1.556273e+003, 1.185469e-002
1.558201e+003, 1.092994e-002
1.560130e+003, 1.082338e-002
1.562058e+003, 1.192057e-002
1.563986e+003, 1.160933e-002
1.565915e+003, 1.092879e-002
1.567843e+003, 1.218015e-002
1.569772e+003, 1.236894e-002
1.571700e+003, 1.293975e-002
1.573629e+003, 1.310198e-002
1.575557e+003, 1.288367e-002
1.577486e+003, 1.386634e-002
1.579414e+003, 1.524577e-002
1.581343e+003, 1.483678e-002
1.583271e+003, 1.363845e-002
1.585200e+003, 1.188942e-002
1.587128e+003, 1.205998e-002
1.589057e+003, 1.238118e-002
1.590985e+003, 1.272587e-002
1.592913e+003, 1.317808e-002
1.594842e+003, 1.402300e-002
1.596770e+003, 1.383451e-002
1.598699e+003, 1.309357e-002
1.600627e+003, 1.249898e-002
1.602556e+003, 1.291627e-002
1.604484e+003, 1.388127e-002
1.606413e+003, 1.427543e-002
1.608341e+003, 1.374766e-002
1.610270e+003, 1.213028e-002
1.612198e+003, 1.220970e-002
1.614127e+003, 1.313104e-002
1.616055e+003, 1.255812e-002
1.617984e+003, 1.221719e-002
1.619912e+003, 1.219499e-002
1.621840e+003, 1.239538e-002
1.623769e+003, 1.334967e-002
1.625697e+003, 1.402820e-002
1.627626e+003, 1.305950e-002
1.629554e+003, 1.318586e-002
1.631483e+003, 1.389822e-002
1.633411e+003, 1.363162e-002
1.635340e+003, 1.307823e-002
1.637268e+003, 1.375810e-002
1.639197e+003, 1.503252e-002
1.641125e+003, 1.462153e-002
1.643054e+003, 1.390125e-002
1.644982e+003, 1.388744e-002
1.646911e+003, 1.350995e-002
1.648839e+003, 1.337625e-002
1.650767e+003, 1.266897e-002
1.652696e+003, 1.105287e-002
1.654624e+003, 1.124456e-002
1.656553e+003, 1.262164e-002
1.658481e+003, 1.271071e-002
1.660410e+003, 1.374915e-002
1.662338e+003, 1.333740e-002
1.664267e+003, 1.280282e-002
1.666195e+003, 1.395789e-002
1.668124e+003, 1.490952e-002
1.670052e+003, 1.396217e-002
1.671981e+003, 1.216952e-002
1.673909e+003, 1.254393e-002
1.675838e+003, 1.364585e-002
1.677766e+003, 1.445403e-002
1.679694e+003, 1.519647e-002
1.681623e+003, 1.462362e-002
1.683551e+003, 1.379262e-002
1.685480e+003, 1.389715e-002
1.687408e+003, 1.452484e-002
1.689337e+003, 1.377294e-002
1.691265e+003, 1.308490e-002
1.693194e+003, 1.356176e-002
1.695122e+003, 1.281234e-002
1.697051e+003, 1.275568e-002
1.698979e+003, 1.298391e-002
1.700908e+003, 1.246025e-002
1.702836e+003, 1.353445e-002
1.704765e+003, 1.425617e-002
1.706693e+003, 1.427420e-002
1.708621e+003, 1.429253e-002
1.710550e+003, 1.431149e-002
1.712478e+003, 1.293908e-002
1.714407e+003, 1.278471e-002
1.716335e+003, 1.210840e-002
1.718264e+003, 1.179583e-002
1.720192e+003, 1.310965e-002
1.722121e+003, 1.397866e-002
1.724049e+003, 1.322428e-002
1.725978e+003, 1.242705e-002
1.727906e+003, 1.186034e-002
1.729835e+003, 1.274776e-002
1.731763e+003, 1.302944e-002
1.733692e+003, 1.182174e-002
1.735620e+003, 1.196079e-002
1.737548e+003, 1.293386e-002
1.739477e+003, 1.289028e-002
1.741405e+003, 1.423761e-002
1.743334e+003, 1.516610e-002
1.745262e+003, 1.587553e-002
1.747191e+003, 1.662541e-002
1.749119e+003, 1.664927e-002
1.751048e+003, 1.481092e-002
1.752976e+003, 1.272319e-002
1.754905e+003, 1.265223e-002
1.756833e+003, 1.337426e-002
1.758762e+003, 1.494112e-002
1.760690e+003, 1.394450e-002
1.762619e+003, 1.217296e-002
1.764547e+003, 1.325213e-002
1.766475e+003, 1.574216e-002
1.768404e+003, 1.637886e-002
1.770332e+003, 1.597989e-002
1.772261e+003, 1.494005e-002
1.774189e+003, 1.523753e-002
1.776118e+003, 1.593136e-002
1.778046e+003, 1.523226e-002
1.779975e+003, 1.489637e-002
1.781903e+003, 1.527162e-002
1.783832e+003, 1.650708e-002
1.785760e+003, 1.742007e-002
1.787689e+003, 1.616299e-002
1.789617e+003, 1.452870e-002
1.791546e+003, 1.462202e-002
1.793474e+003, 1.756515e-002
1.795402e+003, 1.695940e-002
1.797331e+003, 1.658260e-002
1.799259e+003, 1.669625e-002
1.801188e+003, 1.565326e-002
1.803116e+003, 1.604168e-002
1.805045e+003, 1.674633e-002
1.806973e+003, 1.572535e-002
1.808902e+003, 1.506214e-002
1.810830e+003, 1.626379e-002
1.812759e+003, 1.554281e-002
1.814687e+003, 1.436799e-002
1.816616e+003, 1.526511e-002
1.818544e+003, 1.614135e-002
1.820473e+003, 1.707127e-002
1.822401e+003, 1.897775e-002
1.824329e+003, 1.833173e-002
1.826258e+003, 1.468382e-002
1.828186e+003, 1.396757e-002
1.830115e+003, 1.819360e-002
1.832043e+003, 2.076057e-002
1.833972e+003, 1.729684e-002
1.835900e+003, 1.525470e-002
1.837829e+003, 1.509968e-002
1.839757e+003, 1.469873e-002
1.841686e+003, 1.532088e-002
1.843614e+003, 1.684216e-002
1.845543e+003, 1.666371e-002
1.847471e+003, 1.468566e-002
1.849400e+003, 1.421758e-002
1.851328e+003, 1.494726e-002
1.853256e+003, 1.505574e-002
1.855185e+003, 1.589178e-002
1.857113e+003, 1.764540e-002
1.859042e+003, 1.862122e-002
1.860970e+003, 1.666634e-002
1.862899e+003, 1.676679e-002
1.864827e+003, 1.726808e-002
1.866756e+003, 1.648892e-002
1.868684e+003, 1.699303e-002
1.870613e+003, 1.544635e-002
1.872541e+003, 1.452875e-002
1.874470e+003, 1.807228e-002
1.876398e+003, 2.048883e-002
1.878327e+003, 1.807492e-002
1.880255e+003, 1.413354e-002
1.882183e+003, 1.457658e-002
1.884112e+003, 1.377529e-002
1.886040e+003, 1.143939e-002
1.887969e+003, 1.637987e-002
1.889897e+003, 1.931878e-002
1.891826e+003, 1.756604e-002
1.893754e+003, 1.512406e-002
1.895683e+003, 1.455031e-002
1.897611e+003, 1.570049e-002
1.899540e+003, 1.648642e-002
1.901468e+003, 1.654211e-002
1.903397e+003, 1.828973e-002
1.905325e+003, 1.837997e-002
1.907254e+003, 1.880633e-002
1.909182e+003, 1.832010e-002
1.911110e+003, 1.755733e-002
1.913039e+003, 1.898165e-002
1.914967e+003, 2.044313e-002
1.916896e+003, 1.862427e-002
1.918824e+003, 1.475324e-002
1.920753e+003, 1.518930e-002
1.922681e+003, 1.741342e-002
1.924610e+003, 1.751631e-002
1.926538e+003, 1.717581e-002
1.928467e+003, 2.037960e-002
1.930395e+003, 1.791313e-002
1.932324e+003, 1.197096e-002
1.934252e+003, 1.120984e-002
1.936181e+003, 1.441386e-002
1.938109e+003, 1.423421e-002
1.940037e+003, 1.421170e-002
1.941966e+003, 1.425141e-002
1.943894e+003, 1.640241e-002
1.945823e+003, 1.488864e-002
1.947751e+003, 1.391917e-002
1.949680e+003, 1.784028e-002
1.951608e+003, 2.235823e-002
1.953537e+003, 2.215991e-002
1.955465e+003, 1.804787e-002
1.957394e+003, 1.418853e-002
1.959322e+003, 1.276208e-002
1.961251e+003, 1.565152e-002
1.963179e+003, 1.676658e-002
1.965108e+003, 1.586676e-002
1.967036e+003, 1.348531e-002
1.968964e+003, 1.067565e-002
1.970893e+003, 1.291222e-002
1.972821e+003, 1.421230e-002
1.974750e+003, 1.684759e-002
1.976678e+003, 1.270740e-002
1.978607e+003, 9.968382e-003
1.980535e+003, 1.217152e-002
1.982464e+003, 1.781536e-002
1.984392e+003, 1.917228e-002
1.986321e+003, 2.059240e-002
1.988249e+003, 1.520375e-002
1.990178e+003, 9.544352e-003
1.992106e+003, 4.776191e-003
1.994035e+003, 7.865552e-003
1.995963e+003, 1.776729e-002
1.997891e+003, 1.829658e-002
1.999820e+003, 1.749042e-002
2.001748e+003, 1.576822e-002
2.003677e+003, 1.308198e-002
2.005605e+003, 2.220482e-002
2.007534e+003, 3.098164e-002
2.009462e+003, 2.322162e-002
2.011391e+003, 7.736310e-003
2.013319e+003, 1.234445e-002
2.015248e+003, 1.617997e-002
2.017176e+003, 1.339663e-002
2.019105e+003, 1.173353e-002
2.021033e+003, 1.080820e-002
2.022962e+003, 1.350625e-002
2.024890e+003, 2.062258e-002
2.026818e+003, 2.292604e-002
2.028747e+003, 1.883814e-002
2.030675e+003, 1.215509e-002
2.032604e+003, 1.920648e-002
2.034532e+003, 2.738187e-002
2.036461e+003, 2.255605e-002
2.038389e+003, 1.709949e-002
2.040318e+003, 1.894704e-002
2.042246e+003, 1.924455e-002
2.044175e+003, 1.653849e-002
2.046103e+003, 1.860925e-002
2.048031e+003, 1.776177e-002
2.049960e+003, 1.853939e-002
2.051888e+003, 1.905761e-002
2.053817e+003, 2.137885e-002
2.055745e+003, 2.333483e-002
2.057674e+003, 2.065919e-002
2.059602e+003, 1.940008e-002
2.061531e+003, 1.748751e-002
2.063459e+003, 1.907072e-002
2.065388e+003, 2.175524e-002
2.067316e+003, 1.734990e-002
2.069245e+003, 1.561344e-002
2.071173e+003, 1.448638e-002
2.073102e+003, 1.639065e-002
2.075030e+003, 1.734426e-002
2.076958e+003, 1.861016e-002
2.078887e+003, 1.876872e-002
2.080815e+003, 1.772535e-002
2.082744e+003, 1.961842e-002
2.084672e+003, 2.333036e-002
2.086601e+003, 2.387572e-002
2.088529e+003, 2.671590e-002
2.090458e+003, 2.716841e-002
2.092386e+003, 2.035420e-002
2.094315e+003, 1.874152e-002
2.096243e+003, 1.842183e-002
2.098172e+003, 1.980921e-002
2.100100e+003, 1.920651e-002
2.102029e+003, 1.986626e-002
2.103957e+003, 2.023836e-002
2.105885e+003, 1.852038e-002
2.107814e+003, 1.928783e-002
2.109742e+003, 1.978629e-002
2.111671e+003, 1.738851e-002
2.113599e+003, 1.905572e-002
2.115528e+003, 2.167214e-002
2.117456e+003, 1.940258e-002
2.119385e+003, 1.922519e-002
2.121313e+003, 2.104791e-002
2.123242e+003, 1.977057e-002
2.125170e+003, 2.039202e-002
2.127099e+003, 2.015413e-002
2.129027e+003, 1.772714e-002
2.130956e+003, 2.024126e-002
2.132884e+003, 2.402620e-002
2.134813e+003, 2.471072e-002
2.136741e+003, 1.971516e-002
2.138669e+003, 1.813457e-002
2.140598e+003, 2.008466e-002
2.142526e+003, 2.230763e-002
2.144455e+003, 1.859678e-002
2.146383e+003, 1.376323e-002
2.148312e+003, 1.991209e-002
2.150240e+003, 2.110076e-002
2.152169e+003, 1.694839e-002
2.154097e+003, 2.150743e-002
2.156026e+003, 2.765221e-002
2.157954e+003, 2.212404e-002
2.159883e+003, 2.098539e-002
2.161811e+003, 2.571978e-002
2.163740e+003, 2.476043e-002
2.165668e+003, 2.410421e-002
2.167596e+003, 2.195416e-002
2.169525e+003, 2.288441e-002
2.171453e+003, 2.516824e-002
2.173382e+003, 1.558708e-002
2.175310e+003, 9.483959e-003
2.177239e+003, 1.520873e-002
2.179167e+003, 1.711755e-002
2.181096e+003, 1.434695e-002
2.183024e+003, 1.740626e-002
2.184953e+003, 1.338197e-002
2.186881e+003, 1.102846e-002
2.188810e+003, 9.753667e-003
2.190738e+003, 1.247275e-002
2.192667e+003, 1.073907e-002
2.194595e+003, 1.115542e-002
2.196523e+003, 1.261963e-002
2.198452e+003, 1.840523e-002
2.200380e+003, 1.770202e-002
2.202309e+003, 1.566339e-002
2.204237e+003, 2.322631e-002
2.206166e+003, 2.316283e-002
2.208094e+003, 2.202724e-002
2.210023e+003, 2.257285e-002
2.211951e+003, 1.794966e-002
2.213880e+003, 1.627457e-002
2.215808e+003, 1.955844e-002
2.217737e+003, 2.379267e-002
2.219665e+003, 2.376767e-002
2.221594e+003, 2.216530e-002
2.223522e+003, 2.461617e-002
2.225450e+003, 2.281490e-002
2.227379e+003, 2.153175e-002
2.229307e+003, 2.122243e-002
2.231236e+003, 2.565920e-002
2.233164e+003, 2.848267e-002
2.235093e+003, 2.510109e-002
2.237021e+003, 2.438430e-002
2.238950e+003, 2.686263e-002
2.240878e+003, 2.352142e-002
2.242807e+003, 2.295936e-002
2.244735e+003, 2.018896e-002
2.246664e+003, 2.182619e-002
2.248592e+003, 2.372567e-002
2.250521e+003, 2.182736e-002
2.252449e+003, 2.147752e-002
2.254377e+003, 2.178961e-002
2.256306e+003, 2.012024e-002
2.258234e+003, 1.940938e-002
2.260163e+003, 2.183696e-002
2.262091e+003, 2.550344e-002
2.264020e+003, 2.616686e-002
2.265948e+003, 2.298781e-002
2.267877e+003, 1.840594e-002
2.269805e+003, 1.788504e-002
2.271734e+003, 1.782474e-002
2.273662e+003, 1.546016e-002
2.275591e+003, 1.735940e-002
2.277519e+003, 2.306827e-002
2.279448e+003, 2.544196e-002
2.281376e+003, 2.332323e-002
2.283304e+003, 2.018741e-002
2.285233e+003, 1.928677e-002
2.287161e+003, 2.194339e-002
2.289090e+003, 2.401295e-002
2.291018e+003, 2.487598e-002
2.292947e+003, 2.197885e-002
2.294875e+003, 2.013739e-002
2.296804e+003, 2.171719e-002
2.298732e+003, 2.248191e-002
2.300661e+003, 2.241329e-002
2.302589e+003, 2.434184e-002
2.304518e+003, 2.296085e-002
2.306446e+003, 2.094569e-002
2.308375e+003, 1.912262e-002
2.310303e+003, 1.623135e-002
2.312231e+003, 1.920838e-002
2.314160e+003, 2.278667e-002
2.316088e+003, 2.341501e-002
2.318017e+003, 2.379636e-002
2.319945e+003, 2.155451e-002
2.321874e+003, 2.152550e-002
2.323802e+003, 2.212656e-002
2.325731e+003, 2.001780e-002
2.327659e+003, 2.213735e-002
2.329588e+003, 2.412405e-002
2.331516e+003, 2.319507e-002
2.333445e+003, 2.415702e-002
2.335373e+003, 2.364443e-002
2.337302e+003, 2.155643e-002
2.339230e+003, 2.029410e-002
2.341158e+003, 2.105056e-002
2.343087e+003, 2.188222e-002
2.345015e+003, 2.232537e-002
2.346944e+003, 2.287556e-002
2.348872e+003, 2.315371e-002
2.350801e+003, 2.293872e-002
2.352729e+003, 2.228360e-002
2.354658e+003, 2.208571e-002
2.356586e+003, 2.265257e-002
2.358515e+003, 2.292153e-002
2.360443e+003, 2.448635e-002
2.362372e+003, 2.382524e-002
2.364300e+003, 2.366807e-002
2.366229e+003, 2.342321e-002
2.368157e+003, 2.381356e-002
2.370085e+003, 2.380940e-002
2.372014e+003, 2.315987e-002
2.373942e+003, 2.160435e-002
2.375871e+003, 1.909868e-002
2.377799e+003, 1.976873e-002
2.379728e+003, 2.017095e-002
2.381656e+003, 2.247055e-002
2.383585e+003, 2.474574e-002
2.385513e+003, 2.174654e-002
2.387442e+003, 2.011284e-002
2.389370e+003, 2.240838e-002
2.391299e+003, 2.375600e-002
2.393227e+003, 2.245404e-002
2.395156e+003, 2.296352e-002
2.397084e+003, 2.094941e-002
2.399012e+003, 1.753713e-002
2.400941e+003, 1.798148e-002
2.402869e+003, 1.724814e-002
2.404798e+003, 1.636973e-002
2.406726e+003, 1.870759e-002
2.408655e+003, 1.984939e-002
2.410583e+003, 2.301949e-002
2.412512e+003, 2.696546e-002
2.414440e+003, 2.517702e-002
2.416369e+003, 2.069088e-002
2.418297e+003, 1.881719e-002
2.420226e+003, 1.939518e-002
2.422154e+003, 2.568099e-002
2.424083e+003, 2.979779e-002
2.426011e+003, 2.539006e-002
2.427939e+003, 2.269456e-002
2.429868e+003, 2.351380e-002
2.431796e+003, 2.716290e-002
2.433725e+003, 2.927138e-002
2.435653e+003, 2.577566e-002
2.437582e+003, 2.268253e-002
2.439510e+003, 2.252443e-002
2.441439e+003, 2.203953e-002
2.443367e+003, 2.329680e-002
2.445296e+003, 2.582955e-002
2.447224e+003, 2.622635e-002
2.449153e+003, 2.563525e-002
2.451081e+003, 2.500546e-002
2.453010e+003, 2.247432e-002
2.454938e+003, 2.020908e-002
2.456866e+003, 2.103383e-002
2.458795e+003, 2.647160e-002
2.460723e+003, 2.778505e-002
2.462652e+003, 2.267108e-002
2.464580e+003, 1.904016e-002
2.466509e+003, 2.182269e-002
2.468437e+003, 2.280455e-002
2.470366e+003, 2.224985e-002
2.472294e+003, 2.309074e-002
2.474223e+003, 2.577111e-002
2.476151e+003, 2.560768e-002
2.478080e+003, 2.248348e-002
2.480008e+003, 2.176904e-002
2.481937e+003, 2.414961e-002
2.483865e+003, 2.665867e-002
2.485793e+003, 2.867094e-002
2.487722e+003, 2.872035e-002
2.489650e+003, 2.496477e-002
2.491579e+003, 2.467739e-002
2.493507e+003, 2.545047e-002
2.495436e+003, 2.676421e-002
2.497364e+003, 2.652505e-002
2.499293e+003, 2.269243e-002
2.501221e+003, 1.916439e-002
2.503150e+003, 2.090320e-002
2.505078e+003, 2.560052e-002
2.507007e+003, 2.590670e-002
2.508935e+003, 2.330709e-002
2.510864e+003, 2.427335e-002
2.512792e+003, 2.514613e-002
2.514720e+003, 2.639146e-002
2.516649e+003, 2.517585e-002
2.518577e+003, 2.398926e-002
2.520506e+003, 2.317613e-002
2.522434e+003, 2.512828e-002
2.524363e+003, 2.951656e-002
2.526291e+003, 2.566820e-002
2.528220e+003, 2.324107e-002
2.530148e+003, 2.358809e-002
2.532077e+003, 2.355849e-002
2.534005e+003, 2.286684e-002
2.535934e+003, 2.529878e-002
2.537862e+003, 2.770521e-002
2.539791e+003, 2.509437e-002
2.541719e+003, 1.983055e-002
2.543647e+003, 2.132714e-002
2.545576e+003, 2.749997e-002
2.547504e+003, 2.844036e-002
2.549433e+003, 2.727347e-002
2.551361e+003, 2.694757e-002
2.553290e+003, 2.666875e-002
2.555218e+003, 2.466475e-002
2.557147e+003, 2.355839e-002
2.559075e+003, 2.569590e-002
2.561004e+003, 2.648137e-002
2.562932e+003, 2.592140e-002
2.564861e+003, 2.481378e-002
2.566789e+003, 2.458879e-002
2.568718e+003, 2.326846e-002
2.570646e+003, 2.443393e-002
2.572574e+003, 2.412576e-002
2.574503e+003, 2.362332e-002
2.576431e+003, 2.524988e-002
2.578360e+003, 2.531492e-002
2.580288e+003, 2.389386e-002
2.582217e+003, 2.401346e-002
2.584145e+003, 2.418002e-002
2.586074e+003, 2.543544e-002
2.588002e+003, 2.748624e-002
2.589931e+003, 2.808850e-002
2.591859e+003, 2.686560e-002
2.593788e+003, 2.638540e-002
2.595716e+003, 2.235414e-002
2.597645e+003, 2.019555e-002
2.599573e+003, 2.179253e-002
2.601501e+003, 2.323445e-002
2.603430e+003, 2.355524e-002
2.605358e+003, 2.360063e-002
2.607287e+003, 2.274894e-002
2.609215e+003, 2.170415e-002
2.611144e+003, 2.350040e-002
2.613072e+003, 2.391321e-002
2.615001e+003, 2.431400e-002
2.616929e+003, 2.218089e-002
2.618858e+003, 2.309419e-002
2.620786e+003, 2.616554e-002
2.622715e+003, 2.540894e-002
2.624643e+003, 2.406484e-002
2.626572e+003, 2.481953e-002
2.628500e+003, 2.433960e-002
2.630428e+003, 2.532897e-002
2.632357e+003, 2.676427e-002
2.634285e+003, 2.559031e-002
2.636214e+003, 2.519849e-002
2.638142e+003, 2.578475e-002
2.640071e+003, 2.551448e-002
2.641999e+003, 2.354512e-002
2.643928e+003, 2.225832e-002
2.645856e+003, 2.368017e-002
2.647785e+003, 2.710759e-002
2.649713e+003, 2.776807e-002
2.651642e+003, 2.762754e-002
2.653570e+003, 2.701046e-002
2.655499e+003, 2.718224e-002
2.657427e+003, 2.761855e-002
2.659355e+003, 2.650553e-002
2.661284e+003, 2.477623e-002
2.663212e+003, 2.578676e-002
2.665141e+003, 2.379841e-002
2.667069e+003, 2.190636e-002
2.668998e+003, 2.215114e-002
2.670926e+003, 2.334159e-002
2.672855e+003, 2.451512e-002
2.674783e+003, 2.530001e-002
2.676712e+003, 2.638888e-002
2.678640e+003, 2.698248e-002
2.680569e+003, 2.655175e-002
2.682497e+003, 2.770906e-002
2.684426e+003, 2.735559e-002
2.686354e+003, 2.529994e-002
2.688282e+003, 2.345091e-002
2.690211e+003, 2.249529e-002
2.692139e+003, 2.366496e-002
2.694068e+003, 2.416962e-002
2.695996e+003, 2.497300e-002
2.697925e+003, 2.611281e-002
2.699853e+003, 2.534516e-002
2.701782e+003, 2.478143e-002
2.703710e+003, 2.354409e-002
2.705639e+003, 2.168041e-002
2.707567e+003, 2.330193e-002
2.709496e+003, 2.324326e-002
2.711424e+003, 2.296853e-002
2.713353e+003, 2.365181e-002
2.715281e+003, 2.508289e-002
2.717209e+003, 2.689194e-002
2.719138e+003, 2.613408e-002
2.721066e+003, 2.692623e-002
2.722995e+003, 2.761757e-002
2.724923e+003, 2.727378e-002
2.726852e+003, 2.789135e-002
2.728780e+003, 2.704669e-002
2.730709e+003, 2.460946e-002
2.732637e+003, 2.458691e-002
2.734566e+003, 2.511184e-002
2.736494e+003, 2.664745e-002
2.738423e+003, 2.786887e-002
2.740351e+003, 2.596632e-002
2.742280e+003, 2.460307e-002
2.744208e+003, 2.535113e-002
2.746136e+003, 2.438318e-002
2.748065e+003, 2.372226e-002
2.749993e+003, 2.654774e-002
2.751922e+003, 2.817363e-002
2.753850e+003, 2.631351e-002
2.755779e+003, 2.458800e-002
2.757707e+003, 2.537942e-002
2.759636e+003, 2.498023e-002
2.761564e+003, 2.635064e-002
2.763493e+003, 2.677936e-002
2.765421e+003, 2.463793e-002
2.767350e+003, 2.422560e-002
2.769278e+003, 2.370809e-002
2.771207e+003, 2.442689e-002
2.773135e+003, 2.718600e-002
2.775063e+003, 2.872588e-002
2.776992e+003, 2.780096e-002
2.778920e+003, 2.753367e-002
2.780849e+003, 2.751451e-002
2.782777e+003, 2.663987e-002
2.784706e+003, 2.502902e-002
2.786634e+003, 2.397289e-002
2.788563e+003, 2.542454e-002
2.790491e+003, 2.765466e-002
2.792420e+003, 2.885475e-002
2.794348e+003, 2.767933e-002
2.796277e+003, 2.681485e-002
2.798205e+003, 2.591654e-002
2.800134e+003, 2.529660e-002
2.802062e+003, 2.732278e-002
2.803990e+003, 2.728838e-002
2.805919e+003, 2.329442e-002
2.807847e+003, 2.395592e-002
2.809776e+003, 2.497333e-002
2.811704e+003, 2.503164e-002
2.813633e+003, 2.741616e-002
2.815561e+003, 2.937259e-002
2.817490e+003, 2.775289e-002
2.819418e+003, 2.464004e-002
2.821347e+003, 2.578913e-002
2.823275e+003, 2.979376e-002
2.825204e+003, 3.139615e-002
2.827132e+003, 2.925863e-002
2.829061e+003, 2.621112e-002
2.830989e+003, 2.733876e-002
2.832917e+003, 2.992148e-002
2.834846e+003, 2.898528e-002
2.836774e+003, 2.828750e-002
2.838703e+003, 2.832435e-002
2.840631e+003, 3.093587e-002
2.842560e+003, 3.068716e-002
2.844488e+003, 2.789274e-002
2.846417e+003, 2.557049e-002
2.848345e+003, 2.605934e-002
2.850274e+003, 2.731768e-002
2.852202e+003, 2.560712e-002
2.854131e+003, 2.272552e-002
2.856059e+003, 2.538392e-002
2.857988e+003, 2.737419e-002
2.859916e+003, 2.899356e-002
2.861844e+003, 2.901991e-002
2.863773e+003, 2.817715e-002
2.865701e+003, 2.895813e-002
2.867630e+003, 2.952197e-002
2.869558e+003, 2.957005e-002
2.871487e+003, 2.695980e-002
2.873415e+003, 2.433484e-002
2.875344e+003, 2.475878e-002
2.877272e+003, 2.414938e-002
2.879201e+003, 2.688483e-002
2.881129e+003, 2.838776e-002
2.883058e+003, 2.667462e-002
2.884986e+003, 2.441617e-002
2.886915e+003, 2.295040e-002
2.888843e+003, 2.531504e-002
2.890771e+003, 2.569342e-002
2.892700e+003, 2.363400e-002
2.894628e+003, 2.354597e-002
2.896557e+003, 2.604845e-002
2.898485e+003, 2.531232e-002
2.900414e+003, 2.701565e-002
2.902342e+003, 3.019251e-002
2.904271e+003, 3.315456e-002
2.906199e+003, 3.502748e-002
2.908128e+003, 3.162519e-002
2.910056e+003, 2.644807e-002
2.911985e+003, 2.823883e-002
2.913913e+003, 2.805219e-002
2.915842e+003, 2.802344e-002
2.917770e+003, 3.151872e-002
2.919698e+003, 3.187075e-002
2.921627e+003, 3.169616e-002
2.923555e+003, 3.313536e-002
2.925484e+003, 3.270011e-002
2.927412e+003, 2.983472e-002
2.929341e+003, 2.780770e-002
2.931269e+003, 2.757755e-002
2.933198e+003, 2.496641e-002
2.935126e+003, 2.697994e-002
2.937055e+003, 2.926078e-002
2.938983e+003, 2.872173e-002
2.940912e+003, 2.985818e-002
2.942840e+003, 2.946040e-002
2.944769e+003, 2.726581e-002
2.946697e+003, 2.834065e-002
2.948625e+003, 3.140780e-002
2.950554e+003, 3.049840e-002
2.952482e+003, 2.870158e-002
2.954411e+003, 2.979554e-002
2.956339e+003, 3.038978e-002
2.958268e+003, 2.984336e-002
2.960196e+003, 2.952937e-002
2.962125e+003, 2.960435e-002
2.964053e+003, 2.802469e-002
2.965982e+003, 2.659553e-002
2.967910e+003, 2.733533e-002
2.969839e+003, 2.835146e-002
2.971767e+003, 2.939736e-002
2.973696e+003, 2.982505e-002
2.975624e+003, 2.958693e-002
2.977552e+003, 3.043612e-002
2.979481e+003, 2.926654e-002
2.981409e+003, 2.872622e-002
2.983338e+003, 2.884173e-002
2.985266e+003, 3.013749e-002
2.987195e+003, 2.817208e-002
2.989123e+003, 3.017075e-002
2.991052e+003, 3.315635e-002
2.992980e+003, 3.277461e-002
2.994909e+003, 3.018690e-002
2.996837e+003, 2.772611e-002
2.998766e+003, 3.022140e-002
3.000694e+003, 3.077956e-002
3.002623e+003, 2.938457e-002
3.004551e+003, 3.051785e-002
3.006479e+003, 3.249925e-002
3.008408e+003, 3.191005e-002
3.010336e+003, 2.958432e-002
3.012265e+003, 2.742021e-002
3.014193e+003, 2.966401e-002
3.016122e+003, 2.979023e-002
3.018050e+003, 2.850130e-002
3.019979e+003, 2.693385e-002
3.021907e+003, 2.803477e-002
3.023836e+003, 3.085998e-002
3.025764e+003, 2.955751e-002
3.027693e+003, 2.827108e-002
3.029621e+003, 3.019028e-002
3.031550e+003, 3.132759e-002
3.033478e+003, 3.190686e-002
3.035406e+003, 3.049792e-002
3.037335e+003, 3.281226e-002
3.039263e+003, 3.368861e-002
3.041192e+003, 3.049077e-002
3.043120e+003, 2.641956e-002
3.045049e+003, 2.360038e-002
3.046977e+003, 2.712197e-002
3.048906e+003, 3.008138e-002
3.050834e+003, 2.974410e-002
3.052763e+003, 2.927990e-002
3.054691e+003, 2.850632e-002
3.056620e+003, 2.894813e-002
3.058548e+003, 3.061998e-002
3.060477e+003, 3.120776e-002
3.062405e+003, 3.064489e-002
3.064333e+003, 3.069557e-002
3.066262e+003, 3.053929e-002
3.068190e+003, 2.828199e-002
3.070119e+003, 2.804003e-002
3.072047e+003, 3.227917e-002
3.073976e+003, 3.154198e-002
3.075904e+003, 2.839641e-002
3.077833e+003, 2.657288e-002
3.079761e+003, 2.722507e-002
3.081690e+003, 2.958396e-002
3.083618e+003, 3.335971e-002
3.085547e+003, 3.318406e-002
3.087475e+003, 3.048462e-002
3.089404e+003, 3.104129e-002
3.091332e+003, 3.184226e-002
3.093260e+003, 3.080546e-002
3.095189e+003, 3.040133e-002
3.097117e+003, 2.908931e-002
3.099046e+003, 2.934291e-002
3.100974e+003, 3.065596e-002
3.102903e+003, 3.186407e-002
3.104831e+003, 3.242162e-002
3.106760e+003, 3.550334e-002
3.108688e+003, 3.642973e-002
3.110617e+003, 3.021038e-002
3.112545e+003, 3.267227e-002
3.114474e+003, 3.520431e-002
3.116402e+003, 3.505305e-002
3.118331e+003, 3.142912e-002
3.120259e+003, 2.868053e-002
3.122188e+003, 2.775058e-002
3.124116e+003, 2.915896e-002
3.126044e+003, 2.960775e-002
3.127973e+003, 2.754359e-002
3.129901e+003, 2.724502e-002
3.131830e+003, 2.929923e-002
3.133758e+003, 3.159322e-002
3.135687e+003, 3.326999e-002
3.137615e+003, 3.097830e-002
3.139544e+003, 2.862034e-002
3.141472e+003, 3.101415e-002
3.143401e+003, 3.438910e-002
3.145329e+003, 3.437772e-002
3.147258e+003, 3.405556e-002
3.149186e+003, 3.267285e-002
3.151115e+003, 2.841451e-002
3.153043e+003, 2.770272e-002
3.154971e+003, 2.980352e-002
3.156900e+003, 3.016194e-002
3.158828e+003, 2.833651e-002
3.160757e+003, 2.774079e-002
3.162685e+003, 2.833591e-002
3.164614e+003, 2.930791e-002
3.166542e+003, 2.993941e-002
3.168471e+003, 2.911703e-002
3.170399e+003, 3.060268e-002
3.172328e+003, 3.235079e-002
3.174256e+003, 3.161306e-002
3.176185e+003, 2.946173e-002
3.178113e+003, 2.785841e-002
3.180042e+003, 3.367398e-002
3.181970e+003, 3.568366e-002
3.183898e+003, 3.345681e-002
3.185827e+003, 3.462573e-002
3.187755e+003, 3.510173e-002
3.189684e+003, 3.166420e-002
3.191612e+003, 2.920127e-002
3.193541e+003, 2.658705e-002
3.195469e+003, 2.777602e-002
3.197398e+003, 3.039010e-002
3.199326e+003, 2.977255e-002
3.201255e+003, 3.352379e-002
3.203183e+003, 3.254506e-002
3.205112e+003, 2.974405e-002
3.207040e+003, 3.076428e-002
3.208969e+003, 3.241469e-002
3.210897e+003, 3.479403e-002
3.212825e+003, 3.596392e-002
3.214754e+003, 3.549068e-002
3.216682e+003, 3.037863e-002
3.218611e+003, 2.781203e-002
3.220539e+003, 3.119371e-002
3.222468e+003, 3.122331e-002
3.224396e+003, 2.821103e-002
3.226325e+003, 2.665056e-002
3.228253e+003, 2.737387e-002
3.230182e+003, 2.966358e-002
3.232110e+003, 3.138868e-002
3.234039e+003, 3.110555e-002
3.235967e+003, 2.966820e-002
3.237896e+003, 2.836482e-002
3.239824e+003, 3.325430e-002
3.241752e+003, 3.515306e-002
3.243681e+003, 3.279557e-002
3.245609e+003, 3.134691e-002
3.247538e+003, 3.223092e-002
3.249466e+003, 3.502356e-002
3.251395e+003, 3.308067e-002
3.253323e+003, 3.121091e-002
3.255252e+003, 3.163184e-002
3.257180e+003, 3.243947e-002
3.259109e+003, 3.608327e-002
3.261037e+003, 3.814035e-002
3.262966e+003, 3.376175e-002
3.264894e+003, 3.062147e-002
3.266823e+003, 2.746871e-002
3.268751e+003, 2.714055e-002
3.270679e+003, 3.066864e-002
3.272608e+003, 3.201075e-002
3.274536e+003, 2.659704e-002
3.276465e+003, 2.431383e-002
3.278393e+003, 2.796664e-002
3.280322e+003, 3.237182e-002
3.282250e+003, 3.476966e-002
3.284179e+003, 3.193329e-002
3.286107e+003, 2.883328e-002
3.288036e+003, 2.996088e-002
3.289964e+003, 2.939402e-002
3.291893e+003, 2.980334e-002
3.293821e+003, 3.684146e-002
3.295750e+003, 3.687759e-002
3.297678e+003, 3.216110e-002
3.299606e+003, 3.076294e-002
3.301535e+003, 2.897668e-002
3.303463e+003, 2.798036e-002
3.305392e+003, 3.266460e-002
3.307320e+003, 3.440587e-002
3.309249e+003, 3.411689e-002
3.311177e+003, 3.388593e-002
3.313106e+003, 2.918544e-002
3.315034e+003, 3.099937e-002
3.316963e+003, 3.070749e-002
3.318891e+003, 3.201972e-002
3.320820e+003, 3.556851e-002
3.322748e+003, 3.453502e-002
3.324677e+003, 2.869213e-002
3.326605e+003, 2.969169e-002
3.328533e+003, 3.288200e-002
3.330462e+003, 3.285997e-002
3.332390e+003, 3.529549e-002
3.334319e+003, 3.477534e-002
3.336247e+003, 3.213800e-002
3.338176e+003, 2.840871e-002
3.340104e+003, 2.786781e-002
3.342033e+003, 3.399922e-002
3.343961e+003, 3.286984e-002
3.345890e+003, 2.736253e-002
3.347818e+003, 2.580740e-002
3.349747e+003, 2.715794e-002
3.351675e+003, 3.368787e-002
3.353604e+003, 3.367041e-002
3.355532e+003, 3.070604e-002
3.357460e+003, 3.091150e-002
3.359389e+003, 3.033418e-002
3.361317e+003, 3.351889e-002
3.363246e+003, 3.671824e-002
3.365174e+003, 3.415371e-002
3.367103e+003, 3.045931e-002
3.369031e+003, 2.698894e-002
3.370960e+003, 2.605480e-002
3.372888e+003, 2.608382e-002
3.374817e+003, 3.002738e-002
3.376745e+003, 3.803373e-002
3.378674e+003, 3.575508e-002
3.380602e+003, 3.223272e-002
3.382531e+003, 2.844780e-002
3.384459e+003, 2.720928e-002
3.386387e+003, 3.127891e-002
3.388316e+003, 3.305287e-002
3.390244e+003, 3.459802e-002
3.392173e+003, 3.449722e-002
3.394101e+003, 3.292299e-002
3.396030e+003, 3.122752e-002
3.397958e+003, 3.245000e-002
3.399887e+003, 3.082053e-002
3.401815e+003, 2.900295e-002
3.403744e+003, 2.898040e-002
3.405672e+003, 3.024847e-002
3.407601e+003, 3.305128e-002
3.409529e+003, 3.117154e-002
3.411458e+003, 2.901472e-002
3.413386e+003, 2.888904e-002
3.415314e+003, 3.386295e-002
3.417243e+003, 3.594734e-002
3.419171e+003, 3.224175e-002
3.421100e+003, 3.404800e-002
3.423028e+003, 3.552059e-002
3.424957e+003, 3.014145e-002
3.426885e+003, 3.051059e-002
3.428814e+003, 3.189537e-002
3.430742e+003, 2.968297e-002
3.432671e+003, 3.065057e-002
3.434599e+003, 3.057137e-002
3.436528e+003, 2.968157e-002
3.438456e+003, 3.356051e-002
3.440385e+003, 3.055923e-002
3.442313e+003, 2.759504e-002
3.444241e+003, 3.327585e-002
3.446170e+003, 4.008781e-002
3.448098e+003, 3.233636e-002
3.450027e+003, 2.510325e-002
3.451955e+003, 2.656650e-002
3.453884e+003, 3.100132e-002
3.455812e+003, 3.487437e-002
3.457741e+003, 3.813000e-002
3.459669e+003, 4.205661e-002
3.461598e+003, 3.973498e-002
3.463526e+003, 3.834130e-002
3.465455e+003, 3.574459e-002
3.467383e+003, 3.425015e-002
3.469312e+003, 3.610354e-002
3.471240e+003, 3.926155e-002
3.473168e+003, 3.881842e-002
3.475097e+003, 3.475282e-002
3.477025e+003, 3.167144e-002
3.478954e+003, 3.564399e-002
3.480882e+003, 3.511060e-002
3.482811e+003, 3.095422e-002
3.484739e+003, 3.458307e-002
3.486668e+003, 3.741403e-002
3.488596e+003, 3.731660e-002
3.490525e+003, 3.966036e-002
3.492453e+003, 3.711794e-002
3.494382e+003, 3.287322e-002
3.496310e+003, 2.673052e-002
3.498239e+003, 3.091826e-002
3.500167e+003, 3.774886e-002
3.502095e+003, 3.509608e-002
3.504024e+003, 2.979076e-002
3.505952e+003, 3.109776e-002
3.507881e+003, 3.384161e-002
3.509809e+003, 3.549844e-002
3.511738e+003, 3.508091e-002
3.513666e+003, 3.055282e-002
3.515595e+003, 2.855512e-002
3.517523e+003, 3.171425e-002
3.519452e+003, 3.710484e-002
3.521380e+003, 3.757185e-002
3.523309e+003, 3.586525e-002
3.525237e+003, 3.328525e-002
3.527166e+003, 3.000562e-002
3.529094e+003, 2.938145e-002
3.531022e+003, 2.827173e-002
3.532951e+003, 2.778168e-002
3.534879e+003, 2.728708e-002
3.536808e+003, 2.735934e-002
3.538736e+003, 2.874297e-002
3.540665e+003, 3.404850e-002
3.542593e+003, 3.500567e-002
3.544522e+003, 2.854779e-002
3.546450e+003, 2.815972e-002
3.548379e+003, 3.599817e-002
3.550307e+003, 3.678425e-002
3.552236e+003, 3.404581e-002
3.554164e+003, 3.269725e-002
3.556093e+003, 3.241920e-002
3.558021e+003, 3.103954e-002
3.559949e+003, 3.344955e-002
3.561878e+003, 4.043536e-002
3.563806e+003, 4.095878e-002
3.565735e+003, 3.540417e-002
3.567663e+003, 3.656013e-002
3.569592e+003, 3.659685e-002
3.571520e+003, 2.881538e-002
3.573449e+003, 2.794908e-002
3.575377e+003, 3.558451e-002
3.577306e+003, 3.736445e-002
3.579234e+003, 3.317975e-002
3.581163e+003, 3.728599e-002
3.583091e+003, 3.997073e-002
3.585020e+003, 3.433185e-002
3.586948e+003, 3.032392e-002
3.588876e+003, 2.761868e-002
3.590805e+003, 2.529505e-002
3.592733e+003, 2.550912e-002
3.594662e+003, 3.150927e-002
3.596590e+003, 3.710965e-002
3.598519e+003, 3.250404e-002
3.600447e+003, 2.932237e-002
3.602376e+003, 3.074696e-002
3.604304e+003, 2.836661e-002
3.606233e+003, 3.389822e-002
3.608161e+003, 3.448160e-002
3.610090e+003, 3.156542e-002
3.612018e+003, 2.804762e-002
3.613947e+003, 2.313684e-002
3.615875e+003, 2.836252e-002
3.617803e+003, 3.355333e-002
3.619732e+003, 3.390954e-002
3.621660e+003, 3.334762e-002
3.623589e+003, 3.000038e-002
3.625517e+003, 2.997949e-002
3.627446e+003, 3.837492e-002
3.629374e+003, 3.824586e-002
3.631303e+003, 3.355512e-002
3.633231e+003, 3.372740e-002
3.635160e+003, 3.470465e-002
3.637088e+003, 3.493780e-002
3.639017e+003, 3.069599e-002
3.640945e+003, 3.224159e-002
3.642874e+003, 3.669292e-002
3.644802e+003, 3.525206e-002
3.646730e+003, 3.468321e-002
3.648659e+003, 3.854805e-002
3.650587e+003, 3.635372e-002
3.652516e+003, 3.406692e-002
3.654444e+003, 3.793934e-002
3.656373e+003, 3.515165e-002
3.658301e+003, 2.711640e-002
3.660230e+003, 2.735400e-002
3.662158e+003, 3.483316e-002
3.664087e+003, 3.805114e-002
3.666015e+003, 3.703492e-002
3.667944e+003, 3.510771e-002
3.669872e+003, 3.268850e-002
3.671801e+003, 2.845598e-002
3.673729e+003, 2.831331e-002
3.675657e+003, 2.768366e-002
3.677586e+003, 3.350278e-002
3.679514e+003, 4.181422e-002
3.681443e+003, 4.210512e-002
3.683371e+003, 3.894242e-002
3.685300e+003, 3.238501e-002
3.687228e+003, 2.447960e-002
3.689157e+003, 2.890871e-002
3.691085e+003, 4.082927e-002
3.693014e+003, 4.264116e-002
3.694942e+003, 3.333062e-002
3.696871e+003, 2.547138e-002
3.698799e+003, 1.857522e-002
3.700728e+003, 2.262545e-002
3.702656e+003, 3.224498e-002
3.704584e+003, 3.328163e-002
3.706513e+003, 3.753341e-002
3.708441e+003, 3.837282e-002
3.710370e+003, 3.270380e-002
3.712298e+003, 3.233623e-002
3.714227e+003, 3.623501e-002
3.716155e+003, 3.908592e-002
3.718084e+003, 3.362415e-002
3.720012e+003, 2.625773e-002
3.721941e+003, 2.796047e-002
3.723869e+003, 2.816805e-002
3.725798e+003, 2.406504e-002
3.727726e+003, 2.646383e-002
3.729655e+003, 3.035727e-002
3.731583e+003, 3.419029e-002
3.733511e+003, 3.720166e-002
3.735440e+003, 3.249033e-002
3.737368e+003, 3.066864e-002
3.739297e+003, 3.447724e-002
3.741225e+003, 3.064307e-002
3.743154e+003, 2.911313e-002
3.745082e+003, 3.110541e-002
3.747011e+003, 2.920329e-002
3.748939e+003, 2.795187e-002
3.750868e+003, 2.799495e-002
3.752796e+003, 3.001397e-002
3.754725e+003, 3.718124e-002
3.756653e+003, 4.053519e-002
3.758582e+003, 4.051987e-002
3.760510e+003, 3.925221e-002
3.762438e+003, 3.601127e-002
3.764367e+003, 3.691513e-002
3.766295e+003, 3.531175e-002
3.768224e+003, 3.240522e-002
3.770152e+003, 3.467866e-002
3.772081e+003, 3.586274e-002
3.774009e+003, 3.478171e-002
3.775938e+003, 3.833620e-002
3.777866e+003, 3.806955e-002
3.779795e+003, 3.363834e-002
3.781723e+003, 3.286553e-002
3.783652e+003, 3.655628e-002
3.785580e+003, 3.697460e-002
3.787509e+003, 3.452622e-002
3.789437e+003, 3.703872e-002
3.791365e+003, 3.387736e-002
3.793294e+003, 3.004535e-002
3.795222e+003, 2.793585e-002
3.797151e+003, 2.880738e-002
3.799079e+003, 3.163293e-002
3.801008e+003, 3.050257e-002
3.802936e+003, 3.118511e-002
3.804865e+003, 3.128136e-002
3.806793e+003, 2.859997e-002
3.808722e+003, 3.293602e-002
3.810650e+003, 3.935737e-002
3.812579e+003, 3.811825e-002
3.814507e+003, 3.627346e-002
3.816436e+003, 3.361583e-002
3.818364e+003, 3.151690e-002
3.820292e+003, 2.859166e-002
3.822221e+003, 3.053696e-002
3.824149e+003, 3.398703e-002
3.826078e+003, 3.178498e-002
3.828006e+003, 3.509941e-002
3.829935e+003, 3.896197e-002
3.831863e+003, 3.608115e-002
3.833792e+003, 3.416387e-002
3.835720e+003, 3.720256e-002
3.837649e+003, 3.657840e-002
3.839577e+003, 3.394613e-002
3.841506e+003, 3.198736e-002
3.843434e+003, 3.285560e-002
3.845363e+003, 3.759969e-002
3.847291e+003, 4.329418e-002
3.849219e+003, 4.040498e-002
3.851148e+003, 3.036026e-002
3.853076e+003, 2.428962e-002
3.855005e+003, 3.001727e-002
3.856933e+003, 3.665705e-002
3.858862e+003, 3.658834e-002
3.860790e+003, 3.239559e-002
3.862719e+003, 3.312972e-002
3.864647e+003, 3.891403e-002
3.866576e+003, 4.279058e-002
3.868504e+003, 3.713430e-002
3.870433e+003, 2.897644e-002
3.872361e+003, 2.572356e-002
3.874290e+003, 2.856877e-002
3.876218e+003, 3.059216e-002
3.878146e+003, 3.561782e-002
3.880075e+003, 3.964512e-002
3.882003e+003, 3.610733e-002
3.883932e+003, 3.006434e-002
3.885860e+003, 2.857552e-002
3.887789e+003, 3.206039e-002
3.889717e+003, 3.315925e-002
3.891646e+003, 3.432107e-002
3.893574e+003, 3.730676e-002
3.895503e+003, 3.742474e-002
3.897431e+003, 3.325161e-002
3.899360e+003, 3.522551e-002
3.901288e+003, 3.407476e-002
3.903217e+003, 3.083198e-002
3.905145e+003, 3.090572e-002
3.907073e+003, 3.330945e-002
3.909002e+003, 3.408888e-002
3.910930e+003, 3.432981e-002
3.912859e+003, 3.496494e-002
3.914787e+003, 3.556911e-002
3.916716e+003, 3.246401e-002
3.918644e+003, 3.500391e-002
3.920573e+003, 3.572952e-002
3.922501e+003, 3.460765e-002
3.924430e+003, 3.908673e-002
3.926358e+003, 3.963674e-002
3.928287e+003, 3.800653e-002
3.930215e+003, 3.841006e-002
3.932144e+003, 3.926447e-002
3.934072e+003, 3.481376e-002
3.936000e+003, 3.315219e-002
3.937929e+003, 3.669190e-002
3.939857e+003, 3.444880e-002
3.941786e+003, 3.525196e-002
3.943714e+003, 3.624963e-002
3.945643e+003, 3.512378e-002
3.947571e+003, 3.302829e-002
3.949500e+003, 3.506461e-002
3.951428e+003, 3.871807e-002
3.953357e+003, 4.402928e-002
3.955285e+003, 5.021248e-002
3.957214e+003, 4.676388e-002
3.959142e+003, 3.897534e-002
3.961071e+003, 3.603949e-002
3.962999e+003, 3.527506e-002
3.964927e+003, 3.499296e-002
3.966856e+003, 3.428217e-002
3.968784e+003, 3.733869e-002
3.970713e+003, 3.235903e-002
3.972641e+003, 3.145035e-002
3.974570e+003, 3.177264e-002
3.976498e+003, 3.212923e-002
3.978427e+003, 3.451073e-002
3.980355e+003, 3.738435e-002
3.982284e+003, 3.713901e-002
3.984212e+003, 4.000527e-002
3.986141e+003, 3.967987e-002
3.988069e+003, 4.419030e-002
3.989998e+003, 4.032316e-002
3.991926e+003, 3.906037e-002
3.993854e+003, 4.167783e-002
3.995783e+003, 3.402928e-002
3.997711e+003, 3.084542e-002
3.999640e+003, 3.005568e-002
4.001568e+003, 0.000000e+000
##END=



