##NAMES=Witherite
##RRUFFID=R050267
##IDEAL CHEMISTRY=BaCO_3_
##LOCALITY=Fallowfields mine, Alston Moor, England
##OWNER=RRUFF
##SOURCE=Marcus Origlieri
##DESCRIPTION=Colorless granular aggregate
##STATUS=The identification of this mineral has been confirmed by X-ray diffraction and chemical analysis
##URL=rruff.info/R050267
##MEASURED CHEMISTRY=(Ba_0.96_Sr_0.04_)CO_3_
399.1926, 5.7483418E-03
401.1211, 5.9958240E-03
403.0496, 6.0246489E-03
404.9780, 5.1469309E-03
406.9065, 5.1466040E-03
408.8350, 5.5198381E-03
410.7634, 4.6076928E-03
412.6919, 6.2245941E-03
414.6204, 6.1964002E-03
416.5488, 5.2147862E-03
418.4773, 6.6822991E-03
420.4058, 8.4847491E-03
422.3342, 5.7730302E-03
424.2627, 4.5534838E-03
426.1912, 4.7824909E-03
428.1196, 5.1034531E-03
430.0481, 5.1367078E-03
431.9766, 5.7049599E-03
433.9050, 5.4793949E-03
435.8335, 5.4005571E-03
437.7620, 5.1975688E-03
439.6904, 3.7673870E-03
441.6189, 3.5372970E-03
443.5474, 3.8078681E-03
445.4758, 5.4458161E-03
447.4043, 6.3888379E-03
449.3328, 6.7047500E-03
451.2612, 6.5101511E-03
453.1897, 6.5319799E-03
455.1182, 6.4924611E-03
457.0466, 5.3599211E-03
458.9751, 4.6128109E-03
460.9036, 4.7600642E-03
462.8320, 4.7804350E-03
464.7605, 5.1041539E-03
466.6890, 5.5152150E-03
468.6174, 5.7255682E-03
470.5459, 5.7081138E-03
472.4744, 5.5191340E-03
474.4028, 5.5471510E-03
476.3313, 5.1214150E-03
478.2598, 5.3613302E-03
480.1882, 5.8926991E-03
482.1167, 5.4652910E-03
484.0452, 5.4129022E-03
485.9736, 5.3851730E-03
487.9021, 4.8103589E-03
489.8306, 5.5236169E-03
491.7590, 6.2195612E-03
493.6875, 5.9983111E-03
495.6160, 5.3851418E-03
497.5444, 4.8190812E-03
499.4729, 4.8234938E-03
501.4014, 5.5748941E-03
503.3298, 5.8739651E-03
505.2583, 5.2867481E-03
507.1868, 4.8044641E-03
509.1152, 4.9431408E-03
511.0437, 5.8341618E-03
512.9722, 5.8622672E-03
514.9006, 5.2491450E-03
516.8291, 5.2853222E-03
518.7576, 5.6382981E-03
520.6860, 6.1800382E-03
522.6145, 6.2499489E-03
524.5430, 6.0437522E-03
526.4714, 6.5193740E-03
528.3999, 6.6642882E-03
530.3284, 6.3606058E-03
532.2568, 5.9294002E-03
534.1853, 5.5196299E-03
536.1138, 5.8206930E-03
538.0422, 5.9451661E-03
539.9707, 5.3862822E-03
541.8992, 5.5347132E-03
543.8276, 6.5036002E-03
545.7561, 7.1053230E-03
547.6846, 6.4170612E-03
549.6130, 6.0564498E-03
551.5415, 6.5905708E-03
553.4700, 7.1837008E-03
555.3984, 6.8995440E-03
557.3269, 6.8563768E-03
559.2554, 6.7863120E-03
561.1838, 7.0565189E-03
563.1123, 7.5240270E-03
565.0408, 7.5165499E-03
566.9692, 7.1348180E-03
568.8977, 6.8420898E-03
570.8262, 6.9983019E-03
572.7546, 7.0960778E-03
574.6831, 7.1743838E-03
576.6116, 6.8159020E-03
578.5400, 6.9429032E-03
580.4685, 7.5887069E-03
582.3970, 7.7884472E-03
584.3254, 7.6258811E-03
586.2539, 7.8461142E-03
588.1824, 7.7029308E-03
590.1108, 7.3624188E-03
592.0393, 7.6898448E-03
593.9678, 8.2122050E-03
595.8962, 8.3557712E-03
597.8247, 8.3746519E-03
599.7532, 8.5598696E-03
601.6816, 8.8506564E-03
603.6101, 8.7822583E-03
605.5386, 8.3328104E-03
607.4670, 8.6711720E-03
609.3955, 9.2352796E-03
611.3240, 9.3838796E-03
613.2524, 9.3421908E-03
615.1809, 9.4953934E-03
617.1094, 9.7022150E-03
619.0378, 9.8065985E-03
620.9663, 9.7028296E-03
622.8948, 9.8270513E-03
624.8232, 9.8351920E-03
626.7517, 9.4338879E-03
628.6802, 9.3971742E-03
630.6086, 9.8048281E-03
632.5371, 9.9922149E-03
634.4656, 1.0075680E-02
636.3940, 1.0192760E-02
638.3225, 1.0241950E-02
640.2510, 1.0485020E-02
642.1794, 1.0541860E-02
644.1079, 1.0442950E-02
646.0364, 1.0595970E-02
647.9648, 1.0743090E-02
649.8933, 1.0711980E-02
651.8218, 1.0779530E-02
653.7502, 1.1110810E-02
655.6787, 1.0953850E-02
657.6072, 1.1050860E-02
659.5356, 1.1871780E-02
661.4641, 1.2327640E-02
663.3926, 1.2323020E-02
665.3210, 1.2809780E-02
667.2495, 1.3334430E-02
669.1780, 1.3694440E-02
671.1064, 1.4231200E-02
673.0349, 1.4847730E-02
674.9634, 1.5439100E-02
676.8918, 1.6706269E-02
678.8203, 1.8124500E-02
680.7488, 1.9292470E-02
682.6772, 2.1894140E-02
684.6057, 2.7195100E-02
686.5342, 3.7594769E-02
688.4626, 5.9480619E-02
690.3911, 9.5489196E-02
692.3196, 0.1238434
694.2480, 9.9142917E-02
696.1765, 5.0654698E-02
698.1050, 2.3038430E-02
700.0334, 1.3500940E-02
701.9619, 1.0052590E-02
703.8904, 8.9629292E-03
705.8188, 8.5510602E-03
707.7473, 7.9824179E-03
709.6758, 7.8230798E-03
711.6042, 8.0208872E-03
713.5327, 8.3671529E-03
715.4612, 8.7059559E-03
717.3896, 8.8557824E-03
719.3181, 8.7825749E-03
721.2466, 9.0572722E-03
723.1750, 9.2117218E-03
725.1035, 9.1731045E-03
727.0320, 9.3008149E-03
728.9604, 9.6510267E-03
730.8889, 9.5325308E-03
732.8174, 9.7505059E-03
734.7458, 1.0221320E-02
736.6743, 1.0103940E-02
738.6028, 1.0027550E-02
740.5313, 1.0241990E-02
742.4597, 1.0229810E-02
744.3882, 1.0250850E-02
746.3167, 1.0269930E-02
748.2451, 1.0487090E-02
750.1736, 1.0943740E-02
752.1021, 1.1005350E-02
754.0305, 1.0878930E-02
755.9590, 1.1251660E-02
757.8875, 1.1558930E-02
759.8159, 1.1467010E-02
761.7444, 1.1665290E-02
763.6729, 1.1860680E-02
765.6013, 1.1909370E-02
767.5298, 1.1889500E-02
769.4583, 1.2471160E-02
771.3867, 1.2879560E-02
773.3152, 1.3045960E-02
775.2437, 1.2627090E-02
777.1721, 1.2528540E-02
779.1006, 1.2935230E-02
781.0291, 1.3070240E-02
782.9575, 1.2834030E-02
784.8860, 1.3122600E-02
786.8145, 1.3551720E-02
788.7429, 1.3569240E-02
790.6714, 1.3399800E-02
792.5999, 1.3430190E-02
794.5283, 1.3610990E-02
796.4568, 1.3895850E-02
798.3853, 1.4121400E-02
800.3137, 1.4472240E-02
802.2422, 1.4475440E-02
804.1707, 1.4476850E-02
806.0991, 1.4827940E-02
808.0276, 1.5396890E-02
809.9561, 1.5677150E-02
811.8845, 1.5804630E-02
813.8130, 1.5807319E-02
815.7415, 1.6192069E-02
817.6699, 1.6723810E-02
819.5984, 1.7629219E-02
821.5269, 1.8172940E-02
823.4553, 1.8576009E-02
825.3838, 1.9339070E-02
827.3123, 2.0326469E-02
829.2407, 2.1852501E-02
831.1692, 2.4147259E-02
833.0977, 2.7318031E-02
835.0261, 3.2090951E-02
836.9546, 3.9530318E-02
838.8831, 4.8597161E-02
840.8115, 5.0798450E-02
842.7400, 5.1194452E-02
844.6685, 5.9409309E-02
846.5969, 7.3113494E-02
848.5254, 9.0384573E-02
850.4539, 0.1115090
852.3823, 0.1360795
854.3108, 0.1592412
856.2393, 0.1685708
858.1677, 0.1547072
860.0962, 0.1218628
862.0247, 8.2372554E-02
863.9531, 4.9874790E-02
865.8816, 3.1414151E-02
867.8101, 2.3782680E-02
869.7385, 2.0713160E-02
871.6670, 1.9330779E-02
873.5955, 1.8852061E-02
875.5239, 1.8405549E-02
877.4524, 1.7898180E-02
879.3809, 1.7822890E-02
881.3093, 1.7811960E-02
883.2378, 1.7737750E-02
885.1663, 1.7519280E-02
887.0947, 1.6881241E-02
889.0232, 1.6207259E-02
890.9517, 1.6391519E-02
892.8801, 1.6423320E-02
894.8085, 1.6185490E-02
896.7370, 1.6144520E-02
898.6655, 1.6171999E-02
900.5939, 1.6214769E-02
902.5224, 1.6031640E-02
904.4509, 1.5902679E-02
906.3793, 1.5819799E-02
908.3078, 1.5794029E-02
910.2363, 1.5932299E-02
912.1647, 1.6130630E-02
914.0932, 1.6296079E-02
916.0217, 1.6236359E-02
917.9501, 1.6258821E-02
919.8786, 1.6548060E-02
921.8071, 1.6581830E-02
923.7355, 1.6682969E-02
925.6640, 1.6790360E-02
927.5925, 1.6974540E-02
929.5209, 1.6891530E-02
931.4494, 1.6964519E-02
933.3779, 1.6935470E-02
935.3063, 1.6877800E-02
937.2348, 1.6996911E-02
939.1633, 1.7062699E-02
941.0917, 1.7075690E-02
943.0202, 1.7128861E-02
944.9487, 1.7079480E-02
946.8771, 1.7324129E-02
948.8056, 1.7821399E-02
950.7341, 1.7788781E-02
952.6625, 1.7629251E-02
954.5910, 1.8002240E-02
956.5195, 1.8113021E-02
958.4479, 1.8341720E-02
960.3764, 1.8541440E-02
962.3049, 1.8715160E-02
964.2333, 1.9002870E-02
966.1618, 1.9126710E-02
968.0903, 1.9166401E-02
970.0187, 1.9332631E-02
971.9472, 1.9567979E-02
973.8757, 1.9521531E-02
975.8041, 1.9068571E-02
977.7326, 1.9236200E-02
979.6611, 1.9866889E-02
981.5895, 2.0024439E-02
983.5180, 1.9909389E-02
985.4465, 2.0035019E-02
987.3749, 2.0295590E-02
989.3034, 2.0707291E-02
991.2319, 2.0807210E-02
993.1603, 2.0903060E-02
995.0888, 2.1019690E-02
997.0173, 2.1315619E-02
998.9457, 2.1589659E-02
1000.874, 2.1877870E-02
1002.803, 2.1965969E-02
1004.731, 2.2146881E-02
1006.660, 2.2391360E-02
1008.588, 2.2544639E-02
1010.517, 2.2637781E-02
1012.445, 2.2792149E-02
1014.373, 2.3082251E-02
1016.302, 2.3307471E-02
1018.230, 2.3442719E-02
1020.159, 2.3572961E-02
1022.087, 2.3641700E-02
1024.016, 2.4025800E-02
1025.944, 2.4341770E-02
1027.873, 2.4469620E-02
1029.801, 2.4522951E-02
1031.730, 2.4799149E-02
1033.658, 2.4847601E-02
1035.587, 2.5168760E-02
1037.515, 2.5312459E-02
1039.444, 2.5322851E-02
1041.372, 2.5280800E-02
1043.301, 2.5921050E-02
1045.229, 2.6321299E-02
1047.157, 2.6368391E-02
1049.086, 2.6379639E-02
1051.014, 2.7126480E-02
1052.943, 2.7981389E-02
1054.871, 2.9516069E-02
1056.800, 3.5953611E-02
1058.728, 5.0826021E-02
1060.657, 5.1135112E-02
1062.585, 3.6259081E-02
1064.514, 2.9310729E-02
1066.442, 2.7678261E-02
1068.371, 2.7655371E-02
1070.299, 2.7960900E-02
1072.228, 2.8375819E-02
1074.156, 2.8685290E-02
1076.084, 2.9251941E-02
1078.013, 2.9117459E-02
1079.941, 2.9172709E-02
1081.870, 2.9614370E-02
1083.798, 3.0222571E-02
1085.727, 3.0358899E-02
1087.655, 3.0526450E-02
1089.584, 3.0846469E-02
1091.512, 3.1333759E-02
1093.441, 3.1674780E-02
1095.369, 3.1967681E-02
1097.298, 3.2079451E-02
1099.226, 3.2551769E-02
1101.155, 3.2595560E-02
1103.083, 3.2797359E-02
1105.011, 3.3201382E-02
1106.940, 3.3626061E-02
1108.868, 3.3892769E-02
1110.797, 3.4256149E-02
1112.725, 3.4663402E-02
1114.654, 3.4934819E-02
1116.582, 3.5149779E-02
1118.511, 3.5179000E-02
1120.439, 3.5380609E-02
1122.368, 3.5730980E-02
1124.296, 3.6116581E-02
1126.225, 3.6409020E-02
1128.153, 3.6328152E-02
1130.082, 3.6666680E-02
1132.010, 3.7185129E-02
1133.938, 3.7573140E-02
1135.867, 3.8103741E-02
1137.795, 3.8641460E-02
1139.724, 3.8740650E-02
1141.652, 3.8892351E-02
1143.581, 3.9418261E-02
1145.509, 4.0010110E-02
1147.438, 4.0378589E-02
1149.366, 4.0971991E-02
1151.295, 4.1574709E-02
1153.223, 4.1836388E-02
1155.152, 4.2041939E-02
1157.080, 4.2414300E-02
1159.009, 4.2581938E-02
1160.937, 4.2803772E-02
1162.865, 4.3199081E-02
1164.794, 4.3947499E-02
1166.722, 4.4663031E-02
1168.651, 4.5062680E-02
1170.579, 4.5418940E-02
1172.508, 4.6244189E-02
1174.436, 4.6930660E-02
1176.365, 4.7566280E-02
1178.293, 4.8059650E-02
1180.222, 4.8437878E-02
1182.150, 4.8888698E-02
1184.079, 4.9356282E-02
1186.007, 5.0103851E-02
1187.936, 5.0739169E-02
1189.864, 5.1075511E-02
1191.792, 5.1724199E-02
1193.721, 5.2392840E-02
1195.649, 5.3246170E-02
1197.578, 5.3984549E-02
1199.506, 5.4611530E-02
1201.435, 5.5408470E-02
1203.363, 5.6288399E-02
1205.292, 5.7213541E-02
1207.220, 5.8252908E-02
1209.149, 5.8958631E-02
1211.077, 5.9599999E-02
1213.006, 6.0342871E-02
1214.934, 6.1077710E-02
1216.863, 6.1791129E-02
1218.791, 6.2614918E-02
1220.719, 6.3384429E-02
1222.648, 6.4105570E-02
1224.576, 6.5076008E-02
1226.505, 6.5848522E-02
1228.433, 6.6457093E-02
1230.362, 6.7412362E-02
1232.290, 6.8428591E-02
1234.219, 6.9658563E-02
1236.147, 7.1019031E-02
1238.076, 7.2195858E-02
1240.004, 7.3208697E-02
1241.933, 7.4207000E-02
1243.861, 7.5377040E-02
1245.790, 7.6686643E-02
1247.718, 7.7866927E-02
1249.646, 7.9083398E-02
1251.575, 8.0418169E-02
1253.503, 8.1695482E-02
1255.432, 8.2922474E-02
1257.360, 8.4164239E-02
1259.289, 8.5448943E-02
1261.217, 8.6978629E-02
1263.146, 8.8455088E-02
1265.074, 8.9949578E-02
1267.003, 9.1347657E-02
1268.931, 9.3035072E-02
1270.860, 9.4551273E-02
1272.788, 9.6004978E-02
1274.717, 9.7587071E-02
1276.645, 9.9506088E-02
1278.573, 0.1017450
1280.502, 0.1038830
1282.430, 0.1057965
1284.359, 0.1078207
1286.287, 0.1099876
1288.216, 0.1121532
1290.144, 0.1140574
1292.073, 0.1160713
1294.001, 0.1182061
1295.930, 0.1205699
1297.858, 0.1224598
1299.787, 0.1243429
1301.715, 0.1264345
1303.644, 0.1285953
1305.572, 0.1306504
1307.500, 0.1330001
1309.429, 0.1355568
1311.357, 0.1379575
1313.286, 0.1402322
1315.214, 0.1425832
1317.143, 0.1450052
1319.071, 0.1476635
1321.000, 0.1504367
1322.928, 0.1535448
1324.857, 0.1564645
1326.785, 0.1591065
1328.714, 0.1620214
1330.642, 0.1652235
1332.571, 0.1687545
1334.499, 0.1723969
1336.427, 0.1760066
1338.356, 0.1797839
1340.284, 0.1838427
1342.213, 0.1878242
1344.141, 0.1920299
1346.070, 0.1964360
1347.998, 0.2012095
1349.927, 0.2061769
1351.855, 0.2105614
1353.784, 0.2152822
1355.712, 0.2206936
1357.641, 0.2264480
1359.569, 0.2318124
1361.498, 0.2377256
1363.426, 0.2441167
1365.354, 0.2504181
1367.283, 0.2563693
1369.211, 0.2615072
1371.140, 0.2662733
1373.068, 0.2716182
1374.997, 0.2764786
1376.925, 0.2808364
1378.854, 0.2857751
1380.782, 0.2924264
1382.711, 0.3003424
1384.639, 0.3084901
1386.568, 0.3168733
1388.496, 0.3249732
1390.424, 0.3328569
1392.353, 0.3408479
1394.281, 0.3490224
1396.210, 0.3571590
1398.138, 0.3654763
1400.067, 0.3737825
1401.995, 0.3822042
1403.924, 0.3899957
1405.852, 0.3973749
1407.781, 0.4038363
1409.709, 0.4100230
1411.638, 0.4145267
1413.566, 0.4156916
1415.495, 0.4131031
1417.423, 0.4081562
1419.351, 0.4021483
1421.280, 0.3955238
1423.208, 0.3871925
1425.137, 0.3772659
1427.065, 0.3666040
1428.994, 0.3550186
1430.922, 0.3425790
1432.851, 0.3301698
1434.779, 0.3177513
1436.708, 0.3056014
1438.636, 0.2936265
1440.565, 0.2820692
1442.493, 0.2713467
1444.422, 0.2611016
1446.350, 0.2510140
1448.278, 0.2413309
1450.207, 0.2325207
1452.135, 0.2243063
1454.064, 0.2160988
1455.992, 0.2079197
1457.921, 0.1998700
1459.849, 0.1920940
1461.778, 0.1848462
1463.706, 0.1781195
1465.635, 0.1716510
1467.563, 0.1652797
1469.492, 0.1591519
1471.420, 0.1535348
1473.349, 0.1480802
1475.277, 0.1425560
1477.205, 0.1372411
1479.134, 0.1322547
1481.062, 0.1272737
1482.991, 0.1224539
1484.919, 0.1180695
1486.848, 0.1136921
1488.776, 0.1090426
1490.705, 0.1050904
1492.633, 0.1009617
1494.562, 9.6748739E-02
1496.490, 9.2313439E-02
1498.419, 8.7557018E-02
1500.347, 8.2852289E-02
1502.276, 7.7632569E-02
1504.204, 7.2169788E-02
1506.132, 6.6850863E-02
1508.061, 6.1416361E-02
1509.989, 5.5453941E-02
1511.918, 4.9232461E-02
1513.846, 4.2840019E-02
1515.775, 3.6438670E-02
1517.703, 3.0345419E-02
1519.632, 2.5493659E-02
1521.560, 2.1795491E-02
1523.489, 1.8894561E-02
1525.417, 1.6755341E-02
1527.346, 1.5212750E-02
1529.274, 1.4346180E-02
1531.203, 1.3223980E-02
1533.131, 1.2437300E-02
1535.059, 1.2100960E-02
1536.988, 1.1803630E-02
1538.916, 1.1645590E-02
1540.845, 1.1426850E-02
1542.773, 1.1365860E-02
1544.702, 1.1458730E-02
1546.630, 1.1322820E-02
1548.559, 1.1440580E-02
1550.487, 1.1808480E-02
1552.416, 1.1722720E-02
1554.344, 1.1635940E-02
1556.273, 1.1790410E-02
1558.201, 1.1879210E-02
1560.130, 1.1740680E-02
1562.058, 1.1128860E-02
1563.986, 1.0762310E-02
1565.915, 1.1016260E-02
1567.843, 1.1252510E-02
1569.772, 1.1204280E-02
1571.700, 1.0742650E-02
1573.629, 1.0251290E-02
1575.557, 1.0335080E-02
1577.486, 1.0362960E-02
1579.414, 9.7925579E-03
1581.343, 9.5307417E-03
1583.271, 9.4301375E-03
1585.200, 9.0958010E-03
1587.128, 8.7887086E-03
1589.057, 8.2661053E-03
1590.985, 8.0003673E-03
1592.913, 7.9459939E-03
1594.842, 7.8866612E-03
1596.770, 7.7234791E-03
1598.699, 7.5199739E-03
1600.627, 7.3543428E-03
1602.556, 7.3141018E-03
1604.484, 6.9821030E-03
1606.413, 6.7197462E-03
1608.341, 7.0276870E-03
1610.270, 6.9753770E-03
1612.198, 6.6996650E-03
1614.127, 6.3631032E-03
1616.055, 6.0176230E-03
1617.984, 5.4925061E-03
1619.912, 5.2156490E-03
1621.840, 5.5019702E-03
1623.769, 5.4294029E-03
1625.697, 5.1420289E-03
1627.626, 5.1327008E-03
1629.554, 5.2795499E-03
1631.483, 5.2017132E-03
1633.411, 5.1981029E-03
1635.340, 5.1767840E-03
1637.268, 5.0697261E-03
1639.197, 4.9345260E-03
1641.125, 4.9708858E-03
1643.054, 4.9614310E-03
1644.982, 5.0266981E-03
1646.911, 4.7255191E-03
1648.839, 4.3177749E-03
1650.767, 4.4636540E-03
1652.696, 4.6180459E-03
1654.624, 4.2755650E-03
1656.553, 4.1395961E-03
1658.481, 3.9086202E-03
1660.410, 3.7467389E-03
1662.338, 3.7576240E-03
1664.267, 3.4741289E-03
1666.195, 3.0662681E-03
1668.124, 3.1263251E-03
1670.052, 3.2831749E-03
1671.981, 3.1639331E-03
1673.909, 2.9575471E-03
1675.838, 2.8528001E-03
1677.766, 2.8402889E-03
1679.694, 3.0705431E-03
1681.623, 2.7836689E-03
1683.551, 2.3091480E-03
1685.480, 2.1279480E-03
1687.408, 2.3367610E-03
1689.337, 2.3378599E-03
1691.265, 2.1738070E-03
1693.194, 2.0208880E-03
1695.122, 2.2670990E-03
1697.051, 2.2268130E-03
1698.979, 1.9132670E-03
1700.908, 1.7377540E-03
1702.836, 1.6493560E-03
1704.765, 1.4322810E-03
1706.693, 1.1020660E-03
1708.621, 1.6888340E-03
1710.550, 1.5465789E-03
1712.478, 7.6305150E-04
1714.407, 4.3303851E-04
1716.335, 1.2242600E-03
1718.264, 1.4035230E-03
1720.192, 1.3372040E-03
1722.121, 1.4833970E-03
1724.049, 2.0122351E-03
1725.978, 2.0908120E-03
1727.906, 1.7042800E-03
1729.835, 1.6409830E-03
1731.763, 2.0238850E-03
1733.692, 2.1452049E-03
1735.620, 1.9769010E-03
1737.548, 2.0687471E-03
1739.477, 2.6472970E-03
1741.405, 3.2904390E-03
1743.334, 4.9926522E-03
1745.262, 9.0022422E-03
1747.191, 1.6269270E-02
1749.119, 2.3357000E-02
1751.048, 2.5540089E-02
1752.976, 2.3292020E-02
1754.905, 2.0649400E-02
1756.833, 1.7831109E-02
1758.762, 1.3186210E-02
1760.690, 8.9157121E-03
1762.619, 6.3526980E-03
1764.547, 4.3003322E-03
1766.475, 3.0424690E-03
1768.404, 2.9243210E-03
1770.332, 3.2099020E-03
1772.261, 3.5241630E-03
1774.189, 3.3024370E-03
1776.118, 3.0731971E-03
1778.046, 2.8470110E-03
1779.975, 2.8078340E-03
1781.903, 3.1357291E-03
1783.832, 3.3693579E-03
1785.760, 3.1481599E-03
1787.689, 2.9082289E-03
1789.617, 3.1534720E-03
1791.546, 3.1552010E-03
1793.474, 3.2727469E-03
1795.402, 2.9911229E-03
1797.331, 2.9043090E-03
1799.259, 3.3412590E-03
1801.188, 3.7462770E-03
1803.116, 3.5567710E-03
1805.045, 3.2733220E-03
1806.973, 3.2076200E-03
1808.902, 3.3350270E-03
1810.830, 3.1503080E-03
1812.759, 3.1251989E-03
1814.687, 3.6087690E-03
1816.616, 3.6146599E-03
1818.544, 3.5584520E-03
1820.473, 3.5223570E-03
1822.401, 3.2027520E-03
1824.329, 2.9967800E-03
1826.258, 3.4377039E-03
1828.186, 3.8837520E-03
1830.115, 3.4900941E-03
1832.043, 3.9207391E-03
1833.972, 4.5528221E-03
1835.900, 4.1412069E-03
1837.829, 3.6475710E-03
1839.757, 3.5206061E-03
1841.686, 3.6536939E-03
1843.614, 3.7376070E-03
1845.543, 3.9345110E-03
1847.471, 4.5123352E-03
1849.400, 4.4243680E-03
1851.328, 4.1220561E-03
1853.256, 4.4297678E-03
1855.185, 4.8414310E-03
1857.113, 5.4068319E-03
1859.042, 4.4762380E-03
1860.970, 3.5471411E-03
1862.899, 4.2070090E-03
1864.827, 3.8433140E-03
1866.756, 3.0596419E-03
1868.684, 3.7430220E-03
1870.613, 4.0541091E-03
1872.541, 4.1507040E-03
1874.470, 4.2112889E-03
1876.398, 4.5220298E-03
1878.327, 5.1704710E-03
1880.255, 5.2303281E-03
1882.183, 5.2474919E-03
1884.112, 5.3530890E-03
1886.040, 4.0339730E-03
1887.969, 3.4774090E-03
1889.897, 4.5570810E-03
1891.826, 5.0599049E-03
1893.754, 4.8236689E-03
1895.683, 4.1184160E-03
1897.611, 3.9645168E-03
1899.540, 4.2349049E-03
1901.468, 4.3873410E-03
1903.397, 3.4103850E-03
1905.325, 3.6702380E-03
1907.254, 4.5943558E-03
1909.182, 5.2137729E-03
1911.110, 4.7799191E-03
1913.039, 3.9736289E-03
1914.967, 3.4345570E-03
1916.896, 4.0581622E-03
1918.824, 4.0488290E-03
1920.753, 4.3122652E-03
1922.681, 4.7826529E-03
1924.610, 5.6957938E-03
1926.538, 5.5995099E-03
1928.467, 4.6974388E-03
1930.395, 3.9297980E-03
1932.324, 4.4752699E-03
1934.252, 4.4873399E-03
1936.181, 4.5661181E-03
1938.109, 4.2418898E-03
1940.037, 4.4557191E-03
1941.966, 4.6390248E-03
1943.894, 4.7520539E-03
1945.823, 4.7717462E-03
1947.751, 3.6378810E-03
1949.680, 3.5692749E-03
1951.608, 4.8011509E-03
1953.537, 4.7105988E-03
1955.465, 3.7392289E-03
1957.394, 4.7087469E-03
1959.322, 6.3792858E-03
1961.251, 6.0720071E-03
1963.179, 6.0409629E-03
1965.108, 5.8815330E-03
1967.036, 5.2154218E-03
1968.964, 2.8207861E-03
1970.893, 2.4320290E-03
1972.821, 5.0357161E-03
1974.750, 6.0668150E-03
1976.678, 4.7714072E-03
1978.607, 7.0694732E-03
1980.535, 7.2444389E-03
1982.464, 7.2599058E-03
1984.392, 7.1177888E-03
1986.321, 7.7390261E-03
1988.249, 7.8864088E-03
1990.178, 6.7699351E-03
1992.106, 6.8701021E-03
1994.035, 7.1825529E-03
1995.963, 6.6803750E-03
1997.891, 6.2174490E-03
1999.820, 4.3593729E-03
2001.748, 4.0197470E-03
2003.677, 4.7333050E-03
2005.605, 2.4332791E-03
2007.534, 2.3439720E-03
2009.462, 4.6315002E-03
2011.391, 4.4460869E-03
2013.319, 4.8610591E-03
2015.248, 7.0183622E-03
2017.176, 1.0094610E-02
2019.105, 1.0260950E-02
2021.033, 8.6813420E-03
2022.962, 6.7773568E-03
2024.890, 7.5045242E-03
2026.818, 7.2074700E-03
2028.747, 7.4020792E-03
2030.675, 6.4861309E-03
2032.604, 8.1870696E-03
2034.532, 9.1884462E-03
2036.461, 6.3200789E-03
2038.389, 4.6193451E-03
2040.318, 5.4991702E-03
2042.246, 7.3111132E-03
2044.175, 6.7091952E-03
2046.103, 6.1030630E-03
2048.032, 7.6295761E-03
2049.960, 8.8248076E-03
2051.889, 8.4238928E-03
2053.817, 8.9128222E-03
2055.746, 8.5827634E-03
2057.674, 6.6934619E-03
2059.603, 7.8386478E-03
2061.531, 8.5068522E-03
2063.459, 6.9632628E-03
2065.388, 7.4892552E-03
2067.316, 6.9236089E-03
2069.245, 6.2090228E-03
2071.173, 6.9456552E-03
2073.102, 7.3775961E-03
2075.030, 6.7154239E-03
2076.959, 7.2878748E-03
2078.887, 8.9535769E-03
2080.816, 8.2667256E-03
2082.744, 7.1340599E-03
2084.673, 7.4955220E-03
2086.601, 8.1351064E-03
2088.530, 7.6840580E-03
2090.458, 7.9087764E-03
2092.386, 6.9542639E-03
2094.315, 6.8548121E-03
2096.243, 7.2970078E-03
2098.172, 5.9164162E-03
2100.100, 6.3795280E-03
2102.029, 9.4069978E-03
2103.957, 9.7742807E-03
2105.886, 7.7888700E-03
2107.814, 7.6438710E-03
2109.743, 8.4943883E-03
2111.671, 7.1655158E-03
2113.600, 5.9730290E-03
2115.528, 6.4612641E-03
2117.457, 7.1901679E-03
2119.385, 5.4223300E-03
2121.313, 4.1337418E-03
2123.242, 4.3494571E-03
2125.170, 4.7714128E-03
2127.099, 5.6680371E-03
2129.027, 6.0240128E-03
2130.956, 5.9228018E-03
2132.884, 5.0156540E-03
2134.813, 5.6587011E-03
2136.741, 7.9926811E-03
2138.670, 7.5324178E-03
2140.598, 5.6253690E-03
2142.527, 5.9471740E-03
2144.455, 4.8303520E-03
2146.384, 3.4125240E-03
2148.312, 3.6050051E-03
2150.240, 3.3496539E-03
2152.169, 5.0359811E-03
2154.097, 5.2013211E-03
2156.026, 5.7003321E-04
2157.954, 3.4030760E-03
2159.883, 1.1100270E-02
2161.811, 1.1237610E-02
2163.740, 8.8817859E-03
2165.668, 6.9361031E-03
2167.597, 8.0394978E-03
2169.525, 1.0588870E-02
2171.454, 8.7711029E-03
2173.382, 5.6313248E-03
2175.311, 4.7908211E-03
2177.239, 7.0051379E-03
2179.167, 8.1218127E-03
2181.096, 7.7646128E-03
2183.024, 8.1731761E-03
2184.953, 1.0148220E-02
2186.881, 9.6207745E-03
2188.810, 7.2790501E-03
2190.738, 6.1279740E-03
2192.667, 5.8209710E-03
2194.595, 8.5589346E-03
2196.524, 8.9071877E-03
2198.452, 8.0629159E-03
2200.381, 7.5762440E-03
2202.309, 7.1193231E-03
2204.238, 8.4706061E-03
2206.166, 8.6730281E-03
2208.094, 9.7990241E-03
2210.023, 1.0807260E-02
2211.951, 1.0448750E-02
2213.880, 9.2909690E-03
2215.808, 7.7137309E-03
2217.737, 6.4432202E-03
2219.665, 8.1539936E-03
2221.594, 1.0917600E-02
2223.522, 1.0257360E-02
2225.451, 8.4194904E-03
2227.379, 7.8438129E-03
2229.308, 8.5061379E-03
2231.236, 8.0235396E-03
2233.165, 9.0810908E-03
2235.093, 1.0484400E-02
2237.021, 1.0358820E-02
2238.950, 9.2837540E-03
2240.878, 8.1187077E-03
2242.807, 8.7069208E-03
2244.735, 1.0303800E-02
2246.664, 1.0223660E-02
2248.592, 9.3391566E-03
2250.521, 8.7340828E-03
2252.449, 7.8798821E-03
2254.378, 8.1857694E-03
2256.306, 8.9412853E-03
2258.235, 8.7706642E-03
2260.163, 8.0119614E-03
2262.092, 7.3547168E-03
2264.020, 7.6026451E-03
2265.948, 8.2588252E-03
2267.877, 8.0365790E-03
2269.805, 7.4718660E-03
2271.734, 8.2943337E-03
2273.662, 9.5804250E-03
2275.591, 1.0806390E-02
2277.519, 1.0467790E-02
2279.448, 1.0067450E-02
2281.376, 1.0582540E-02
2283.305, 1.0550120E-02
2285.233, 1.0463450E-02
2287.162, 1.0521830E-02
2289.090, 1.0356640E-02
2291.019, 9.6120154E-03
2292.947, 9.2968168E-03
2294.875, 9.9774376E-03
2296.804, 1.0018720E-02
2298.732, 1.0364240E-02
2300.661, 1.0516290E-02
2302.589, 1.0282190E-02
2304.518, 1.0335780E-02
2306.446, 1.0851550E-02
2308.375, 1.1208470E-02
2310.303, 1.1556330E-02
2312.232, 1.1529630E-02
2314.160, 1.0736550E-02
2316.089, 1.0046260E-02
2318.017, 1.0224060E-02
2319.946, 1.0510530E-02
2321.874, 1.2021700E-02
2323.802, 1.3366410E-02
2325.731, 1.2917430E-02
2327.659, 1.1277620E-02
2329.588, 1.0455550E-02
2331.516, 1.1520920E-02
2333.445, 1.2325830E-02
2335.373, 1.1559080E-02
2337.302, 1.1010270E-02
2339.230, 1.0927530E-02
2341.159, 1.0210710E-02
2343.087, 9.8315673E-03
2345.016, 1.0195900E-02
2346.944, 1.0065510E-02
2348.873, 9.1911666E-03
2350.801, 8.9542279E-03
2352.729, 1.0029150E-02
2354.658, 1.0939030E-02
2356.586, 1.1358390E-02
2358.515, 1.2118730E-02
2360.443, 1.2525130E-02
2362.372, 1.1486330E-02
2364.300, 1.0966800E-02
2366.229, 1.1198930E-02
2368.157, 1.1012930E-02
2370.086, 1.0501720E-02
2372.014, 9.6724546E-03
2373.942, 9.7453473E-03
2375.871, 8.8211866E-03
2377.799, 7.9190591E-03
2379.728, 8.1943199E-03
2381.656, 8.3575118E-03
2383.585, 8.8978596E-03
2385.513, 9.5912321E-03
2387.442, 9.4440253E-03
2389.370, 9.7441059E-03
2391.299, 9.7229388E-03
2393.227, 9.3543241E-03
2395.156, 8.9781946E-03
2397.084, 8.3058821E-03
2399.012, 7.8129414E-03
2400.941, 7.8977719E-03
2402.869, 8.6212270E-03
2404.798, 8.9515708E-03
2406.726, 9.1938758E-03
2408.655, 9.0618841E-03
2410.583, 9.1419742E-03
2412.512, 9.0047149E-03
2414.440, 8.4201330E-03
2416.369, 9.7657964E-03
2418.297, 1.0474220E-02
2420.226, 9.6721193E-03
2422.154, 9.3758041E-03
2424.083, 9.7700572E-03
2426.011, 1.0398360E-02
2427.939, 1.1033610E-02
2429.868, 1.0526120E-02
2431.796, 1.0273840E-02
2433.725, 1.0893110E-02
2435.653, 1.2300170E-02
2437.582, 1.4285250E-02
2439.510, 1.5509960E-02
2441.439, 1.7266370E-02
2443.367, 1.9092631E-02
2445.296, 2.0928981E-02
2447.224, 2.2365740E-02
2449.153, 2.3971461E-02
2451.081, 2.6449250E-02
2453.010, 2.6580390E-02
2454.938, 2.5043650E-02
2456.866, 2.2537921E-02
2458.795, 2.0785641E-02
2460.723, 2.0611079E-02
2462.652, 1.9920461E-02
2464.580, 1.8272091E-02
2466.509, 1.6894570E-02
2468.437, 1.6014360E-02
2470.366, 1.5455820E-02
2472.294, 1.6023999E-02
2474.223, 1.5424310E-02
2476.151, 1.4678940E-02
2478.080, 1.4063280E-02
2480.008, 1.3681920E-02
2481.937, 1.1918740E-02
2483.865, 1.1256000E-02
2485.793, 1.1732160E-02
2487.722, 1.1412670E-02
2489.650, 1.0310370E-02
2491.579, 9.5405905E-03
2493.507, 9.2880325E-03
2495.436, 9.7892825E-03
2497.364, 9.5409546E-03
2499.293, 9.7899567E-03
2501.221, 1.1116850E-02
2503.150, 1.1759750E-02
2505.078, 1.1416290E-02
2507.007, 1.1478970E-02
2508.935, 1.0749250E-02
2510.864, 1.0125190E-02
2512.792, 9.3008317E-03
2514.720, 8.8531766E-03
2516.649, 7.6759569E-03
2518.577, 8.4456829E-03
2520.506, 1.1238760E-02
2522.434, 1.0880520E-02
2524.363, 9.1393627E-03
2526.291, 8.5817240E-03
2528.220, 9.0166600E-03
2530.148, 9.9404296E-03
2532.077, 1.0295340E-02
2534.005, 1.0082590E-02
2535.934, 8.9630987E-03
2537.862, 8.5284002E-03
2539.791, 8.7891631E-03
2541.719, 8.5366089E-03
2543.647, 9.0462742E-03
2545.576, 9.8121939E-03
2547.504, 9.6153440E-03
2549.433, 9.5417621E-03
2551.361, 9.3712080E-03
2553.290, 8.8278623E-03
2555.218, 8.8594491E-03
2557.147, 9.0963338E-03
2559.075, 9.4003966E-03
2561.004, 9.9880164E-03
2562.932, 9.7584687E-03
2564.861, 9.4769299E-03
2566.789, 1.0032460E-02
2568.718, 9.4774477E-03
2570.646, 8.5602030E-03
2572.574, 8.3865160E-03
2574.503, 8.3337585E-03
2576.431, 7.7856570E-03
2578.360, 6.5168450E-03
2580.288, 6.8846750E-03
2582.217, 7.7915951E-03
2584.145, 7.7506830E-03
2586.074, 7.3261810E-03
2588.002, 7.6166829E-03
2589.931, 8.5505731E-03
2591.859, 8.6767962E-03
2593.788, 8.6927796E-03
2595.716, 8.2219504E-03
2597.645, 7.4498430E-03
2599.573, 7.6189982E-03
2601.501, 8.3659226E-03
2603.430, 8.4107975E-03
2605.358, 9.1784503E-03
2607.287, 9.1733122E-03
2609.215, 9.2039797E-03
2611.144, 9.1464128E-03
2613.072, 9.3192784E-03
2615.001, 9.8585654E-03
2616.929, 9.4692502E-03
2618.858, 8.8853240E-03
2620.786, 8.6058928E-03
2622.715, 8.5484823E-03
2624.643, 8.4032835E-03
2626.572, 9.0235090E-03
2628.500, 9.6049169E-03
2630.428, 9.2030689E-03
2632.357, 9.0358239E-03
2634.285, 9.4077829E-03
2636.214, 9.6818171E-03
2638.142, 9.7901048E-03
2640.071, 1.0073890E-02
2641.999, 1.0694740E-02
2643.928, 9.4964532E-03
2645.856, 8.5099731E-03
2647.785, 8.8971732E-03
2649.713, 9.0128407E-03
2651.642, 8.7242993E-03
2653.570, 9.3368618E-03
2655.499, 9.6537061E-03
2657.427, 8.9737643E-03
2659.355, 8.9830300E-03
2661.284, 8.7525584E-03
2663.212, 8.6823488E-03
2665.141, 8.6738663E-03
2667.069, 8.5526509E-03
2668.998, 8.5230209E-03
2670.926, 8.3475029E-03
2672.855, 7.6898769E-03
2674.783, 8.0442214E-03
2676.712, 8.6177029E-03
2678.640, 8.5360194E-03
2680.569, 8.7417057E-03
2682.497, 8.6263893E-03
2684.426, 7.9328818E-03
2686.354, 8.1283161E-03
2688.282, 8.5649528E-03
2690.211, 8.2508475E-03
2692.139, 8.5209012E-03
2694.068, 8.8151386E-03
2695.996, 7.8500696E-03
2697.925, 6.8326239E-03
2699.853, 7.7761081E-03
2701.782, 8.6125610E-03
2703.710, 8.4864162E-03
2705.639, 8.7362537E-03
2707.567, 8.8649960E-03
2709.496, 8.9134807E-03
2711.424, 8.8212043E-03
2713.353, 8.2684336E-03
2715.281, 7.8725889E-03
2717.209, 7.6198122E-03
2719.138, 6.9294381E-03
2721.066, 7.1998970E-03
2722.995, 7.8101810E-03
2724.923, 7.6598828E-03
2726.852, 7.9432707E-03
2728.780, 8.6647226E-03
2730.709, 8.5302787E-03
2732.637, 8.1676533E-03
2734.566, 8.0246581E-03
2736.494, 8.3901910E-03
2738.423, 8.6377971E-03
2740.351, 8.3285272E-03
2742.280, 7.7670030E-03
2744.208, 7.7010510E-03
2746.136, 8.4107183E-03
2748.065, 8.4831296E-03
2749.993, 7.3881298E-03
2751.922, 7.4945209E-03
2753.850, 8.6767608E-03
2755.779, 8.5566659E-03
2757.707, 8.3528459E-03
2759.636, 8.4134936E-03
2761.564, 8.4113786E-03
2763.493, 8.6035188E-03
2765.421, 8.4105358E-03
2767.350, 7.9987617E-03
2769.278, 7.9000480E-03
2771.207, 8.4181214E-03
2773.135, 7.7484190E-03
2775.063, 7.6173171E-03
2776.992, 8.9100441E-03
2778.920, 9.6070347E-03
2780.849, 9.4884280E-03
2782.777, 9.5006349E-03
2784.706, 8.9006070E-03
2786.634, 8.2028545E-03
2788.563, 8.1150923E-03
2790.491, 8.8734319E-03
2792.420, 1.0317690E-02
2794.348, 9.3272272E-03
2796.277, 8.6431466E-03
2798.205, 9.9123372E-03
2800.134, 1.0355190E-02
2802.062, 1.0786370E-02
2803.990, 1.1079890E-02
2805.919, 1.0699640E-02
2807.847, 1.0130560E-02
2809.776, 1.0751830E-02
2811.704, 1.1671030E-02
2813.633, 1.1344030E-02
2815.561, 1.1097330E-02
2817.490, 1.1688230E-02
2819.418, 1.1996820E-02
2821.347, 1.1916960E-02
2823.275, 1.1763390E-02
2825.204, 1.2195980E-02
2827.132, 1.2809390E-02
2829.061, 1.1728310E-02
2830.989, 1.0896810E-02
2832.917, 1.1248710E-02
2834.846, 1.1741290E-02
2836.774, 1.1577300E-02
2838.703, 1.0222910E-02
2840.631, 9.2596412E-03
2842.560, 9.9086976E-03
2844.488, 9.8290676E-03
2846.417, 9.5901946E-03
2848.345, 9.4349720E-03
2850.274, 8.6434558E-03
2852.202, 8.8597033E-03
2854.131, 9.2094336E-03
2856.059, 8.8185668E-03
2857.988, 8.9076348E-03
2859.916, 9.5855054E-03
2861.844, 1.0092750E-02
2863.773, 1.0085870E-02
2865.701, 1.0244900E-02
2867.630, 1.0952110E-02
2869.558, 1.0783090E-02
2871.487, 1.0810260E-02
2873.415, 1.0863120E-02
2875.344, 9.8648584E-03
2877.272, 9.5247701E-03
2879.201, 9.2334989E-03
2881.129, 9.1368128E-03
2883.058, 9.3613556E-03
2884.986, 9.5056193E-03
2886.915, 9.7766481E-03
2888.843, 1.1021870E-02
2890.771, 1.1367700E-02
2892.700, 1.0416430E-02
2894.628, 1.0289170E-02
2896.557, 9.8508988E-03
2898.485, 9.9255750E-03
2900.414, 1.0248220E-02
2902.342, 1.0304380E-02
2904.271, 9.9148061E-03
2906.199, 9.7822156E-03
2908.128, 1.0266840E-02
2910.056, 1.1059350E-02
2911.985, 1.1325910E-02
2913.913, 1.1301330E-02
2915.842, 1.0163270E-02
2917.770, 8.6324848E-03
2919.698, 9.7019747E-03
2921.627, 1.0244860E-02
2923.555, 8.3233304E-03
2925.484, 9.2347246E-03
2927.412, 1.1373720E-02
2929.341, 1.1313080E-02
2931.269, 1.0323790E-02
2933.198, 1.0337750E-02
2935.126, 1.0264540E-02
2937.055, 1.0516580E-02
2938.983, 1.0410280E-02
2940.912, 1.0612640E-02
2942.840, 1.0299380E-02
2944.769, 8.4651336E-03
2946.697, 8.7798759E-03
2948.625, 8.9824405E-03
2950.554, 7.9771457E-03
2952.482, 8.8423165E-03
2954.411, 1.0638520E-02
2956.339, 1.1397600E-02
2958.268, 1.0322890E-02
2960.196, 1.0253260E-02
2962.125, 1.0934970E-02
2964.053, 9.6421372E-03
2965.982, 8.7499246E-03
2967.910, 9.1545917E-03
2969.839, 9.6938033E-03
2971.767, 9.4060646E-03
2973.696, 9.2943357E-03
2975.624, 1.1220020E-02
2977.552, 1.1755750E-02
2979.481, 1.1396630E-02
2981.409, 1.1143900E-02
2983.338, 1.0701860E-02
2985.266, 1.0381620E-02
2987.195, 1.1714770E-02
2989.123, 1.2685290E-02
2991.052, 1.1651270E-02
2992.980, 1.0226590E-02
2994.909, 8.7962309E-03
2996.837, 9.4167814E-03
2998.766, 1.1122830E-02
3000.694, 1.2352990E-02
3002.623, 1.2010310E-02
3004.551, 1.2245040E-02
3006.479, 1.3336350E-02
3008.408, 1.2822300E-02
3010.336, 1.2239250E-02
3012.265, 1.2604590E-02
3014.193, 1.2683060E-02
3016.122, 1.2803220E-02
3018.050, 1.2682390E-02
3019.979, 1.3277410E-02
3021.907, 1.4266100E-02
3023.836, 1.4563100E-02
3025.764, 1.3656120E-02
3027.693, 1.2769290E-02
3029.621, 1.3708310E-02
3031.550, 1.2621820E-02
3033.478, 1.1910270E-02
3035.406, 1.3089010E-02
3037.335, 1.3460500E-02
3039.263, 1.4469920E-02
3041.192, 1.4099930E-02
3043.120, 1.3589910E-02
3045.049, 1.4360770E-02
3046.977, 1.4066480E-02
3048.906, 1.2886150E-02
3050.834, 1.3207740E-02
3052.763, 1.3460950E-02
3054.691, 1.3683460E-02
3056.620, 1.3067440E-02
3058.548, 1.4360620E-02
3060.477, 1.5262860E-02
3062.405, 1.4163240E-02
3064.333, 1.1688120E-02
3066.262, 1.2043040E-02
3068.190, 1.4347920E-02
3070.119, 1.3706920E-02
3072.047, 1.3508440E-02
3073.976, 1.5208490E-02
3075.904, 1.4832530E-02
3077.833, 1.3766920E-02
3079.761, 1.4399970E-02
3081.690, 1.3631080E-02
3083.618, 1.3027820E-02
3085.547, 1.4165970E-02
3087.475, 1.5515020E-02
3089.404, 1.5167720E-02
3091.332, 1.4982660E-02
3093.260, 1.5011700E-02
3095.189, 1.4668660E-02
3097.117, 1.4333880E-02
3099.046, 1.4277060E-02
3100.974, 1.5066010E-02
3102.903, 1.5965970E-02
3104.831, 1.6502490E-02
3106.760, 1.6258890E-02
3108.688, 1.4282870E-02
3110.617, 1.3229220E-02
3112.545, 1.3747660E-02
3114.474, 1.4343400E-02
3116.402, 1.4843460E-02
3118.331, 1.4629670E-02
3120.259, 1.4821510E-02
3122.188, 1.6387010E-02
3124.116, 1.7286209E-02
3126.044, 1.6512981E-02
3127.973, 1.4510070E-02
3129.901, 1.3445660E-02
3131.830, 1.4990550E-02
3133.758, 1.5966531E-02
3135.687, 1.6263889E-02
3137.615, 1.6057691E-02
3139.544, 1.5462070E-02
3141.472, 1.5572700E-02
3143.401, 1.5742550E-02
3145.329, 1.5735161E-02
3147.258, 1.3792110E-02
3149.186, 1.4394470E-02
3151.115, 1.5487450E-02
3153.043, 1.5681529E-02
3154.971, 1.5255120E-02
3156.900, 1.5084640E-02
3158.828, 1.4924230E-02
3160.757, 1.5391110E-02
3162.685, 1.4605290E-02
3164.614, 1.3340830E-02
3166.542, 1.4377210E-02
3168.471, 1.5595370E-02
3170.399, 1.6027249E-02
3172.328, 1.6071141E-02
3174.256, 1.6331840E-02
3176.185, 1.6134970E-02
3178.113, 1.6629620E-02
3180.042, 1.5585400E-02
3181.970, 1.3915090E-02
3183.898, 1.3285780E-02
3185.827, 1.4024090E-02
3187.755, 1.5168640E-02
3189.684, 1.6893631E-02
3191.612, 1.6770691E-02
3193.541, 1.6533650E-02
3195.469, 1.6616710E-02
3197.398, 1.6817059E-02
3199.326, 1.7337831E-02
3201.255, 1.6527429E-02
3203.183, 1.4411560E-02
3205.112, 1.3510160E-02
3207.040, 1.4027730E-02
3208.969, 1.5377410E-02
3210.897, 1.5737370E-02
3212.825, 1.4914410E-02
3214.754, 1.4367400E-02
3216.682, 1.4869190E-02
3218.611, 1.6002560E-02
3220.539, 1.5961630E-02
3222.468, 1.5361240E-02
3224.396, 1.5017480E-02
3226.325, 1.4579080E-02
3228.253, 1.4156610E-02
3230.182, 1.5133570E-02
3232.110, 1.6193500E-02
3234.039, 1.6736479E-02
3235.967, 1.6588479E-02
3237.896, 1.6612699E-02
3239.824, 1.6638670E-02
3241.752, 1.6728900E-02
3243.681, 1.7018180E-02
3245.609, 1.5864979E-02
3247.538, 1.4261930E-02
3249.466, 1.5310660E-02
3251.395, 1.6421771E-02
3253.323, 1.5929719E-02
3255.252, 1.6328970E-02
3257.180, 1.7364630E-02
3259.109, 1.7463140E-02
3261.037, 1.5594910E-02
3262.966, 1.6741769E-02
3264.894, 1.6968310E-02
3266.823, 1.6371571E-02
3268.751, 1.6587671E-02
3270.679, 1.5380490E-02
3272.608, 1.5258460E-02
3274.536, 1.5488780E-02
3276.465, 1.5385850E-02
3278.393, 1.6494840E-02
3280.322, 1.8011410E-02
3282.250, 1.8091610E-02
3284.179, 1.7336391E-02
3286.107, 1.7319350E-02
3288.036, 1.6818689E-02
3289.964, 1.5976399E-02
3291.893, 1.5102210E-02
3293.821, 1.4493970E-02
3295.750, 1.6483510E-02
3297.678, 1.9134959E-02
3299.606, 1.9681970E-02
3301.535, 1.7396230E-02
3303.463, 1.5316910E-02
3305.392, 1.3065220E-02
3307.320, 1.3716160E-02
3309.249, 1.6467510E-02
3311.177, 1.8625000E-02
3313.106, 1.9244401E-02
3315.034, 1.7214561E-02
3316.963, 1.6371271E-02
3318.891, 1.6382789E-02
3320.820, 1.5661990E-02
3322.748, 1.6505171E-02
3324.677, 1.7028971E-02
3326.605, 1.7916201E-02
3328.533, 1.6905550E-02
3330.462, 1.4401730E-02
3332.390, 1.5133900E-02
3334.319, 1.5288250E-02
3336.247, 1.5727149E-02
3338.176, 1.6490960E-02
3340.104, 1.9500259E-02
3342.033, 1.8611800E-02
3343.961, 1.7145339E-02
3345.890, 1.8347520E-02
3347.818, 1.9621640E-02
3349.747, 1.9843100E-02
3351.675, 1.8034240E-02
3353.604, 1.9980511E-02
3355.532, 1.9984679E-02
3357.460, 1.6239710E-02
3359.389, 1.4674100E-02
3361.317, 1.5544410E-02
3363.246, 1.6172711E-02
3365.174, 1.4037490E-02
3367.103, 1.4915500E-02
3369.031, 1.7153820E-02
3370.960, 1.7293381E-02
3372.888, 1.6696921E-02
3374.817, 1.6920250E-02
3376.745, 1.8402280E-02
3378.674, 1.9315090E-02
3380.602, 1.9473789E-02
3382.531, 1.7176060E-02
3384.459, 1.5941501E-02
3386.387, 1.4573870E-02
3388.316, 1.3947340E-02
3390.244, 1.5146940E-02
3392.173, 1.6457399E-02
3394.101, 1.6150979E-02
3396.030, 1.6869189E-02
3397.958, 1.7790800E-02
3399.887, 1.8284069E-02
3401.815, 1.7707290E-02
3403.744, 1.6588241E-02
3405.672, 1.6490029E-02
3407.601, 1.6526651E-02
3409.529, 1.7360481E-02
3411.458, 1.8076571E-02
3413.386, 1.6895110E-02
3415.314, 1.6632950E-02
3417.243, 1.7339731E-02
3419.171, 1.7371859E-02
3421.100, 1.5773449E-02
3423.028, 1.5344630E-02
3424.957, 1.8441301E-02
3426.885, 1.9809090E-02
3428.814, 1.9650079E-02
3430.742, 1.9735890E-02
3432.671, 1.9551070E-02
3434.599, 1.8954519E-02
3436.528, 1.9217851E-02
3438.456, 1.9261640E-02
3440.385, 1.8529329E-02
3442.313, 1.8856971E-02
3444.241, 1.8042360E-02
3446.170, 1.6896389E-02
3448.098, 1.6563641E-02
3450.027, 1.6284890E-02
3451.955, 1.8467620E-02
3453.884, 1.8999981E-02
3455.812, 1.8272890E-02
3457.741, 1.8855860E-02
3459.669, 1.8613109E-02
3461.598, 2.0202011E-02
3463.526, 1.9626230E-02
3465.455, 1.6602540E-02
3467.383, 1.6068591E-02
3469.312, 1.8820260E-02
3471.240, 2.1538559E-02
3473.168, 2.0565121E-02
3475.097, 1.7831340E-02
3477.025, 1.6533690E-02
3478.954, 1.8432589E-02
3480.882, 1.8653560E-02
3482.811, 1.7044639E-02
3484.739, 1.7906170E-02
3486.668, 1.8375929E-02
3488.596, 1.6565111E-02
3490.525, 1.7013149E-02
3492.453, 1.5913090E-02
3494.382, 1.4610600E-02
3496.310, 1.5431680E-02
3498.239, 1.6718710E-02
3500.167, 1.5858119E-02
3502.095, 1.5696259E-02
3504.024, 1.7181929E-02
3505.952, 1.5876699E-02
3507.881, 1.5345730E-02
3509.809, 1.6832560E-02
3511.738, 1.7435940E-02
3513.666, 1.5761180E-02
3515.595, 1.6456259E-02
3517.523, 1.6832439E-02
3519.452, 1.8275600E-02
3521.380, 1.7853260E-02
3523.309, 1.6718840E-02
3525.237, 1.7833820E-02
3527.166, 1.8287150E-02
3529.094, 1.9430291E-02
3531.022, 2.0373350E-02
3532.951, 1.9034039E-02
3534.879, 1.8225679E-02
3536.808, 1.9878481E-02
3538.736, 1.9031610E-02
3540.665, 1.7935481E-02
3542.593, 1.8380919E-02
3544.522, 1.5699530E-02
3546.450, 1.4349760E-02
3548.379, 1.7250201E-02
3550.307, 1.9201510E-02
3552.236, 1.6305501E-02
3554.164, 1.5254180E-02
3556.093, 1.4609530E-02
3558.021, 1.4846930E-02
3559.949, 1.8742571E-02
3561.878, 1.9549360E-02
3563.806, 1.7908400E-02
3565.735, 1.6026970E-02
3567.663, 1.6623881E-02
3569.592, 1.7678211E-02
3571.520, 1.8552680E-02
3573.449, 1.8689960E-02
3575.377, 1.9166660E-02
3577.306, 1.9373210E-02
3579.234, 1.9841120E-02
3581.163, 1.9453339E-02
3583.091, 2.0372670E-02
3585.020, 1.8233960E-02
3586.948, 1.7798301E-02
3588.876, 1.6334649E-02
3590.805, 1.3628930E-02
3592.733, 1.6706280E-02
3594.662, 2.0361841E-02
3596.590, 2.0178150E-02
3598.519, 1.9253651E-02
3600.447, 1.9170741E-02
3602.376, 1.9083619E-02
3604.304, 1.8271631E-02
3606.233, 1.7872360E-02
3608.161, 1.8454840E-02
3610.090, 1.8866230E-02
3612.018, 1.8415110E-02
3613.947, 1.8537991E-02
3615.875, 1.8418901E-02
3617.803, 1.7666619E-02
3619.732, 1.7701991E-02
3621.660, 1.8130770E-02
3623.589, 1.7361719E-02
3625.517, 1.5360370E-02
3627.446, 1.6545789E-02
3629.374, 1.9711090E-02
3631.303, 2.0158760E-02
3633.231, 1.8930880E-02
3635.160, 1.8590860E-02
3637.088, 2.1211401E-02
3639.017, 2.1945899E-02
3640.945, 2.1190980E-02
3642.874, 1.7422151E-02
3644.802, 1.7262271E-02
3646.730, 1.9562621E-02
3648.659, 2.0994641E-02
3650.587, 2.0207990E-02
3652.516, 2.2809440E-02
3654.444, 2.1731410E-02
3656.373, 1.7098330E-02
3658.301, 1.6581060E-02
3660.230, 1.7948739E-02
3662.158, 2.0321939E-02
3664.087, 2.1875519E-02
3666.015, 1.8192969E-02
3667.944, 2.0548670E-02
3669.872, 2.0503551E-02
3671.801, 1.8911701E-02
3673.729, 1.7590759E-02
3675.657, 1.6422721E-02
3677.586, 1.6816240E-02
3679.514, 2.0501981E-02
3681.443, 2.2785790E-02
3683.371, 2.1783911E-02
3685.300, 2.0086160E-02
3687.228, 1.7823281E-02
3689.157, 1.5856139E-02
3691.085, 1.9511459E-02
3693.014, 2.2872919E-02
3694.942, 1.8175170E-02
3696.871, 1.5126560E-02
3698.799, 1.9496910E-02
3700.728, 1.9562559E-02
3702.656, 1.9108240E-02
3704.584, 2.0293200E-02
3706.513, 1.8438790E-02
3708.441, 1.7709021E-02
3710.370, 1.9886339E-02
3712.298, 2.0422280E-02
3714.227, 1.8771719E-02
3716.155, 1.7239749E-02
3718.084, 1.6766259E-02
3720.012, 1.6808700E-02
3721.941, 2.0647559E-02
3723.869, 2.2178400E-02
3725.798, 1.8155400E-02
3727.726, 1.6574381E-02
3729.655, 1.6069271E-02
3731.583, 1.6315861E-02
3733.511, 1.6711829E-02
3735.440, 1.6581040E-02
3737.368, 1.9506689E-02
3739.297, 2.0235440E-02
3741.225, 1.8781381E-02
3743.154, 1.8588820E-02
3745.082, 2.0394780E-02
3747.011, 2.2048520E-02
3748.939, 2.0972731E-02
3750.868, 1.9825339E-02
3752.796, 1.8852049E-02
3754.725, 1.7767031E-02
3756.653, 2.0852860E-02
3758.582, 2.5206881E-02
3760.510, 2.6575239E-02
3762.438, 2.3554450E-02
3764.367, 2.2444000E-02
3766.295, 2.0835990E-02
3768.224, 1.7246209E-02
3770.152, 1.8858491E-02
3772.081, 1.9588569E-02
3774.009, 2.0749990E-02
3775.938, 2.3538820E-02
3777.866, 2.3906060E-02
3779.795, 2.5265330E-02
3781.723, 2.3427179E-02
3783.652, 2.1043239E-02
3785.580, 2.2219660E-02
3787.509, 2.2074400E-02
3789.437, 2.1921620E-02
3791.365, 2.5294069E-02
3793.294, 2.3921810E-02
3795.222, 1.9245321E-02
3797.151, 1.9305641E-02
3799.079, 2.0321390E-02
3801.008, 1.8331880E-02
3802.936, 1.4433310E-02
3804.865, 1.6268279E-02
3806.793, 1.8378660E-02
3808.722, 1.8582709E-02
3810.650, 2.0507921E-02
3812.579, 2.0616909E-02
3814.507, 2.2192940E-02
3816.436, 2.4017710E-02
3818.364, 2.2856111E-02
3820.292, 2.1214070E-02
3822.221, 2.0887701E-02
3824.149, 1.6976601E-02
3826.078, 1.5057070E-02
3828.006, 1.8408610E-02
3829.935, 1.7411560E-02
3831.863, 2.0326830E-02
3833.792, 2.1949720E-02
3835.720, 2.1652879E-02
3837.649, 2.1985721E-02
3839.577, 2.1512389E-02
3841.506, 1.9578800E-02
3843.434, 2.0592550E-02
3845.363, 2.2379819E-02
3847.291, 2.3316341E-02
3849.219, 2.0531621E-02
3851.148, 1.6458189E-02
3853.076, 1.5974630E-02
3855.005, 1.7252689E-02
3856.933, 1.8344980E-02
3858.862, 1.9780461E-02
3860.790, 1.9461591E-02
3862.719, 2.1483369E-02
3864.647, 2.2647539E-02
3866.576, 2.3617839E-02
3868.504, 2.3419039E-02
3870.433, 2.0503649E-02
3872.361, 1.7997989E-02
3874.290, 1.9237330E-02
3876.218, 2.0834260E-02
3878.146, 2.4024380E-02
3880.075, 2.5996350E-02
3882.003, 2.5752610E-02
3883.932, 2.5491539E-02
3885.860, 2.4497330E-02
3887.789, 1.9743130E-02
3889.717, 1.9468419E-02
3891.646, 2.5544779E-02
3893.574, 2.4820480E-02
3895.503, 2.0645211E-02
3897.431, 1.8320629E-02
3899.360, 2.0894160E-02
3901.288, 2.2644520E-02
3903.217, 2.0621030E-02
3905.145, 1.7368060E-02
3907.073, 1.4336670E-02
3909.002, 1.7120261E-02
3910.930, 2.2471590E-02
3912.859, 2.0142520E-02
3914.787, 1.8405890E-02
3916.716, 2.3389310E-02
3918.644, 2.2464611E-02
3920.573, 1.8961990E-02
3922.501, 2.1700149E-02
3924.430, 2.5837470E-02
3926.358, 2.4691660E-02
3928.287, 1.8985480E-02
3930.215, 1.7156331E-02
3932.144, 1.8467730E-02
3934.072, 1.7042300E-02
3936.000, 1.7444680E-02
3937.929, 1.8217679E-02
3939.857, 1.8355509E-02
3941.786, 1.7120959E-02
3943.714, 2.1038691E-02
3945.643, 2.2134870E-02
3947.571, 1.9719480E-02
3949.500, 1.8895080E-02
3951.428, 1.7530520E-02
3953.357, 2.0171789E-02
3955.285, 2.2200780E-02
3957.214, 2.0470761E-02
3959.142, 2.2467891E-02
3961.071, 2.6109090E-02
3962.999, 2.4340520E-02
3964.927, 2.0207839E-02
3966.856, 1.9468160E-02
3968.784, 1.8271640E-02
3970.713, 2.0409320E-02
3972.641, 2.1485800E-02
3974.570, 2.1812679E-02
3976.498, 2.1948971E-02
3978.427, 1.8646469E-02
3980.355, 1.5824450E-02
3982.284, 2.4371849E-02
3984.212, 2.5849519E-02
3986.141, 2.2728421E-02
3988.069, 2.5334360E-02
3989.998, 2.9067030E-02
3991.926, 2.6828090E-02
3993.854, 2.2949399E-02
3995.783, 2.2674751E-02
3997.711, 2.3518890E-02
3999.640, 2.3530230E-02
##END=



