##NAMES=Xanthoxenite
##RRUFFID=R050234
##IDEAL CHEMISTRY=Ca_4_Fe^3+^_2_(PO_4_)_4_(OH)_2_&#183;3H_2_O
##LOCALITY=Palermo mine, North Groton, Grafton County, New Hampshire, USA
##OWNER=RRUFF
##SOURCE=Marcus Origlieri
##DESCRIPTION=Pale-yellow massive
##STATUS=The identification of this mineral has been confirmed by X-ray diffraction.
##URL=rruff.info/R050234
3.741225e+002, 5.994009e-002
3.760510e+002, 5.937627e-002
3.779795e+002, 5.697841e-002
3.799079e+002, 5.305488e-002
3.818364e+002, 5.292290e-002
3.837649e+002, 5.274076e-002
3.856933e+002, 4.890520e-002
3.876218e+002, 4.521104e-002
3.895503e+002, 4.682158e-002
3.914787e+002, 4.793686e-002
3.934072e+002, 4.356141e-002
3.953357e+002, 4.298993e-002
3.972641e+002, 4.513586e-002
3.991926e+002, 4.382564e-002
4.011211e+002, 4.099758e-002
4.030495e+002, 4.259274e-002
4.049780e+002, 4.456211e-002
4.069065e+002, 4.268644e-002
4.088349e+002, 4.291064e-002
4.107634e+002, 4.386152e-002
4.126919e+002, 4.441037e-002
4.146203e+002, 4.548139e-002
4.165488e+002, 4.702181e-002
4.184773e+002, 4.836595e-002
4.204057e+002, 5.008702e-002
4.223342e+002, 5.125362e-002
4.242627e+002, 5.219660e-002
4.261911e+002, 5.343633e-002
4.281196e+002, 5.490644e-002
4.300481e+002, 5.747603e-002
4.319765e+002, 5.908541e-002
4.339050e+002, 6.056241e-002
4.358335e+002, 6.208622e-002
4.377619e+002, 6.382962e-002
4.396904e+002, 6.631403e-002
4.416189e+002, 6.842415e-002
4.435473e+002, 6.956803e-002
4.454758e+002, 7.025074e-002
4.474043e+002, 7.086968e-002
4.493327e+002, 7.078284e-002
4.512612e+002, 6.928459e-002
4.531897e+002, 6.793912e-002
4.551181e+002, 6.672230e-002
4.570466e+002, 6.552530e-002
4.589751e+002, 6.438570e-002
4.609035e+002, 6.326563e-002
4.628320e+002, 6.272562e-002
4.647605e+002, 6.247638e-002
4.666889e+002, 6.291921e-002
4.686174e+002, 6.335942e-002
4.705459e+002, 6.336170e-002
4.724743e+002, 6.330213e-002
4.744028e+002, 6.289297e-002
4.763313e+002, 6.191813e-002
4.782597e+002, 6.083870e-002
4.801882e+002, 6.026962e-002
4.821167e+002, 5.990045e-002
4.840451e+002, 5.960331e-002
4.859736e+002, 5.953798e-002
4.879021e+002, 5.938449e-002
4.898305e+002, 5.957854e-002
4.917590e+002, 5.993044e-002
4.936875e+002, 6.040903e-002
4.956159e+002, 6.112057e-002
4.975444e+002, 6.269619e-002
4.994729e+002, 6.433754e-002
5.014013e+002, 6.593131e-002
5.033298e+002, 6.782841e-002
5.052583e+002, 7.005996e-002
5.071867e+002, 7.253898e-002
5.091152e+002, 7.499127e-002
5.110437e+002, 7.774299e-002
5.129721e+002, 8.010668e-002
5.149006e+002, 8.273263e-002
5.168290e+002, 8.645870e-002
5.187575e+002, 8.979512e-002
5.206860e+002, 9.335703e-002
5.226144e+002, 9.794081e-002
5.245429e+002, 1.028487e-001
5.264714e+002, 1.077515e-001
5.283998e+002, 1.131395e-001
5.303283e+002, 1.190556e-001
5.322568e+002, 1.257033e-001
5.341852e+002, 1.333965e-001
5.361137e+002, 1.420226e-001
5.380422e+002, 1.515631e-001
5.399706e+002, 1.612726e-001
5.418991e+002, 1.712177e-001
5.438276e+002, 1.809707e-001
5.457560e+002, 1.888863e-001
5.476845e+002, 1.943235e-001
5.496130e+002, 1.964530e-001
5.515414e+002, 1.953537e-001
5.534699e+002, 1.925205e-001
5.553984e+002, 1.884788e-001
5.573268e+002, 1.827634e-001
5.592553e+002, 1.753712e-001
5.611838e+002, 1.675541e-001
5.631122e+002, 1.590265e-001
5.650407e+002, 1.503106e-001
5.669692e+002, 1.421436e-001
5.688976e+002, 1.346042e-001
5.708261e+002, 1.277903e-001
5.727546e+002, 1.212571e-001
5.746830e+002, 1.154693e-001
5.766115e+002, 1.109073e-001
5.785400e+002, 1.074743e-001
5.804684e+002, 1.054239e-001
5.823969e+002, 1.045991e-001
5.843254e+002, 1.045885e-001
5.862538e+002, 1.051091e-001
5.881823e+002, 1.056894e-001
5.901108e+002, 1.056557e-001
5.920392e+002, 1.051504e-001
5.939677e+002, 1.035345e-001
5.958962e+002, 1.015127e-001
5.978246e+002, 9.981275e-002
5.997531e+002, 9.856328e-002
6.016816e+002, 9.822321e-002
6.036100e+002, 9.812144e-002
6.055385e+002, 9.744005e-002
6.074670e+002, 9.611639e-002
6.093954e+002, 9.362971e-002
6.113239e+002, 8.992038e-002
6.132524e+002, 8.491085e-002
6.151808e+002, 7.947421e-002
6.171093e+002, 7.460838e-002
6.190378e+002, 7.029460e-002
6.209662e+002, 6.663713e-002
6.228947e+002, 6.393433e-002
6.248232e+002, 6.188461e-002
6.267516e+002, 6.004576e-002
6.286801e+002, 5.823456e-002
6.306086e+002, 5.697600e-002
6.325370e+002, 5.593640e-002
6.344655e+002, 5.507344e-002
6.363940e+002, 5.462862e-002
6.383224e+002, 5.430156e-002
6.402509e+002, 5.392573e-002
6.421794e+002, 5.374305e-002
6.441078e+002, 5.393614e-002
6.460363e+002, 5.398149e-002
6.479648e+002, 5.379734e-002
6.498932e+002, 5.352589e-002
6.518217e+002, 5.323838e-002
6.537502e+002, 5.289460e-002
6.556786e+002, 5.224280e-002
6.576071e+002, 5.163272e-002
6.595356e+002, 5.081961e-002
6.614641e+002, 4.987338e-002
6.633925e+002, 4.902564e-002
6.653210e+002, 4.836446e-002
6.672495e+002, 4.794002e-002
6.691779e+002, 4.722187e-002
6.711064e+002, 4.625012e-002
6.730349e+002, 4.548278e-002
6.749633e+002, 4.493042e-002
6.768918e+002, 4.436737e-002
6.788203e+002, 4.383987e-002
6.807487e+002, 4.349189e-002
6.826772e+002, 4.302355e-002
6.846057e+002, 4.251917e-002
6.865341e+002, 4.241376e-002
6.884626e+002, 4.234130e-002
6.903911e+002, 4.221900e-002
6.923195e+002, 4.216558e-002
6.942480e+002, 4.197051e-002
6.961765e+002, 4.192828e-002
6.981049e+002, 4.196606e-002
7.000334e+002, 4.211092e-002
7.019619e+002, 4.204950e-002
7.038903e+002, 4.200109e-002
7.058188e+002, 4.210004e-002
7.077473e+002, 4.222607e-002
7.096757e+002, 4.238573e-002
7.116042e+002, 4.272559e-002
7.135327e+002, 4.321577e-002
7.154611e+002, 4.357458e-002
7.173896e+002, 4.383656e-002
7.193181e+002, 4.405339e-002
7.212465e+002, 4.447976e-002
7.231750e+002, 4.509297e-002
7.251035e+002, 4.579725e-002
7.270319e+002, 4.627942e-002
7.289604e+002, 4.674223e-002
7.308889e+002, 4.714644e-002
7.328173e+002, 4.756789e-002
7.347458e+002, 4.806676e-002
7.366743e+002, 4.855203e-002
7.386027e+002, 4.898891e-002
7.405312e+002, 4.937232e-002
7.424597e+002, 4.966995e-002
7.443881e+002, 4.980065e-002
7.463166e+002, 5.006427e-002
7.482451e+002, 5.029840e-002
7.501735e+002, 5.041560e-002
7.521020e+002, 5.054384e-002
7.540305e+002, 5.080071e-002
7.559589e+002, 5.111566e-002
7.578874e+002, 5.121868e-002
7.598159e+002, 5.134908e-002
7.617443e+002, 5.138152e-002
7.636728e+002, 5.153930e-002
7.656013e+002, 5.178601e-002
7.675297e+002, 5.193668e-002
7.694582e+002, 5.208888e-002
7.713867e+002, 5.211163e-002
7.733151e+002, 5.209180e-002
7.752436e+002, 5.234309e-002
7.771721e+002, 5.276842e-002
7.791005e+002, 5.313863e-002
7.810290e+002, 5.329759e-002
7.829575e+002, 5.356016e-002
7.848859e+002, 5.374277e-002
7.868144e+002, 5.401083e-002
7.887429e+002, 5.447438e-002
7.906713e+002, 5.503930e-002
7.925998e+002, 5.540761e-002
7.945283e+002, 5.577340e-002
7.964567e+002, 5.652500e-002
7.983852e+002, 5.726182e-002
8.003137e+002, 5.789085e-002
8.022421e+002, 5.847038e-002
8.041706e+002, 5.926410e-002
8.060991e+002, 6.026522e-002
8.080275e+002, 6.122659e-002
8.099560e+002, 6.217057e-002
8.118845e+002, 6.314337e-002
8.138129e+002, 6.417888e-002
8.157414e+002, 6.540295e-002
8.176699e+002, 6.669132e-002
8.195983e+002, 6.802358e-002
8.215268e+002, 6.954863e-002
8.234553e+002, 7.120983e-002
8.253837e+002, 7.297718e-002
8.273122e+002, 7.474653e-002
8.292407e+002, 7.660310e-002
8.311691e+002, 7.859682e-002
8.330976e+002, 8.055665e-002
8.350261e+002, 8.260986e-002
8.369545e+002, 8.481015e-002
8.388830e+002, 8.716440e-002
8.408115e+002, 8.964593e-002
8.427399e+002, 9.221110e-002
8.446684e+002, 9.486451e-002
8.465969e+002, 9.754927e-002
8.485253e+002, 1.001952e-001
8.504538e+002, 1.030608e-001
8.523823e+002, 1.061807e-001
8.543107e+002, 1.094315e-001
8.562392e+002, 1.126926e-001
8.581677e+002, 1.163631e-001
8.600961e+002, 1.200688e-001
8.620246e+002, 1.236634e-001
8.639531e+002, 1.273075e-001
8.658815e+002, 1.313140e-001
8.678100e+002, 1.353522e-001
8.697385e+002, 1.393378e-001
8.716669e+002, 1.434806e-001
8.735954e+002, 1.478084e-001
8.755239e+002, 1.522867e-001
8.774523e+002, 1.571320e-001
8.793808e+002, 1.621050e-001
8.813093e+002, 1.670361e-001
8.832377e+002, 1.718844e-001
8.851662e+002, 1.769741e-001
8.870947e+002, 1.822963e-001
8.890231e+002, 1.876232e-001
8.909516e+002, 1.931154e-001
8.928801e+002, 1.986859e-001
8.948085e+002, 2.039685e-001
8.967370e+002, 2.092797e-001
8.986655e+002, 2.147441e-001
9.005939e+002, 2.198740e-001
9.025224e+002, 2.248360e-001
9.044509e+002, 2.296837e-001
9.063793e+002, 2.342804e-001
9.083078e+002, 2.385416e-001
9.102363e+002, 2.424566e-001
9.121647e+002, 2.458492e-001
9.140932e+002, 2.487735e-001
9.160217e+002, 2.513537e-001
9.179501e+002, 2.531736e-001
9.198786e+002, 2.539436e-001
9.218071e+002, 2.539186e-001
9.237355e+002, 2.533091e-001
9.256640e+002, 2.521882e-001
9.275925e+002, 2.508377e-001
9.295209e+002, 2.494827e-001
9.314494e+002, 2.481982e-001
9.333779e+002, 2.465895e-001
9.353063e+002, 2.447980e-001
9.372348e+002, 2.430182e-001
9.391633e+002, 2.413522e-001
9.410917e+002, 2.398554e-001
9.430202e+002, 2.384277e-001
9.449487e+002, 2.369681e-001
9.468771e+002, 2.358965e-001
9.488056e+002, 2.353111e-001
9.507341e+002, 2.349121e-001
9.526625e+002, 2.343058e-001
9.545910e+002, 2.332087e-001
9.565195e+002, 2.317892e-001
9.584479e+002, 2.304715e-001
9.603764e+002, 2.297172e-001
9.623049e+002, 2.299949e-001
9.642333e+002, 2.307792e-001
9.661618e+002, 2.313857e-001
9.680903e+002, 2.316024e-001
9.700187e+002, 2.311836e-001
9.719472e+002, 2.300959e-001
9.738757e+002, 2.284239e-001
9.758041e+002, 2.262389e-001
9.777326e+002, 2.236374e-001
9.796611e+002, 2.207523e-001
9.815895e+002, 2.176196e-001
9.835180e+002, 2.144197e-001
9.854465e+002, 2.114517e-001
9.873749e+002, 2.085306e-001
9.893034e+002, 2.056949e-001
9.912319e+002, 2.028980e-001
9.931603e+002, 2.002901e-001
9.950888e+002, 1.976901e-001
9.970173e+002, 1.949038e-001
9.989457e+002, 1.921010e-001
1.000874e+003, 1.895905e-001
1.002803e+003, 1.873017e-001
1.004731e+003, 1.851510e-001
1.006660e+003, 1.831902e-001
1.008588e+003, 1.813683e-001
1.010517e+003, 1.796016e-001
1.012445e+003, 1.782258e-001
1.014373e+003, 1.771415e-001
1.016302e+003, 1.763537e-001
1.018230e+003, 1.757829e-001
1.020159e+003, 1.756998e-001
1.022087e+003, 1.758480e-001
1.024016e+003, 1.758864e-001
1.025944e+003, 1.762765e-001
1.027873e+003, 1.770212e-001
1.029801e+003, 1.779388e-001
1.031730e+003, 1.788001e-001
1.033658e+003, 1.796681e-001
1.035587e+003, 1.806015e-001
1.037515e+003, 1.812911e-001
1.039443e+003, 1.816687e-001
1.041372e+003, 1.817103e-001
1.043300e+003, 1.809342e-001
1.045229e+003, 1.792684e-001
1.047157e+003, 1.769357e-001
1.049086e+003, 1.741834e-001
1.051014e+003, 1.711914e-001
1.052943e+003, 1.683554e-001
1.054871e+003, 1.658131e-001
1.056800e+003, 1.637280e-001
1.058728e+003, 1.619539e-001
1.060657e+003, 1.603503e-001
1.062585e+003, 1.584739e-001
1.064514e+003, 1.564512e-001
1.066442e+003, 1.544417e-001
1.068370e+003, 1.517918e-001
1.070299e+003, 1.486581e-001
1.072227e+003, 1.454671e-001
1.074156e+003, 1.422200e-001
1.076084e+003, 1.389104e-001
1.078013e+003, 1.355015e-001
1.079941e+003, 1.320370e-001
1.081870e+003, 1.287816e-001
1.083798e+003, 1.259095e-001
1.085727e+003, 1.235580e-001
1.087655e+003, 1.216634e-001
1.089584e+003, 1.202955e-001
1.091512e+003, 1.193288e-001
1.093441e+003, 1.187051e-001
1.095369e+003, 1.185646e-001
1.097297e+003, 1.190015e-001
1.099226e+003, 1.197696e-001
1.101154e+003, 1.207191e-001
1.103083e+003, 1.217389e-001
1.105011e+003, 1.228135e-001
1.106940e+003, 1.235794e-001
1.108868e+003, 1.237864e-001
1.110797e+003, 1.233223e-001
1.112725e+003, 1.223083e-001
1.114654e+003, 1.210447e-001
1.116582e+003, 1.199418e-001
1.118511e+003, 1.196856e-001
1.120439e+003, 1.207324e-001
1.122368e+003, 1.225627e-001
1.124296e+003, 1.240628e-001
1.126224e+003, 1.243240e-001
1.128153e+003, 1.232064e-001
1.130081e+003, 1.203678e-001
1.132010e+003, 1.159585e-001
1.133938e+003, 1.104997e-001
1.135867e+003, 1.044637e-001
1.137795e+003, 9.832010e-002
1.139724e+003, 9.214161e-002
1.141652e+003, 8.575644e-002
1.143581e+003, 7.936893e-002
1.145509e+003, 7.299668e-002
1.147438e+003, 6.685934e-002
1.149366e+003, 6.092120e-002
1.151295e+003, 5.531800e-002
1.153223e+003, 5.005831e-002
1.155151e+003, 4.516336e-002
1.157080e+003, 4.071588e-002
1.159008e+003, 3.675776e-002
1.160937e+003, 3.325589e-002
1.162865e+003, 3.005921e-002
1.164794e+003, 2.727493e-002
1.166722e+003, 2.483433e-002
1.168651e+003, 2.264535e-002
1.170579e+003, 2.053824e-002
1.172508e+003, 1.853151e-002
1.174436e+003, 1.677198e-002
1.176365e+003, 1.538722e-002
1.178293e+003, 1.433386e-002
1.180222e+003, 1.333856e-002
1.182150e+003, 1.243126e-002
1.184078e+003, 1.167317e-002
1.186007e+003, 1.107461e-002
1.187935e+003, 1.051158e-002
1.189864e+003, 1.009644e-002
1.191792e+003, 9.739327e-003
1.193721e+003, 9.378614e-003
1.195649e+003, 9.081501e-003
1.197578e+003, 8.790989e-003
1.199506e+003, 8.520566e-003
1.201435e+003, 8.263495e-003
1.203363e+003, 8.108860e-003
1.205292e+003, 7.875863e-003
1.207220e+003, 7.568781e-003
1.209149e+003, 7.326352e-003
1.211077e+003, 7.173290e-003
1.213005e+003, 7.064681e-003
1.214934e+003, 6.991938e-003
1.216862e+003, 6.871884e-003
1.218791e+003, 6.687199e-003
1.220719e+003, 6.506843e-003
1.222648e+003, 6.448822e-003
1.224576e+003, 6.460207e-003
1.226505e+003, 6.412079e-003
1.228433e+003, 6.247674e-003
1.230362e+003, 6.102154e-003
1.232290e+003, 6.124627e-003
1.234219e+003, 6.137087e-003
1.236147e+003, 6.080126e-003
1.238076e+003, 5.960339e-003
1.240004e+003, 5.956853e-003
1.241932e+003, 5.956320e-003
1.243861e+003, 5.829643e-003
1.245789e+003, 5.795146e-003
1.247718e+003, 5.839830e-003
1.249646e+003, 5.810083e-003
1.251575e+003, 5.770500e-003
1.253503e+003, 5.754696e-003
1.255432e+003, 5.742264e-003
1.257360e+003, 5.867955e-003
1.259289e+003, 5.907810e-003
1.261217e+003, 5.873422e-003
1.263146e+003, 5.976982e-003
1.265074e+003, 5.955671e-003
1.267003e+003, 5.927946e-003
1.268931e+003, 6.012439e-003
1.270859e+003, 6.031947e-003
1.272788e+003, 6.084749e-003
1.274716e+003, 6.095281e-003
1.276645e+003, 5.924643e-003
1.278573e+003, 5.879374e-003
1.280502e+003, 5.989686e-003
1.282430e+003, 6.006513e-003
1.284359e+003, 6.044358e-003
1.286287e+003, 6.056655e-003
1.288216e+003, 5.978657e-003
1.290144e+003, 5.989457e-003
1.292073e+003, 5.994069e-003
1.294001e+003, 5.963532e-003
1.295930e+003, 5.989114e-003
1.297858e+003, 5.970073e-003
1.299786e+003, 5.935066e-003
1.301715e+003, 5.987364e-003
1.303643e+003, 6.044161e-003
1.305572e+003, 6.119289e-003
1.307500e+003, 6.259973e-003
1.309429e+003, 6.293980e-003
1.311357e+003, 6.219516e-003
1.313286e+003, 6.191002e-003
1.315214e+003, 6.338604e-003
1.317143e+003, 6.424239e-003
1.319071e+003, 6.473327e-003
1.321000e+003, 6.477917e-003
1.322928e+003, 6.517427e-003
1.324857e+003, 6.590632e-003
1.326785e+003, 6.614670e-003
1.328714e+003, 6.544977e-003
1.330642e+003, 6.586624e-003
1.332570e+003, 6.643056e-003
1.334499e+003, 6.615721e-003
1.336427e+003, 6.672800e-003
1.338356e+003, 6.870446e-003
1.340284e+003, 6.914585e-003
1.342213e+003, 6.896541e-003
1.344141e+003, 6.956200e-003
1.346070e+003, 6.922896e-003
1.347998e+003, 6.939368e-003
1.349927e+003, 7.090298e-003
1.351855e+003, 7.143856e-003
1.353784e+003, 7.106738e-003
1.355712e+003, 7.209704e-003
1.357641e+003, 7.347522e-003
1.359569e+003, 7.435367e-003
1.361497e+003, 7.428968e-003
1.363426e+003, 7.490912e-003
1.365354e+003, 7.561753e-003
1.367283e+003, 7.568168e-003
1.369211e+003, 7.714912e-003
1.371140e+003, 7.857417e-003
1.373068e+003, 7.893456e-003
1.374997e+003, 8.012903e-003
1.376925e+003, 8.045045e-003
1.378854e+003, 8.051774e-003
1.380782e+003, 8.088445e-003
1.382711e+003, 8.123336e-003
1.384639e+003, 8.201494e-003
1.386568e+003, 8.374454e-003
1.388496e+003, 8.411997e-003
1.390424e+003, 8.561650e-003
1.392353e+003, 8.837118e-003
1.394281e+003, 8.880629e-003
1.396210e+003, 8.846398e-003
1.398138e+003, 9.044460e-003
1.400067e+003, 9.128562e-003
1.401995e+003, 9.157552e-003
1.403924e+003, 9.282690e-003
1.405852e+003, 9.364739e-003
1.407781e+003, 9.453380e-003
1.409709e+003, 9.650416e-003
1.411638e+003, 9.815498e-003
1.413566e+003, 9.880173e-003
1.415495e+003, 9.868354e-003
1.417423e+003, 9.963989e-003
1.419351e+003, 1.007071e-002
1.421280e+003, 1.008024e-002
1.423208e+003, 1.020188e-002
1.425137e+003, 1.022718e-002
1.427065e+003, 1.021373e-002
1.428994e+003, 1.033450e-002
1.430922e+003, 1.043533e-002
1.432851e+003, 1.047847e-002
1.434779e+003, 1.063546e-002
1.436708e+003, 1.091203e-002
1.438636e+003, 1.085072e-002
1.440565e+003, 1.079836e-002
1.442493e+003, 1.095678e-002
1.444422e+003, 1.107206e-002
1.446350e+003, 1.117100e-002
1.448278e+003, 1.124545e-002
1.450207e+003, 1.131444e-002
1.452135e+003, 1.141959e-002
1.454064e+003, 1.146396e-002
1.455992e+003, 1.172952e-002
1.457921e+003, 1.171461e-002
1.459849e+003, 1.157966e-002
1.461778e+003, 1.165027e-002
1.463706e+003, 1.173115e-002
1.465635e+003, 1.162534e-002
1.467563e+003, 1.146013e-002
1.469492e+003, 1.153732e-002
1.471420e+003, 1.184697e-002
1.473349e+003, 1.199774e-002
1.475277e+003, 1.194822e-002
1.477205e+003, 1.194924e-002
1.479134e+003, 1.204025e-002
1.481062e+003, 1.216042e-002
1.482991e+003, 1.237946e-002
1.484919e+003, 1.260154e-002
1.486848e+003, 1.286026e-002
1.488776e+003, 1.315423e-002
1.490705e+003, 1.326515e-002
1.492633e+003, 1.326986e-002
1.494562e+003, 1.354990e-002
1.496490e+003, 1.375608e-002
1.498419e+003, 1.379705e-002
1.500347e+003, 1.393304e-002
1.502276e+003, 1.394772e-002
1.504204e+003, 1.414463e-002
1.506132e+003, 1.454664e-002
1.508061e+003, 1.456262e-002
1.509989e+003, 1.447037e-002
1.511918e+003, 1.456390e-002
1.513846e+003, 1.455399e-002
1.515775e+003, 1.468716e-002
1.517703e+003, 1.484467e-002
1.519632e+003, 1.500081e-002
1.521560e+003, 1.517517e-002
1.523489e+003, 1.518244e-002
1.525417e+003, 1.522863e-002
1.527346e+003, 1.535262e-002
1.529274e+003, 1.533692e-002
1.531203e+003, 1.553558e-002
1.533131e+003, 1.582088e-002
1.535059e+003, 1.581471e-002
1.536988e+003, 1.604291e-002
1.538916e+003, 1.657747e-002
1.540845e+003, 1.669064e-002
1.542773e+003, 1.666192e-002
1.544702e+003, 1.678951e-002
1.546630e+003, 1.690030e-002
1.548559e+003, 1.701931e-002
1.550487e+003, 1.730472e-002
1.552416e+003, 1.764421e-002
1.554344e+003, 1.793413e-002
1.556273e+003, 1.825126e-002
1.558201e+003, 1.876085e-002
1.560130e+003, 1.904290e-002
1.562058e+003, 1.909005e-002
1.563986e+003, 1.936953e-002
1.565915e+003, 1.963174e-002
1.567843e+003, 1.980696e-002
1.569772e+003, 2.019578e-002
1.571700e+003, 2.051877e-002
1.573629e+003, 2.097729e-002
1.575557e+003, 2.150243e-002
1.577486e+003, 2.177364e-002
1.579414e+003, 2.195000e-002
1.581343e+003, 2.214482e-002
1.583271e+003, 2.233604e-002
1.585200e+003, 2.250653e-002
1.587128e+003, 2.265664e-002
1.589057e+003, 2.270106e-002
1.590985e+003, 2.259524e-002
1.592913e+003, 2.261055e-002
1.594842e+003, 2.248871e-002
1.596770e+003, 2.221300e-002
1.598699e+003, 2.189991e-002
1.600627e+003, 2.159918e-002
1.602556e+003, 2.125988e-002
1.604484e+003, 2.089415e-002
1.606413e+003, 2.063563e-002
1.608341e+003, 2.047065e-002
1.610270e+003, 2.024173e-002
1.612198e+003, 1.998382e-002
1.614127e+003, 1.982414e-002
1.616055e+003, 1.979321e-002
1.617984e+003, 1.949210e-002
1.619912e+003, 1.927955e-002
1.621840e+003, 1.930574e-002
1.623769e+003, 1.912157e-002
1.625697e+003, 1.897725e-002
1.627626e+003, 1.890473e-002
1.629554e+003, 1.889822e-002
1.631483e+003, 1.890085e-002
1.633411e+003, 1.894079e-002
1.635340e+003, 1.898601e-002
1.637268e+003, 1.869765e-002
1.639197e+003, 1.840552e-002
1.641125e+003, 1.810536e-002
1.643054e+003, 1.785461e-002
1.644982e+003, 1.795776e-002
1.646911e+003, 1.804029e-002
1.648839e+003, 1.768169e-002
1.650767e+003, 1.774737e-002
1.652696e+003, 1.808294e-002
1.654624e+003, 1.759640e-002
1.656553e+003, 1.693178e-002
1.658481e+003, 1.671797e-002
1.660410e+003, 1.662794e-002
1.662338e+003, 1.647067e-002
1.664267e+003, 1.616105e-002
1.666195e+003, 1.598281e-002
1.668124e+003, 1.588082e-002
1.670052e+003, 1.579086e-002
1.671981e+003, 1.566262e-002
1.673909e+003, 1.560111e-002
1.675838e+003, 1.528613e-002
1.677766e+003, 1.484730e-002
1.679694e+003, 1.475064e-002
1.681623e+003, 1.473475e-002
1.683551e+003, 1.492657e-002
1.685480e+003, 1.477376e-002
1.687408e+003, 1.431130e-002
1.689337e+003, 1.414964e-002
1.691265e+003, 1.400891e-002
1.693194e+003, 1.391578e-002
1.695122e+003, 1.403630e-002
1.697051e+003, 1.397672e-002
1.698979e+003, 1.397452e-002
1.700908e+003, 1.393977e-002
1.702836e+003, 1.339547e-002
1.704765e+003, 1.327496e-002
1.706693e+003, 1.331690e-002
1.708621e+003, 1.336991e-002
1.710550e+003, 1.331297e-002
1.712478e+003, 1.310144e-002
1.714407e+003, 1.308751e-002
1.716335e+003, 1.321005e-002
1.718264e+003, 1.318536e-002
1.720192e+003, 1.305582e-002
1.722121e+003, 1.298021e-002
1.724049e+003, 1.275606e-002
1.725978e+003, 1.260576e-002
1.727906e+003, 1.264377e-002
1.729835e+003, 1.255528e-002
1.731763e+003, 1.252236e-002
1.733692e+003, 1.255527e-002
1.735620e+003, 1.224949e-002
1.737548e+003, 1.188798e-002
1.739477e+003, 1.179531e-002
1.741405e+003, 1.164523e-002
1.743334e+003, 1.149758e-002
1.745262e+003, 1.139780e-002
1.747191e+003, 1.143930e-002
1.749119e+003, 1.148515e-002
1.751048e+003, 1.150181e-002
1.752976e+003, 1.163506e-002
1.754905e+003, 1.187331e-002
1.756833e+003, 1.182427e-002
1.758762e+003, 1.178924e-002
1.760690e+003, 1.201482e-002
1.762619e+003, 1.219540e-002
1.764547e+003, 1.224271e-002
1.766475e+003, 1.239776e-002
1.768404e+003, 1.256273e-002
1.770332e+003, 1.261279e-002
1.772261e+003, 1.267332e-002
1.774189e+003, 1.265035e-002
1.776118e+003, 1.261994e-002
1.778046e+003, 1.268699e-002
1.779975e+003, 1.274906e-002
1.781903e+003, 1.269649e-002
1.783832e+003, 1.277157e-002
1.785760e+003, 1.285382e-002
1.787689e+003, 1.282993e-002
1.789617e+003, 1.298641e-002
1.791546e+003, 1.325799e-002
1.793474e+003, 1.318008e-002
1.795402e+003, 1.311596e-002
1.797331e+003, 1.318134e-002
1.799259e+003, 1.314818e-002
1.801188e+003, 1.329143e-002
1.803116e+003, 1.328359e-002
1.805045e+003, 1.318179e-002
1.806973e+003, 1.330432e-002
1.808902e+003, 1.346855e-002
1.810830e+003, 1.337573e-002
1.812759e+003, 1.337903e-002
1.814687e+003, 1.340322e-002
1.816616e+003, 1.340288e-002
1.818544e+003, 1.335459e-002
1.820473e+003, 1.362523e-002
1.822401e+003, 1.388032e-002
1.824329e+003, 1.388885e-002
1.826258e+003, 1.386055e-002
1.828186e+003, 1.382728e-002
1.830115e+003, 1.398391e-002
1.832043e+003, 1.410608e-002
1.833972e+003, 1.404250e-002
1.835900e+003, 1.396501e-002
1.837829e+003, 1.395576e-002
1.839757e+003, 1.412810e-002
1.841686e+003, 1.417948e-002
1.843614e+003, 1.415609e-002
1.845543e+003, 1.401319e-002
1.847471e+003, 1.403300e-002
1.849400e+003, 1.402943e-002
1.851328e+003, 1.394519e-002
1.853256e+003, 1.414211e-002
1.855185e+003, 1.413342e-002
1.857113e+003, 1.416182e-002
1.859042e+003, 1.414242e-002
1.860970e+003, 1.395531e-002
1.862899e+003, 1.367667e-002
1.864827e+003, 1.369145e-002
1.866756e+003, 1.395803e-002
1.868684e+003, 1.393622e-002
1.870613e+003, 1.370555e-002
1.872541e+003, 1.354768e-002
1.874470e+003, 1.363597e-002
1.876398e+003, 1.398704e-002
1.878327e+003, 1.386569e-002
1.880255e+003, 1.351896e-002
1.882183e+003, 1.339011e-002
1.884112e+003, 1.360867e-002
1.886040e+003, 1.367858e-002
1.887969e+003, 1.331617e-002
1.889897e+003, 1.328890e-002
1.891826e+003, 1.338469e-002
1.893754e+003, 1.327541e-002
1.895683e+003, 1.328273e-002
1.897611e+003, 1.335381e-002
1.899540e+003, 1.316239e-002
1.901468e+003, 1.325359e-002
1.903397e+003, 1.333035e-002
1.905325e+003, 1.339940e-002
1.907254e+003, 1.321887e-002
1.909182e+003, 1.283897e-002
1.911110e+003, 1.239640e-002
1.913039e+003, 1.242546e-002
1.914967e+003, 1.288778e-002
1.916896e+003, 1.322541e-002
1.918824e+003, 1.319785e-002
1.920753e+003, 1.319163e-002
1.922681e+003, 1.317769e-002
1.924610e+003, 1.273012e-002
1.926538e+003, 1.270062e-002
1.928467e+003, 1.290583e-002
1.930395e+003, 1.281265e-002
1.932324e+003, 1.297442e-002
1.934252e+003, 1.270720e-002
1.936181e+003, 1.199603e-002
1.938109e+003, 1.184738e-002
1.940037e+003, 1.152477e-002
1.941966e+003, 1.145281e-002
1.943894e+003, 1.205481e-002
1.945823e+003, 1.206442e-002
1.947751e+003, 1.114633e-002
1.949680e+003, 1.143618e-002
1.951608e+003, 1.220166e-002
1.953537e+003, 1.204723e-002
1.955465e+003, 1.114831e-002
1.957394e+003, 1.161305e-002
1.959322e+003, 1.204487e-002
1.961251e+003, 1.125707e-002
1.963179e+003, 1.077883e-002
1.965108e+003, 1.200705e-002
1.967036e+003, 1.257186e-002
1.968964e+003, 1.164604e-002
1.970893e+003, 1.087760e-002
1.972821e+003, 1.061241e-002
1.974750e+003, 1.134789e-002
1.976678e+003, 1.263620e-002
1.978607e+003, 1.312168e-002
1.980535e+003, 1.242009e-002
1.982464e+003, 1.220336e-002
1.984392e+003, 1.208063e-002
1.986321e+003, 1.195314e-002
1.988249e+003, 1.181978e-002
1.990178e+003, 1.211835e-002
1.992106e+003, 1.243463e-002
1.994035e+003, 1.171289e-002
1.995963e+003, 1.073768e-002
1.997891e+003, 1.205296e-002
1.999820e+003, 1.277001e-002
2.001748e+003, 1.182300e-002
2.003677e+003, 1.099608e-002
2.005605e+003, 1.100348e-002
2.007534e+003, 1.199223e-002
2.009462e+003, 1.264914e-002
2.011391e+003, 1.289232e-002
2.013319e+003, 1.320618e-002
2.015248e+003, 1.318488e-002
2.017176e+003, 1.258807e-002
2.019105e+003, 1.176750e-002
2.021033e+003, 1.174287e-002
2.022962e+003, 1.217437e-002
2.024890e+003, 1.194096e-002
2.026818e+003, 1.219389e-002
2.028747e+003, 1.324007e-002
2.030675e+003, 1.305725e-002
2.032604e+003, 1.275191e-002
2.034532e+003, 1.242640e-002
2.036461e+003, 1.230296e-002
2.038389e+003, 1.266108e-002
2.040318e+003, 1.235020e-002
2.042246e+003, 1.211166e-002
2.044175e+003, 1.278620e-002
2.046103e+003, 1.233452e-002
2.048031e+003, 1.222075e-002
2.049960e+003, 1.315126e-002
2.051888e+003, 1.290458e-002
2.053817e+003, 1.305729e-002
2.055745e+003, 1.330757e-002
2.057674e+003, 1.256507e-002
2.059602e+003, 1.213079e-002
2.061531e+003, 1.217608e-002
2.063459e+003, 1.194857e-002
2.065388e+003, 1.168303e-002
2.067316e+003, 1.163018e-002
2.069245e+003, 1.179641e-002
2.071173e+003, 1.190036e-002
2.073102e+003, 1.141326e-002
2.075030e+003, 1.143724e-002
2.076958e+003, 1.181435e-002
2.078887e+003, 1.210674e-002
2.080815e+003, 1.186038e-002
2.082744e+003, 1.194490e-002
2.084672e+003, 1.238609e-002
2.086601e+003, 1.240458e-002
2.088529e+003, 1.198157e-002
2.090458e+003, 1.203773e-002
2.092386e+003, 1.194181e-002
2.094315e+003, 1.173506e-002
2.096243e+003, 1.197701e-002
2.098172e+003, 1.187823e-002
2.100100e+003, 1.188636e-002
2.102029e+003, 1.208582e-002
2.103957e+003, 1.203205e-002
2.105885e+003, 1.254971e-002
2.107814e+003, 1.222957e-002
2.109742e+003, 1.225116e-002
2.111671e+003, 1.246688e-002
2.113599e+003, 1.260879e-002
2.115528e+003, 1.282744e-002
2.117456e+003, 1.264000e-002
2.119385e+003, 1.199168e-002
2.121313e+003, 1.155122e-002
2.123242e+003, 1.216630e-002
2.125170e+003, 1.244997e-002
2.127099e+003, 1.193631e-002
2.129027e+003, 1.194530e-002
2.130956e+003, 1.183357e-002
2.132884e+003, 1.223306e-002
2.134813e+003, 1.285020e-002
2.136741e+003, 1.262564e-002
2.138669e+003, 1.235108e-002
2.140598e+003, 1.248347e-002
2.142526e+003, 1.285204e-002
2.144455e+003, 1.265423e-002
2.146383e+003, 1.200236e-002
2.148312e+003, 1.263021e-002
2.150240e+003, 1.260891e-002
2.152169e+003, 1.161283e-002
2.154097e+003, 1.169148e-002
2.156026e+003, 1.259647e-002
2.157954e+003, 1.288532e-002
2.159883e+003, 1.382219e-002
2.161811e+003, 1.404686e-002
2.163740e+003, 1.327108e-002
2.165668e+003, 1.375547e-002
2.167596e+003, 1.468141e-002
2.169525e+003, 1.450971e-002
2.171453e+003, 1.418204e-002
2.173382e+003, 1.429226e-002
2.175310e+003, 1.434828e-002
2.177239e+003, 1.435603e-002
2.179167e+003, 1.454177e-002
2.181096e+003, 1.436098e-002
2.183024e+003, 1.461784e-002
2.184953e+003, 1.541273e-002
2.186881e+003, 1.511249e-002
2.188810e+003, 1.395552e-002
2.190738e+003, 1.343323e-002
2.192667e+003, 1.400074e-002
2.194595e+003, 1.505764e-002
2.196523e+003, 1.435027e-002
2.198452e+003, 1.401816e-002
2.200380e+003, 1.448332e-002
2.202309e+003, 1.515551e-002
2.204237e+003, 1.498952e-002
2.206166e+003, 1.457848e-002
2.208094e+003, 1.402446e-002
2.210023e+003, 1.397037e-002
2.211951e+003, 1.481318e-002
2.213880e+003, 1.508573e-002
2.215808e+003, 1.449565e-002
2.217737e+003, 1.478191e-002
2.219665e+003, 1.495731e-002
2.221594e+003, 1.450779e-002
2.223522e+003, 1.475638e-002
2.225450e+003, 1.435270e-002
2.227379e+003, 1.441802e-002
2.229307e+003, 1.473490e-002
2.231236e+003, 1.471221e-002
2.233164e+003, 1.516810e-002
2.235093e+003, 1.530168e-002
2.237021e+003, 1.515222e-002
2.238950e+003, 1.517542e-002
2.240878e+003, 1.548756e-002
2.242807e+003, 1.597252e-002
2.244735e+003, 1.618821e-002
2.246664e+003, 1.593230e-002
2.248592e+003, 1.611979e-002
2.250521e+003, 1.663733e-002
2.252449e+003, 1.660231e-002
2.254377e+003, 1.645687e-002
2.256306e+003, 1.620278e-002
2.258234e+003, 1.583426e-002
2.260163e+003, 1.597956e-002
2.262091e+003, 1.606906e-002
2.264020e+003, 1.597761e-002
2.265948e+003, 1.618800e-002
2.267877e+003, 1.641460e-002
2.269805e+003, 1.705016e-002
2.271734e+003, 1.738031e-002
2.273662e+003, 1.739894e-002
2.275591e+003, 1.772319e-002
2.277519e+003, 1.796176e-002
2.279448e+003, 1.809705e-002
2.281376e+003, 1.826800e-002
2.283304e+003, 1.835806e-002
2.285233e+003, 1.828449e-002
2.287161e+003, 1.808301e-002
2.289090e+003, 1.812382e-002
2.291018e+003, 1.820971e-002
2.292947e+003, 1.819126e-002
2.294875e+003, 1.847176e-002
2.296804e+003, 1.865491e-002
2.298732e+003, 1.835196e-002
2.300661e+003, 1.830802e-002
2.302589e+003, 1.842373e-002
2.304518e+003, 1.828912e-002
2.306446e+003, 1.854489e-002
2.308375e+003, 1.887671e-002
2.310303e+003, 1.868607e-002
2.312231e+003, 1.872479e-002
2.314160e+003, 1.882519e-002
2.316088e+003, 1.870391e-002
2.318017e+003, 1.904499e-002
2.319945e+003, 1.954695e-002
2.321874e+003, 1.984877e-002
2.323802e+003, 1.978545e-002
2.325731e+003, 1.950710e-002
2.327659e+003, 1.938491e-002
2.329588e+003, 1.939586e-002
2.331516e+003, 1.931904e-002
2.333445e+003, 1.925483e-002
2.335373e+003, 1.934047e-002
2.337302e+003, 1.941376e-002
2.339230e+003, 1.937755e-002
2.341158e+003, 1.936732e-002
2.343087e+003, 1.927137e-002
2.345015e+003, 1.902414e-002
2.346944e+003, 1.856774e-002
2.348872e+003, 1.841959e-002
2.350801e+003, 1.866311e-002
2.352729e+003, 1.867097e-002
2.354658e+003, 1.896356e-002
2.356586e+003, 1.932170e-002
2.358515e+003, 1.940379e-002
2.360443e+003, 1.949589e-002
2.362372e+003, 1.961334e-002
2.364300e+003, 1.977497e-002
2.366229e+003, 1.968642e-002
2.368157e+003, 1.932787e-002
2.370085e+003, 1.902490e-002
2.372014e+003, 1.893762e-002
2.373942e+003, 1.867628e-002
2.375871e+003, 1.838093e-002
2.377799e+003, 1.821386e-002
2.379728e+003, 1.815633e-002
2.381656e+003, 1.785281e-002
2.383585e+003, 1.772826e-002
2.385513e+003, 1.816460e-002
2.387442e+003, 1.839679e-002
2.389370e+003, 1.800379e-002
2.391299e+003, 1.777861e-002
2.393227e+003, 1.818677e-002
2.395156e+003, 1.842544e-002
2.397084e+003, 1.805145e-002
2.399012e+003, 1.805230e-002
2.400941e+003, 1.824421e-002
2.402869e+003, 1.769959e-002
2.404798e+003, 1.753007e-002
2.406726e+003, 1.803633e-002
2.408655e+003, 1.837857e-002
2.410583e+003, 1.833055e-002
2.412512e+003, 1.798214e-002
2.414440e+003, 1.808977e-002
2.416369e+003, 1.848368e-002
2.418297e+003, 1.837223e-002
2.420226e+003, 1.801995e-002
2.422154e+003, 1.797903e-002
2.424083e+003, 1.812734e-002
2.426011e+003, 1.821790e-002
2.427939e+003, 1.792908e-002
2.429868e+003, 1.783622e-002
2.431796e+003, 1.804213e-002
2.433725e+003, 1.810139e-002
2.435653e+003, 1.803819e-002
2.437582e+003, 1.795666e-002
2.439510e+003, 1.788903e-002
2.441439e+003, 1.811959e-002
2.443367e+003, 1.855090e-002
2.445296e+003, 1.861051e-002
2.447224e+003, 1.844956e-002
2.449153e+003, 1.835260e-002
2.451081e+003, 1.803986e-002
2.453010e+003, 1.803310e-002
2.454938e+003, 1.827955e-002
2.456866e+003, 1.806948e-002
2.458795e+003, 1.805495e-002
2.460723e+003, 1.815108e-002
2.462652e+003, 1.821657e-002
2.464580e+003, 1.832955e-002
2.466509e+003, 1.812424e-002
2.468437e+003, 1.815350e-002
2.470366e+003, 1.828178e-002
2.472294e+003, 1.816920e-002
2.474223e+003, 1.778786e-002
2.476151e+003, 1.774105e-002
2.478080e+003, 1.786091e-002
2.480008e+003, 1.809703e-002
2.481937e+003, 1.839342e-002
2.483865e+003, 1.831710e-002
2.485793e+003, 1.815001e-002
2.487722e+003, 1.832810e-002
2.489650e+003, 1.875297e-002
2.491579e+003, 1.891764e-002
2.493507e+003, 1.866282e-002
2.495436e+003, 1.856845e-002
2.497364e+003, 1.894798e-002
2.499293e+003, 1.923925e-002
2.501221e+003, 1.917890e-002
2.503150e+003, 1.888668e-002
2.505078e+003, 1.883708e-002
2.507007e+003, 1.898644e-002
2.508935e+003, 1.890423e-002
2.510864e+003, 1.866404e-002
2.512792e+003, 1.889102e-002
2.514720e+003, 1.907921e-002
2.516649e+003, 1.897254e-002
2.518577e+003, 1.891207e-002
2.520506e+003, 1.904667e-002
2.522434e+003, 1.920748e-002
2.524363e+003, 1.904117e-002
2.526291e+003, 1.907535e-002
2.528220e+003, 1.935456e-002
2.530148e+003, 1.929625e-002
2.532077e+003, 1.920829e-002
2.534005e+003, 1.942693e-002
2.535934e+003, 1.963034e-002
2.537862e+003, 1.962452e-002
2.539791e+003, 1.984004e-002
2.541719e+003, 1.996533e-002
2.543647e+003, 2.010969e-002
2.545576e+003, 1.978155e-002
2.547504e+003, 1.945712e-002
2.549433e+003, 1.949622e-002
2.551361e+003, 1.970608e-002
2.553290e+003, 2.001842e-002
2.555218e+003, 2.019480e-002
2.557147e+003, 2.023752e-002
2.559075e+003, 2.048142e-002
2.561004e+003, 2.081009e-002
2.562932e+003, 2.101288e-002
2.564861e+003, 2.087243e-002
2.566789e+003, 2.077813e-002
2.568718e+003, 2.125666e-002
2.570646e+003, 2.130869e-002
2.572574e+003, 2.110503e-002
2.574503e+003, 2.105718e-002
2.576431e+003, 2.115312e-002
2.578360e+003, 2.143570e-002
2.580288e+003, 2.175290e-002
2.582217e+003, 2.186421e-002
2.584145e+003, 2.179424e-002
2.586074e+003, 2.180024e-002
2.588002e+003, 2.182171e-002
2.589931e+003, 2.217904e-002
2.591859e+003, 2.227418e-002
2.593788e+003, 2.247927e-002
2.595716e+003, 2.253938e-002
2.597645e+003, 2.267726e-002
2.599573e+003, 2.255644e-002
2.601501e+003, 2.246111e-002
2.603430e+003, 2.267273e-002
2.605358e+003, 2.296016e-002
2.607287e+003, 2.340794e-002
2.609215e+003, 2.345858e-002
2.611144e+003, 2.315133e-002
2.613072e+003, 2.325022e-002
2.615001e+003, 2.318642e-002
2.616929e+003, 2.308623e-002
2.618858e+003, 2.330867e-002
2.620786e+003, 2.356024e-002
2.622715e+003, 2.337378e-002
2.624643e+003, 2.324012e-002
2.626572e+003, 2.329064e-002
2.628500e+003, 2.328380e-002
2.630428e+003, 2.320202e-002
2.632357e+003, 2.327551e-002
2.634285e+003, 2.366528e-002
2.636214e+003, 2.370495e-002
2.638142e+003, 2.366158e-002
2.640071e+003, 2.380190e-002
2.641999e+003, 2.376348e-002
2.643928e+003, 2.353969e-002
2.645856e+003, 2.372845e-002
2.647785e+003, 2.400896e-002
2.649713e+003, 2.422445e-002
2.651642e+003, 2.427111e-002
2.653570e+003, 2.418718e-002
2.655499e+003, 2.408180e-002
2.657427e+003, 2.417999e-002
2.659355e+003, 2.433320e-002
2.661284e+003, 2.436106e-002
2.663212e+003, 2.433408e-002
2.665141e+003, 2.451093e-002
2.667069e+003, 2.448125e-002
2.668998e+003, 2.447913e-002
2.670926e+003, 2.447210e-002
2.672855e+003, 2.444831e-002
2.674783e+003, 2.448473e-002
2.676712e+003, 2.480709e-002
2.678640e+003, 2.483906e-002
2.680569e+003, 2.480719e-002
2.682497e+003, 2.492605e-002
2.684426e+003, 2.513014e-002
2.686354e+003, 2.534153e-002
2.688282e+003, 2.526329e-002
2.690211e+003, 2.519284e-002
2.692139e+003, 2.554276e-002
2.694068e+003, 2.583084e-002
2.695996e+003, 2.590060e-002
2.697925e+003, 2.585586e-002
2.699853e+003, 2.566974e-002
2.701782e+003, 2.554787e-002
2.703710e+003, 2.608805e-002
2.705639e+003, 2.643306e-002
2.707567e+003, 2.612867e-002
2.709496e+003, 2.608115e-002
2.711424e+003, 2.616985e-002
2.713353e+003, 2.623595e-002
2.715281e+003, 2.628916e-002
2.717209e+003, 2.650831e-002
2.719138e+003, 2.670345e-002
2.721066e+003, 2.675998e-002
2.722995e+003, 2.674162e-002
2.724923e+003, 2.674972e-002
2.726852e+003, 2.682785e-002
2.728780e+003, 2.682246e-002
2.730709e+003, 2.688998e-002
2.732637e+003, 2.717032e-002
2.734566e+003, 2.738044e-002
2.736494e+003, 2.743320e-002
2.738423e+003, 2.749624e-002
2.740351e+003, 2.765003e-002
2.742280e+003, 2.772181e-002
2.744208e+003, 2.775700e-002
2.746136e+003, 2.777050e-002
2.748065e+003, 2.792241e-002
2.749993e+003, 2.819149e-002
2.751922e+003, 2.830244e-002
2.753850e+003, 2.832709e-002
2.755779e+003, 2.833689e-002
2.757707e+003, 2.837231e-002
2.759636e+003, 2.851027e-002
2.761564e+003, 2.853110e-002
2.763493e+003, 2.860152e-002
2.765421e+003, 2.900484e-002
2.767350e+003, 2.906166e-002
2.769278e+003, 2.906176e-002
2.771207e+003, 2.911207e-002
2.773135e+003, 2.889575e-002
2.775063e+003, 2.861052e-002
2.776992e+003, 2.882946e-002
2.778920e+003, 2.929483e-002
2.780849e+003, 2.931021e-002
2.782777e+003, 2.940995e-002
2.784706e+003, 2.952276e-002
2.786634e+003, 2.931167e-002
2.788563e+003, 2.944428e-002
2.790491e+003, 2.940332e-002
2.792420e+003, 2.938038e-002
2.794348e+003, 2.958590e-002
2.796277e+003, 2.997963e-002
2.798205e+003, 3.007534e-002
2.800134e+003, 3.025696e-002
2.802062e+003, 3.033744e-002
2.803990e+003, 3.023332e-002
2.805919e+003, 3.024855e-002
2.807847e+003, 3.042266e-002
2.809776e+003, 3.047645e-002
2.811704e+003, 3.039972e-002
2.813633e+003, 3.060605e-002
2.815561e+003, 3.101331e-002
2.817490e+003, 3.103826e-002
2.819418e+003, 3.114858e-002
2.821347e+003, 3.138063e-002
2.823275e+003, 3.128755e-002
2.825204e+003, 3.136354e-002
2.827132e+003, 3.144131e-002
2.829061e+003, 3.159717e-002
2.830989e+003, 3.177893e-002
2.832917e+003, 3.180411e-002
2.834846e+003, 3.190042e-002
2.836774e+003, 3.217001e-002
2.838703e+003, 3.227217e-002
2.840631e+003, 3.229666e-002
2.842560e+003, 3.249299e-002
2.844488e+003, 3.208303e-002
2.846417e+003, 3.165774e-002
2.848345e+003, 3.142608e-002
2.850274e+003, 3.112634e-002
2.852202e+003, 3.116161e-002
2.854131e+003, 3.163880e-002
2.856059e+003, 3.173490e-002
2.857988e+003, 3.200317e-002
2.859916e+003, 3.239612e-002
2.861844e+003, 3.244683e-002
2.863773e+003, 3.229229e-002
2.865701e+003, 3.225621e-002
2.867630e+003, 3.214587e-002
2.869558e+003, 3.238309e-002
2.871487e+003, 3.261096e-002
2.873415e+003, 3.275314e-002
2.875344e+003, 3.308584e-002
2.877272e+003, 3.331545e-002
2.879201e+003, 3.337056e-002
2.881129e+003, 3.331170e-002
2.883058e+003, 3.331699e-002
2.884986e+003, 3.329369e-002
2.886915e+003, 3.326847e-002
2.888843e+003, 3.326686e-002
2.890771e+003, 3.327940e-002
2.892700e+003, 3.346820e-002
2.894628e+003, 3.362475e-002
2.896557e+003, 3.382377e-002
2.898485e+003, 3.390416e-002
2.900414e+003, 3.391099e-002
2.902342e+003, 3.426863e-002
2.904271e+003, 3.470149e-002
2.906199e+003, 3.482189e-002
2.908128e+003, 3.436119e-002
2.910056e+003, 3.445132e-002
2.911985e+003, 3.442513e-002
2.913913e+003, 3.406371e-002
2.915842e+003, 3.411886e-002
2.917770e+003, 3.396185e-002
2.919698e+003, 3.367298e-002
2.921627e+003, 3.395547e-002
2.923555e+003, 3.425428e-002
2.925484e+003, 3.429137e-002
2.927412e+003, 3.451505e-002
2.929341e+003, 3.411446e-002
2.931269e+003, 3.400970e-002
2.933198e+003, 3.410400e-002
2.935126e+003, 3.430301e-002
2.937055e+003, 3.431231e-002
2.938983e+003, 3.431871e-002
2.940912e+003, 3.434470e-002
2.942840e+003, 3.433763e-002
2.944769e+003, 3.452399e-002
2.946697e+003, 3.444756e-002
2.948625e+003, 3.491947e-002
2.950554e+003, 3.532410e-002
2.952482e+003, 3.538124e-002
2.954411e+003, 3.547999e-002
2.956339e+003, 3.533787e-002
2.958268e+003, 3.560514e-002
2.960196e+003, 3.574751e-002
2.962125e+003, 3.580608e-002
2.964053e+003, 3.590620e-002
2.965982e+003, 3.613449e-002
2.967910e+003, 3.602072e-002
2.969839e+003, 3.579164e-002
2.971767e+003, 3.562981e-002
2.973696e+003, 3.566342e-002
2.975624e+003, 3.548737e-002
2.977552e+003, 3.524438e-002
2.979481e+003, 3.542108e-002
2.981409e+003, 3.552926e-002
2.983338e+003, 3.544503e-002
2.985266e+003, 3.532549e-002
2.987195e+003, 3.547562e-002
2.989123e+003, 3.588828e-002
2.991052e+003, 3.588115e-002
2.992980e+003, 3.541317e-002
2.994909e+003, 3.544034e-002
2.996837e+003, 3.587991e-002
2.998766e+003, 3.598999e-002
3.000694e+003, 3.605552e-002
3.002623e+003, 3.638778e-002
3.004551e+003, 3.652547e-002
3.006479e+003, 3.626135e-002
3.008408e+003, 3.646731e-002
3.010336e+003, 3.697598e-002
3.012265e+003, 3.698424e-002
3.014193e+003, 3.690854e-002
3.016122e+003, 3.715788e-002
3.018050e+003, 3.729981e-002
3.019979e+003, 3.759430e-002
3.021907e+003, 3.790577e-002
3.023836e+003, 3.761946e-002
3.025764e+003, 3.770553e-002
3.027693e+003, 3.814160e-002
3.029621e+003, 3.805375e-002
3.031550e+003, 3.771787e-002
3.033478e+003, 3.788581e-002
3.035406e+003, 3.813781e-002
3.037335e+003, 3.823555e-002
3.039263e+003, 3.834833e-002
3.041192e+003, 3.848632e-002
3.043120e+003, 3.862178e-002
3.045049e+003, 3.868778e-002
3.046977e+003, 3.856589e-002
3.048906e+003, 3.870229e-002
3.050834e+003, 3.925307e-002
3.052763e+003, 3.933672e-002
3.054691e+003, 3.917481e-002
3.056620e+003, 3.918408e-002
3.058548e+003, 3.928997e-002
3.060477e+003, 3.962976e-002
3.062405e+003, 3.987645e-002
3.064333e+003, 3.976197e-002
3.066262e+003, 4.023390e-002
3.068190e+003, 4.028013e-002
3.070119e+003, 3.990140e-002
3.072047e+003, 3.970767e-002
3.073976e+003, 4.007068e-002
3.075904e+003, 4.044503e-002
3.077833e+003, 4.045521e-002
3.079761e+003, 4.069837e-002
3.081690e+003, 4.055005e-002
3.083618e+003, 4.044396e-002
3.085547e+003, 4.071696e-002
3.087475e+003, 4.077929e-002
3.089404e+003, 4.051647e-002
3.091332e+003, 4.111445e-002
3.093260e+003, 4.164921e-002
3.095189e+003, 4.147607e-002
3.097117e+003, 4.132430e-002
3.099046e+003, 4.115180e-002
3.100974e+003, 4.130874e-002
3.102903e+003, 4.152501e-002
3.104831e+003, 4.160618e-002
3.106760e+003, 4.154387e-002
3.108688e+003, 4.120564e-002
3.110617e+003, 4.126050e-002
3.112545e+003, 4.188151e-002
3.114474e+003, 4.216663e-002
3.116402e+003, 4.237179e-002
3.118331e+003, 4.245886e-002
3.120259e+003, 4.239079e-002
3.122188e+003, 4.239283e-002
3.124116e+003, 4.258111e-002
3.126044e+003, 4.228441e-002
3.127973e+003, 4.217030e-002
3.129901e+003, 4.237342e-002
3.131830e+003, 4.255313e-002
3.133758e+003, 4.272844e-002
3.135687e+003, 4.271321e-002
3.137615e+003, 4.211023e-002
3.139544e+003, 4.211343e-002
3.141472e+003, 4.220315e-002
3.143401e+003, 4.249675e-002
3.145329e+003, 4.259816e-002
3.147258e+003, 4.239951e-002
3.149186e+003, 4.265883e-002
3.151115e+003, 4.297514e-002
3.153043e+003, 4.326027e-002
3.154971e+003, 4.303317e-002
3.156900e+003, 4.300839e-002
3.158828e+003, 4.333447e-002
3.160757e+003, 4.330544e-002
3.162685e+003, 4.340537e-002
3.164614e+003, 4.303546e-002
3.166542e+003, 4.311750e-002
3.168471e+003, 4.331469e-002
3.170399e+003, 4.324074e-002
3.172328e+003, 4.357433e-002
3.174256e+003, 4.374700e-002
3.176185e+003, 4.350624e-002
3.178113e+003, 4.314058e-002
3.180042e+003, 4.297605e-002
3.181970e+003, 4.309073e-002
3.183898e+003, 4.332916e-002
3.185827e+003, 4.370167e-002
3.187755e+003, 4.395070e-002
3.189684e+003, 4.396657e-002
3.191612e+003, 4.397773e-002
3.193541e+003, 4.400197e-002
3.195469e+003, 4.430822e-002
3.197398e+003, 4.443359e-002
3.199326e+003, 4.393750e-002
3.201255e+003, 4.335123e-002
3.203183e+003, 4.349776e-002
3.205112e+003, 4.432028e-002
3.207040e+003, 4.468713e-002
3.208969e+003, 4.487614e-002
3.210897e+003, 4.442940e-002
3.212825e+003, 4.411255e-002
3.214754e+003, 4.424608e-002
3.216682e+003, 4.420416e-002
3.218611e+003, 4.435667e-002
3.220539e+003, 4.470687e-002
3.222468e+003, 4.472953e-002
3.224396e+003, 4.472979e-002
3.226325e+003, 4.484658e-002
3.228253e+003, 4.475164e-002
3.230182e+003, 4.487349e-002
3.232110e+003, 4.467659e-002
3.234039e+003, 4.461150e-002
3.235967e+003, 4.488192e-002
3.237896e+003, 4.486344e-002
3.239824e+003, 4.456213e-002
3.241752e+003, 4.459593e-002
3.243681e+003, 4.471751e-002
3.245609e+003, 4.434117e-002
3.247538e+003, 4.450163e-002
3.249466e+003, 4.498257e-002
3.251395e+003, 4.554819e-002
3.253323e+003, 4.554522e-002
3.255252e+003, 4.509062e-002
3.257180e+003, 4.465799e-002
3.259109e+003, 4.466501e-002
3.261037e+003, 4.468906e-002
3.262966e+003, 4.501285e-002
3.264894e+003, 4.518794e-002
3.266823e+003, 4.465129e-002
3.268751e+003, 4.420157e-002
3.270679e+003, 4.454102e-002
3.272608e+003, 4.491290e-002
3.274536e+003, 4.505301e-002
3.276465e+003, 4.528436e-002
3.278393e+003, 4.550129e-002
3.280322e+003, 4.563228e-002
3.282250e+003, 4.576575e-002
3.284179e+003, 4.588138e-002
3.286107e+003, 4.618526e-002
3.288036e+003, 4.635176e-002
3.289964e+003, 4.642700e-002
3.291893e+003, 4.680441e-002
3.293821e+003, 4.655702e-002
3.295750e+003, 4.575114e-002
3.297678e+003, 4.661181e-002
3.299606e+003, 4.784850e-002
3.301535e+003, 4.847579e-002
3.303463e+003, 4.850555e-002
3.305392e+003, 4.830853e-002
3.307320e+003, 4.827685e-002
3.309249e+003, 4.821912e-002
3.311177e+003, 4.876271e-002
3.313106e+003, 4.925982e-002
3.315034e+003, 4.940770e-002
3.316963e+003, 5.003196e-002
3.318891e+003, 5.061001e-002
3.320820e+003, 5.089515e-002
3.322748e+003, 5.112723e-002
3.324677e+003, 5.134349e-002
3.326605e+003, 5.112771e-002
3.328533e+003, 5.120108e-002
3.330462e+003, 5.196512e-002
3.332390e+003, 5.275007e-002
3.334319e+003, 5.280394e-002
3.336247e+003, 5.282264e-002
3.338176e+003, 5.303864e-002
3.340104e+003, 5.329323e-002
3.342033e+003, 5.386963e-002
3.343961e+003, 5.438796e-002
3.345890e+003, 5.408684e-002
3.347818e+003, 5.377413e-002
3.349747e+003, 5.402471e-002
3.351675e+003, 5.408357e-002
3.353604e+003, 5.381069e-002
3.355532e+003, 5.363592e-002
3.357460e+003, 5.342460e-002
3.359389e+003, 5.293611e-002
3.361317e+003, 5.236028e-002
3.363246e+003, 5.163080e-002
3.365174e+003, 5.074281e-002
3.367103e+003, 4.954443e-002
3.369031e+003, 4.860934e-002
3.370960e+003, 4.759302e-002
3.372888e+003, 4.680030e-002
3.374817e+003, 4.610957e-002
3.376745e+003, 4.537370e-002
3.378674e+003, 4.473754e-002
3.380602e+003, 4.372722e-002
3.382531e+003, 4.263949e-002
3.384459e+003, 4.204858e-002
3.386387e+003, 4.111821e-002
3.388316e+003, 3.997647e-002
3.390244e+003, 3.936312e-002
3.392173e+003, 3.870673e-002
3.394101e+003, 3.796967e-002
3.396030e+003, 3.702319e-002
3.397958e+003, 3.607243e-002
3.399887e+003, 3.554995e-002
3.401815e+003, 3.462996e-002
3.403744e+003, 3.380284e-002
3.405672e+003, 3.305487e-002
3.407601e+003, 3.212837e-002
3.409529e+003, 3.140599e-002
3.411458e+003, 3.075480e-002
3.413386e+003, 3.053199e-002
3.415314e+003, 3.046270e-002
3.417243e+003, 2.954008e-002
3.419171e+003, 2.932896e-002
3.421100e+003, 2.889406e-002
3.423028e+003, 2.775341e-002
3.424957e+003, 2.724060e-002
3.426885e+003, 2.711877e-002
3.428814e+003, 2.671165e-002
3.430742e+003, 2.626633e-002
3.432671e+003, 2.558402e-002
3.434599e+003, 2.545214e-002
3.436528e+003, 2.478818e-002
3.438456e+003, 2.366069e-002
3.440385e+003, 2.367498e-002
3.442313e+003, 2.410845e-002
3.444241e+003, 2.371978e-002
3.446170e+003, 2.315832e-002
3.448098e+003, 2.259353e-002
3.450027e+003, 2.222938e-002
3.451955e+003, 2.228774e-002
3.453884e+003, 2.202990e-002
3.455812e+003, 2.128057e-002
3.457741e+003, 2.043008e-002
3.459669e+003, 1.988448e-002
3.461598e+003, 1.965393e-002
3.463526e+003, 1.930120e-002
3.465455e+003, 1.863923e-002
3.467383e+003, 1.770188e-002
3.469312e+003, 1.730095e-002
3.471240e+003, 1.683861e-002
3.473168e+003, 1.667665e-002
3.475097e+003, 1.625075e-002
3.477025e+003, 1.519620e-002
3.478954e+003, 1.495917e-002
3.480882e+003, 1.515346e-002
3.482811e+003, 1.404815e-002
3.484739e+003, 1.293486e-002
3.486668e+003, 1.287896e-002
3.488596e+003, 1.288231e-002
3.490525e+003, 1.226282e-002
3.492453e+003, 1.169199e-002
3.494382e+003, 1.117171e-002
3.496310e+003, 1.144092e-002
3.498239e+003, 1.166666e-002
3.500167e+003, 1.111255e-002
3.502095e+003, 1.072793e-002
3.504024e+003, 1.031377e-002
3.505952e+003, 1.049415e-002
3.507881e+003, 1.071970e-002
3.509809e+003, 1.032263e-002
3.511738e+003, 9.558339e-003
3.513666e+003, 9.371444e-003
3.515595e+003, 9.137831e-003
3.517523e+003, 8.647759e-003
3.519452e+003, 8.565453e-003
3.521380e+003, 8.538447e-003
3.523309e+003, 8.258202e-003
3.525237e+003, 7.261530e-003
3.527166e+003, 7.145474e-003
3.529094e+003, 7.471271e-003
3.531022e+003, 7.862407e-003
3.532951e+003, 7.396684e-003
3.534879e+003, 6.768950e-003
3.536808e+003, 6.802036e-003
3.538736e+003, 6.735292e-003
3.540665e+003, 6.599432e-003
3.542593e+003, 6.311376e-003
3.544522e+003, 6.173988e-003
3.546450e+003, 6.175072e-003
3.548379e+003, 5.719529e-003
3.550307e+003, 5.760623e-003
3.552236e+003, 5.946497e-003
3.554164e+003, 5.426086e-003
3.556093e+003, 4.216319e-003
3.558021e+003, 3.697824e-003
3.559949e+003, 4.553698e-003
3.561878e+003, 4.995221e-003
3.563806e+003, 4.864744e-003
3.565735e+003, 4.562316e-003
3.567663e+003, 3.845038e-003
3.569592e+003, 3.035939e-003
3.571520e+003, 2.756569e-003
3.573449e+003, 2.508018e-003
3.575377e+003, 2.739200e-003
3.577306e+003, 2.944056e-003
3.579234e+003, 2.693744e-003
3.581163e+003, 2.834601e-003
3.583091e+003, 2.815756e-003
3.585020e+003, 2.828074e-003
3.586948e+003, 3.118201e-003
3.588876e+003, 2.847854e-003
3.590805e+003, 1.476246e-003
3.592733e+003, 1.176895e-003
3.594662e+003, 1.247700e-003
3.596590e+003, 1.110123e-003
3.598519e+003, 1.133729e-003
3.600447e+003, 1.120574e-003
3.602376e+003, 7.719290e-004
3.604304e+003, 6.491271e-004
3.606233e+003, 1.332961e-006
3.608161e+003, -8.537224e-005
3.610090e+003, 4.327874e-004
3.612018e+003, 1.004963e-003
3.613947e+003, 6.910899e-004
3.615875e+003, -1.262775e-004
3.617803e+003, 8.878755e-005
3.619732e+003, -8.940235e-006
3.621660e+003, -5.079710e-004
3.623589e+003, -4.822143e-004
3.625517e+003, -1.782799e-004
3.627446e+003, -3.826954e-004
3.629374e+003, -3.493814e-004
3.631303e+003, -8.231171e-004
3.633231e+003, -7.930184e-004
3.635160e+003, -9.156591e-004
3.637088e+003, -1.210258e-003
3.639017e+003, -1.052845e-003
3.640945e+003, -1.202077e-003
3.642874e+003, -1.775171e-003
3.644802e+003, -1.150070e-003
3.646730e+003, -4.816542e-004
3.648659e+003, -6.736013e-004
3.650587e+003, -1.580396e-003
3.652516e+003, -1.696471e-003
3.654444e+003, -1.035756e-003
3.656373e+003, -1.168409e-003
3.658301e+003, -1.772140e-003
3.660230e+003, -2.088884e-003
3.662158e+003, -2.389186e-003
3.664087e+003, -2.708041e-003
3.666015e+003, -2.275799e-003
3.667944e+003, -1.171554e-003
3.669872e+003, -9.279475e-004
3.671801e+003, -2.274866e-003
3.673729e+003, -2.327372e-003
3.675657e+003, -1.198953e-003
3.677586e+003, -1.185361e-003
3.679514e+003, -1.716469e-003
3.681443e+003, -2.076936e-003
3.683371e+003, -1.687970e-003
3.685300e+003, -1.795248e-003
3.687228e+003, -1.824403e-003
3.689157e+003, -1.726245e-003
3.691085e+003, -1.538901e-003
3.693014e+003, -2.152797e-003
3.694942e+003, -2.428044e-003
3.696871e+003, -1.886941e-003
3.698799e+003, -1.922960e-003
3.700728e+003, -1.633091e-003
3.702656e+003, -1.525139e-003
3.704584e+003, -1.859478e-003
3.706513e+003, -2.501416e-003
3.708441e+003, -2.723312e-003
3.710370e+003, -2.048981e-003
3.712298e+003, -1.814320e-003
3.714227e+003, -2.017368e-003
3.716155e+003, -2.128385e-003
3.718084e+003, -2.527841e-003
3.720012e+003, -2.451644e-003
3.721941e+003, -2.138678e-003
3.723869e+003, -2.170855e-003
3.725798e+003, -1.897066e-003
3.727726e+003, -1.568769e-003
3.729655e+003, -1.881189e-003
3.731583e+003, -1.850942e-003
3.733511e+003, -1.723296e-003
3.735440e+003, -1.484213e-003
3.737368e+003, -1.891615e-003
3.739297e+003, -2.074030e-003
3.741225e+003, -1.954285e-003
3.743154e+003, -1.272747e-003
3.745082e+003, -1.726548e-003
3.747011e+003, -2.346705e-003
3.748939e+003, -1.890915e-003
3.750868e+003, -1.075633e-003
3.752796e+003, -1.167907e-003
3.754725e+003, -2.312977e-003
3.756653e+003, -2.551453e-003
3.758582e+003, -2.251972e-003
3.760510e+003, -2.187703e-003
3.762438e+003, -2.351676e-003
3.764367e+003, -2.396739e-003
3.766295e+003, -1.880908e-003
3.768224e+003, -1.311606e-003
3.770152e+003, -2.048319e-003
3.772081e+003, -2.860433e-003
3.774009e+003, -2.960406e-003
3.775938e+003, -2.950695e-003
3.777866e+003, -2.564702e-003
3.779795e+003, -2.535148e-003
3.781723e+003, -2.478280e-003
3.783652e+003, -2.005449e-003
3.785580e+003, -1.992322e-003
3.787509e+003, -2.022939e-003
3.789437e+003, -2.455442e-003
3.791365e+003, -3.301044e-003
3.793294e+003, -2.703936e-003
3.795222e+003, -2.158237e-003
3.797151e+003, -1.970115e-003
3.799079e+003, -1.624586e-003
3.801008e+003, -1.614484e-003
3.802936e+003, -2.389187e-003
3.804865e+003, -2.090645e-003
3.806793e+003, -1.874278e-003
3.808722e+003, -2.409624e-003
3.810650e+003, -2.483734e-003
3.812579e+003, -1.889532e-003
3.814507e+003, -1.551881e-003
3.816436e+003, -1.465124e-003
3.818364e+003, -1.400260e-003
3.820292e+003, -1.388464e-003
3.822221e+003, -2.046415e-003
3.824149e+003, -2.352049e-003
3.826078e+003, -2.412615e-003
3.828006e+003, -3.128776e-003
3.829935e+003, -2.836351e-003
3.831863e+003, -1.719491e-003
3.833792e+003, -1.534584e-003
3.835720e+003, -8.655602e-004
3.837649e+003, -8.666455e-004
3.839577e+003, -2.074234e-003
3.841506e+003, -2.119403e-003
3.843434e+003, -1.731364e-003
3.845363e+003, -1.635511e-003
3.847291e+003, -2.045085e-003
3.849219e+003, -1.886114e-003
3.851148e+003, -1.156814e-003
3.853076e+003, -5.053401e-004
3.855005e+003, -8.379575e-004
3.856933e+003, -1.842051e-003
3.858862e+003, -1.983980e-003
3.860790e+003, -1.773500e-003
3.862719e+003, -1.613416e-003
3.864647e+003, -1.989660e-003
3.866576e+003, -2.049902e-003
3.868504e+003, -1.599466e-003
3.870433e+003, -1.559139e-003
3.872361e+003, -1.857937e-003
3.874290e+003, -2.156971e-003
3.876218e+003, -2.603214e-003
3.878146e+003, -2.384084e-003
3.880075e+003, -2.316972e-003
3.882003e+003, -2.119408e-003
3.883932e+003, -1.618997e-003
3.885860e+003, -1.198997e-003
3.887789e+003, -1.497054e-003
3.889717e+003, -1.738061e-003
3.891646e+003, -2.092229e-003
3.893574e+003, -2.373492e-003
3.895503e+003, -1.653752e-003
3.897431e+003, -1.186967e-003
3.899360e+003, -1.315634e-003
3.901288e+003, -1.085320e-003
3.903217e+003, -1.144274e-003
3.905145e+003, -1.721194e-003
3.907073e+003, -1.400636e-003
3.909002e+003, -1.533718e-003
3.910930e+003, -2.320551e-003
3.912859e+003, -1.791170e-003
3.914787e+003, -9.214614e-004
3.916716e+003, -9.569323e-004
3.918644e+003, -1.454468e-003
3.920573e+003, -2.116871e-003
3.922501e+003, -2.143098e-003
3.924430e+003, -1.136064e-003
3.926358e+003, -1.198249e-003
3.928287e+003, -2.259606e-003
3.930215e+003, -2.401031e-003
3.932144e+003, -1.760151e-003
3.934072e+003, -1.718948e-003
3.936000e+003, -1.824278e-003
3.937929e+003, -1.304374e-003
3.939857e+003, -1.367757e-003
3.941786e+003, -1.835037e-003
3.943714e+003, -1.845587e-003
3.945643e+003, -1.043142e-003
3.947571e+003, -1.656612e-003
3.949500e+003, -2.541109e-003
3.951428e+003, -2.196378e-003
3.953357e+003, -2.103907e-003
3.955285e+003, -1.779490e-003
3.957214e+003, -1.032277e-003
3.959142e+003, -1.063449e-003
3.961071e+003, -1.296500e-003
3.962999e+003, -1.296079e-003
3.964927e+003, -2.020930e-003
3.966856e+003, -3.033950e-003
3.968784e+003, -2.878538e-003
3.970713e+003, -2.252374e-003
3.972641e+003, -1.907949e-003
3.974570e+003, -1.867163e-003
3.976498e+003, -1.675500e-003
3.978427e+003, -1.560274e-003
3.980355e+003, -1.872496e-003
3.982284e+003, -2.073200e-003
3.984212e+003, -1.886023e-003
3.986141e+003, -2.316976e-003
3.988069e+003, -2.184002e-003
3.989998e+003, -1.647173e-003
3.991926e+003, -1.153534e-003
3.993854e+003, -8.862671e-004
3.995783e+003, -1.101704e-003
3.997711e+003, -1.794691e-003
3.999640e+003, -1.937457e-003
##END=



