##NAMES=Zincite
##RRUFFID=R050492
##IDEAL CHEMISTRY=Zn^2+^O
##LOCALITY=Franklin, Sussex County, New Jersey, USA
##OWNER=RRUFF
##SOURCE=California Institute of Technology
##DESCRIPTION=Deep red massive
##STATUS=The identification of this mineral has been confirmed by X-ray diffraction and chemical analysis
##URL=rruff.info/R050492
##MEASURED CHEMISTRY=(Zn_0.96_Mn_0.04_)_Î£=1_O
3.741225e+002, 4.936540e-001
3.760510e+002, 4.236024e-001
3.779795e+002, 4.472998e-001
3.799079e+002, 5.096908e-001
3.818364e+002, 4.070450e-001
3.837649e+002, 3.636375e-001
3.856933e+002, 3.562108e-001
3.876218e+002, 3.525423e-001
3.895503e+002, 3.238115e-001
3.914787e+002, 3.205271e-001
3.934072e+002, 3.399460e-001
3.953357e+002, 3.389055e-001
3.972641e+002, 3.307048e-001
3.991926e+002, 3.253632e-001
4.011211e+002, 3.232101e-001
4.030495e+002, 3.040138e-001
4.049780e+002, 2.924920e-001
4.069065e+002, 2.921164e-001
4.088349e+002, 2.847928e-001
4.107634e+002, 2.807724e-001
4.126919e+002, 2.774741e-001
4.146203e+002, 2.672044e-001
4.165488e+002, 2.644041e-001
4.184773e+002, 2.588910e-001
4.204057e+002, 2.539173e-001
4.223342e+002, 2.491578e-001
4.242627e+002, 2.455263e-001
4.261911e+002, 2.397890e-001
4.281196e+002, 2.346176e-001
4.300481e+002, 2.295869e-001
4.319765e+002, 2.241672e-001
4.339050e+002, 2.207008e-001
4.358335e+002, 2.155990e-001
4.377619e+002, 2.079504e-001
4.396904e+002, 2.021912e-001
4.416189e+002, 1.984322e-001
4.435473e+002, 1.927668e-001
4.454758e+002, 1.894853e-001
4.474043e+002, 1.845112e-001
4.493327e+002, 1.785989e-001
4.512612e+002, 1.742819e-001
4.531897e+002, 1.703204e-001
4.551181e+002, 1.658476e-001
4.570466e+002, 1.614850e-001
4.589751e+002, 1.571573e-001
4.609035e+002, 1.533385e-001
4.628320e+002, 1.494732e-001
4.647605e+002, 1.456379e-001
4.666889e+002, 1.425193e-001
4.686174e+002, 1.389492e-001
4.705459e+002, 1.358757e-001
4.724743e+002, 1.328204e-001
4.744028e+002, 1.303800e-001
4.763313e+002, 1.270732e-001
4.782597e+002, 1.245212e-001
4.801882e+002, 1.222517e-001
4.821167e+002, 1.200755e-001
4.840451e+002, 1.175724e-001
4.859736e+002, 1.146926e-001
4.879021e+002, 1.117243e-001
4.898305e+002, 1.094206e-001
4.917590e+002, 1.077945e-001
4.936875e+002, 1.057362e-001
4.956159e+002, 1.034535e-001
4.975444e+002, 1.011903e-001
4.994729e+002, 9.864213e-002
5.014013e+002, 9.576635e-002
5.033298e+002, 9.333706e-002
5.052583e+002, 9.091046e-002
5.071867e+002, 8.892820e-002
5.091152e+002, 8.738529e-002
5.110437e+002, 8.494665e-002
5.129721e+002, 8.267742e-002
5.149006e+002, 8.032769e-002
5.168290e+002, 7.727723e-002
5.187575e+002, 7.498703e-002
5.206860e+002, 7.258917e-002
5.226144e+002, 6.968249e-002
5.245429e+002, 6.713156e-002
5.264714e+002, 6.398052e-002
5.283998e+002, 6.157017e-002
5.303283e+002, 5.966334e-002
5.322568e+002, 5.725974e-002
5.341852e+002, 5.520267e-002
5.361137e+002, 5.359464e-002
5.380422e+002, 5.188901e-002
5.399706e+002, 4.953677e-002
5.418991e+002, 4.757338e-002
5.438276e+002, 4.561026e-002
5.457560e+002, 4.298059e-002
5.476845e+002, 4.052902e-002
5.496130e+002, 3.817776e-002
5.515414e+002, 3.585292e-002
5.534699e+002, 3.390568e-002
5.553984e+002, 3.169163e-002
5.573268e+002, 2.914455e-002
5.592553e+002, 2.693549e-002
5.611838e+002, 2.467588e-002
5.631122e+002, 2.216501e-002
5.650407e+002, 1.941450e-002
5.669692e+002, 1.688631e-002
5.688976e+002, 1.430801e-002
5.708261e+002, 1.199867e-002
5.727546e+002, 1.010068e-002
5.746830e+002, 7.976845e-003
5.766115e+002, 6.028440e-003
5.785400e+002, 4.835043e-003
5.804684e+002, 3.867023e-003
5.823969e+002, 2.640869e-003
5.843254e+002, 1.749896e-003
5.862538e+002, 1.181360e-003
5.881823e+002, 4.096627e-004
5.901108e+002, -5.807243e-004
5.920392e+002, -1.834180e-003
5.939677e+002, -2.804328e-003
5.958962e+002, -3.094882e-003
5.978246e+002, -3.120847e-003
5.997531e+002, -3.215581e-003
6.016816e+002, -3.186986e-003
6.036100e+002, -3.111437e-003
6.055385e+002, -3.038358e-003
6.074670e+002, -3.033336e-003
6.093954e+002, -2.798501e-003
6.113239e+002, -2.622347e-003
6.132524e+002, -2.672780e-003
6.151808e+002, -2.521336e-003
6.171093e+002, -2.329934e-003
6.190378e+002, -2.273235e-003
6.209662e+002, -2.132971e-003
6.228947e+002, -2.176393e-003
6.248232e+002, -2.192602e-003
6.267516e+002, -2.024703e-003
6.286801e+002, -2.100773e-003
6.306086e+002, -2.080418e-003
6.325370e+002, -1.827564e-003
6.344655e+002, -1.563806e-003
6.363940e+002, -1.076598e-003
6.383224e+002, -5.263910e-004
6.402509e+002, -1.141950e-004
6.421794e+002, 2.728030e-004
6.441078e+002, 7.043742e-004
6.460363e+002, 1.060076e-003
6.479648e+002, 1.354717e-003
6.498932e+002, 1.501396e-003
6.518217e+002, 1.534432e-003
6.537502e+002, 1.562372e-003
6.556786e+002, 1.774855e-003
6.576071e+002, 1.899648e-003
6.595356e+002, 2.003390e-003
6.614641e+002, 2.092093e-003
6.633925e+002, 2.018146e-003
6.653210e+002, 1.957044e-003
6.672495e+002, 2.090838e-003
6.691779e+002, 2.205595e-003
6.711064e+002, 2.229884e-003
6.730349e+002, 2.265014e-003
6.749633e+002, 2.284452e-003
6.768918e+002, 2.268020e-003
6.788203e+002, 2.347715e-003
6.807487e+002, 2.214879e-003
6.826772e+002, 2.087295e-003
6.846057e+002, 1.987524e-003
6.865341e+002, 1.985092e-003
6.884626e+002, 2.022475e-003
6.903911e+002, 1.945928e-003
6.923195e+002, 1.865402e-003
6.942480e+002, 1.819558e-003
6.961765e+002, 1.548823e-003
6.981049e+002, 1.268592e-003
7.000334e+002, 1.231939e-003
7.019619e+002, 1.191381e-003
7.038903e+002, 9.925626e-004
7.058188e+002, 8.269846e-004
7.077473e+002, 6.977394e-004
7.096757e+002, 5.397350e-004
7.116042e+002, 4.203357e-004
7.135327e+002, 3.251694e-004
7.154611e+002, 2.215989e-004
7.173896e+002, 7.741153e-005
7.193181e+002, -3.736839e-005
7.212465e+002, 8.002296e-005
7.231750e+002, 1.485981e-004
7.251035e+002, -1.746416e-005
7.270319e+002, -9.100512e-005
7.289604e+002, -2.756715e-007
7.308889e+002, -2.018735e-004
7.328173e+002, -4.837438e-004
7.347458e+002, -5.652681e-004
7.366743e+002, -5.954988e-004
7.386027e+002, -5.831197e-004
7.405312e+002, -6.477088e-004
7.424597e+002, -7.858425e-004
7.443881e+002, -8.831024e-004
7.463166e+002, -1.089819e-003
7.482451e+002, -1.300246e-003
7.501735e+002, -1.481194e-003
7.521020e+002, -1.709249e-003
7.540305e+002, -1.703989e-003
7.559589e+002, -1.520265e-003
7.578874e+002, -1.558233e-003
7.598159e+002, -1.543917e-003
7.617443e+002, -1.409627e-003
7.636728e+002, -1.352120e-003
7.656013e+002, -1.173638e-003
7.675297e+002, -1.111709e-003
7.694582e+002, -1.189690e-003
7.713867e+002, -1.013238e-003
7.733151e+002, -7.939301e-004
7.752436e+002, -7.604361e-004
7.771721e+002, -7.339790e-004
7.791005e+002, -5.024374e-004
7.810290e+002, -4.240200e-004
7.829575e+002, -4.045144e-004
7.848859e+002, -3.472716e-004
7.868144e+002, -3.575571e-004
7.887429e+002, -2.455562e-004
7.906713e+002, -5.055591e-005
7.925998e+002, 1.443550e-005
7.945283e+002, 3.432482e-005
7.964567e+002, 1.892745e-004
7.983852e+002, 4.625432e-004
8.003137e+002, 6.681830e-004
8.022421e+002, 8.488186e-004
8.041706e+002, 9.874031e-004
8.060991e+002, 1.144901e-003
8.080275e+002, 1.199465e-003
8.099560e+002, 1.434166e-003
8.118845e+002, 1.746289e-003
8.138129e+002, 1.776986e-003
8.157414e+002, 1.988377e-003
8.176699e+002, 2.195556e-003
8.195983e+002, 2.236877e-003
8.215268e+002, 2.360705e-003
8.234553e+002, 2.658986e-003
8.253837e+002, 3.170025e-003
8.273122e+002, 3.612299e-003
8.292407e+002, 3.856119e-003
8.311691e+002, 4.056338e-003
8.330976e+002, 4.297893e-003
8.350261e+002, 4.562486e-003
8.369545e+002, 4.806116e-003
8.388830e+002, 4.933782e-003
8.408115e+002, 5.033527e-003
8.427399e+002, 5.143385e-003
8.446684e+002, 5.250465e-003
8.465969e+002, 5.441256e-003
8.485253e+002, 5.411718e-003
8.504538e+002, 5.427882e-003
8.523823e+002, 5.526736e-003
8.543107e+002, 5.724411e-003
8.562392e+002, 5.760908e-003
8.581677e+002, 5.723320e-003
8.600961e+002, 5.599659e-003
8.620246e+002, 5.564034e-003
8.639531e+002, 5.797081e-003
8.658815e+002, 5.787056e-003
8.678100e+002, 5.725376e-003
8.697385e+002, 5.782083e-003
8.716669e+002, 6.045826e-003
8.735954e+002, 6.510921e-003
8.755239e+002, 6.894249e-003
8.774523e+002, 6.850336e-003
8.793808e+002, 6.263323e-003
8.813093e+002, 5.513631e-003
8.832377e+002, 4.835393e-003
8.851662e+002, 4.151173e-003
8.870947e+002, 3.604785e-003
8.890231e+002, 3.335714e-003
8.909516e+002, 3.220417e-003
8.928801e+002, 3.061958e-003
8.948085e+002, 3.124632e-003
8.967370e+002, 3.154248e-003
8.986655e+002, 3.069606e-003
9.005939e+002, 3.138728e-003
9.025224e+002, 3.098950e-003
9.044509e+002, 2.872854e-003
9.063793e+002, 2.614710e-003
9.083078e+002, 2.666000e-003
9.102363e+002, 2.765242e-003
9.121647e+002, 2.589542e-003
9.140932e+002, 2.458964e-003
9.160217e+002, 2.441492e-003
9.179501e+002, 2.302554e-003
9.198786e+002, 2.150394e-003
9.218071e+002, 1.996040e-003
9.237355e+002, 1.738746e-003
9.256640e+002, 1.589105e-003
9.275925e+002, 1.502786e-003
9.295209e+002, 1.549046e-003
9.314494e+002, 1.526769e-003
9.333779e+002, 1.456164e-003
9.353063e+002, 1.503941e-003
9.372348e+002, 1.471173e-003
9.391633e+002, 1.344841e-003
9.410917e+002, 1.351081e-003
9.430202e+002, 1.254510e-003
9.449487e+002, 1.226217e-003
9.468771e+002, 1.309671e-003
9.488056e+002, 1.355607e-003
9.507341e+002, 1.330346e-003
9.526625e+002, 1.315366e-003
9.545910e+002, 1.498606e-003
9.565195e+002, 1.624949e-003
9.584479e+002, 1.589611e-003
9.603764e+002, 1.661021e-003
9.623049e+002, 1.846772e-003
9.642333e+002, 2.062522e-003
9.661618e+002, 2.191119e-003
9.680903e+002, 2.327684e-003
9.700187e+002, 2.544373e-003
9.719472e+002, 2.843753e-003
9.738757e+002, 2.913233e-003
9.758041e+002, 3.096491e-003
9.777326e+002, 3.262021e-003
9.796611e+002, 3.186818e-003
9.815895e+002, 3.190350e-003
9.835180e+002, 3.236659e-003
9.854465e+002, 3.289975e-003
9.873749e+002, 3.307089e-003
9.893034e+002, 3.283732e-003
9.912319e+002, 3.240321e-003
9.931603e+002, 3.181037e-003
9.950888e+002, 3.154393e-003
9.970173e+002, 3.151082e-003
9.989457e+002, 3.206782e-003
1.000874e+003, 3.184650e-003
1.002803e+003, 3.181268e-003
1.004731e+003, 3.297266e-003
1.006660e+003, 3.401704e-003
1.008588e+003, 3.422592e-003
1.010517e+003, 3.267214e-003
1.012445e+003, 3.055878e-003
1.014373e+003, 2.989218e-003
1.016302e+003, 3.086869e-003
1.018230e+003, 3.152799e-003
1.020159e+003, 3.237892e-003
1.022087e+003, 3.144566e-003
1.024016e+003, 2.793785e-003
1.025944e+003, 2.672132e-003
1.027873e+003, 2.654914e-003
1.029801e+003, 2.495673e-003
1.031730e+003, 2.414640e-003
1.033658e+003, 2.475571e-003
1.035587e+003, 2.378620e-003
1.037515e+003, 2.209775e-003
1.039443e+003, 2.132453e-003
1.041372e+003, 1.979444e-003
1.043300e+003, 1.807041e-003
1.045229e+003, 1.682639e-003
1.047157e+003, 1.676004e-003
1.049086e+003, 1.631372e-003
1.051014e+003, 1.450855e-003
1.052943e+003, 1.316730e-003
1.054871e+003, 1.251284e-003
1.056800e+003, 1.260120e-003
1.058728e+003, 1.164239e-003
1.060657e+003, 9.538718e-004
1.062585e+003, 9.951107e-004
1.064514e+003, 1.128234e-003
1.066442e+003, 1.229864e-003
1.068370e+003, 1.147397e-003
1.070299e+003, 1.155056e-003
1.072227e+003, 1.217615e-003
1.074156e+003, 1.113497e-003
1.076084e+003, 9.992011e-004
1.078013e+003, 1.150377e-003
1.079941e+003, 1.350321e-003
1.081870e+003, 1.247752e-003
1.083798e+003, 1.203939e-003
1.085727e+003, 1.294274e-003
1.087655e+003, 1.284488e-003
1.089584e+003, 1.210641e-003
1.091512e+003, 1.094099e-003
1.093441e+003, 1.034807e-003
1.095369e+003, 9.967610e-004
1.097297e+003, 8.027889e-004
1.099226e+003, 7.073134e-004
1.101154e+003, 8.561164e-004
1.103083e+003, 9.962693e-004
1.105011e+003, 8.574948e-004
1.106940e+003, 7.731244e-004
1.108868e+003, 7.680804e-004
1.110797e+003, 6.676428e-004
1.112725e+003, 5.907789e-004
1.114654e+003, 5.935431e-004
1.116582e+003, 5.733408e-004
1.118511e+003, 5.548298e-004
1.120439e+003, 5.667135e-004
1.122368e+003, 4.732348e-004
1.124296e+003, 3.115684e-004
1.126224e+003, 3.358796e-004
1.128153e+003, 3.800541e-004
1.130081e+003, 2.616532e-004
1.132010e+003, 1.200661e-004
1.133938e+003, 1.062639e-004
1.135867e+003, 1.516640e-004
1.137795e+003, 2.893209e-004
1.139724e+003, 3.962666e-004
1.141652e+003, 3.891177e-004
1.143581e+003, 2.993234e-004
1.145509e+003, 3.602915e-004
1.147438e+003, 4.365854e-004
1.149366e+003, 4.576929e-004
1.151295e+003, 4.715249e-004
1.153223e+003, 4.669465e-004
1.155151e+003, 4.286095e-004
1.157080e+003, 5.896315e-004
1.159008e+003, 7.045493e-004
1.160937e+003, 5.984344e-004
1.162865e+003, 4.819147e-004
1.164794e+003, 4.314743e-004
1.166722e+003, 4.292540e-004
1.168651e+003, 4.995652e-004
1.170579e+003, 4.134066e-004
1.172508e+003, 3.155433e-004
1.174436e+003, 2.410673e-004
1.176365e+003, 2.412833e-004
1.178293e+003, 2.721660e-004
1.180222e+003, 1.942217e-004
1.182150e+003, 1.927838e-005
1.184078e+003, 1.033954e-004
1.186007e+003, 4.862994e-005
1.187935e+003, -6.669760e-005
1.189864e+003, -1.104884e-004
1.191792e+003, -7.271767e-005
1.193721e+003, -1.021475e-004
1.195649e+003, -2.095290e-004
1.197578e+003, -1.760684e-004
1.199506e+003, -1.073219e-004
1.201435e+003, -8.668751e-005
1.203363e+003, -1.569204e-004
1.205292e+003, -9.990484e-005
1.207220e+003, -1.874194e-005
1.209149e+003, -5.145743e-005
1.211077e+003, 6.213784e-006
1.213005e+003, -4.419684e-005
1.214934e+003, -1.240671e-004
1.216862e+003, -7.525831e-005
1.218791e+003, 4.685298e-005
1.220719e+003, 4.777685e-005
1.222648e+003, -3.802776e-005
1.224576e+003, -7.680804e-005
1.226505e+003, 1.122057e-005
1.228433e+003, 3.602728e-005
1.230362e+003, 3.822893e-005
1.232290e+003, 4.132092e-005
1.234219e+003, 1.086816e-004
1.236147e+003, 1.286119e-004
1.238076e+003, 1.107603e-004
1.240004e+003, 1.155436e-004
1.241932e+003, 1.850352e-004
1.243861e+003, 1.557581e-004
1.245789e+003, 1.319833e-004
1.247718e+003, 2.050214e-004
1.249646e+003, 2.383180e-004
1.251575e+003, 2.093799e-004
1.253503e+003, 3.085695e-004
1.255432e+003, 3.830045e-004
1.257360e+003, 4.559197e-004
1.259289e+003, 4.598498e-004
1.261217e+003, 4.296452e-004
1.263146e+003, 5.109683e-004
1.265074e+003, 5.885735e-004
1.267003e+003, 5.847886e-004
1.268931e+003, 6.383769e-004
1.270859e+003, 8.119866e-004
1.272788e+003, 1.026724e-003
1.274716e+003, 1.149420e-003
1.276645e+003, 1.116145e-003
1.278573e+003, 1.046121e-003
1.280502e+003, 1.119416e-003
1.282430e+003, 1.068477e-003
1.284359e+003, 9.690449e-004
1.286287e+003, 8.847862e-004
1.288216e+003, 8.476079e-004
1.290144e+003, 9.113513e-004
1.292073e+003, 9.701066e-004
1.294001e+003, 9.405985e-004
1.295930e+003, 9.421445e-004
1.297858e+003, 1.088616e-003
1.299786e+003, 1.132224e-003
1.301715e+003, 1.044855e-003
1.303643e+003, 9.633712e-004
1.305572e+003, 1.000870e-003
1.307500e+003, 1.277551e-003
1.309429e+003, 1.452833e-003
1.311357e+003, 1.475558e-003
1.313286e+003, 1.603417e-003
1.315214e+003, 1.802750e-003
1.317143e+003, 1.803398e-003
1.319071e+003, 1.832809e-003
1.321000e+003, 1.882661e-003
1.322928e+003, 2.001707e-003
1.324857e+003, 2.192512e-003
1.326785e+003, 2.334867e-003
1.328714e+003, 2.477311e-003
1.330642e+003, 2.510775e-003
1.332570e+003, 2.638951e-003
1.334499e+003, 2.963051e-003
1.336427e+003, 3.069993e-003
1.338356e+003, 3.100958e-003
1.340284e+003, 3.239151e-003
1.342213e+003, 3.487159e-003
1.344141e+003, 3.845636e-003
1.346070e+003, 4.078697e-003
1.347998e+003, 4.221514e-003
1.349927e+003, 4.329063e-003
1.351855e+003, 4.381076e-003
1.353784e+003, 4.704461e-003
1.355712e+003, 5.017750e-003
1.357641e+003, 5.165588e-003
1.359569e+003, 5.482353e-003
1.361497e+003, 5.815487e-003
1.363426e+003, 6.070551e-003
1.365354e+003, 6.504681e-003
1.367283e+003, 6.891910e-003
1.369211e+003, 7.222243e-003
1.371140e+003, 7.604443e-003
1.373068e+003, 7.923838e-003
1.374997e+003, 8.267183e-003
1.376925e+003, 8.627109e-003
1.378854e+003, 9.060264e-003
1.380782e+003, 9.363353e-003
1.382711e+003, 9.628441e-003
1.384639e+003, 9.988677e-003
1.386568e+003, 1.043536e-002
1.388496e+003, 1.084894e-002
1.390424e+003, 1.129629e-002
1.392353e+003, 1.183835e-002
1.394281e+003, 1.233012e-002
1.396210e+003, 1.291452e-002
1.398138e+003, 1.340805e-002
1.400067e+003, 1.379104e-002
1.401995e+003, 1.421042e-002
1.403924e+003, 1.472311e-002
1.405852e+003, 1.528298e-002
1.407781e+003, 1.590569e-002
1.409709e+003, 1.645141e-002
1.411638e+003, 1.686652e-002
1.413566e+003, 1.715904e-002
1.415495e+003, 1.750974e-002
1.417423e+003, 1.784523e-002
1.419351e+003, 1.812978e-002
1.421280e+003, 1.837743e-002
1.423208e+003, 1.862511e-002
1.425137e+003, 1.882407e-002
1.427065e+003, 1.894951e-002
1.428994e+003, 1.910102e-002
1.430922e+003, 1.920968e-002
1.432851e+003, 1.934168e-002
1.434779e+003, 1.947037e-002
1.436708e+003, 1.946236e-002
1.438636e+003, 1.924856e-002
1.440565e+003, 1.906243e-002
1.442493e+003, 1.915328e-002
1.444422e+003, 1.911976e-002
1.446350e+003, 1.904307e-002
1.448278e+003, 1.902145e-002
1.450207e+003, 1.884604e-002
1.452135e+003, 1.863057e-002
1.454064e+003, 1.852885e-002
1.455992e+003, 1.844719e-002
1.457921e+003, 1.822137e-002
1.459849e+003, 1.798189e-002
1.461778e+003, 1.771069e-002
1.463706e+003, 1.741902e-002
1.465635e+003, 1.714907e-002
1.467563e+003, 1.677894e-002
1.469492e+003, 1.652348e-002
1.471420e+003, 1.643507e-002
1.473349e+003, 1.634951e-002
1.475277e+003, 1.605936e-002
1.477205e+003, 1.574068e-002
1.479134e+003, 1.556932e-002
1.481062e+003, 1.543798e-002
1.482991e+003, 1.513805e-002
1.484919e+003, 1.493388e-002
1.486848e+003, 1.484223e-002
1.488776e+003, 1.471682e-002
1.490705e+003, 1.438820e-002
1.492633e+003, 1.403975e-002
1.494562e+003, 1.385711e-002
1.496490e+003, 1.373362e-002
1.498419e+003, 1.350914e-002
1.500347e+003, 1.324501e-002
1.502276e+003, 1.286486e-002
1.504204e+003, 1.257770e-002
1.506132e+003, 1.234451e-002
1.508061e+003, 1.204352e-002
1.509989e+003, 1.163495e-002
1.511918e+003, 1.125766e-002
1.513846e+003, 1.109461e-002
1.515775e+003, 1.090103e-002
1.517703e+003, 1.059032e-002
1.519632e+003, 1.038167e-002
1.521560e+003, 1.020406e-002
1.523489e+003, 9.888578e-003
1.525417e+003, 9.619698e-003
1.527346e+003, 9.388655e-003
1.529274e+003, 9.252466e-003
1.531203e+003, 9.095572e-003
1.533131e+003, 8.832198e-003
1.535059e+003, 8.528732e-003
1.536988e+003, 8.422401e-003
1.538916e+003, 8.335471e-003
1.540845e+003, 8.133743e-003
1.542773e+003, 7.972792e-003
1.544702e+003, 7.825576e-003
1.546630e+003, 7.658035e-003
1.548559e+003, 7.637314e-003
1.550487e+003, 7.552635e-003
1.552416e+003, 7.376712e-003
1.554344e+003, 7.312998e-003
1.556273e+003, 7.116131e-003
1.558201e+003, 6.994259e-003
1.560130e+003, 6.991856e-003
1.562058e+003, 6.956384e-003
1.563986e+003, 6.861135e-003
1.565915e+003, 6.668244e-003
1.567843e+003, 6.459329e-003
1.569772e+003, 6.408092e-003
1.571700e+003, 6.348543e-003
1.573629e+003, 6.126359e-003
1.575557e+003, 5.952284e-003
1.577486e+003, 5.814698e-003
1.579414e+003, 5.604461e-003
1.581343e+003, 5.517788e-003
1.583271e+003, 5.482323e-003
1.585200e+003, 5.303733e-003
1.587128e+003, 5.131274e-003
1.589057e+003, 5.043473e-003
1.590985e+003, 4.906267e-003
1.592913e+003, 4.918110e-003
1.594842e+003, 4.998762e-003
1.596770e+003, 5.009975e-003
1.598699e+003, 4.870396e-003
1.600627e+003, 4.632056e-003
1.602556e+003, 4.593056e-003
1.604484e+003, 4.494999e-003
1.606413e+003, 4.205156e-003
1.608341e+003, 3.961794e-003
1.610270e+003, 3.825437e-003
1.612198e+003, 3.725491e-003
1.614127e+003, 3.616471e-003
1.616055e+003, 3.461715e-003
1.617984e+003, 3.379595e-003
1.619912e+003, 3.245909e-003
1.621840e+003, 3.023345e-003
1.623769e+003, 2.966635e-003
1.625697e+003, 2.985708e-003
1.627626e+003, 2.859753e-003
1.629554e+003, 2.670802e-003
1.631483e+003, 2.621762e-003
1.633411e+003, 2.774201e-003
1.635340e+003, 2.641939e-003
1.637268e+003, 2.408549e-003
1.639197e+003, 2.419919e-003
1.641125e+003, 2.517529e-003
1.643054e+003, 2.500858e-003
1.644982e+003, 2.448525e-003
1.646911e+003, 2.484076e-003
1.648839e+003, 2.460551e-003
1.650767e+003, 2.307352e-003
1.652696e+003, 2.201259e-003
1.654624e+003, 2.138276e-003
1.656553e+003, 2.037104e-003
1.658481e+003, 1.991831e-003
1.660410e+003, 1.940385e-003
1.662338e+003, 1.893383e-003
1.664267e+003, 2.015490e-003
1.666195e+003, 2.065063e-003
1.668124e+003, 2.001606e-003
1.670052e+003, 1.861002e-003
1.671981e+003, 1.789145e-003
1.673909e+003, 1.671746e-003
1.675838e+003, 1.634356e-003
1.677766e+003, 1.594897e-003
1.679694e+003, 1.438882e-003
1.681623e+003, 1.510963e-003
1.683551e+003, 1.678735e-003
1.685480e+003, 1.793947e-003
1.687408e+003, 1.734830e-003
1.689337e+003, 1.685340e-003
1.691265e+003, 1.672443e-003
1.693194e+003, 1.582645e-003
1.695122e+003, 1.618847e-003
1.697051e+003, 1.870941e-003
1.698979e+003, 1.743302e-003
1.700908e+003, 1.515314e-003
1.702836e+003, 1.511395e-003
1.704765e+003, 1.526158e-003
1.706693e+003, 1.591481e-003
1.708621e+003, 1.713231e-003
1.710550e+003, 1.685150e-003
1.712478e+003, 1.535352e-003
1.714407e+003, 1.477145e-003
1.716335e+003, 1.550503e-003
1.718264e+003, 1.580179e-003
1.720192e+003, 1.680177e-003
1.722121e+003, 1.826826e-003
1.724049e+003, 1.931228e-003
1.725978e+003, 2.077911e-003
1.727906e+003, 2.140831e-003
1.729835e+003, 2.003599e-003
1.731763e+003, 2.006385e-003
1.733692e+003, 2.035957e-003
1.735620e+003, 1.932107e-003
1.737548e+003, 1.776189e-003
1.739477e+003, 1.396377e-003
1.741405e+003, 9.971224e-004
1.743334e+003, 7.590167e-004
1.745262e+003, 3.738441e-004
1.747191e+003, 3.167242e-005
1.749119e+003, -5.659834e-005
1.751048e+003, 3.919378e-005
1.752976e+003, 2.333559e-004
1.754905e+003, 1.580492e-004
1.756833e+003, -7.322431e-005
1.758762e+003, -9.720027e-005
1.760690e+003, -2.294406e-005
1.762619e+003, 5.174801e-005
1.764547e+003, 1.437031e-004
1.766475e+003, 4.492328e-005
1.768404e+003, 1.800433e-005
1.770332e+003, 8.810312e-006
1.772261e+003, -9.575859e-005
1.774189e+003, -1.035780e-004
1.776118e+003, -2.424791e-005
1.778046e+003, -7.130206e-006
1.779975e+003, 7.956475e-005
1.781903e+003, 1.283586e-004
1.783832e+003, 8.984655e-005
1.785760e+003, 1.453832e-004
1.787689e+003, 4.775450e-005
1.789617e+003, -1.011416e-005
1.791546e+003, -6.311387e-005
1.793474e+003, -1.701191e-004
1.795402e+003, -3.804155e-004
1.797331e+003, -2.648272e-004
1.799259e+003, -2.098717e-004
1.801188e+003, -2.806932e-004
1.803116e+003, -2.093241e-004
1.805045e+003, -9.563193e-005
1.806973e+003, -2.295189e-004
1.808902e+003, -2.744049e-004
1.810830e+003, -3.035143e-004
1.812759e+003, -3.473274e-004
1.814687e+003, -2.470054e-004
1.816616e+003, -4.120059e-004
1.818544e+003, -4.577115e-004
1.820473e+003, -1.039654e-004
1.822401e+003, 1.046285e-004
1.824329e+003, 1.001358e-004
1.826258e+003, 1.065098e-004
1.828186e+003, 1.233853e-004
1.830115e+003, -3.895909e-005
1.832043e+003, -3.040470e-004
1.833972e+003, -2.959147e-004
1.835900e+003, 6.139278e-006
1.837829e+003, -2.366379e-004
1.839757e+003, -3.729314e-004
1.841686e+003, -1.528896e-004
1.843614e+003, -1.277812e-004
1.845543e+003, -2.475828e-004
1.847471e+003, -2.230406e-004
1.849400e+003, -1.067966e-004
1.851328e+003, -6.887317e-005
1.853256e+003, -2.911538e-004
1.855185e+003, -1.808591e-004
1.857113e+003, -3.501773e-007
1.859042e+003, 2.521053e-004
1.860970e+003, 8.722767e-005
1.862899e+003, 7.613003e-005
1.864827e+003, 3.576651e-005
1.866756e+003, 4.064292e-006
1.868684e+003, 1.378357e-005
1.870613e+003, 1.215823e-004
1.872541e+003, -2.145767e-006
1.874470e+003, -2.907813e-004
1.876398e+003, -8.236617e-005
1.878327e+003, -1.801103e-004
1.880255e+003, -9.883940e-005
1.882183e+003, 3.496557e-004
1.884112e+003, 2.041385e-004
1.886040e+003, 6.820261e-005
1.887969e+003, 1.028851e-004
1.889897e+003, -1.732260e-004
1.891826e+003, -9.556860e-005
1.893754e+003, 2.368316e-004
1.895683e+003, 4.599914e-004
1.897611e+003, 4.869476e-004
1.899540e+003, 1.655668e-004
1.901468e+003, -3.926009e-004
1.903397e+003, -6.619319e-004
1.905325e+003, -2.360418e-004
1.907254e+003, -5.312264e-006
1.909182e+003, 3.833324e-005
1.911110e+003, 3.162026e-005
1.913039e+003, 2.183020e-006
1.914967e+003, -1.932755e-004
1.916896e+003, -5.075634e-004
1.918824e+003, -2.487823e-004
1.920753e+003, -1.280531e-004
1.922681e+003, -2.318993e-004
1.924610e+003, -3.051162e-004
1.926538e+003, -4.523993e-005
1.928467e+003, -1.965687e-004
1.930395e+003, -1.063198e-005
1.932324e+003, -2.461672e-004
1.934252e+003, -5.849376e-004
1.936181e+003, -2.093092e-004
1.938109e+003, 3.003329e-005
1.940037e+003, 6.964803e-005
1.941966e+003, -6.178021e-005
1.943894e+003, -3.808811e-004
1.945823e+003, -7.177144e-005
1.947751e+003, 2.810881e-004
1.949680e+003, -1.666769e-004
1.951608e+003, -3.620312e-004
1.953537e+003, -6.467104e-005
1.955465e+003, 1.078099e-004
1.957394e+003, -2.953857e-004
1.959322e+003, -7.231385e-004
1.961251e+003, -8.480996e-004
1.963179e+003, -1.296058e-003
1.965108e+003, -1.483560e-003
1.967036e+003, -5.334988e-004
1.968964e+003, -4.282668e-004
1.970893e+003, -1.454003e-003
1.972821e+003, -2.390355e-003
1.974750e+003, -2.181195e-003
1.976678e+003, -5.921870e-004
1.978607e+003, 1.462705e-003
1.980535e+003, 1.647845e-003
1.982464e+003, 6.891787e-004
1.984392e+003, 3.229827e-005
1.986321e+003, 2.002418e-004
1.988249e+003, 1.191758e-003
1.990178e+003, 7.575527e-004
1.992106e+003, -1.104698e-004
1.994035e+003, 1.362860e-004
1.995963e+003, -5.260855e-005
1.997891e+003, -6.451532e-004
1.999820e+003, -6.463155e-004
2.001748e+003, -9.934232e-004
2.003677e+003, -8.199066e-004
2.005605e+003, -6.991476e-004
2.007534e+003, -1.479462e-004
2.009462e+003, 3.664568e-004
2.011391e+003, 1.850277e-004
2.013319e+003, -1.206994e-005
2.015248e+003, -4.133284e-004
2.017176e+003, -4.410893e-004
2.019105e+003, 9.040534e-005
2.021033e+003, 3.940761e-004
2.022962e+003, -4.276261e-004
2.024890e+003, -1.229353e-003
2.026818e+003, -1.268774e-003
2.028747e+003, -5.440190e-004
2.030675e+003, 5.276948e-004
2.032604e+003, 6.764457e-004
2.034532e+003, -6.286800e-005
2.036461e+003, 5.558655e-004
2.038389e+003, 1.117915e-003
2.040318e+003, 1.079835e-003
2.042246e+003, 1.282096e-003
2.044175e+003, 1.052469e-003
2.046103e+003, 2.606064e-004
2.048031e+003, 6.761625e-004
2.049960e+003, 1.475602e-003
2.051888e+003, 1.135148e-003
2.053817e+003, 1.644850e-003
2.055745e+003, 1.940787e-003
2.057674e+003, 1.143098e-003
2.059602e+003, 1.172900e-003
2.061531e+003, 1.273669e-003
2.063459e+003, 1.428142e-003
2.065388e+003, 1.599334e-003
2.067316e+003, 1.553416e-003
2.069245e+003, 1.779385e-003
2.071173e+003, 1.734160e-003
2.073102e+003, 1.932018e-003
2.075030e+003, 1.753747e-003
2.076958e+003, 1.204900e-003
2.078887e+003, 1.464240e-003
2.080815e+003, 1.889758e-003
2.082744e+003, 1.823999e-003
2.084672e+003, 1.099162e-003
2.086601e+003, 5.677864e-004
2.088529e+003, 1.081750e-003
2.090458e+003, 1.645945e-003
2.092386e+003, 1.305930e-003
2.094315e+003, 7.845536e-004
2.096243e+003, 1.050003e-003
2.098172e+003, 1.584366e-003
2.100100e+003, 2.223067e-003
2.102029e+003, 2.029039e-003
2.103957e+003, 2.243116e-003
2.105885e+003, 2.285771e-003
2.107814e+003, 1.845479e-003
2.109742e+003, 1.559041e-003
2.111671e+003, 1.207612e-003
2.113599e+003, 1.112469e-003
2.115528e+003, 1.168750e-003
2.117456e+003, 1.310199e-003
2.119385e+003, 1.181841e-003
2.121313e+003, 1.165800e-003
2.123242e+003, 1.085825e-003
2.125170e+003, 8.266494e-004
2.127099e+003, 5.216375e-004
2.129027e+003, -5.955696e-004
2.130956e+003, -1.536049e-003
2.132884e+003, -1.744717e-003
2.134813e+003, -1.586840e-003
2.136741e+003, -1.619533e-003
2.138669e+003, -1.158647e-003
2.140598e+003, -9.284690e-004
2.142526e+003, -1.552865e-003
2.144455e+003, -2.137825e-003
2.146383e+003, -1.229487e-003
2.148312e+003, -5.700961e-004
2.150240e+003, -6.436259e-004
2.152169e+003, -1.673587e-003
2.154097e+003, -3.632225e-003
2.156026e+003, -5.171128e-003
2.157954e+003, -4.660152e-003
2.159883e+003, -7.221699e-004
2.161811e+003, 1.112491e-003
2.163740e+003, 7.140487e-004
2.165668e+003, 1.797378e-004
2.167596e+003, -3.659576e-004
2.169525e+003, -4.540607e-004
2.171453e+003, -6.919354e-005
2.173382e+003, -6.684437e-004
2.175310e+003, -2.162457e-004
2.177239e+003, 2.516955e-004
2.179167e+003, -8.627474e-004
2.181096e+003, -1.833685e-003
2.183024e+003, -9.548292e-004
2.184953e+003, 4.129037e-004
2.186881e+003, 5.512983e-004
2.188810e+003, -5.777255e-004
2.190738e+003, -4.905015e-004
2.192667e+003, 8.584559e-005
2.194595e+003, -1.287982e-004
2.196523e+003, -7.307529e-004
2.198452e+003, 2.587363e-004
2.200380e+003, 9.983480e-004
2.202309e+003, 4.385412e-005
2.204237e+003, -6.296858e-004
2.206166e+003, -6.419942e-004
2.208094e+003, -8.503497e-004
2.210023e+003, -6.724820e-004
2.211951e+003, 3.106892e-004
2.213880e+003, 7.679686e-004
2.215808e+003, 3.187433e-004
2.217737e+003, -8.134544e-005
2.219665e+003, -5.036592e-005
2.221594e+003, -2.130866e-005
2.223522e+003, 2.835616e-004
2.225450e+003, -3.341585e-004
2.227379e+003, -7.973164e-004
2.229307e+003, -8.843094e-005
2.231236e+003, 1.533628e-004
2.233164e+003, -3.793240e-004
2.235093e+003, -3.359467e-004
2.237021e+003, 3.351048e-004
2.238950e+003, 3.902763e-004
2.240878e+003, 3.166497e-006
2.242807e+003, -1.591817e-004
2.244735e+003, -2.166182e-004
2.246664e+003, 3.132224e-004
2.248592e+003, 3.598705e-004
2.250521e+003, -5.437285e-004
2.252449e+003, -3.751367e-004
2.254377e+003, 1.896098e-004
2.256306e+003, -4.714727e-004
2.258234e+003, -5.565584e-004
2.260163e+003, -1.248196e-004
2.262091e+003, -1.744181e-004
2.264020e+003, 1.192838e-005
2.265948e+003, 2.932400e-004
2.267877e+003, 1.679957e-004
2.269805e+003, 1.333430e-004
2.271734e+003, 3.655702e-004
2.273662e+003, 6.537810e-004
2.275591e+003, 6.258264e-004
2.277519e+003, 5.680546e-004
2.279448e+003, 5.420670e-004
2.281376e+003, 7.582158e-004
2.283304e+003, 1.336113e-003
2.285233e+003, 1.479253e-003
2.287161e+003, 1.022704e-003
2.289090e+003, 6.018206e-004
2.291018e+003, 6.850511e-004
2.292947e+003, 1.117676e-003
2.294875e+003, 1.101941e-003
2.296804e+003, 9.506494e-004
2.298732e+003, 8.414909e-004
2.300661e+003, 9.227172e-004
2.302589e+003, 8.088797e-004
2.304518e+003, 7.819086e-004
2.306446e+003, 9.344369e-004
2.308375e+003, 1.072511e-003
2.310303e+003, 1.122802e-003
2.312231e+003, 1.262985e-003
2.314160e+003, 1.223199e-003
2.316088e+003, 1.189657e-003
2.318017e+003, 1.381725e-003
2.319945e+003, 1.953647e-003
2.321874e+003, 2.459668e-003
2.323802e+003, 2.603732e-003
2.325731e+003, 1.894891e-003
2.327659e+003, 1.207337e-003
2.329588e+003, 1.105145e-003
2.331516e+003, 1.206473e-003
2.333445e+003, 1.271419e-003
2.335373e+003, 1.142316e-003
2.337302e+003, 1.193799e-003
2.339230e+003, 1.316860e-003
2.341158e+003, 1.257993e-003
2.343087e+003, 1.059055e-003
2.345015e+003, 3.902614e-004
2.346944e+003, 1.518950e-004
2.348872e+003, 3.028587e-004
2.350801e+003, 6.165877e-004
2.352729e+003, 9.755641e-004
2.354658e+003, 9.929389e-004
2.356586e+003, 9.198189e-004
2.358515e+003, 9.391084e-004
2.360443e+003, 7.986277e-004
2.362372e+003, 1.050875e-003
2.364300e+003, 1.075730e-003
2.366229e+003, 7.125437e-004
2.368157e+003, 3.203452e-004
2.370085e+003, 1.121536e-004
2.372014e+003, 2.296120e-004
2.373942e+003, 2.272949e-004
2.375871e+003, 1.456812e-004
2.377799e+003, 6.264448e-005
2.379728e+003, 1.169518e-004
2.381656e+003, 1.405776e-004
2.383585e+003, 7.449836e-005
2.385513e+003, -2.247840e-004
2.387442e+003, -5.382970e-004
2.389370e+003, -6.185323e-004
2.391299e+003, -7.417873e-004
2.393227e+003, -6.263182e-004
2.395156e+003, -4.220903e-004
2.397084e+003, -1.829267e-004
2.399012e+003, -6.324053e-005
2.400941e+003, -3.364533e-004
2.402869e+003, -6.317943e-004
2.404798e+003, -5.504116e-004
2.406726e+003, 9.521842e-005
2.408655e+003, 4.506037e-004
2.410583e+003, 2.199784e-004
2.412512e+003, 2.398342e-004
2.414440e+003, 5.252361e-004
2.416369e+003, 3.554747e-004
2.418297e+003, 7.121265e-005
2.420226e+003, 2.108514e-006
2.422154e+003, 1.996756e-005
2.424083e+003, 2.048537e-004
2.426011e+003, 4.638880e-004
2.427939e+003, 2.616420e-004
2.429868e+003, 3.760681e-004
2.431796e+003, 4.064813e-004
2.433725e+003, -6.449968e-005
2.435653e+003, 5.879998e-005
2.437582e+003, 5.343631e-004
2.439510e+003, 4.999861e-004
2.441439e+003, 3.486648e-004
2.443367e+003, 3.745258e-004
2.445296e+003, 1.739562e-004
2.447224e+003, -2.845675e-004
2.449153e+003, -1.589283e-004
2.451081e+003, 2.351925e-004
2.453010e+003, 3.536642e-004
2.454938e+003, 2.720356e-004
2.456866e+003, 2.030358e-004
2.458795e+003, 7.870048e-005
2.460723e+003, 3.761873e-004
2.462652e+003, 5.607083e-004
2.464580e+003, 4.410222e-004
2.466509e+003, 2.055466e-004
2.468437e+003, 1.451373e-004
2.470366e+003, 2.866089e-004
2.472294e+003, 5.269721e-004
2.474223e+003, 2.490729e-004
2.476151e+003, 6.297976e-005
2.478080e+003, -1.802966e-004
2.480008e+003, -3.081560e-004
2.481937e+003, 1.752749e-004
2.483865e+003, 4.906878e-004
2.485793e+003, -1.724064e-005
2.487722e+003, -2.242401e-004
2.489650e+003, 1.526624e-005
2.491579e+003, 4.293025e-005
2.493507e+003, -7.183105e-005
2.495436e+003, 2.020299e-004
2.497364e+003, 4.254058e-004
2.499293e+003, 3.186837e-004
2.501221e+003, 2.144873e-004
2.503150e+003, 1.179427e-005
2.505078e+003, -2.793074e-004
2.507007e+003, -4.161447e-004
2.508935e+003, 2.011657e-007
2.510864e+003, 3.772750e-004
2.512792e+003, 1.070872e-004
2.514720e+003, -1.116842e-004
2.516649e+003, -1.248717e-004
2.518577e+003, 1.793206e-004
2.520506e+003, 1.054704e-004
2.522434e+003, -4.325807e-005
2.524363e+003, -1.799613e-004
2.526291e+003, -1.807287e-004
2.528220e+003, -4.066229e-004
2.530148e+003, -6.790012e-004
2.532077e+003, -7.472336e-004
2.534005e+003, -7.092729e-004
2.535934e+003, -6.864220e-004
2.537862e+003, -4.250929e-004
2.539791e+003, 6.243587e-006
2.541719e+003, 1.309365e-004
2.543647e+003, -8.875132e-005
2.545576e+003, -2.812818e-004
2.547504e+003, -3.422201e-004
2.549433e+003, -6.281286e-004
2.551361e+003, -8.213669e-004
2.553290e+003, -4.313588e-004
2.555218e+003, 2.048910e-004
2.557147e+003, -2.563000e-005
2.559075e+003, -4.561469e-004
2.561004e+003, -3.705025e-004
2.562932e+003, -1.466125e-004
2.564861e+003, -1.293048e-004
2.566789e+003, -2.662838e-004
2.568718e+003, -2.686605e-004
2.570646e+003, -2.301559e-004
2.572574e+003, -6.990880e-005
2.574503e+003, -2.974048e-004
2.576431e+003, -5.868301e-004
2.578360e+003, -7.021204e-004
2.580288e+003, -2.971143e-004
2.582217e+003, -6.358325e-005
2.584145e+003, 1.950562e-005
2.586074e+003, 3.334358e-004
2.588002e+003, 4.311353e-004
2.589931e+003, -4.626811e-005
2.591859e+003, -4.698336e-005
2.593788e+003, 3.326535e-004
2.595716e+003, 2.848506e-004
2.597645e+003, -1.618117e-004
2.599573e+003, -1.414269e-004
2.601501e+003, 3.258064e-004
2.603430e+003, 4.714355e-004
2.605358e+003, 5.836189e-004
2.607287e+003, 5.262867e-004
2.609215e+003, 2.684221e-004
2.611144e+003, 3.584772e-004
2.613072e+003, 3.255308e-004
2.615001e+003, 6.316379e-004
2.616929e+003, 9.252131e-004
2.618858e+003, 6.748438e-004
2.620786e+003, 3.895015e-004
2.622715e+003, 5.180091e-004
2.624643e+003, 3.530011e-004
2.626572e+003, 2.384260e-004
2.628500e+003, 4.092306e-004
2.630428e+003, 4.939362e-004
2.632357e+003, 3.778413e-004
2.634285e+003, 5.198419e-004
2.636214e+003, 5.315244e-004
2.638142e+003, 3.108308e-004
2.640071e+003, 4.554316e-004
2.641999e+003, 5.083606e-004
2.643928e+003, 2.830178e-004
2.645856e+003, 2.079532e-004
2.647785e+003, 2.475902e-004
2.649713e+003, 1.873150e-004
2.651642e+003, 4.346073e-004
2.653570e+003, 7.316992e-004
2.655499e+003, 5.372241e-004
2.657427e+003, 3.542975e-004
2.659355e+003, 3.704131e-004
2.661284e+003, 1.046434e-004
2.663212e+003, 1.429617e-004
2.665141e+003, 3.215149e-004
2.667069e+003, 2.450496e-005
2.668998e+003, -1.288131e-004
2.670926e+003, -9.179115e-005
2.672855e+003, 8.106232e-006
2.674783e+003, -1.286864e-004
2.676712e+003, 1.061931e-004
2.678640e+003, 8.471310e-005
2.680569e+003, -9.936839e-005
2.682497e+003, 8.779019e-005
2.684426e+003, 1.973659e-005
2.686354e+003, -1.622140e-004
2.688282e+003, -7.616729e-005
2.690211e+003, -4.604459e-006
2.692139e+003, 2.202392e-005
2.694068e+003, -8.907169e-005
2.695996e+003, -1.292154e-004
2.697925e+003, -7.799268e-005
2.699853e+003, 3.149360e-005
2.701782e+003, 8.314848e-006
2.703710e+003, 9.186566e-006
2.705639e+003, 4.311651e-005
2.707567e+003, 1.399666e-004
2.709496e+003, 1.485571e-004
2.711424e+003, 3.081188e-004
2.713353e+003, 3.580526e-004
2.715281e+003, 2.268404e-004
2.717209e+003, 1.034066e-004
2.719138e+003, 7.274747e-005
2.721066e+003, 2.665073e-004
2.722995e+003, 3.352091e-004
2.724923e+003, 3.894493e-004
2.726852e+003, 4.395768e-004
2.728780e+003, 2.654120e-004
2.730709e+003, 2.452210e-004
2.732637e+003, 3.203079e-004
2.734566e+003, 2.826974e-004
2.736494e+003, 1.163706e-004
2.738423e+003, 1.115799e-004
2.740351e+003, 1.823977e-004
2.742280e+003, 2.452955e-004
2.744208e+003, 1.477078e-004
2.746136e+003, 4.455447e-005
2.748065e+003, 2.566800e-004
2.749993e+003, 3.012493e-004
2.751922e+003, 2.594516e-004
2.753850e+003, 2.828687e-004
2.755779e+003, 2.985746e-004
2.757707e+003, 1.304299e-004
2.759636e+003, -6.903708e-005
2.761564e+003, 2.458692e-006
2.763493e+003, 7.777661e-005
2.765421e+003, 3.356636e-004
2.767350e+003, 4.516318e-004
2.769278e+003, 5.782694e-004
2.771207e+003, 7.400364e-004
2.773135e+003, 7.057190e-004
2.775063e+003, 4.322976e-004
2.776992e+003, 4.140064e-004
2.778920e+003, 6.377399e-004
2.780849e+003, 6.733984e-004
2.782777e+003, 7.967949e-004
2.784706e+003, 9.262338e-004
2.786634e+003, 7.473454e-004
2.788563e+003, 7.323474e-004
2.790491e+003, 5.846471e-004
2.792420e+003, 2.478957e-004
2.794348e+003, -1.030415e-005
2.796277e+003, 8.893758e-005
2.798205e+003, 3.706589e-004
2.800134e+003, 4.748330e-004
2.802062e+003, 6.723180e-004
2.803990e+003, 6.088465e-004
2.805919e+003, 6.853640e-004
2.807847e+003, 7.594973e-004
2.809776e+003, 6.017238e-004
2.811704e+003, 6.186068e-004
2.813633e+003, 5.964562e-004
2.815561e+003, 6.095767e-004
2.817490e+003, 8.753687e-004
2.819418e+003, 7.672384e-004
2.821347e+003, 8.678883e-004
2.823275e+003, 1.029357e-003
2.825204e+003, 9.089708e-004
2.827132e+003, 8.442774e-004
2.829061e+003, 1.017809e-003
2.830989e+003, 1.136564e-003
2.832917e+003, 1.177959e-003
2.834846e+003, 1.284376e-003
2.836774e+003, 1.612522e-003
2.838703e+003, 1.794964e-003
2.840631e+003, 1.652792e-003
2.842560e+003, 1.794510e-003
2.844488e+003, 1.871020e-003
2.846417e+003, 1.060918e-003
2.848345e+003, 7.320493e-004
2.850274e+003, 1.007907e-003
2.852202e+003, 1.420930e-003
2.854131e+003, 1.654364e-003
2.856059e+003, 1.977876e-003
2.857988e+003, 2.001658e-003
2.859916e+003, 1.947999e-003
2.861844e+003, 1.961537e-003
2.863773e+003, 1.931660e-003
2.865701e+003, 1.937322e-003
2.867630e+003, 1.976185e-003
2.869558e+003, 2.156943e-003
2.871487e+003, 2.232447e-003
2.873415e+003, 2.015390e-003
2.875344e+003, 1.687877e-003
2.877272e+003, 1.937591e-003
2.879201e+003, 2.258010e-003
2.881129e+003, 2.090655e-003
2.883058e+003, 1.736619e-003
2.884986e+003, 1.740970e-003
2.886915e+003, 1.732007e-003
2.888843e+003, 1.721732e-003
2.890771e+003, 2.042808e-003
2.892700e+003, 2.231613e-003
2.894628e+003, 2.185695e-003
2.896557e+003, 1.875162e-003
2.898485e+003, 1.987562e-003
2.900414e+003, 2.405450e-003
2.902342e+003, 2.649195e-003
2.904271e+003, 2.633892e-003
2.906199e+003, 2.539046e-003
2.908128e+003, 2.858572e-003
2.910056e+003, 3.057875e-003
2.911985e+003, 2.789751e-003
2.913913e+003, 2.308287e-003
2.915842e+003, 2.047889e-003
2.917770e+003, 2.128370e-003
2.919698e+003, 2.500430e-003
2.921627e+003, 3.181957e-003
2.923555e+003, 3.487699e-003
2.925484e+003, 3.333449e-003
2.927412e+003, 3.506131e-003
2.929341e+003, 4.085772e-003
2.931269e+003, 4.230730e-003
2.933198e+003, 3.749020e-003
2.935126e+003, 3.223680e-003
2.937055e+003, 2.934135e-003
2.938983e+003, 2.792768e-003
2.940912e+003, 2.551794e-003
2.942840e+003, 2.590455e-003
2.944769e+003, 2.651066e-003
2.946697e+003, 2.419010e-003
2.948625e+003, 2.400555e-003
2.950554e+003, 2.808444e-003
2.952482e+003, 3.174007e-003
2.954411e+003, 3.383219e-003
2.956339e+003, 2.899945e-003
2.958268e+003, 2.336264e-003
2.960196e+003, 2.415918e-003
2.962125e+003, 2.267867e-003
2.964053e+003, 2.226673e-003
2.965982e+003, 1.940086e-003
2.967910e+003, 1.194656e-003
2.969839e+003, 1.055665e-003
2.971767e+003, 1.025699e-003
2.973696e+003, 6.453842e-004
2.975624e+003, 1.452640e-004
2.977552e+003, -5.599111e-005
2.979481e+003, 9.866804e-005
2.981409e+003, 9.448826e-005
2.983338e+003, -2.693087e-004
2.985266e+003, -5.510896e-004
2.987195e+003, -5.004480e-004
2.989123e+003, -1.589209e-004
2.991052e+003, 1.596361e-004
2.992980e+003, 1.863688e-004
2.994909e+003, -1.990721e-004
2.996837e+003, -2.624318e-004
2.998766e+003, -2.667308e-004
3.000694e+003, -6.236210e-004
3.002623e+003, -5.802587e-004
3.004551e+003, -2.137125e-004
3.006479e+003, 3.073364e-005
3.008408e+003, -2.883151e-004
3.010336e+003, -7.346123e-004
3.012265e+003, -9.802654e-004
3.014193e+003, -1.428798e-003
3.016122e+003, -2.448879e-003
3.018050e+003, -2.230123e-003
3.019979e+003, -5.810335e-004
3.021907e+003, 2.879426e-004
3.023836e+003, 3.260821e-004
3.025764e+003, 3.445894e-004
3.027693e+003, 3.840402e-004
3.029621e+003, 2.445653e-004
3.031550e+003, 5.148351e-005
3.033478e+003, -4.129484e-004
3.035406e+003, -2.657846e-004
3.037335e+003, -1.407862e-004
3.039263e+003, 1.553372e-004
3.041192e+003, 3.417283e-004
3.043120e+003, 9.678304e-005
3.045049e+003, 1.725554e-005
3.046977e+003, 1.143292e-004
3.048906e+003, 3.664792e-004
3.050834e+003, 5.582199e-004
3.052763e+003, 4.577488e-004
3.054691e+003, 2.378225e-004
3.056620e+003, -7.507354e-004
3.058548e+003, -8.231401e-004
3.060477e+003, 5.078316e-005
3.062405e+003, 2.963394e-004
3.064333e+003, -1.501292e-004
3.066262e+003, -5.792752e-004
3.068190e+003, -3.437474e-004
3.070119e+003, 2.193004e-004
3.072047e+003, 3.063753e-004
3.073976e+003, -7.773936e-005
3.075904e+003, -2.789348e-004
3.077833e+003, 5.963445e-005
3.079761e+003, 1.003295e-004
3.081690e+003, -3.889203e-006
3.083618e+003, -2.044812e-004
3.085547e+003, -9.224340e-004
3.087475e+003, -9.564832e-004
3.089404e+003, -7.561445e-004
3.091332e+003, -3.896654e-004
3.093260e+003, 1.602247e-004
3.095189e+003, -5.558506e-004
3.097117e+003, -3.611594e-004
3.099046e+003, -4.482269e-005
3.100974e+003, 2.712905e-004
3.102903e+003, 1.310408e-004
3.104831e+003, -4.325435e-004
3.106760e+003, -3.072247e-004
3.108688e+003, -1.291633e-004
3.110617e+003, 2.637506e-006
3.112545e+003, -6.163120e-005
3.114474e+003, -2.054200e-004
3.116402e+003, -3.078654e-004
3.118331e+003, 5.941838e-005
3.120259e+003, 1.707077e-004
3.122188e+003, -1.823753e-004
3.124116e+003, -1.420975e-004
3.126044e+003, 4.642904e-004
3.127973e+003, 4.550517e-004
3.129901e+003, -5.186349e-005
3.131830e+003, 1.085997e-004
3.133758e+003, 4.066229e-004
3.135687e+003, -8.955598e-006
3.137615e+003, -5.088747e-005
3.139544e+003, -2.449080e-004
3.141472e+003, -2.577603e-004
3.143401e+003, 1.488328e-004
3.145329e+003, -1.706854e-004
3.147258e+003, -6.292164e-004
3.149186e+003, -4.471093e-004
3.151115e+003, -6.770343e-005
3.153043e+003, 2.342835e-004
3.154971e+003, 2.514571e-004
3.156900e+003, 4.046261e-004
3.158828e+003, 3.697425e-004
3.160757e+003, 2.912804e-004
3.162685e+003, 3.374219e-004
3.164614e+003, 2.501160e-004
3.166542e+003, 8.977950e-005
3.168471e+003, -3.778189e-005
3.170399e+003, 4.105568e-004
3.172328e+003, 3.930479e-004
3.174256e+003, -1.314357e-004
3.176185e+003, -1.896694e-004
3.178113e+003, -5.013272e-004
3.180042e+003, -5.829707e-004
3.181970e+003, -4.225969e-004
3.183898e+003, -5.508214e-005
3.185827e+003, 4.700571e-005
3.187755e+003, 1.776218e-004
3.189684e+003, 2.438277e-004
3.191612e+003, 9.428710e-005
3.193541e+003, -2.772138e-004
3.195469e+003, -6.990582e-004
3.197398e+003, -4.936308e-004
3.199326e+003, -4.175529e-004
3.201255e+003, -6.977469e-005
3.203183e+003, -1.399070e-004
3.205112e+003, -4.123002e-004
3.207040e+003, -1.093671e-004
3.208969e+003, 1.108199e-004
3.210897e+003, 1.513064e-004
3.212825e+003, 4.546344e-005
3.214754e+003, 3.475696e-005
3.216682e+003, 2.189577e-004
3.218611e+003, 3.291517e-004
3.220539e+003, 1.064464e-004
3.222468e+003, 5.710497e-004
3.224396e+003, 5.394444e-004
3.226325e+003, -2.784282e-005
3.228253e+003, -2.781823e-004
3.230182e+003, -4.667267e-004
3.232110e+003, -3.810599e-004
3.234039e+003, -1.814738e-004
3.235967e+003, -4.159436e-004
3.237896e+003, -2.051666e-004
3.239824e+003, 1.157373e-004
3.241752e+003, 1.348108e-004
3.243681e+003, -1.765788e-006
3.245609e+003, -2.819747e-004
3.247538e+003, -6.773844e-004
3.249466e+003, -5.267933e-004
3.251395e+003, -5.406737e-004
3.253323e+003, -6.052256e-004
3.255252e+003, -3.621429e-004
3.257180e+003, -3.718138e-004
3.259109e+003, -2.102256e-004
3.261037e+003, 9.997934e-005
3.262966e+003, 4.265085e-004
3.264894e+003, 1.321733e-004
3.266823e+003, -2.877340e-004
3.268751e+003, 3.881007e-005
3.270679e+003, 5.350634e-004
3.272608e+003, 2.751872e-004
3.274536e+003, -1.012385e-004
3.276465e+003, -2.357811e-004
3.278393e+003, -2.173632e-004
3.280322e+003, -3.810003e-004
3.282250e+003, -8.207634e-004
3.284179e+003, -8.985996e-004
3.286107e+003, -6.519556e-004
3.288036e+003, -5.211979e-004
3.289964e+003, -2.091676e-004
3.291893e+003, -1.873076e-004
3.293821e+003, 5.349517e-006
3.295750e+003, -4.838258e-004
3.297678e+003, -8.793026e-004
3.299606e+003, -7.068515e-004
3.301535e+003, -2.534688e-004
3.303463e+003, -2.781898e-004
3.305392e+003, -1.577139e-004
3.307320e+003, -1.534075e-004
3.309249e+003, -8.527040e-004
3.311177e+003, -7.232577e-004
3.313106e+003, -2.212971e-004
3.315034e+003, -1.101196e-005
3.316963e+003, -1.657009e-005
3.318891e+003, 6.504357e-005
3.320820e+003, -1.314729e-004
3.322748e+003, -6.064773e-004
3.324677e+003, -1.942664e-004
3.326605e+003, 4.744530e-004
3.328533e+003, 1.256615e-004
3.330462e+003, -5.283952e-005
3.332390e+003, 6.604195e-005
3.334319e+003, 1.570284e-004
3.336247e+003, -2.911687e-005
3.338176e+003, -1.745969e-004
3.340104e+003, -1.795888e-004
3.342033e+003, -3.021955e-005
3.343961e+003, -5.222857e-005
3.345890e+003, -2.261698e-004
3.347818e+003, -9.372830e-006
3.349747e+003, 1.353174e-004
3.351675e+003, 5.761832e-004
3.353604e+003, 1.668930e-004
3.355532e+003, -6.824285e-004
3.357460e+003, -5.402118e-004
3.359389e+003, -2.976805e-004
3.361317e+003, -3.534108e-004
3.363246e+003, 1.721084e-005
3.365174e+003, -1.275539e-005
3.367103e+003, -7.104874e-005
3.369031e+003, -1.796782e-004
3.370960e+003, -6.087124e-004
3.372888e+003, -9.640604e-004
3.374817e+003, -6.432682e-004
3.376745e+003, -8.112192e-005
3.378674e+003, -2.353489e-004
3.380602e+003, -3.637671e-004
3.382531e+003, -1.582205e-004
3.384459e+003, -1.494884e-004
3.386387e+003, -1.444668e-004
3.388316e+003, -3.796518e-004
3.390244e+003, -7.063299e-004
3.392173e+003, -4.112720e-004
3.394101e+003, -7.182360e-006
3.396030e+003, -4.058033e-004
3.397958e+003, -5.058497e-004
3.399887e+003, -4.100502e-004
3.401815e+003, -6.361902e-004
3.403744e+003, -6.561130e-004
3.405672e+003, -5.989224e-004
3.407601e+003, -3.005713e-004
3.409529e+003, -3.414154e-004
3.411458e+003, -4.533678e-004
3.413386e+003, -4.301220e-004
3.415314e+003, -1.253188e-004
3.417243e+003, 6.200373e-005
3.419171e+003, -2.934188e-004
3.421100e+003, -4.622489e-004
3.423028e+003, -9.401143e-005
3.424957e+003, 3.755093e-004
3.426885e+003, 4.671067e-004
3.428814e+003, 2.266765e-004
3.430742e+003, -6.798059e-004
3.432671e+003, -5.886704e-004
3.434599e+003, -5.413741e-004
3.436528e+003, -8.348972e-004
3.438456e+003, -6.979704e-004
3.440385e+003, -6.514341e-004
3.442313e+003, -6.717443e-004
3.444241e+003, -2.745390e-004
3.446170e+003, 2.341121e-004
3.448098e+003, 4.560351e-004
3.450027e+003, 5.500615e-004
3.451955e+003, 2.889782e-004
3.453884e+003, -5.032867e-004
3.455812e+003, -3.186315e-004
3.457741e+003, 9.196997e-005
3.459669e+003, -2.695918e-004
3.461598e+003, -3.394336e-004
3.463526e+003, -8.504093e-005
3.465455e+003, -5.662441e-007
3.467383e+003, -1.480579e-004
3.469312e+003, -4.594028e-004
3.471240e+003, -3.175884e-004
3.473168e+003, -6.695092e-005
3.475097e+003, -5.383939e-004
3.477025e+003, -3.062934e-004
3.478954e+003, -4.864931e-004
3.480882e+003, -1.318008e-004
3.482811e+003, -3.159046e-006
3.484739e+003, -6.760061e-004
3.486668e+003, -9.582192e-004
3.488596e+003, -7.220805e-004
3.490525e+003, -4.636943e-004
3.492453e+003, -4.447699e-004
3.494382e+003, -2.651811e-004
3.496310e+003, -7.283539e-004
3.498239e+003, -1.125067e-003
3.500167e+003, -6.625354e-004
3.502095e+003, -4.534125e-004
3.504024e+003, -5.743355e-004
3.505952e+003, -4.533380e-004
3.507881e+003, 2.998561e-004
3.509809e+003, 8.440763e-004
3.511738e+003, 5.200058e-004
3.513666e+003, -1.190752e-004
3.515595e+003, -5.071312e-004
3.517523e+003, 1.411289e-004
3.519452e+003, 6.400496e-004
3.521380e+003, 8.096695e-004
3.523309e+003, 1.053095e-003
3.525237e+003, 7.261336e-004
3.527166e+003, 3.175437e-004
3.529094e+003, 1.142919e-005
3.531022e+003, -6.944388e-004
3.532951e+003, -7.372051e-004
3.534879e+003, -4.352629e-004
3.536808e+003, -6.207824e-005
3.538736e+003, -5.866140e-004
3.540665e+003, -5.416870e-004
3.542593e+003, -1.588315e-004
3.544522e+003, -3.159493e-004
3.546450e+003, -1.499206e-004
3.548379e+003, 2.835542e-004
3.550307e+003, 3.281236e-004
3.552236e+003, 2.234876e-004
3.554164e+003, 3.008842e-004
3.556093e+003, -3.814697e-006
3.558021e+003, 1.218617e-004
3.559949e+003, 5.094111e-004
3.561878e+003, 5.112588e-005
3.563806e+003, -4.166812e-004
3.565735e+003, -2.602190e-004
3.567663e+003, 2.150238e-004
3.569592e+003, 2.884716e-004
3.571520e+003, 2.255291e-004
3.573449e+003, 5.629659e-004
3.575377e+003, 3.594160e-004
3.577306e+003, 2.035946e-004
3.579234e+003, 4.612803e-004
3.581163e+003, 5.279481e-005
3.583091e+003, -2.998412e-004
3.585020e+003, -2.803504e-004
3.586948e+003, -9.721518e-005
3.588876e+003, -2.212375e-004
3.590805e+003, -8.612722e-004
3.592733e+003, -1.000479e-003
3.594662e+003, -5.475730e-004
3.596590e+003, -3.817677e-005
3.598519e+003, 1.589507e-004
3.600447e+003, 8.162856e-005
3.602376e+003, -2.763867e-004
3.604304e+003, -2.475381e-004
3.606233e+003, 5.428493e-005
3.608161e+003, 6.366372e-004
3.610090e+003, 8.850694e-004
3.612018e+003, -8.730590e-005
3.613947e+003, -7.296503e-004
3.615875e+003, -5.692393e-004
3.617803e+003, -8.087456e-004
3.619732e+003, -9.222478e-004
3.621660e+003, -6.006360e-004
3.623589e+003, -2.089441e-004
3.625517e+003, 9.194016e-005
3.627446e+003, -6.275028e-004
3.629374e+003, -1.033723e-003
3.631303e+003, 4.676133e-004
3.633231e+003, 8.268952e-004
3.635160e+003, -3.458560e-005
3.637088e+003, 2.287328e-004
3.639017e+003, 5.320460e-004
3.640945e+003, 2.540946e-004
3.642874e+003, -2.016872e-004
3.644802e+003, 5.209446e-005
3.646730e+003, 5.990267e-004
3.648659e+003, 5.477071e-004
3.650587e+003, 2.705008e-004
3.652516e+003, -3.806800e-004
3.654444e+003, -5.733669e-004
3.656373e+003, -3.293008e-004
3.658301e+003, -4.757941e-005
3.660230e+003, 8.879602e-005
3.662158e+003, -3.379881e-004
3.664087e+003, -1.362413e-004
3.666015e+003, 1.762956e-004
3.667944e+003, 3.216714e-004
3.669872e+003, 2.036989e-005
3.671801e+003, 4.370511e-005
3.673729e+003, 3.110468e-004
3.675657e+003, 1.374334e-004
3.677586e+003, -6.301701e-005
3.679514e+003, 9.584427e-005
3.681443e+003, 3.227293e-004
3.683371e+003, -3.361702e-005
3.685300e+003, -6.388426e-004
3.687228e+003, -8.809716e-004
3.689157e+003, -2.003461e-004
3.691085e+003, 1.044571e-005
3.693014e+003, -6.917864e-004
3.694942e+003, -8.260757e-004
3.696871e+003, -5.166531e-004
3.698799e+003, -5.942732e-004
3.700728e+003, -2.128780e-004
3.702656e+003, 2.734810e-004
3.704584e+003, -5.431771e-004
3.706513e+003, -1.016170e-003
3.708441e+003, -1.369163e-003
3.710370e+003, -1.285076e-003
3.712298e+003, -7.276088e-004
3.714227e+003, -5.758256e-004
3.716155e+003, -8.364618e-004
3.718084e+003, -5.045831e-004
3.720012e+003, -3.212094e-004
3.721941e+003, 1.043826e-004
3.723869e+003, 9.243190e-005
3.725798e+003, 1.303107e-004
3.727726e+003, 4.879385e-004
3.729655e+003, -1.978129e-004
3.731583e+003, -1.283690e-003
3.733511e+003, -1.373917e-003
3.735440e+003, -1.097009e-003
3.737368e+003, -7.426888e-004
3.739297e+003, -6.576926e-004
3.741225e+003, -4.421622e-004
3.743154e+003, -1.893640e-004
3.745082e+003, -4.753470e-004
3.747011e+003, -7.527769e-004
3.748939e+003, -6.321669e-004
3.750868e+003, -3.153831e-004
3.752796e+003, -7.820874e-004
3.754725e+003, -1.762420e-003
3.756653e+003, -1.560062e-003
3.758582e+003, -7.275790e-004
3.760510e+003, -9.606481e-004
3.762438e+003, -7.605851e-004
3.764367e+003, -1.453742e-003
3.766295e+003, -1.595154e-003
3.768224e+003, -7.504225e-005
3.770152e+003, 3.805906e-004
3.772081e+003, 3.859401e-006
3.774009e+003, 1.739264e-004
3.775938e+003, -2.079308e-004
3.777866e+003, -1.019537e-003
3.779795e+003, -9.639263e-004
3.781723e+003, -4.673600e-004
3.783652e+003, -2.758503e-004
3.785580e+003, -6.313622e-005
3.787509e+003, -1.197308e-004
3.789437e+003, -4.926324e-004
3.791365e+003, -3.722310e-004
3.793294e+003, 2.351403e-004
3.795222e+003, 7.033944e-004
3.797151e+003, 3.415793e-004
3.799079e+003, 4.217774e-004
3.801008e+003, 6.163418e-004
3.802936e+003, -4.331172e-004
3.804865e+003, -1.317829e-003
3.806793e+003, -1.121789e-003
3.808722e+003, -3.381819e-004
3.810650e+003, -5.391240e-005
3.812579e+003, -7.675886e-004
3.814507e+003, -1.566455e-003
3.816436e+003, -1.051396e-003
3.818364e+003, 5.210042e-004
3.820292e+003, 7.936358e-004
3.822221e+003, 1.531690e-004
3.824149e+003, -2.038479e-004
3.826078e+003, -3.540367e-004
3.828006e+003, -8.556247e-005
3.829935e+003, 1.321882e-004
3.831863e+003, 2.821535e-004
3.833792e+003, 5.700737e-004
3.835720e+003, 3.671646e-005
3.837649e+003, -5.465597e-004
3.839577e+003, -3.852546e-004
3.841506e+003, -4.605800e-004
3.843434e+003, -5.613416e-004
3.845363e+003, -9.922683e-004
3.847291e+003, -5.629659e-004
3.849219e+003, 4.540533e-004
3.851148e+003, 4.336983e-004
3.853076e+003, 3.984571e-005
3.855005e+003, -9.852648e-005
3.856933e+003, -1.741797e-004
3.858862e+003, 5.453825e-005
3.860790e+003, -2.175570e-005
3.862719e+003, 1.473576e-004
3.864647e+003, 6.457567e-004
3.866576e+003, 4.276186e-004
3.868504e+003, 1.052916e-004
3.870433e+003, -8.997321e-005
3.872361e+003, 2.132356e-004
3.874290e+003, 1.014352e-003
3.876218e+003, 9.416789e-004
3.878146e+003, 7.645488e-004
3.880075e+003, 7.711947e-004
3.882003e+003, 1.241550e-003
3.883932e+003, 8.420944e-004
3.885860e+003, -2.564341e-004
3.887789e+003, -2.672970e-004
3.889717e+003, 1.068339e-003
3.891646e+003, 1.609087e-003
3.893574e+003, 1.059309e-003
3.895503e+003, 5.270988e-004
3.897431e+003, 9.067059e-004
3.899360e+003, 1.051590e-003
3.901288e+003, 2.221018e-004
3.903217e+003, -2.373606e-004
3.905145e+003, 1.065880e-004
3.907073e+003, 1.052231e-003
3.909002e+003, 1.640350e-003
3.910930e+003, 1.202732e-003
3.912859e+003, 1.360133e-003
3.914787e+003, 1.238227e-003
3.916716e+003, 1.092762e-003
3.918644e+003, 8.190572e-004
3.920573e+003, 2.775788e-004
3.922501e+003, 4.555285e-004
3.924430e+003, 1.269102e-003
3.926358e+003, 1.604527e-003
3.928287e+003, 1.901820e-003
3.930215e+003, 1.551598e-003
3.932144e+003, 3.547817e-004
3.934072e+003, 1.450181e-004
3.936000e+003, 8.609295e-004
3.937929e+003, 1.202822e-003
3.939857e+003, 7.175356e-004
3.941786e+003, 7.638335e-004
3.943714e+003, 7.924139e-004
3.945643e+003, 9.309202e-004
3.947571e+003, 9.669513e-004
3.949500e+003, 1.178101e-003
3.951428e+003, 6.095022e-004
3.953357e+003, -3.524274e-004
3.955285e+003, -4.694015e-004
3.957214e+003, -2.876371e-004
3.959142e+003, -4.826039e-004
3.961071e+003, 5.235523e-004
3.962999e+003, 1.178607e-003
3.964927e+003, 9.008050e-004
3.966856e+003, 2.693385e-004
3.968784e+003, 3.382564e-005
3.970713e+003, 2.298057e-004
3.972641e+003, 2.679080e-004
3.974570e+003, 4.844666e-004
3.976498e+003, 2.980232e-007
3.978427e+003, -2.698302e-004
3.980355e+003, 1.451373e-004
3.982284e+003, -2.731681e-004
3.984212e+003, -7.091165e-004
3.986141e+003, -1.610816e-004
3.988069e+003, -1.518279e-004
3.989998e+003, 8.355081e-005
3.991926e+003, 6.162673e-004
3.993854e+003, 7.701218e-004
3.995783e+003, 2.821237e-004
3.997711e+003, -7.237345e-004
3.999640e+003, -1.304477e-003
##END=



