##NAMES=Actinolite
##RRUFFID=R060041
##IDEAL CHEMISTRY=Ca_2_(Mg_4.5-2.5_Fe^2+^_0.5-2.5_)Si_8_O_22_(OH)_2_
##LOCALITY=Prince of Wales Island, Alaska, USA
##OWNER=RRUFF
##SOURCE=University of Arizona Mineral Museum
##DESCRIPTION=Green acicular crystals forming parallel groups in cylindrical or bladed forms
##STATUS=The identification of this mineral has been confirmed by X-ray diffraction and chemical analysis
##URL=rruff.info/R060041
##MEASURED CHEMISTRY=(Ca_0.97_Na_0.03_)_2_(Mg_0.65_Fe^2+^_0.29_Fe^3+^_0.04_Al_0.01_Mn_0.01_)_5_(Si_0.98_Al_0.02_)_8_O_22_(OH)_2_
3.991926e+002, 2.961853e-001
4.011211e+002, 3.005183e-001
4.030495e+002, 3.025376e-001
4.049780e+002, 3.041055e-001
4.069065e+002, 2.994163e-001
4.088349e+002, 2.991337e-001
4.107634e+002, 3.056453e-001
4.126919e+002, 3.071252e-001
4.146203e+002, 3.018981e-001
4.165488e+002, 2.974728e-001
4.184773e+002, 2.994109e-001
4.204057e+002, 3.073827e-001
4.223342e+002, 3.181438e-001
4.242627e+002, 3.350168e-001
4.261911e+002, 3.515100e-001
4.281196e+002, 3.646549e-001
4.300481e+002, 3.765129e-001
4.319765e+002, 3.816853e-001
4.339050e+002, 3.746741e-001
4.358335e+002, 3.662581e-001
4.377619e+002, 3.618835e-001
4.396904e+002, 3.547449e-001
4.416189e+002, 3.443347e-001
4.435473e+002, 3.385487e-001
4.454758e+002, 3.379293e-001
4.474043e+002, 3.387227e-001
4.493327e+002, 3.416821e-001
4.512612e+002, 3.455785e-001
4.531897e+002, 3.449353e-001
4.551181e+002, 3.415396e-001
4.570466e+002, 3.334768e-001
4.589751e+002, 3.227139e-001
4.609035e+002, 3.106768e-001
4.628320e+002, 2.996222e-001
4.647605e+002, 2.891567e-001
4.666889e+002, 2.788520e-001
4.686174e+002, 2.675406e-001
4.705459e+002, 2.569060e-001
4.724743e+002, 2.460313e-001
4.744028e+002, 2.355444e-001
4.763313e+002, 2.271933e-001
4.782597e+002, 2.185067e-001
4.801882e+002, 2.102914e-001
4.821167e+002, 2.049688e-001
4.840451e+002, 2.025258e-001
4.859736e+002, 2.033684e-001
4.879021e+002, 2.077130e-001
4.898305e+002, 2.147891e-001
4.917590e+002, 2.244013e-001
4.936875e+002, 2.348569e-001
4.956159e+002, 2.421544e-001
4.975444e+002, 2.441715e-001
4.994729e+002, 2.413613e-001
5.014013e+002, 2.360513e-001
5.033298e+002, 2.292700e-001
5.052583e+002, 2.218984e-001
5.071867e+002, 2.138323e-001
5.091152e+002, 2.051819e-001
5.110437e+002, 1.963225e-001
5.129721e+002, 1.882706e-001
5.149006e+002, 1.821341e-001
5.168290e+002, 1.767294e-001
5.187575e+002, 1.714191e-001
5.206860e+002, 1.669121e-001
5.226144e+002, 1.628352e-001
5.245429e+002, 1.590637e-001
5.264714e+002, 1.551551e-001
5.283998e+002, 1.500075e-001
5.303283e+002, 1.444225e-001
5.322568e+002, 1.382635e-001
5.341852e+002, 1.305711e-001
5.361137e+002, 1.225553e-001
5.380422e+002, 1.155968e-001
5.399706e+002, 1.091512e-001
5.418991e+002, 1.031572e-001
5.438276e+002, 9.722728e-002
5.457560e+002, 9.147697e-002
5.476845e+002, 8.624589e-002
5.496130e+002, 8.113842e-002
5.515414e+002, 7.598652e-002
5.534699e+002, 7.126014e-002
5.553984e+002, 6.697550e-002
5.573268e+002, 6.302481e-002
5.592553e+002, 5.910220e-002
5.611838e+002, 5.560607e-002
5.631122e+002, 5.224988e-002
5.650407e+002, 4.920581e-002
5.669692e+002, 4.669940e-002
5.688976e+002, 4.437612e-002
5.708261e+002, 4.252987e-002
5.727546e+002, 4.065350e-002
5.746830e+002, 3.868996e-002
5.766115e+002, 3.679545e-002
5.785400e+002, 3.573167e-002
5.804684e+002, 3.485427e-002
5.823969e+002, 3.385282e-002
5.843254e+002, 3.293572e-002
5.862538e+002, 3.241210e-002
5.881823e+002, 3.227438e-002
5.901108e+002, 3.223843e-002
5.920392e+002, 3.225560e-002
5.939677e+002, 3.238059e-002
5.958962e+002, 3.290278e-002
5.978246e+002, 3.332550e-002
5.997531e+002, 3.374127e-002
6.016816e+002, 3.428886e-002
6.036100e+002, 3.489368e-002
6.055385e+002, 3.590661e-002
6.074670e+002, 3.699410e-002
6.093954e+002, 3.765961e-002
6.113239e+002, 3.851142e-002
6.132524e+002, 3.968185e-002
6.151808e+002, 4.125145e-002
6.171093e+002, 4.319137e-002
6.190378e+002, 4.541387e-002
6.209662e+002, 4.832093e-002
6.228947e+002, 5.190791e-002
6.248232e+002, 5.592271e-002
6.267516e+002, 6.068181e-002
6.286801e+002, 6.609751e-002
6.306086e+002, 7.205779e-002
6.325370e+002, 7.807045e-002
6.344655e+002, 8.381632e-002
6.363940e+002, 8.816158e-002
6.383224e+002, 9.000709e-002
6.402509e+002, 8.977241e-002
6.421794e+002, 8.869833e-002
6.441078e+002, 8.857685e-002
6.460363e+002, 8.990747e-002
6.479648e+002, 9.196598e-002
6.498932e+002, 9.361984e-002
6.518217e+002, 9.393802e-002
6.537502e+002, 9.205572e-002
6.556786e+002, 8.846612e-002
6.576071e+002, 8.430575e-002
6.595356e+002, 8.041767e-002
6.614641e+002, 7.726682e-002
6.633925e+002, 7.479268e-002
6.653210e+002, 7.326408e-002
6.672495e+002, 7.288972e-002
6.691779e+002, 7.388779e-002
6.711064e+002, 7.632449e-002
6.730349e+002, 8.064222e-002
6.749633e+002, 8.659390e-002
6.768918e+002, 9.354223e-002
6.788203e+002, 1.006511e-001
6.807487e+002, 1.070500e-001
6.826772e+002, 1.116131e-001
6.846057e+002, 1.136863e-001
6.865341e+002, 1.133741e-001
6.884626e+002, 1.109451e-001
6.903911e+002, 1.069914e-001
6.923195e+002, 1.022130e-001
6.942480e+002, 9.650429e-002
6.961765e+002, 8.997169e-002
6.981049e+002, 8.313136e-002
7.000334e+002, 7.673825e-002
7.019619e+002, 7.116500e-002
7.038903e+002, 6.721853e-002
7.058188e+002, 6.439974e-002
7.077473e+002, 6.253316e-002
7.096757e+002, 6.152137e-002
7.116042e+002, 6.155181e-002
7.135327e+002, 6.234167e-002
7.154611e+002, 6.383524e-002
7.173896e+002, 6.617454e-002
7.193181e+002, 6.865365e-002
7.212465e+002, 7.014778e-002
7.231750e+002, 7.020907e-002
7.251035e+002, 6.983945e-002
7.270319e+002, 7.027970e-002
7.289604e+002, 7.227328e-002
7.308889e+002, 7.587913e-002
7.328173e+002, 7.998554e-002
7.347458e+002, 8.328561e-002
7.366743e+002, 8.606623e-002
7.386027e+002, 9.001639e-002
7.405312e+002, 9.652282e-002
7.424597e+002, 1.057462e-001
7.443881e+002, 1.176473e-001
7.463166e+002, 1.324153e-001
7.482451e+002, 1.497246e-001
7.501735e+002, 1.674151e-001
7.521020e+002, 1.791077e-001
7.540305e+002, 1.786322e-001
7.559589e+002, 1.658338e-001
7.578874e+002, 1.461737e-001
7.598159e+002, 1.254124e-001
7.617443e+002, 1.068449e-001
7.636728e+002, 9.205098e-002
7.656013e+002, 8.146668e-002
7.675297e+002, 7.436500e-002
7.694582e+002, 6.989869e-002
7.713867e+002, 6.743302e-002
7.733151e+002, 6.631800e-002
7.752436e+002, 6.625003e-002
7.771721e+002, 6.649179e-002
7.791005e+002, 6.630468e-002
7.810290e+002, 6.545811e-002
7.829575e+002, 6.414621e-002
7.848859e+002, 6.271011e-002
7.868144e+002, 6.214202e-002
7.887429e+002, 6.258811e-002
7.906713e+002, 6.387890e-002
7.925998e+002, 6.575497e-002
7.945283e+002, 6.781705e-002
7.964567e+002, 6.980661e-002
7.983852e+002, 7.095552e-002
8.003137e+002, 7.082680e-002
8.022421e+002, 6.930456e-002
8.041706e+002, 6.708249e-002
8.060991e+002, 6.459872e-002
8.080275e+002, 6.241076e-002
8.099560e+002, 6.136693e-002
8.118845e+002, 6.123057e-002
8.138129e+002, 6.161173e-002
8.157414e+002, 6.256783e-002
8.176699e+002, 6.385291e-002
8.195983e+002, 6.544358e-002
8.215268e+002, 6.731963e-002
8.234553e+002, 6.973001e-002
8.253837e+002, 7.241881e-002
8.273122e+002, 7.515923e-002
8.292407e+002, 7.813306e-002
8.311691e+002, 8.156757e-002
8.330976e+002, 8.534039e-002
8.350261e+002, 8.948225e-002
8.369545e+002, 9.371822e-002
8.388830e+002, 9.820651e-002
8.408115e+002, 1.029461e-001
8.427399e+002, 1.077316e-001
8.446684e+002, 1.124545e-001
8.465969e+002, 1.170515e-001
8.485253e+002, 1.214341e-001
8.504538e+002, 1.259185e-001
8.523823e+002, 1.306361e-001
8.543107e+002, 1.355940e-001
8.562392e+002, 1.407835e-001
8.581677e+002, 1.467220e-001
8.600961e+002, 1.530005e-001
8.620246e+002, 1.597165e-001
8.639531e+002, 1.670403e-001
8.658815e+002, 1.749691e-001
8.678100e+002, 1.832500e-001
8.697385e+002, 1.920001e-001
8.716669e+002, 2.014230e-001
8.735954e+002, 2.114796e-001
8.755239e+002, 2.222489e-001
8.774523e+002, 2.335175e-001
8.793808e+002, 2.450088e-001
8.813093e+002, 2.571031e-001
8.832377e+002, 2.693739e-001
8.851662e+002, 2.822365e-001
8.870947e+002, 2.959008e-001
8.890231e+002, 3.099953e-001
8.909516e+002, 3.248383e-001
8.928801e+002, 3.403890e-001
8.948085e+002, 3.562719e-001
8.967370e+002, 3.723062e-001
8.986655e+002, 3.886146e-001
9.005939e+002, 4.048471e-001
9.025224e+002, 4.207974e-001
9.044509e+002, 4.363897e-001
9.063793e+002, 4.509222e-001
9.083078e+002, 4.633645e-001
9.102363e+002, 4.730551e-001
9.121647e+002, 4.792226e-001
9.140932e+002, 4.798947e-001
9.160217e+002, 4.745394e-001
9.179501e+002, 4.638005e-001
9.198786e+002, 4.492615e-001
9.218071e+002, 4.330808e-001
9.237355e+002, 4.196701e-001
9.256640e+002, 4.136285e-001
9.275925e+002, 4.174214e-001
9.295209e+002, 4.296552e-001
9.314494e+002, 4.475308e-001
9.333779e+002, 4.685047e-001
9.353063e+002, 4.895808e-001
9.372348e+002, 5.083278e-001
9.391633e+002, 5.237086e-001
9.410917e+002, 5.340952e-001
9.430202e+002, 5.388348e-001
9.449487e+002, 5.377506e-001
9.468771e+002, 5.322946e-001
9.488056e+002, 5.236587e-001
9.507341e+002, 5.124882e-001
9.526625e+002, 4.996043e-001
9.545910e+002, 4.864330e-001
9.565195e+002, 4.730932e-001
9.584479e+002, 4.603378e-001
9.603764e+002, 4.484762e-001
9.623049e+002, 4.376075e-001
9.642333e+002, 4.280232e-001
9.661618e+002, 4.194693e-001
9.680903e+002, 4.116920e-001
9.700187e+002, 4.050052e-001
9.719472e+002, 3.993629e-001
9.738757e+002, 3.948292e-001
9.758041e+002, 3.909734e-001
9.777326e+002, 3.872218e-001
9.796611e+002, 3.830102e-001
9.815895e+002, 3.777672e-001
9.835180e+002, 3.709995e-001
9.854465e+002, 3.623156e-001
9.873749e+002, 3.519352e-001
9.893034e+002, 3.404862e-001
9.912319e+002, 3.275740e-001
9.931603e+002, 3.137598e-001
9.950888e+002, 2.997043e-001
9.970173e+002, 2.858441e-001
9.989457e+002, 2.727937e-001
1.000874e+003, 2.606126e-001
1.002803e+003, 2.489560e-001
1.004731e+003, 2.380204e-001
1.006660e+003, 2.278944e-001
1.008588e+003, 2.183313e-001
1.010517e+003, 2.094672e-001
1.012445e+003, 2.013777e-001
1.014373e+003, 1.939365e-001
1.016302e+003, 1.873757e-001
1.018230e+003, 1.814463e-001
1.020159e+003, 1.765593e-001
1.022087e+003, 1.732703e-001
1.024016e+003, 1.720743e-001
1.025944e+003, 1.732840e-001
1.027873e+003, 1.769403e-001
1.029801e+003, 1.817710e-001
1.031730e+003, 1.857904e-001
1.033658e+003, 1.876651e-001
1.035587e+003, 1.873877e-001
1.037515e+003, 1.866974e-001
1.039443e+003, 1.869844e-001
1.041372e+003, 1.877066e-001
1.043300e+003, 1.885440e-001
1.045229e+003, 1.893379e-001
1.047157e+003, 1.899707e-001
1.049086e+003, 1.903354e-001
1.051014e+003, 1.905991e-001
1.052943e+003, 1.906114e-001
1.054871e+003, 1.901336e-001
1.056800e+003, 1.889055e-001
1.058728e+003, 1.871585e-001
1.060657e+003, 1.848750e-001
1.062585e+003, 1.818166e-001
1.064514e+003, 1.779483e-001
1.066442e+003, 1.735595e-001
1.068370e+003, 1.692346e-001
1.070299e+003, 1.649767e-001
1.072227e+003, 1.609227e-001
1.074156e+003, 1.575578e-001
1.076084e+003, 1.548348e-001
1.078013e+003, 1.530510e-001
1.079941e+003, 1.523762e-001
1.081870e+003, 1.529190e-001
1.083798e+003, 1.546080e-001
1.085727e+003, 1.571632e-001
1.087655e+003, 1.602790e-001
1.089584e+003, 1.636643e-001
1.091512e+003, 1.663141e-001
1.093441e+003, 1.682494e-001
1.095369e+003, 1.694682e-001
1.097297e+003, 1.696748e-001
1.099226e+003, 1.689170e-001
1.101154e+003, 1.672620e-001
1.103083e+003, 1.643907e-001
1.105011e+003, 1.604459e-001
1.106940e+003, 1.558011e-001
1.108868e+003, 1.502644e-001
1.110797e+003, 1.438164e-001
1.112725e+003, 1.369927e-001
1.114654e+003, 1.297666e-001
1.116582e+003, 1.222630e-001
1.118511e+003, 1.151224e-001
1.120439e+003, 1.092193e-001
1.122368e+003, 1.049879e-001
1.124296e+003, 1.013633e-001
1.126224e+003, 9.678756e-002
1.128153e+003, 9.084793e-002
1.130081e+003, 8.444729e-002
1.132010e+003, 7.812244e-002
1.133938e+003, 7.217867e-002
1.135867e+003, 6.644881e-002
1.137795e+003, 6.098567e-002
1.139724e+003, 5.610584e-002
1.141652e+003, 5.165470e-002
1.143581e+003, 4.754148e-002
1.145509e+003, 4.379678e-002
1.147438e+003, 4.052491e-002
1.149366e+003, 3.775138e-002
1.151295e+003, 3.530272e-002
1.153223e+003, 3.316683e-002
1.155151e+003, 3.147687e-002
1.157080e+003, 3.046999e-002
1.159008e+003, 3.021416e-002
1.160937e+003, 3.020198e-002
1.162865e+003, 2.990496e-002
1.164794e+003, 2.921246e-002
1.166722e+003, 2.840893e-002
1.168651e+003, 2.759175e-002
1.170579e+003, 2.671143e-002
1.172508e+003, 2.581740e-002
1.174436e+003, 2.503823e-002
1.176365e+003, 2.443623e-002
1.178293e+003, 2.390545e-002
1.180222e+003, 2.340332e-002
1.182150e+003, 2.283894e-002
1.184078e+003, 2.223090e-002
1.186007e+003, 2.173725e-002
1.187935e+003, 2.140844e-002
1.189864e+003, 2.107262e-002
1.191792e+003, 2.059382e-002
1.193721e+003, 2.003385e-002
1.195649e+003, 1.958893e-002
1.197578e+003, 1.902395e-002
1.199506e+003, 1.834357e-002
1.201435e+003, 1.769676e-002
1.203363e+003, 1.713058e-002
1.205292e+003, 1.656697e-002
1.207220e+003, 1.597521e-002
1.209149e+003, 1.540188e-002
1.211077e+003, 1.477557e-002
1.213005e+003, 1.415390e-002
1.214934e+003, 1.350388e-002
1.216862e+003, 1.299494e-002
1.218791e+003, 1.253258e-002
1.220719e+003, 1.205729e-002
1.222648e+003, 1.173452e-002
1.224576e+003, 1.150492e-002
1.226505e+003, 1.122895e-002
1.228433e+003, 1.095933e-002
1.230362e+003, 1.078653e-002
1.232290e+003, 1.067222e-002
1.234219e+003, 1.055027e-002
1.236147e+003, 1.028901e-002
1.238076e+003, 1.004618e-002
1.240004e+003, 9.917861e-003
1.241932e+003, 9.807308e-003
1.243861e+003, 9.671099e-003
1.245789e+003, 9.533196e-003
1.247718e+003, 9.449764e-003
1.249646e+003, 9.393591e-003
1.251575e+003, 9.229950e-003
1.253503e+003, 9.155769e-003
1.255432e+003, 9.206533e-003
1.257360e+003, 9.134766e-003
1.259289e+003, 8.986434e-003
1.261217e+003, 8.921495e-003
1.263146e+003, 8.835183e-003
1.265074e+003, 8.766349e-003
1.267003e+003, 8.907692e-003
1.268931e+003, 9.041592e-003
1.270859e+003, 9.024902e-003
1.272788e+003, 9.176863e-003
1.274716e+003, 9.315276e-003
1.276645e+003, 9.232301e-003
1.278573e+003, 9.097454e-003
1.280502e+003, 9.129508e-003
1.282430e+003, 9.124482e-003
1.284359e+003, 9.079693e-003
1.286287e+003, 8.913994e-003
1.288216e+003, 8.817784e-003
1.290144e+003, 8.785577e-003
1.292073e+003, 8.769802e-003
1.294001e+003, 8.703480e-003
1.295930e+003, 8.651530e-003
1.297858e+003, 8.609359e-003
1.299786e+003, 8.655182e-003
1.301715e+003, 8.733428e-003
1.303643e+003, 8.706249e-003
1.305572e+003, 8.650091e-003
1.307500e+003, 8.638870e-003
1.309429e+003, 8.639068e-003
1.311357e+003, 8.665883e-003
1.313286e+003, 8.687304e-003
1.315214e+003, 8.724946e-003
1.317143e+003, 8.696551e-003
1.319071e+003, 8.617098e-003
1.321000e+003, 8.615145e-003
1.322928e+003, 8.609990e-003
1.324857e+003, 8.686054e-003
1.326785e+003, 8.770971e-003
1.328714e+003, 8.821118e-003
1.330642e+003, 8.909825e-003
1.332570e+003, 8.950914e-003
1.334499e+003, 8.871797e-003
1.336427e+003, 8.738444e-003
1.338356e+003, 8.719517e-003
1.340284e+003, 8.845262e-003
1.342213e+003, 9.072523e-003
1.344141e+003, 9.146013e-003
1.346070e+003, 9.117893e-003
1.347998e+003, 9.081856e-003
1.349927e+003, 9.113820e-003
1.351855e+003, 9.209435e-003
1.353784e+003, 9.214765e-003
1.355712e+003, 9.183795e-003
1.357641e+003, 9.154401e-003
1.359569e+003, 8.976731e-003
1.361497e+003, 8.748544e-003
1.363426e+003, 8.745610e-003
1.365354e+003, 9.000047e-003
1.367283e+003, 9.100921e-003
1.369211e+003, 9.221639e-003
1.371140e+003, 9.214723e-003
1.373068e+003, 9.024647e-003
1.374997e+003, 9.075886e-003
1.376925e+003, 9.392442e-003
1.378854e+003, 9.532239e-003
1.380782e+003, 9.608028e-003
1.382711e+003, 9.632003e-003
1.384639e+003, 9.582586e-003
1.386568e+003, 9.214730e-003
1.388496e+003, 9.457830e-003
1.390424e+003, 1.000349e-002
1.392353e+003, 9.980165e-003
1.394281e+003, 9.662270e-003
1.396210e+003, 9.952869e-003
1.398138e+003, 1.010200e-002
1.400067e+003, 1.026084e-002
1.401995e+003, 1.057106e-002
1.403924e+003, 1.060083e-002
1.405852e+003, 1.067790e-002
1.407781e+003, 1.093049e-002
1.409709e+003, 1.105844e-002
1.411638e+003, 1.123307e-002
1.413566e+003, 1.129855e-002
1.415495e+003, 1.112511e-002
1.417423e+003, 1.057117e-002
1.419351e+003, 1.018784e-002
1.421280e+003, 1.092027e-002
1.423208e+003, 1.133329e-002
1.425137e+003, 1.136023e-002
1.427065e+003, 1.143406e-002
1.428994e+003, 1.125712e-002
1.430922e+003, 1.123826e-002
1.432851e+003, 1.135140e-002
1.434779e+003, 1.088245e-002
1.436708e+003, 1.029855e-002
1.438636e+003, 1.095235e-002
1.440565e+003, 1.133314e-002
1.442493e+003, 1.138375e-002
1.444422e+003, 1.140935e-002
1.446350e+003, 1.119268e-002
1.448278e+003, 1.091263e-002
1.450207e+003, 1.113410e-002
1.452135e+003, 1.117701e-002
1.454064e+003, 1.063812e-002
1.455992e+003, 9.172449e-003
1.457921e+003, 9.334489e-003
1.459849e+003, 1.056974e-002
1.461778e+003, 1.086344e-002
1.463706e+003, 1.032740e-002
1.465635e+003, 1.016134e-002
1.467563e+003, 1.052624e-002
1.469492e+003, 1.043679e-002
1.471420e+003, 9.564548e-003
1.473349e+003, 9.228781e-003
1.475277e+003, 9.874897e-003
1.477205e+003, 1.032022e-002
1.479134e+003, 1.065002e-002
1.481062e+003, 1.066058e-002
1.482991e+003, 1.076065e-002
1.484919e+003, 1.065044e-002
1.486848e+003, 1.038187e-002
1.488776e+003, 1.011581e-002
1.490705e+003, 1.017321e-002
1.492633e+003, 1.065890e-002
1.494562e+003, 1.024343e-002
1.496490e+003, 9.540720e-003
1.498419e+003, 9.853258e-003
1.500347e+003, 1.031725e-002
1.502276e+003, 1.058549e-002
1.504204e+003, 9.452092e-003
1.506132e+003, 7.839267e-003
1.508061e+003, 8.704118e-003
1.509989e+003, 9.985193e-003
1.511918e+003, 1.009008e-002
1.513846e+003, 1.015003e-002
1.515775e+003, 9.812375e-003
1.517703e+003, 9.725608e-003
1.519632e+003, 9.106867e-003
1.521560e+003, 8.497430e-003
1.523489e+003, 9.499873e-003
1.525417e+003, 9.991433e-003
1.527346e+003, 1.045957e-002
1.529274e+003, 1.095225e-002
1.531203e+003, 1.087247e-002
1.533131e+003, 1.034512e-002
1.535059e+003, 1.070346e-002
1.536988e+003, 1.039414e-002
1.538916e+003, 8.608982e-003
1.540845e+003, 8.585090e-003
1.542773e+003, 9.914747e-003
1.544702e+003, 1.074755e-002
1.546630e+003, 1.152140e-002
1.548559e+003, 1.193232e-002
1.550487e+003, 1.205242e-002
1.552416e+003, 1.190559e-002
1.554344e+003, 1.142619e-002
1.556273e+003, 1.083981e-002
1.558201e+003, 9.015328e-003
1.560130e+003, 9.592017e-003
1.562058e+003, 1.218460e-002
1.563986e+003, 1.305590e-002
1.565915e+003, 1.322701e-002
1.567843e+003, 1.298145e-002
1.569772e+003, 1.280504e-002
1.571700e+003, 1.365773e-002
1.573629e+003, 1.356451e-002
1.575557e+003, 1.227716e-002
1.577486e+003, 1.304149e-002
1.579414e+003, 1.442814e-002
1.581343e+003, 1.474383e-002
1.583271e+003, 1.495981e-002
1.585200e+003, 1.501993e-002
1.587128e+003, 1.507994e-002
1.589057e+003, 1.511567e-002
1.590985e+003, 1.526040e-002
1.592913e+003, 1.535939e-002
1.594842e+003, 1.554028e-002
1.596770e+003, 1.562761e-002
1.598699e+003, 1.573905e-002
1.600627e+003, 1.583234e-002
1.602556e+003, 1.597074e-002
1.604484e+003, 1.594789e-002
1.606413e+003, 1.583875e-002
1.608341e+003, 1.563548e-002
1.610270e+003, 1.563964e-002
1.612198e+003, 1.577706e-002
1.614127e+003, 1.528296e-002
1.616055e+003, 1.391484e-002
1.617984e+003, 1.438648e-002
1.619912e+003, 1.539791e-002
1.621840e+003, 1.510437e-002
1.623769e+003, 1.492017e-002
1.625697e+003, 1.510311e-002
1.627626e+003, 1.501522e-002
1.629554e+003, 1.525424e-002
1.631483e+003, 1.543590e-002
1.633411e+003, 1.454008e-002
1.635340e+003, 1.341094e-002
1.637268e+003, 1.415872e-002
1.639197e+003, 1.507105e-002
1.641125e+003, 1.513163e-002
1.643054e+003, 1.491982e-002
1.644982e+003, 1.376079e-002
1.646911e+003, 1.328632e-002
1.648839e+003, 1.419904e-002
1.650767e+003, 1.287591e-002
1.652696e+003, 1.007122e-002
1.654624e+003, 1.183061e-002
1.656553e+003, 1.428617e-002
1.658481e+003, 1.455664e-002
1.660410e+003, 1.420836e-002
1.662338e+003, 1.378935e-002
1.664267e+003, 1.419433e-002
1.666195e+003, 1.446326e-002
1.668124e+003, 1.370503e-002
1.670052e+003, 1.329980e-002
1.671981e+003, 1.370931e-002
1.673909e+003, 1.338597e-002
1.675838e+003, 1.308506e-002
1.677766e+003, 1.382742e-002
1.679694e+003, 1.387575e-002
1.681623e+003, 1.327521e-002
1.683551e+003, 1.110489e-002
1.685480e+003, 1.116710e-002
1.687408e+003, 1.290096e-002
1.689337e+003, 1.325679e-002
1.691265e+003, 1.330330e-002
1.693194e+003, 1.269119e-002
1.695122e+003, 1.071883e-002
1.697051e+003, 1.075024e-002
1.698979e+003, 1.031665e-002
1.700908e+003, 9.791279e-003
1.702836e+003, 1.145716e-002
1.704765e+003, 1.161144e-002
1.706693e+003, 1.172274e-002
1.708621e+003, 1.194231e-002
1.710550e+003, 1.213999e-002
1.712478e+003, 1.174948e-002
1.714407e+003, 1.074911e-002
1.716335e+003, 9.319473e-003
1.718264e+003, 9.381075e-003
1.720192e+003, 1.084482e-002
1.722121e+003, 1.131649e-002
1.724049e+003, 1.117578e-002
1.725978e+003, 1.130775e-002
1.727906e+003, 1.130027e-002
1.729835e+003, 1.088807e-002
1.731763e+003, 9.662957e-003
1.733692e+003, 7.937879e-003
1.735620e+003, 8.763846e-003
1.737548e+003, 9.853371e-003
1.739477e+003, 9.255171e-003
1.741405e+003, 9.299542e-003
1.743334e+003, 9.351769e-003
1.745262e+003, 9.381725e-003
1.747191e+003, 9.187973e-003
1.749119e+003, 8.924853e-003
1.751048e+003, 8.748976e-003
1.752976e+003, 9.625905e-003
1.754905e+003, 1.020118e-002
1.756833e+003, 1.016213e-002
1.758762e+003, 1.036459e-002
1.760690e+003, 1.005829e-002
1.762619e+003, 1.003385e-002
1.764547e+003, 1.050335e-002
1.766475e+003, 1.024774e-002
1.768404e+003, 1.003871e-002
1.770332e+003, 9.763863e-003
1.772261e+003, 9.217632e-003
1.774189e+003, 9.910832e-003
1.776118e+003, 1.056584e-002
1.778046e+003, 1.067115e-002
1.779975e+003, 1.050527e-002
1.781903e+003, 1.048697e-002
1.783832e+003, 1.052259e-002
1.785760e+003, 1.070648e-002
1.787689e+003, 1.092352e-002
1.789617e+003, 1.036848e-002
1.791546e+003, 9.642000e-003
1.793474e+003, 9.888207e-003
1.795402e+003, 1.068451e-002
1.797331e+003, 1.071966e-002
1.799259e+003, 1.042867e-002
1.801188e+003, 1.035390e-002
1.803116e+003, 1.056334e-002
1.805045e+003, 1.057410e-002
1.806973e+003, 1.053680e-002
1.808902e+003, 1.038424e-002
1.810830e+003, 1.037453e-002
1.812759e+003, 1.041005e-002
1.814687e+003, 1.040522e-002
1.816616e+003, 1.021473e-002
1.818544e+003, 1.040854e-002
1.820473e+003, 1.050247e-002
1.822401e+003, 1.044043e-002
1.824329e+003, 1.018393e-002
1.826258e+003, 1.019133e-002
1.828186e+003, 1.012436e-002
1.830115e+003, 9.838216e-003
1.832043e+003, 1.004184e-002
1.833972e+003, 1.023606e-002
1.835900e+003, 1.020383e-002
1.837829e+003, 1.033601e-002
1.839757e+003, 1.043505e-002
1.841686e+003, 1.009565e-002
1.843614e+003, 9.302744e-003
1.845543e+003, 9.637649e-003
1.847471e+003, 1.025282e-002
1.849400e+003, 1.040865e-002
1.851328e+003, 1.057247e-002
1.853256e+003, 1.064229e-002
1.855185e+003, 1.054979e-002
1.857113e+003, 1.069270e-002
1.859042e+003, 1.066718e-002
1.860970e+003, 1.062659e-002
1.862899e+003, 1.057420e-002
1.864827e+003, 1.043462e-002
1.866756e+003, 1.018532e-002
1.868684e+003, 1.000062e-002
1.870613e+003, 1.030292e-002
1.872541e+003, 1.035836e-002
1.874470e+003, 9.976114e-003
1.876398e+003, 1.001726e-002
1.878327e+003, 1.022384e-002
1.880255e+003, 1.020200e-002
1.882183e+003, 1.008306e-002
1.884112e+003, 9.983841e-003
1.886040e+003, 9.985985e-003
1.887969e+003, 9.691690e-003
1.889897e+003, 9.602382e-003
1.891826e+003, 9.852783e-003
1.893754e+003, 9.883982e-003
1.895683e+003, 9.798832e-003
1.897611e+003, 9.700671e-003
1.899540e+003, 9.672887e-003
1.901468e+003, 9.625047e-003
1.903397e+003, 9.461745e-003
1.905325e+003, 9.514629e-003
1.907254e+003, 9.638220e-003
1.909182e+003, 9.920498e-003
1.911110e+003, 1.001790e-002
1.913039e+003, 9.815193e-003
1.914967e+003, 9.603254e-003
1.916896e+003, 8.840010e-003
1.918824e+003, 8.877302e-003
1.920753e+003, 9.480672e-003
1.922681e+003, 9.422451e-003
1.924610e+003, 9.173183e-003
1.926538e+003, 9.364774e-003
1.928467e+003, 9.572803e-003
1.930395e+003, 9.569727e-003
1.932324e+003, 9.676999e-003
1.934252e+003, 9.995382e-003
1.936181e+003, 9.605899e-003
1.938109e+003, 9.519282e-003
1.940037e+003, 9.167062e-003
1.941966e+003, 8.612826e-003
1.943894e+003, 9.405495e-003
1.945823e+003, 1.012948e-002
1.947751e+003, 9.445391e-003
1.949680e+003, 8.771510e-003
1.951608e+003, 8.310771e-003
1.953537e+003, 8.093746e-003
1.955465e+003, 7.692895e-003
1.957394e+003, 8.700568e-003
1.959322e+003, 9.804396e-003
1.961251e+003, 9.920071e-003
1.963179e+003, 9.658159e-003
1.965108e+003, 9.211915e-003
1.967036e+003, 8.555879e-003
1.968964e+003, 7.980937e-003
1.970893e+003, 8.669499e-003
1.972821e+003, 9.667628e-003
1.974750e+003, 9.305863e-003
1.976678e+003, 9.513258e-003
1.978607e+003, 1.140850e-002
1.980535e+003, 1.175153e-002
1.982464e+003, 1.056166e-002
1.984392e+003, 1.035848e-002
1.986321e+003, 1.096772e-002
1.988249e+003, 1.025331e-002
1.990178e+003, 9.097013e-003
1.992106e+003, 9.747038e-003
1.994035e+003, 1.064340e-002
1.995963e+003, 1.082466e-002
1.997891e+003, 1.127261e-002
1.999820e+003, 1.158668e-002
2.001748e+003, 1.040803e-002
2.003677e+003, 9.595419e-003
2.005605e+003, 1.019270e-002
2.007534e+003, 1.160361e-002
2.009462e+003, 1.159871e-002
2.011391e+003, 1.200281e-002
2.013319e+003, 1.271205e-002
2.015248e+003, 1.274185e-002
2.017176e+003, 1.243673e-002
2.019105e+003, 1.214631e-002
2.021033e+003, 1.167891e-002
2.022962e+003, 1.174123e-002
2.024890e+003, 1.163492e-002
2.026818e+003, 1.209374e-002
2.028747e+003, 1.339386e-002
2.030675e+003, 1.397809e-002
2.032604e+003, 1.368634e-002
2.034532e+003, 1.435511e-002
2.036461e+003, 1.399126e-002
2.038389e+003, 1.351197e-002
2.040318e+003, 1.383565e-002
2.042246e+003, 1.420505e-002
2.044175e+003, 1.406729e-002
2.046103e+003, 1.410980e-002
2.048031e+003, 1.422648e-002
2.049960e+003, 1.435001e-002
2.051888e+003, 1.420096e-002
2.053817e+003, 1.394765e-002
2.055745e+003, 1.393519e-002
2.057674e+003, 1.392099e-002
2.059602e+003, 1.347546e-002
2.061531e+003, 1.330224e-002
2.063459e+003, 1.303112e-002
2.065388e+003, 1.307198e-002
2.067316e+003, 1.304136e-002
2.069245e+003, 1.278678e-002
2.071173e+003, 1.321016e-002
2.073102e+003, 1.363765e-002
2.075030e+003, 1.404328e-002
2.076958e+003, 1.383012e-002
2.078887e+003, 1.325324e-002
2.080815e+003, 1.321184e-002
2.082744e+003, 1.293421e-002
2.084672e+003, 1.329336e-002
2.086601e+003, 1.374033e-002
2.088529e+003, 1.343014e-002
2.090458e+003, 1.333292e-002
2.092386e+003, 1.353377e-002
2.094315e+003, 1.345014e-002
2.096243e+003, 1.349491e-002
2.098172e+003, 1.337678e-002
2.100100e+003, 1.358476e-002
2.102029e+003, 1.350423e-002
2.103957e+003, 1.385496e-002
2.105885e+003, 1.439937e-002
2.107814e+003, 1.426538e-002
2.109742e+003, 1.386069e-002
2.111671e+003, 1.374762e-002
2.113599e+003, 1.348213e-002
2.115528e+003, 1.351161e-002
2.117456e+003, 1.310783e-002
2.119385e+003, 1.270764e-002
2.121313e+003, 1.270024e-002
2.123242e+003, 1.270261e-002
2.125170e+003, 1.267699e-002
2.127099e+003, 1.288975e-002
2.129027e+003, 1.249501e-002
2.130956e+003, 1.211317e-002
2.132884e+003, 1.196696e-002
2.134813e+003, 1.236421e-002
2.136741e+003, 1.295399e-002
2.138669e+003, 1.315495e-002
2.140598e+003, 1.258422e-002
2.142526e+003, 1.185773e-002
2.144455e+003, 1.211584e-002
2.146383e+003, 1.261824e-002
2.148312e+003, 1.356180e-002
2.150240e+003, 1.409062e-002
2.152169e+003, 1.368359e-002
2.154097e+003, 1.405939e-002
2.156026e+003, 1.376116e-002
2.157954e+003, 1.362976e-002
2.159883e+003, 1.561949e-002
2.161811e+003, 1.642285e-002
2.163740e+003, 1.674494e-002
2.165668e+003, 1.702834e-002
2.167596e+003, 1.672352e-002
2.169525e+003, 1.586078e-002
2.171453e+003, 1.525785e-002
2.173382e+003, 1.524593e-002
2.175310e+003, 1.475735e-002
2.177239e+003, 1.465400e-002
2.179167e+003, 1.493996e-002
2.181096e+003, 1.503290e-002
2.183024e+003, 1.504872e-002
2.184953e+003, 1.504922e-002
2.186881e+003, 1.480398e-002
2.188810e+003, 1.497853e-002
2.190738e+003, 1.466448e-002
2.192667e+003, 1.458332e-002
2.194595e+003, 1.472770e-002
2.196523e+003, 1.561589e-002
2.198452e+003, 1.581061e-002
2.200380e+003, 1.524064e-002
2.202309e+003, 1.474693e-002
2.204237e+003, 1.501461e-002
2.206166e+003, 1.516641e-002
2.208094e+003, 1.506558e-002
2.210023e+003, 1.534921e-002
2.211951e+003, 1.599347e-002
2.213880e+003, 1.553530e-002
2.215808e+003, 1.487077e-002
2.217737e+003, 1.566418e-002
2.219665e+003, 1.648814e-002
2.221594e+003, 1.604452e-002
2.223522e+003, 1.558701e-002
2.225450e+003, 1.610739e-002
2.227379e+003, 1.662517e-002
2.229307e+003, 1.691440e-002
2.231236e+003, 1.620916e-002
2.233164e+003, 1.584504e-002
2.235093e+003, 1.643344e-002
2.237021e+003, 1.638963e-002
2.238950e+003, 1.638799e-002
2.240878e+003, 1.674235e-002
2.242807e+003, 1.703913e-002
2.244735e+003, 1.701522e-002
2.246664e+003, 1.728704e-002
2.248592e+003, 1.748554e-002
2.250521e+003, 1.712741e-002
2.252449e+003, 1.669597e-002
2.254377e+003, 1.709370e-002
2.256306e+003, 1.750568e-002
2.258234e+003, 1.710609e-002
2.260163e+003, 1.749884e-002
2.262091e+003, 1.788350e-002
2.264020e+003, 1.738420e-002
2.265948e+003, 1.744220e-002
2.267877e+003, 1.795937e-002
2.269805e+003, 1.837707e-002
2.271734e+003, 1.846413e-002
2.273662e+003, 1.852075e-002
2.275591e+003, 1.894562e-002
2.277519e+003, 1.921367e-002
2.279448e+003, 1.899478e-002
2.281376e+003, 1.897100e-002
2.283304e+003, 1.873540e-002
2.285233e+003, 1.872550e-002
2.287161e+003, 1.896266e-002
2.289090e+003, 1.859653e-002
2.291018e+003, 1.841791e-002
2.292947e+003, 1.816019e-002
2.294875e+003, 1.775912e-002
2.296804e+003, 1.769920e-002
2.298732e+003, 1.774030e-002
2.300661e+003, 1.819314e-002
2.302589e+003, 1.838593e-002
2.304518e+003, 1.807695e-002
2.306446e+003, 1.777318e-002
2.308375e+003, 1.783597e-002
2.310303e+003, 1.784174e-002
2.312231e+003, 1.805161e-002
2.314160e+003, 1.817343e-002
2.316088e+003, 1.816887e-002
2.318017e+003, 1.839746e-002
2.319945e+003, 1.863303e-002
2.321874e+003, 1.857711e-002
2.323802e+003, 1.854797e-002
2.325731e+003, 1.793246e-002
2.327659e+003, 1.722218e-002
2.329588e+003, 1.718529e-002
2.331516e+003, 1.716623e-002
2.333445e+003, 1.733210e-002
2.335373e+003, 1.746294e-002
2.337302e+003, 1.717298e-002
2.339230e+003, 1.686421e-002
2.341158e+003, 1.699275e-002
2.343087e+003, 1.732613e-002
2.345015e+003, 1.707870e-002
2.346944e+003, 1.705276e-002
2.348872e+003, 1.707698e-002
2.350801e+003, 1.712864e-002
2.352729e+003, 1.690597e-002
2.354658e+003, 1.659847e-002
2.356586e+003, 1.688042e-002
2.358515e+003, 1.715912e-002
2.360443e+003, 1.721156e-002
2.362372e+003, 1.708782e-002
2.364300e+003, 1.686456e-002
2.366229e+003, 1.678616e-002
2.368157e+003, 1.681626e-002
2.370085e+003, 1.681744e-002
2.372014e+003, 1.709781e-002
2.373942e+003, 1.716916e-002
2.375871e+003, 1.708037e-002
2.377799e+003, 1.682898e-002
2.379728e+003, 1.676606e-002
2.381656e+003, 1.709892e-002
2.383585e+003, 1.711942e-002
2.385513e+003, 1.722704e-002
2.387442e+003, 1.764202e-002
2.389370e+003, 1.765224e-002
2.391299e+003, 1.722020e-002
2.393227e+003, 1.722537e-002
2.395156e+003, 1.716641e-002
2.397084e+003, 1.706550e-002
2.399012e+003, 1.744192e-002
2.400941e+003, 1.769575e-002
2.402869e+003, 1.722146e-002
2.404798e+003, 1.702273e-002
2.406726e+003, 1.736695e-002
2.408655e+003, 1.773027e-002
2.410583e+003, 1.778901e-002
2.412512e+003, 1.766432e-002
2.414440e+003, 1.774136e-002
2.416369e+003, 1.790920e-002
2.418297e+003, 1.779273e-002
2.420226e+003, 1.753059e-002
2.422154e+003, 1.743508e-002
2.424083e+003, 1.777771e-002
2.426011e+003, 1.809525e-002
2.427939e+003, 1.790947e-002
2.429868e+003, 1.800932e-002
2.431796e+003, 1.835577e-002
2.433725e+003, 1.805747e-002
2.435653e+003, 1.791796e-002
2.437582e+003, 1.837896e-002
2.439510e+003, 1.870016e-002
2.441439e+003, 1.848552e-002
2.443367e+003, 1.829709e-002
2.445296e+003, 1.818815e-002
2.447224e+003, 1.807038e-002
2.449153e+003, 1.781543e-002
2.451081e+003, 1.783821e-002
2.453010e+003, 1.811355e-002
2.454938e+003, 1.802347e-002
2.456866e+003, 1.796090e-002
2.458795e+003, 1.787195e-002
2.460723e+003, 1.784751e-002
2.462652e+003, 1.799047e-002
2.464580e+003, 1.783890e-002
2.466509e+003, 1.804792e-002
2.468437e+003, 1.824695e-002
2.470366e+003, 1.832267e-002
2.472294e+003, 1.822549e-002
2.474223e+003, 1.828559e-002
2.476151e+003, 1.802977e-002
2.478080e+003, 1.805500e-002
2.480008e+003, 1.837444e-002
2.481937e+003, 1.815873e-002
2.483865e+003, 1.749573e-002
2.485793e+003, 1.767038e-002
2.487722e+003, 1.829708e-002
2.489650e+003, 1.846131e-002
2.491579e+003, 1.812853e-002
2.493507e+003, 1.820534e-002
2.495436e+003, 1.840223e-002
2.497364e+003, 1.793711e-002
2.499293e+003, 1.794626e-002
2.501221e+003, 1.811760e-002
2.503150e+003, 1.805604e-002
2.505078e+003, 1.778956e-002
2.507007e+003, 1.746813e-002
2.508935e+003, 1.790773e-002
2.510864e+003, 1.817187e-002
2.512792e+003, 1.804964e-002
2.514720e+003, 1.793334e-002
2.516649e+003, 1.826466e-002
2.518577e+003, 1.868368e-002
2.520506e+003, 1.859054e-002
2.522434e+003, 1.845977e-002
2.524363e+003, 1.885699e-002
2.526291e+003, 1.912034e-002
2.528220e+003, 1.925370e-002
2.530148e+003, 1.903449e-002
2.532077e+003, 1.831082e-002
2.534005e+003, 1.806820e-002
2.535934e+003, 1.855200e-002
2.537862e+003, 1.890148e-002
2.539791e+003, 1.875563e-002
2.541719e+003, 1.895501e-002
2.543647e+003, 1.904408e-002
2.545576e+003, 1.873861e-002
2.547504e+003, 1.883817e-002
2.549433e+003, 1.881489e-002
2.551361e+003, 1.904481e-002
2.553290e+003, 1.928128e-002
2.555218e+003, 1.919017e-002
2.557147e+003, 1.895324e-002
2.559075e+003, 1.893539e-002
2.561004e+003, 1.891964e-002
2.562932e+003, 1.910554e-002
2.564861e+003, 1.935909e-002
2.566789e+003, 1.941096e-002
2.568718e+003, 1.944558e-002
2.570646e+003, 1.968260e-002
2.572574e+003, 1.942702e-002
2.574503e+003, 1.957648e-002
2.576431e+003, 1.986789e-002
2.578360e+003, 1.955074e-002
2.580288e+003, 1.972381e-002
2.582217e+003, 1.981999e-002
2.584145e+003, 1.962071e-002
2.586074e+003, 1.955202e-002
2.588002e+003, 1.993908e-002
2.589931e+003, 2.030533e-002
2.591859e+003, 2.034505e-002
2.593788e+003, 2.008082e-002
2.595716e+003, 1.980200e-002
2.597645e+003, 1.987287e-002
2.599573e+003, 2.038296e-002
2.601501e+003, 2.044768e-002
2.603430e+003, 2.041464e-002
2.605358e+003, 2.052068e-002
2.607287e+003, 2.019031e-002
2.609215e+003, 2.031695e-002
2.611144e+003, 2.073433e-002
2.613072e+003, 2.093317e-002
2.615001e+003, 2.072228e-002
2.616929e+003, 2.049399e-002
2.618858e+003, 2.059518e-002
2.620786e+003, 2.067376e-002
2.622715e+003, 2.055733e-002
2.624643e+003, 2.072175e-002
2.626572e+003, 2.095407e-002
2.628500e+003, 2.096229e-002
2.630428e+003, 2.093161e-002
2.632357e+003, 2.099984e-002
2.634285e+003, 2.098262e-002
2.636214e+003, 2.115112e-002
2.638142e+003, 2.130401e-002
2.640071e+003, 2.139910e-002
2.641999e+003, 2.111166e-002
2.643928e+003, 2.110844e-002
2.645856e+003, 2.136130e-002
2.647785e+003, 2.154243e-002
2.649713e+003, 2.150681e-002
2.651642e+003, 2.118917e-002
2.653570e+003, 2.104083e-002
2.655499e+003, 2.111143e-002
2.657427e+003, 2.093338e-002
2.659355e+003, 2.106282e-002
2.661284e+003, 2.135194e-002
2.663212e+003, 2.106315e-002
2.665141e+003, 2.071283e-002
2.667069e+003, 2.091391e-002
2.668998e+003, 2.127027e-002
2.670926e+003, 2.128621e-002
2.672855e+003, 2.137990e-002
2.674783e+003, 2.128378e-002
2.676712e+003, 2.103633e-002
2.678640e+003, 2.114712e-002
2.680569e+003, 2.130872e-002
2.682497e+003, 2.143007e-002
2.684426e+003, 2.135936e-002
2.686354e+003, 2.103457e-002
2.688282e+003, 2.093471e-002
2.690211e+003, 2.109242e-002
2.692139e+003, 2.116995e-002
2.694068e+003, 2.126887e-002
2.695996e+003, 2.142429e-002
2.697925e+003, 2.155865e-002
2.699853e+003, 2.155131e-002
2.701782e+003, 2.154219e-002
2.703710e+003, 2.159976e-002
2.705639e+003, 2.163070e-002
2.707567e+003, 2.155597e-002
2.709496e+003, 2.148476e-002
2.711424e+003, 2.154290e-002
2.713353e+003, 2.185302e-002
2.715281e+003, 2.196959e-002
2.717209e+003, 2.185645e-002
2.719138e+003, 2.187033e-002
2.721066e+003, 2.195614e-002
2.722995e+003, 2.178772e-002
2.724923e+003, 2.171132e-002
2.726852e+003, 2.187441e-002
2.728780e+003, 2.209033e-002
2.730709e+003, 2.197343e-002
2.732637e+003, 2.181448e-002
2.734566e+003, 2.176180e-002
2.736494e+003, 2.190129e-002
2.738423e+003, 2.205807e-002
2.740351e+003, 2.197394e-002
2.742280e+003, 2.205043e-002
2.744208e+003, 2.234998e-002
2.746136e+003, 2.244711e-002
2.748065e+003, 2.227541e-002
2.749993e+003, 2.210393e-002
2.751922e+003, 2.219359e-002
2.753850e+003, 2.240448e-002
2.755779e+003, 2.248737e-002
2.757707e+003, 2.252930e-002
2.759636e+003, 2.264552e-002
2.761564e+003, 2.275687e-002
2.763493e+003, 2.271791e-002
2.765421e+003, 2.264754e-002
2.767350e+003, 2.270316e-002
2.769278e+003, 2.287714e-002
2.771207e+003, 2.298940e-002
2.773135e+003, 2.295785e-002
2.775063e+003, 2.283254e-002
2.776992e+003, 2.279264e-002
2.778920e+003, 2.263173e-002
2.780849e+003, 2.268436e-002
2.782777e+003, 2.277266e-002
2.784706e+003, 2.267519e-002
2.786634e+003, 2.271331e-002
2.788563e+003, 2.309006e-002
2.790491e+003, 2.312548e-002
2.792420e+003, 2.274615e-002
2.794348e+003, 2.258454e-002
2.796277e+003, 2.265434e-002
2.798205e+003, 2.256552e-002
2.800134e+003, 2.274019e-002
2.802062e+003, 2.310641e-002
2.803990e+003, 2.323766e-002
2.805919e+003, 2.296840e-002
2.807847e+003, 2.292543e-002
2.809776e+003, 2.317659e-002
2.811704e+003, 2.334948e-002
2.813633e+003, 2.328505e-002
2.815561e+003, 2.328698e-002
2.817490e+003, 2.339631e-002
2.819418e+003, 2.343968e-002
2.821347e+003, 2.327052e-002
2.823275e+003, 2.329591e-002
2.825204e+003, 2.372855e-002
2.827132e+003, 2.388899e-002
2.829061e+003, 2.400472e-002
2.830989e+003, 2.393637e-002
2.832917e+003, 2.365988e-002
2.834846e+003, 2.377618e-002
2.836774e+003, 2.395080e-002
2.838703e+003, 2.402706e-002
2.840631e+003, 2.402603e-002
2.842560e+003, 2.367473e-002
2.844488e+003, 2.308217e-002
2.846417e+003, 2.250120e-002
2.848345e+003, 2.190769e-002
2.850274e+003, 2.131779e-002
2.852202e+003, 2.161870e-002
2.854131e+003, 2.245725e-002
2.856059e+003, 2.314177e-002
2.857988e+003, 2.340790e-002
2.859916e+003, 2.363087e-002
2.861844e+003, 2.376388e-002
2.863773e+003, 2.416734e-002
2.865701e+003, 2.461869e-002
2.867630e+003, 2.451728e-002
2.869558e+003, 2.432506e-002
2.871487e+003, 2.428672e-002
2.873415e+003, 2.437336e-002
2.875344e+003, 2.455141e-002
2.877272e+003, 2.449704e-002
2.879201e+003, 2.438683e-002
2.881129e+003, 2.437459e-002
2.883058e+003, 2.431205e-002
2.884986e+003, 2.419151e-002
2.886915e+003, 2.411167e-002
2.888843e+003, 2.417289e-002
2.890771e+003, 2.442930e-002
2.892700e+003, 2.442109e-002
2.894628e+003, 2.423854e-002
2.896557e+003, 2.432322e-002
2.898485e+003, 2.452950e-002
2.900414e+003, 2.466689e-002
2.902342e+003, 2.454839e-002
2.904271e+003, 2.454100e-002
2.906199e+003, 2.447093e-002
2.908128e+003, 2.421806e-002
2.910056e+003, 2.384550e-002
2.911985e+003, 2.344187e-002
2.913913e+003, 2.296105e-002
2.915842e+003, 2.222331e-002
2.917770e+003, 2.197777e-002
2.919698e+003, 2.209391e-002
2.921627e+003, 2.270571e-002
2.923555e+003, 2.366385e-002
2.925484e+003, 2.438093e-002
2.927412e+003, 2.461745e-002
2.929341e+003, 2.496020e-002
2.931269e+003, 2.518320e-002
2.933198e+003, 2.506767e-002
2.935126e+003, 2.487405e-002
2.937055e+003, 2.507431e-002
2.938983e+003, 2.525093e-002
2.940912e+003, 2.545153e-002
2.942840e+003, 2.539017e-002
2.944769e+003, 2.541850e-002
2.946697e+003, 2.589169e-002
2.948625e+003, 2.587388e-002
2.950554e+003, 2.592795e-002
2.952482e+003, 2.638115e-002
2.954411e+003, 2.663177e-002
2.956339e+003, 2.664588e-002
2.958268e+003, 2.633251e-002
2.960196e+003, 2.605202e-002
2.962125e+003, 2.648344e-002
2.964053e+003, 2.711790e-002
2.965982e+003, 2.689475e-002
2.967910e+003, 2.628798e-002
2.969839e+003, 2.596189e-002
2.971767e+003, 2.599336e-002
2.973696e+003, 2.603821e-002
2.975624e+003, 2.607436e-002
2.977552e+003, 2.611948e-002
2.979481e+003, 2.598646e-002
2.981409e+003, 2.631368e-002
2.983338e+003, 2.650022e-002
2.985266e+003, 2.649297e-002
2.987195e+003, 2.648405e-002
2.989123e+003, 2.637061e-002
2.991052e+003, 2.624882e-002
2.992980e+003, 2.634816e-002
2.994909e+003, 2.631790e-002
2.996837e+003, 2.624187e-002
2.998766e+003, 2.627077e-002
3.000694e+003, 2.620177e-002
3.002623e+003, 2.628373e-002
3.004551e+003, 2.677338e-002
3.006479e+003, 2.708255e-002
3.008408e+003, 2.704663e-002
3.010336e+003, 2.692371e-002
3.012265e+003, 2.703250e-002
3.014193e+003, 2.741244e-002
3.016122e+003, 2.737820e-002
3.018050e+003, 2.723228e-002
3.019979e+003, 2.696871e-002
3.021907e+003, 2.706722e-002
3.023836e+003, 2.699945e-002
3.025764e+003, 2.687684e-002
3.027693e+003, 2.701575e-002
3.029621e+003, 2.713169e-002
3.031550e+003, 2.727092e-002
3.033478e+003, 2.751665e-002
3.035406e+003, 2.765065e-002
3.037335e+003, 2.775787e-002
3.039263e+003, 2.778532e-002
3.041192e+003, 2.769843e-002
3.043120e+003, 2.785692e-002
3.045049e+003, 2.794541e-002
3.046977e+003, 2.812845e-002
3.048906e+003, 2.803404e-002
3.050834e+003, 2.789571e-002
3.052763e+003, 2.817384e-002
3.054691e+003, 2.846702e-002
3.056620e+003, 2.867140e-002
3.058548e+003, 2.871304e-002
3.060477e+003, 2.872166e-002
3.062405e+003, 2.866972e-002
3.064333e+003, 2.867526e-002
3.066262e+003, 2.868122e-002
3.068190e+003, 2.890229e-002
3.070119e+003, 2.875928e-002
3.072047e+003, 2.865976e-002
3.073976e+003, 2.899284e-002
3.075904e+003, 2.945265e-002
3.077833e+003, 2.946052e-002
3.079761e+003, 2.902753e-002
3.081690e+003, 2.920822e-002
3.083618e+003, 2.936294e-002
3.085547e+003, 2.907780e-002
3.087475e+003, 2.926811e-002
3.089404e+003, 2.970655e-002
3.091332e+003, 2.976548e-002
3.093260e+003, 2.987327e-002
3.095189e+003, 3.012800e-002
3.097117e+003, 2.996927e-002
3.099046e+003, 3.017677e-002
3.100974e+003, 3.022702e-002
3.102903e+003, 3.004978e-002
3.104831e+003, 2.996164e-002
3.106760e+003, 3.021471e-002
3.108688e+003, 3.030177e-002
3.110617e+003, 3.023967e-002
3.112545e+003, 3.034884e-002
3.114474e+003, 3.039124e-002
3.116402e+003, 3.050218e-002
3.118331e+003, 3.076748e-002
3.120259e+003, 3.059546e-002
3.122188e+003, 3.036536e-002
3.124116e+003, 3.050708e-002
3.126044e+003, 3.093565e-002
3.127973e+003, 3.098469e-002
3.129901e+003, 3.106579e-002
3.131830e+003, 3.101057e-002
3.133758e+003, 3.095972e-002
3.135687e+003, 3.088625e-002
3.137615e+003, 3.138041e-002
3.139544e+003, 3.178205e-002
3.141472e+003, 3.149993e-002
3.143401e+003, 3.156899e-002
3.145329e+003, 3.158650e-002
3.147258e+003, 3.142002e-002
3.149186e+003, 3.117211e-002
3.151115e+003, 3.154271e-002
3.153043e+003, 3.182850e-002
3.154971e+003, 3.150730e-002
3.156900e+003, 3.161618e-002
3.158828e+003, 3.236362e-002
3.160757e+003, 3.281100e-002
3.162685e+003, 3.279641e-002
3.164614e+003, 3.279037e-002
3.166542e+003, 3.283693e-002
3.168471e+003, 3.247903e-002
3.170399e+003, 3.213868e-002
3.172328e+003, 3.225577e-002
3.174256e+003, 3.249421e-002
3.176185e+003, 3.252274e-002
3.178113e+003, 3.275938e-002
3.180042e+003, 3.255134e-002
3.181970e+003, 3.278855e-002
3.183898e+003, 3.322248e-002
3.185827e+003, 3.336960e-002
3.187755e+003, 3.356103e-002
3.189684e+003, 3.347442e-002
3.191612e+003, 3.315188e-002
3.193541e+003, 3.285434e-002
3.195469e+003, 3.250603e-002
3.197398e+003, 3.277417e-002
3.199326e+003, 3.354201e-002
3.201255e+003, 3.390545e-002
3.203183e+003, 3.376359e-002
3.205112e+003, 3.335372e-002
3.207040e+003, 3.320591e-002
3.208969e+003, 3.350483e-002
3.210897e+003, 3.380074e-002
3.212825e+003, 3.342646e-002
3.214754e+003, 3.301670e-002
3.216682e+003, 3.345120e-002
3.218611e+003, 3.391976e-002
3.220539e+003, 3.395294e-002
3.222468e+003, 3.365371e-002
3.224396e+003, 3.361415e-002
3.226325e+003, 3.376396e-002
3.228253e+003, 3.436734e-002
3.230182e+003, 3.457594e-002
3.232110e+003, 3.459291e-002
3.234039e+003, 3.464017e-002
3.235967e+003, 3.419656e-002
3.237896e+003, 3.410443e-002
3.239824e+003, 3.422390e-002
3.241752e+003, 3.452509e-002
3.243681e+003, 3.443975e-002
3.245609e+003, 3.453159e-002
3.247538e+003, 3.470444e-002
3.249466e+003, 3.468153e-002
3.251395e+003, 3.433852e-002
3.253323e+003, 3.427214e-002
3.255252e+003, 3.428244e-002
3.257180e+003, 3.456190e-002
3.259109e+003, 3.474677e-002
3.261037e+003, 3.453020e-002
3.262966e+003, 3.475453e-002
3.264894e+003, 3.483677e-002
3.266823e+003, 3.540685e-002
3.268751e+003, 3.593691e-002
3.270679e+003, 3.583137e-002
3.272608e+003, 3.529642e-002
3.274536e+003, 3.522285e-002
3.276465e+003, 3.544165e-002
3.278393e+003, 3.584525e-002
3.280322e+003, 3.564027e-002
3.282250e+003, 3.504266e-002
3.284179e+003, 3.516491e-002
3.286107e+003, 3.569682e-002
3.288036e+003, 3.614315e-002
3.289964e+003, 3.619012e-002
3.291893e+003, 3.578534e-002
3.293821e+003, 3.572929e-002
3.295750e+003, 3.579795e-002
3.297678e+003, 3.580350e-002
3.299606e+003, 3.598031e-002
3.301535e+003, 3.587701e-002
3.303463e+003, 3.623430e-002
3.305392e+003, 3.633065e-002
3.307320e+003, 3.582624e-002
3.309249e+003, 3.585595e-002
3.311177e+003, 3.638215e-002
3.313106e+003, 3.677487e-002
3.315034e+003, 3.694689e-002
3.316963e+003, 3.647138e-002
3.318891e+003, 3.627994e-002
3.320820e+003, 3.632998e-002
3.322748e+003, 3.664787e-002
3.324677e+003, 3.679474e-002
3.326605e+003, 3.655780e-002
3.328533e+003, 3.659739e-002
3.330462e+003, 3.653502e-002
3.332390e+003, 3.623025e-002
3.334319e+003, 3.604582e-002
3.336247e+003, 3.660818e-002
3.338176e+003, 3.678811e-002
3.340104e+003, 3.637723e-002
3.342033e+003, 3.661552e-002
3.343961e+003, 3.704481e-002
3.345890e+003, 3.707852e-002
3.347818e+003, 3.700586e-002
3.349747e+003, 3.705671e-002
3.351675e+003, 3.701182e-002
3.353604e+003, 3.691281e-002
3.355532e+003, 3.702465e-002
3.357460e+003, 3.713283e-002
3.359389e+003, 3.759215e-002
3.361317e+003, 3.745999e-002
3.363246e+003, 3.736092e-002
3.365174e+003, 3.766108e-002
3.367103e+003, 3.734426e-002
3.369031e+003, 3.740912e-002
3.370960e+003, 3.767034e-002
3.372888e+003, 3.750252e-002
3.374817e+003, 3.739544e-002
3.376745e+003, 3.744418e-002
3.378674e+003, 3.741154e-002
3.380602e+003, 3.747650e-002
3.382531e+003, 3.766651e-002
3.384459e+003, 3.723021e-002
3.386387e+003, 3.730846e-002
3.388316e+003, 3.766374e-002
3.390244e+003, 3.788785e-002
3.392173e+003, 3.792769e-002
3.394101e+003, 3.823642e-002
3.396030e+003, 3.835384e-002
3.397958e+003, 3.779493e-002
3.399887e+003, 3.777218e-002
3.401815e+003, 3.785450e-002
3.403744e+003, 3.770131e-002
3.405672e+003, 3.782438e-002
3.407601e+003, 3.771277e-002
3.409529e+003, 3.740453e-002
3.411458e+003, 3.747502e-002
3.413386e+003, 3.763431e-002
3.415314e+003, 3.733787e-002
3.417243e+003, 3.772806e-002
3.419171e+003, 3.784773e-002
3.421100e+003, 3.790438e-002
3.423028e+003, 3.816179e-002
3.424957e+003, 3.806994e-002
3.426885e+003, 3.817824e-002
3.428814e+003, 3.840506e-002
3.430742e+003, 3.835406e-002
3.432671e+003, 3.865008e-002
3.434599e+003, 3.823641e-002
3.436528e+003, 3.802445e-002
3.438456e+003, 3.830893e-002
3.440385e+003, 3.851974e-002
3.442313e+003, 3.858400e-002
3.444241e+003, 3.822162e-002
3.446170e+003, 3.800862e-002
3.448098e+003, 3.767538e-002
3.450027e+003, 3.759127e-002
3.451955e+003, 3.799319e-002
3.453884e+003, 3.768869e-002
3.455812e+003, 3.736159e-002
3.457741e+003, 3.782219e-002
3.459669e+003, 3.785311e-002
3.461598e+003, 3.747948e-002
3.463526e+003, 3.790322e-002
3.465455e+003, 3.832161e-002
3.467383e+003, 3.834265e-002
3.469312e+003, 3.819698e-002
3.471240e+003, 3.763210e-002
3.473168e+003, 3.709074e-002
3.475097e+003, 3.722788e-002
3.477025e+003, 3.784067e-002
3.478954e+003, 3.799623e-002
3.480882e+003, 3.814569e-002
3.482811e+003, 3.855737e-002
3.484739e+003, 3.837531e-002
3.486668e+003, 3.801691e-002
3.488596e+003, 3.800872e-002
3.490525e+003, 3.799316e-002
3.492453e+003, 3.767561e-002
3.494382e+003, 3.708725e-002
3.496310e+003, 3.688463e-002
3.498239e+003, 3.727775e-002
3.500167e+003, 3.751269e-002
3.502095e+003, 3.751974e-002
3.504024e+003, 3.735163e-002
3.505952e+003, 3.753333e-002
3.507881e+003, 3.732320e-002
3.509809e+003, 3.726395e-002
3.511738e+003, 3.753847e-002
3.513666e+003, 3.755630e-002
3.515595e+003, 3.718341e-002
3.517523e+003, 3.662254e-002
3.519452e+003, 3.684574e-002
3.521380e+003, 3.713759e-002
3.523309e+003, 3.672722e-002
3.525237e+003, 3.656257e-002
3.527166e+003, 3.670449e-002
3.529094e+003, 3.649684e-002
3.531022e+003, 3.652705e-002
3.532951e+003, 3.666179e-002
3.534879e+003, 3.622804e-002
3.536808e+003, 3.619856e-002
3.538736e+003, 3.639688e-002
3.540665e+003, 3.647410e-002
3.542593e+003, 3.654595e-002
3.544522e+003, 3.632505e-002
3.546450e+003, 3.569112e-002
3.548379e+003, 3.576308e-002
3.550307e+003, 3.611009e-002
3.552236e+003, 3.566104e-002
3.554164e+003, 3.578581e-002
3.556093e+003, 3.648242e-002
3.558021e+003, 3.667623e-002
3.559949e+003, 3.657733e-002
3.561878e+003, 3.645137e-002
3.563806e+003, 3.568772e-002
3.565735e+003, 3.469779e-002
3.567663e+003, 3.471954e-002
3.569592e+003, 3.541428e-002
3.571520e+003, 3.605108e-002
3.573449e+003, 3.640439e-002
3.575377e+003, 3.641089e-002
3.577306e+003, 3.606165e-002
3.579234e+003, 3.582545e-002
3.581163e+003, 3.581326e-002
3.583091e+003, 3.613611e-002
3.585020e+003, 3.528358e-002
3.586948e+003, 3.356610e-002
3.588876e+003, 3.396044e-002
3.590805e+003, 3.535704e-002
3.592733e+003, 3.466867e-002
3.594662e+003, 3.463790e-002
3.596590e+003, 3.485261e-002
3.598519e+003, 3.450007e-002
3.600447e+003, 3.468608e-002
3.602376e+003, 3.484472e-002
3.604304e+003, 3.468540e-002
3.606233e+003, 3.420483e-002
3.608161e+003, 3.298407e-002
3.610090e+003, 3.295059e-002
3.612018e+003, 3.387210e-002
3.613947e+003, 3.372080e-002
3.615875e+003, 3.394000e-002
3.617803e+003, 3.318472e-002
3.619732e+003, 3.298361e-002
3.621660e+003, 3.492757e-002
3.623589e+003, 3.628525e-002
3.625517e+003, 3.547313e-002
3.627446e+003, 3.220975e-002
3.629374e+003, 3.089348e-002
3.631303e+003, 3.286651e-002
3.633231e+003, 3.340345e-002
3.635160e+003, 3.373043e-002
3.637088e+003, 3.487565e-002
3.639017e+003, 3.685015e-002
3.640945e+003, 3.998878e-002
3.642874e+003, 4.247630e-002
3.644802e+003, 4.055121e-002
3.646730e+003, 3.569794e-002
3.648659e+003, 3.083168e-002
3.650587e+003, 2.972871e-002
3.652516e+003, 3.242655e-002
3.654444e+003, 3.464780e-002
3.656373e+003, 3.818424e-002
3.658301e+003, 4.371686e-002
3.660230e+003, 4.605984e-002
3.662158e+003, 4.311366e-002
3.664087e+003, 3.704388e-002
3.666015e+003, 3.224706e-002
3.667944e+003, 2.972722e-002
3.669872e+003, 2.975779e-002
3.671801e+003, 3.479215e-002
3.673729e+003, 3.726747e-002
3.675657e+003, 3.240620e-002
3.677586e+003, 2.971986e-002
3.679514e+003, 2.865084e-002
3.681443e+003, 2.846625e-002
3.683371e+003, 2.864176e-002
3.685300e+003, 2.795026e-002
3.687228e+003, 2.486314e-002
3.689157e+003, 2.400023e-002
3.691085e+003, 2.610281e-002
3.693014e+003, 2.808391e-002
3.694942e+003, 2.847570e-002
3.696871e+003, 2.789265e-002
3.698799e+003, 2.807065e-002
3.700728e+003, 2.769636e-002
3.702656e+003, 2.767192e-002
3.704584e+003, 2.812616e-002
3.706513e+003, 2.832760e-002
3.708441e+003, 2.769327e-002
3.710370e+003, 2.574436e-002
3.712298e+003, 2.510866e-002
3.714227e+003, 2.752175e-002
3.716155e+003, 2.854429e-002
3.718084e+003, 2.882278e-002
3.720012e+003, 2.859278e-002
3.721941e+003, 2.774067e-002
3.723869e+003, 2.769954e-002
3.725798e+003, 2.760997e-002
3.727726e+003, 2.825668e-002
3.729655e+003, 2.868653e-002
3.731583e+003, 2.691839e-002
3.733511e+003, 2.575164e-002
3.735440e+003, 2.491280e-002
3.737368e+003, 2.638441e-002
3.739297e+003, 2.787724e-002
3.741225e+003, 2.707496e-002
3.743154e+003, 2.253391e-002
3.745082e+003, 2.213281e-002
3.747011e+003, 2.562123e-002
3.748939e+003, 2.336848e-002
3.750868e+003, 2.233899e-002
3.752796e+003, 2.470514e-002
3.754725e+003, 2.824986e-002
3.756653e+003, 2.862527e-002
3.758582e+003, 2.846969e-002
3.760510e+003, 2.858261e-002
3.762438e+003, 2.920905e-002
3.764367e+003, 2.861750e-002
3.766295e+003, 2.809524e-002
3.768224e+003, 2.764855e-002
3.770152e+003, 2.736408e-002
3.772081e+003, 2.840750e-002
3.774009e+003, 2.958489e-002
3.775938e+003, 2.935385e-002
3.777866e+003, 2.843749e-002
3.779795e+003, 2.816689e-002
3.781723e+003, 2.912144e-002
3.783652e+003, 2.914068e-002
3.785580e+003, 2.892390e-002
3.787509e+003, 2.927079e-002
3.789437e+003, 2.986332e-002
3.791365e+003, 3.009555e-002
3.793294e+003, 2.980322e-002
3.795222e+003, 2.842935e-002
3.797151e+003, 2.844359e-002
3.799079e+003, 2.772879e-002
3.801008e+003, 2.527240e-002
3.802936e+003, 2.711636e-002
3.804865e+003, 2.812869e-002
3.806793e+003, 2.673117e-002
3.808722e+003, 2.853605e-002
3.810650e+003, 2.966132e-002
3.812579e+003, 2.946061e-002
3.814507e+003, 2.696042e-002
3.816436e+003, 2.586966e-002
3.818364e+003, 2.785169e-002
3.820292e+003, 2.643527e-002
3.822221e+003, 2.680967e-002
3.824149e+003, 2.882222e-002
3.826078e+003, 2.915005e-002
3.828006e+003, 2.956604e-002
3.829935e+003, 2.857735e-002
3.831863e+003, 2.832369e-002
3.833792e+003, 2.894385e-002
3.835720e+003, 2.717455e-002
3.837649e+003, 2.521080e-002
3.839577e+003, 2.722012e-002
3.841506e+003, 2.828099e-002
3.843434e+003, 2.881928e-002
3.845363e+003, 2.941491e-002
3.847291e+003, 2.947256e-002
3.849219e+003, 2.872119e-002
3.851148e+003, 2.545573e-002
3.853076e+003, 2.137868e-002
3.855005e+003, 2.342626e-002
3.856933e+003, 2.779180e-002
3.858862e+003, 2.935450e-002
3.860790e+003, 2.922879e-002
3.862719e+003, 2.823535e-002
3.864647e+003, 2.787334e-002
3.866576e+003, 2.818995e-002
3.868504e+003, 2.719301e-002
3.870433e+003, 2.747464e-002
3.872361e+003, 2.894088e-002
3.874290e+003, 2.879266e-002
3.876218e+003, 2.977457e-002
3.878146e+003, 2.965344e-002
3.880075e+003, 2.920946e-002
3.882003e+003, 2.967236e-002
3.883932e+003, 2.866668e-002
3.885860e+003, 2.817308e-002
3.887789e+003, 2.966507e-002
3.889717e+003, 2.898981e-002
3.891646e+003, 2.851189e-002
3.893574e+003, 2.961612e-002
3.895503e+003, 2.949282e-002
3.897431e+003, 2.863387e-002
3.899360e+003, 2.832699e-002
3.901288e+003, 2.792709e-002
3.903217e+003, 2.801185e-002
3.905145e+003, 2.863878e-002
3.907073e+003, 2.961547e-002
3.909002e+003, 3.006518e-002
3.910930e+003, 2.989835e-002
3.912859e+003, 2.955339e-002
3.914787e+003, 2.918480e-002
3.916716e+003, 2.879638e-002
3.918644e+003, 2.925086e-002
3.920573e+003, 3.014337e-002
3.922501e+003, 3.093434e-002
3.924430e+003, 3.063453e-002
3.926358e+003, 3.055510e-002
3.928287e+003, 3.077694e-002
3.930215e+003, 3.037267e-002
3.932144e+003, 2.953216e-002
3.934072e+003, 2.965113e-002
3.936000e+003, 3.015455e-002
3.937929e+003, 3.028843e-002
3.939857e+003, 3.055690e-002
3.941786e+003, 3.025182e-002
3.943714e+003, 3.034040e-002
3.945643e+003, 3.050491e-002
3.947571e+003, 3.046294e-002
3.949500e+003, 3.033605e-002
3.951428e+003, 3.016549e-002
3.953357e+003, 3.043536e-002
3.955285e+003, 3.130615e-002
3.957214e+003, 3.153958e-002
3.959142e+003, 3.097848e-002
3.961071e+003, 3.021303e-002
3.962999e+003, 2.987680e-002
3.964927e+003, 3.089485e-002
3.966856e+003, 3.159954e-002
3.968784e+003, 3.122396e-002
3.970713e+003, 3.111156e-002
3.972641e+003, 3.107920e-002
3.974570e+003, 3.059043e-002
3.976498e+003, 3.056850e-002
3.978427e+003, 3.040297e-002
3.980355e+003, 2.967139e-002
3.982284e+003, 2.966011e-002
3.984212e+003, 3.080655e-002
3.986141e+003, 3.088034e-002
3.988069e+003, 3.100705e-002
3.989998e+003, 3.173254e-002
3.991926e+003, 3.178167e-002
3.993854e+003, 3.191885e-002
3.995783e+003, 3.173628e-002
3.997711e+003, 3.122821e-002
3.999640e+003, 3.085982e-002
4.001568e+003, 0.000000e+000
##END=



