##NAMES=Actinolite
##RRUFFID=R050336
##IDEAL CHEMISTRY=Ca_2_(Mg_4.5-2.5_Fe^2+^_0.5-2.5_)Si_8_O_22_(OH)_2_
##LOCALITY=Kragerø, Norway
##OWNER=RRUFF
##SOURCE=California Institute of Technology
##DESCRIPTION=Dark green prismatic fragment
##STATUS=The identification of this mineral has been confirmed by X-ray diffraction and chemical analysis
##URL=rruff.info/R050336
##MEASURED CHEMISTRY=([box]_0.62_Na_0.34_K_0.04_)(Ca_1.60_Na_0.40_)_Σ=2_(Mg_3.90_Fe^2+^_0.70_Al_0.20_Ti_0.10_Fe^3+^_0.10_)_Σ=5_(Si_7.52_Al_0.48_)_Σ=8_O_22_((OH)_0.97_F_0.03_)_2_
3.991926e+002, 2.963766e-001
4.011211e+002, 2.967400e-001
4.030496e+002, 2.981666e-001
4.049780e+002, 3.192634e-001
4.069065e+002, 3.242290e-001
4.088350e+002, 3.221034e-001
4.107634e+002, 3.271764e-001
4.126919e+002, 3.277524e-001
4.146204e+002, 3.231154e-001
4.165488e+002, 3.269019e-001
4.184773e+002, 3.322081e-001
4.204058e+002, 3.313864e-001
4.223342e+002, 3.237149e-001
4.242627e+002, 3.284458e-001
4.261912e+002, 3.421236e-001
4.281196e+002, 3.571798e-001
4.300481e+002, 3.576392e-001
4.319766e+002, 3.561806e-001
4.339050e+002, 3.704371e-001
4.358335e+002, 3.735200e-001
4.377620e+002, 3.699812e-001
4.396904e+002, 3.636157e-001
4.416189e+002, 3.573650e-001
4.435474e+002, 3.506201e-001
4.454758e+002, 3.440070e-001
4.474043e+002, 3.434006e-001
4.493328e+002, 3.402287e-001
4.512612e+002, 3.347900e-001
4.531897e+002, 3.332817e-001
4.551182e+002, 3.343597e-001
4.570466e+002, 3.322939e-001
4.589751e+002, 3.271545e-001
4.609036e+002, 3.190142e-001
4.628320e+002, 3.097571e-001
4.647605e+002, 2.997876e-001
4.666890e+002, 2.915803e-001
4.686174e+002, 2.820351e-001
4.705459e+002, 2.717376e-001
4.724744e+002, 2.620789e-001
4.744028e+002, 2.544670e-001
4.763313e+002, 2.472182e-001
4.782598e+002, 2.400258e-001
4.801882e+002, 2.332783e-001
4.821167e+002, 2.287478e-001
4.840452e+002, 2.245781e-001
4.859736e+002, 2.225178e-001
4.879021e+002, 2.224551e-001
4.898306e+002, 2.233345e-001
4.917590e+002, 2.251951e-001
4.936875e+002, 2.256319e-001
4.956160e+002, 2.276971e-001
4.975444e+002, 2.298365e-001
4.994729e+002, 2.314962e-001
5.014014e+002, 2.323645e-001
5.033298e+002, 2.315550e-001
5.052583e+002, 2.273203e-001
5.071868e+002, 2.212060e-001
5.091152e+002, 2.133448e-001
5.110437e+002, 2.050205e-001
5.129722e+002, 1.973106e-001
5.149006e+002, 1.907428e-001
5.168291e+002, 1.842510e-001
5.187576e+002, 1.805055e-001
5.206860e+002, 1.788378e-001
5.226145e+002, 1.762860e-001
5.245430e+002, 1.719429e-001
5.264714e+002, 1.677630e-001
5.283999e+002, 1.640395e-001
5.303284e+002, 1.589456e-001
5.322568e+002, 1.529597e-001
5.341853e+002, 1.471644e-001
5.361138e+002, 1.418078e-001
5.380422e+002, 1.360369e-001
5.399707e+002, 1.295799e-001
5.418992e+002, 1.221197e-001
5.438276e+002, 1.153946e-001
5.457561e+002, 1.079821e-001
5.476846e+002, 1.007783e-001
5.496130e+002, 9.414463e-002
5.515415e+002, 8.776808e-002
5.534700e+002, 8.218646e-002
5.553984e+002, 7.683650e-002
5.573269e+002, 7.176731e-002
5.592554e+002, 6.685624e-002
5.611838e+002, 6.266604e-002
5.631123e+002, 5.863866e-002
5.650408e+002, 5.505203e-002
5.669692e+002, 5.222278e-002
5.688977e+002, 4.974148e-002
5.708262e+002, 4.659971e-002
5.727546e+002, 4.393319e-002
5.746831e+002, 4.223250e-002
5.766116e+002, 4.042746e-002
5.785400e+002, 3.908695e-002
5.804685e+002, 3.790865e-002
5.823970e+002, 3.671882e-002
5.843254e+002, 3.644705e-002
5.862539e+002, 3.566113e-002
5.881824e+002, 3.449758e-002
5.901108e+002, 3.449194e-002
5.920393e+002, 3.459503e-002
5.939678e+002, 3.536585e-002
5.958962e+002, 3.607148e-002
5.978247e+002, 3.679379e-002
5.997532e+002, 3.750219e-002
6.016816e+002, 3.853383e-002
6.036101e+002, 3.973857e-002
6.055386e+002, 4.016721e-002
6.074670e+002, 4.065074e-002
6.093955e+002, 4.158890e-002
6.113240e+002, 4.229097e-002
6.132524e+002, 4.334582e-002
6.151809e+002, 4.454006e-002
6.171094e+002, 4.534769e-002
6.190378e+002, 4.666867e-002
6.209663e+002, 4.786905e-002
6.228948e+002, 4.915693e-002
6.248232e+002, 5.130661e-002
6.267517e+002, 5.344669e-002
6.286802e+002, 5.566441e-002
6.306086e+002, 5.853460e-002
6.325371e+002, 6.126120e-002
6.344656e+002, 6.413489e-002
6.363940e+002, 6.727267e-002
6.383225e+002, 7.057920e-002
6.402510e+002, 7.413958e-002
6.421794e+002, 7.733920e-002
6.441079e+002, 7.958017e-002
6.460364e+002, 8.049508e-002
6.479648e+002, 8.044792e-002
6.498933e+002, 8.107615e-002
6.518218e+002, 8.243588e-002
6.537502e+002, 8.406729e-002
6.556787e+002, 8.582013e-002
6.576072e+002, 8.764645e-002
6.595356e+002, 8.987042e-002
6.614641e+002, 9.120469e-002
6.633926e+002, 9.135674e-002
6.653210e+002, 9.061541e-002
6.672495e+002, 8.888478e-002
6.691780e+002, 8.672876e-002
6.711064e+002, 8.518118e-002
6.730349e+002, 8.512417e-002
6.749634e+002, 8.655848e-002
6.768918e+002, 8.926821e-002
6.788203e+002, 9.203919e-002
6.807488e+002, 9.375278e-002
6.826772e+002, 9.474249e-002
6.846057e+002, 9.531678e-002
6.865342e+002, 9.469337e-002
6.884626e+002, 9.247394e-002
6.903911e+002, 8.890799e-002
6.923196e+002, 8.477953e-002
6.942480e+002, 8.046799e-002
6.961765e+002, 7.640955e-002
6.981050e+002, 7.286814e-002
7.000334e+002, 6.994041e-002
7.019619e+002, 6.771978e-002
7.038904e+002, 6.542508e-002
7.058188e+002, 6.340015e-002
7.077473e+002, 6.192154e-002
7.096758e+002, 6.099973e-002
7.116042e+002, 6.044152e-002
7.135327e+002, 6.023837e-002
7.154612e+002, 6.059132e-002
7.173896e+002, 6.118696e-002
7.193181e+002, 6.227864e-002
7.212466e+002, 6.390078e-002
7.231750e+002, 6.509708e-002
7.251035e+002, 6.597064e-002
7.270320e+002, 6.712238e-002
7.289604e+002, 6.876898e-002
7.308889e+002, 7.141042e-002
7.328174e+002, 7.488783e-002
7.347458e+002, 7.839765e-002
7.366743e+002, 8.206587e-002
7.386028e+002, 8.567874e-002
7.405313e+002, 8.908369e-002
7.424597e+002, 9.279023e-002
7.443882e+002, 9.676689e-002
7.463167e+002, 9.960138e-002
7.482451e+002, 1.023125e-001
7.501736e+002, 1.056472e-001
7.521021e+002, 1.095363e-001
7.540305e+002, 1.135028e-001
7.559590e+002, 1.161371e-001
7.578875e+002, 1.167165e-001
7.598159e+002, 1.148276e-001
7.617444e+002, 1.110870e-001
7.636729e+002, 1.059592e-001
7.656013e+002, 1.001959e-001
7.675298e+002, 9.415644e-002
7.694583e+002, 8.866706e-002
7.713867e+002, 8.396636e-002
7.733152e+002, 8.003163e-002
7.752437e+002, 7.697962e-002
7.771721e+002, 7.461753e-002
7.791006e+002, 7.299181e-002
7.810291e+002, 7.169940e-002
7.829575e+002, 7.075496e-002
7.848860e+002, 6.980599e-002
7.868145e+002, 6.915668e-002
7.887429e+002, 6.931739e-002
7.906714e+002, 6.944999e-002
7.925999e+002, 6.972906e-002
7.945283e+002, 7.012790e-002
7.964568e+002, 7.074021e-002
7.983853e+002, 7.125675e-002
8.003137e+002, 7.187498e-002
8.022422e+002, 7.264874e-002
8.041707e+002, 7.337021e-002
8.060991e+002, 7.429067e-002
8.080276e+002, 7.525188e-002
8.099561e+002, 7.637896e-002
8.118845e+002, 7.748973e-002
8.138130e+002, 7.840533e-002
8.157415e+002, 7.925477e-002
8.176699e+002, 8.026021e-002
8.195984e+002, 8.226656e-002
8.215269e+002, 8.451534e-002
8.234553e+002, 8.636393e-002
8.253838e+002, 8.919375e-002
8.273123e+002, 9.266539e-002
8.292407e+002, 9.616036e-002
8.311692e+002, 1.005817e-001
8.330977e+002, 1.060179e-001
8.350261e+002, 1.120690e-001
8.369546e+002, 1.191140e-001
8.388831e+002, 1.261401e-001
8.408115e+002, 1.318989e-001
8.427400e+002, 1.373637e-001
8.446685e+002, 1.436869e-001
8.465969e+002, 1.506751e-001
8.485254e+002, 1.575143e-001
8.504539e+002, 1.643585e-001
8.523823e+002, 1.717472e-001
8.543108e+002, 1.785352e-001
8.562393e+002, 1.848824e-001
8.581677e+002, 1.912743e-001
8.600962e+002, 1.977573e-001
8.620247e+002, 2.045434e-001
8.639531e+002, 2.117029e-001
8.658816e+002, 2.203064e-001
8.678101e+002, 2.299015e-001
8.697385e+002, 2.401357e-001
8.716670e+002, 2.510771e-001
8.735955e+002, 2.623268e-001
8.755239e+002, 2.743004e-001
8.774524e+002, 2.868505e-001
8.793809e+002, 2.987216e-001
8.813093e+002, 3.104761e-001
8.832378e+002, 3.230751e-001
8.851663e+002, 3.352259e-001
8.870947e+002, 3.464086e-001
8.890232e+002, 3.575328e-001
8.909517e+002, 3.675499e-001
8.928801e+002, 3.761930e-001
8.948085e+002, 3.851881e-001
8.967370e+002, 3.951446e-001
8.986655e+002, 4.046071e-001
9.005939e+002, 4.143282e-001
9.025224e+002, 4.246667e-001
9.044509e+002, 4.353569e-001
9.063793e+002, 4.461211e-001
9.083078e+002, 4.554944e-001
9.102363e+002, 4.633694e-001
9.121647e+002, 4.684275e-001
9.140932e+002, 4.697805e-001
9.160217e+002, 4.673218e-001
9.179501e+002, 4.608191e-001
9.198786e+002, 4.512540e-001
9.218071e+002, 4.407786e-001
9.237355e+002, 4.321113e-001
9.256640e+002, 4.260569e-001
9.275925e+002, 4.242159e-001
9.295209e+002, 4.269540e-001
9.314494e+002, 4.340417e-001
9.333779e+002, 4.427254e-001
9.353063e+002, 4.521301e-001
9.372348e+002, 4.617049e-001
9.391633e+002, 4.695607e-001
9.410917e+002, 4.765628e-001
9.430202e+002, 4.815098e-001
9.449487e+002, 4.842179e-001
9.468771e+002, 4.845729e-001
9.488056e+002, 4.823947e-001
9.507341e+002, 4.782999e-001
9.526625e+002, 4.730153e-001
9.545910e+002, 4.666111e-001
9.565195e+002, 4.589565e-001
9.584479e+002, 4.507394e-001
9.603764e+002, 4.426060e-001
9.623049e+002, 4.351360e-001
9.642333e+002, 4.274206e-001
9.661618e+002, 4.192473e-001
9.680903e+002, 4.113069e-001
9.700187e+002, 4.040241e-001
9.719472e+002, 3.973503e-001
9.738757e+002, 3.909034e-001
9.758041e+002, 3.846584e-001
9.777326e+002, 3.788826e-001
9.796611e+002, 3.732497e-001
9.815895e+002, 3.670330e-001
9.835180e+002, 3.595579e-001
9.854465e+002, 3.512675e-001
9.873749e+002, 3.417808e-001
9.893034e+002, 3.310798e-001
9.912319e+002, 3.194159e-001
9.931603e+002, 3.070616e-001
9.950888e+002, 2.942849e-001
9.970173e+002, 2.818440e-001
9.989457e+002, 2.698114e-001
1.000874e+003, 2.583126e-001
1.002803e+003, 2.472469e-001
1.004731e+003, 2.367097e-001
1.006660e+003, 2.269771e-001
1.008588e+003, 2.180348e-001
1.010517e+003, 2.099867e-001
1.012445e+003, 2.023053e-001
1.014373e+003, 1.950689e-001
1.016302e+003, 1.887622e-001
1.018230e+003, 1.830672e-001
1.020159e+003, 1.775973e-001
1.022087e+003, 1.732692e-001
1.024016e+003, 1.703186e-001
1.025944e+003, 1.684265e-001
1.027873e+003, 1.675029e-001
1.029801e+003, 1.681665e-001
1.031730e+003, 1.702707e-001
1.033658e+003, 1.731676e-001
1.035587e+003, 1.761699e-001
1.037515e+003, 1.788464e-001
1.039444e+003, 1.806873e-001
1.041372e+003, 1.817772e-001
1.043301e+003, 1.826156e-001
1.045229e+003, 1.831105e-001
1.047157e+003, 1.832533e-001
1.049086e+003, 1.827311e-001
1.051014e+003, 1.818312e-001
1.052943e+003, 1.803853e-001
1.054871e+003, 1.783196e-001
1.056800e+003, 1.760774e-001
1.058728e+003, 1.732893e-001
1.060657e+003, 1.701223e-001
1.062585e+003, 1.663025e-001
1.064514e+003, 1.620245e-001
1.066442e+003, 1.576864e-001
1.068371e+003, 1.526823e-001
1.070299e+003, 1.473388e-001
1.072228e+003, 1.422057e-001
1.074156e+003, 1.372628e-001
1.076084e+003, 1.323114e-001
1.078013e+003, 1.274320e-001
1.079941e+003, 1.231740e-001
1.081870e+003, 1.197783e-001
1.083798e+003, 1.168895e-001
1.085727e+003, 1.146012e-001
1.087655e+003, 1.130945e-001
1.089584e+003, 1.124112e-001
1.091512e+003, 1.131476e-001
1.093441e+003, 1.149219e-001
1.095369e+003, 1.166331e-001
1.097298e+003, 1.184131e-001
1.099226e+003, 1.197769e-001
1.101155e+003, 1.198687e-001
1.103083e+003, 1.192224e-001
1.105011e+003, 1.175946e-001
1.106940e+003, 1.152230e-001
1.108868e+003, 1.124254e-001
1.110797e+003, 1.090070e-001
1.112725e+003, 1.050314e-001
1.114654e+003, 1.008468e-001
1.116582e+003, 9.621800e-002
1.118511e+003, 9.106297e-002
1.120439e+003, 8.578762e-002
1.122368e+003, 8.057249e-002
1.124296e+003, 7.542964e-002
1.126225e+003, 7.047883e-002
1.128153e+003, 6.562112e-002
1.130082e+003, 6.068170e-002
1.132010e+003, 5.572357e-002
1.133938e+003, 5.089502e-002
1.135867e+003, 4.596068e-002
1.137795e+003, 4.121754e-002
1.139724e+003, 3.676639e-002
1.141652e+003, 3.254549e-002
1.143581e+003, 2.875237e-002
1.145509e+003, 2.536746e-002
1.147438e+003, 2.244985e-002
1.149366e+003, 1.997543e-002
1.151295e+003, 1.782323e-002
1.153223e+003, 1.626220e-002
1.155152e+003, 1.518332e-002
1.157080e+003, 1.424282e-002
1.159009e+003, 1.344604e-002
1.160937e+003, 1.256827e-002
1.162865e+003, 1.158851e-002
1.164794e+003, 1.135099e-002
1.166722e+003, 1.100583e-002
1.168651e+003, 1.044023e-002
1.170579e+003, 1.002727e-002
1.172508e+003, 9.764043e-003
1.174436e+003, 9.453270e-003
1.176365e+003, 9.268870e-003
1.178293e+003, 8.953636e-003
1.180222e+003, 8.601106e-003
1.182150e+003, 8.423523e-003
1.184079e+003, 8.344666e-003
1.186007e+003, 8.063982e-003
1.187936e+003, 7.680664e-003
1.189864e+003, 7.537853e-003
1.191792e+003, 7.337986e-003
1.193721e+003, 7.107486e-003
1.195649e+003, 6.947339e-003
1.197578e+003, 6.832726e-003
1.199506e+003, 6.737950e-003
1.201435e+003, 6.460689e-003
1.203363e+003, 6.298347e-003
1.205292e+003, 6.331038e-003
1.207220e+003, 6.208549e-003
1.209149e+003, 6.089196e-003
1.211077e+003, 6.051900e-003
1.213006e+003, 5.734228e-003
1.214934e+003, 5.576801e-003
1.216863e+003, 5.522580e-003
1.218791e+003, 5.369227e-003
1.220719e+003, 5.437340e-003
1.222648e+003, 5.634850e-003
1.224576e+003, 5.416930e-003
1.226505e+003, 5.336790e-003
1.228433e+003, 5.307193e-003
1.230362e+003, 5.271841e-003
1.232290e+003, 5.195288e-003
1.234219e+003, 5.082608e-003
1.236147e+003, 5.047714e-003
1.238076e+003, 4.876313e-003
1.240004e+003, 4.703503e-003
1.241933e+003, 4.898647e-003
1.243861e+003, 5.091528e-003
1.245790e+003, 4.991635e-003
1.247718e+003, 4.978500e-003
1.249646e+003, 5.051680e-003
1.251575e+003, 5.322908e-003
1.253503e+003, 5.326034e-003
1.255432e+003, 5.199907e-003
1.257360e+003, 5.126094e-003
1.259289e+003, 5.043534e-003
1.261217e+003, 5.255430e-003
1.263146e+003, 5.127626e-003
1.265074e+003, 4.743544e-003
1.267003e+003, 4.851397e-003
1.268931e+003, 5.261170e-003
1.270860e+003, 5.391573e-003
1.272788e+003, 5.541330e-003
1.274717e+003, 5.671795e-003
1.276645e+003, 5.719867e-003
1.278573e+003, 5.635801e-003
1.280502e+003, 5.495293e-003
1.282430e+003, 5.463146e-003
1.284359e+003, 5.645568e-003
1.286287e+003, 5.941416e-003
1.288216e+003, 5.974913e-003
1.290144e+003, 5.767607e-003
1.292073e+003, 5.721383e-003
1.294001e+003, 5.783549e-003
1.295930e+003, 5.951061e-003
1.297858e+003, 6.033414e-003
1.299787e+003, 6.035109e-003
1.301715e+003, 6.495623e-003
1.303644e+003, 6.694298e-003
1.305572e+003, 6.632679e-003
1.307500e+003, 6.701567e-003
1.309429e+003, 6.943256e-003
1.311357e+003, 7.070844e-003
1.313286e+003, 7.231763e-003
1.315214e+003, 7.456342e-003
1.317143e+003, 7.554123e-003
1.319071e+003, 7.794504e-003
1.321000e+003, 8.236579e-003
1.322928e+003, 8.399012e-003
1.324857e+003, 8.517860e-003
1.326785e+003, 8.905077e-003
1.328714e+003, 9.402942e-003
1.330642e+003, 9.629045e-003
1.332571e+003, 9.709942e-003
1.334499e+003, 1.004968e-002
1.336427e+003, 1.051173e-002
1.338356e+003, 1.085966e-002
1.340284e+003, 1.100930e-002
1.342213e+003, 1.153592e-002
1.344141e+003, 1.217244e-002
1.346070e+003, 1.257617e-002
1.347998e+003, 1.280593e-002
1.349927e+003, 1.307882e-002
1.351855e+003, 1.337394e-002
1.353784e+003, 1.373284e-002
1.355712e+003, 1.437450e-002
1.357641e+003, 1.490241e-002
1.359569e+003, 1.493351e-002
1.361498e+003, 1.516450e-002
1.363426e+003, 1.560221e-002
1.365354e+003, 1.615113e-002
1.367283e+003, 1.658279e-002
1.369211e+003, 1.672800e-002
1.371140e+003, 1.715341e-002
1.373068e+003, 1.762694e-002
1.374997e+003, 1.806489e-002
1.376925e+003, 1.849693e-002
1.378854e+003, 1.897614e-002
1.380782e+003, 1.948683e-002
1.382711e+003, 2.025874e-002
1.384639e+003, 2.095483e-002
1.386568e+003, 2.118728e-002
1.388496e+003, 2.159667e-002
1.390424e+003, 2.201724e-002
1.392353e+003, 2.257356e-002
1.394281e+003, 2.305285e-002
1.396210e+003, 2.348923e-002
1.398138e+003, 2.405152e-002
1.400067e+003, 2.421927e-002
1.401995e+003, 2.419356e-002
1.403924e+003, 2.447273e-002
1.405852e+003, 2.491267e-002
1.407781e+003, 2.495141e-002
1.409709e+003, 2.469436e-002
1.411638e+003, 2.464215e-002
1.413566e+003, 2.463398e-002
1.415495e+003, 2.463454e-002
1.417423e+003, 2.454873e-002
1.419351e+003, 2.459838e-002
1.421280e+003, 2.441027e-002
1.423208e+003, 2.417466e-002
1.425137e+003, 2.422318e-002
1.427065e+003, 2.437432e-002
1.428994e+003, 2.454389e-002
1.430922e+003, 2.477587e-002
1.432851e+003, 2.491184e-002
1.434779e+003, 2.505943e-002
1.436708e+003, 2.506537e-002
1.438636e+003, 2.492347e-002
1.440565e+003, 2.512510e-002
1.442493e+003, 2.520769e-002
1.444422e+003, 2.480658e-002
1.446350e+003, 2.453914e-002
1.448278e+003, 2.464122e-002
1.450207e+003, 2.473460e-002
1.452135e+003, 2.471424e-002
1.454064e+003, 2.434590e-002
1.455992e+003, 2.380922e-002
1.457921e+003, 2.376577e-002
1.459849e+003, 2.363632e-002
1.461778e+003, 2.307504e-002
1.463706e+003, 2.280052e-002
1.465635e+003, 2.248037e-002
1.467563e+003, 2.223068e-002
1.469492e+003, 2.190933e-002
1.471420e+003, 2.145892e-002
1.473349e+003, 2.105565e-002
1.475277e+003, 2.061004e-002
1.477205e+003, 2.034080e-002
1.479134e+003, 2.037261e-002
1.481062e+003, 2.023517e-002
1.482991e+003, 1.979644e-002
1.484919e+003, 1.946951e-002
1.486848e+003, 1.876171e-002
1.488776e+003, 1.826476e-002
1.490705e+003, 1.828471e-002
1.492633e+003, 1.816598e-002
1.494562e+003, 1.824614e-002
1.496490e+003, 1.810503e-002
1.498419e+003, 1.734530e-002
1.500347e+003, 1.688257e-002
1.502276e+003, 1.664089e-002
1.504204e+003, 1.649513e-002
1.506132e+003, 1.616891e-002
1.508061e+003, 1.567185e-002
1.509989e+003, 1.536396e-002
1.511918e+003, 1.523657e-002
1.513846e+003, 1.516534e-002
1.515775e+003, 1.499078e-002
1.517703e+003, 1.469605e-002
1.519632e+003, 1.463446e-002
1.521560e+003, 1.467458e-002
1.523489e+003, 1.424610e-002
1.525417e+003, 1.382965e-002
1.527346e+003, 1.372592e-002
1.529274e+003, 1.347322e-002
1.531203e+003, 1.296583e-002
1.533131e+003, 1.262226e-002
1.535059e+003, 1.283732e-002
1.536988e+003, 1.272740e-002
1.538916e+003, 1.247858e-002
1.540845e+003, 1.209069e-002
1.542773e+003, 1.179609e-002
1.544702e+003, 1.175598e-002
1.546630e+003, 1.189970e-002
1.548559e+003, 1.161001e-002
1.550487e+003, 1.136464e-002
1.552416e+003, 1.144888e-002
1.554344e+003, 1.117139e-002
1.556273e+003, 1.074632e-002
1.558201e+003, 1.085050e-002
1.560130e+003, 1.110855e-002
1.562058e+003, 1.079831e-002
1.563986e+003, 1.041676e-002
1.565915e+003, 1.041280e-002
1.567843e+003, 1.026850e-002
1.569772e+003, 9.970503e-003
1.571700e+003, 1.011197e-002
1.573629e+003, 1.020752e-002
1.575557e+003, 1.006547e-002
1.577486e+003, 9.773337e-003
1.579414e+003, 9.779021e-003
1.581343e+003, 9.543016e-003
1.583271e+003, 9.186753e-003
1.585200e+003, 9.612787e-003
1.587128e+003, 1.002962e-002
1.589057e+003, 9.952865e-003
1.590985e+003, 9.791204e-003
1.592913e+003, 9.806604e-003
1.594842e+003, 9.663596e-003
1.596770e+003, 9.513598e-003
1.598699e+003, 9.486798e-003
1.600627e+003, 9.435823e-003
1.602556e+003, 9.659077e-003
1.604484e+003, 9.542040e-003
1.606413e+003, 9.397418e-003
1.608341e+003, 9.489346e-003
1.610270e+003, 9.371149e-003
1.612198e+003, 9.359688e-003
1.614127e+003, 9.316521e-003
1.616055e+003, 8.917274e-003
1.617984e+003, 8.400411e-003
1.619912e+003, 8.564601e-003
1.621840e+003, 8.903863e-003
1.623769e+003, 8.909001e-003
1.625697e+003, 8.896288e-003
1.627626e+003, 8.957745e-003
1.629554e+003, 8.880544e-003
1.631483e+003, 9.025672e-003
1.633411e+003, 9.162701e-003
1.635340e+003, 8.941702e-003
1.637268e+003, 8.761642e-003
1.639197e+003, 8.748428e-003
1.641125e+003, 8.949216e-003
1.643054e+003, 9.133906e-003
1.644982e+003, 8.962301e-003
1.646911e+003, 8.670502e-003
1.648839e+003, 8.740989e-003
1.650767e+003, 8.571897e-003
1.652696e+003, 8.494075e-003
1.654624e+003, 8.394373e-003
1.656553e+003, 8.489460e-003
1.658481e+003, 8.265788e-003
1.660410e+003, 7.834555e-003
1.662338e+003, 7.973404e-003
1.664267e+003, 8.192495e-003
1.666195e+003, 7.992797e-003
1.668124e+003, 7.839327e-003
1.670052e+003, 7.850292e-003
1.671981e+003, 7.824244e-003
1.673909e+003, 7.660163e-003
1.675838e+003, 7.561590e-003
1.677766e+003, 7.424429e-003
1.679694e+003, 7.378483e-003
1.681623e+003, 7.296227e-003
1.683551e+003, 7.718494e-003
1.685480e+003, 7.801218e-003
1.687408e+003, 7.109872e-003
1.689337e+003, 6.676086e-003
1.691265e+003, 6.747216e-003
1.693194e+003, 7.004080e-003
1.695122e+003, 7.280031e-003
1.697051e+003, 7.305577e-003
1.698979e+003, 7.132308e-003
1.700908e+003, 7.025179e-003
1.702836e+003, 6.906588e-003
1.704765e+003, 6.861728e-003
1.706693e+003, 6.983195e-003
1.708621e+003, 7.077616e-003
1.710550e+003, 6.718396e-003
1.712478e+003, 6.576372e-003
1.714407e+003, 6.912407e-003
1.716335e+003, 7.190641e-003
1.718264e+003, 6.923304e-003
1.720192e+003, 6.280311e-003
1.722121e+003, 5.772639e-003
1.724049e+003, 5.700470e-003
1.725978e+003, 5.831789e-003
1.727906e+003, 6.108561e-003
1.729835e+003, 6.145717e-003
1.731763e+003, 5.947454e-003
1.733692e+003, 6.162952e-003
1.735620e+003, 5.921691e-003
1.737548e+003, 5.731297e-003
1.739477e+003, 5.415642e-003
1.741405e+003, 4.977894e-003
1.743334e+003, 4.736040e-003
1.745262e+003, 4.350630e-003
1.747191e+003, 4.431366e-003
1.749119e+003, 4.596119e-003
1.751048e+003, 4.554549e-003
1.752976e+003, 4.663056e-003
1.754905e+003, 4.555105e-003
1.756833e+003, 4.734873e-003
1.758762e+003, 4.623391e-003
1.760690e+003, 4.532327e-003
1.762619e+003, 4.700163e-003
1.764547e+003, 4.815202e-003
1.766475e+003, 4.753557e-003
1.768404e+003, 4.809276e-003
1.770332e+003, 4.713474e-003
1.772261e+003, 4.640149e-003
1.774189e+003, 4.761657e-003
1.776118e+003, 4.689917e-003
1.778046e+003, 4.401722e-003
1.779975e+003, 4.919740e-003
1.781903e+003, 5.213304e-003
1.783832e+003, 4.963890e-003
1.785760e+003, 4.662754e-003
1.787689e+003, 4.404742e-003
1.789617e+003, 4.268471e-003
1.791546e+003, 4.231947e-003
1.793474e+003, 4.496932e-003
1.795402e+003, 4.525702e-003
1.797331e+003, 4.182145e-003
1.799259e+003, 3.733161e-003
1.801188e+003, 4.140960e-003
1.803116e+003, 4.694610e-003
1.805045e+003, 4.613895e-003
1.806973e+003, 4.538729e-003
1.808902e+003, 4.356896e-003
1.810830e+003, 4.051547e-003
1.812759e+003, 4.061778e-003
1.814687e+003, 4.149992e-003
1.816616e+003, 4.112048e-003
1.818544e+003, 3.873199e-003
1.820473e+003, 4.013340e-003
1.822401e+003, 4.149423e-003
1.824329e+003, 3.986484e-003
1.826258e+003, 4.047138e-003
1.828186e+003, 4.139030e-003
1.830115e+003, 3.755384e-003
1.832043e+003, 3.292779e-003
1.833972e+003, 2.987610e-003
1.835900e+003, 3.763039e-003
1.837829e+003, 4.060539e-003
1.839757e+003, 3.593042e-003
1.841686e+003, 3.418820e-003
1.843614e+003, 3.795176e-003
1.845543e+003, 3.254658e-003
1.847471e+003, 2.194282e-003
1.849400e+003, 2.159951e-003
1.851328e+003, 2.524993e-003
1.853256e+003, 3.028518e-003
1.855185e+003, 3.429557e-003
1.857113e+003, 3.765159e-003
1.859042e+003, 3.442378e-003
1.860970e+003, 3.631993e-003
1.862899e+003, 3.956751e-003
1.864827e+003, 3.409779e-003
1.866756e+003, 3.446288e-003
1.868684e+003, 3.313870e-003
1.870613e+003, 3.132226e-003
1.872541e+003, 3.555735e-003
1.874470e+003, 3.535880e-003
1.876398e+003, 3.108585e-003
1.878327e+003, 3.271543e-003
1.880255e+003, 3.860149e-003
1.882183e+003, 3.045992e-003
1.884112e+003, 2.441900e-003
1.886040e+003, 2.941092e-003
1.887969e+003, 3.484697e-003
1.889897e+003, 3.105240e-003
1.891826e+003, 2.416313e-003
1.893754e+003, 2.719019e-003
1.895683e+003, 3.062732e-003
1.897611e+003, 3.208551e-003
1.899540e+003, 2.613541e-003
1.901468e+003, 2.190125e-003
1.903397e+003, 3.047406e-003
1.905325e+003, 3.469183e-003
1.907254e+003, 2.721092e-003
1.909182e+003, 2.378845e-003
1.911110e+003, 2.767446e-003
1.913039e+003, 3.208039e-003
1.914967e+003, 2.889032e-003
1.916896e+003, 1.832949e-003
1.918824e+003, 1.156721e-003
1.920753e+003, -4.378476e-005
1.922681e+003, -1.622439e-004
1.924610e+003, 1.144436e-003
1.926538e+003, 1.662164e-003
1.928467e+003, 7.755682e-004
1.930395e+003, 9.918023e-004
1.932324e+003, 1.919892e-003
1.934252e+003, 1.150876e-003
1.936181e+003, 1.034020e-003
1.938109e+003, 1.494316e-003
1.940037e+003, 1.221007e-003
1.941966e+003, 5.778395e-005
1.943894e+003, -5.839883e-004
1.945823e+003, 2.985626e-004
1.947751e+003, 1.066046e-003
1.949680e+003, 1.187445e-004
1.951608e+003, -1.592874e-003
1.953537e+003, -1.270253e-003
1.955465e+003, 6.899961e-004
1.957394e+003, -1.277661e-005
1.959322e+003, -4.165071e-003
1.961251e+003, -5.758879e-003
1.963179e+003, -3.872415e-003
1.965108e+003, -2.675030e-003
1.967036e+003, -2.590978e-003
1.968964e+003, -3.408368e-003
1.970893e+003, -3.906937e-003
1.972821e+003, -1.757368e-003
1.974750e+003, -2.958300e-004
1.976678e+003, -1.217023e-003
1.978607e+003, 8.022294e-004
1.980535e+003, 1.094437e-003
1.982464e+003, -4.074916e-004
1.984392e+003, 4.659055e-004
1.986321e+003, 1.559707e-003
1.988249e+003, 2.326491e-004
1.990178e+003, -8.769875e-004
1.992106e+003, -2.891263e-004
1.994035e+003, -1.582242e-004
1.995963e+003, -9.613904e-004
1.997891e+003, -2.488658e-003
1.999820e+003, -3.070916e-003
2.001748e+003, -3.908481e-003
2.003677e+003, -3.869815e-003
2.005605e+003, -3.355957e-003
2.007534e+003, -1.124554e-003
2.009462e+003, -1.176170e-003
2.011391e+003, -1.586720e-003
2.013319e+003, -4.647810e-003
2.015248e+003, -6.551453e-003
2.017176e+003, -3.502077e-003
2.019105e+003, -2.906113e-003
2.021033e+003, -4.116314e-003
2.022962e+003, -2.381189e-003
2.024890e+003, -5.069412e-004
2.026818e+003, -9.879246e-004
2.028747e+003, -1.281300e-003
2.030675e+003, 8.416593e-004
2.032604e+003, 1.309550e-003
2.034532e+003, 3.750267e-004
2.036461e+003, 1.603337e-003
2.038389e+003, 3.972247e-004
2.040318e+003, -1.761157e-003
2.042246e+003, -1.394890e-003
2.044175e+003, 6.718825e-004
2.046103e+003, 3.065170e-003
2.048032e+003, 4.814887e-003
2.049960e+003, 6.193769e-003
2.051889e+003, 5.535898e-003
2.053817e+003, 3.816437e-003
2.055746e+003, 4.082743e-003
2.057674e+003, 3.996717e-003
2.059603e+003, 2.851637e-003
2.061531e+003, 5.214014e-004
2.063459e+003, 7.572524e-004
2.065388e+003, 2.744729e-003
2.067316e+003, 4.503548e-003
2.069245e+003, 4.790382e-003
2.071173e+003, 4.201563e-003
2.073102e+003, 3.371439e-003
2.075030e+003, 3.165907e-003
2.076959e+003, 2.714202e-003
2.078887e+003, 3.069839e-003
2.080816e+003, 4.428469e-003
2.082744e+003, 4.381325e-003
2.084673e+003, 5.059664e-003
2.086601e+003, 4.204798e-003
2.088530e+003, 2.985413e-003
2.090458e+003, 2.417736e-003
2.092386e+003, 2.134725e-003
2.094315e+003, 2.757208e-003
2.096243e+003, 2.353883e-003
2.098172e+003, 1.774162e-003
2.100100e+003, 9.457303e-004
2.102029e+003, 1.462959e-003
2.103957e+003, 2.267355e-003
2.105886e+003, 2.106045e-003
2.107814e+003, 3.489373e-003
2.109743e+003, 3.519161e-003
2.111671e+003, 4.132382e-003
2.113600e+003, 4.944674e-003
2.115528e+003, 5.123909e-003
2.117457e+003, 4.883513e-003
2.119385e+003, 3.558509e-003
2.121313e+003, 2.161490e-003
2.123242e+003, 2.336590e-003
2.125170e+003, 1.769546e-003
2.127099e+003, 8.519245e-004
2.129027e+003, 2.257661e-004
2.130956e+003, 3.711151e-004
2.132884e+003, 6.798807e-005
2.134813e+003, 3.819061e-004
2.136741e+003, 4.979204e-004
2.138670e+003, -1.917349e-004
2.140598e+003, -2.852942e-004
2.142527e+003, -5.909507e-004
2.144455e+003, 6.188768e-004
2.146384e+003, 3.386185e-003
2.148312e+003, 3.363866e-003
2.150240e+003, 2.714001e-003
2.152169e+003, 8.107903e-004
2.154097e+003, -1.879029e-003
2.156026e+003, -1.622590e-003
2.157954e+003, 1.639896e-003
2.159883e+003, 9.559188e-003
2.161811e+003, 9.657457e-003
2.163740e+003, 6.489607e-003
2.165668e+003, 4.439034e-003
2.167597e+003, 3.345337e-003
2.169525e+003, 3.651571e-003
2.171454e+003, 4.763525e-003
2.173382e+003, 5.302197e-003
2.175311e+003, 4.720191e-003
2.177239e+003, 2.031427e-003
2.179167e+003, -5.458512e-005
2.181096e+003, 1.166699e-003
2.183024e+003, 4.777712e-003
2.184953e+003, 7.053224e-003
2.186881e+003, 7.088650e-003
2.188810e+003, 5.125146e-003
2.190738e+003, 2.661384e-003
2.192667e+003, 3.659743e-003
2.194595e+003, 3.581284e-003
2.196524e+003, 3.232961e-003
2.198452e+003, 3.479150e-003
2.200381e+003, 3.796241e-003
2.202309e+003, 3.117378e-003
2.204238e+003, 2.261285e-003
2.206166e+003, 1.888477e-003
2.208094e+003, 3.115585e-003
2.210023e+003, 3.639536e-003
2.211951e+003, 4.592447e-003
2.213880e+003, 4.210528e-003
2.215808e+003, 3.677659e-003
2.217737e+003, 4.264362e-003
2.219665e+003, 5.938229e-003
2.221594e+003, 7.147626e-003
2.223522e+003, 6.020011e-003
2.225451e+003, 5.245415e-003
2.227379e+003, 5.239498e-003
2.229308e+003, 6.732600e-003
2.231236e+003, 6.638821e-003
2.233165e+003, 6.650594e-003
2.235093e+003, 7.730850e-003
2.237021e+003, 7.862824e-003
2.238950e+003, 6.744689e-003
2.240878e+003, 7.078253e-003
2.242807e+003, 6.539697e-003
2.244735e+003, 5.345986e-003
2.246664e+003, 6.241555e-003
2.248592e+003, 5.756496e-003
2.250521e+003, 6.119445e-003
2.252449e+003, 7.140062e-003
2.254378e+003, 6.673758e-003
2.256306e+003, 7.224511e-003
2.258235e+003, 7.214781e-003
2.260163e+003, 7.563958e-003
2.262092e+003, 8.165861e-003
2.264020e+003, 7.600075e-003
2.265948e+003, 7.670939e-003
2.267877e+003, 7.727074e-003
2.269805e+003, 6.710570e-003
2.271734e+003, 7.732098e-003
2.273662e+003, 8.856351e-003
2.275591e+003, 9.891081e-003
2.277519e+003, 1.083615e-002
2.279448e+003, 1.075568e-002
2.281376e+003, 1.029477e-002
2.283305e+003, 1.057772e-002
2.285233e+003, 1.081689e-002
2.287162e+003, 9.493532e-003
2.289090e+003, 9.571071e-003
2.291019e+003, 1.111375e-002
2.292947e+003, 1.052503e-002
2.294875e+003, 9.958928e-003
2.296804e+003, 1.081827e-002
2.298732e+003, 1.070747e-002
2.300661e+003, 1.014058e-002
2.302589e+003, 1.007108e-002
2.304518e+003, 9.837976e-003
2.306446e+003, 9.875304e-003
2.308375e+003, 9.948138e-003
2.310303e+003, 1.039220e-002
2.312232e+003, 1.118544e-002
2.314160e+003, 1.189004e-002
2.316089e+003, 1.186912e-002
2.318017e+003, 1.134290e-002
2.319946e+003, 1.092664e-002
2.321874e+003, 1.098301e-002
2.323802e+003, 1.150765e-002
2.325731e+003, 1.107145e-002
2.327659e+003, 9.614444e-003
2.329588e+003, 9.097246e-003
2.331516e+003, 9.152874e-003
2.333445e+003, 9.287545e-003
2.335373e+003, 9.176683e-003
2.337302e+003, 9.141825e-003
2.339230e+003, 8.653331e-003
2.341159e+003, 8.551800e-003
2.343087e+003, 8.795626e-003
2.345016e+003, 9.169802e-003
2.346944e+003, 8.855443e-003
2.348873e+003, 9.219989e-003
2.350801e+003, 9.178041e-003
2.352729e+003, 8.129800e-003
2.354658e+003, 7.576446e-003
2.356586e+003, 7.246182e-003
2.358515e+003, 7.586573e-003
2.360443e+003, 8.220471e-003
2.362372e+003, 8.455170e-003
2.364300e+003, 8.221743e-003
2.366229e+003, 8.012949e-003
2.368157e+003, 7.956294e-003
2.370086e+003, 8.283580e-003
2.372014e+003, 8.510760e-003
2.373942e+003, 8.824895e-003
2.375871e+003, 8.995559e-003
2.377799e+003, 9.202444e-003
2.379728e+003, 8.679884e-003
2.381656e+003, 7.737256e-003
2.383585e+003, 8.529261e-003
2.385513e+003, 9.061968e-003
2.387442e+003, 8.664304e-003
2.389370e+003, 8.717289e-003
2.391299e+003, 8.404528e-003
2.393227e+003, 8.600144e-003
2.395156e+003, 8.602672e-003
2.397084e+003, 8.753842e-003
2.399012e+003, 8.772508e-003
2.400941e+003, 9.020424e-003
2.402869e+003, 9.442626e-003
2.404798e+003, 9.208374e-003
2.406726e+003, 9.032669e-003
2.408655e+003, 9.633369e-003
2.410583e+003, 9.434091e-003
2.412512e+003, 9.484067e-003
2.414440e+003, 1.040968e-002
2.416369e+003, 1.065018e-002
2.418297e+003, 1.091895e-002
2.420226e+003, 1.129997e-002
2.422154e+003, 1.159895e-002
2.424083e+003, 1.061911e-002
2.426011e+003, 8.846672e-003
2.427939e+003, 9.288628e-003
2.429868e+003, 1.008441e-002
2.431796e+003, 9.448981e-003
2.433725e+003, 9.712232e-003
2.435653e+003, 1.064974e-002
2.437582e+003, 1.036916e-002
2.439510e+003, 9.607577e-003
2.441439e+003, 9.814128e-003
2.443367e+003, 1.085243e-002
2.445296e+003, 1.090946e-002
2.447224e+003, 1.143570e-002
2.449153e+003, 1.130675e-002
2.451081e+003, 1.102512e-002
2.453010e+003, 1.033613e-002
2.454938e+003, 1.063670e-002
2.456866e+003, 1.015027e-002
2.458795e+003, 1.010157e-002
2.460723e+003, 1.051972e-002
2.462652e+003, 1.133765e-002
2.464580e+003, 1.037870e-002
2.466509e+003, 9.727514e-003
2.468437e+003, 1.079589e-002
2.470366e+003, 9.922725e-003
2.472294e+003, 8.651953e-003
2.474223e+003, 8.468553e-003
2.476151e+003, 9.665781e-003
2.478080e+003, 1.034485e-002
2.480008e+003, 1.043878e-002
2.481937e+003, 1.048974e-002
2.483865e+003, 1.110440e-002
2.485793e+003, 9.945873e-003
2.487722e+003, 9.492476e-003
2.489650e+003, 1.047028e-002
2.491579e+003, 1.042830e-002
2.493507e+003, 1.088768e-002
2.495436e+003, 1.123591e-002
2.497364e+003, 1.044340e-002
2.499293e+003, 9.767228e-003
2.501221e+003, 1.009225e-002
2.503150e+003, 1.168773e-002
2.505078e+003, 1.200016e-002
2.507007e+003, 1.162959e-002
2.508935e+003, 1.129157e-002
2.510864e+003, 1.084792e-002
2.512792e+003, 1.052515e-002
2.514720e+003, 1.032730e-002
2.516649e+003, 1.126318e-002
2.518577e+003, 1.087914e-002
2.520506e+003, 1.086343e-002
2.522434e+003, 1.090998e-002
2.524363e+003, 1.085902e-002
2.526291e+003, 9.935834e-003
2.528220e+003, 1.007470e-002
2.530148e+003, 1.179439e-002
2.532077e+003, 1.114974e-002
2.534005e+003, 1.102397e-002
2.535934e+003, 1.156591e-002
2.537862e+003, 1.094172e-002
2.539791e+003, 1.029935e-002
2.541719e+003, 1.091727e-002
2.543647e+003, 1.149855e-002
2.545576e+003, 1.171686e-002
2.547504e+003, 1.248533e-002
2.549433e+003, 1.198120e-002
2.551361e+003, 1.032520e-002
2.553290e+003, 1.017990e-002
2.555218e+003, 1.141432e-002
2.557147e+003, 1.169117e-002
2.559075e+003, 1.181088e-002
2.561004e+003, 1.194037e-002
2.562932e+003, 1.157989e-002
2.564861e+003, 1.034285e-002
2.566789e+003, 9.706235e-003
2.568718e+003, 1.045592e-002
2.570646e+003, 1.097253e-002
2.572574e+003, 1.082221e-002
2.574503e+003, 1.038372e-002
2.576431e+003, 1.066476e-002
2.578360e+003, 1.187216e-002
2.580288e+003, 1.249072e-002
2.582217e+003, 1.224278e-002
2.584145e+003, 1.131579e-002
2.586074e+003, 1.176896e-002
2.588002e+003, 1.215466e-002
2.589931e+003, 1.219312e-002
2.591859e+003, 1.211999e-002
2.593788e+003, 1.108493e-002
2.595716e+003, 1.080172e-002
2.597645e+003, 1.150506e-002
2.599573e+003, 1.205768e-002
2.601501e+003, 1.153120e-002
2.603430e+003, 1.110279e-002
2.605358e+003, 1.079417e-002
2.607287e+003, 1.020060e-002
2.609215e+003, 1.060689e-002
2.611144e+003, 1.219355e-002
2.613072e+003, 1.375049e-002
2.615001e+003, 1.290420e-002
2.616929e+003, 1.139086e-002
2.618858e+003, 1.161778e-002
2.620786e+003, 1.201258e-002
2.622715e+003, 1.207842e-002
2.624643e+003, 1.280877e-002
2.626572e+003, 1.261850e-002
2.628500e+003, 1.232672e-002
2.630428e+003, 1.250300e-002
2.632357e+003, 1.182341e-002
2.634285e+003, 1.119119e-002
2.636214e+003, 1.168789e-002
2.638142e+003, 1.216122e-002
2.640071e+003, 1.210106e-002
2.641999e+003, 1.217148e-002
2.643928e+003, 1.298014e-002
2.645856e+003, 1.349156e-002
2.647785e+003, 1.334579e-002
2.649713e+003, 1.250794e-002
2.651642e+003, 1.247797e-002
2.653570e+003, 1.181760e-002
2.655499e+003, 1.214154e-002
2.657427e+003, 1.322204e-002
2.659355e+003, 1.329206e-002
2.661284e+003, 1.315658e-002
2.663212e+003, 1.205260e-002
2.665141e+003, 1.122320e-002
2.667069e+003, 1.168703e-002
2.668998e+003, 1.251914e-002
2.670926e+003, 1.226655e-002
2.672855e+003, 1.058331e-002
2.674783e+003, 1.067717e-002
2.676712e+003, 1.137698e-002
2.678640e+003, 1.100316e-002
2.680569e+003, 1.156667e-002
2.682497e+003, 1.238086e-002
2.684426e+003, 1.166129e-002
2.686354e+003, 1.078382e-002
2.688282e+003, 1.132245e-002
2.690211e+003, 1.202428e-002
2.692139e+003, 1.185897e-002
2.694068e+003, 1.136710e-002
2.695996e+003, 1.201223e-002
2.697925e+003, 1.265248e-002
2.699853e+003, 1.211980e-002
2.701782e+003, 1.152711e-002
2.703710e+003, 1.140733e-002
2.705639e+003, 1.168309e-002
2.707567e+003, 1.201729e-002
2.709496e+003, 1.197570e-002
2.711424e+003, 1.182649e-002
2.713353e+003, 1.172757e-002
2.715281e+003, 1.155509e-002
2.717209e+003, 1.208528e-002
2.719138e+003, 1.237643e-002
2.721066e+003, 1.162797e-002
2.722995e+003, 1.195998e-002
2.724923e+003, 1.205127e-002
2.726852e+003, 1.146191e-002
2.728780e+003, 1.179324e-002
2.730709e+003, 1.241200e-002
2.732637e+003, 1.292529e-002
2.734566e+003, 1.270278e-002
2.736494e+003, 1.259746e-002
2.738423e+003, 1.325145e-002
2.740351e+003, 1.320689e-002
2.742280e+003, 1.360691e-002
2.744208e+003, 1.361399e-002
2.746136e+003, 1.293597e-002
2.748065e+003, 1.244571e-002
2.749993e+003, 1.223708e-002
2.751922e+003, 1.220513e-002
2.753850e+003, 1.218815e-002
2.755779e+003, 1.287442e-002
2.757707e+003, 1.261191e-002
2.759636e+003, 1.252519e-002
2.761564e+003, 1.206691e-002
2.763493e+003, 1.199746e-002
2.765421e+003, 1.245738e-002
2.767350e+003, 1.237749e-002
2.769278e+003, 1.303088e-002
2.771207e+003, 1.353025e-002
2.773135e+003, 1.343104e-002
2.775063e+003, 1.306108e-002
2.776992e+003, 1.300728e-002
2.778920e+003, 1.302748e-002
2.780849e+003, 1.288220e-002
2.782777e+003, 1.298936e-002
2.784706e+003, 1.248570e-002
2.786634e+003, 1.250937e-002
2.788563e+003, 1.294576e-002
2.790491e+003, 1.241374e-002
2.792420e+003, 1.257077e-002
2.794348e+003, 1.326305e-002
2.796277e+003, 1.314313e-002
2.798205e+003, 1.242501e-002
2.800134e+003, 1.250181e-002
2.802062e+003, 1.362109e-002
2.803990e+003, 1.397467e-002
2.805919e+003, 1.373349e-002
2.807847e+003, 1.336653e-002
2.809776e+003, 1.346852e-002
2.811704e+003, 1.358205e-002
2.813633e+003, 1.384761e-002
2.815561e+003, 1.364615e-002
2.817490e+003, 1.282409e-002
2.819418e+003, 1.195184e-002
2.821347e+003, 1.218017e-002
2.823275e+003, 1.319570e-002
2.825204e+003, 1.428115e-002
2.827132e+003, 1.491000e-002
2.829061e+003, 1.392440e-002
2.830989e+003, 1.398758e-002
2.832917e+003, 1.513189e-002
2.834846e+003, 1.437845e-002
2.836774e+003, 1.303440e-002
2.838703e+003, 1.396472e-002
2.840631e+003, 1.479772e-002
2.842560e+003, 1.471902e-002
2.844488e+003, 1.471298e-002
2.846417e+003, 1.449468e-002
2.848345e+003, 1.508980e-002
2.850274e+003, 1.583798e-002
2.852202e+003, 1.596759e-002
2.854131e+003, 1.554451e-002
2.856059e+003, 1.556968e-002
2.857988e+003, 1.595106e-002
2.859916e+003, 1.597997e-002
2.861844e+003, 1.541274e-002
2.863773e+003, 1.495399e-002
2.865701e+003, 1.496714e-002
2.867630e+003, 1.476836e-002
2.869558e+003, 1.527033e-002
2.871487e+003, 1.600838e-002
2.873415e+003, 1.553434e-002
2.875344e+003, 1.497314e-002
2.877272e+003, 1.478965e-002
2.879201e+003, 1.419308e-002
2.881129e+003, 1.500424e-002
2.883058e+003, 1.581543e-002
2.884986e+003, 1.529582e-002
2.886915e+003, 1.516197e-002
2.888843e+003, 1.499733e-002
2.890771e+003, 1.544459e-002
2.892700e+003, 1.671638e-002
2.894628e+003, 1.814164e-002
2.896557e+003, 1.818654e-002
2.898485e+003, 1.685746e-002
2.900414e+003, 1.589001e-002
2.902342e+003, 1.615829e-002
2.904271e+003, 1.633873e-002
2.906199e+003, 1.700099e-002
2.908128e+003, 1.641344e-002
2.910056e+003, 1.561303e-002
2.911985e+003, 1.692766e-002
2.913913e+003, 1.756919e-002
2.915842e+003, 1.872045e-002
2.917770e+003, 1.923127e-002
2.919698e+003, 1.961275e-002
2.921627e+003, 1.914966e-002
2.923555e+003, 1.822446e-002
2.925484e+003, 1.736859e-002
2.927412e+003, 1.827202e-002
2.929341e+003, 1.803457e-002
2.931269e+003, 1.688464e-002
2.933198e+003, 1.603921e-002
2.935126e+003, 1.660887e-002
2.937055e+003, 1.699627e-002
2.938983e+003, 1.618396e-002
2.940912e+003, 1.670509e-002
2.942840e+003, 1.706493e-002
2.944769e+003, 1.677554e-002
2.946697e+003, 1.664260e-002
2.948625e+003, 1.561048e-002
2.950554e+003, 1.593434e-002
2.952482e+003, 1.637095e-002
2.954411e+003, 1.610207e-002
2.956339e+003, 1.644254e-002
2.958268e+003, 1.656923e-002
2.960196e+003, 1.638113e-002
2.962125e+003, 1.565771e-002
2.964053e+003, 1.516815e-002
2.965982e+003, 1.572007e-002
2.967910e+003, 1.627782e-002
2.969839e+003, 1.640489e-002
2.971767e+003, 1.572572e-002
2.973696e+003, 1.562302e-002
2.975624e+003, 1.518815e-002
2.977552e+003, 1.453453e-002
2.979481e+003, 1.471128e-002
2.981409e+003, 1.518609e-002
2.983338e+003, 1.544318e-002
2.985266e+003, 1.583330e-002
2.987195e+003, 1.757413e-002
2.989123e+003, 1.782483e-002
2.991052e+003, 1.667003e-002
2.992980e+003, 1.685135e-002
2.994909e+003, 1.770280e-002
2.996837e+003, 1.625256e-002
2.998766e+003, 1.500248e-002
3.000694e+003, 1.546209e-002
3.002623e+003, 1.524754e-002
3.004551e+003, 1.592460e-002
3.006479e+003, 1.691999e-002
3.008408e+003, 1.643512e-002
3.010336e+003, 1.605704e-002
3.012265e+003, 1.571524e-002
3.014193e+003, 1.590827e-002
3.016122e+003, 1.727204e-002
3.018050e+003, 1.809730e-002
3.019979e+003, 1.841215e-002
3.021907e+003, 1.816185e-002
3.023836e+003, 1.840203e-002
3.025764e+003, 1.810188e-002
3.027693e+003, 1.697332e-002
3.029621e+003, 1.618287e-002
3.031550e+003, 1.691537e-002
3.033478e+003, 1.718221e-002
3.035406e+003, 1.733356e-002
3.037335e+003, 1.797286e-002
3.039263e+003, 1.695617e-002
3.041192e+003, 1.551986e-002
3.043120e+003, 1.707993e-002
3.045049e+003, 1.852100e-002
3.046977e+003, 1.800986e-002
3.048906e+003, 1.770025e-002
3.050834e+003, 1.736614e-002
3.052763e+003, 1.583214e-002
3.054691e+003, 1.589520e-002
3.056620e+003, 1.754233e-002
3.058548e+003, 1.797398e-002
3.060477e+003, 1.729425e-002
3.062405e+003, 1.779178e-002
3.064333e+003, 1.791495e-002
3.066262e+003, 1.907993e-002
3.068190e+003, 1.958952e-002
3.070119e+003, 1.849121e-002
3.072047e+003, 1.709020e-002
3.073976e+003, 1.885932e-002
3.075904e+003, 1.846974e-002
3.077833e+003, 1.801372e-002
3.079761e+003, 1.957776e-002
3.081690e+003, 1.949449e-002
3.083618e+003, 1.823938e-002
3.085547e+003, 1.834697e-002
3.087475e+003, 1.898105e-002
3.089404e+003, 1.882462e-002
3.091332e+003, 1.949676e-002
3.093260e+003, 2.112895e-002
3.095189e+003, 2.049375e-002
3.097117e+003, 1.925028e-002
3.099046e+003, 1.979580e-002
3.100974e+003, 1.908593e-002
3.102903e+003, 1.882722e-002
3.104831e+003, 1.986021e-002
3.106760e+003, 1.975565e-002
3.108688e+003, 1.853501e-002
3.110617e+003, 1.787406e-002
3.112545e+003, 1.783278e-002
3.114474e+003, 1.958063e-002
3.116402e+003, 1.949815e-002
3.118331e+003, 1.728594e-002
3.120259e+003, 1.750168e-002
3.122188e+003, 1.948209e-002
3.124116e+003, 2.032061e-002
3.126044e+003, 1.997067e-002
3.127973e+003, 1.922392e-002
3.129901e+003, 1.881773e-002
3.131830e+003, 1.973281e-002
3.133758e+003, 2.080078e-002
3.135687e+003, 2.003554e-002
3.137615e+003, 1.849490e-002
3.139544e+003, 1.945721e-002
3.141472e+003, 2.118844e-002
3.143401e+003, 2.059777e-002
3.145329e+003, 2.004544e-002
3.147258e+003, 1.913029e-002
3.149186e+003, 1.861928e-002
3.151115e+003, 1.823563e-002
3.153043e+003, 1.862418e-002
3.154971e+003, 2.031971e-002
3.156900e+003, 2.189925e-002
3.158828e+003, 2.194294e-002
3.160757e+003, 2.114153e-002
3.162685e+003, 2.059233e-002
3.164614e+003, 2.011929e-002
3.166542e+003, 2.011781e-002
3.168471e+003, 2.074073e-002
3.170399e+003, 2.077895e-002
3.172328e+003, 2.095455e-002
3.174256e+003, 2.110515e-002
3.176185e+003, 1.996604e-002
3.178113e+003, 1.771887e-002
3.180042e+003, 1.903030e-002
3.181970e+003, 2.157328e-002
3.183898e+003, 2.223136e-002
3.185827e+003, 2.199760e-002
3.187755e+003, 2.319576e-002
3.189684e+003, 2.361685e-002
3.191612e+003, 2.165649e-002
3.193541e+003, 2.090956e-002
3.195469e+003, 2.169750e-002
3.197398e+003, 2.170327e-002
3.199326e+003, 2.109510e-002
3.201255e+003, 2.063330e-002
3.203183e+003, 2.141151e-002
3.205112e+003, 2.185423e-002
3.207040e+003, 2.193766e-002
3.208969e+003, 2.176583e-002
3.210897e+003, 2.153492e-002
3.212825e+003, 2.059097e-002
3.214754e+003, 2.053469e-002
3.216682e+003, 2.185767e-002
3.218611e+003, 2.204042e-002
3.220539e+003, 2.146977e-002
3.222468e+003, 2.303027e-002
3.224396e+003, 2.365936e-002
3.226325e+003, 2.255444e-002
3.228253e+003, 2.355853e-002
3.230182e+003, 2.309933e-002
3.232110e+003, 2.215963e-002
3.234039e+003, 2.148751e-002
3.235967e+003, 2.252858e-002
3.237896e+003, 2.156772e-002
3.239824e+003, 2.175553e-002
3.241752e+003, 2.368971e-002
3.243681e+003, 2.320766e-002
3.245609e+003, 2.152104e-002
3.247538e+003, 2.225042e-002
3.249466e+003, 2.288866e-002
3.251395e+003, 2.176146e-002
3.253323e+003, 2.205935e-002
3.255252e+003, 2.362811e-002
3.257180e+003, 2.399310e-002
3.259109e+003, 2.352094e-002
3.261037e+003, 2.422507e-002
3.262966e+003, 2.535503e-002
3.264894e+003, 2.370745e-002
3.266823e+003, 2.200004e-002
3.268751e+003, 2.140222e-002
3.270679e+003, 2.172546e-002
3.272608e+003, 2.185267e-002
3.274536e+003, 2.117787e-002
3.276465e+003, 2.326819e-002
3.278393e+003, 2.570175e-002
3.280322e+003, 2.480358e-002
3.282250e+003, 2.193561e-002
3.284179e+003, 2.057845e-002
3.286107e+003, 2.189306e-002
3.288036e+003, 2.220796e-002
3.289964e+003, 2.320428e-002
3.291893e+003, 2.556327e-002
3.293821e+003, 2.626271e-002
3.295750e+003, 2.432375e-002
3.297678e+003, 2.405895e-002
3.299606e+003, 2.393460e-002
3.301535e+003, 2.238191e-002
3.303463e+003, 2.257700e-002
3.305392e+003, 2.299410e-002
3.307320e+003, 2.371401e-002
3.309249e+003, 2.451506e-002
3.311177e+003, 2.390686e-002
3.313106e+003, 2.225152e-002
3.315034e+003, 2.147044e-002
3.316963e+003, 2.290485e-002
3.318891e+003, 2.170662e-002
3.320820e+003, 2.183318e-002
3.322748e+003, 2.353980e-002
3.324677e+003, 2.305136e-002
3.326605e+003, 2.440406e-002
3.328533e+003, 2.390233e-002
3.330462e+003, 2.437747e-002
3.332390e+003, 2.473839e-002
3.334319e+003, 2.443289e-002
3.336247e+003, 2.415958e-002
3.338176e+003, 2.411698e-002
3.340104e+003, 2.373802e-002
3.342033e+003, 2.261912e-002
3.343961e+003, 2.326523e-002
3.345890e+003, 2.206914e-002
3.347818e+003, 2.093748e-002
3.349747e+003, 2.216129e-002
3.351675e+003, 2.385615e-002
3.353604e+003, 2.475752e-002
3.355532e+003, 2.525642e-002
3.357460e+003, 2.535266e-002
3.359389e+003, 2.558561e-002
3.361317e+003, 2.293460e-002
3.363246e+003, 2.297946e-002
3.365174e+003, 2.451102e-002
3.367103e+003, 2.369119e-002
3.369031e+003, 2.297136e-002
3.370960e+003, 2.244045e-002
3.372888e+003, 2.213591e-002
3.374817e+003, 2.291710e-002
3.376745e+003, 2.320718e-002
3.378674e+003, 2.480470e-002
3.380602e+003, 2.620083e-002
3.382531e+003, 2.530250e-002
3.384459e+003, 2.497390e-002
3.386387e+003, 2.801505e-002
3.388316e+003, 2.833919e-002
3.390244e+003, 2.476604e-002
3.392173e+003, 2.446709e-002
3.394101e+003, 2.603311e-002
3.396030e+003, 2.591460e-002
3.397958e+003, 2.296458e-002
3.399887e+003, 2.352005e-002
3.401815e+003, 2.554056e-002
3.403744e+003, 2.621785e-002
3.405672e+003, 2.590814e-002
3.407601e+003, 2.380081e-002
3.409529e+003, 2.337832e-002
3.411458e+003, 2.305833e-002
3.413386e+003, 2.239504e-002
3.415314e+003, 2.191594e-002
3.417243e+003, 2.279340e-002
3.419171e+003, 2.432010e-002
3.421100e+003, 2.554892e-002
3.423028e+003, 2.492110e-002
3.424957e+003, 2.407116e-002
3.426885e+003, 2.596806e-002
3.428814e+003, 2.642206e-002
3.430742e+003, 2.540827e-002
3.432671e+003, 2.505978e-002
3.434599e+003, 2.473411e-002
3.436528e+003, 2.545865e-002
3.438456e+003, 2.473014e-002
3.440385e+003, 2.219968e-002
3.442313e+003, 2.273698e-002
3.444241e+003, 2.414012e-002
3.446170e+003, 2.289510e-002
3.448098e+003, 2.230709e-002
3.450027e+003, 2.351213e-002
3.451955e+003, 2.428904e-002
3.453884e+003, 2.449255e-002
3.455812e+003, 2.347083e-002
3.457741e+003, 2.451280e-002
3.459669e+003, 2.515896e-002
3.461598e+003, 2.481566e-002
3.463526e+003, 2.366031e-002
3.465455e+003, 2.262475e-002
3.467383e+003, 2.458034e-002
3.469312e+003, 2.689374e-002
3.471240e+003, 2.596128e-002
3.473168e+003, 2.474032e-002
3.475097e+003, 2.365362e-002
3.477025e+003, 2.349905e-002
3.478954e+003, 2.429099e-002
3.480882e+003, 2.546699e-002
3.482811e+003, 2.417099e-002
3.484739e+003, 2.178618e-002
3.486668e+003, 2.098215e-002
3.488596e+003, 2.294962e-002
3.490525e+003, 2.328384e-002
3.492453e+003, 2.197987e-002
3.494382e+003, 2.037996e-002
3.496310e+003, 1.828464e-002
3.498239e+003, 1.739307e-002
3.500167e+003, 1.880845e-002
3.502095e+003, 2.064913e-002
3.504024e+003, 2.083198e-002
3.505952e+003, 2.136501e-002
3.507881e+003, 2.117038e-002
3.509809e+003, 2.275153e-002
3.511738e+003, 2.338151e-002
3.513666e+003, 2.245691e-002
3.515595e+003, 2.117098e-002
3.517523e+003, 1.957234e-002
3.519452e+003, 2.109194e-002
3.521380e+003, 2.242179e-002
3.523309e+003, 2.250610e-002
3.525237e+003, 2.321758e-002
3.527166e+003, 2.115025e-002
3.529094e+003, 1.930027e-002
3.531022e+003, 2.014644e-002
3.532951e+003, 2.138934e-002
3.534879e+003, 2.116896e-002
3.536808e+003, 2.173857e-002
3.538736e+003, 2.301831e-002
3.540665e+003, 2.503163e-002
3.542593e+003, 2.401158e-002
3.544522e+003, 2.207594e-002
3.546450e+003, 2.280276e-002
3.548379e+003, 2.157979e-002
3.550307e+003, 2.072616e-002
3.552236e+003, 2.236352e-002
3.554164e+003, 2.466798e-002
3.556093e+003, 2.480169e-002
3.558021e+003, 2.378401e-002
3.559949e+003, 2.344872e-002
3.561878e+003, 2.271463e-002
3.563806e+003, 2.094093e-002
3.565735e+003, 1.807228e-002
3.567663e+003, 1.744771e-002
3.569592e+003, 1.745535e-002
3.571520e+003, 1.849244e-002
3.573449e+003, 2.101631e-002
3.575377e+003, 2.186425e-002
3.577306e+003, 2.144683e-002
3.579234e+003, 2.142857e-002
3.581163e+003, 2.165872e-002
3.583091e+003, 2.187000e-002
3.585020e+003, 2.150536e-002
3.586948e+003, 2.038557e-002
3.588876e+003, 2.067547e-002
3.590805e+003, 1.827338e-002
3.592733e+003, 1.821803e-002
3.594662e+003, 1.844497e-002
3.596590e+003, 1.771561e-002
3.598519e+003, 1.627420e-002
3.600447e+003, 1.446217e-002
3.602376e+003, 1.502273e-002
3.604304e+003, 1.647728e-002
3.606233e+003, 1.887050e-002
3.608161e+003, 2.132056e-002
3.610090e+003, 2.209132e-002
3.612018e+003, 2.046209e-002
3.613947e+003, 2.109294e-002
3.615875e+003, 2.157505e-002
3.617803e+003, 1.903309e-002
3.619732e+003, 1.659011e-002
3.621660e+003, 1.714429e-002
3.623589e+003, 2.088567e-002
3.625517e+003, 2.053065e-002
3.627446e+003, 1.907226e-002
3.629374e+003, 1.997279e-002
3.631303e+003, 1.948486e-002
3.633231e+003, 1.765783e-002
3.635160e+003, 1.789779e-002
3.637088e+003, 1.914528e-002
3.639017e+003, 1.900129e-002
3.640945e+003, 2.056656e-002
3.642874e+003, 2.330966e-002
3.644802e+003, 2.275943e-002
3.646730e+003, 1.990164e-002
3.648659e+003, 1.778868e-002
3.650587e+003, 1.860025e-002
3.652516e+003, 2.052734e-002
3.654444e+003, 1.961332e-002
3.656373e+003, 1.918781e-002
3.658301e+003, 2.004605e-002
3.660230e+003, 2.190820e-002
3.662158e+003, 2.450058e-002
3.664087e+003, 2.537712e-002
3.666015e+003, 2.447926e-002
3.667944e+003, 2.654786e-002
3.669872e+003, 3.087183e-002
3.671801e+003, 3.217712e-002
3.673729e+003, 3.123283e-002
3.675657e+003, 2.667725e-002
3.677586e+003, 2.315589e-002
3.679514e+003, 2.292548e-002
3.681443e+003, 2.396255e-002
3.683371e+003, 2.120179e-002
3.685300e+003, 1.827125e-002
3.687228e+003, 1.869077e-002
3.689157e+003, 2.258669e-002
3.691085e+003, 2.184255e-002
3.693014e+003, 1.893936e-002
3.694942e+003, 1.944523e-002
3.696871e+003, 2.092826e-002
3.698799e+003, 2.029626e-002
3.700728e+003, 2.011015e-002
3.702656e+003, 2.165758e-002
3.704584e+003, 1.968285e-002
3.706513e+003, 1.874305e-002
3.708441e+003, 2.118822e-002
3.710370e+003, 2.204628e-002
3.712298e+003, 2.017839e-002
3.714227e+003, 1.785983e-002
3.716155e+003, 1.659869e-002
3.718084e+003, 1.715481e-002
3.720012e+003, 1.790211e-002
3.721941e+003, 1.522926e-002
3.723869e+003, 1.389314e-002
3.725798e+003, 1.422386e-002
3.727726e+003, 1.450338e-002
3.729655e+003, 1.691483e-002
3.731583e+003, 1.823561e-002
3.733511e+003, 1.851579e-002
3.735440e+003, 1.376192e-002
3.737368e+003, 1.115284e-002
3.739297e+003, 1.251871e-002
3.741225e+003, 1.672206e-002
3.743154e+003, 2.007787e-002
3.745082e+003, 2.080812e-002
3.747011e+003, 1.930347e-002
3.748939e+003, 1.817320e-002
3.750868e+003, 1.909685e-002
3.752796e+003, 1.761535e-002
3.754725e+003, 1.677398e-002
3.756653e+003, 1.735591e-002
3.758582e+003, 1.447956e-002
3.760510e+003, 1.311141e-002
3.762438e+003, 1.452511e-002
3.764367e+003, 1.630626e-002
3.766295e+003, 1.721670e-002
3.768224e+003, 1.921061e-002
3.770152e+003, 2.207897e-002
3.772081e+003, 2.323041e-002
3.774009e+003, 2.057017e-002
3.775938e+003, 1.867823e-002
3.777866e+003, 1.798157e-002
3.779795e+003, 1.853290e-002
3.781723e+003, 2.147488e-002
3.783652e+003, 2.439559e-002
3.785580e+003, 2.007446e-002
3.787509e+003, 1.589906e-002
3.789437e+003, 1.539200e-002
3.791365e+003, 1.564852e-002
3.793294e+003, 1.526406e-002
3.795222e+003, 1.596598e-002
3.797151e+003, 1.753882e-002
3.799079e+003, 1.514124e-002
3.801008e+003, 1.543621e-002
3.802936e+003, 1.513449e-002
3.804865e+003, 1.736919e-002
3.806793e+003, 2.100356e-002
3.808722e+003, 2.101433e-002
3.810650e+003, 1.723522e-002
3.812579e+003, 1.603427e-002
3.814507e+003, 1.728778e-002
3.816436e+003, 1.834759e-002
3.818364e+003, 1.756558e-002
3.820292e+003, 1.653470e-002
3.822221e+003, 1.692044e-002
3.824149e+003, 1.757862e-002
3.826078e+003, 1.724159e-002
3.828006e+003, 1.737601e-002
3.829935e+003, 1.903686e-002
3.831863e+003, 1.802897e-002
3.833792e+003, 1.725632e-002
3.835720e+003, 1.956474e-002
3.837649e+003, 1.857301e-002
3.839577e+003, 1.722748e-002
3.841506e+003, 2.031395e-002
3.843434e+003, 2.229322e-002
3.845363e+003, 1.920659e-002
3.847291e+003, 1.769414e-002
3.849219e+003, 1.897468e-002
3.851148e+003, 2.111246e-002
3.853076e+003, 2.190219e-002
3.855005e+003, 1.989472e-002
3.856933e+003, 1.884740e-002
3.858862e+003, 1.931334e-002
3.860790e+003, 1.886418e-002
3.862719e+003, 1.602650e-002
3.864647e+003, 1.698329e-002
3.866576e+003, 1.712508e-002
3.868504e+003, 2.010124e-002
3.870433e+003, 2.113585e-002
3.872361e+003, 1.973398e-002
3.874290e+003, 1.843961e-002
3.876218e+003, 1.777188e-002
3.878146e+003, 1.739690e-002
3.880075e+003, 1.881292e-002
3.882003e+003, 1.908998e-002
3.883932e+003, 1.964451e-002
3.885860e+003, 1.996445e-002
3.887789e+003, 1.934019e-002
3.889717e+003, 2.129349e-002
3.891646e+003, 2.252909e-002
3.893574e+003, 2.227212e-002
3.895503e+003, 2.041749e-002
3.897431e+003, 2.027782e-002
3.899360e+003, 2.169095e-002
3.901288e+003, 1.820613e-002
3.903217e+003, 1.719773e-002
3.905145e+003, 1.887364e-002
3.907073e+003, 1.725226e-002
3.909002e+003, 1.906503e-002
3.910930e+003, 2.082812e-002
3.912859e+003, 1.942307e-002
3.914787e+003, 1.834688e-002
3.916716e+003, 1.912326e-002
3.918644e+003, 2.000282e-002
3.920573e+003, 2.251792e-002
3.922501e+003, 2.303650e-002
3.924430e+003, 2.137463e-002
3.926358e+003, 1.985410e-002
3.928287e+003, 1.961156e-002
3.930215e+003, 2.039027e-002
3.932144e+003, 1.691341e-002
3.934072e+003, 1.450502e-002
3.936000e+003, 1.567681e-002
3.937929e+003, 1.958830e-002
3.939857e+003, 1.875682e-002
3.941786e+003, 1.828397e-002
3.943714e+003, 1.687251e-002
3.945643e+003, 1.576706e-002
3.947571e+003, 1.629179e-002
3.949500e+003, 1.664830e-002
3.951428e+003, 1.906131e-002
3.953357e+003, 1.918493e-002
3.955285e+003, 1.898702e-002
3.957214e+003, 2.165396e-002
3.959142e+003, 2.235279e-002
3.961071e+003, 2.083395e-002
3.962999e+003, 1.991942e-002
3.964927e+003, 2.047955e-002
3.966856e+003, 2.179005e-002
3.968784e+003, 1.940009e-002
3.970713e+003, 1.924387e-002
3.972641e+003, 2.107015e-002
3.974570e+003, 1.704908e-002
3.976498e+003, 1.672605e-002
3.978427e+003, 1.923021e-002
3.980355e+003, 2.363456e-002
3.982284e+003, 2.396775e-002
3.984212e+003, 1.596276e-002
3.986141e+003, 1.346810e-002
3.988069e+003, 1.782204e-002
3.989998e+003, 1.896385e-002
3.991926e+003, 2.000741e-002
3.993854e+003, 2.002110e-002
3.995783e+003, 2.175307e-002
3.997711e+003, 2.390454e-002
3.999640e+003, 2.391608e-002
4.001568e+003, 0.000000e+000
##END=



