##NAMES=Aeschynite-(Y)
##RRUFFID=R080045
##IDEAL CHEMISTRY=(Y^3+^,Ca,Th^4+^)(Ti^4+^,Nb^5+^)_2_(O,OH)_6_
##LOCALITY=Hittero, Vest-Agder, Norway
##OWNER=RRUFF
##SOURCE=Herb Obodda
##DESCRIPTION=Light brown glassy, from black amorphous sample R060312 after heating at T = 850 C for 18 hours
##STATUS=The identification of this mineral has been confirmed only by X-ray diffraction
##URL=rruff.info/R080045
3.991926e+002, 2.692852e-001
4.011211e+002, 2.701876e-001
4.030495e+002, 2.643280e-001
4.049780e+002, 2.641357e-001
4.069065e+002, 2.688859e-001
4.088349e+002, 2.748893e-001
4.107634e+002, 2.730033e-001
4.126919e+002, 2.689489e-001
4.146203e+002, 2.698235e-001
4.165488e+002, 2.692047e-001
4.184773e+002, 2.670396e-001
4.204057e+002, 2.674460e-001
4.223342e+002, 2.643048e-001
4.242627e+002, 2.613024e-001
4.261911e+002, 2.595362e-001
4.281196e+002, 2.602945e-001
4.300481e+002, 2.603067e-001
4.319765e+002, 2.575403e-001
4.339050e+002, 2.563575e-001
4.358335e+002, 2.551903e-001
4.377619e+002, 2.530223e-001
4.396904e+002, 2.512984e-001
4.416189e+002, 2.511249e-001
4.435473e+002, 2.494819e-001
4.454758e+002, 2.475104e-001
4.474043e+002, 2.466599e-001
4.493327e+002, 2.468692e-001
4.512612e+002, 2.448944e-001
4.531897e+002, 2.423758e-001
4.551181e+002, 2.415098e-001
4.570466e+002, 2.392410e-001
4.589751e+002, 2.368520e-001
4.609035e+002, 2.354545e-001
4.628320e+002, 2.344691e-001
4.647605e+002, 2.343276e-001
4.666889e+002, 2.331025e-001
4.686174e+002, 2.308018e-001
4.705459e+002, 2.290089e-001
4.724743e+002, 2.286916e-001
4.744028e+002, 2.292352e-001
4.763313e+002, 2.280529e-001
4.782597e+002, 2.269655e-001
4.801882e+002, 2.267465e-001
4.821167e+002, 2.268291e-001
4.840451e+002, 2.270367e-001
4.859736e+002, 2.273446e-001
4.879021e+002, 2.287649e-001
4.898305e+002, 2.297182e-001
4.917590e+002, 2.292236e-001
4.936875e+002, 2.285779e-001
4.956159e+002, 2.292592e-001
4.975444e+002, 2.294754e-001
4.994729e+002, 2.295679e-001
5.014013e+002, 2.307171e-001
5.033298e+002, 2.311629e-001
5.052583e+002, 2.307627e-001
5.071867e+002, 2.305104e-001
5.091152e+002, 2.304140e-001
5.110437e+002, 2.312420e-001
5.129721e+002, 2.323098e-001
5.149006e+002, 2.325696e-001
5.168290e+002, 2.329175e-001
5.187575e+002, 2.332009e-001
5.206860e+002, 2.330606e-001
5.226144e+002, 2.338144e-001
5.245429e+002, 2.352198e-001
5.264714e+002, 2.352284e-001
5.283998e+002, 2.352439e-001
5.303283e+002, 2.365617e-001
5.322568e+002, 2.382331e-001
5.341852e+002, 2.388981e-001
5.361137e+002, 2.396727e-001
5.380422e+002, 2.399855e-001
5.399706e+002, 2.404849e-001
5.418991e+002, 2.417503e-001
5.438276e+002, 2.424527e-001
5.457560e+002, 2.424418e-001
5.476845e+002, 2.436083e-001
5.496130e+002, 2.442555e-001
5.515414e+002, 2.442770e-001
5.534699e+002, 2.447000e-001
5.553984e+002, 2.451829e-001
5.573268e+002, 2.450349e-001
5.592553e+002, 2.446384e-001
5.611838e+002, 2.440577e-001
5.631122e+002, 2.434530e-001
5.650407e+002, 2.436000e-001
5.669692e+002, 2.433377e-001
5.688976e+002, 2.428874e-001
5.708261e+002, 2.420990e-001
5.727546e+002, 2.415125e-001
5.746830e+002, 2.411611e-001
5.766115e+002, 2.404814e-001
5.785400e+002, 2.396723e-001
5.804684e+002, 2.389828e-001
5.823969e+002, 2.379384e-001
5.843254e+002, 2.369080e-001
5.862538e+002, 2.361150e-001
5.881823e+002, 2.352072e-001
5.901108e+002, 2.342984e-001
5.920392e+002, 2.331883e-001
5.939677e+002, 2.318017e-001
5.958962e+002, 2.305680e-001
5.978246e+002, 2.291470e-001
5.997531e+002, 2.278356e-001
6.016816e+002, 2.264207e-001
6.036100e+002, 2.250448e-001
6.055385e+002, 2.235757e-001
6.074670e+002, 2.220034e-001
6.093954e+002, 2.202979e-001
6.113239e+002, 2.186666e-001
6.132524e+002, 2.168280e-001
6.151808e+002, 2.148558e-001
6.171093e+002, 2.131916e-001
6.190378e+002, 2.112445e-001
6.209662e+002, 2.092683e-001
6.228947e+002, 2.071327e-001
6.248232e+002, 2.048820e-001
6.267516e+002, 2.030989e-001
6.286801e+002, 2.018121e-001
6.306086e+002, 2.005310e-001
6.325370e+002, 1.990021e-001
6.344655e+002, 1.975576e-001
6.363940e+002, 1.959486e-001
6.383224e+002, 1.942295e-001
6.402509e+002, 1.921618e-001
6.421794e+002, 1.900586e-001
6.441078e+002, 1.882303e-001
6.460363e+002, 1.860632e-001
6.479648e+002, 1.838654e-001
6.498932e+002, 1.818709e-001
6.518217e+002, 1.800200e-001
6.537502e+002, 1.780654e-001
6.556786e+002, 1.759497e-001
6.576071e+002, 1.740753e-001
6.595356e+002, 1.722883e-001
6.614641e+002, 1.701318e-001
6.633925e+002, 1.679619e-001
6.653210e+002, 1.659803e-001
6.672495e+002, 1.641148e-001
6.691779e+002, 1.616350e-001
6.711064e+002, 1.590139e-001
6.730349e+002, 1.565412e-001
6.749633e+002, 1.541240e-001
6.768918e+002, 1.517957e-001
6.788203e+002, 1.494978e-001
6.807487e+002, 1.469346e-001
6.826772e+002, 1.442868e-001
6.846057e+002, 1.415947e-001
6.865341e+002, 1.390791e-001
6.884626e+002, 1.365661e-001
6.903911e+002, 1.341302e-001
6.923195e+002, 1.319514e-001
6.942480e+002, 1.298963e-001
6.961765e+002, 1.277097e-001
6.981049e+002, 1.256523e-001
7.000334e+002, 1.238698e-001
7.019619e+002, 1.223312e-001
7.038903e+002, 1.210747e-001
7.058188e+002, 1.199768e-001
7.077473e+002, 1.189779e-001
7.096757e+002, 1.182351e-001
7.116042e+002, 1.179029e-001
7.135327e+002, 1.176880e-001
7.154611e+002, 1.173931e-001
7.173896e+002, 1.170404e-001
7.193181e+002, 1.167331e-001
7.212465e+002, 1.165334e-001
7.231750e+002, 1.164559e-001
7.251035e+002, 1.160961e-001
7.270319e+002, 1.156288e-001
7.289604e+002, 1.152216e-001
7.308889e+002, 1.146736e-001
7.328173e+002, 1.141121e-001
7.347458e+002, 1.136731e-001
7.366743e+002, 1.131907e-001
7.386027e+002, 1.125497e-001
7.405312e+002, 1.119133e-001
7.424597e+002, 1.112617e-001
7.443881e+002, 1.106900e-001
7.463166e+002, 1.102813e-001
7.482451e+002, 1.097011e-001
7.501735e+002, 1.088790e-001
7.521020e+002, 1.081332e-001
7.540305e+002, 1.073559e-001
7.559589e+002, 1.066181e-001
7.578874e+002, 1.059776e-001
7.598159e+002, 1.053544e-001
7.617443e+002, 1.045055e-001
7.636728e+002, 1.035250e-001
7.656013e+002, 1.026531e-001
7.675297e+002, 1.019242e-001
7.694582e+002, 1.012409e-001
7.713867e+002, 1.005191e-001
7.733151e+002, 9.964460e-002
7.752436e+002, 9.876288e-002
7.771721e+002, 9.791341e-002
7.791005e+002, 9.706330e-002
7.810290e+002, 9.623793e-002
7.829575e+002, 9.539076e-002
7.848859e+002, 9.466267e-002
7.868144e+002, 9.398168e-002
7.887429e+002, 9.317703e-002
7.906713e+002, 9.251158e-002
7.925998e+002, 9.186275e-002
7.945283e+002, 9.111952e-002
7.964567e+002, 9.034240e-002
7.983852e+002, 8.948799e-002
8.003137e+002, 8.878861e-002
8.022421e+002, 8.812962e-002
8.041706e+002, 8.741383e-002
8.060991e+002, 8.659557e-002
8.080275e+002, 8.587674e-002
8.099560e+002, 8.531360e-002
8.118845e+002, 8.451804e-002
8.138129e+002, 8.350348e-002
8.157414e+002, 8.268344e-002
8.176699e+002, 8.197886e-002
8.195983e+002, 8.111240e-002
8.215268e+002, 8.025753e-002
8.234553e+002, 7.948770e-002
8.253837e+002, 7.862549e-002
8.273122e+002, 7.752912e-002
8.292407e+002, 7.622888e-002
8.311691e+002, 7.503200e-002
8.330976e+002, 7.385093e-002
8.350261e+002, 7.262792e-002
8.369545e+002, 7.118673e-002
8.388830e+002, 6.954850e-002
8.408115e+002, 6.783105e-002
8.427399e+002, 6.621858e-002
8.446684e+002, 6.445239e-002
8.465969e+002, 6.241452e-002
8.485253e+002, 6.036786e-002
8.504538e+002, 5.840744e-002
8.523823e+002, 5.636256e-002
8.543107e+002, 5.427664e-002
8.562392e+002, 5.231964e-002
8.581677e+002, 5.030353e-002
8.600961e+002, 4.841072e-002
8.620246e+002, 4.649360e-002
8.639531e+002, 4.464659e-002
8.658815e+002, 4.285957e-002
8.678100e+002, 4.101548e-002
8.697385e+002, 3.934795e-002
8.716669e+002, 3.789761e-002
8.735954e+002, 3.653315e-002
8.755239e+002, 3.510183e-002
8.774523e+002, 3.377299e-002
8.793808e+002, 3.247636e-002
8.813093e+002, 3.128976e-002
8.832377e+002, 3.022993e-002
8.851662e+002, 2.937529e-002
8.870947e+002, 2.856053e-002
8.890231e+002, 2.771493e-002
8.909516e+002, 2.708780e-002
8.928801e+002, 2.657343e-002
8.948085e+002, 2.579294e-002
8.967370e+002, 2.507535e-002
8.986655e+002, 2.459997e-002
9.005939e+002, 2.417013e-002
9.025224e+002, 2.364600e-002
9.044509e+002, 2.309629e-002
9.063793e+002, 2.269466e-002
9.083078e+002, 2.217547e-002
9.102363e+002, 2.171717e-002
9.121647e+002, 2.139723e-002
9.140932e+002, 2.101710e-002
9.160217e+002, 2.056473e-002
9.179501e+002, 2.023814e-002
9.198786e+002, 1.999994e-002
9.218071e+002, 1.970651e-002
9.237355e+002, 1.923843e-002
9.256640e+002, 1.898949e-002
9.275925e+002, 1.892142e-002
9.295209e+002, 1.883653e-002
9.314494e+002, 1.851550e-002
9.333779e+002, 1.814773e-002
9.353063e+002, 1.797977e-002
9.372348e+002, 1.787492e-002
9.391633e+002, 1.768936e-002
9.410917e+002, 1.749099e-002
9.430202e+002, 1.735927e-002
9.449487e+002, 1.716751e-002
9.468771e+002, 1.712689e-002
9.488056e+002, 1.700864e-002
9.507341e+002, 1.678099e-002
9.526625e+002, 1.668983e-002
9.545910e+002, 1.652838e-002
9.565195e+002, 1.660161e-002
9.584479e+002, 1.677065e-002
9.603764e+002, 1.662298e-002
9.623049e+002, 1.638426e-002
9.642333e+002, 1.635275e-002
9.661618e+002, 1.644527e-002
9.680903e+002, 1.642870e-002
9.700187e+002, 1.637280e-002
9.719472e+002, 1.627737e-002
9.738757e+002, 1.610320e-002
9.758041e+002, 1.604636e-002
9.777326e+002, 1.609008e-002
9.796611e+002, 1.622058e-002
9.815895e+002, 1.637416e-002
9.835180e+002, 1.645367e-002
9.854465e+002, 1.646778e-002
9.873749e+002, 1.646217e-002
9.893034e+002, 1.643131e-002
9.912319e+002, 1.637544e-002
9.931603e+002, 1.638754e-002
9.950888e+002, 1.642258e-002
9.970173e+002, 1.649741e-002
9.989457e+002, 1.651677e-002
1.000874e+003, 1.654153e-002
1.002803e+003, 1.644837e-002
1.004731e+003, 1.630551e-002
1.006660e+003, 1.624887e-002
1.008588e+003, 1.632624e-002
1.010517e+003, 1.644987e-002
1.012445e+003, 1.642057e-002
1.014373e+003, 1.636742e-002
1.016302e+003, 1.651151e-002
1.018230e+003, 1.668278e-002
1.020159e+003, 1.678297e-002
1.022087e+003, 1.658226e-002
1.024016e+003, 1.657766e-002
1.025944e+003, 1.682568e-002
1.027873e+003, 1.690421e-002
1.029801e+003, 1.690403e-002
1.031730e+003, 1.702410e-002
1.033658e+003, 1.698018e-002
1.035587e+003, 1.684758e-002
1.037515e+003, 1.683627e-002
1.039443e+003, 1.687103e-002
1.041372e+003, 1.686898e-002
1.043300e+003, 1.686327e-002
1.045229e+003, 1.697291e-002
1.047157e+003, 1.717030e-002
1.049086e+003, 1.740690e-002
1.051014e+003, 1.746875e-002
1.052943e+003, 1.761602e-002
1.054871e+003, 1.780701e-002
1.056800e+003, 1.786447e-002
1.058728e+003, 1.786213e-002
1.060657e+003, 1.780622e-002
1.062585e+003, 1.769948e-002
1.064514e+003, 1.760909e-002
1.066442e+003, 1.767168e-002
1.068370e+003, 1.765498e-002
1.070299e+003, 1.751426e-002
1.072227e+003, 1.738972e-002
1.074156e+003, 1.732834e-002
1.076084e+003, 1.724054e-002
1.078013e+003, 1.715900e-002
1.079941e+003, 1.720098e-002
1.081870e+003, 1.720043e-002
1.083798e+003, 1.724837e-002
1.085727e+003, 1.723182e-002
1.087655e+003, 1.722550e-002
1.089584e+003, 1.720662e-002
1.091512e+003, 1.719012e-002
1.093441e+003, 1.727177e-002
1.095369e+003, 1.744754e-002
1.097297e+003, 1.750953e-002
1.099226e+003, 1.762940e-002
1.101154e+003, 1.772860e-002
1.103083e+003, 1.780273e-002
1.105011e+003, 1.778039e-002
1.106940e+003, 1.779673e-002
1.108868e+003, 1.791609e-002
1.110797e+003, 1.798686e-002
1.112725e+003, 1.801705e-002
1.114654e+003, 1.801370e-002
1.116582e+003, 1.804598e-002
1.118511e+003, 1.798595e-002
1.120439e+003, 1.786785e-002
1.122368e+003, 1.786516e-002
1.124296e+003, 1.796372e-002
1.126224e+003, 1.798923e-002
1.128153e+003, 1.798990e-002
1.130081e+003, 1.809827e-002
1.132010e+003, 1.818380e-002
1.133938e+003, 1.822983e-002
1.135867e+003, 1.830293e-002
1.137795e+003, 1.842588e-002
1.139724e+003, 1.855786e-002
1.141652e+003, 1.862842e-002
1.143581e+003, 1.876030e-002
1.145509e+003, 1.898582e-002
1.147438e+003, 1.905416e-002
1.149366e+003, 1.899906e-002
1.151295e+003, 1.893636e-002
1.153223e+003, 1.891975e-002
1.155151e+003, 1.897031e-002
1.157080e+003, 1.905987e-002
1.159008e+003, 1.907835e-002
1.160937e+003, 1.903867e-002
1.162865e+003, 1.897723e-002
1.164794e+003, 1.893858e-002
1.166722e+003, 1.887760e-002
1.168651e+003, 1.884153e-002
1.170579e+003, 1.876411e-002
1.172508e+003, 1.872630e-002
1.174436e+003, 1.872036e-002
1.176365e+003, 1.872927e-002
1.178293e+003, 1.869987e-002
1.180222e+003, 1.870521e-002
1.182150e+003, 1.870364e-002
1.184078e+003, 1.874371e-002
1.186007e+003, 1.881145e-002
1.187935e+003, 1.885326e-002
1.189864e+003, 1.894624e-002
1.191792e+003, 1.903561e-002
1.193721e+003, 1.900593e-002
1.195649e+003, 1.893899e-002
1.197578e+003, 1.887481e-002
1.199506e+003, 1.883573e-002
1.201435e+003, 1.879040e-002
1.203363e+003, 1.865046e-002
1.205292e+003, 1.857631e-002
1.207220e+003, 1.857665e-002
1.209149e+003, 1.843492e-002
1.211077e+003, 1.845622e-002
1.213005e+003, 1.849959e-002
1.214934e+003, 1.851812e-002
1.216862e+003, 1.855169e-002
1.218791e+003, 1.858569e-002
1.220719e+003, 1.859038e-002
1.222648e+003, 1.870648e-002
1.224576e+003, 1.893487e-002
1.226505e+003, 1.910844e-002
1.228433e+003, 1.918476e-002
1.230362e+003, 1.932642e-002
1.232290e+003, 1.954187e-002
1.234219e+003, 1.970315e-002
1.236147e+003, 1.980860e-002
1.238076e+003, 1.985764e-002
1.240004e+003, 1.992570e-002
1.241932e+003, 2.006482e-002
1.243861e+003, 2.018180e-002
1.245789e+003, 2.022971e-002
1.247718e+003, 2.022695e-002
1.249646e+003, 2.025692e-002
1.251575e+003, 2.025043e-002
1.253503e+003, 2.027659e-002
1.255432e+003, 2.032381e-002
1.257360e+003, 2.041492e-002
1.259289e+003, 2.055960e-002
1.261217e+003, 2.076272e-002
1.263146e+003, 2.087715e-002
1.265074e+003, 2.097382e-002
1.267003e+003, 2.096152e-002
1.268931e+003, 2.099579e-002
1.270859e+003, 2.118612e-002
1.272788e+003, 2.119587e-002
1.274716e+003, 2.119981e-002
1.276645e+003, 2.132151e-002
1.278573e+003, 2.131898e-002
1.280502e+003, 2.126178e-002
1.282430e+003, 2.142016e-002
1.284359e+003, 2.157100e-002
1.286287e+003, 2.150261e-002
1.288216e+003, 2.154208e-002
1.290144e+003, 2.172242e-002
1.292073e+003, 2.188953e-002
1.294001e+003, 2.201186e-002
1.295930e+003, 2.211366e-002
1.297858e+003, 2.216929e-002
1.299786e+003, 2.230406e-002
1.301715e+003, 2.254659e-002
1.303643e+003, 2.280147e-002
1.305572e+003, 2.298781e-002
1.307500e+003, 2.307004e-002
1.309429e+003, 2.325166e-002
1.311357e+003, 2.344504e-002
1.313286e+003, 2.364100e-002
1.315214e+003, 2.373145e-002
1.317143e+003, 2.375379e-002
1.319071e+003, 2.398719e-002
1.321000e+003, 2.417299e-002
1.322928e+003, 2.435360e-002
1.324857e+003, 2.452133e-002
1.326785e+003, 2.460437e-002
1.328714e+003, 2.470363e-002
1.330642e+003, 2.489049e-002
1.332570e+003, 2.515262e-002
1.334499e+003, 2.539572e-002
1.336427e+003, 2.564565e-002
1.338356e+003, 2.585811e-002
1.340284e+003, 2.612817e-002
1.342213e+003, 2.624135e-002
1.344141e+003, 2.625008e-002
1.346070e+003, 2.641604e-002
1.347998e+003, 2.674027e-002
1.349927e+003, 2.693708e-002
1.351855e+003, 2.704080e-002
1.353784e+003, 2.729825e-002
1.355712e+003, 2.750463e-002
1.357641e+003, 2.764727e-002
1.359569e+003, 2.800067e-002
1.361497e+003, 2.826664e-002
1.363426e+003, 2.839065e-002
1.365354e+003, 2.860459e-002
1.367283e+003, 2.877242e-002
1.369211e+003, 2.904934e-002
1.371140e+003, 2.930015e-002
1.373068e+003, 2.942610e-002
1.374997e+003, 2.952692e-002
1.376925e+003, 2.971273e-002
1.378854e+003, 2.991464e-002
1.380782e+003, 3.000073e-002
1.382711e+003, 3.005471e-002
1.384639e+003, 3.025192e-002
1.386568e+003, 3.055278e-002
1.388496e+003, 3.071120e-002
1.390424e+003, 3.089281e-002
1.392353e+003, 3.104778e-002
1.394281e+003, 3.125197e-002
1.396210e+003, 3.135375e-002
1.398138e+003, 3.150215e-002
1.400067e+003, 3.163028e-002
1.401995e+003, 3.180134e-002
1.403924e+003, 3.207508e-002
1.405852e+003, 3.222756e-002
1.407781e+003, 3.236388e-002
1.409709e+003, 3.258898e-002
1.411638e+003, 3.276287e-002
1.413566e+003, 3.273737e-002
1.415495e+003, 3.284036e-002
1.417423e+003, 3.323165e-002
1.419351e+003, 3.356001e-002
1.421280e+003, 3.355698e-002
1.423208e+003, 3.371201e-002
1.425137e+003, 3.390801e-002
1.427065e+003, 3.394281e-002
1.428994e+003, 3.421613e-002
1.430922e+003, 3.454338e-002
1.432851e+003, 3.472978e-002
1.434779e+003, 3.498778e-002
1.436708e+003, 3.522674e-002
1.438636e+003, 3.512672e-002
1.440565e+003, 3.516290e-002
1.442493e+003, 3.548284e-002
1.444422e+003, 3.568179e-002
1.446350e+003, 3.576651e-002
1.448278e+003, 3.597332e-002
1.450207e+003, 3.604987e-002
1.452135e+003, 3.612241e-002
1.454064e+003, 3.637695e-002
1.455992e+003, 3.682714e-002
1.457921e+003, 3.684418e-002
1.459849e+003, 3.656872e-002
1.461778e+003, 3.649066e-002
1.463706e+003, 3.656881e-002
1.465635e+003, 3.641918e-002
1.467563e+003, 3.601611e-002
1.469492e+003, 3.584879e-002
1.471420e+003, 3.594999e-002
1.473349e+003, 3.599354e-002
1.475277e+003, 3.591966e-002
1.477205e+003, 3.582158e-002
1.479134e+003, 3.585782e-002
1.481062e+003, 3.602943e-002
1.482991e+003, 3.617359e-002
1.484919e+003, 3.621022e-002
1.486848e+003, 3.629476e-002
1.488776e+003, 3.641385e-002
1.490705e+003, 3.657217e-002
1.492633e+003, 3.657605e-002
1.494562e+003, 3.675850e-002
1.496490e+003, 3.702264e-002
1.498419e+003, 3.715482e-002
1.500347e+003, 3.718079e-002
1.502276e+003, 3.717667e-002
1.504204e+003, 3.750125e-002
1.506132e+003, 3.806405e-002
1.508061e+003, 3.821687e-002
1.509989e+003, 3.807764e-002
1.511918e+003, 3.814315e-002
1.513846e+003, 3.839427e-002
1.515775e+003, 3.871595e-002
1.517703e+003, 3.895964e-002
1.519632e+003, 3.933304e-002
1.521560e+003, 3.953805e-002
1.523489e+003, 3.938669e-002
1.525417e+003, 3.955993e-002
1.527346e+003, 3.985544e-002
1.529274e+003, 4.004854e-002
1.531203e+003, 4.026352e-002
1.533131e+003, 4.063624e-002
1.535059e+003, 4.075770e-002
1.536988e+003, 4.103215e-002
1.538916e+003, 4.178131e-002
1.540845e+003, 4.197433e-002
1.542773e+003, 4.176740e-002
1.544702e+003, 4.171471e-002
1.546630e+003, 4.172964e-002
1.548559e+003, 4.188542e-002
1.550487e+003, 4.200303e-002
1.552416e+003, 4.201515e-002
1.554344e+003, 4.218991e-002
1.556273e+003, 4.243243e-002
1.558201e+003, 4.297341e-002
1.560130e+003, 4.292129e-002
1.562058e+003, 4.230756e-002
1.563986e+003, 4.221398e-002
1.565915e+003, 4.234559e-002
1.567843e+003, 4.246132e-002
1.569772e+003, 4.257700e-002
1.571700e+003, 4.263242e-002
1.573629e+003, 4.279340e-002
1.575557e+003, 4.317556e-002
1.577486e+003, 4.326114e-002
1.579414e+003, 4.317318e-002
1.581343e+003, 4.315587e-002
1.583271e+003, 4.311013e-002
1.585200e+003, 4.311818e-002
1.587128e+003, 4.306645e-002
1.589057e+003, 4.326042e-002
1.590985e+003, 4.352124e-002
1.592913e+003, 4.358343e-002
1.594842e+003, 4.355072e-002
1.596770e+003, 4.361662e-002
1.598699e+003, 4.370196e-002
1.600627e+003, 4.376241e-002
1.602556e+003, 4.387762e-002
1.604484e+003, 4.414891e-002
1.606413e+003, 4.433468e-002
1.608341e+003, 4.436866e-002
1.610270e+003, 4.450669e-002
1.612198e+003, 4.471640e-002
1.614127e+003, 4.493169e-002
1.616055e+003, 4.541706e-002
1.617984e+003, 4.552611e-002
1.619912e+003, 4.550272e-002
1.621840e+003, 4.572270e-002
1.623769e+003, 4.595265e-002
1.625697e+003, 4.598302e-002
1.627626e+003, 4.608811e-002
1.629554e+003, 4.623199e-002
1.631483e+003, 4.648622e-002
1.633411e+003, 4.690246e-002
1.635340e+003, 4.722586e-002
1.637268e+003, 4.714746e-002
1.639197e+003, 4.697186e-002
1.641125e+003, 4.704420e-002
1.643054e+003, 4.726676e-002
1.644982e+003, 4.771556e-002
1.646911e+003, 4.799253e-002
1.648839e+003, 4.794912e-002
1.650767e+003, 4.813417e-002
1.652696e+003, 4.856290e-002
1.654624e+003, 4.834221e-002
1.656553e+003, 4.791455e-002
1.658481e+003, 4.784898e-002
1.660410e+003, 4.802646e-002
1.662338e+003, 4.820523e-002
1.664267e+003, 4.796746e-002
1.666195e+003, 4.788878e-002
1.668124e+003, 4.810071e-002
1.670052e+003, 4.815863e-002
1.671981e+003, 4.790397e-002
1.673909e+003, 4.795288e-002
1.675838e+003, 4.794383e-002
1.677766e+003, 4.777305e-002
1.679694e+003, 4.783010e-002
1.681623e+003, 4.796010e-002
1.683551e+003, 4.850046e-002
1.685480e+003, 4.861587e-002
1.687408e+003, 4.813693e-002
1.689337e+003, 4.797236e-002
1.691265e+003, 4.803627e-002
1.693194e+003, 4.823457e-002
1.695122e+003, 4.872186e-002
1.697051e+003, 4.890605e-002
1.698979e+003, 4.898563e-002
1.700908e+003, 4.905225e-002
1.702836e+003, 4.882609e-002
1.704765e+003, 4.902755e-002
1.706693e+003, 4.935665e-002
1.708621e+003, 4.962339e-002
1.710550e+003, 4.997675e-002
1.712478e+003, 5.045574e-002
1.714407e+003, 5.082522e-002
1.716335e+003, 5.158816e-002
1.718264e+003, 5.240569e-002
1.720192e+003, 5.285678e-002
1.722121e+003, 5.308878e-002
1.724049e+003, 5.329696e-002
1.725978e+003, 5.351201e-002
1.727906e+003, 5.378483e-002
1.729835e+003, 5.375232e-002
1.731763e+003, 5.383295e-002
1.733692e+003, 5.404453e-002
1.735620e+003, 5.380219e-002
1.737548e+003, 5.342074e-002
1.739477e+003, 5.297298e-002
1.741405e+003, 5.257045e-002
1.743334e+003, 5.226386e-002
1.745262e+003, 5.179903e-002
1.747191e+003, 5.136400e-002
1.749119e+003, 5.116184e-002
1.751048e+003, 5.100453e-002
1.752976e+003, 5.070755e-002
1.754905e+003, 5.057000e-002
1.756833e+003, 5.064673e-002
1.758762e+003, 5.065382e-002
1.760690e+003, 5.070892e-002
1.762619e+003, 5.084622e-002
1.764547e+003, 5.111088e-002
1.766475e+003, 5.127054e-002
1.768404e+003, 5.131844e-002
1.770332e+003, 5.160289e-002
1.772261e+003, 5.198736e-002
1.774189e+003, 5.191356e-002
1.776118e+003, 5.193398e-002
1.778046e+003, 5.202036e-002
1.779975e+003, 5.205559e-002
1.781903e+003, 5.227627e-002
1.783832e+003, 5.241689e-002
1.785760e+003, 5.254345e-002
1.787689e+003, 5.269116e-002
1.789617e+003, 5.285995e-002
1.791546e+003, 5.311785e-002
1.793474e+003, 5.336293e-002
1.795402e+003, 5.332884e-002
1.797331e+003, 5.319847e-002
1.799259e+003, 5.331906e-002
1.801188e+003, 5.364672e-002
1.803116e+003, 5.359328e-002
1.805045e+003, 5.360954e-002
1.806973e+003, 5.373676e-002
1.808902e+003, 5.392532e-002
1.810830e+003, 5.421901e-002
1.812759e+003, 5.420700e-002
1.814687e+003, 5.413868e-002
1.816616e+003, 5.428886e-002
1.818544e+003, 5.466549e-002
1.820473e+003, 5.513774e-002
1.822401e+003, 5.552719e-002
1.824329e+003, 5.563530e-002
1.826258e+003, 5.559103e-002
1.828186e+003, 5.580835e-002
1.830115e+003, 5.601035e-002
1.832043e+003, 5.600079e-002
1.833972e+003, 5.606561e-002
1.835900e+003, 5.604605e-002
1.837829e+003, 5.617418e-002
1.839757e+003, 5.647999e-002
1.841686e+003, 5.680376e-002
1.843614e+003, 5.720139e-002
1.845543e+003, 5.703400e-002
1.847471e+003, 5.685517e-002
1.849400e+003, 5.713122e-002
1.851328e+003, 5.719014e-002
1.853256e+003, 5.724061e-002
1.855185e+003, 5.770413e-002
1.857113e+003, 5.806130e-002
1.859042e+003, 5.795559e-002
1.860970e+003, 5.787514e-002
1.862899e+003, 5.826028e-002
1.864827e+003, 5.855430e-002
1.866756e+003, 5.890574e-002
1.868684e+003, 5.910623e-002
1.870613e+003, 5.893080e-002
1.872541e+003, 5.877477e-002
1.874470e+003, 5.884125e-002
1.876398e+003, 5.918688e-002
1.878327e+003, 5.985641e-002
1.880255e+003, 6.004640e-002
1.882183e+003, 5.985598e-002
1.884112e+003, 6.021096e-002
1.886040e+003, 6.039717e-002
1.887969e+003, 6.055571e-002
1.889897e+003, 6.111789e-002
1.891826e+003, 6.109916e-002
1.893754e+003, 6.102350e-002
1.895683e+003, 6.099696e-002
1.897611e+003, 6.096307e-002
1.899540e+003, 6.124172e-002
1.901468e+003, 6.164726e-002
1.903397e+003, 6.191448e-002
1.905325e+003, 6.190266e-002
1.907254e+003, 6.179425e-002
1.909182e+003, 6.181897e-002
1.911110e+003, 6.227606e-002
1.913039e+003, 6.256843e-002
1.914967e+003, 6.251576e-002
1.916896e+003, 6.270198e-002
1.918824e+003, 6.329370e-002
1.920753e+003, 6.336197e-002
1.922681e+003, 6.318484e-002
1.924610e+003, 6.308880e-002
1.926538e+003, 6.348030e-002
1.928467e+003, 6.378073e-002
1.930395e+003, 6.416450e-002
1.932324e+003, 6.443377e-002
1.934252e+003, 6.465075e-002
1.936181e+003, 6.414116e-002
1.938109e+003, 6.422397e-002
1.940037e+003, 6.468023e-002
1.941966e+003, 6.464044e-002
1.943894e+003, 6.494723e-002
1.945823e+003, 6.517266e-002
1.947751e+003, 6.527413e-002
1.949680e+003, 6.603996e-002
1.951608e+003, 6.655043e-002
1.953537e+003, 6.653471e-002
1.955465e+003, 6.682866e-002
1.957394e+003, 6.683724e-002
1.959322e+003, 6.645121e-002
1.961251e+003, 6.676102e-002
1.963179e+003, 6.686676e-002
1.965108e+003, 6.669522e-002
1.967036e+003, 6.717128e-002
1.968964e+003, 6.767623e-002
1.970893e+003, 6.808504e-002
1.972821e+003, 6.776027e-002
1.974750e+003, 6.866255e-002
1.976678e+003, 7.003189e-002
1.978607e+003, 7.154498e-002
1.980535e+003, 7.225055e-002
1.982464e+003, 7.149771e-002
1.984392e+003, 7.081500e-002
1.986321e+003, 6.992390e-002
1.988249e+003, 6.986027e-002
1.990178e+003, 6.947742e-002
1.992106e+003, 6.956133e-002
1.994035e+003, 6.977469e-002
1.995963e+003, 6.922819e-002
1.997891e+003, 6.935769e-002
1.999820e+003, 7.014456e-002
2.001748e+003, 6.974472e-002
2.003677e+003, 6.931153e-002
2.005605e+003, 7.012807e-002
2.007534e+003, 7.169534e-002
2.009462e+003, 7.115829e-002
2.011391e+003, 7.064701e-002
2.013319e+003, 7.134373e-002
2.015248e+003, 7.089419e-002
2.017176e+003, 7.056221e-002
2.019105e+003, 7.091142e-002
2.021033e+003, 7.182091e-002
2.022962e+003, 7.268074e-002
2.024890e+003, 7.303985e-002
2.026818e+003, 7.313764e-002
2.028747e+003, 7.251935e-002
2.030675e+003, 7.115447e-002
2.032604e+003, 7.089847e-002
2.034532e+003, 7.214370e-002
2.036461e+003, 7.270549e-002
2.038389e+003, 7.212600e-002
2.040318e+003, 7.258524e-002
2.042246e+003, 7.330502e-002
2.044175e+003, 7.228963e-002
2.046103e+003, 7.220913e-002
2.048031e+003, 7.246792e-002
2.049960e+003, 7.301984e-002
2.051888e+003, 7.273716e-002
2.053817e+003, 7.221162e-002
2.055745e+003, 7.310237e-002
2.057674e+003, 7.309984e-002
2.059602e+003, 7.222480e-002
2.061531e+003, 7.207253e-002
2.063459e+003, 7.313027e-002
2.065388e+003, 7.371721e-002
2.067316e+003, 7.366869e-002
2.069245e+003, 7.396340e-002
2.071173e+003, 7.415931e-002
2.073102e+003, 7.427036e-002
2.075030e+003, 7.440133e-002
2.076958e+003, 7.469714e-002
2.078887e+003, 7.465478e-002
2.080815e+003, 7.456813e-002
2.082744e+003, 7.447501e-002
2.084672e+003, 7.399091e-002
2.086601e+003, 7.407010e-002
2.088529e+003, 7.435920e-002
2.090458e+003, 7.437193e-002
2.092386e+003, 7.426778e-002
2.094315e+003, 7.441365e-002
2.096243e+003, 7.460376e-002
2.098172e+003, 7.457763e-002
2.100100e+003, 7.471202e-002
2.102029e+003, 7.504623e-002
2.103957e+003, 7.568191e-002
2.105885e+003, 7.585741e-002
2.107814e+003, 7.576997e-002
2.109742e+003, 7.551366e-002
2.111671e+003, 7.567872e-002
2.113599e+003, 7.571901e-002
2.115528e+003, 7.557476e-002
2.117456e+003, 7.551378e-002
2.119385e+003, 7.539184e-002
2.121313e+003, 7.542008e-002
2.123242e+003, 7.564328e-002
2.125170e+003, 7.489005e-002
2.127099e+003, 7.483312e-002
2.129027e+003, 7.558425e-002
2.130956e+003, 7.543130e-002
2.132884e+003, 7.531633e-002
2.134813e+003, 7.579555e-002
2.136741e+003, 7.641113e-002
2.138669e+003, 7.548335e-002
2.140598e+003, 7.500228e-002
2.142526e+003, 7.667005e-002
2.144455e+003, 7.666229e-002
2.146383e+003, 7.668661e-002
2.148312e+003, 7.716892e-002
2.150240e+003, 7.736605e-002
2.152169e+003, 7.665782e-002
2.154097e+003, 7.547861e-002
2.156026e+003, 7.592990e-002
2.157954e+003, 7.953175e-002
2.159883e+003, 8.322627e-002
2.161811e+003, 8.350099e-002
2.163740e+003, 8.253643e-002
2.165668e+003, 8.186796e-002
2.167596e+003, 8.149287e-002
2.169525e+003, 8.055685e-002
2.171453e+003, 8.068144e-002
2.173382e+003, 8.154657e-002
2.175310e+003, 8.241420e-002
2.177239e+003, 8.301953e-002
2.179167e+003, 8.248319e-002
2.181096e+003, 8.320179e-002
2.183024e+003, 8.394813e-002
2.184953e+003, 8.364411e-002
2.186881e+003, 8.391841e-002
2.188810e+003, 8.393878e-002
2.190738e+003, 8.399791e-002
2.192667e+003, 8.347305e-002
2.194595e+003, 8.256617e-002
2.196523e+003, 8.223699e-002
2.198452e+003, 8.331542e-002
2.200380e+003, 8.399253e-002
2.202309e+003, 8.352760e-002
2.204237e+003, 8.299562e-002
2.206166e+003, 8.347376e-002
2.208094e+003, 8.397700e-002
2.210023e+003, 8.428247e-002
2.211951e+003, 8.460595e-002
2.213880e+003, 8.374186e-002
2.215808e+003, 8.346892e-002
2.217737e+003, 8.371100e-002
2.219665e+003, 8.445559e-002
2.221594e+003, 8.461855e-002
2.223522e+003, 8.407058e-002
2.225450e+003, 8.377826e-002
2.227379e+003, 8.345423e-002
2.229307e+003, 8.389583e-002
2.231236e+003, 8.431780e-002
2.233164e+003, 8.530066e-002
2.235093e+003, 8.556002e-002
2.237021e+003, 8.511208e-002
2.238950e+003, 8.512732e-002
2.240878e+003, 8.537725e-002
2.242807e+003, 8.553023e-002
2.244735e+003, 8.512665e-002
2.246664e+003, 8.491600e-002
2.248592e+003, 8.466447e-002
2.250521e+003, 8.455811e-002
2.252449e+003, 8.485910e-002
2.254377e+003, 8.544683e-002
2.256306e+003, 8.623931e-002
2.258234e+003, 8.612837e-002
2.260163e+003, 8.551168e-002
2.262091e+003, 8.533829e-002
2.264020e+003, 8.559753e-002
2.265948e+003, 8.592374e-002
2.267877e+003, 8.578844e-002
2.269805e+003, 8.592138e-002
2.271734e+003, 8.651305e-002
2.273662e+003, 8.634466e-002
2.275591e+003, 8.635414e-002
2.277519e+003, 8.677813e-002
2.279448e+003, 8.680139e-002
2.281376e+003, 8.683381e-002
2.283304e+003, 8.725405e-002
2.285233e+003, 8.719496e-002
2.287161e+003, 8.696955e-002
2.289090e+003, 8.708370e-002
2.291018e+003, 8.719742e-002
2.292947e+003, 8.706947e-002
2.294875e+003, 8.698695e-002
2.296804e+003, 8.702841e-002
2.298732e+003, 8.706982e-002
2.300661e+003, 8.710086e-002
2.302589e+003, 8.714032e-002
2.304518e+003, 8.734895e-002
2.306446e+003, 8.790783e-002
2.308375e+003, 8.831538e-002
2.310303e+003, 8.830223e-002
2.312231e+003, 8.819057e-002
2.314160e+003, 8.800539e-002
2.316088e+003, 8.820312e-002
2.318017e+003, 8.861930e-002
2.319945e+003, 8.900752e-002
2.321874e+003, 8.954265e-002
2.323802e+003, 8.980813e-002
2.325731e+003, 8.938766e-002
2.327659e+003, 8.891077e-002
2.329588e+003, 8.900476e-002
2.331516e+003, 8.904706e-002
2.333445e+003, 8.895820e-002
2.335373e+003, 8.902632e-002
2.337302e+003, 8.902306e-002
2.339230e+003, 8.901419e-002
2.341158e+003, 8.898105e-002
2.343087e+003, 8.905834e-002
2.345015e+003, 8.885028e-002
2.346944e+003, 8.876333e-002
2.348872e+003, 8.852869e-002
2.350801e+003, 8.825687e-002
2.352729e+003, 8.854118e-002
2.354658e+003, 8.905934e-002
2.356586e+003, 8.942289e-002
2.358515e+003, 8.958170e-002
2.360443e+003, 8.958205e-002
2.362372e+003, 8.964542e-002
2.364300e+003, 8.964900e-002
2.366229e+003, 8.951630e-002
2.368157e+003, 8.949108e-002
2.370085e+003, 8.939408e-002
2.372014e+003, 8.928347e-002
2.373942e+003, 8.930458e-002
2.375871e+003, 8.957984e-002
2.377799e+003, 8.969147e-002
2.379728e+003, 8.952653e-002
2.381656e+003, 8.938120e-002
2.383585e+003, 8.937876e-002
2.385513e+003, 8.938869e-002
2.387442e+003, 8.940869e-002
2.389370e+003, 8.957256e-002
2.391299e+003, 8.968580e-002
2.393227e+003, 8.983862e-002
2.395156e+003, 9.013601e-002
2.397084e+003, 9.038494e-002
2.399012e+003, 9.086852e-002
2.400941e+003, 9.124115e-002
2.402869e+003, 9.121044e-002
2.404798e+003, 9.112547e-002
2.406726e+003, 9.099260e-002
2.408655e+003, 9.141114e-002
2.410583e+003, 9.194475e-002
2.412512e+003, 9.199562e-002
2.414440e+003, 9.169409e-002
2.416369e+003, 9.194219e-002
2.418297e+003, 9.244143e-002
2.420226e+003, 9.213937e-002
2.422154e+003, 9.220209e-002
2.424083e+003, 9.258724e-002
2.426011e+003, 9.283962e-002
2.427939e+003, 9.302052e-002
2.429868e+003, 9.301922e-002
2.431796e+003, 9.295754e-002
2.433725e+003, 9.341659e-002
2.435653e+003, 9.358195e-002
2.437582e+003, 9.327122e-002
2.439510e+003, 9.327607e-002
2.441439e+003, 9.364729e-002
2.443367e+003, 9.386436e-002
2.445296e+003, 9.413257e-002
2.447224e+003, 9.442993e-002
2.449153e+003, 9.464715e-002
2.451081e+003, 9.490598e-002
2.453010e+003, 9.487909e-002
2.454938e+003, 9.486672e-002
2.456866e+003, 9.490974e-002
2.458795e+003, 9.489679e-002
2.460723e+003, 9.481386e-002
2.462652e+003, 9.498127e-002
2.464580e+003, 9.490965e-002
2.466509e+003, 9.460472e-002
2.468437e+003, 9.468359e-002
2.470366e+003, 9.523907e-002
2.472294e+003, 9.557431e-002
2.474223e+003, 9.554698e-002
2.476151e+003, 9.562773e-002
2.478080e+003, 9.604642e-002
2.480008e+003, 9.617302e-002
2.481937e+003, 9.609837e-002
2.483865e+003, 9.606354e-002
2.485793e+003, 9.583546e-002
2.487722e+003, 9.556612e-002
2.489650e+003, 9.575079e-002
2.491579e+003, 9.613276e-002
2.493507e+003, 9.638372e-002
2.495436e+003, 9.631348e-002
2.497364e+003, 9.635824e-002
2.499293e+003, 9.650823e-002
2.501221e+003, 9.698748e-002
2.503150e+003, 9.706581e-002
2.505078e+003, 9.733409e-002
2.507007e+003, 9.763397e-002
2.508935e+003, 9.748930e-002
2.510864e+003, 9.785952e-002
2.512792e+003, 9.813635e-002
2.514720e+003, 9.795817e-002
2.516649e+003, 9.774564e-002
2.518577e+003, 9.814228e-002
2.520506e+003, 9.851564e-002
2.522434e+003, 9.841317e-002
2.524363e+003, 9.849709e-002
2.526291e+003, 9.875945e-002
2.528220e+003, 9.867783e-002
2.530148e+003, 9.851091e-002
2.532077e+003, 9.863251e-002
2.534005e+003, 9.849624e-002
2.535934e+003, 9.857635e-002
2.537862e+003, 9.909715e-002
2.539791e+003, 9.930292e-002
2.541719e+003, 9.980828e-002
2.543647e+003, 9.972257e-002
2.545576e+003, 9.951380e-002
2.547504e+003, 9.948742e-002
2.549433e+003, 9.932810e-002
2.551361e+003, 9.956580e-002
2.553290e+003, 1.000073e-001
2.555218e+003, 1.001018e-001
2.557147e+003, 1.003310e-001
2.559075e+003, 1.002262e-001
2.561004e+003, 1.001658e-001
2.562932e+003, 1.005700e-001
2.564861e+003, 1.006374e-001
2.566789e+003, 1.006102e-001
2.568718e+003, 1.007625e-001
2.570646e+003, 1.007612e-001
2.572574e+003, 1.006665e-001
2.574503e+003, 1.012170e-001
2.576431e+003, 1.017916e-001
2.578360e+003, 1.018913e-001
2.580288e+003, 1.018711e-001
2.582217e+003, 1.019887e-001
2.584145e+003, 1.018439e-001
2.586074e+003, 1.016500e-001
2.588002e+003, 1.019559e-001
2.589931e+003, 1.021152e-001
2.591859e+003, 1.020448e-001
2.593788e+003, 1.022275e-001
2.595716e+003, 1.026135e-001
2.597645e+003, 1.024070e-001
2.599573e+003, 1.023375e-001
2.601501e+003, 1.025096e-001
2.603430e+003, 1.026681e-001
2.605358e+003, 1.027558e-001
2.607287e+003, 1.028219e-001
2.609215e+003, 1.028642e-001
2.611144e+003, 1.032682e-001
2.613072e+003, 1.036640e-001
2.615001e+003, 1.037423e-001
2.616929e+003, 1.038773e-001
2.618858e+003, 1.039244e-001
2.620786e+003, 1.038466e-001
2.622715e+003, 1.039533e-001
2.624643e+003, 1.041550e-001
2.626572e+003, 1.046337e-001
2.628500e+003, 1.045441e-001
2.630428e+003, 1.044292e-001
2.632357e+003, 1.045255e-001
2.634285e+003, 1.047387e-001
2.636214e+003, 1.047917e-001
2.638142e+003, 1.048016e-001
2.640071e+003, 1.050331e-001
2.641999e+003, 1.052091e-001
2.643928e+003, 1.049481e-001
2.645856e+003, 1.048760e-001
2.647785e+003, 1.049106e-001
2.649713e+003, 1.049484e-001
2.651642e+003, 1.053396e-001
2.653570e+003, 1.056841e-001
2.655499e+003, 1.056471e-001
2.657427e+003, 1.053357e-001
2.659355e+003, 1.053878e-001
2.661284e+003, 1.056208e-001
2.663212e+003, 1.056130e-001
2.665141e+003, 1.056048e-001
2.667069e+003, 1.055384e-001
2.668998e+003, 1.055036e-001
2.670926e+003, 1.058609e-001
2.672855e+003, 1.062358e-001
2.674783e+003, 1.060519e-001
2.676712e+003, 1.059750e-001
2.678640e+003, 1.061809e-001
2.680569e+003, 1.063302e-001
2.682497e+003, 1.064662e-001
2.684426e+003, 1.064566e-001
2.686354e+003, 1.065147e-001
2.688282e+003, 1.067669e-001
2.690211e+003, 1.068633e-001
2.692139e+003, 1.067425e-001
2.694068e+003, 1.068665e-001
2.695996e+003, 1.071281e-001
2.697925e+003, 1.073749e-001
2.699853e+003, 1.074815e-001
2.701782e+003, 1.076078e-001
2.703710e+003, 1.079140e-001
2.705639e+003, 1.080678e-001
2.707567e+003, 1.079286e-001
2.709496e+003, 1.080437e-001
2.711424e+003, 1.082072e-001
2.713353e+003, 1.082561e-001
2.715281e+003, 1.083308e-001
2.717209e+003, 1.085397e-001
2.719138e+003, 1.086981e-001
2.721066e+003, 1.087663e-001
2.722995e+003, 1.089131e-001
2.724923e+003, 1.088948e-001
2.726852e+003, 1.089814e-001
2.728780e+003, 1.089965e-001
2.730709e+003, 1.092876e-001
2.732637e+003, 1.095471e-001
2.734566e+003, 1.094258e-001
2.736494e+003, 1.096620e-001
2.738423e+003, 1.100336e-001
2.740351e+003, 1.098975e-001
2.742280e+003, 1.101394e-001
2.744208e+003, 1.103585e-001
2.746136e+003, 1.103506e-001
2.748065e+003, 1.105603e-001
2.749993e+003, 1.104714e-001
2.751922e+003, 1.104618e-001
2.753850e+003, 1.107104e-001
2.755779e+003, 1.108347e-001
2.757707e+003, 1.109066e-001
2.759636e+003, 1.111870e-001
2.761564e+003, 1.111819e-001
2.763493e+003, 1.111036e-001
2.765421e+003, 1.110377e-001
2.767350e+003, 1.113231e-001
2.769278e+003, 1.117721e-001
2.771207e+003, 1.120700e-001
2.773135e+003, 1.120374e-001
2.775063e+003, 1.119538e-001
2.776992e+003, 1.122117e-001
2.778920e+003, 1.123569e-001
2.780849e+003, 1.123642e-001
2.782777e+003, 1.123530e-001
2.784706e+003, 1.127586e-001
2.786634e+003, 1.130687e-001
2.788563e+003, 1.129830e-001
2.790491e+003, 1.130216e-001
2.792420e+003, 1.131653e-001
2.794348e+003, 1.131133e-001
2.796277e+003, 1.133704e-001
2.798205e+003, 1.134654e-001
2.800134e+003, 1.134623e-001
2.802062e+003, 1.135922e-001
2.803990e+003, 1.136715e-001
2.805919e+003, 1.140322e-001
2.807847e+003, 1.145150e-001
2.809776e+003, 1.145993e-001
2.811704e+003, 1.145421e-001
2.813633e+003, 1.145133e-001
2.815561e+003, 1.146423e-001
2.817490e+003, 1.148242e-001
2.819418e+003, 1.152630e-001
2.821347e+003, 1.156542e-001
2.823275e+003, 1.154579e-001
2.825204e+003, 1.155221e-001
2.827132e+003, 1.158161e-001
2.829061e+003, 1.162632e-001
2.830989e+003, 1.164771e-001
2.832917e+003, 1.164731e-001
2.834846e+003, 1.166511e-001
2.836774e+003, 1.169812e-001
2.838703e+003, 1.173141e-001
2.840631e+003, 1.176918e-001
2.842560e+003, 1.179723e-001
2.844488e+003, 1.184260e-001
2.846417e+003, 1.191437e-001
2.848345e+003, 1.196202e-001
2.850274e+003, 1.198425e-001
2.852202e+003, 1.199696e-001
2.854131e+003, 1.198971e-001
2.856059e+003, 1.194406e-001
2.857988e+003, 1.193876e-001
2.859916e+003, 1.195200e-001
2.861844e+003, 1.195994e-001
2.863773e+003, 1.193978e-001
2.865701e+003, 1.196272e-001
2.867630e+003, 1.197766e-001
2.869558e+003, 1.197143e-001
2.871487e+003, 1.196522e-001
2.873415e+003, 1.197174e-001
2.875344e+003, 1.197170e-001
2.877272e+003, 1.198669e-001
2.879201e+003, 1.199139e-001
2.881129e+003, 1.198296e-001
2.883058e+003, 1.199706e-001
2.884986e+003, 1.202059e-001
2.886915e+003, 1.203849e-001
2.888843e+003, 1.205646e-001
2.890771e+003, 1.208979e-001
2.892700e+003, 1.212131e-001
2.894628e+003, 1.215126e-001
2.896557e+003, 1.220952e-001
2.898485e+003, 1.224977e-001
2.900414e+003, 1.225171e-001
2.902342e+003, 1.227111e-001
2.904271e+003, 1.229928e-001
2.906199e+003, 1.230741e-001
2.908128e+003, 1.232942e-001
2.910056e+003, 1.237857e-001
2.911985e+003, 1.240625e-001
2.913913e+003, 1.244589e-001
2.915842e+003, 1.252925e-001
2.917770e+003, 1.254254e-001
2.919698e+003, 1.255893e-001
2.921627e+003, 1.259963e-001
2.923555e+003, 1.261418e-001
2.925484e+003, 1.257788e-001
2.927412e+003, 1.255891e-001
2.929341e+003, 1.252605e-001
2.931269e+003, 1.247188e-001
2.933198e+003, 1.242694e-001
2.935126e+003, 1.241200e-001
2.937055e+003, 1.236672e-001
2.938983e+003, 1.229552e-001
2.940912e+003, 1.229002e-001
2.942840e+003, 1.230712e-001
2.944769e+003, 1.232770e-001
2.946697e+003, 1.235281e-001
2.948625e+003, 1.235186e-001
2.950554e+003, 1.237271e-001
2.952482e+003, 1.239836e-001
2.954411e+003, 1.240610e-001
2.956339e+003, 1.242157e-001
2.958268e+003, 1.242119e-001
2.960196e+003, 1.237324e-001
2.962125e+003, 1.234595e-001
2.964053e+003, 1.234840e-001
2.965982e+003, 1.227065e-001
2.967910e+003, 1.220269e-001
2.969839e+003, 1.216881e-001
2.971767e+003, 1.217754e-001
2.973696e+003, 1.218328e-001
2.975624e+003, 1.214065e-001
2.977552e+003, 1.215024e-001
2.979481e+003, 1.218264e-001
2.981409e+003, 1.218832e-001
2.983338e+003, 1.221639e-001
2.985266e+003, 1.221125e-001
2.987195e+003, 1.217851e-001
2.989123e+003, 1.218066e-001
2.991052e+003, 1.217570e-001
2.992980e+003, 1.219553e-001
2.994909e+003, 1.220389e-001
2.996837e+003, 1.219291e-001
2.998766e+003, 1.221179e-001
3.000694e+003, 1.222624e-001
3.002623e+003, 1.223663e-001
3.004551e+003, 1.224580e-001
3.006479e+003, 1.228511e-001
3.008408e+003, 1.229275e-001
3.010336e+003, 1.225305e-001
3.012265e+003, 1.226092e-001
3.014193e+003, 1.229590e-001
3.016122e+003, 1.232004e-001
3.018050e+003, 1.235701e-001
3.019979e+003, 1.236854e-001
3.021907e+003, 1.236988e-001
3.023836e+003, 1.238479e-001
3.025764e+003, 1.238894e-001
3.027693e+003, 1.242113e-001
3.029621e+003, 1.243142e-001
3.031550e+003, 1.238077e-001
3.033478e+003, 1.235985e-001
3.035406e+003, 1.236687e-001
3.037335e+003, 1.239806e-001
3.039263e+003, 1.241082e-001
3.041192e+003, 1.242461e-001
3.043120e+003, 1.245105e-001
3.045049e+003, 1.246174e-001
3.046977e+003, 1.246648e-001
3.048906e+003, 1.246938e-001
3.050834e+003, 1.249238e-001
3.052763e+003, 1.256167e-001
3.054691e+003, 1.256145e-001
3.056620e+003, 1.253386e-001
3.058548e+003, 1.249533e-001
3.060477e+003, 1.250602e-001
3.062405e+003, 1.253427e-001
3.064333e+003, 1.255211e-001
3.066262e+003, 1.262938e-001
3.068190e+003, 1.268837e-001
3.070119e+003, 1.265414e-001
3.072047e+003, 1.258428e-001
3.073976e+003, 1.256879e-001
3.075904e+003, 1.260549e-001
3.077833e+003, 1.267528e-001
3.079761e+003, 1.271283e-001
3.081690e+003, 1.271980e-001
3.083618e+003, 1.271136e-001
3.085547e+003, 1.274040e-001
3.087475e+003, 1.274376e-001
3.089404e+003, 1.271260e-001
3.091332e+003, 1.276432e-001
3.093260e+003, 1.279034e-001
3.095189e+003, 1.277414e-001
3.097117e+003, 1.277970e-001
3.099046e+003, 1.280803e-001
3.100974e+003, 1.282025e-001
3.102903e+003, 1.281483e-001
3.104831e+003, 1.280959e-001
3.106760e+003, 1.284485e-001
3.108688e+003, 1.288074e-001
3.110617e+003, 1.289072e-001
3.112545e+003, 1.290485e-001
3.114474e+003, 1.291342e-001
3.116402e+003, 1.290999e-001
3.118331e+003, 1.291309e-001
3.120259e+003, 1.290932e-001
3.122188e+003, 1.289905e-001
3.124116e+003, 1.291186e-001
3.126044e+003, 1.296657e-001
3.127973e+003, 1.299588e-001
3.129901e+003, 1.298438e-001
3.131830e+003, 1.301938e-001
3.133758e+003, 1.299291e-001
3.135687e+003, 1.297716e-001
3.137615e+003, 1.303859e-001
3.139544e+003, 1.308289e-001
3.141472e+003, 1.308977e-001
3.143401e+003, 1.309796e-001
3.145329e+003, 1.308700e-001
3.147258e+003, 1.310303e-001
3.149186e+003, 1.309137e-001
3.151115e+003, 1.307348e-001
3.153043e+003, 1.306679e-001
3.154971e+003, 1.313822e-001
3.156900e+003, 1.319003e-001
3.158828e+003, 1.319326e-001
3.160757e+003, 1.318789e-001
3.162685e+003, 1.320811e-001
3.164614e+003, 1.319178e-001
3.166542e+003, 1.320542e-001
3.168471e+003, 1.323719e-001
3.170399e+003, 1.327688e-001
3.172328e+003, 1.324552e-001
3.174256e+003, 1.318510e-001
3.176185e+003, 1.316005e-001
3.178113e+003, 1.319481e-001
3.180042e+003, 1.325787e-001
3.181970e+003, 1.330571e-001
3.183898e+003, 1.331851e-001
3.185827e+003, 1.330889e-001
3.187755e+003, 1.331549e-001
3.189684e+003, 1.329759e-001
3.191612e+003, 1.332127e-001
3.193541e+003, 1.334326e-001
3.195469e+003, 1.333908e-001
3.197398e+003, 1.332255e-001
3.199326e+003, 1.328014e-001
3.201255e+003, 1.328008e-001
3.203183e+003, 1.333310e-001
3.205112e+003, 1.333580e-001
3.207040e+003, 1.335074e-001
3.208969e+003, 1.340057e-001
3.210897e+003, 1.341316e-001
3.212825e+003, 1.340487e-001
3.214754e+003, 1.339140e-001
3.216682e+003, 1.342729e-001
3.218611e+003, 1.348534e-001
3.220539e+003, 1.345310e-001
3.222468e+003, 1.342063e-001
3.224396e+003, 1.342687e-001
3.226325e+003, 1.343317e-001
3.228253e+003, 1.347441e-001
3.230182e+003, 1.351298e-001
3.232110e+003, 1.351288e-001
3.234039e+003, 1.351503e-001
3.235967e+003, 1.349115e-001
3.237896e+003, 1.354989e-001
3.239824e+003, 1.359220e-001
3.241752e+003, 1.356396e-001
3.243681e+003, 1.356640e-001
3.245609e+003, 1.357744e-001
3.247538e+003, 1.357841e-001
3.249466e+003, 1.358736e-001
3.251395e+003, 1.360235e-001
3.253323e+003, 1.359578e-001
3.255252e+003, 1.363090e-001
3.257180e+003, 1.366015e-001
3.259109e+003, 1.363996e-001
3.261037e+003, 1.367025e-001
3.262966e+003, 1.370655e-001
3.264894e+003, 1.368098e-001
3.266823e+003, 1.366545e-001
3.268751e+003, 1.367536e-001
3.270679e+003, 1.369322e-001
3.272608e+003, 1.371076e-001
3.274536e+003, 1.375161e-001
3.276465e+003, 1.375383e-001
3.278393e+003, 1.374662e-001
3.280322e+003, 1.377812e-001
3.282250e+003, 1.374083e-001
3.284179e+003, 1.366434e-001
3.286107e+003, 1.365391e-001
3.288036e+003, 1.369019e-001
3.289964e+003, 1.374592e-001
3.291893e+003, 1.381634e-001
3.293821e+003, 1.381892e-001
3.295750e+003, 1.375719e-001
3.297678e+003, 1.373832e-001
3.299606e+003, 1.373613e-001
3.301535e+003, 1.371758e-001
3.303463e+003, 1.378942e-001
3.305392e+003, 1.383826e-001
3.307320e+003, 1.379829e-001
3.309249e+003, 1.378221e-001
3.311177e+003, 1.380165e-001
3.313106e+003, 1.379700e-001
3.315034e+003, 1.381745e-001
3.316963e+003, 1.384766e-001
3.318891e+003, 1.385780e-001
3.320820e+003, 1.386553e-001
3.322748e+003, 1.382715e-001
3.324677e+003, 1.380836e-001
3.326605e+003, 1.381853e-001
3.328533e+003, 1.386440e-001
3.330462e+003, 1.387572e-001
3.332390e+003, 1.386471e-001
3.334319e+003, 1.387131e-001
3.336247e+003, 1.389228e-001
3.338176e+003, 1.392546e-001
3.340104e+003, 1.390479e-001
3.342033e+003, 1.389314e-001
3.343961e+003, 1.391102e-001
3.345890e+003, 1.389057e-001
3.347818e+003, 1.386494e-001
3.349747e+003, 1.387717e-001
3.351675e+003, 1.390658e-001
3.353604e+003, 1.395621e-001
3.355532e+003, 1.393739e-001
3.357460e+003, 1.388188e-001
3.359389e+003, 1.395854e-001
3.361317e+003, 1.400834e-001
3.363246e+003, 1.395630e-001
3.365174e+003, 1.389883e-001
3.367103e+003, 1.388313e-001
3.369031e+003, 1.391091e-001
3.370960e+003, 1.392640e-001
3.372888e+003, 1.391679e-001
3.374817e+003, 1.390491e-001
3.376745e+003, 1.389482e-001
3.378674e+003, 1.392217e-001
3.380602e+003, 1.393484e-001
3.382531e+003, 1.397205e-001
3.384459e+003, 1.398098e-001
3.386387e+003, 1.399893e-001
3.388316e+003, 1.396525e-001
3.390244e+003, 1.391648e-001
3.392173e+003, 1.390686e-001
3.394101e+003, 1.396679e-001
3.396030e+003, 1.402955e-001
3.397958e+003, 1.399252e-001
3.399887e+003, 1.389729e-001
3.401815e+003, 1.388626e-001
3.403744e+003, 1.391140e-001
3.405672e+003, 1.388429e-001
3.407601e+003, 1.387896e-001
3.409529e+003, 1.396846e-001
3.411458e+003, 1.399650e-001
3.413386e+003, 1.396135e-001
3.415314e+003, 1.399371e-001
3.417243e+003, 1.396746e-001
3.419171e+003, 1.392720e-001
3.421100e+003, 1.393104e-001
3.423028e+003, 1.401895e-001
3.424957e+003, 1.401185e-001
3.426885e+003, 1.393929e-001
3.428814e+003, 1.398854e-001
3.430742e+003, 1.399706e-001
3.432671e+003, 1.398591e-001
3.434599e+003, 1.395144e-001
3.436528e+003, 1.394665e-001
3.438456e+003, 1.393546e-001
3.440385e+003, 1.395731e-001
3.442313e+003, 1.404601e-001
3.444241e+003, 1.405653e-001
3.446170e+003, 1.395227e-001
3.448098e+003, 1.390870e-001
3.450027e+003, 1.388301e-001
3.451955e+003, 1.381878e-001
3.453884e+003, 1.381257e-001
3.455812e+003, 1.392592e-001
3.457741e+003, 1.402284e-001
3.459669e+003, 1.400070e-001
3.461598e+003, 1.396190e-001
3.463526e+003, 1.392638e-001
3.465455e+003, 1.391480e-001
3.467383e+003, 1.394867e-001
3.469312e+003, 1.398956e-001
3.471240e+003, 1.397076e-001
3.473168e+003, 1.390052e-001
3.475097e+003, 1.392810e-001
3.477025e+003, 1.397270e-001
3.478954e+003, 1.391461e-001
3.480882e+003, 1.386805e-001
3.482811e+003, 1.390312e-001
3.484739e+003, 1.390896e-001
3.486668e+003, 1.388642e-001
3.488596e+003, 1.389822e-001
3.490525e+003, 1.388483e-001
3.492453e+003, 1.390885e-001
3.494382e+003, 1.397550e-001
3.496310e+003, 1.398179e-001
3.498239e+003, 1.392474e-001
3.500167e+003, 1.394483e-001
3.502095e+003, 1.399278e-001
3.504024e+003, 1.394674e-001
3.505952e+003, 1.388836e-001
3.507881e+003, 1.391324e-001
3.509809e+003, 1.386092e-001
3.511738e+003, 1.383707e-001
3.513666e+003, 1.387805e-001
3.515595e+003, 1.387916e-001
3.517523e+003, 1.390729e-001
3.519452e+003, 1.395875e-001
3.521380e+003, 1.393618e-001
3.523309e+003, 1.385090e-001
3.525237e+003, 1.384139e-001
3.527166e+003, 1.384337e-001
3.529094e+003, 1.387621e-001
3.531022e+003, 1.393155e-001
3.532951e+003, 1.391695e-001
3.534879e+003, 1.390653e-001
3.536808e+003, 1.387281e-001
3.538736e+003, 1.381554e-001
3.540665e+003, 1.379891e-001
3.542593e+003, 1.380582e-001
3.544522e+003, 1.383380e-001
3.546450e+003, 1.390587e-001
3.548379e+003, 1.385451e-001
3.550307e+003, 1.377782e-001
3.552236e+003, 1.384695e-001
3.554164e+003, 1.387300e-001
3.556093e+003, 1.382704e-001
3.558021e+003, 1.381378e-001
3.559949e+003, 1.384450e-001
3.561878e+003, 1.385881e-001
3.563806e+003, 1.385283e-001
3.565735e+003, 1.384231e-001
3.567663e+003, 1.377230e-001
3.569592e+003, 1.375237e-001
3.571520e+003, 1.382144e-001
3.573449e+003, 1.386327e-001
3.575377e+003, 1.388177e-001
3.577306e+003, 1.384713e-001
3.579234e+003, 1.380044e-001
3.581163e+003, 1.381628e-001
3.583091e+003, 1.383466e-001
3.585020e+003, 1.383485e-001
3.586948e+003, 1.381460e-001
3.588876e+003, 1.378267e-001
3.590805e+003, 1.374134e-001
3.592733e+003, 1.382434e-001
3.594662e+003, 1.389412e-001
3.596590e+003, 1.385410e-001
3.598519e+003, 1.376867e-001
3.600447e+003, 1.373115e-001
3.602376e+003, 1.373655e-001
3.604304e+003, 1.380432e-001
3.606233e+003, 1.382793e-001
3.608161e+003, 1.380418e-001
3.610090e+003, 1.379687e-001
3.612018e+003, 1.383567e-001
3.613947e+003, 1.381498e-001
3.615875e+003, 1.372856e-001
3.617803e+003, 1.371869e-001
3.619732e+003, 1.373900e-001
3.621660e+003, 1.370989e-001
3.623589e+003, 1.370518e-001
3.625517e+003, 1.376211e-001
3.627446e+003, 1.385464e-001
3.629374e+003, 1.390638e-001
3.631303e+003, 1.383977e-001
3.633231e+003, 1.379668e-001
3.635160e+003, 1.382071e-001
3.637088e+003, 1.386061e-001
3.639017e+003, 1.390256e-001
3.640945e+003, 1.392707e-001
3.642874e+003, 1.391470e-001
3.644802e+003, 1.392640e-001
3.646730e+003, 1.393673e-001
3.648659e+003, 1.396659e-001
3.650587e+003, 1.391719e-001
3.652516e+003, 1.391251e-001
3.654444e+003, 1.393701e-001
3.656373e+003, 1.385198e-001
3.658301e+003, 1.380089e-001
3.660230e+003, 1.387859e-001
3.662158e+003, 1.392555e-001
3.664087e+003, 1.391907e-001
3.666015e+003, 1.389575e-001
3.667944e+003, 1.400393e-001
3.669872e+003, 1.412623e-001
3.671801e+003, 1.402043e-001
3.673729e+003, 1.395794e-001
3.675657e+003, 1.405495e-001
3.677586e+003, 1.409438e-001
3.679514e+003, 1.409267e-001
3.681443e+003, 1.404793e-001
3.683371e+003, 1.396372e-001
3.685300e+003, 1.389998e-001
3.687228e+003, 1.401743e-001
3.689157e+003, 1.411137e-001
3.691085e+003, 1.404576e-001
3.693014e+003, 1.396648e-001
3.694942e+003, 1.398789e-001
3.696871e+003, 1.406266e-001
3.698799e+003, 1.412952e-001
3.700728e+003, 1.415550e-001
3.702656e+003, 1.408996e-001
3.704584e+003, 1.412843e-001
3.706513e+003, 1.414455e-001
3.708441e+003, 1.413751e-001
3.710370e+003, 1.418468e-001
3.712298e+003, 1.421394e-001
3.714227e+003, 1.412640e-001
3.716155e+003, 1.401296e-001
3.718084e+003, 1.405989e-001
3.720012e+003, 1.420613e-001
3.721941e+003, 1.437392e-001
3.723869e+003, 1.434549e-001
3.725798e+003, 1.421920e-001
3.727726e+003, 1.413905e-001
3.729655e+003, 1.415787e-001
3.731583e+003, 1.424246e-001
3.733511e+003, 1.424274e-001
3.735440e+003, 1.433167e-001
3.737368e+003, 1.433286e-001
3.739297e+003, 1.430161e-001
3.741225e+003, 1.438114e-001
3.743154e+003, 1.447552e-001
3.745082e+003, 1.443361e-001
3.747011e+003, 1.432928e-001
3.748939e+003, 1.438752e-001
3.750868e+003, 1.434141e-001
3.752796e+003, 1.430877e-001
3.754725e+003, 1.427868e-001
3.756653e+003, 1.429704e-001
3.758582e+003, 1.434946e-001
3.760510e+003, 1.435146e-001
3.762438e+003, 1.428566e-001
3.764367e+003, 1.423163e-001
3.766295e+003, 1.419789e-001
3.768224e+003, 1.423796e-001
3.770152e+003, 1.429861e-001
3.772081e+003, 1.428932e-001
3.774009e+003, 1.429705e-001
3.775938e+003, 1.436615e-001
3.777866e+003, 1.442776e-001
3.779795e+003, 1.442179e-001
3.781723e+003, 1.432850e-001
3.783652e+003, 1.429446e-001
3.785580e+003, 1.429786e-001
3.787509e+003, 1.427659e-001
3.789437e+003, 1.428102e-001
3.791365e+003, 1.434723e-001
3.793294e+003, 1.439024e-001
3.795222e+003, 1.434870e-001
3.797151e+003, 1.430784e-001
3.799079e+003, 1.441151e-001
3.801008e+003, 1.449632e-001
3.802936e+003, 1.442430e-001
3.804865e+003, 1.445521e-001
3.806793e+003, 1.450517e-001
3.808722e+003, 1.445664e-001
3.810650e+003, 1.440197e-001
3.812579e+003, 1.438270e-001
3.814507e+003, 1.449230e-001
3.816436e+003, 1.451448e-001
3.818364e+003, 1.445573e-001
3.820292e+003, 1.447263e-001
3.822221e+003, 1.451174e-001
3.824149e+003, 1.441877e-001
3.826078e+003, 1.444183e-001
3.828006e+003, 1.457525e-001
3.829935e+003, 1.454570e-001
3.831863e+003, 1.446973e-001
3.833792e+003, 1.452926e-001
3.835720e+003, 1.463833e-001
3.837649e+003, 1.466936e-001
3.839577e+003, 1.459438e-001
3.841506e+003, 1.451306e-001
3.843434e+003, 1.451104e-001
3.845363e+003, 1.458695e-001
3.847291e+003, 1.453416e-001
3.849219e+003, 1.450465e-001
3.851148e+003, 1.458975e-001
3.853076e+003, 1.467358e-001
3.855005e+003, 1.465270e-001
3.856933e+003, 1.457738e-001
3.858862e+003, 1.460935e-001
3.860790e+003, 1.455563e-001
3.862719e+003, 1.457068e-001
3.864647e+003, 1.464915e-001
3.866576e+003, 1.464418e-001
3.868504e+003, 1.473013e-001
3.870433e+003, 1.475426e-001
3.872361e+003, 1.471827e-001
3.874290e+003, 1.469144e-001
3.876218e+003, 1.460709e-001
3.878146e+003, 1.461422e-001
3.880075e+003, 1.458935e-001
3.882003e+003, 1.466103e-001
3.883932e+003, 1.480963e-001
3.885860e+003, 1.474639e-001
3.887789e+003, 1.464919e-001
3.889717e+003, 1.467965e-001
3.891646e+003, 1.472892e-001
3.893574e+003, 1.471533e-001
3.895503e+003, 1.464027e-001
3.897431e+003, 1.467966e-001
3.899360e+003, 1.477087e-001
3.901288e+003, 1.483757e-001
3.903217e+003, 1.483862e-001
3.905145e+003, 1.475858e-001
3.907073e+003, 1.474243e-001
3.909002e+003, 1.475363e-001
3.910930e+003, 1.472316e-001
3.912859e+003, 1.470168e-001
3.914787e+003, 1.468934e-001
3.916716e+003, 1.470510e-001
3.918644e+003, 1.475543e-001
3.920573e+003, 1.479234e-001
3.922501e+003, 1.484940e-001
3.924430e+003, 1.481085e-001
3.926358e+003, 1.474258e-001
3.928287e+003, 1.475322e-001
3.930215e+003, 1.481564e-001
3.932144e+003, 1.486953e-001
3.934072e+003, 1.486219e-001
3.936000e+003, 1.479514e-001
3.937929e+003, 1.487232e-001
3.939857e+003, 1.498731e-001
3.941786e+003, 1.495124e-001
3.943714e+003, 1.489467e-001
3.945643e+003, 1.489543e-001
3.947571e+003, 1.490725e-001
3.949500e+003, 1.482731e-001
3.951428e+003, 1.478404e-001
3.953357e+003, 1.485298e-001
3.955285e+003, 1.487703e-001
3.957214e+003, 1.486714e-001
3.959142e+003, 1.482489e-001
3.961071e+003, 1.481951e-001
3.962999e+003, 1.488430e-001
3.964927e+003, 1.485317e-001
3.966856e+003, 1.483704e-001
3.968784e+003, 1.485565e-001
3.970713e+003, 1.490343e-001
3.972641e+003, 1.494504e-001
3.974570e+003, 1.491488e-001
3.976498e+003, 1.489315e-001
3.978427e+003, 1.492418e-001
3.980355e+003, 1.502137e-001
3.982284e+003, 1.506098e-001
3.984212e+003, 1.503826e-001
3.986141e+003, 1.493450e-001
3.988069e+003, 1.487835e-001
3.989998e+003, 1.493185e-001
3.991926e+003, 1.501403e-001
3.993854e+003, 1.498644e-001
3.995783e+003, 1.501063e-001
3.997711e+003, 1.502205e-001
3.999640e+003, 1.497539e-001
4.001568e+003, 0.000000e+000
##END=



