##NAMES=Albite
##RRUFFID=R050253
##IDEAL CHEMISTRY=NaAlSi_3_O_8_
##LOCALITY=Madawaska/Faraday mine, Bancroft, Ontario, Canada
##OWNER=RRUFF
##SOURCE=Marcus Origlieri
##DESCRIPTION=Colorless to brown prismatic single crystals
##STATUS=The identification of this mineral has been confirmed by X-ray diffraction and chemical analysis
##URL=rruff.info/R050253
##MEASURED CHEMISTRY=(Na_0.99_Ca_0.01_)Al_1.00_(Si_0.99_Al_0.01_)_3_O_8_
3.991926e+002, 1.979553e-001
4.011211e+002, 1.958662e-001
4.030495e+002, 1.909093e-001
4.049780e+002, 1.795972e-001
4.069065e+002, 1.706071e-001
4.088349e+002, 1.730855e-001
4.107634e+002, 1.812579e-001
4.126919e+002, 1.905301e-001
4.146203e+002, 1.983774e-001
4.165488e+002, 1.966794e-001
4.184773e+002, 1.850075e-001
4.204057e+002, 1.731887e-001
4.223342e+002, 1.634592e-001
4.242627e+002, 1.559186e-001
4.261911e+002, 1.517155e-001
4.281196e+002, 1.452964e-001
4.300481e+002, 1.368538e-001
4.319765e+002, 1.282401e-001
4.339050e+002, 1.187115e-001
4.358335e+002, 1.084663e-001
4.377619e+002, 9.733463e-002
4.396904e+002, 8.744512e-002
4.416189e+002, 7.945216e-002
4.435473e+002, 7.259028e-002
4.454758e+002, 6.652517e-002
4.474043e+002, 6.334618e-002
4.493327e+002, 6.290120e-002
4.512612e+002, 6.501236e-002
4.531897e+002, 7.086543e-002
4.551181e+002, 8.057429e-002
4.570466e+002, 9.353878e-002
4.589751e+002, 1.075227e-001
4.609035e+002, 1.182786e-001
4.628320e+002, 1.217861e-001
4.647605e+002, 1.161323e-001
4.666889e+002, 1.065509e-001
4.686174e+002, 9.869189e-002
4.705459e+002, 9.615427e-002
4.724743e+002, 9.762137e-002
4.744028e+002, 9.948322e-002
4.763313e+002, 9.746422e-002
4.782597e+002, 8.924253e-002
4.801882e+002, 7.674973e-002
4.821167e+002, 6.401819e-002
4.840451e+002, 5.312210e-002
4.859736e+002, 4.479443e-002
4.879021e+002, 3.931728e-002
4.898305e+002, 3.657905e-002
4.917590e+002, 3.498390e-002
4.936875e+002, 3.403815e-002
4.956159e+002, 3.354989e-002
4.975444e+002, 3.351343e-002
4.994729e+002, 3.374511e-002
5.014013e+002, 3.465571e-002
5.033298e+002, 3.569938e-002
5.052583e+002, 3.735549e-002
5.071867e+002, 3.951145e-002
5.091152e+002, 4.170536e-002
5.110437e+002, 4.477385e-002
5.129721e+002, 4.926901e-002
5.149006e+002, 5.509288e-002
5.168290e+002, 6.210458e-002
5.187575e+002, 7.067501e-002
5.206860e+002, 8.147383e-002
5.226144e+002, 9.471463e-002
5.245429e+002, 1.103713e-001
5.264714e+002, 1.259103e-001
5.283998e+002, 1.377922e-001
5.303283e+002, 1.420060e-001
5.322568e+002, 1.358751e-001
5.341852e+002, 1.231957e-001
5.361137e+002, 1.081989e-001
5.380422e+002, 9.290104e-002
5.399706e+002, 7.983198e-002
5.418991e+002, 7.044797e-002
5.438276e+002, 6.378755e-002
5.457560e+002, 5.971026e-002
5.476845e+002, 5.850056e-002
5.496130e+002, 5.887961e-002
5.515414e+002, 6.006627e-002
5.534699e+002, 6.230700e-002
5.553984e+002, 6.521235e-002
5.573268e+002, 6.888462e-002
5.592553e+002, 7.341266e-002
5.611838e+002, 7.889503e-002
5.631122e+002, 8.511705e-002
5.650407e+002, 9.193218e-002
5.669692e+002, 9.971139e-002
5.688976e+002, 1.084925e-001
5.708261e+002, 1.180305e-001
5.727546e+002, 1.278815e-001
5.746830e+002, 1.381186e-001
5.766115e+002, 1.475368e-001
5.785400e+002, 1.562540e-001
5.804684e+002, 1.637080e-001
5.823969e+002, 1.693276e-001
5.843254e+002, 1.727415e-001
5.862538e+002, 1.742778e-001
5.881823e+002, 1.734806e-001
5.901108e+002, 1.706104e-001
5.920392e+002, 1.665037e-001
5.939677e+002, 1.606714e-001
5.958962e+002, 1.530665e-001
5.978246e+002, 1.448304e-001
5.997531e+002, 1.363039e-001
6.016816e+002, 1.283799e-001
6.036100e+002, 1.227365e-001
6.055385e+002, 1.199519e-001
6.074670e+002, 1.185089e-001
6.093954e+002, 1.153744e-001
6.113239e+002, 1.092061e-001
6.132524e+002, 1.004180e-001
6.151808e+002, 9.017179e-002
6.171093e+002, 7.999120e-002
6.190378e+002, 7.039455e-002
6.209662e+002, 6.176857e-002
6.228947e+002, 5.472503e-002
6.248232e+002, 4.944958e-002
6.267516e+002, 4.565345e-002
6.286801e+002, 4.331222e-002
6.306086e+002, 4.233631e-002
6.325370e+002, 4.292557e-002
6.344655e+002, 4.471701e-002
6.363940e+002, 4.785760e-002
6.383224e+002, 5.297884e-002
6.402509e+002, 6.045785e-002
6.421794e+002, 7.063138e-002
6.441078e+002, 8.372530e-002
6.460363e+002, 9.736307e-002
6.479648e+002, 1.068671e-001
6.498932e+002, 1.077191e-001
6.518217e+002, 9.960388e-002
6.537502e+002, 8.616544e-002
6.556786e+002, 7.182188e-002
6.576071e+002, 5.908315e-002
6.595356e+002, 4.912921e-002
6.614641e+002, 4.197827e-002
6.633925e+002, 3.704501e-002
6.653210e+002, 3.383426e-002
6.672495e+002, 3.169724e-002
6.691779e+002, 3.010380e-002
6.711064e+002, 2.897924e-002
6.730349e+002, 2.844709e-002
6.749633e+002, 2.822777e-002
6.768918e+002, 2.821959e-002
6.788203e+002, 2.834262e-002
6.807487e+002, 2.852482e-002
6.826772e+002, 2.882985e-002
6.846057e+002, 2.926561e-002
6.865341e+002, 2.980169e-002
6.884626e+002, 3.038543e-002
6.903911e+002, 3.107260e-002
6.923195e+002, 3.212753e-002
6.942480e+002, 3.318977e-002
6.961765e+002, 3.449354e-002
6.981049e+002, 3.597819e-002
7.000334e+002, 3.764297e-002
7.019619e+002, 3.945489e-002
7.038903e+002, 4.183935e-002
7.058188e+002, 4.485136e-002
7.077473e+002, 4.870908e-002
7.096757e+002, 5.344754e-002
7.116042e+002, 5.908746e-002
7.135327e+002, 6.562543e-002
7.154611e+002, 7.305536e-002
7.173896e+002, 8.133482e-002
7.193181e+002, 9.013795e-002
7.212465e+002, 9.762628e-002
7.231750e+002, 1.003924e-001
7.251035e+002, 9.623928e-002
7.270319e+002, 8.662438e-002
7.289604e+002, 7.677555e-002
7.308889e+002, 7.078289e-002
7.328173e+002, 6.992694e-002
7.347458e+002, 7.383520e-002
7.366743e+002, 8.142874e-002
7.386027e+002, 9.178961e-002
7.405312e+002, 1.021022e-001
7.424597e+002, 1.082847e-001
7.443881e+002, 1.073891e-001
7.463166e+002, 9.990559e-002
7.482451e+002, 8.998182e-002
7.501735e+002, 8.219990e-002
7.521020e+002, 7.873212e-002
7.540305e+002, 8.076014e-002
7.559589e+002, 8.778187e-002
7.578874e+002, 9.730675e-002
7.598159e+002, 1.051486e-001
7.617443e+002, 1.057812e-001
7.636728e+002, 9.732435e-002
7.656013e+002, 8.320867e-002
7.675297e+002, 6.860001e-002
7.694582e+002, 5.672915e-002
7.713867e+002, 4.888120e-002
7.733151e+002, 4.476820e-002
7.752436e+002, 4.382036e-002
7.771721e+002, 4.546757e-002
7.791005e+002, 4.969199e-002
7.810290e+002, 5.686419e-002
7.829575e+002, 6.679869e-002
7.848859e+002, 7.734109e-002
7.868144e+002, 8.352372e-002
7.887429e+002, 8.045477e-002
7.906713e+002, 6.899474e-002
7.925998e+002, 5.477867e-002
7.945283e+002, 4.271505e-002
7.964567e+002, 3.461897e-002
7.983852e+002, 2.946035e-002
8.003137e+002, 2.621288e-002
8.022421e+002, 2.417110e-002
8.041706e+002, 2.294989e-002
8.060991e+002, 2.221680e-002
8.080275e+002, 2.164731e-002
8.099560e+002, 2.120570e-002
8.118845e+002, 2.088546e-002
8.138129e+002, 2.059574e-002
8.157414e+002, 2.058311e-002
8.176699e+002, 2.064802e-002
8.195983e+002, 2.065780e-002
8.215268e+002, 2.065723e-002
8.234553e+002, 2.074183e-002
8.253837e+002, 2.081630e-002
8.273122e+002, 2.108823e-002
8.292407e+002, 2.152300e-002
8.311691e+002, 2.175979e-002
8.330976e+002, 2.201083e-002
8.350261e+002, 2.247535e-002
8.369545e+002, 2.284161e-002
8.388830e+002, 2.335293e-002
8.408115e+002, 2.388422e-002
8.427399e+002, 2.439081e-002
8.446684e+002, 2.503384e-002
8.465969e+002, 2.577669e-002
8.485253e+002, 2.638703e-002
8.504538e+002, 2.700083e-002
8.523823e+002, 2.779837e-002
8.543107e+002, 2.853382e-002
8.562392e+002, 2.932828e-002
8.581677e+002, 3.058028e-002
8.600961e+002, 3.163985e-002
8.620246e+002, 3.263572e-002
8.639531e+002, 3.380965e-002
8.658815e+002, 3.524339e-002
8.678100e+002, 3.706104e-002
8.697385e+002, 3.969727e-002
8.716669e+002, 4.329507e-002
8.735954e+002, 4.742276e-002
8.755239e+002, 5.115985e-002
8.774523e+002, 5.340055e-002
8.793808e+002, 5.311812e-002
8.813093e+002, 5.116152e-002
8.832377e+002, 4.963282e-002
8.851662e+002, 4.895628e-002
8.870947e+002, 4.922482e-002
8.890231e+002, 5.062289e-002
8.909516e+002, 5.246786e-002
8.928801e+002, 5.456353e-002
8.948085e+002, 5.700726e-002
8.967370e+002, 5.954661e-002
8.986655e+002, 6.216076e-002
9.005939e+002, 6.485290e-002
9.025224e+002, 6.757285e-002
9.044509e+002, 7.032496e-002
9.063793e+002, 7.330696e-002
9.083078e+002, 7.657222e-002
9.102363e+002, 8.010627e-002
9.121647e+002, 8.377211e-002
9.140932e+002, 8.752270e-002
9.160217e+002, 9.177708e-002
9.179501e+002, 9.633160e-002
9.198786e+002, 1.010357e-001
9.218071e+002, 1.061827e-001
9.237355e+002, 1.117466e-001
9.256640e+002, 1.174662e-001
9.275925e+002, 1.235835e-001
9.295209e+002, 1.301627e-001
9.314494e+002, 1.369783e-001
9.333779e+002, 1.439411e-001
9.353063e+002, 1.511273e-001
9.372348e+002, 1.586270e-001
9.391633e+002, 1.664438e-001
9.410917e+002, 1.744911e-001
9.430202e+002, 1.831460e-001
9.449487e+002, 1.921089e-001
9.468771e+002, 2.010905e-001
9.488056e+002, 2.102596e-001
9.507341e+002, 2.199737e-001
9.526625e+002, 2.301089e-001
9.545910e+002, 2.402556e-001
9.565195e+002, 2.500950e-001
9.584479e+002, 2.600084e-001
9.603764e+002, 2.705472e-001
9.623049e+002, 2.817018e-001
9.642333e+002, 2.930143e-001
9.661618e+002, 3.043999e-001
9.680903e+002, 3.154744e-001
9.700187e+002, 3.260239e-001
9.719472e+002, 3.358932e-001
9.738757e+002, 3.447536e-001
9.758041e+002, 3.521929e-001
9.777326e+002, 3.581862e-001
9.796611e+002, 3.626463e-001
9.815895e+002, 3.660114e-001
9.835180e+002, 3.684007e-001
9.854465e+002, 3.694954e-001
9.873749e+002, 3.692861e-001
9.893034e+002, 3.679653e-001
9.912319e+002, 3.652368e-001
9.931603e+002, 3.613376e-001
9.950888e+002, 3.564950e-001
9.970173e+002, 3.506520e-001
9.989457e+002, 3.441904e-001
1.000874e+003, 3.376370e-001
1.002803e+003, 3.306065e-001
1.004731e+003, 3.233095e-001
1.006660e+003, 3.159333e-001
1.008588e+003, 3.085628e-001
1.010517e+003, 3.016540e-001
1.012445e+003, 2.955608e-001
1.014373e+003, 2.905493e-001
1.016302e+003, 2.864066e-001
1.018230e+003, 2.828554e-001
1.020159e+003, 2.801114e-001
1.022087e+003, 2.783359e-001
1.024016e+003, 2.775163e-001
1.025944e+003, 2.774474e-001
1.027873e+003, 2.774706e-001
1.029801e+003, 2.768108e-001
1.031730e+003, 2.744162e-001
1.033658e+003, 2.696385e-001
1.035587e+003, 2.624627e-001
1.037515e+003, 2.531011e-001
1.039443e+003, 2.421537e-001
1.041372e+003, 2.302409e-001
1.043300e+003, 2.177906e-001
1.045229e+003, 2.053879e-001
1.047157e+003, 1.934276e-001
1.049086e+003, 1.821978e-001
1.051014e+003, 1.722631e-001
1.052943e+003, 1.637231e-001
1.054871e+003, 1.565991e-001
1.056800e+003, 1.507213e-001
1.058728e+003, 1.460800e-001
1.060657e+003, 1.423738e-001
1.062585e+003, 1.393233e-001
1.064514e+003, 1.366367e-001
1.066442e+003, 1.343542e-001
1.068370e+003, 1.320788e-001
1.070299e+003, 1.297089e-001
1.072227e+003, 1.274441e-001
1.074156e+003, 1.256155e-001
1.076084e+003, 1.241808e-001
1.078013e+003, 1.234819e-001
1.079941e+003, 1.237687e-001
1.081870e+003, 1.250411e-001
1.083798e+003, 1.279233e-001
1.085727e+003, 1.328285e-001
1.087655e+003, 1.396259e-001
1.089584e+003, 1.477874e-001
1.091512e+003, 1.559292e-001
1.093441e+003, 1.627031e-001
1.095369e+003, 1.668932e-001
1.097297e+003, 1.681026e-001
1.099226e+003, 1.665714e-001
1.101154e+003, 1.634758e-001
1.103083e+003, 1.600992e-001
1.105011e+003, 1.571586e-001
1.106940e+003, 1.541484e-001
1.108868e+003, 1.510897e-001
1.110797e+003, 1.479406e-001
1.112725e+003, 1.446445e-001
1.114654e+003, 1.415334e-001
1.116582e+003, 1.389234e-001
1.118511e+003, 1.367430e-001
1.120439e+003, 1.352468e-001
1.122368e+003, 1.345596e-001
1.124296e+003, 1.348038e-001
1.126224e+003, 1.357934e-001
1.128153e+003, 1.373650e-001
1.130081e+003, 1.396203e-001
1.132010e+003, 1.425791e-001
1.133938e+003, 1.456726e-001
1.135867e+003, 1.489920e-001
1.137795e+003, 1.523327e-001
1.139724e+003, 1.554526e-001
1.141652e+003, 1.582318e-001
1.143581e+003, 1.604716e-001
1.145509e+003, 1.618484e-001
1.147438e+003, 1.624804e-001
1.149366e+003, 1.624156e-001
1.151295e+003, 1.615707e-001
1.153223e+003, 1.598207e-001
1.155151e+003, 1.570565e-001
1.157080e+003, 1.530930e-001
1.159008e+003, 1.482688e-001
1.160937e+003, 1.427681e-001
1.162865e+003, 1.365762e-001
1.164794e+003, 1.300277e-001
1.166722e+003, 1.235205e-001
1.168651e+003, 1.172230e-001
1.170579e+003, 1.110759e-001
1.172508e+003, 1.050997e-001
1.174436e+003, 9.937675e-002
1.176365e+003, 9.385218e-002
1.178293e+003, 8.851977e-002
1.180222e+003, 8.331326e-002
1.182150e+003, 7.832745e-002
1.184078e+003, 7.330403e-002
1.186007e+003, 6.831908e-002
1.187935e+003, 6.362913e-002
1.189864e+003, 5.902996e-002
1.191792e+003, 5.456671e-002
1.193721e+003, 5.037388e-002
1.195649e+003, 4.634193e-002
1.197578e+003, 4.274309e-002
1.199506e+003, 3.954398e-002
1.201435e+003, 3.651994e-002
1.203363e+003, 3.361450e-002
1.205292e+003, 3.113541e-002
1.207220e+003, 2.888771e-002
1.209149e+003, 2.654680e-002
1.211077e+003, 2.438134e-002
1.213005e+003, 2.245893e-002
1.214934e+003, 2.059382e-002
1.216862e+003, 1.889549e-002
1.218791e+003, 1.739043e-002
1.220719e+003, 1.602462e-002
1.222648e+003, 1.485816e-002
1.224576e+003, 1.392529e-002
1.226505e+003, 1.312431e-002
1.228433e+003, 1.240298e-002
1.230362e+003, 1.168669e-002
1.232290e+003, 1.098812e-002
1.234219e+003, 1.032727e-002
1.236147e+003, 9.844379e-003
1.238076e+003, 9.376431e-003
1.240004e+003, 8.963297e-003
1.241932e+003, 8.555646e-003
1.243861e+003, 8.098369e-003
1.245789e+003, 7.634050e-003
1.247718e+003, 7.186149e-003
1.249646e+003, 6.797873e-003
1.251575e+003, 6.431912e-003
1.253503e+003, 6.091719e-003
1.255432e+003, 5.773374e-003
1.257360e+003, 5.426451e-003
1.259289e+003, 5.225104e-003
1.261217e+003, 4.981371e-003
1.263146e+003, 4.786664e-003
1.265074e+003, 4.748081e-003
1.267003e+003, 4.593451e-003
1.268931e+003, 4.460456e-003
1.270859e+003, 4.272623e-003
1.272788e+003, 4.093322e-003
1.274716e+003, 4.047476e-003
1.276645e+003, 3.962070e-003
1.278573e+003, 3.861466e-003
1.280502e+003, 3.818656e-003
1.282430e+003, 3.753593e-003
1.284359e+003, 3.586216e-003
1.286287e+003, 3.373952e-003
1.288216e+003, 3.304540e-003
1.290144e+003, 3.201516e-003
1.292073e+003, 3.128491e-003
1.294001e+003, 3.217483e-003
1.295930e+003, 3.099937e-003
1.297858e+003, 2.937275e-003
1.299786e+003, 2.902151e-003
1.301715e+003, 2.980798e-003
1.303643e+003, 2.954637e-003
1.305572e+003, 2.815997e-003
1.307500e+003, 2.766558e-003
1.309429e+003, 2.798178e-003
1.311357e+003, 2.850846e-003
1.313286e+003, 2.822496e-003
1.315214e+003, 2.799352e-003
1.317143e+003, 2.813186e-003
1.319071e+003, 2.774825e-003
1.321000e+003, 2.736480e-003
1.322928e+003, 2.692731e-003
1.324857e+003, 2.582169e-003
1.326785e+003, 2.648889e-003
1.328714e+003, 2.716606e-003
1.330642e+003, 2.657871e-003
1.332570e+003, 2.636831e-003
1.334499e+003, 2.596268e-003
1.336427e+003, 2.647476e-003
1.338356e+003, 2.789931e-003
1.340284e+003, 2.858607e-003
1.342213e+003, 2.882964e-003
1.344141e+003, 2.891932e-003
1.346070e+003, 2.933103e-003
1.347998e+003, 2.971645e-003
1.349927e+003, 3.080693e-003
1.351855e+003, 3.174022e-003
1.353784e+003, 3.170704e-003
1.355712e+003, 3.301725e-003
1.357641e+003, 3.466892e-003
1.359569e+003, 3.561542e-003
1.361497e+003, 3.718012e-003
1.363426e+003, 3.842485e-003
1.365354e+003, 3.824879e-003
1.367283e+003, 3.859284e-003
1.369211e+003, 3.938433e-003
1.371140e+003, 4.061748e-003
1.373068e+003, 4.130450e-003
1.374997e+003, 4.168277e-003
1.376925e+003, 4.255862e-003
1.378854e+003, 4.475858e-003
1.380782e+003, 4.698513e-003
1.382711e+003, 4.907815e-003
1.384639e+003, 5.242362e-003
1.386568e+003, 5.667177e-003
1.388496e+003, 5.940572e-003
1.390424e+003, 6.156452e-003
1.392353e+003, 6.379374e-003
1.394281e+003, 6.833019e-003
1.396210e+003, 7.405797e-003
1.398138e+003, 7.807573e-003
1.400067e+003, 8.246048e-003
1.401995e+003, 8.633420e-003
1.403924e+003, 9.029607e-003
1.405852e+003, 9.468208e-003
1.407781e+003, 1.000954e-002
1.409709e+003, 1.059080e-002
1.411638e+003, 1.106402e-002
1.413566e+003, 1.161940e-002
1.415495e+003, 1.225955e-002
1.417423e+003, 1.288002e-002
1.419351e+003, 1.336003e-002
1.421280e+003, 1.374379e-002
1.423208e+003, 1.430422e-002
1.425137e+003, 1.477125e-002
1.427065e+003, 1.497088e-002
1.428994e+003, 1.526597e-002
1.430922e+003, 1.576014e-002
1.432851e+003, 1.617116e-002
1.434779e+003, 1.653457e-002
1.436708e+003, 1.688753e-002
1.438636e+003, 1.706093e-002
1.440565e+003, 1.730665e-002
1.442493e+003, 1.757438e-002
1.444422e+003, 1.771666e-002
1.446350e+003, 1.790106e-002
1.448278e+003, 1.821271e-002
1.450207e+003, 1.843119e-002
1.452135e+003, 1.842417e-002
1.454064e+003, 1.841359e-002
1.455992e+003, 1.875475e-002
1.457921e+003, 1.878707e-002
1.459849e+003, 1.834366e-002
1.461778e+003, 1.804220e-002
1.463706e+003, 1.805360e-002
1.465635e+003, 1.789364e-002
1.467563e+003, 1.749496e-002
1.469492e+003, 1.723680e-002
1.471420e+003, 1.709552e-002
1.473349e+003, 1.676366e-002
1.475277e+003, 1.636779e-002
1.477205e+003, 1.594816e-002
1.479134e+003, 1.559286e-002
1.481062e+003, 1.523158e-002
1.482991e+003, 1.481235e-002
1.484919e+003, 1.435224e-002
1.486848e+003, 1.391349e-002
1.488776e+003, 1.344965e-002
1.490705e+003, 1.290228e-002
1.492633e+003, 1.236141e-002
1.494562e+003, 1.210270e-002
1.496490e+003, 1.181689e-002
1.498419e+003, 1.117249e-002
1.500347e+003, 1.046726e-002
1.502276e+003, 9.960883e-003
1.504204e+003, 9.673985e-003
1.506132e+003, 9.579106e-003
1.508061e+003, 8.959525e-003
1.509989e+003, 8.240758e-003
1.511918e+003, 7.775509e-003
1.513846e+003, 7.181796e-003
1.515775e+003, 6.681104e-003
1.517703e+003, 6.342214e-003
1.519632e+003, 6.184497e-003
1.521560e+003, 5.893670e-003
1.523489e+003, 5.390137e-003
1.525417e+003, 5.032919e-003
1.527346e+003, 4.748016e-003
1.529274e+003, 4.475513e-003
1.531203e+003, 4.158773e-003
1.533131e+003, 3.983376e-003
1.535059e+003, 3.768177e-003
1.536988e+003, 3.716921e-003
1.538916e+003, 3.884126e-003
1.540845e+003, 3.578432e-003
1.542773e+003, 3.172450e-003
1.544702e+003, 3.018613e-003
1.546630e+003, 2.831511e-003
1.548559e+003, 2.827494e-003
1.550487e+003, 2.833116e-003
1.552416e+003, 2.717008e-003
1.554344e+003, 2.699739e-003
1.556273e+003, 2.884193e-003
1.558201e+003, 3.173657e-003
1.560130e+003, 3.017153e-003
1.562058e+003, 2.499436e-003
1.563986e+003, 2.376708e-003
1.565915e+003, 2.428830e-003
1.567843e+003, 2.424615e-003
1.569772e+003, 2.512933e-003
1.571700e+003, 2.451933e-003
1.573629e+003, 2.474752e-003
1.575557e+003, 2.663320e-003
1.577486e+003, 2.554345e-003
1.579414e+003, 2.416649e-003
1.581343e+003, 2.517973e-003
1.583271e+003, 2.540621e-003
1.585200e+003, 2.470750e-003
1.587128e+003, 2.500769e-003
1.589057e+003, 2.615610e-003
1.590985e+003, 2.670845e-003
1.592913e+003, 2.706448e-003
1.594842e+003, 2.678843e-003
1.596770e+003, 2.609051e-003
1.598699e+003, 2.712958e-003
1.600627e+003, 2.780969e-003
1.602556e+003, 2.673584e-003
1.604484e+003, 2.753700e-003
1.606413e+003, 2.794517e-003
1.608341e+003, 2.638766e-003
1.610270e+003, 2.816643e-003
1.612198e+003, 2.919668e-003
1.614127e+003, 2.977667e-003
1.616055e+003, 3.209135e-003
1.617984e+003, 2.998329e-003
1.619912e+003, 2.737449e-003
1.621840e+003, 2.798645e-003
1.623769e+003, 2.766374e-003
1.625697e+003, 2.594741e-003
1.627626e+003, 2.713104e-003
1.629554e+003, 2.792688e-003
1.631483e+003, 2.674002e-003
1.633411e+003, 2.780331e-003
1.635340e+003, 2.951064e-003
1.637268e+003, 2.646015e-003
1.639197e+003, 2.386038e-003
1.641125e+003, 2.317255e-003
1.643054e+003, 2.439478e-003
1.644982e+003, 2.701181e-003
1.646911e+003, 2.665678e-003
1.648839e+003, 2.522020e-003
1.650767e+003, 2.608460e-003
1.652696e+003, 2.971632e-003
1.654624e+003, 2.602218e-003
1.656553e+003, 2.184682e-003
1.658481e+003, 2.168707e-003
1.660410e+003, 2.243575e-003
1.662338e+003, 2.151710e-003
1.664267e+003, 1.974150e-003
1.666195e+003, 2.007662e-003
1.668124e+003, 2.149936e-003
1.670052e+003, 1.999818e-003
1.671981e+003, 1.837939e-003
1.673909e+003, 1.917075e-003
1.675838e+003, 1.908153e-003
1.677766e+003, 1.698921e-003
1.679694e+003, 1.617318e-003
1.681623e+003, 1.611573e-003
1.683551e+003, 1.878630e-003
1.685480e+003, 1.972615e-003
1.687408e+003, 1.793095e-003
1.689337e+003, 1.753461e-003
1.691265e+003, 1.744458e-003
1.693194e+003, 1.646305e-003
1.695122e+003, 1.787339e-003
1.697051e+003, 1.806514e-003
1.698979e+003, 1.858403e-003
1.700908e+003, 1.886622e-003
1.702836e+003, 1.553526e-003
1.704765e+003, 1.678359e-003
1.706693e+003, 1.789489e-003
1.708621e+003, 1.550021e-003
1.710550e+003, 1.401230e-003
1.712478e+003, 1.528916e-003
1.714407e+003, 1.528938e-003
1.716335e+003, 1.817128e-003
1.718264e+003, 1.803883e-003
1.720192e+003, 1.343961e-003
1.722121e+003, 1.279275e-003
1.724049e+003, 1.279401e-003
1.725978e+003, 1.259703e-003
1.727906e+003, 1.296906e-003
1.729835e+003, 1.117186e-003
1.731763e+003, 1.109879e-003
1.733692e+003, 1.197998e-003
1.735620e+003, 9.079945e-004
1.737548e+003, 6.417718e-004
1.739477e+003, 6.599160e-004
1.741405e+003, 7.037990e-004
1.743334e+003, 7.112391e-004
1.745262e+003, 5.839579e-004
1.747191e+003, 4.690435e-004
1.749119e+003, 4.628355e-004
1.751048e+003, 5.647852e-004
1.752976e+003, 6.222689e-004
1.754905e+003, 6.898341e-004
1.756833e+003, 8.660550e-004
1.758762e+003, 8.094981e-004
1.760690e+003, 8.122101e-004
1.762619e+003, 9.140178e-004
1.764547e+003, 9.551888e-004
1.766475e+003, 9.711325e-004
1.768404e+003, 9.519675e-004
1.770332e+003, 8.432032e-004
1.772261e+003, 8.142745e-004
1.774189e+003, 6.700132e-004
1.776118e+003, 6.478930e-004
1.778046e+003, 7.725027e-004
1.779975e+003, 8.521149e-004
1.781903e+003, 8.859774e-004
1.783832e+003, 8.973675e-004
1.785760e+003, 7.154517e-004
1.787689e+003, 6.628144e-004
1.789617e+003, 8.944414e-004
1.791546e+003, 1.181031e-003
1.793474e+003, 1.297370e-003
1.795402e+003, 1.228473e-003
1.797331e+003, 9.820218e-004
1.799259e+003, 7.403684e-004
1.801188e+003, 6.961895e-004
1.803116e+003, 6.579673e-004
1.805045e+003, 6.981379e-004
1.806973e+003, 5.219649e-004
1.808902e+003, 2.861544e-004
1.810830e+003, 2.772363e-004
1.812759e+003, 1.794400e-004
1.814687e+003, -1.967523e-004
1.816616e+003, -3.177048e-004
1.818544e+003, -1.128485e-004
1.820473e+003, 3.796381e-005
1.822401e+003, 2.449918e-005
1.824329e+003, -9.364186e-006
1.826258e+003, -1.381069e-004
1.828186e+003, -1.951700e-004
1.830115e+003, -8.889144e-005
1.832043e+003, -2.468331e-005
1.833972e+003, -1.957919e-004
1.835900e+003, -5.061937e-004
1.837829e+003, -6.475701e-004
1.839757e+003, -5.541778e-004
1.841686e+003, -4.377179e-004
1.843614e+003, -3.443703e-004
1.845543e+003, -4.118782e-004
1.847471e+003, -7.476147e-004
1.849400e+003, -8.195667e-004
1.851328e+003, -7.757843e-004
1.853256e+003, -9.494834e-004
1.855185e+003, -5.715503e-004
1.857113e+003, -3.615514e-004
1.859042e+003, -6.480865e-004
1.860970e+003, -1.021951e-003
1.862899e+003, -1.131166e-003
1.864827e+003, -1.053698e-003
1.866756e+003, -9.579584e-004
1.868684e+003, -9.189806e-004
1.870613e+003, -9.246690e-004
1.872541e+003, -8.473803e-004
1.874470e+003, -1.007786e-003
1.876398e+003, -1.406976e-003
1.878327e+003, -1.532535e-003
1.880255e+003, -1.461031e-003
1.882183e+003, -1.802534e-003
1.884112e+003, -1.979380e-003
1.886040e+003, -1.968471e-003
1.887969e+003, -1.681132e-003
1.889897e+003, -1.556656e-003
1.891826e+003, -1.333441e-003
1.893754e+003, -1.036656e-003
1.895683e+003, -9.208027e-004
1.897611e+003, -1.089739e-003
1.899540e+003, -1.371137e-003
1.901468e+003, -1.421861e-003
1.903397e+003, -1.676443e-003
1.905325e+003, -1.562711e-003
1.907254e+003, -1.430866e-003
1.909182e+003, -1.880702e-003
1.911110e+003, -2.226845e-003
1.913039e+003, -1.698022e-003
1.914967e+003, -1.286214e-003
1.916896e+003, -1.512442e-003
1.918824e+003, -1.701102e-003
1.920753e+003, -2.040886e-003
1.922681e+003, -2.291258e-003
1.924610e+003, -2.809574e-003
1.926538e+003, -2.686127e-003
1.928467e+003, -2.056944e-003
1.930395e+003, -1.754157e-003
1.932324e+003, -1.804349e-003
1.934252e+003, -2.345967e-003
1.936181e+003, -2.915551e-003
1.938109e+003, -2.886341e-003
1.940037e+003, -2.649044e-003
1.941966e+003, -2.277391e-003
1.943894e+003, -2.253752e-003
1.945823e+003, -2.951415e-003
1.947751e+003, -3.467079e-003
1.949680e+003, -3.327461e-003
1.951608e+003, -3.344133e-003
1.953537e+003, -3.009151e-003
1.955465e+003, -3.317130e-003
1.957394e+003, -3.422169e-003
1.959322e+003, -2.884264e-003
1.961251e+003, -2.796291e-003
1.963179e+003, -3.306259e-003
1.965108e+003, -3.202012e-003
1.967036e+003, -3.446658e-003
1.968964e+003, -3.797716e-003
1.970893e+003, -3.792828e-003
1.972821e+003, -3.890707e-003
1.974750e+003, -3.883071e-003
1.976678e+003, -3.635378e-003
1.978607e+003, -2.400871e-003
1.980535e+003, -2.089330e-003
1.982464e+003, -2.491615e-003
1.984392e+003, -2.133864e-003
1.986321e+003, -2.894889e-003
1.988249e+003, -3.743544e-003
1.990178e+003, -3.449476e-003
1.992106e+003, -2.297604e-003
1.994035e+003, -2.264047e-003
1.995963e+003, -2.845139e-003
1.997891e+003, -3.307925e-003
1.999820e+003, -3.253618e-003
2.001748e+003, -3.932061e-003
2.003677e+003, -4.791910e-003
2.005605e+003, -5.201074e-003
2.007534e+003, -3.555745e-003
2.009462e+003, -2.738666e-003
2.011391e+003, -3.009846e-003
2.013319e+003, -2.589996e-003
2.015248e+003, -2.170999e-003
2.017176e+003, -1.793023e-003
2.019105e+003, -1.939291e-003
2.021033e+003, -2.447589e-003
2.022962e+003, -3.174709e-003
2.024890e+003, -3.084986e-003
2.026818e+003, -1.711230e-003
2.028747e+003, -6.582816e-004
2.030675e+003, -1.030450e-003
2.032604e+003, -1.939080e-003
2.034532e+003, -1.847623e-003
2.036461e+003, -2.341625e-003
2.038389e+003, -2.218387e-003
2.040318e+003, -1.537968e-003
2.042246e+003, -1.685891e-003
2.044175e+003, -2.123320e-003
2.046103e+003, -2.003886e-003
2.048031e+003, -1.816503e-003
2.049960e+003, -1.678356e-003
2.051888e+003, -1.702901e-003
2.053817e+003, -1.579603e-003
2.055745e+003, -2.302018e-003
2.057674e+003, -2.617993e-003
2.059602e+003, -2.703954e-003
2.061531e+003, -3.243873e-003
2.063459e+003, -3.141182e-003
2.065388e+003, -3.240728e-003
2.067316e+003, -3.519218e-003
2.069245e+003, -2.741151e-003
2.071173e+003, -2.432464e-003
2.073102e+003, -2.801523e-003
2.075030e+003, -2.380619e-003
2.076958e+003, -1.664338e-003
2.078887e+003, -1.836726e-003
2.080815e+003, -2.203050e-003
2.082744e+003, -2.206035e-003
2.084672e+003, -1.853894e-003
2.086601e+003, -2.235151e-003
2.088529e+003, -2.043092e-003
2.090458e+003, -1.574496e-003
2.092386e+003, -1.588990e-003
2.094315e+003, -1.905222e-003
2.096243e+003, -1.518735e-003
2.098172e+003, -9.903905e-004
2.100100e+003, -1.242509e-003
2.102029e+003, -1.419937e-003
2.103957e+003, -1.255524e-003
2.105885e+003, -8.833611e-004
2.107814e+003, -7.494675e-004
2.109742e+003, -1.480373e-003
2.111671e+003, -1.534139e-003
2.113599e+003, -1.083399e-003
2.115528e+003, -1.290210e-003
2.117456e+003, -1.763249e-003
2.119385e+003, -1.932209e-003
2.121313e+003, -1.885755e-003
2.123242e+003, -1.764769e-003
2.125170e+003, -2.019096e-003
2.127099e+003, -2.673714e-003
2.129027e+003, -2.645806e-003
2.130956e+003, -2.263417e-003
2.132884e+003, -1.420221e-003
2.134813e+003, -1.684029e-003
2.136741e+003, -1.782824e-003
2.138669e+003, -1.436643e-003
2.140598e+003, -1.283316e-003
2.142526e+003, -6.208916e-004
2.144455e+003, -1.042522e-003
2.146383e+003, -1.806186e-003
2.148312e+003, -1.865232e-003
2.150240e+003, -1.893144e-003
2.152169e+003, -9.575631e-004
2.154097e+003, -1.068995e-004
2.156026e+003, -4.916503e-004
2.157954e+003, 4.336969e-004
2.159883e+003, 1.522391e-003
2.161811e+003, 1.155426e-003
2.163740e+003, 1.198852e-003
2.165668e+003, 2.459883e-003
2.167596e+003, 1.639921e-003
2.169525e+003, 2.415101e-004
2.171453e+003, -3.352817e-004
2.173382e+003, -2.171770e-004
2.175310e+003, -4.420569e-004
2.177239e+003, -9.280285e-004
2.179167e+003, -5.710484e-004
2.181096e+003, 5.484466e-005
2.183024e+003, 3.544753e-005
2.184953e+003, -6.362596e-004
2.186881e+003, -1.041241e-003
2.188810e+003, -8.220756e-004
2.190738e+003, -1.506939e-003
2.192667e+003, -2.699564e-003
2.194595e+003, -2.449776e-003
2.196523e+003, -7.825647e-004
2.198452e+003, -3.963932e-004
2.200380e+003, -1.014776e-003
2.202309e+003, -1.065454e-003
2.204237e+003, -1.143615e-003
2.206166e+003, -9.874506e-004
2.208094e+003, -1.482318e-003
2.210023e+003, -1.422542e-003
2.211951e+003, -8.836738e-004
2.213880e+003, -2.044722e-003
2.215808e+003, -2.133115e-003
2.217737e+003, -8.746276e-004
2.219665e+003, 2.960120e-004
2.221594e+003, 1.402420e-004
2.223522e+003, -3.671162e-004
2.225450e+003, -5.759161e-004
2.227379e+003, -9.414756e-004
2.229307e+003, -1.539823e-003
2.231236e+003, -1.641188e-003
2.233164e+003, -6.973515e-004
2.235093e+003, 2.080286e-004
2.237021e+003, 4.570582e-005
2.238950e+003, -4.421317e-004
2.240878e+003, -9.502186e-004
2.242807e+003, -9.717830e-004
2.244735e+003, -1.034289e-003
2.246664e+003, -1.625456e-003
2.248592e+003, -1.314977e-003
2.250521e+003, -8.770560e-004
2.252449e+003, -1.548829e-003
2.254377e+003, -1.747082e-003
2.256306e+003, -1.512526e-003
2.258234e+003, -1.093479e-003
2.260163e+003, -1.104634e-003
2.262091e+003, -1.089559e-003
2.264020e+003, -9.805901e-004
2.265948e+003, -8.471773e-004
2.267877e+003, -6.751472e-004
2.269805e+003, -9.931289e-004
2.271734e+003, -1.318956e-003
2.273662e+003, -1.007545e-003
2.275591e+003, -6.498127e-004
2.277519e+003, -8.535529e-004
2.279448e+003, -1.345519e-003
2.281376e+003, -1.529473e-003
2.283304e+003, -1.190042e-003
2.285233e+003, -8.975376e-004
2.287161e+003, -1.012105e-003
2.289090e+003, -1.349624e-003
2.291018e+003, -1.286149e-003
2.292947e+003, -1.025994e-003
2.294875e+003, -1.075738e-003
2.296804e+003, -1.553167e-003
2.298732e+003, -1.873779e-003
2.300661e+003, -1.700773e-003
2.302589e+003, -1.454547e-003
2.304518e+003, -1.447523e-003
2.306446e+003, -1.637350e-003
2.308375e+003, -1.801927e-003
2.310303e+003, -1.671382e-003
2.312231e+003, -1.661495e-003
2.314160e+003, -1.469585e-003
2.316088e+003, -1.366664e-003
2.318017e+003, -1.211644e-003
2.319945e+003, -1.177861e-003
2.321874e+003, -1.106205e-003
2.323802e+003, -9.324421e-004
2.325731e+003, -1.282538e-003
2.327659e+003, -1.786639e-003
2.329588e+003, -1.907007e-003
2.331516e+003, -2.178537e-003
2.333445e+003, -2.270486e-003
2.335373e+003, -1.956898e-003
2.337302e+003, -1.717026e-003
2.339230e+003, -1.515667e-003
2.341158e+003, -1.664969e-003
2.343087e+003, -1.748770e-003
2.345015e+003, -1.460903e-003
2.346944e+003, -1.490286e-003
2.348872e+003, -1.751839e-003
2.350801e+003, -1.584845e-003
2.352729e+003, -1.643509e-003
2.354658e+003, -1.586072e-003
2.356586e+003, -1.528440e-003
2.358515e+003, -1.910309e-003
2.360443e+003, -2.032229e-003
2.362372e+003, -1.755017e-003
2.364300e+003, -1.294663e-003
2.366229e+003, -1.106174e-003
2.368157e+003, -1.313909e-003
2.370085e+003, -1.384071e-003
2.372014e+003, -1.611087e-003
2.373942e+003, -1.857174e-003
2.375871e+003, -1.865821e-003
2.377799e+003, -1.832178e-003
2.379728e+003, -1.803627e-003
2.381656e+003, -1.840793e-003
2.383585e+003, -1.870673e-003
2.385513e+003, -1.480420e-003
2.387442e+003, -1.159483e-003
2.389370e+003, -1.252865e-003
2.391299e+003, -1.291319e-003
2.393227e+003, -1.325655e-003
2.395156e+003, -1.157626e-003
2.397084e+003, -1.147660e-003
2.399012e+003, -1.178354e-003
2.400941e+003, -1.170977e-003
2.402869e+003, -1.311590e-003
2.404798e+003, -1.147181e-003
2.406726e+003, -1.297725e-003
2.408655e+003, -1.594061e-003
2.410583e+003, -8.667695e-004
2.412512e+003, -3.887531e-004
2.414440e+003, -5.061525e-004
2.416369e+003, -7.069928e-004
2.418297e+003, -7.675248e-004
2.420226e+003, -4.354964e-004
2.422154e+003, -4.484542e-004
2.424083e+003, -2.126890e-004
2.426011e+003, -3.493390e-004
2.427939e+003, -3.792992e-004
2.429868e+003, -3.723218e-005
2.431796e+003, 1.205233e-004
2.433725e+003, -2.309197e-004
2.435653e+003, -3.505751e-004
2.437582e+003, -2.708868e-004
2.439510e+003, 4.322512e-005
2.441439e+003, 1.598460e-004
2.443367e+003, 1.501979e-004
2.445296e+003, 9.352700e-005
2.447224e+003, -2.834596e-004
2.449153e+003, -4.467093e-004
2.451081e+003, -5.310716e-005
2.453010e+003, 9.829213e-005
2.454938e+003, -3.171347e-004
2.456866e+003, -5.037004e-004
2.458795e+003, 5.767257e-005
2.460723e+003, 3.647636e-004
2.462652e+003, 1.021306e-004
2.464580e+003, -1.391539e-004
2.466509e+003, 3.581719e-004
2.468437e+003, 8.711470e-004
2.470366e+003, 4.271386e-004
2.472294e+003, -2.573674e-004
2.474223e+003, -5.895859e-004
2.476151e+003, -3.642610e-004
2.478080e+003, 1.129376e-004
2.480008e+003, 3.772024e-004
2.481937e+003, 2.877652e-004
2.483865e+003, -9.420810e-005
2.485793e+003, -6.832569e-005
2.487722e+003, 1.970704e-004
2.489650e+003, 3.249831e-004
2.491579e+003, 1.049548e-004
2.493507e+003, -8.157131e-005
2.495436e+003, -1.163427e-004
2.497364e+003, 9.392716e-005
2.499293e+003, 5.606139e-004
2.501221e+003, 6.824668e-004
2.503150e+003, 1.246489e-003
2.505078e+003, 1.381754e-003
2.507007e+003, 4.657888e-004
2.508935e+003, 1.298186e-004
2.510864e+003, 5.628454e-004
2.512792e+003, 5.127321e-004
2.514720e+003, 1.949467e-004
2.516649e+003, 4.414147e-004
2.518577e+003, 6.052479e-004
2.520506e+003, 4.593556e-004
2.522434e+003, 4.616461e-004
2.524363e+003, 7.140820e-004
2.526291e+003, 3.772371e-004
2.528220e+003, 2.433203e-004
2.530148e+003, 4.329540e-004
2.532077e+003, 3.895024e-004
2.534005e+003, 4.922352e-005
2.535934e+003, -7.851866e-005
2.537862e+003, 4.342064e-004
2.539791e+003, 8.009070e-004
2.541719e+003, 6.192711e-004
2.543647e+003, 3.539969e-004
2.545576e+003, 2.549117e-004
2.547504e+003, 4.586170e-004
2.549433e+003, 7.997571e-004
2.551361e+003, 9.453109e-004
2.553290e+003, 6.681922e-004
2.555218e+003, 4.450231e-004
2.557147e+003, 3.810464e-004
2.559075e+003, 5.366762e-004
2.561004e+003, 8.938071e-004
2.562932e+003, 8.503071e-004
2.564861e+003, 4.104413e-004
2.566789e+003, 2.482110e-004
2.568718e+003, 3.963038e-004
2.570646e+003, 5.443715e-004
2.572574e+003, 8.539855e-004
2.574503e+003, 6.229865e-004
2.576431e+003, 5.102330e-004
2.578360e+003, 3.538241e-004
2.580288e+003, 2.769724e-004
2.582217e+003, 4.279214e-004
2.584145e+003, 3.524605e-004
2.586074e+003, 5.403049e-004
2.588002e+003, 7.814883e-004
2.589931e+003, 1.226573e-003
2.591859e+003, 1.171295e-003
2.593788e+003, 5.907820e-004
2.595716e+003, 3.876805e-004
2.597645e+003, 6.446724e-004
2.599573e+003, 6.985294e-004
2.601501e+003, 8.854659e-004
2.603430e+003, 9.111892e-004
2.605358e+003, 7.227125e-004
2.607287e+003, 4.333794e-004
2.609215e+003, 3.809782e-004
2.611144e+003, 8.814509e-004
2.613072e+003, 9.669636e-004
2.615001e+003, 5.829175e-004
2.616929e+003, 7.366787e-004
2.618858e+003, 9.182146e-004
2.620786e+003, 9.701000e-004
2.622715e+003, 9.027497e-004
2.624643e+003, 6.610805e-004
2.626572e+003, 3.707149e-004
2.628500e+003, 4.867187e-004
2.630428e+003, 8.578053e-004
2.632357e+003, 7.368018e-004
2.634285e+003, 7.663602e-004
2.636214e+003, 8.176502e-004
2.638142e+003, 9.683929e-004
2.640071e+003, 8.513026e-004
2.641999e+003, 4.563289e-004
2.643928e+003, 4.486223e-004
2.645856e+003, 4.503755e-004
2.647785e+003, 1.771257e-004
2.649713e+003, 9.880860e-007
2.651642e+003, 1.499382e-004
2.653570e+003, 1.457732e-004
2.655499e+003, 2.430534e-004
2.657427e+003, 5.183294e-004
2.659355e+003, 1.327893e-004
2.661284e+003, -4.406641e-005
2.663212e+003, -5.014034e-005
2.665141e+003, -1.981338e-004
2.667069e+003, -1.234050e-004
2.668998e+003, -9.977285e-005
2.670926e+003, -2.142185e-004
2.672855e+003, -1.884828e-004
2.674783e+003, -2.329865e-004
2.676712e+003, -1.733541e-004
2.678640e+003, -1.191457e-004
2.680569e+003, -8.527117e-005
2.682497e+003, -1.458281e-004
2.684426e+003, -5.705079e-005
2.686354e+003, -1.223813e-004
2.688282e+003, -3.917225e-004
2.690211e+003, -4.548731e-004
2.692139e+003, -4.520531e-004
2.694068e+003, -3.158140e-004
2.695996e+003, -1.394512e-004
2.697925e+003, -3.767028e-004
2.699853e+003, -5.910886e-004
2.701782e+003, -4.663061e-004
2.703710e+003, -3.846642e-004
2.705639e+003, -2.785333e-004
2.707567e+003, -7.598157e-005
2.709496e+003, -8.624287e-005
2.711424e+003, -6.668334e-005
2.713353e+003, -2.519542e-004
2.715281e+003, -5.548142e-004
2.717209e+003, -5.432021e-004
2.719138e+003, -3.169698e-004
2.721066e+003, -3.305862e-004
2.722995e+003, -4.440735e-004
2.724923e+003, -6.144599e-004
2.726852e+003, -5.201375e-004
2.728780e+003, -4.224084e-004
2.730709e+003, -3.764505e-004
2.732637e+003, -3.244625e-004
2.734566e+003, -4.649517e-004
2.736494e+003, -5.461839e-004
2.738423e+003, -2.024015e-004
2.740351e+003, -9.165690e-005
2.742280e+003, -3.085276e-004
2.744208e+003, -2.335286e-004
2.746136e+003, 4.073152e-005
2.748065e+003, 7.895217e-005
2.749993e+003, -1.228717e-004
2.751922e+003, -1.700519e-004
2.753850e+003, -2.111040e-004
2.755779e+003, -5.892896e-005
2.757707e+003, -2.002655e-004
2.759636e+003, 1.740437e-005
2.761564e+003, 2.779856e-004
2.763493e+003, 5.769547e-005
2.765421e+003, -6.132667e-005
2.767350e+003, -3.040075e-004
2.769278e+003, -2.071233e-004
2.771207e+003, 9.860576e-005
2.773135e+003, 6.654314e-005
2.775063e+003, -5.556626e-005
2.776992e+003, -1.288363e-005
2.778920e+003, 2.462288e-005
2.780849e+003, -1.536068e-004
2.782777e+003, -2.799653e-004
2.784706e+003, -9.570779e-005
2.786634e+003, 1.559524e-004
2.788563e+003, -6.999222e-005
2.790491e+003, -3.911947e-005
2.792420e+003, 1.722251e-004
2.794348e+003, 1.911725e-004
2.796277e+003, 1.616946e-004
2.798205e+003, 3.767930e-004
2.800134e+003, 4.781644e-004
2.802062e+003, 3.098481e-006
2.803990e+003, -1.684241e-005
2.805919e+003, 3.234027e-004
2.807847e+003, 2.166457e-004
2.809776e+003, -1.852501e-004
2.811704e+003, -1.968024e-004
2.813633e+003, -2.088250e-004
2.815561e+003, 4.536071e-005
2.817490e+003, 3.336566e-004
2.819418e+003, 2.471246e-004
2.821347e+003, 2.374151e-004
2.823275e+003, 1.195519e-004
2.825204e+003, 3.757840e-005
2.827132e+003, 1.939886e-004
2.829061e+003, 5.152067e-004
2.830989e+003, 5.771502e-004
2.832917e+003, 3.268813e-004
2.834846e+003, 4.699518e-004
2.836774e+003, 7.358757e-004
2.838703e+003, 4.341734e-004
2.840631e+003, 3.469436e-004
2.842560e+003, 5.703419e-004
2.844488e+003, 5.820772e-004
2.846417e+003, 6.531904e-004
2.848345e+003, 8.755830e-004
2.850274e+003, 7.885233e-004
2.852202e+003, 4.341665e-004
2.854131e+003, 4.520896e-004
2.856059e+003, 4.140072e-004
2.857988e+003, 1.822658e-004
2.859916e+003, 1.656598e-004
2.861844e+003, 3.276982e-004
2.863773e+003, 5.041309e-004
2.865701e+003, 2.219485e-004
2.867630e+003, -7.477864e-005
2.869558e+003, 2.118901e-004
2.871487e+003, 8.623503e-004
2.873415e+003, 1.136147e-003
2.875344e+003, 9.824780e-004
2.877272e+003, 9.108665e-004
2.879201e+003, 7.414987e-004
2.881129e+003, 3.208826e-004
2.883058e+003, 1.831791e-004
2.884986e+003, 4.052496e-004
2.886915e+003, 6.779111e-004
2.888843e+003, 5.758366e-004
2.890771e+003, 2.081666e-004
2.892700e+003, 2.056621e-005
2.894628e+003, 3.627178e-005
2.896557e+003, 3.584747e-004
2.898485e+003, 5.728921e-004
2.900414e+003, 5.602455e-004
2.902342e+003, 5.845138e-004
2.904271e+003, 8.013878e-004
2.906199e+003, 9.705844e-004
2.908128e+003, 9.079242e-004
2.910056e+003, 9.005659e-004
2.911985e+003, 1.033579e-003
2.913913e+003, 1.226225e-003
2.915842e+003, 1.342254e-003
2.917770e+003, 1.459726e-003
2.919698e+003, 1.443489e-003
2.921627e+003, 1.415127e-003
2.923555e+003, 1.339406e-003
2.925484e+003, 1.432414e-003
2.927412e+003, 1.169702e-003
2.929341e+003, 1.159338e-003
2.931269e+003, 1.287892e-003
2.933198e+003, 1.251129e-003
2.935126e+003, 1.102293e-003
2.937055e+003, 1.000694e-003
2.938983e+003, 9.543428e-004
2.940912e+003, 7.107689e-004
2.942840e+003, 2.852045e-004
2.944769e+003, 3.578558e-004
2.946697e+003, 2.046159e-004
2.948625e+003, 4.430453e-004
2.950554e+003, 1.060607e-003
2.952482e+003, 1.098849e-003
2.954411e+003, 6.388369e-004
2.956339e+003, 6.196930e-004
2.958268e+003, 6.949726e-004
2.960196e+003, 4.061022e-004
2.962125e+003, 1.866219e-004
2.964053e+003, 1.301099e-004
2.965982e+003, 3.969234e-004
2.967910e+003, 8.132905e-004
2.969839e+003, 5.289414e-004
2.971767e+003, 3.561775e-004
2.973696e+003, 6.024650e-004
2.975624e+003, 1.849488e-004
2.977552e+003, 9.769064e-005
2.979481e+003, 6.463374e-005
2.981409e+003, 1.450446e-004
2.983338e+003, 4.342726e-004
2.985266e+003, 5.088155e-004
2.987195e+003, 2.822652e-004
2.989123e+003, 6.286626e-004
2.991052e+003, 9.242268e-004
2.992980e+003, 4.400922e-004
2.994909e+003, 1.801836e-004
2.996837e+003, 4.506858e-004
2.998766e+003, 6.363097e-004
3.000694e+003, 2.761291e-004
3.002623e+003, 1.462103e-004
3.004551e+003, 5.695609e-004
3.006479e+003, 3.370895e-004
3.008408e+003, 1.219058e-004
3.010336e+003, 2.020399e-004
3.012265e+003, 7.395881e-005
3.014193e+003, 1.669355e-004
3.016122e+003, 3.796098e-004
3.018050e+003, 2.550679e-004
3.019979e+003, 1.661373e-005
3.021907e+003, -1.939823e-004
3.023836e+003, 3.296218e-005
3.025764e+003, 4.930897e-004
3.027693e+003, 6.494069e-004
3.029621e+003, 4.312560e-004
3.031550e+003, 3.817375e-004
3.033478e+003, 7.246112e-004
3.035406e+003, 1.309199e-003
3.037335e+003, 1.078501e-003
3.039263e+003, 4.388217e-004
3.041192e+003, 4.411596e-004
3.043120e+003, 6.357794e-004
3.045049e+003, 7.765407e-004
3.046977e+003, 8.846729e-004
3.048906e+003, 8.487960e-004
3.050834e+003, 4.289693e-004
3.052763e+003, 7.002843e-004
3.054691e+003, 1.233227e-003
3.056620e+003, 7.463608e-004
3.058548e+003, 1.854382e-005
3.060477e+003, 3.747252e-005
3.062405e+003, 7.250867e-004
3.064333e+003, 9.613907e-004
3.066262e+003, 8.336509e-004
3.068190e+003, 8.049355e-004
3.070119e+003, 7.654970e-004
3.072047e+003, 1.116008e-003
3.073976e+003, 1.288844e-003
3.075904e+003, 8.376645e-004
3.077833e+003, 7.519101e-004
3.079761e+003, 8.609741e-004
3.081690e+003, 6.097289e-004
3.083618e+003, 6.297930e-004
3.085547e+003, 8.903607e-004
3.087475e+003, 1.259337e-003
3.089404e+003, 1.661967e-003
3.091332e+003, 2.061240e-003
3.093260e+003, 2.096252e-003
3.095189e+003, 1.866520e-003
3.097117e+003, 1.634085e-003
3.099046e+003, 1.766747e-003
3.100974e+003, 1.573269e-003
3.102903e+003, 1.498334e-003
3.104831e+003, 1.279361e-003
3.106760e+003, 1.391083e-003
3.108688e+003, 1.532948e-003
3.110617e+003, 1.407668e-003
3.112545e+003, 1.345409e-003
3.114474e+003, 1.229273e-003
3.116402e+003, 1.295814e-003
3.118331e+003, 1.702666e-003
3.120259e+003, 2.147719e-003
3.122188e+003, 2.182147e-003
3.124116e+003, 1.999225e-003
3.126044e+003, 1.852184e-003
3.127973e+003, 1.496010e-003
3.129901e+003, 1.381644e-003
3.131830e+003, 1.515726e-003
3.133758e+003, 1.671089e-003
3.135687e+003, 1.294095e-003
3.137615e+003, 1.141681e-003
3.139544e+003, 1.509782e-003
3.141472e+003, 1.673021e-003
3.143401e+003, 2.076579e-003
3.145329e+003, 2.452143e-003
3.147258e+003, 2.639448e-003
3.149186e+003, 2.140659e-003
3.151115e+003, 1.850311e-003
3.153043e+003, 1.999003e-003
3.154971e+003, 2.017559e-003
3.156900e+003, 2.218933e-003
3.158828e+003, 2.200746e-003
3.160757e+003, 2.392535e-003
3.162685e+003, 2.612101e-003
3.164614e+003, 2.425092e-003
3.166542e+003, 2.333501e-003
3.168471e+003, 2.392729e-003
3.170399e+003, 2.390973e-003
3.172328e+003, 2.338264e-003
3.174256e+003, 2.429604e-003
3.176185e+003, 2.437151e-003
3.178113e+003, 2.579419e-003
3.180042e+003, 2.447400e-003
3.181970e+003, 2.547806e-003
3.183898e+003, 2.557855e-003
3.185827e+003, 2.443038e-003
3.187755e+003, 2.944809e-003
3.189684e+003, 3.162831e-003
3.191612e+003, 2.465235e-003
3.193541e+003, 1.999922e-003
3.195469e+003, 2.371506e-003
3.197398e+003, 2.715484e-003
3.199326e+003, 2.503928e-003
3.201255e+003, 2.492100e-003
3.203183e+003, 2.382243e-003
3.205112e+003, 2.444802e-003
3.207040e+003, 2.511897e-003
3.208969e+003, 2.637460e-003
3.210897e+003, 3.017752e-003
3.212825e+003, 2.916150e-003
3.214754e+003, 2.820515e-003
3.216682e+003, 3.004784e-003
3.218611e+003, 2.880652e-003
3.220539e+003, 2.715859e-003
3.222468e+003, 2.790082e-003
3.224396e+003, 2.916627e-003
3.226325e+003, 2.567014e-003
3.228253e+003, 2.625932e-003
3.230182e+003, 2.398976e-003
3.232110e+003, 2.245471e-003
3.234039e+003, 2.316305e-003
3.235967e+003, 2.505167e-003
3.237896e+003, 2.181106e-003
3.239824e+003, 1.910920e-003
3.241752e+003, 2.427397e-003
3.243681e+003, 2.846050e-003
3.245609e+003, 2.914724e-003
3.247538e+003, 3.097235e-003
3.249466e+003, 3.569346e-003
3.251395e+003, 3.768852e-003
3.253323e+003, 3.628817e-003
3.255252e+003, 3.045704e-003
3.257180e+003, 2.718067e-003
3.259109e+003, 2.816686e-003
3.261037e+003, 2.994239e-003
3.262966e+003, 3.163147e-003
3.264894e+003, 3.213643e-003
3.266823e+003, 3.086081e-003
3.268751e+003, 2.690008e-003
3.270679e+003, 2.434039e-003
3.272608e+003, 2.405442e-003
3.274536e+003, 2.622236e-003
3.276465e+003, 2.916225e-003
3.278393e+003, 2.770408e-003
3.280322e+003, 2.142369e-003
3.282250e+003, 2.460989e-003
3.284179e+003, 2.950812e-003
3.286107e+003, 3.090843e-003
3.288036e+003, 3.197212e-003
3.289964e+003, 3.181456e-003
3.291893e+003, 2.862793e-003
3.293821e+003, 2.685001e-003
3.295750e+003, 2.709714e-003
3.297678e+003, 2.919374e-003
3.299606e+003, 3.038032e-003
3.301535e+003, 3.083177e-003
3.303463e+003, 2.649532e-003
3.305392e+003, 2.696341e-003
3.307320e+003, 2.855427e-003
3.309249e+003, 3.003715e-003
3.311177e+003, 2.997178e-003
3.313106e+003, 3.027692e-003
3.315034e+003, 3.006078e-003
3.316963e+003, 2.657939e-003
3.318891e+003, 2.889372e-003
3.320820e+003, 3.192366e-003
3.322748e+003, 3.405258e-003
3.324677e+003, 3.686576e-003
3.326605e+003, 3.293446e-003
3.328533e+003, 3.265137e-003
3.330462e+003, 2.991844e-003
3.332390e+003, 2.622589e-003
3.334319e+003, 2.733308e-003
3.336247e+003, 2.754106e-003
3.338176e+003, 2.600856e-003
3.340104e+003, 2.438897e-003
3.342033e+003, 2.671880e-003
3.343961e+003, 3.057160e-003
3.345890e+003, 3.417982e-003
3.347818e+003, 3.657978e-003
3.349747e+003, 3.107581e-003
3.351675e+003, 2.557327e-003
3.353604e+003, 2.661267e-003
3.355532e+003, 2.803885e-003
3.357460e+003, 2.120372e-003
3.359389e+003, 1.795080e-003
3.361317e+003, 2.366101e-003
3.363246e+003, 2.488626e-003
3.365174e+003, 2.683470e-003
3.367103e+003, 3.154905e-003
3.369031e+003, 3.320679e-003
3.370960e+003, 3.925385e-003
3.372888e+003, 3.919510e-003
3.374817e+003, 3.749842e-003
3.376745e+003, 3.071784e-003
3.378674e+003, 2.616765e-003
3.380602e+003, 3.332712e-003
3.382531e+003, 3.328619e-003
3.384459e+003, 3.235945e-003
3.386387e+003, 3.184336e-003
3.388316e+003, 3.407880e-003
3.390244e+003, 3.660416e-003
3.392173e+003, 3.309943e-003
3.394101e+003, 3.165369e-003
3.396030e+003, 3.379927e-003
3.397958e+003, 3.132328e-003
3.399887e+003, 2.657300e-003
3.401815e+003, 2.542805e-003
3.403744e+003, 2.936936e-003
3.405672e+003, 3.126826e-003
3.407601e+003, 2.551622e-003
3.409529e+003, 2.333843e-003
3.411458e+003, 2.536879e-003
3.413386e+003, 2.813696e-003
3.415314e+003, 3.256683e-003
3.417243e+003, 3.232598e-003
3.419171e+003, 2.707103e-003
3.421100e+003, 2.283370e-003
3.423028e+003, 2.381740e-003
3.424957e+003, 2.515794e-003
3.426885e+003, 2.440400e-003
3.428814e+003, 2.023369e-003
3.430742e+003, 1.828345e-003
3.432671e+003, 2.021795e-003
3.434599e+003, 2.207040e-003
3.436528e+003, 3.091908e-003
3.438456e+003, 3.307892e-003
3.440385e+003, 3.108194e-003
3.442313e+003, 2.874586e-003
3.444241e+003, 2.792451e-003
3.446170e+003, 2.892828e-003
3.448098e+003, 3.129531e-003
3.450027e+003, 3.362764e-003
3.451955e+003, 3.013058e-003
3.453884e+003, 2.174643e-003
3.455812e+003, 2.530300e-003
3.457741e+003, 3.007186e-003
3.459669e+003, 2.106752e-003
3.461598e+003, 1.612356e-003
3.463526e+003, 2.018226e-003
3.465455e+003, 2.288942e-003
3.467383e+003, 2.585796e-003
3.469312e+003, 2.612066e-003
3.471240e+003, 2.569468e-003
3.473168e+003, 2.532585e-003
3.475097e+003, 2.413881e-003
3.477025e+003, 2.219031e-003
3.478954e+003, 1.950223e-003
3.480882e+003, 1.750107e-003
3.482811e+003, 1.614706e-003
3.484739e+003, 1.761781e-003
3.486668e+003, 1.836278e-003
3.488596e+003, 1.808542e-003
3.490525e+003, 1.982967e-003
3.492453e+003, 2.226427e-003
3.494382e+003, 1.983213e-003
3.496310e+003, 2.058159e-003
3.498239e+003, 2.910951e-003
3.500167e+003, 2.881725e-003
3.502095e+003, 1.979753e-003
3.504024e+003, 2.184257e-003
3.505952e+003, 2.323383e-003
3.507881e+003, 2.319500e-003
3.509809e+003, 2.622653e-003
3.511738e+003, 2.407964e-003
3.513666e+003, 2.535533e-003
3.515595e+003, 2.825911e-003
3.517523e+003, 2.894679e-003
3.519452e+003, 2.357012e-003
3.521380e+003, 1.545763e-003
3.523309e+003, 1.814302e-003
3.525237e+003, 1.748133e-003
3.527166e+003, 2.127009e-003
3.529094e+003, 2.558031e-003
3.531022e+003, 2.425447e-003
3.532951e+003, 2.321440e-003
3.534879e+003, 2.061111e-003
3.536808e+003, 1.745155e-003
3.538736e+003, 1.193290e-003
3.540665e+003, 1.200476e-003
3.542593e+003, 1.899714e-003
3.544522e+003, 2.261508e-003
3.546450e+003, 2.149133e-003
3.548379e+003, 1.945666e-003
3.550307e+003, 1.883897e-003
3.552236e+003, 1.969376e-003
3.554164e+003, 1.653609e-003
3.556093e+003, 1.789399e-003
3.558021e+003, 1.897148e-003
3.559949e+003, 1.835063e-003
3.561878e+003, 1.747875e-003
3.563806e+003, 2.051076e-003
3.565735e+003, 2.226178e-003
3.567663e+003, 1.569770e-003
3.569592e+003, 1.163352e-003
3.571520e+003, 1.639611e-003
3.573449e+003, 2.246480e-003
3.575377e+003, 1.897361e-003
3.577306e+003, 1.195236e-003
3.579234e+003, 1.198452e-003
3.581163e+003, 1.144437e-003
3.583091e+003, 1.250864e-003
3.585020e+003, 2.154174e-003
3.586948e+003, 2.570930e-003
3.588876e+003, 2.123658e-003
3.590805e+003, 1.359120e-003
3.592733e+003, 9.626378e-004
3.594662e+003, 1.337365e-003
3.596590e+003, 1.900143e-003
3.598519e+003, 1.980283e-003
3.600447e+003, 1.465372e-003
3.602376e+003, 1.199721e-003
3.604304e+003, 4.885276e-004
3.606233e+003, 7.528018e-004
3.608161e+003, 1.540135e-003
3.610090e+003, 8.217338e-004
3.612018e+003, 3.898283e-005
3.613947e+003, 7.128583e-005
3.615875e+003, 1.032758e-004
3.617803e+003, 9.528475e-004
3.619732e+003, 1.499324e-003
3.621660e+003, 4.822085e-004
3.623589e+003, 2.621928e-004
3.625517e+003, 4.627103e-004
3.627446e+003, 1.318661e-003
3.629374e+003, 2.023313e-003
3.631303e+003, 1.520726e-003
3.633231e+003, 6.689647e-004
3.635160e+003, 2.779469e-004
3.637088e+003, 3.881046e-004
3.639017e+003, -1.016605e-004
3.640945e+003, -4.709665e-004
3.642874e+003, -5.635318e-005
3.644802e+003, 5.862651e-004
3.646730e+003, 7.974758e-004
3.648659e+003, 7.179115e-004
3.650587e+003, 6.160019e-004
3.652516e+003, 2.471980e-004
3.654444e+003, -2.450496e-004
3.656373e+003, -7.629608e-004
3.658301e+003, -8.977661e-004
3.660230e+003, -1.061535e-003
3.662158e+003, -8.626598e-004
3.664087e+003, -5.568651e-004
3.666015e+003, -1.455111e-004
3.667944e+003, 5.414672e-004
3.669872e+003, 5.124001e-004
3.671801e+003, 2.324952e-004
3.673729e+003, 1.972866e-004
3.675657e+003, -5.482797e-004
3.677586e+003, -1.377789e-003
3.679514e+003, -1.102991e-003
3.681443e+003, -6.069413e-004
3.683371e+003, -8.347992e-005
3.685300e+003, -6.561204e-004
3.687228e+003, -3.218558e-004
3.689157e+003, 2.685546e-004
3.691085e+003, -7.669266e-004
3.693014e+003, -1.541116e-003
3.694942e+003, -1.321432e-003
3.696871e+003, -3.338058e-004
3.698799e+003, -3.636688e-004
3.700728e+003, -1.195945e-003
3.702656e+003, -1.321286e-003
3.704584e+003, -6.323539e-004
3.706513e+003, -2.755791e-004
3.708441e+003, -3.588057e-004
3.710370e+003, -2.357293e-005
3.712298e+003, -1.740549e-004
3.714227e+003, -1.069506e-003
3.716155e+003, -8.436859e-004
3.718084e+003, -3.635182e-004
3.720012e+003, -5.388428e-004
3.721941e+003, -1.346451e-003
3.723869e+003, -8.875135e-004
3.725798e+003, 1.948850e-004
3.727726e+003, 5.212177e-004
3.729655e+003, -6.706474e-004
3.731583e+003, -7.297349e-004
3.733511e+003, -6.654802e-006
3.735440e+003, -4.357405e-004
3.737368e+003, -5.578045e-004
3.739297e+003, -4.088786e-004
3.741225e+003, -1.815652e-004
3.743154e+003, -2.293135e-004
3.745082e+003, -6.939704e-005
3.747011e+003, 8.535039e-005
3.748939e+003, 3.091107e-004
3.750868e+003, 1.718979e-004
3.752796e+003, -2.279176e-004
3.754725e+003, -7.142246e-004
3.756653e+003, -1.073652e-003
3.758582e+003, -1.343892e-003
3.760510e+003, -1.361297e-003
3.762438e+003, -1.637392e-003
3.764367e+003, -1.538941e-003
3.766295e+003, -1.490763e-003
3.768224e+003, -1.227323e-003
3.770152e+003, -1.093914e-003
3.772081e+003, -7.408637e-004
3.774009e+003, -2.201052e-004
3.775938e+003, -4.503916e-004
3.777866e+003, -4.418791e-004
3.779795e+003, -7.721392e-004
3.781723e+003, -1.199074e-003
3.783652e+003, -9.377419e-004
3.785580e+003, -8.396895e-004
3.787509e+003, -1.797649e-003
3.789437e+003, -2.063823e-003
3.791365e+003, -1.446232e-003
3.793294e+003, -1.185022e-003
3.795222e+003, -9.474963e-004
3.797151e+003, -1.097125e-003
3.799079e+003, -1.655372e-003
3.801008e+003, -7.880076e-004
3.802936e+003, 6.317218e-004
3.804865e+003, -7.836389e-005
3.806793e+003, -6.007635e-004
3.808722e+003, -4.893048e-004
3.810650e+003, -1.049788e-003
3.812579e+003, -2.233580e-003
3.814507e+003, -2.414205e-003
3.816436e+003, -1.949564e-003
3.818364e+003, -1.739372e-003
3.820292e+003, -3.238256e-004
3.822221e+003, -2.561275e-004
3.824149e+003, -1.152360e-003
3.826078e+003, -1.224398e-003
3.828006e+003, -1.138846e-003
3.829935e+003, -1.028714e-003
3.831863e+003, -1.127065e-003
3.833792e+003, -1.063669e-003
3.835720e+003, -1.053795e-003
3.837649e+003, -1.020793e-003
3.839577e+003, -1.036822e-003
3.841506e+003, -1.553985e-003
3.843434e+003, -1.830834e-003
3.845363e+003, -1.748403e-003
3.847291e+003, -1.653773e-003
3.849219e+003, -1.425500e-003
3.851148e+003, -2.629305e-004
3.853076e+003, 1.423883e-003
3.855005e+003, 6.267941e-004
3.856933e+003, -7.609529e-004
3.858862e+003, -1.435746e-003
3.860790e+003, -1.761591e-003
3.862719e+003, -1.584618e-003
3.864647e+003, -1.185974e-003
3.866576e+003, -1.634208e-003
3.868504e+003, -1.525160e-003
3.870433e+003, -1.066009e-003
3.872361e+003, -1.464130e-003
3.874290e+003, -1.585674e-003
3.876218e+003, -1.982005e-003
3.878146e+003, -1.657608e-003
3.880075e+003, -5.465751e-004
3.882003e+003, -5.550837e-004
3.883932e+003, -6.923601e-004
3.885860e+003, -8.775048e-004
3.887789e+003, -2.003749e-003
3.889717e+003, -1.895700e-003
3.891646e+003, -1.095439e-003
3.893574e+003, -1.210330e-003
3.895503e+003, -9.365679e-004
3.897431e+003, -1.028789e-003
3.899360e+003, -1.369637e-003
3.901288e+003, -1.583410e-003
3.903217e+003, -1.541933e-003
3.905145e+003, -2.124599e-003
3.907073e+003, -2.181107e-003
3.909002e+003, -1.390477e-003
3.910930e+003, -1.769709e-003
3.912859e+003, -2.396152e-003
3.914787e+003, -2.490971e-003
3.916716e+003, -1.900001e-003
3.918644e+003, -1.588199e-003
3.920573e+003, -1.883424e-003
3.922501e+003, -1.848259e-003
3.924430e+003, -1.012316e-003
3.926358e+003, -1.514874e-003
3.928287e+003, -1.837697e-003
3.930215e+003, -1.582821e-003
3.932144e+003, -1.914580e-003
3.934072e+003, -2.038807e-003
3.936000e+003, -1.584089e-003
3.937929e+003, -1.461787e-003
3.939857e+003, -1.603491e-003
3.941786e+003, -1.523488e-003
3.943714e+003, -1.095418e-003
3.945643e+003, -1.081316e-003
3.947571e+003, -1.190581e-003
3.949500e+003, -1.734303e-003
3.951428e+003, -2.020232e-003
3.953357e+003, -1.981306e-003
3.955285e+003, -1.502160e-003
3.957214e+003, -1.187789e-003
3.959142e+003, -1.455365e-003
3.961071e+003, -1.938963e-003
3.962999e+003, -1.787742e-003
3.964927e+003, -1.249247e-003
3.966856e+003, -1.105361e-003
3.968784e+003, -1.806067e-003
3.970713e+003, -1.916806e-003
3.972641e+003, -1.871301e-003
3.974570e+003, -2.433431e-003
3.976498e+003, -2.236834e-003
3.978427e+003, -1.986028e-003
3.980355e+003, -2.155197e-003
3.982284e+003, -2.115364e-003
3.984212e+003, -2.445307e-003
3.986141e+003, -3.057152e-003
3.988069e+003, -2.264990e-003
3.989998e+003, -1.453610e-003
3.991926e+003, -1.800907e-003
3.993854e+003, -1.700761e-003
3.995783e+003, -1.348099e-003
3.997711e+003, -1.438075e-003
3.999640e+003, -1.183027e-003
4.001568e+003, 0.000000e+000
##END=



