##NAMES=Albite
##RRUFFID=R050402
##IDEAL CHEMISTRY=NaAlSi_3_O_8_
##LOCALITY=Urbano mine, Golconda District, Brazil
##OWNER=RRUFF
##SOURCE=Bob Downs
##DESCRIPTION=Colorless tabular single crystals associated with fluorapatite R050401
##STATUS=The identification of this mineral has been confirmed by X-ray diffraction and chemical analysis
##URL=rruff.info/R050402
##MEASURED CHEMISTRY=Na_1.00_Al_1.00_Si_3.00_O_8_
3.991926e+002, 2.440923e-001
4.011211e+002, 2.240007e-001
4.030496e+002, 2.250776e-001
4.049780e+002, 2.167148e-001
4.069065e+002, 2.126507e-001
4.088350e+002, 2.197360e-001
4.107634e+002, 2.369017e-001
4.126919e+002, 2.483711e-001
4.146204e+002, 2.512512e-001
4.165488e+002, 2.449535e-001
4.184773e+002, 2.226521e-001
4.204058e+002, 2.037809e-001
4.223342e+002, 2.004961e-001
4.242627e+002, 1.961554e-001
4.261912e+002, 1.830791e-001
4.281196e+002, 1.724947e-001
4.300481e+002, 1.637815e-001
4.319766e+002, 1.522983e-001
4.339050e+002, 1.384800e-001
4.358335e+002, 1.258150e-001
4.377620e+002, 1.142767e-001
4.396904e+002, 1.036278e-001
4.416189e+002, 9.361943e-002
4.435474e+002, 8.515702e-002
4.454758e+002, 7.812750e-002
4.474043e+002, 7.474277e-002
4.493328e+002, 7.522824e-002
4.512612e+002, 7.918502e-002
4.531897e+002, 8.744004e-002
4.551182e+002, 1.026308e-001
4.570466e+002, 1.217205e-001
4.589751e+002, 1.394701e-001
4.609036e+002, 1.538543e-001
4.628320e+002, 1.563327e-001
4.647605e+002, 1.469071e-001
4.666890e+002, 1.349106e-001
4.686174e+002, 1.250287e-001
4.705459e+002, 1.214260e-001
4.724744e+002, 1.242469e-001
4.744028e+002, 1.261116e-001
4.763313e+002, 1.215028e-001
4.782598e+002, 1.096969e-001
4.801882e+002, 9.441570e-002
4.821167e+002, 7.964013e-002
4.840452e+002, 6.697568e-002
4.859736e+002, 5.741844e-002
4.879021e+002, 5.094140e-002
4.898306e+002, 4.701219e-002
4.917590e+002, 4.527502e-002
4.936875e+002, 4.464151e-002
4.956160e+002, 4.383145e-002
4.975444e+002, 4.436422e-002
4.994729e+002, 4.472839e-002
5.014014e+002, 4.500743e-002
5.033298e+002, 4.650962e-002
5.052583e+002, 4.863235e-002
5.071868e+002, 5.102467e-002
5.091152e+002, 5.425531e-002
5.110437e+002, 5.829178e-002
5.129722e+002, 6.288238e-002
5.149006e+002, 6.967653e-002
5.168291e+002, 7.935582e-002
5.187576e+002, 9.157464e-002
5.206860e+002, 1.068325e-001
5.226145e+002, 1.255701e-001
5.245430e+002, 1.467660e-001
5.264714e+002, 1.692183e-001
5.283999e+002, 1.859606e-001
5.303284e+002, 1.895277e-001
5.322568e+002, 1.790390e-001
5.341853e+002, 1.593983e-001
5.361138e+002, 1.373577e-001
5.380422e+002, 1.170152e-001
5.399707e+002, 1.000523e-001
5.418992e+002, 8.784138e-002
5.438276e+002, 7.976217e-002
5.457561e+002, 7.554252e-002
5.476846e+002, 7.527282e-002
5.496130e+002, 7.617506e-002
5.515415e+002, 7.800672e-002
5.534700e+002, 8.203288e-002
5.553984e+002, 8.766803e-002
5.573269e+002, 9.421738e-002
5.592554e+002, 1.022297e-001
5.611838e+002, 1.110043e-001
5.631123e+002, 1.214160e-001
5.650408e+002, 1.338738e-001
5.669692e+002, 1.476640e-001
5.688977e+002, 1.616052e-001
5.708262e+002, 1.753490e-001
5.727546e+002, 1.892514e-001
5.746831e+002, 2.033851e-001
5.766116e+002, 2.162409e-001
5.785400e+002, 2.251498e-001
5.804685e+002, 2.307309e-001
5.823970e+002, 2.341508e-001
5.843254e+002, 2.356834e-001
5.862539e+002, 2.353710e-001
5.881824e+002, 2.320290e-001
5.901108e+002, 2.259436e-001
5.920393e+002, 2.183282e-001
5.939678e+002, 2.079930e-001
5.958962e+002, 1.967819e-001
5.978247e+002, 1.849699e-001
5.997532e+002, 1.744323e-001
6.016816e+002, 1.655001e-001
6.036101e+002, 1.578862e-001
6.055386e+002, 1.532296e-001
6.074670e+002, 1.499068e-001
6.093955e+002, 1.446060e-001
6.113240e+002, 1.358057e-001
6.132524e+002, 1.226002e-001
6.151809e+002, 1.087736e-001
6.171094e+002, 9.589630e-002
6.190378e+002, 8.373804e-002
6.209663e+002, 7.365704e-002
6.228948e+002, 6.581417e-002
6.248232e+002, 5.966234e-002
6.267517e+002, 5.502705e-002
6.286802e+002, 5.205303e-002
6.306086e+002, 5.081810e-002
6.325371e+002, 5.119634e-002
6.344656e+002, 5.357873e-002
6.363940e+002, 5.774626e-002
6.383225e+002, 6.384123e-002
6.402510e+002, 7.307161e-002
6.421794e+002, 8.667050e-002
6.441079e+002, 1.048943e-001
6.460364e+002, 1.236811e-001
6.479648e+002, 1.364962e-001
6.498933e+002, 1.365667e-001
6.518218e+002, 1.248976e-001
6.537502e+002, 1.072229e-001
6.556787e+002, 8.811394e-002
6.576072e+002, 7.187022e-002
6.595356e+002, 5.939188e-002
6.614641e+002, 5.060764e-002
6.633926e+002, 4.456473e-002
6.653210e+002, 4.060359e-002
6.672495e+002, 3.781723e-002
6.691780e+002, 3.592717e-002
6.711064e+002, 3.450061e-002
6.730349e+002, 3.383231e-002
6.749634e+002, 3.388514e-002
6.768918e+002, 3.401340e-002
6.788203e+002, 3.391786e-002
6.807488e+002, 3.394876e-002
6.826772e+002, 3.466514e-002
6.846057e+002, 3.559326e-002
6.865342e+002, 3.599750e-002
6.884626e+002, 3.642030e-002
6.903911e+002, 3.736144e-002
6.923196e+002, 3.905655e-002
6.942480e+002, 4.066185e-002
6.961765e+002, 4.188545e-002
6.981050e+002, 4.382968e-002
7.000334e+002, 4.617011e-002
7.019619e+002, 4.864919e-002
7.038904e+002, 5.201316e-002
7.058188e+002, 5.553017e-002
7.077473e+002, 6.020914e-002
7.096758e+002, 6.631546e-002
7.116042e+002, 7.381184e-002
7.135327e+002, 8.292315e-002
7.154612e+002, 9.418496e-002
7.173896e+002, 1.068150e-001
7.193181e+002, 1.196298e-001
7.212466e+002, 1.304201e-001
7.231750e+002, 1.339834e-001
7.251035e+002, 1.279522e-001
7.270320e+002, 1.151653e-001
7.289604e+002, 1.017667e-001
7.308889e+002, 9.370432e-002
7.328174e+002, 9.234533e-002
7.347458e+002, 9.736432e-002
7.366743e+002, 1.077575e-001
7.386028e+002, 1.218927e-001
7.405313e+002, 1.360676e-001
7.424597e+002, 1.445970e-001
7.443882e+002, 1.430753e-001
7.463167e+002, 1.324536e-001
7.482451e+002, 1.191723e-001
7.501736e+002, 1.091854e-001
7.521021e+002, 1.045679e-001
7.540305e+002, 1.069250e-001
7.559590e+002, 1.163902e-001
7.578875e+002, 1.297796e-001
7.598159e+002, 1.405093e-001
7.617444e+002, 1.410829e-001
7.636729e+002, 1.289941e-001
7.656013e+002, 1.095215e-001
7.675298e+002, 8.945002e-002
7.694583e+002, 7.377419e-002
7.713867e+002, 6.377171e-002
7.733152e+002, 5.803617e-002
7.752437e+002, 5.671770e-002
7.771721e+002, 5.889723e-002
7.791006e+002, 6.454369e-002
7.810291e+002, 7.426134e-002
7.829575e+002, 8.742846e-002
7.848860e+002, 1.017411e-001
7.868145e+002, 1.100200e-001
7.887429e+002, 1.058581e-001
7.906714e+002, 9.074887e-002
7.925999e+002, 7.203496e-002
7.945283e+002, 5.607591e-002
7.964568e+002, 4.544478e-002
7.983853e+002, 3.868872e-002
8.003137e+002, 3.444234e-002
8.022422e+002, 3.191924e-002
8.041707e+002, 2.996047e-002
8.060991e+002, 2.806623e-002
8.080276e+002, 2.723102e-002
8.099561e+002, 2.690557e-002
8.118845e+002, 2.658417e-002
8.138130e+002, 2.603218e-002
8.157415e+002, 2.580929e-002
8.176699e+002, 2.553052e-002
8.195984e+002, 2.527099e-002
8.215269e+002, 2.519886e-002
8.234553e+002, 2.544157e-002
8.253838e+002, 2.569927e-002
8.273123e+002, 2.586950e-002
8.292407e+002, 2.610919e-002
8.311692e+002, 2.640451e-002
8.330977e+002, 2.655577e-002
8.350261e+002, 2.682093e-002
8.369546e+002, 2.767590e-002
8.388831e+002, 2.847874e-002
8.408115e+002, 2.914144e-002
8.427400e+002, 2.974548e-002
8.446685e+002, 3.005305e-002
8.465969e+002, 3.092861e-002
8.485254e+002, 3.197504e-002
8.504539e+002, 3.301721e-002
8.523823e+002, 3.395301e-002
8.543108e+002, 3.519151e-002
8.562393e+002, 3.642906e-002
8.581677e+002, 3.785906e-002
8.600962e+002, 3.933972e-002
8.620247e+002, 4.061421e-002
8.639531e+002, 4.243299e-002
8.658816e+002, 4.524029e-002
8.678101e+002, 4.885741e-002
8.697385e+002, 5.171072e-002
8.716670e+002, 5.234891e-002
8.735955e+002, 5.194685e-002
8.755239e+002, 5.230737e-002
8.774524e+002, 5.378074e-002
8.793809e+002, 5.586515e-002
8.813093e+002, 5.799092e-002
8.832378e+002, 5.999602e-002
8.851663e+002, 6.224373e-002
8.870947e+002, 6.482541e-002
8.890232e+002, 6.778114e-002
8.909517e+002, 7.085658e-002
8.928801e+002, 7.385044e-002
8.948085e+002, 7.690034e-002
8.967370e+002, 8.037267e-002
8.986655e+002, 8.455332e-002
9.005939e+002, 8.890424e-002
9.025224e+002, 9.308853e-002
9.044509e+002, 9.764151e-002
9.063793e+002, 1.022507e-001
9.083078e+002, 1.068138e-001
9.102363e+002, 1.121975e-001
9.121647e+002, 1.181627e-001
9.140932e+002, 1.244518e-001
9.160217e+002, 1.312833e-001
9.179501e+002, 1.386991e-001
9.198786e+002, 1.461143e-001
9.218071e+002, 1.543962e-001
9.237355e+002, 1.635718e-001
9.256640e+002, 1.731095e-001
9.275925e+002, 1.831906e-001
9.295209e+002, 1.940441e-001
9.314494e+002, 2.055640e-001
9.333779e+002, 2.174650e-001
9.353063e+002, 2.298829e-001
9.372348e+002, 2.429435e-001
9.391633e+002, 2.567199e-001
9.410917e+002, 2.709572e-001
9.430202e+002, 2.856066e-001
9.449487e+002, 3.006998e-001
9.468771e+002, 3.167179e-001
9.488056e+002, 3.341666e-001
9.507341e+002, 3.522703e-001
9.526625e+002, 3.701315e-001
9.545910e+002, 3.876268e-001
9.565195e+002, 4.051642e-001
9.584479e+002, 4.232087e-001
9.603764e+002, 4.406916e-001
9.623049e+002, 4.583033e-001
9.642333e+002, 4.753753e-001
9.661618e+002, 4.906965e-001
9.680903e+002, 5.055825e-001
9.700187e+002, 5.204032e-001
9.719472e+002, 5.334975e-001
9.738757e+002, 5.443768e-001
9.758041e+002, 5.528722e-001
9.777326e+002, 5.585031e-001
9.796611e+002, 5.610674e-001
9.815895e+002, 5.608435e-001
9.835180e+002, 5.585809e-001
9.854465e+002, 5.552984e-001
9.873749e+002, 5.499382e-001
9.893034e+002, 5.422893e-001
9.912319e+002, 5.330161e-001
9.931603e+002, 5.218652e-001
9.950888e+002, 5.094395e-001
9.970173e+002, 4.970526e-001
9.989457e+002, 4.844125e-001
1.000874e+003, 4.720604e-001
1.002803e+003, 4.596707e-001
1.004731e+003, 4.482959e-001
1.006660e+003, 4.378251e-001
1.008588e+003, 4.281571e-001
1.010517e+003, 4.197838e-001
1.012445e+003, 4.118112e-001
1.014373e+003, 4.043630e-001
1.016302e+003, 3.986867e-001
1.018230e+003, 3.934634e-001
1.020159e+003, 3.885597e-001
1.022087e+003, 3.849474e-001
1.024016e+003, 3.828449e-001
1.025944e+003, 3.821757e-001
1.027873e+003, 3.821431e-001
1.029801e+003, 3.801723e-001
1.031730e+003, 3.745390e-001
1.033658e+003, 3.649012e-001
1.035587e+003, 3.514272e-001
1.037515e+003, 3.352632e-001
1.039444e+003, 3.179457e-001
1.041372e+003, 3.005378e-001
1.043301e+003, 2.831963e-001
1.045229e+003, 2.663690e-001
1.047157e+003, 2.507747e-001
1.049086e+003, 2.369560e-001
1.051014e+003, 2.243997e-001
1.052943e+003, 2.135626e-001
1.054871e+003, 2.050258e-001
1.056800e+003, 1.984201e-001
1.058728e+003, 1.930904e-001
1.060657e+003, 1.884469e-001
1.062585e+003, 1.846240e-001
1.064514e+003, 1.814221e-001
1.066442e+003, 1.784772e-001
1.068371e+003, 1.758203e-001
1.070299e+003, 1.732991e-001
1.072228e+003, 1.708415e-001
1.074156e+003, 1.685664e-001
1.076084e+003, 1.669882e-001
1.078013e+003, 1.662777e-001
1.079941e+003, 1.670893e-001
1.081870e+003, 1.695461e-001
1.083798e+003, 1.734783e-001
1.085727e+003, 1.804400e-001
1.087655e+003, 1.905377e-001
1.089584e+003, 2.019350e-001
1.091512e+003, 2.130331e-001
1.093441e+003, 2.211756e-001
1.095369e+003, 2.240560e-001
1.097298e+003, 2.230966e-001
1.099226e+003, 2.196964e-001
1.101155e+003, 2.146576e-001
1.103083e+003, 2.095195e-001
1.105011e+003, 2.050077e-001
1.106940e+003, 2.006197e-001
1.108868e+003, 1.959419e-001
1.110797e+003, 1.910655e-001
1.112725e+003, 1.862480e-001
1.114654e+003, 1.817030e-001
1.116582e+003, 1.776366e-001
1.118511e+003, 1.741060e-001
1.120439e+003, 1.719983e-001
1.122368e+003, 1.712193e-001
1.124296e+003, 1.716574e-001
1.126225e+003, 1.730180e-001
1.128153e+003, 1.754342e-001
1.130082e+003, 1.788939e-001
1.132010e+003, 1.826097e-001
1.133938e+003, 1.866897e-001
1.135867e+003, 1.908224e-001
1.137795e+003, 1.948210e-001
1.139724e+003, 1.986480e-001
1.141652e+003, 2.015345e-001
1.143581e+003, 2.038395e-001
1.145509e+003, 2.053391e-001
1.147438e+003, 2.054364e-001
1.149366e+003, 2.045099e-001
1.151295e+003, 2.025563e-001
1.153223e+003, 1.992539e-001
1.155152e+003, 1.945779e-001
1.157080e+003, 1.885653e-001
1.159009e+003, 1.816322e-001
1.160937e+003, 1.740215e-001
1.162865e+003, 1.658605e-001
1.164794e+003, 1.575313e-001
1.166722e+003, 1.491749e-001
1.168651e+003, 1.411162e-001
1.170579e+003, 1.336874e-001
1.172508e+003, 1.262740e-001
1.174436e+003, 1.189618e-001
1.176365e+003, 1.122376e-001
1.178293e+003, 1.060168e-001
1.180222e+003, 9.977499e-002
1.182150e+003, 9.382309e-002
1.184079e+003, 8.771749e-002
1.186007e+003, 8.183090e-002
1.187936e+003, 7.601818e-002
1.189864e+003, 7.069363e-002
1.191792e+003, 6.544250e-002
1.193721e+003, 6.028064e-002
1.195649e+003, 5.550899e-002
1.197578e+003, 5.120833e-002
1.199506e+003, 4.721094e-002
1.201435e+003, 4.364626e-002
1.203363e+003, 4.036633e-002
1.205292e+003, 3.728462e-002
1.207220e+003, 3.455200e-002
1.209149e+003, 3.194694e-002
1.211077e+003, 2.918557e-002
1.213006e+003, 2.668828e-002
1.214934e+003, 2.453782e-002
1.216863e+003, 2.245347e-002
1.218791e+003, 2.063112e-002
1.220719e+003, 1.893639e-002
1.222648e+003, 1.757659e-002
1.224576e+003, 1.656679e-002
1.226505e+003, 1.532403e-002
1.228433e+003, 1.401092e-002
1.230362e+003, 1.304893e-002
1.232290e+003, 1.233049e-002
1.234219e+003, 1.151215e-002
1.236147e+003, 1.070002e-002
1.238076e+003, 1.000238e-002
1.240004e+003, 9.540989e-003
1.241933e+003, 9.120349e-003
1.243861e+003, 8.565703e-003
1.245790e+003, 8.021709e-003
1.247718e+003, 7.624337e-003
1.249646e+003, 7.111972e-003
1.251575e+003, 6.497928e-003
1.253503e+003, 6.127758e-003
1.255432e+003, 6.086116e-003
1.257360e+003, 5.804179e-003
1.259289e+003, 5.379901e-003
1.261217e+003, 5.100522e-003
1.263146e+003, 4.970325e-003
1.265074e+003, 4.941918e-003
1.267003e+003, 4.670919e-003
1.268931e+003, 4.583817e-003
1.270860e+003, 4.620888e-003
1.272788e+003, 4.245670e-003
1.274717e+003, 3.967009e-003
1.276645e+003, 4.008503e-003
1.278573e+003, 3.854817e-003
1.280502e+003, 3.641246e-003
1.282430e+003, 3.547509e-003
1.284359e+003, 3.282922e-003
1.286287e+003, 2.935773e-003
1.288216e+003, 3.014025e-003
1.290144e+003, 3.172980e-003
1.292073e+003, 3.188789e-003
1.294001e+003, 2.742868e-003
1.295930e+003, 2.176981e-003
1.297858e+003, 2.079169e-003
1.299787e+003, 2.142519e-003
1.301715e+003, 2.057166e-003
1.303644e+003, 1.966580e-003
1.305572e+003, 2.094826e-003
1.307500e+003, 1.871201e-003
1.309429e+003, 1.613494e-003
1.311357e+003, 1.586154e-003
1.313286e+003, 1.850274e-003
1.315214e+003, 2.133480e-003
1.317143e+003, 2.020535e-003
1.319071e+003, 1.874255e-003
1.321000e+003, 1.824037e-003
1.322928e+003, 1.557206e-003
1.324857e+003, 1.334549e-003
1.326785e+003, 1.268020e-003
1.328714e+003, 1.380843e-003
1.330642e+003, 1.578001e-003
1.332571e+003, 1.505956e-003
1.334499e+003, 1.272556e-003
1.336427e+003, 1.285889e-003
1.338356e+003, 1.216373e-003
1.340284e+003, 1.061010e-003
1.342213e+003, 1.110212e-003
1.344141e+003, 1.102124e-003
1.346070e+003, 9.204806e-004
1.347998e+003, 8.785869e-004
1.349927e+003, 1.021415e-003
1.351855e+003, 1.300734e-003
1.353784e+003, 1.486083e-003
1.355712e+003, 1.391475e-003
1.357641e+003, 8.845562e-004
1.359569e+003, 8.105194e-004
1.361498e+003, 1.133485e-003
1.363426e+003, 1.227569e-003
1.365354e+003, 9.178546e-004
1.367283e+003, 7.976524e-004
1.369211e+003, 1.023100e-003
1.371140e+003, 1.079838e-003
1.373068e+003, 1.071603e-003
1.374997e+003, 1.101315e-003
1.376925e+003, 7.847757e-004
1.378854e+003, 6.959431e-004
1.380782e+003, 1.022764e-003
1.382711e+003, 1.100884e-003
1.384639e+003, 1.273564e-003
1.386568e+003, 1.612491e-003
1.388496e+003, 1.745479e-003
1.390424e+003, 1.580715e-003
1.392353e+003, 1.520373e-003
1.394281e+003, 1.574168e-003
1.396210e+003, 1.727525e-003
1.398138e+003, 1.877015e-003
1.400067e+003, 1.879604e-003
1.401995e+003, 1.826465e-003
1.403924e+003, 1.880303e-003
1.405852e+003, 2.230342e-003
1.407781e+003, 2.566635e-003
1.409709e+003, 2.197363e-003
1.411638e+003, 1.730572e-003
1.413566e+003, 1.878512e-003
1.415495e+003, 1.858635e-003
1.417423e+003, 2.076249e-003
1.419351e+003, 2.732309e-003
1.421280e+003, 2.928759e-003
1.423208e+003, 3.055652e-003
1.425137e+003, 2.988520e-003
1.427065e+003, 2.957025e-003
1.428994e+003, 3.173859e-003
1.430922e+003, 3.294194e-003
1.432851e+003, 3.543051e-003
1.434779e+003, 3.910958e-003
1.436708e+003, 4.324008e-003
1.438636e+003, 4.671085e-003
1.440565e+003, 4.984860e-003
1.442493e+003, 5.494183e-003
1.444422e+003, 5.731389e-003
1.446350e+003, 5.948779e-003
1.448278e+003, 6.385053e-003
1.450207e+003, 6.813384e-003
1.452135e+003, 7.427067e-003
1.454064e+003, 7.719595e-003
1.455992e+003, 7.696236e-003
1.457921e+003, 7.391944e-003
1.459849e+003, 7.135550e-003
1.461778e+003, 7.231290e-003
1.463706e+003, 7.743245e-003
1.465635e+003, 7.757822e-003
1.467563e+003, 7.547108e-003
1.469492e+003, 7.716138e-003
1.471420e+003, 7.774083e-003
1.473349e+003, 7.693255e-003
1.475277e+003, 7.344449e-003
1.477205e+003, 6.816644e-003
1.479134e+003, 6.594116e-003
1.481062e+003, 6.625917e-003
1.482991e+003, 6.508356e-003
1.484919e+003, 6.089383e-003
1.486848e+003, 5.701939e-003
1.488776e+003, 5.437416e-003
1.490705e+003, 5.403467e-003
1.492633e+003, 5.251087e-003
1.494562e+003, 4.840694e-003
1.496490e+003, 4.651892e-003
1.498419e+003, 4.668287e-003
1.500347e+003, 4.870801e-003
1.502276e+003, 4.685116e-003
1.504204e+003, 4.307819e-003
1.506132e+003, 4.426480e-003
1.508061e+003, 4.482910e-003
1.509989e+003, 4.024997e-003
1.511918e+003, 3.462074e-003
1.513846e+003, 2.977902e-003
1.515775e+003, 2.627166e-003
1.517703e+003, 2.670042e-003
1.519632e+003, 2.645023e-003
1.521560e+003, 2.576202e-003
1.523489e+003, 2.633390e-003
1.525417e+003, 2.641239e-003
1.527346e+003, 2.431722e-003
1.529274e+003, 2.005646e-003
1.531203e+003, 1.942023e-003
1.533131e+003, 2.287892e-003
1.535059e+003, 2.309246e-003
1.536988e+003, 2.265287e-003
1.538916e+003, 2.488835e-003
1.540845e+003, 2.456135e-003
1.542773e+003, 2.317619e-003
1.544702e+003, 2.443430e-003
1.546630e+003, 2.254766e-003
1.548559e+003, 2.117405e-003
1.550487e+003, 2.013834e-003
1.552416e+003, 2.001997e-003
1.554344e+003, 1.949887e-003
1.556273e+003, 2.162870e-003
1.558201e+003, 2.646845e-003
1.560130e+003, 2.323151e-003
1.562058e+003, 2.056429e-003
1.563986e+003, 1.857009e-003
1.565915e+003, 1.746046e-003
1.567843e+003, 1.563120e-003
1.569772e+003, 1.480332e-003
1.571700e+003, 1.764400e-003
1.573629e+003, 1.716539e-003
1.575557e+003, 1.493636e-003
1.577486e+003, 1.186528e-003
1.579414e+003, 1.063747e-003
1.581343e+003, 1.377254e-003
1.583271e+003, 1.963605e-003
1.585200e+003, 2.059078e-003
1.587128e+003, 1.843146e-003
1.589057e+003, 1.703863e-003
1.590985e+003, 1.858725e-003
1.592913e+003, 2.078627e-003
1.594842e+003, 2.034662e-003
1.596770e+003, 1.932384e-003
1.598699e+003, 1.855999e-003
1.600627e+003, 1.775978e-003
1.602556e+003, 2.038698e-003
1.604484e+003, 2.277395e-003
1.606413e+003, 2.201263e-003
1.608341e+003, 1.912827e-003
1.610270e+003, 2.062103e-003
1.612198e+003, 2.435741e-003
1.614127e+003, 2.637741e-003
1.616055e+003, 2.436679e-003
1.617984e+003, 2.315166e-003
1.619912e+003, 2.422512e-003
1.621840e+003, 2.637671e-003
1.623769e+003, 2.835896e-003
1.625697e+003, 2.784426e-003
1.627626e+003, 2.794172e-003
1.629554e+003, 3.027577e-003
1.631483e+003, 2.775883e-003
1.633411e+003, 2.650731e-003
1.635340e+003, 2.551019e-003
1.637268e+003, 2.599218e-003
1.639197e+003, 2.709077e-003
1.641125e+003, 2.828156e-003
1.643054e+003, 2.945613e-003
1.644982e+003, 2.835295e-003
1.646911e+003, 2.702106e-003
1.648839e+003, 2.684486e-003
1.650767e+003, 2.382326e-003
1.652696e+003, 1.924617e-003
1.654624e+003, 1.992886e-003
1.656553e+003, 2.390565e-003
1.658481e+003, 2.770681e-003
1.660410e+003, 2.894642e-003
1.662338e+003, 2.813286e-003
1.664267e+003, 2.665103e-003
1.666195e+003, 2.264464e-003
1.668124e+003, 1.919972e-003
1.670052e+003, 1.829542e-003
1.671981e+003, 1.712032e-003
1.673909e+003, 1.659749e-003
1.675838e+003, 1.505679e-003
1.677766e+003, 1.422242e-003
1.679694e+003, 1.330701e-003
1.681623e+003, 1.371416e-003
1.683551e+003, 1.599201e-003
1.685480e+003, 1.490055e-003
1.687408e+003, 1.169745e-003
1.689337e+003, 9.475892e-004
1.691265e+003, 8.641166e-004
1.693194e+003, 8.641472e-004
1.695122e+003, 6.906632e-004
1.697051e+003, 6.828376e-004
1.698979e+003, 6.329039e-004
1.700908e+003, 7.534954e-004
1.702836e+003, 8.133164e-004
1.704765e+003, 8.535958e-004
1.706693e+003, 4.362391e-004
1.708621e+003, -2.480956e-004
1.710550e+003, -4.132902e-004
1.712478e+003, -2.215419e-004
1.714407e+003, -3.996879e-004
1.716335e+003, -2.537068e-004
1.718264e+003, -2.778280e-005
1.720192e+003, 3.135488e-004
1.722121e+003, 5.862443e-004
1.724049e+003, 2.763632e-004
1.725978e+003, -1.390126e-004
1.727906e+003, -1.488418e-004
1.729835e+003, -5.632092e-004
1.731763e+003, -1.472085e-003
1.733692e+003, -1.928973e-003
1.735620e+003, -1.598926e-003
1.737548e+003, -1.487920e-003
1.739477e+003, -2.236935e-003
1.741405e+003, -2.947670e-003
1.743334e+003, -2.561295e-003
1.745262e+003, -2.532026e-003
1.747191e+003, -2.831221e-003
1.749119e+003, -2.444677e-003
1.751048e+003, -1.849030e-003
1.752976e+003, -1.465885e-003
1.754905e+003, -1.018986e-003
1.756833e+003, -4.394827e-004
1.758762e+003, -3.457249e-004
1.760690e+003, -4.589884e-004
1.762619e+003, -3.130327e-004
1.764547e+003, 2.868907e-004
1.766475e+003, 8.113685e-004
1.768404e+003, 1.014352e-003
1.770332e+003, 6.699932e-004
1.772261e+003, 1.189803e-004
1.774189e+003, -2.180067e-004
1.776118e+003, -5.204700e-004
1.778046e+003, -6.211146e-004
1.779975e+003, -1.310964e-004
1.781903e+003, 5.473916e-004
1.783832e+003, 7.293511e-004
1.785760e+003, 6.730485e-004
1.787689e+003, 8.048058e-004
1.789617e+003, 9.381741e-004
1.791546e+003, 4.607195e-004
1.793474e+003, -3.058006e-004
1.795402e+003, -3.561384e-004
1.797331e+003, 1.939877e-004
1.799259e+003, 2.475679e-004
1.801188e+003, 2.272372e-004
1.803116e+003, 3.095378e-004
1.805045e+003, 3.592917e-004
1.806973e+003, 3.866309e-004
1.808902e+003, -1.479686e-004
1.810830e+003, -6.614032e-004
1.812759e+003, -5.723822e-004
1.814687e+003, -8.523331e-004
1.816616e+003, -7.836091e-004
1.818544e+003, -2.413475e-004
1.820473e+003, -7.163327e-004
1.822401e+003, -8.492609e-004
1.824329e+003, -6.033980e-004
1.826258e+003, -9.919463e-004
1.828186e+003, -1.046958e-003
1.830115e+003, -7.209750e-004
1.832043e+003, -9.373090e-004
1.833972e+003, -1.587956e-003
1.835900e+003, -1.574631e-003
1.837829e+003, -1.010334e-003
1.839757e+003, -6.231805e-004
1.841686e+003, -4.312517e-004
1.843614e+003, -1.010342e-003
1.845543e+003, -1.726369e-003
1.847471e+003, -1.878238e-003
1.849400e+003, -1.925926e-003
1.851328e+003, -1.829160e-003
1.853256e+003, -1.490291e-003
1.855185e+003, -1.685704e-003
1.857113e+003, -1.906274e-003
1.859042e+003, -1.941068e-003
1.860970e+003, -1.965349e-003
1.862899e+003, -2.131837e-003
1.864827e+003, -1.516001e-003
1.866756e+003, -1.746335e-003
1.868684e+003, -3.030993e-003
1.870613e+003, -2.438263e-003
1.872541e+003, -1.518866e-003
1.874470e+003, -1.777474e-003
1.876398e+003, -2.427208e-003
1.878327e+003, -2.864071e-003
1.880255e+003, -2.871171e-003
1.882183e+003, -3.265352e-003
1.884112e+003, -4.049733e-003
1.886040e+003, -4.125199e-003
1.887969e+003, -3.200119e-003
1.889897e+003, -3.355259e-003
1.891826e+003, -3.315045e-003
1.893754e+003, -3.324861e-003
1.895683e+003, -3.585696e-003
1.897611e+003, -3.753533e-003
1.899540e+003, -3.807720e-003
1.901468e+003, -3.415206e-003
1.903397e+003, -3.822859e-003
1.905325e+003, -3.735421e-003
1.907254e+003, -3.520559e-003
1.909182e+003, -4.856559e-003
1.911110e+003, -5.294154e-003
1.913039e+003, -4.671879e-003
1.914967e+003, -3.853487e-003
1.916896e+003, -3.895426e-003
1.918824e+003, -5.018993e-003
1.920753e+003, -5.228976e-003
1.922681e+003, -5.213650e-003
1.924610e+003, -6.003578e-003
1.926538e+003, -6.304562e-003
1.928467e+003, -6.160875e-003
1.930395e+003, -5.577868e-003
1.932324e+003, -5.780009e-003
1.934252e+003, -6.882572e-003
1.936181e+003, -7.193149e-003
1.938109e+003, -7.261052e-003
1.940037e+003, -7.581193e-003
1.941966e+003, -6.235235e-003
1.943894e+003, -5.944334e-003
1.945823e+003, -7.548402e-003
1.947751e+003, -8.916624e-003
1.949680e+003, -8.584480e-003
1.951608e+003, -8.088916e-003
1.953537e+003, -8.827684e-003
1.955465e+003, -9.384590e-003
1.957394e+003, -9.055997e-003
1.959322e+003, -1.041395e-002
1.961251e+003, -1.113292e-002
1.963179e+003, -1.070808e-002
1.965108e+003, -1.149729e-002
1.967036e+003, -1.233467e-002
1.968964e+003, -1.049239e-002
1.970893e+003, -1.012386e-002
1.972821e+003, -1.140917e-002
1.974750e+003, -1.003730e-002
1.976678e+003, -8.271706e-003
1.978607e+003, -6.302185e-003
1.980535e+003, -6.285527e-003
1.982464e+003, -6.892076e-003
1.984392e+003, -6.949720e-003
1.986321e+003, -8.074820e-003
1.988249e+003, -9.183304e-003
1.990178e+003, -1.053456e-002
1.992106e+003, -1.296759e-002
1.994035e+003, -1.441310e-002
1.995963e+003, -1.326811e-002
1.997891e+003, -1.192981e-002
1.999820e+003, -1.187890e-002
2.001748e+003, -1.212298e-002
2.003677e+003, -1.315141e-002
2.005605e+003, -1.540727e-002
2.007534e+003, -1.501733e-002
2.009462e+003, -1.282814e-002
2.011391e+003, -1.318517e-002
2.013319e+003, -1.413696e-002
2.015248e+003, -1.279256e-002
2.017176e+003, -1.342222e-002
2.019105e+003, -1.414836e-002
2.021033e+003, -1.515557e-002
2.022962e+003, -1.398884e-002
2.024890e+003, -1.447372e-002
2.026818e+003, -1.337930e-002
2.028747e+003, -1.073892e-002
2.030675e+003, -9.064849e-003
2.032604e+003, -1.125374e-002
2.034532e+003, -1.317776e-002
2.036461e+003, -1.188413e-002
2.038389e+003, -1.302599e-002
2.040318e+003, -1.423327e-002
2.042246e+003, -1.350001e-002
2.044175e+003, -1.254575e-002
2.046103e+003, -9.785916e-003
2.048032e+003, -9.138097e-003
2.049960e+003, -8.789172e-003
2.051889e+003, -9.153824e-003
2.053817e+003, -8.750250e-003
2.055746e+003, -8.163762e-003
2.057674e+003, -8.659802e-003
2.059603e+003, -8.497656e-003
2.061531e+003, -8.768504e-003
2.063459e+003, -8.121970e-003
2.065388e+003, -6.495577e-003
2.067316e+003, -6.401331e-003
2.069245e+003, -6.715289e-003
2.071173e+003, -6.375455e-003
2.073102e+003, -7.078450e-003
2.075030e+003, -6.358244e-003
2.076959e+003, -5.817519e-003
2.078887e+003, -5.422258e-003
2.080816e+003, -4.949144e-003
2.082744e+003, -6.053109e-003
2.084673e+003, -6.775230e-003
2.086601e+003, -7.684662e-003
2.088530e+003, -7.975109e-003
2.090458e+003, -7.191245e-003
2.092386e+003, -6.487149e-003
2.094315e+003, -6.932877e-003
2.096243e+003, -7.338895e-003
2.098172e+003, -6.573420e-003
2.100100e+003, -5.665567e-003
2.102029e+003, -6.293652e-003
2.103957e+003, -5.907548e-003
2.105886e+003, -6.067479e-003
2.107814e+003, -5.581288e-003
2.109743e+003, -4.493109e-003
2.111671e+003, -4.849317e-003
2.113600e+003, -4.370506e-003
2.115528e+003, -3.618371e-003
2.117457e+003, -3.622507e-003
2.119385e+003, -6.061588e-003
2.121313e+003, -7.138872e-003
2.123242e+003, -5.700310e-003
2.125170e+003, -5.149737e-003
2.127099e+003, -5.452653e-003
2.129027e+003, -8.205057e-003
2.130956e+003, -9.767055e-003
2.132884e+003, -9.411210e-003
2.134813e+003, -1.068950e-002
2.136741e+003, -1.153897e-002
2.138670e+003, -1.050775e-002
2.140598e+003, -9.578215e-003
2.142527e+003, -7.992268e-003
2.144455e+003, -9.154283e-003
2.146384e+003, -1.159884e-002
2.148312e+003, -1.171900e-002
2.150240e+003, -1.183216e-002
2.152169e+003, -1.298726e-002
2.154097e+003, -1.409435e-002
2.156026e+003, -1.465991e-002
2.157954e+003, -1.580388e-002
2.159883e+003, -9.957563e-003
2.161811e+003, -7.185528e-003
2.163740e+003, -9.475890e-003
2.165668e+003, -7.822441e-003
2.167597e+003, -6.695583e-003
2.169525e+003, -9.064252e-003
2.171454e+003, -1.073228e-002
2.173382e+003, -1.032592e-002
2.175311e+003, -9.726547e-003
2.177239e+003, -8.745808e-003
2.179167e+003, -1.043261e-002
2.181096e+003, -1.124089e-002
2.183024e+003, -9.930837e-003
2.184953e+003, -8.905253e-003
2.186881e+003, -8.731483e-003
2.188810e+003, -8.760742e-003
2.190738e+003, -1.085135e-002
2.192667e+003, -1.169130e-002
2.194595e+003, -9.234241e-003
2.196524e+003, -7.928911e-003
2.198452e+003, -1.067844e-002
2.200381e+003, -1.049407e-002
2.202309e+003, -9.246607e-003
2.204238e+003, -9.721208e-003
2.206166e+003, -9.673994e-003
2.208094e+003, -1.004090e-002
2.210023e+003, -9.833269e-003
2.211951e+003, -7.675935e-003
2.213880e+003, -7.060524e-003
2.215808e+003, -8.890991e-003
2.217737e+003, -1.119145e-002
2.219665e+003, -1.029452e-002
2.221594e+003, -8.789043e-003
2.223522e+003, -7.476914e-003
2.225451e+003, -7.447033e-003
2.227379e+003, -9.018218e-003
2.229308e+003, -9.598346e-003
2.231236e+003, -8.672673e-003
2.233165e+003, -9.491350e-003
2.235093e+003, -9.056860e-003
2.237021e+003, -7.377698e-003
2.238950e+003, -6.479458e-003
2.240878e+003, -7.054049e-003
2.242807e+003, -7.526203e-003
2.244735e+003, -6.871160e-003
2.246664e+003, -6.240049e-003
2.248592e+003, -6.645086e-003
2.250521e+003, -6.649007e-003
2.252449e+003, -6.226900e-003
2.254378e+003, -6.158154e-003
2.256306e+003, -6.177537e-003
2.258235e+003, -5.480365e-003
2.260163e+003, -5.511109e-003
2.262092e+003, -6.092524e-003
2.264020e+003, -6.304281e-003
2.265948e+003, -6.170512e-003
2.267877e+003, -5.581924e-003
2.269805e+003, -4.878896e-003
2.271734e+003, -4.981006e-003
2.273662e+003, -6.214800e-003
2.275591e+003, -5.936659e-003
2.277519e+003, -4.779531e-003
2.279448e+003, -4.608357e-003
2.281376e+003, -5.399480e-003
2.283305e+003, -6.005438e-003
2.285233e+003, -5.484516e-003
2.287162e+003, -4.502500e-003
2.289090e+003, -4.644912e-003
2.291019e+003, -4.513417e-003
2.292947e+003, -4.412615e-003
2.294875e+003, -3.967689e-003
2.296804e+003, -3.434821e-003
2.298732e+003, -3.903498e-003
2.300661e+003, -4.006999e-003
2.302589e+003, -3.671314e-003
2.304518e+003, -3.981394e-003
2.306446e+003, -3.885690e-003
2.308375e+003, -3.624145e-003
2.310303e+003, -3.488803e-003
2.312232e+003, -3.930619e-003
2.314160e+003, -4.604195e-003
2.316089e+003, -4.772563e-003
2.318017e+003, -4.154416e-003
2.319946e+003, -2.866981e-003
2.321874e+003, -1.592180e-003
2.323802e+003, -1.265421e-003
2.325731e+003, -3.188902e-003
2.327659e+003, -3.950314e-003
2.329588e+003, -4.316508e-003
2.331516e+003, -4.303620e-003
2.333445e+003, -3.445619e-003
2.335373e+003, -3.625052e-003
2.337302e+003, -3.979870e-003
2.339230e+003, -3.524608e-003
2.341159e+003, -3.815582e-003
2.343087e+003, -4.960936e-003
2.345016e+003, -5.740495e-003
2.346944e+003, -5.431608e-003
2.348873e+003, -4.790931e-003
2.350801e+003, -3.829124e-003
2.352729e+003, -3.303628e-003
2.354658e+003, -3.515587e-003
2.356586e+003, -3.368583e-003
2.358515e+003, -4.020194e-003
2.360443e+003, -3.828623e-003
2.362372e+003, -3.563532e-003
2.364300e+003, -4.105198e-003
2.366229e+003, -4.432880e-003
2.368157e+003, -4.301165e-003
2.370086e+003, -4.115243e-003
2.372014e+003, -4.349337e-003
2.373942e+003, -4.560340e-003
2.375871e+003, -4.456509e-003
2.377799e+003, -4.298513e-003
2.379728e+003, -4.530946e-003
2.381656e+003, -4.406543e-003
2.383585e+003, -3.805649e-003
2.385513e+003, -3.425215e-003
2.387442e+003, -3.379100e-003
2.389370e+003, -3.560944e-003
2.391299e+003, -3.081564e-003
2.393227e+003, -3.123105e-003
2.395156e+003, -3.642878e-003
2.397084e+003, -3.534762e-003
2.399012e+003, -4.469840e-003
2.400941e+003, -5.354694e-003
2.402869e+003, -4.767691e-003
2.404798e+003, -4.273919e-003
2.406726e+003, -4.398374e-003
2.408655e+003, -4.062493e-003
2.410583e+003, -2.602757e-003
2.412512e+003, -2.298682e-003
2.414440e+003, -2.005126e-003
2.416369e+003, -1.649544e-003
2.418297e+003, -2.130523e-003
2.420226e+003, -3.194395e-003
2.422154e+003, -4.176074e-003
2.424083e+003, -3.017297e-003
2.426011e+003, -1.015237e-003
2.427939e+003, -6.654925e-004
2.429868e+003, -1.106692e-003
2.431796e+003, -1.230312e-003
2.433725e+003, -2.325250e-003
2.435653e+003, -2.833317e-003
2.437582e+003, -1.513540e-003
2.439510e+003, -1.560502e-003
2.441439e+003, -2.923949e-003
2.443367e+003, -3.160609e-003
2.445296e+003, -3.164154e-003
2.447224e+003, -3.203514e-003
2.449153e+003, -2.167668e-003
2.451081e+003, -1.718729e-003
2.453010e+003, -2.171731e-003
2.454938e+003, -2.121159e-003
2.456866e+003, -2.275391e-003
2.458795e+003, -2.565496e-003
2.460723e+003, -3.188019e-003
2.462652e+003, -2.983287e-003
2.464580e+003, -2.228181e-003
2.466509e+003, -2.030503e-003
2.468437e+003, -2.591223e-003
2.470366e+003, -2.839002e-003
2.472294e+003, -2.217825e-003
2.474223e+003, -2.023516e-003
2.476151e+003, -1.187190e-003
2.478080e+003, -7.145197e-004
2.480008e+003, -1.731547e-003
2.481937e+003, -1.944949e-003
2.483865e+003, -1.809832e-003
2.485793e+003, -2.000259e-003
2.487722e+003, -2.298456e-003
2.489650e+003, -1.796341e-003
2.491579e+003, -2.508363e-003
2.493507e+003, -1.993189e-003
2.495436e+003, -9.095542e-004
2.497364e+003, -1.230588e-003
2.499293e+003, -1.869023e-003
2.501221e+003, -2.594385e-003
2.503150e+003, -3.353704e-003
2.505078e+003, -3.106113e-003
2.507007e+003, -1.742519e-003
2.508935e+003, -2.257663e-003
2.510864e+003, -3.972060e-003
2.512792e+003, -3.481160e-003
2.514720e+003, -3.313467e-003
2.516649e+003, -2.958307e-003
2.518577e+003, -2.335042e-003
2.520506e+003, -2.418330e-003
2.522434e+003, -2.383069e-003
2.524363e+003, -1.754415e-003
2.526291e+003, -2.163096e-003
2.528220e+003, -3.049685e-003
2.530148e+003, -3.323181e-003
2.532077e+003, -3.427504e-003
2.534005e+003, -3.145413e-003
2.535934e+003, -2.489723e-003
2.537862e+003, -1.553889e-003
2.539791e+003, -1.756988e-003
2.541719e+003, -1.755211e-003
2.543647e+003, -2.848320e-003
2.545576e+003, -3.390870e-003
2.547504e+003, -3.973674e-003
2.549433e+003, -3.495461e-003
2.551361e+003, -2.581537e-003
2.553290e+003, -2.712113e-003
2.555218e+003, -3.805918e-003
2.557147e+003, -3.661688e-003
2.559075e+003, -2.078355e-003
2.561004e+003, -2.779982e-003
2.562932e+003, -2.918448e-003
2.564861e+003, -2.016548e-003
2.566789e+003, -2.478351e-003
2.568718e+003, -2.907719e-003
2.570646e+003, -2.438561e-003
2.572574e+003, -2.580210e-003
2.574503e+003, -2.172450e-003
2.576431e+003, -3.645483e-003
2.578360e+003, -3.705433e-003
2.580288e+003, -3.748680e-003
2.582217e+003, -3.816799e-003
2.584145e+003, -2.898622e-003
2.586074e+003, -2.164767e-003
2.588002e+003, -2.184782e-003
2.589931e+003, -2.752488e-003
2.591859e+003, -2.624399e-003
2.593788e+003, -2.664678e-003
2.595716e+003, -2.426642e-003
2.597645e+003, -3.398961e-003
2.599573e+003, -4.123035e-003
2.601501e+003, -2.871061e-003
2.603430e+003, -2.110933e-003
2.605358e+003, -2.424802e-003
2.607287e+003, -3.051928e-003
2.609215e+003, -1.910920e-003
2.611144e+003, -1.803930e-003
2.613072e+003, -1.709738e-003
2.615001e+003, -1.491489e-003
2.616929e+003, -1.400708e-003
2.618858e+003, -1.389520e-003
2.620786e+003, -5.744570e-004
2.622715e+003, -8.173593e-004
2.624643e+003, -1.506803e-003
2.626572e+003, -2.213260e-003
2.628500e+003, -2.607106e-003
2.630428e+003, -1.930545e-003
2.632357e+003, -1.588753e-003
2.634285e+003, -2.505637e-003
2.636214e+003, -2.844023e-003
2.638142e+003, -2.539134e-003
2.640071e+003, -2.122220e-003
2.641999e+003, -1.634872e-003
2.643928e+003, -1.714706e-003
2.645856e+003, -1.826949e-003
2.647785e+003, -1.959924e-003
2.649713e+003, -2.069327e-003
2.651642e+003, -2.781787e-003
2.653570e+003, -3.267086e-003
2.655499e+003, -3.338421e-003
2.657427e+003, -2.980646e-003
2.659355e+003, -2.964968e-003
2.661284e+003, -3.421130e-003
2.663212e+003, -3.294532e-003
2.665141e+003, -3.876619e-003
2.667069e+003, -3.539492e-003
2.668998e+003, -2.839429e-003
2.670926e+003, -2.634706e-003
2.672855e+003, -3.330304e-003
2.674783e+003, -3.621119e-003
2.676712e+003, -3.039341e-003
2.678640e+003, -3.176785e-003
2.680569e+003, -3.392521e-003
2.682497e+003, -3.104063e-003
2.684426e+003, -3.185066e-003
2.686354e+003, -3.084380e-003
2.688282e+003, -3.237610e-003
2.690211e+003, -3.678081e-003
2.692139e+003, -3.410900e-003
2.694068e+003, -3.146564e-003
2.695996e+003, -2.962427e-003
2.697925e+003, -3.333016e-003
2.699853e+003, -4.363369e-003
2.701782e+003, -3.978719e-003
2.703710e+003, -3.253587e-003
2.705639e+003, -3.255887e-003
2.707567e+003, -3.660340e-003
2.709496e+003, -3.363056e-003
2.711424e+003, -3.730133e-003
2.713353e+003, -2.999190e-003
2.715281e+003, -2.088254e-003
2.717209e+003, -2.162414e-003
2.719138e+003, -2.551710e-003
2.721066e+003, -2.913228e-003
2.722995e+003, -3.323644e-003
2.724923e+003, -3.082677e-003
2.726852e+003, -2.850994e-003
2.728780e+003, -2.874136e-003
2.730709e+003, -2.381951e-003
2.732637e+003, -2.178836e-003
2.734566e+003, -3.052991e-003
2.736494e+003, -3.176337e-003
2.738423e+003, -2.866902e-003
2.740351e+003, -3.556368e-003
2.742280e+003, -4.286977e-003
2.744208e+003, -4.126884e-003
2.746136e+003, -3.620128e-003
2.748065e+003, -3.297747e-003
2.749993e+003, -2.624811e-003
2.751922e+003, -2.936863e-003
2.753850e+003, -3.585021e-003
2.755779e+003, -3.438134e-003
2.757707e+003, -3.241837e-003
2.759636e+003, -3.956329e-003
2.761564e+003, -4.256906e-003
2.763493e+003, -3.569437e-003
2.765421e+003, -2.470377e-003
2.767350e+003, -1.568069e-003
2.769278e+003, -2.334313e-003
2.771207e+003, -3.170062e-003
2.773135e+003, -3.037795e-003
2.775063e+003, -3.063689e-003
2.776992e+003, -2.697822e-003
2.778920e+003, -2.838272e-003
2.780849e+003, -3.062919e-003
2.782777e+003, -3.215109e-003
2.784706e+003, -3.536636e-003
2.786634e+003, -2.987135e-003
2.788563e+003, -3.631560e-003
2.790491e+003, -3.596331e-003
2.792420e+003, -2.972194e-003
2.794348e+003, -3.747992e-003
2.796277e+003, -4.412236e-003
2.798205e+003, -3.773085e-003
2.800134e+003, -3.609192e-003
2.802062e+003, -3.235862e-003
2.803990e+003, -2.733150e-003
2.805919e+003, -2.392249e-003
2.807847e+003, -2.502271e-003
2.809776e+003, -2.825913e-003
2.811704e+003, -2.632073e-003
2.813633e+003, -2.870871e-003
2.815561e+003, -3.429111e-003
2.817490e+003, -3.571991e-003
2.819418e+003, -3.119700e-003
2.821347e+003, -3.455553e-003
2.823275e+003, -3.573724e-003
2.825204e+003, -3.237939e-003
2.827132e+003, -2.351091e-003
2.829061e+003, -2.312645e-003
2.830989e+003, -2.221104e-003
2.832917e+003, -2.671510e-003
2.834846e+003, -3.757564e-003
2.836774e+003, -3.696952e-003
2.838703e+003, -3.395150e-003
2.840631e+003, -2.948524e-003
2.842560e+003, -3.335551e-003
2.844488e+003, -4.333017e-003
2.846417e+003, -4.153880e-003
2.848345e+003, -3.160594e-003
2.850274e+003, -3.187201e-003
2.852202e+003, -4.497044e-003
2.854131e+003, -5.828900e-003
2.856059e+003, -5.401325e-003
2.857988e+003, -3.756487e-003
2.859916e+003, -3.532712e-003
2.861844e+003, -3.097673e-003
2.863773e+003, -2.761710e-003
2.865701e+003, -3.514709e-003
2.867630e+003, -4.180602e-003
2.869558e+003, -3.941874e-003
2.871487e+003, -3.535896e-003
2.873415e+003, -4.439449e-003
2.875344e+003, -5.642885e-003
2.877272e+003, -5.296262e-003
2.879201e+003, -4.504050e-003
2.881129e+003, -4.039168e-003
2.883058e+003, -4.898006e-003
2.884986e+003, -6.186015e-003
2.886915e+003, -5.544896e-003
2.888843e+003, -3.786321e-003
2.890771e+003, -4.067150e-003
2.892700e+003, -5.607282e-003
2.894628e+003, -5.495396e-003
2.896557e+003, -5.420552e-003
2.898485e+003, -5.721332e-003
2.900414e+003, -6.486150e-003
2.902342e+003, -6.537927e-003
2.904271e+003, -6.251350e-003
2.906199e+003, -5.633493e-003
2.908128e+003, -5.212292e-003
2.910056e+003, -4.823060e-003
2.911985e+003, -4.078191e-003
2.913913e+003, -3.443838e-003
2.915842e+003, -3.791058e-003
2.917770e+003, -3.803183e-003
2.919698e+003, -2.630915e-003
2.921627e+003, -2.387576e-003
2.923555e+003, -3.678040e-003
2.925484e+003, -3.861394e-003
2.927412e+003, -4.190926e-003
2.929341e+003, -4.196791e-003
2.931269e+003, -3.919451e-003
2.933198e+003, -2.844658e-003
2.935126e+003, -3.776092e-003
2.937055e+003, -4.854641e-003
2.938983e+003, -4.474831e-003
2.940912e+003, -3.590932e-003
2.942840e+003, -3.144473e-003
2.944769e+003, -2.877141e-003
2.946697e+003, -1.923681e-003
2.948625e+003, -2.722186e-003
2.950554e+003, -4.168525e-003
2.952482e+003, -4.361675e-003
2.954411e+003, -4.929265e-003
2.956339e+003, -5.711792e-003
2.958268e+003, -5.361227e-003
2.960196e+003, -4.397216e-003
2.962125e+003, -3.431958e-003
2.964053e+003, -3.536948e-003
2.965982e+003, -4.391151e-003
2.967910e+003, -4.869322e-003
2.969839e+003, -4.930183e-003
2.971767e+003, -5.453411e-003
2.973696e+003, -6.262731e-003
2.975624e+003, -5.689817e-003
2.977552e+003, -5.115478e-003
2.979481e+003, -5.779610e-003
2.981409e+003, -5.699480e-003
2.983338e+003, -4.961461e-003
2.985266e+003, -4.187006e-003
2.987195e+003, -3.802294e-003
2.989123e+003, -3.797119e-003
2.991052e+003, -3.772482e-003
2.992980e+003, -4.273201e-003
2.994909e+003, -4.340784e-003
2.996837e+003, -4.191328e-003
2.998766e+003, -4.664079e-003
3.000694e+003, -4.273691e-003
3.002623e+003, -3.666321e-003
3.004551e+003, -2.968441e-003
3.006479e+003, -1.879384e-003
3.008408e+003, -1.953787e-003
3.010336e+003, -4.082631e-003
3.012265e+003, -4.480587e-003
3.014193e+003, -3.956433e-003
3.016122e+003, -4.690336e-003
3.018050e+003, -3.574023e-003
3.019979e+003, -2.854376e-003
3.021907e+003, -2.396052e-003
3.023836e+003, -8.696159e-004
3.025764e+003, -9.175693e-004
3.027693e+003, -1.397155e-003
3.029621e+003, -1.308841e-003
3.031550e+003, -1.996777e-003
3.033478e+003, -2.645628e-003
3.035406e+003, -1.780374e-003
3.037335e+003, -9.696716e-004
3.039263e+003, -1.672517e-003
3.041192e+003, -2.602021e-003
3.043120e+003, -2.050253e-003
3.045049e+003, -1.677175e-003
3.046977e+003, -1.795454e-003
3.048906e+003, -2.106968e-003
3.050834e+003, -1.916203e-003
3.052763e+003, -1.893129e-003
3.054691e+003, -1.390071e-003
3.056620e+003, -2.249726e-003
3.058548e+003, -2.733215e-003
3.060477e+003, -1.172823e-003
3.062405e+003, 3.662441e-005
3.064333e+003, -5.435955e-004
3.066262e+003, -1.381806e-003
3.068190e+003, -2.254916e-003
3.070119e+003, -3.605079e-003
3.072047e+003, -3.603647e-003
3.073976e+003, -3.494867e-003
3.075904e+003, -2.189073e-003
3.077833e+003, -1.398882e-003
3.079761e+003, -2.809324e-003
3.081690e+003, -2.159515e-003
3.083618e+003, -1.450437e-003
3.085547e+003, -1.946974e-003
3.087475e+003, -1.300749e-003
3.089404e+003, -2.256047e-005
3.091332e+003, -5.708852e-004
3.093260e+003, -5.069631e-004
3.095189e+003, -1.518336e-003
3.097117e+003, -3.359277e-003
3.099046e+003, -3.318393e-003
3.100974e+003, -2.479813e-003
3.102903e+003, -1.533304e-003
3.104831e+003, -5.730492e-004
3.106760e+003, -1.708044e-003
3.108688e+003, -2.248265e-003
3.110617e+003, -2.003008e-003
3.112545e+003, -4.686611e-004
3.114474e+003, -6.109437e-004
3.116402e+003, -1.783585e-003
3.118331e+003, -1.181242e-003
3.120259e+003, -6.964558e-004
3.122188e+003, -1.292036e-003
3.124116e+003, -3.515346e-004
3.126044e+003, 7.788343e-004
3.127973e+003, 1.227299e-003
3.129901e+003, 1.294030e-003
3.131830e+003, 2.678730e-003
3.133758e+003, 2.359192e-003
3.135687e+003, 2.117631e-003
3.137615e+003, 2.028481e-003
3.139544e+003, 1.335841e-004
3.141472e+003, -1.698230e-003
3.143401e+003, -1.772869e-003
3.145329e+003, -2.304179e-004
3.147258e+003, 1.002164e-004
3.149186e+003, -9.656874e-004
3.151115e+003, -5.103612e-004
3.153043e+003, -6.575000e-004
3.154971e+003, -1.656849e-003
3.156900e+003, -1.111770e-003
3.158828e+003, 3.670037e-004
3.160757e+003, -1.347196e-003
3.162685e+003, -2.377047e-003
3.164614e+003, 4.485442e-004
3.166542e+003, 5.164099e-004
3.168471e+003, 4.745369e-005
3.170399e+003, -3.124827e-004
3.172328e+003, -1.849571e-003
3.174256e+003, -9.314388e-004
3.176185e+003, 2.063190e-003
3.178113e+003, 7.339515e-004
3.180042e+003, -5.694999e-004
3.181970e+003, -1.065923e-003
3.183898e+003, -1.098404e-003
3.185827e+003, 2.364731e-004
3.187755e+003, 1.177989e-003
3.189684e+003, -7.566990e-005
3.191612e+003, -1.785724e-003
3.193541e+003, -1.764293e-003
3.195469e+003, -4.034455e-004
3.197398e+003, -4.665992e-004
3.199326e+003, -2.021770e-003
3.201255e+003, -2.507260e-003
3.203183e+003, -1.088937e-003
3.205112e+003, 4.067454e-005
3.207040e+003, 1.083917e-004
3.208969e+003, -9.970883e-004
3.210897e+003, -8.749958e-004
3.212825e+003, 2.866033e-004
3.214754e+003, 7.739597e-004
3.216682e+003, -8.822177e-004
3.218611e+003, -9.136540e-004
3.220539e+003, -2.062542e-004
3.222468e+003, -1.193538e-003
3.224396e+003, -1.808442e-003
3.226325e+003, -1.202763e-003
3.228253e+003, 4.011764e-004
3.230182e+003, 3.515272e-004
3.232110e+003, -1.084218e-003
3.234039e+003, -1.783670e-003
3.235967e+003, 1.674886e-004
3.237896e+003, 5.650740e-004
3.239824e+003, 1.341851e-003
3.241752e+003, 5.008455e-004
3.243681e+003, -1.493343e-003
3.245609e+003, -6.690635e-004
3.247538e+003, 8.332090e-004
3.249466e+003, 5.187318e-004
3.251395e+003, 8.665376e-004
3.253323e+003, -6.936031e-004
3.255252e+003, -2.571299e-003
3.257180e+003, -1.563380e-003
3.259109e+003, -9.328121e-004
3.261037e+003, -2.840628e-003
3.262966e+003, -2.523432e-003
3.264894e+003, 6.653173e-005
3.266823e+003, 1.058579e-003
3.268751e+003, 2.964670e-004
3.270679e+003, 3.437938e-004
3.272608e+003, 1.388643e-003
3.274536e+003, 2.024723e-003
3.276465e+003, 8.288991e-004
3.278393e+003, 1.679051e-003
3.280322e+003, 9.663671e-004
3.282250e+003, -2.293442e-004
3.284179e+003, -3.405600e-004
3.286107e+003, -1.579983e-003
3.288036e+003, -1.559145e-003
3.289964e+003, -1.437334e-003
3.291893e+003, -1.212385e-003
3.293821e+003, -4.974718e-004
3.295750e+003, -1.806799e-003
3.297678e+003, -1.772280e-003
3.299606e+003, 2.864456e-005
3.301535e+003, -1.642992e-004
3.303463e+003, -8.829375e-004
3.305392e+003, -1.859546e-004
3.307320e+003, 6.503143e-004
3.309249e+003, -4.388571e-004
3.311177e+003, -1.091227e-003
3.313106e+003, -1.153399e-003
3.315034e+003, -2.320925e-003
3.316963e+003, -8.395347e-004
3.318891e+003, 1.375769e-004
3.320820e+003, -8.436999e-004
3.322748e+003, -2.096027e-003
3.324677e+003, -2.682106e-003
3.326605e+003, -3.804427e-004
3.328533e+003, 6.053860e-004
3.330462e+003, 8.702743e-004
3.332390e+003, -1.178086e-004
3.334319e+003, -9.753155e-004
3.336247e+003, -1.855387e-003
3.338176e+003, -3.427756e-003
3.340104e+003, -2.505532e-003
3.342033e+003, -1.621031e-003
3.343961e+003, -2.382991e-003
3.345890e+003, -1.006951e-003
3.347818e+003, 6.693751e-004
3.349747e+003, 4.016196e-004
3.351675e+003, 3.286475e-004
3.353604e+003, -8.534729e-004
3.355532e+003, -1.354572e-003
3.357460e+003, -1.061681e-003
3.359389e+003, -1.265270e-003
3.361317e+003, -2.365115e-003
3.363246e+003, -1.619632e-003
3.365174e+003, 1.320241e-004
3.367103e+003, 1.620385e-003
3.369031e+003, 1.912795e-003
3.370960e+003, 8.903563e-004
3.372888e+003, -4.407049e-004
3.374817e+003, 1.920098e-004
3.376745e+003, 7.194396e-005
3.378674e+003, -1.773321e-003
3.380602e+003, -2.324221e-003
3.382531e+003, -3.411225e-004
3.384459e+003, -5.805504e-004
3.386387e+003, -1.216693e-003
3.388316e+003, -1.542323e-003
3.390244e+003, -6.198325e-004
3.392173e+003, 1.558188e-003
3.394101e+003, 2.779376e-003
3.396030e+003, 2.724250e-003
3.397958e+003, 1.271667e-003
3.399887e+003, 7.439157e-004
3.401815e+003, -5.444077e-005
3.403744e+003, -1.371339e-004
3.405672e+003, -1.183144e-003
3.407601e+003, -3.103283e-003
3.409529e+003, -2.426558e-003
3.411458e+003, 5.444784e-004
3.413386e+003, 1.514494e-003
3.415314e+003, 1.426315e-003
3.417243e+003, 2.910410e-003
3.419171e+003, 1.377691e-003
3.421100e+003, 5.694906e-004
3.423028e+003, 3.492574e-004
3.424957e+003, -3.322401e-004
3.426885e+003, -1.791367e-003
3.428814e+003, -2.594419e-003
3.430742e+003, -3.348718e-003
3.432671e+003, -2.262924e-003
3.434599e+003, 4.745166e-004
3.436528e+003, 2.063654e-003
3.438456e+003, 1.873842e-003
3.440385e+003, 8.168751e-004
3.442313e+003, -4.358651e-004
3.444241e+003, -4.912130e-004
3.446170e+003, -1.516985e-003
3.448098e+003, -2.662728e-003
3.450027e+003, -3.025561e-003
3.451955e+003, 3.522860e-005
3.453884e+003, 8.596992e-004
3.455812e+003, 1.472607e-004
3.457741e+003, -6.557639e-004
3.459669e+003, -1.141997e-003
3.461598e+003, -7.472927e-004
3.463526e+003, 1.156773e-003
3.465455e+003, 1.072958e-003
3.467383e+003, 6.542018e-004
3.469312e+003, 6.320254e-004
3.471240e+003, -8.636393e-004
3.473168e+003, 3.352656e-004
3.475097e+003, 1.011649e-003
3.477025e+003, -8.805076e-004
3.478954e+003, -1.672129e-003
3.480882e+003, -6.945073e-004
3.482811e+003, -3.486974e-004
3.484739e+003, -7.914107e-004
3.486668e+003, -1.950578e-003
3.488596e+003, -2.768077e-003
3.490525e+003, -2.213527e-003
3.492453e+003, -8.332956e-004
3.494382e+003, -1.126527e-004
3.496310e+003, -8.236796e-004
3.498239e+003, -1.467185e-003
3.500167e+003, -1.923962e-003
3.502095e+003, -2.865077e-003
3.504024e+003, 1.101979e-003
3.505952e+003, 1.047716e-003
3.507881e+003, -1.305055e-003
3.509809e+003, -1.662797e-003
3.511738e+003, -1.499583e-003
3.513666e+003, -1.692651e-003
3.515595e+003, 5.149543e-004
3.517523e+003, -5.687522e-005
3.519452e+003, -1.009424e-003
3.521380e+003, -2.881664e-004
3.523309e+003, -6.815015e-004
3.525237e+003, -7.871824e-004
3.527166e+003, 5.392127e-004
3.529094e+003, -1.134533e-003
3.531022e+003, -3.003179e-003
3.532951e+003, -3.193375e-003
3.534879e+003, -1.890402e-003
3.536808e+003, -1.012997e-003
3.538736e+003, 3.224481e-005
3.540665e+003, 5.596100e-005
3.542593e+003, -4.166949e-005
3.544522e+003, 1.293488e-003
3.546450e+003, 9.887965e-004
3.548379e+003, -4.874945e-004
3.550307e+003, -6.896634e-004
3.552236e+003, -1.594951e-003
3.554164e+003, -2.929537e-003
3.556093e+003, -9.193716e-004
3.558021e+003, -8.344473e-004
3.559949e+003, -1.733563e-003
3.561878e+003, -2.702289e-003
3.563806e+003, -2.460788e-003
3.565735e+003, -1.566548e-003
3.567663e+003, 4.515730e-005
3.569592e+003, 2.887362e-004
3.571520e+003, 1.613798e-003
3.573449e+003, 1.984159e-003
3.575377e+003, -1.243895e-005
3.577306e+003, -4.019975e-003
3.579234e+003, -3.988311e-003
3.581163e+003, -2.843539e-003
3.583091e+003, -4.552981e-003
3.585020e+003, -2.133719e-003
3.586948e+003, 6.888885e-004
3.588876e+003, -2.711215e-005
3.590805e+003, -2.429776e-003
3.592733e+003, -1.754165e-003
3.594662e+003, -2.536319e-003
3.596590e+003, -5.434321e-003
3.598519e+003, -4.848017e-003
3.600447e+003, -3.974585e-003
3.602376e+003, -4.309922e-003
3.604304e+003, -4.241485e-003
3.606233e+003, -3.300631e-003
3.608161e+003, -2.575563e-003
3.610090e+003, -3.284346e-003
3.612018e+003, -3.640649e-003
3.613947e+003, -1.686057e-003
3.615875e+003, 9.153640e-005
3.617803e+003, 8.151538e-005
3.619732e+003, -1.909785e-003
3.621660e+003, -2.049348e-003
3.623589e+003, -4.894254e-004
3.625517e+003, -1.801610e-003
3.627446e+003, -7.785753e-003
3.629374e+003, -6.915272e-003
3.631303e+003, -2.949405e-003
3.633231e+003, -3.019340e-003
3.635160e+003, -3.862960e-003
3.637088e+003, -3.059111e-003
3.639017e+003, -4.565976e-003
3.640945e+003, -4.837584e-003
3.642874e+003, -4.711383e-003
3.644802e+003, -5.567219e-003
3.646730e+003, -6.267528e-003
3.648659e+003, -7.627845e-003
3.650587e+003, -7.770907e-003
3.652516e+003, -6.391502e-003
3.654444e+003, -7.375410e-003
3.656373e+003, -7.255814e-003
3.658301e+003, -5.343706e-003
3.660230e+003, -3.658147e-003
3.662158e+003, -6.788778e-003
3.664087e+003, -9.529823e-003
3.666015e+003, -8.775294e-003
3.667944e+003, -6.500565e-003
3.669872e+003, -4.882807e-003
3.671801e+003, -8.775350e-003
3.673729e+003, -1.004148e-002
3.675657e+003, -8.683670e-003
3.677586e+003, -7.220642e-003
3.679514e+003, -6.916246e-003
3.681443e+003, -6.466175e-003
3.683371e+003, -7.654867e-003
3.685300e+003, -6.657066e-003
3.687228e+003, -4.885803e-003
3.689157e+003, -7.013967e-003
3.691085e+003, -1.028397e-002
3.693014e+003, -1.101794e-002
3.694942e+003, -1.073599e-002
3.696871e+003, -1.094210e-002
3.698799e+003, -9.236312e-003
3.700728e+003, -9.477508e-003
3.702656e+003, -1.124603e-002
3.704584e+003, -9.346073e-003
3.706513e+003, -6.454554e-003
3.708441e+003, -5.155956e-003
3.710370e+003, -4.894528e-003
3.712298e+003, -5.434348e-003
3.714227e+003, -5.492119e-003
3.716155e+003, -5.355440e-003
3.718084e+003, -4.385699e-003
3.720012e+003, -6.006573e-003
3.721941e+003, -1.014495e-002
3.723869e+003, -1.181483e-002
3.725798e+003, -1.035186e-002
3.727726e+003, -8.053592e-003
3.729655e+003, -8.784812e-003
3.731583e+003, -8.257160e-003
3.733511e+003, -4.826263e-003
3.735440e+003, -4.601063e-003
3.737368e+003, -8.055078e-003
3.739297e+003, -9.334977e-003
3.741225e+003, -6.756607e-003
3.743154e+003, -4.056408e-003
3.745082e+003, -1.954727e-003
3.747011e+003, -2.197400e-003
3.748939e+003, -4.556623e-003
3.750868e+003, -4.955384e-003
3.752796e+003, -3.254843e-003
3.754725e+003, -2.648014e-003
3.756653e+003, -3.220672e-003
3.758582e+003, -3.556511e-003
3.760510e+003, -5.424701e-003
3.762438e+003, -7.532188e-003
3.764367e+003, -8.687678e-003
3.766295e+003, -5.130281e-003
3.768224e+003, -3.386970e-003
3.770152e+003, -4.413853e-003
3.772081e+003, -2.404931e-003
3.774009e+003, -2.323873e-003
3.775938e+003, -5.227350e-003
3.777866e+003, -6.269337e-003
3.779795e+003, -4.890963e-003
3.781723e+003, -5.113447e-003
3.783652e+003, -6.468384e-003
3.785580e+003, -7.919583e-003
3.787509e+003, -9.351642e-003
3.789437e+003, -1.264647e-002
3.791365e+003, -1.160778e-002
3.793294e+003, -8.098696e-003
3.795222e+003, -5.340287e-003
3.797151e+003, -6.213978e-003
3.799079e+003, -5.102155e-003
3.801008e+003, -2.773950e-003
3.802936e+003, -7.010600e-003
3.804865e+003, -7.473430e-003
3.806793e+003, -6.789605e-003
3.808722e+003, -7.267045e-003
3.810650e+003, -8.754052e-003
3.812579e+003, -9.246472e-003
3.814507e+003, -8.552060e-003
3.816436e+003, -7.076157e-003
3.818364e+003, -4.700554e-003
3.820292e+003, -5.351463e-003
3.822221e+003, -5.121492e-003
3.824149e+003, -5.674358e-003
3.826078e+003, -7.764956e-003
3.828006e+003, -7.536308e-003
3.829935e+003, -5.982772e-003
3.831863e+003, -5.558128e-003
3.833792e+003, -5.064558e-003
3.835720e+003, -6.499798e-003
3.837649e+003, -8.733856e-003
3.839577e+003, -7.684462e-003
3.841506e+003, -5.892406e-003
3.843434e+003, -7.955573e-003
3.845363e+003, -8.796280e-003
3.847291e+003, -8.629113e-003
3.849219e+003, -8.569234e-003
3.851148e+003, -8.249389e-003
3.853076e+003, -9.003903e-003
3.855005e+003, -1.001355e-002
3.856933e+003, -7.980210e-003
3.858862e+003, -8.841531e-003
3.860790e+003, -1.143528e-002
3.862719e+003, -7.834477e-003
3.864647e+003, -7.332317e-003
3.866576e+003, -1.039341e-002
3.868504e+003, -9.860798e-003
3.870433e+003, -8.408861e-003
3.872361e+003, -5.318374e-003
3.874290e+003, -5.399336e-003
3.876218e+003, -6.177793e-003
3.878146e+003, -5.354244e-003
3.880075e+003, -5.504534e-003
3.882003e+003, -8.241884e-003
3.883932e+003, -1.040399e-002
3.885860e+003, -9.937422e-003
3.887789e+003, -1.087695e-002
3.889717e+003, -1.103626e-002
3.891646e+003, -9.395786e-003
3.893574e+003, -8.535644e-003
3.895503e+003, -8.619492e-003
3.897431e+003, -9.981647e-003
3.899360e+003, -1.190943e-002
3.901288e+003, -9.183677e-003
3.903217e+003, -6.519226e-003
3.905145e+003, -5.830518e-003
3.907073e+003, -8.860047e-003
3.909002e+003, -1.122672e-002
3.910930e+003, -1.113828e-002
3.912859e+003, -1.068183e-002
3.914787e+003, -1.028243e-002
3.916716e+003, -5.806666e-003
3.918644e+003, -4.904922e-003
3.920573e+003, -5.288372e-003
3.922501e+003, -4.528829e-003
3.924430e+003, -4.232620e-003
3.926358e+003, -4.596989e-003
3.928287e+003, -7.922897e-003
3.930215e+003, -8.181861e-003
3.932144e+003, -6.904306e-003
3.934072e+003, -8.418066e-003
3.936000e+003, -9.287571e-003
3.937929e+003, -1.077776e-002
3.939857e+003, -8.699970e-003
3.941786e+003, -5.711323e-003
3.943714e+003, -5.237647e-003
3.945643e+003, -7.896740e-003
3.947571e+003, -6.607250e-003
3.949500e+003, -3.778819e-003
3.951428e+003, -4.316329e-003
3.953357e+003, -6.994390e-003
3.955285e+003, -1.168457e-002
3.957214e+003, -1.399444e-002
3.959142e+003, -1.096708e-002
3.961071e+003, -8.863157e-003
3.962999e+003, -8.169607e-003
3.964927e+003, -9.133166e-003
3.966856e+003, -9.743363e-003
3.968784e+003, -4.297248e-003
3.970713e+003, -3.005236e-003
3.972641e+003, -7.694079e-003
3.974570e+003, -1.047401e-002
3.976498e+003, -1.178742e-002
3.978427e+003, -8.086478e-003
3.980355e+003, -6.818192e-003
3.982284e+003, -9.526568e-003
3.984212e+003, -1.398503e-002
3.986141e+003, -1.182151e-002
3.988069e+003, -5.192348e-003
3.989998e+003, -2.685244e-003
3.991926e+003, -6.031659e-003
3.993854e+003, -8.851068e-003
3.995783e+003, -1.021261e-002
3.997711e+003, -9.116976e-003
3.999640e+003, -9.121373e-003
4.001568e+003, 0.000000e+000
##END=



