##NAMES=Allanite-(Ce)
##RRUFFID=R080044
##IDEAL CHEMISTRY=CaCeAl_2_Fe^2+^(Si_2_O_7_)(SiO_4_)O(OH)
##LOCALITY=Aquarius Range, Mohave County, Arizona, USA
##OWNER=RRUFF
##SOURCE=John Weber
##DESCRIPTION=Dark brown fragment from metamict sample R060418, after heating at T = 850 C for 18 hours
##STATUS=The identification of this mineral has been confirmed only by X-ray diffraction
##URL=rruff.info/R080044
3.991926e+002, 2.144056e-001
4.011211e+002, 2.144191e-001
4.030495e+002, 2.175296e-001
4.049780e+002, 2.214188e-001
4.069065e+002, 2.183995e-001
4.088349e+002, 2.142803e-001
4.107634e+002, 2.128536e-001
4.126919e+002, 2.115110e-001
4.146203e+002, 2.139904e-001
4.165488e+002, 2.181882e-001
4.184773e+002, 2.202075e-001
4.204057e+002, 2.205777e-001
4.223342e+002, 2.208186e-001
4.242627e+002, 2.230082e-001
4.261911e+002, 2.250966e-001
4.281196e+002, 2.273565e-001
4.300481e+002, 2.309330e-001
4.319765e+002, 2.327476e-001
4.339050e+002, 2.333695e-001
4.358335e+002, 2.348294e-001
4.377619e+002, 2.348345e-001
4.396904e+002, 2.349442e-001
4.416189e+002, 2.365498e-001
4.435473e+002, 2.383084e-001
4.454758e+002, 2.365221e-001
4.474043e+002, 2.346887e-001
4.493327e+002, 2.339320e-001
4.512612e+002, 2.307706e-001
4.531897e+002, 2.266311e-001
4.551181e+002, 2.247105e-001
4.570466e+002, 2.222754e-001
4.589751e+002, 2.190756e-001
4.609035e+002, 2.151060e-001
4.628320e+002, 2.116741e-001
4.647605e+002, 2.081255e-001
4.666889e+002, 2.034792e-001
4.686174e+002, 1.996823e-001
4.705459e+002, 1.959348e-001
4.724743e+002, 1.934763e-001
4.744028e+002, 1.923086e-001
4.763313e+002, 1.909050e-001
4.782597e+002, 1.907471e-001
4.801882e+002, 1.909602e-001
4.821167e+002, 1.920803e-001
4.840451e+002, 1.938195e-001
4.859736e+002, 1.961701e-001
4.879021e+002, 1.985055e-001
4.898305e+002, 1.997245e-001
4.917590e+002, 2.010927e-001
4.936875e+002, 2.030770e-001
4.956159e+002, 2.052268e-001
4.975444e+002, 2.069694e-001
4.994729e+002, 2.084134e-001
5.014013e+002, 2.105136e-001
5.033298e+002, 2.111323e-001
5.052583e+002, 2.110164e-001
5.071867e+002, 2.094519e-001
5.091152e+002, 2.075614e-001
5.110437e+002, 2.063895e-001
5.129721e+002, 2.045302e-001
5.149006e+002, 2.009507e-001
5.168290e+002, 1.972222e-001
5.187575e+002, 1.935414e-001
5.206860e+002, 1.900268e-001
5.226144e+002, 1.872732e-001
5.245429e+002, 1.845382e-001
5.264714e+002, 1.809386e-001
5.283998e+002, 1.784271e-001
5.303283e+002, 1.768380e-001
5.322568e+002, 1.752282e-001
5.341852e+002, 1.738228e-001
5.361137e+002, 1.731258e-001
5.380422e+002, 1.720279e-001
5.399706e+002, 1.708781e-001
5.418991e+002, 1.703234e-001
5.438276e+002, 1.702299e-001
5.457560e+002, 1.700292e-001
5.476845e+002, 1.699448e-001
5.496130e+002, 1.699495e-001
5.515414e+002, 1.698214e-001
5.534699e+002, 1.697669e-001
5.553984e+002, 1.695761e-001
5.573268e+002, 1.686386e-001
5.592553e+002, 1.677849e-001
5.611838e+002, 1.667849e-001
5.631122e+002, 1.657874e-001
5.650407e+002, 1.647845e-001
5.669692e+002, 1.635128e-001
5.688976e+002, 1.619617e-001
5.708261e+002, 1.608553e-001
5.727546e+002, 1.600798e-001
5.746830e+002, 1.592581e-001
5.766115e+002, 1.586310e-001
5.785400e+002, 1.583907e-001
5.804684e+002, 1.583776e-001
5.823969e+002, 1.586854e-001
5.843254e+002, 1.593773e-001
5.862538e+002, 1.603121e-001
5.881823e+002, 1.613125e-001
5.901108e+002, 1.622389e-001
5.920392e+002, 1.632396e-001
5.939677e+002, 1.640974e-001
5.958962e+002, 1.649957e-001
5.978246e+002, 1.660958e-001
5.997531e+002, 1.669940e-001
6.016816e+002, 1.675513e-001
6.036100e+002, 1.681892e-001
6.055385e+002, 1.688896e-001
6.074670e+002, 1.696384e-001
6.093954e+002, 1.699717e-001
6.113239e+002, 1.703257e-001
6.132524e+002, 1.707827e-001
6.151808e+002, 1.708139e-001
6.171093e+002, 1.702057e-001
6.190378e+002, 1.692767e-001
6.209662e+002, 1.682041e-001
6.228947e+002, 1.665864e-001
6.248232e+002, 1.648390e-001
6.267516e+002, 1.635364e-001
6.286801e+002, 1.624818e-001
6.306086e+002, 1.622615e-001
6.325370e+002, 1.630353e-001
6.344655e+002, 1.643609e-001
6.363940e+002, 1.656033e-001
6.383224e+002, 1.662791e-001
6.402509e+002, 1.665326e-001
6.421794e+002, 1.663832e-001
6.441078e+002, 1.661893e-001
6.460363e+002, 1.657955e-001
6.479648e+002, 1.651242e-001
6.498932e+002, 1.643658e-001
6.518217e+002, 1.633534e-001
6.537502e+002, 1.622398e-001
6.556786e+002, 1.613058e-001
6.576071e+002, 1.604286e-001
6.595356e+002, 1.593383e-001
6.614641e+002, 1.583377e-001
6.633925e+002, 1.574738e-001
6.653210e+002, 1.565591e-001
6.672495e+002, 1.558474e-001
6.691779e+002, 1.548652e-001
6.711064e+002, 1.539378e-001
6.730349e+002, 1.532508e-001
6.749633e+002, 1.525174e-001
6.768918e+002, 1.512324e-001
6.788203e+002, 1.497042e-001
6.807487e+002, 1.480960e-001
6.826772e+002, 1.464719e-001
6.846057e+002, 1.447812e-001
6.865341e+002, 1.431480e-001
6.884626e+002, 1.416881e-001
6.903911e+002, 1.403060e-001
6.923195e+002, 1.390166e-001
6.942480e+002, 1.377565e-001
6.961765e+002, 1.364691e-001
6.981049e+002, 1.352518e-001
7.000334e+002, 1.343334e-001
7.019619e+002, 1.334235e-001
7.038903e+002, 1.324246e-001
7.058188e+002, 1.312668e-001
7.077473e+002, 1.299177e-001
7.096757e+002, 1.285059e-001
7.116042e+002, 1.273372e-001
7.135327e+002, 1.260106e-001
7.154611e+002, 1.245214e-001
7.173896e+002, 1.231835e-001
7.193181e+002, 1.217500e-001
7.212465e+002, 1.199961e-001
7.231750e+002, 1.184822e-001
7.251035e+002, 1.169108e-001
7.270319e+002, 1.152813e-001
7.289604e+002, 1.138343e-001
7.308889e+002, 1.124026e-001
7.328173e+002, 1.109607e-001
7.347458e+002, 1.096431e-001
7.366743e+002, 1.086360e-001
7.386027e+002, 1.076762e-001
7.405312e+002, 1.069004e-001
7.424597e+002, 1.061085e-001
7.443881e+002, 1.054239e-001
7.463166e+002, 1.049996e-001
7.482451e+002, 1.043846e-001
7.501735e+002, 1.037257e-001
7.521020e+002, 1.031855e-001
7.540305e+002, 1.025003e-001
7.559589e+002, 1.018635e-001
7.578874e+002, 1.013800e-001
7.598159e+002, 1.010150e-001
7.617443e+002, 1.007951e-001
7.636728e+002, 1.005980e-001
7.656013e+002, 1.002845e-001
7.675297e+002, 9.989855e-002
7.694582e+002, 9.985398e-002
7.713867e+002, 9.992000e-002
7.733151e+002, 9.987854e-002
7.752436e+002, 1.000590e-001
7.771721e+002, 1.003905e-001
7.791005e+002, 1.005838e-001
7.810290e+002, 1.008512e-001
7.829575e+002, 1.012200e-001
7.848859e+002, 1.016920e-001
7.868144e+002, 1.024056e-001
7.887429e+002, 1.033818e-001
7.906713e+002, 1.044787e-001
7.925998e+002, 1.059413e-001
7.945283e+002, 1.077281e-001
7.964567e+002, 1.096740e-001
7.983852e+002, 1.117158e-001
8.003137e+002, 1.138431e-001
8.022421e+002, 1.162690e-001
8.041706e+002, 1.190511e-001
8.060991e+002, 1.220434e-001
8.080275e+002, 1.253302e-001
8.099560e+002, 1.289136e-001
8.118845e+002, 1.327737e-001
8.138129e+002, 1.366709e-001
8.157414e+002, 1.408922e-001
8.176699e+002, 1.453486e-001
8.195983e+002, 1.495090e-001
8.215268e+002, 1.536967e-001
8.234553e+002, 1.577893e-001
8.253837e+002, 1.615288e-001
8.273122e+002, 1.649351e-001
8.292407e+002, 1.680989e-001
8.311691e+002, 1.710847e-001
8.330976e+002, 1.736986e-001
8.350261e+002, 1.760288e-001
8.369545e+002, 1.781534e-001
8.388830e+002, 1.801009e-001
8.408115e+002, 1.816125e-001
8.427399e+002, 1.828716e-001
8.446684e+002, 1.842069e-001
8.465969e+002, 1.854354e-001
8.485253e+002, 1.864689e-001
8.504538e+002, 1.876614e-001
8.523823e+002, 1.892690e-001
8.543107e+002, 1.911504e-001
8.562392e+002, 1.930745e-001
8.581677e+002, 1.953551e-001
8.600961e+002, 1.979846e-001
8.620246e+002, 2.006051e-001
8.639531e+002, 2.035463e-001
8.658815e+002, 2.065969e-001
8.678100e+002, 2.093598e-001
8.697385e+002, 2.119983e-001
8.716669e+002, 2.143845e-001
8.735954e+002, 2.165066e-001
8.755239e+002, 2.180655e-001
8.774523e+002, 2.191440e-001
8.793808e+002, 2.198462e-001
8.813093e+002, 2.201652e-001
8.832377e+002, 2.202242e-001
8.851662e+002, 2.197524e-001
8.870947e+002, 2.187592e-001
8.890231e+002, 2.176517e-001
8.909516e+002, 2.161690e-001
8.928801e+002, 2.143155e-001
8.948085e+002, 2.120508e-001
8.967370e+002, 2.098697e-001
8.986655e+002, 2.075852e-001
9.005939e+002, 2.056122e-001
9.025224e+002, 2.039459e-001
9.044509e+002, 2.026143e-001
9.063793e+002, 2.017452e-001
9.083078e+002, 2.010311e-001
9.102363e+002, 2.006871e-001
9.121647e+002, 2.011209e-001
9.140932e+002, 2.019040e-001
9.160217e+002, 2.027802e-001
9.179501e+002, 2.039049e-001
9.198786e+002, 2.053022e-001
9.218071e+002, 2.068250e-001
9.237355e+002, 2.084923e-001
9.256640e+002, 2.101603e-001
9.275925e+002, 2.119151e-001
9.295209e+002, 2.137284e-001
9.314494e+002, 2.151535e-001
9.333779e+002, 2.161728e-001
9.353063e+002, 2.169812e-001
9.372348e+002, 2.173596e-001
9.391633e+002, 2.171178e-001
9.410917e+002, 2.162313e-001
9.430202e+002, 2.148647e-001
9.449487e+002, 2.127156e-001
9.468771e+002, 2.100536e-001
9.488056e+002, 2.070574e-001
9.507341e+002, 2.038358e-001
9.526625e+002, 2.001065e-001
9.545910e+002, 1.960768e-001
9.565195e+002, 1.922555e-001
9.584479e+002, 1.885774e-001
9.603764e+002, 1.847237e-001
9.623049e+002, 1.809117e-001
9.642333e+002, 1.774034e-001
9.661618e+002, 1.740010e-001
9.680903e+002, 1.706842e-001
9.700187e+002, 1.677543e-001
9.719472e+002, 1.650898e-001
9.738757e+002, 1.624994e-001
9.758041e+002, 1.600819e-001
9.777326e+002, 1.579547e-001
9.796611e+002, 1.559791e-001
9.815895e+002, 1.542533e-001
9.835180e+002, 1.528018e-001
9.854465e+002, 1.514241e-001
9.873749e+002, 1.500618e-001
9.893034e+002, 1.488726e-001
9.912319e+002, 1.477516e-001
9.931603e+002, 1.466202e-001
9.950888e+002, 1.456312e-001
9.970173e+002, 1.447650e-001
9.989457e+002, 1.436619e-001
1.000874e+003, 1.425988e-001
1.002803e+003, 1.417213e-001
1.004731e+003, 1.407059e-001
1.006660e+003, 1.395610e-001
1.008588e+003, 1.385148e-001
1.010517e+003, 1.373730e-001
1.012445e+003, 1.363219e-001
1.014373e+003, 1.354160e-001
1.016302e+003, 1.345888e-001
1.018230e+003, 1.335490e-001
1.020159e+003, 1.324585e-001
1.022087e+003, 1.315735e-001
1.024016e+003, 1.308916e-001
1.025944e+003, 1.303939e-001
1.027873e+003, 1.299464e-001
1.029801e+003, 1.296454e-001
1.031730e+003, 1.295950e-001
1.033658e+003, 1.296203e-001
1.035587e+003, 1.297793e-001
1.037515e+003, 1.299711e-001
1.039443e+003, 1.304089e-001
1.041372e+003, 1.310088e-001
1.043300e+003, 1.316711e-001
1.045229e+003, 1.324116e-001
1.047157e+003, 1.334100e-001
1.049086e+003, 1.344605e-001
1.051014e+003, 1.356374e-001
1.052943e+003, 1.369015e-001
1.054871e+003, 1.379715e-001
1.056800e+003, 1.389017e-001
1.058728e+003, 1.396081e-001
1.060657e+003, 1.400455e-001
1.062585e+003, 1.401564e-001
1.064514e+003, 1.399414e-001
1.066442e+003, 1.396354e-001
1.068370e+003, 1.389736e-001
1.070299e+003, 1.380220e-001
1.072227e+003, 1.370361e-001
1.074156e+003, 1.360471e-001
1.076084e+003, 1.349109e-001
1.078013e+003, 1.335959e-001
1.079941e+003, 1.321527e-001
1.081870e+003, 1.305348e-001
1.083798e+003, 1.289525e-001
1.085727e+003, 1.273437e-001
1.087655e+003, 1.257148e-001
1.089584e+003, 1.240280e-001
1.091512e+003, 1.222148e-001
1.093441e+003, 1.203583e-001
1.095369e+003, 1.184513e-001
1.097297e+003, 1.161605e-001
1.099226e+003, 1.136869e-001
1.101154e+003, 1.109621e-001
1.103083e+003, 1.080088e-001
1.105011e+003, 1.046364e-001
1.106940e+003, 1.010140e-001
1.108868e+003, 9.734363e-002
1.110797e+003, 9.354202e-002
1.112725e+003, 8.965048e-002
1.114654e+003, 8.579996e-002
1.116582e+003, 8.191184e-002
1.118511e+003, 7.797264e-002
1.120439e+003, 7.418210e-002
1.122368e+003, 7.072783e-002
1.124296e+003, 6.759996e-002
1.126224e+003, 6.455951e-002
1.128153e+003, 6.185969e-002
1.130081e+003, 5.948234e-002
1.132010e+003, 5.743331e-002
1.133938e+003, 5.547062e-002
1.135867e+003, 5.365240e-002
1.137795e+003, 5.216236e-002
1.139724e+003, 5.080156e-002
1.141652e+003, 4.931656e-002
1.143581e+003, 4.794250e-002
1.145509e+003, 4.679231e-002
1.147438e+003, 4.573181e-002
1.149366e+003, 4.466187e-002
1.151295e+003, 4.350569e-002
1.153223e+003, 4.242423e-002
1.155151e+003, 4.150248e-002
1.157080e+003, 4.051609e-002
1.159008e+003, 3.967214e-002
1.160937e+003, 3.887090e-002
1.162865e+003, 3.804308e-002
1.164794e+003, 3.726643e-002
1.166722e+003, 3.650577e-002
1.168651e+003, 3.565552e-002
1.170579e+003, 3.473354e-002
1.172508e+003, 3.385781e-002
1.174436e+003, 3.307769e-002
1.176365e+003, 3.231128e-002
1.178293e+003, 3.161252e-002
1.180222e+003, 3.085976e-002
1.182150e+003, 3.010939e-002
1.184078e+003, 2.946454e-002
1.186007e+003, 2.887297e-002
1.187935e+003, 2.830519e-002
1.189864e+003, 2.770475e-002
1.191792e+003, 2.700424e-002
1.193721e+003, 2.627601e-002
1.195649e+003, 2.561431e-002
1.197578e+003, 2.492087e-002
1.199506e+003, 2.417389e-002
1.201435e+003, 2.343585e-002
1.203363e+003, 2.277943e-002
1.205292e+003, 2.210134e-002
1.207220e+003, 2.130712e-002
1.209149e+003, 2.056388e-002
1.211077e+003, 1.990428e-002
1.213005e+003, 1.935004e-002
1.214934e+003, 1.880109e-002
1.216862e+003, 1.827493e-002
1.218791e+003, 1.768430e-002
1.220719e+003, 1.710246e-002
1.222648e+003, 1.666472e-002
1.224576e+003, 1.636009e-002
1.226505e+003, 1.600290e-002
1.228433e+003, 1.548914e-002
1.230362e+003, 1.514029e-002
1.232290e+003, 1.483926e-002
1.234219e+003, 1.443947e-002
1.236147e+003, 1.393486e-002
1.238076e+003, 1.336569e-002
1.240004e+003, 1.300402e-002
1.241932e+003, 1.271083e-002
1.243861e+003, 1.234869e-002
1.245789e+003, 1.190398e-002
1.247718e+003, 1.141437e-002
1.249646e+003, 1.095564e-002
1.251575e+003, 1.054618e-002
1.253503e+003, 1.012342e-002
1.255432e+003, 9.874489e-003
1.257360e+003, 9.612750e-003
1.259289e+003, 9.231638e-003
1.261217e+003, 9.009353e-003
1.263146e+003, 8.867555e-003
1.265074e+003, 8.693003e-003
1.267003e+003, 8.474370e-003
1.268931e+003, 8.340154e-003
1.270859e+003, 8.173731e-003
1.272788e+003, 7.847036e-003
1.274716e+003, 7.683950e-003
1.276645e+003, 7.530081e-003
1.278573e+003, 7.248356e-003
1.280502e+003, 7.061634e-003
1.282430e+003, 6.950320e-003
1.284359e+003, 6.752340e-003
1.286287e+003, 6.579944e-003
1.288216e+003, 6.458226e-003
1.290144e+003, 6.421149e-003
1.292073e+003, 6.455994e-003
1.294001e+003, 6.441256e-003
1.295930e+003, 6.417803e-003
1.297858e+003, 6.423134e-003
1.299786e+003, 6.423966e-003
1.301715e+003, 6.389961e-003
1.303643e+003, 6.377017e-003
1.305572e+003, 6.437945e-003
1.307500e+003, 6.419237e-003
1.309429e+003, 6.485488e-003
1.311357e+003, 6.513851e-003
1.313286e+003, 6.510754e-003
1.315214e+003, 6.589655e-003
1.317143e+003, 6.595255e-003
1.319071e+003, 6.590409e-003
1.321000e+003, 6.565288e-003
1.322928e+003, 6.492099e-003
1.324857e+003, 6.514483e-003
1.326785e+003, 6.538905e-003
1.328714e+003, 6.417333e-003
1.330642e+003, 6.418131e-003
1.332570e+003, 6.591845e-003
1.334499e+003, 6.702066e-003
1.336427e+003, 6.746470e-003
1.338356e+003, 6.673527e-003
1.340284e+003, 6.755023e-003
1.342213e+003, 6.797542e-003
1.344141e+003, 6.773245e-003
1.346070e+003, 6.782240e-003
1.347998e+003, 6.886088e-003
1.349927e+003, 6.907525e-003
1.351855e+003, 6.950344e-003
1.353784e+003, 7.120191e-003
1.355712e+003, 7.335110e-003
1.357641e+003, 7.446669e-003
1.359569e+003, 7.624561e-003
1.361497e+003, 7.785240e-003
1.363426e+003, 7.885305e-003
1.365354e+003, 7.945378e-003
1.367283e+003, 8.046554e-003
1.369211e+003, 8.204526e-003
1.371140e+003, 8.319133e-003
1.373068e+003, 8.360868e-003
1.374997e+003, 8.389614e-003
1.376925e+003, 8.373342e-003
1.378854e+003, 8.539279e-003
1.380782e+003, 8.681271e-003
1.382711e+003, 8.763450e-003
1.384639e+003, 8.903708e-003
1.386568e+003, 9.082593e-003
1.388496e+003, 9.129182e-003
1.390424e+003, 9.249449e-003
1.392353e+003, 9.370595e-003
1.394281e+003, 9.451518e-003
1.396210e+003, 9.432027e-003
1.398138e+003, 9.426516e-003
1.400067e+003, 9.462606e-003
1.401995e+003, 9.559583e-003
1.403924e+003, 9.777565e-003
1.405852e+003, 9.769269e-003
1.407781e+003, 9.702999e-003
1.409709e+003, 9.824739e-003
1.411638e+003, 9.966856e-003
1.413566e+003, 9.996991e-003
1.415495e+003, 1.002064e-002
1.417423e+003, 1.014443e-002
1.419351e+003, 1.024219e-002
1.421280e+003, 1.017615e-002
1.423208e+003, 1.016460e-002
1.425137e+003, 1.015922e-002
1.427065e+003, 1.018450e-002
1.428994e+003, 1.037942e-002
1.430922e+003, 1.041464e-002
1.432851e+003, 1.049941e-002
1.434779e+003, 1.067282e-002
1.436708e+003, 1.070184e-002
1.438636e+003, 1.040743e-002
1.440565e+003, 1.026605e-002
1.442493e+003, 1.037337e-002
1.444422e+003, 1.036685e-002
1.446350e+003, 1.028725e-002
1.448278e+003, 1.035185e-002
1.450207e+003, 1.029519e-002
1.452135e+003, 1.021616e-002
1.454064e+003, 1.026357e-002
1.455992e+003, 1.041331e-002
1.457921e+003, 1.028411e-002
1.459849e+003, 9.983153e-003
1.461778e+003, 9.788737e-003
1.463706e+003, 9.762595e-003
1.465635e+003, 9.709923e-003
1.467563e+003, 9.529874e-003
1.469492e+003, 9.400468e-003
1.471420e+003, 9.471586e-003
1.473349e+003, 9.472356e-003
1.475277e+003, 9.365550e-003
1.477205e+003, 9.373224e-003
1.479134e+003, 9.355623e-003
1.481062e+003, 9.304089e-003
1.482991e+003, 9.343722e-003
1.484919e+003, 9.299016e-003
1.486848e+003, 9.262663e-003
1.488776e+003, 9.303202e-003
1.490705e+003, 9.467951e-003
1.492633e+003, 9.393385e-003
1.494562e+003, 9.410193e-003
1.496490e+003, 9.528497e-003
1.498419e+003, 9.586927e-003
1.500347e+003, 9.521073e-003
1.502276e+003, 9.511592e-003
1.504204e+003, 9.844711e-003
1.506132e+003, 1.037905e-002
1.508061e+003, 1.038234e-002
1.509989e+003, 1.004426e-002
1.511918e+003, 9.937358e-003
1.513846e+003, 1.007104e-002
1.515775e+003, 1.032846e-002
1.517703e+003, 1.046722e-002
1.519632e+003, 1.063248e-002
1.521560e+003, 1.060176e-002
1.523489e+003, 1.043702e-002
1.525417e+003, 1.057722e-002
1.527346e+003, 1.068023e-002
1.529274e+003, 1.069850e-002
1.531203e+003, 1.076726e-002
1.533131e+003, 1.095411e-002
1.535059e+003, 1.087410e-002
1.536988e+003, 1.107026e-002
1.538916e+003, 1.174454e-002
1.540845e+003, 1.187914e-002
1.542773e+003, 1.158900e-002
1.544702e+003, 1.144384e-002
1.546630e+003, 1.133251e-002
1.548559e+003, 1.134701e-002
1.550487e+003, 1.137979e-002
1.552416e+003, 1.147692e-002
1.554344e+003, 1.150003e-002
1.556273e+003, 1.153030e-002
1.558201e+003, 1.195593e-002
1.560130e+003, 1.177592e-002
1.562058e+003, 1.118468e-002
1.563986e+003, 1.093402e-002
1.565915e+003, 1.088133e-002
1.567843e+003, 1.091844e-002
1.569772e+003, 1.099011e-002
1.571700e+003, 1.098377e-002
1.573629e+003, 1.104234e-002
1.575557e+003, 1.126255e-002
1.577486e+003, 1.117528e-002
1.579414e+003, 1.100173e-002
1.581343e+003, 1.095133e-002
1.583271e+003, 1.080783e-002
1.585200e+003, 1.068927e-002
1.587128e+003, 1.064587e-002
1.589057e+003, 1.066854e-002
1.590985e+003, 1.074841e-002
1.592913e+003, 1.077747e-002
1.594842e+003, 1.075284e-002
1.596770e+003, 1.062265e-002
1.598699e+003, 1.064333e-002
1.600627e+003, 1.076917e-002
1.602556e+003, 1.071829e-002
1.604484e+003, 1.074723e-002
1.606413e+003, 1.081171e-002
1.608341e+003, 1.079682e-002
1.610270e+003, 1.076339e-002
1.612198e+003, 1.074601e-002
1.614127e+003, 1.078210e-002
1.616055e+003, 1.123307e-002
1.617984e+003, 1.139079e-002
1.619912e+003, 1.122165e-002
1.621840e+003, 1.133423e-002
1.623769e+003, 1.139265e-002
1.625697e+003, 1.139298e-002
1.627626e+003, 1.147644e-002
1.629554e+003, 1.169432e-002
1.631483e+003, 1.186398e-002
1.633411e+003, 1.214944e-002
1.635340e+003, 1.248775e-002
1.637268e+003, 1.249154e-002
1.639197e+003, 1.230801e-002
1.641125e+003, 1.218657e-002
1.643054e+003, 1.219059e-002
1.644982e+003, 1.244645e-002
1.646911e+003, 1.252052e-002
1.648839e+003, 1.235062e-002
1.650767e+003, 1.244587e-002
1.652696e+003, 1.266364e-002
1.654624e+003, 1.214957e-002
1.656553e+003, 1.164548e-002
1.658481e+003, 1.138063e-002
1.660410e+003, 1.116239e-002
1.662338e+003, 1.111836e-002
1.664267e+003, 1.085456e-002
1.666195e+003, 1.059448e-002
1.668124e+003, 1.060321e-002
1.670052e+003, 1.041015e-002
1.671981e+003, 9.913176e-003
1.673909e+003, 9.781923e-003
1.675838e+003, 9.738828e-003
1.677766e+003, 9.385268e-003
1.679694e+003, 9.114115e-003
1.681623e+003, 8.929168e-003
1.683551e+003, 9.264461e-003
1.685480e+003, 9.233051e-003
1.687408e+003, 8.733926e-003
1.689337e+003, 8.567818e-003
1.691265e+003, 8.510812e-003
1.693194e+003, 8.485499e-003
1.695122e+003, 8.783117e-003
1.697051e+003, 8.688070e-003
1.698979e+003, 8.539150e-003
1.700908e+003, 8.422568e-003
1.702836e+003, 8.121729e-003
1.704765e+003, 8.157254e-003
1.706693e+003, 8.311666e-003
1.708621e+003, 8.402703e-003
1.710550e+003, 8.595988e-003
1.712478e+003, 9.000994e-003
1.714407e+003, 9.396171e-003
1.716335e+003, 9.920056e-003
1.718264e+003, 1.042928e-002
1.720192e+003, 1.056821e-002
1.722121e+003, 1.057260e-002
1.724049e+003, 1.058461e-002
1.725978e+003, 1.072337e-002
1.727906e+003, 1.071021e-002
1.729835e+003, 1.047789e-002
1.731763e+003, 1.038456e-002
1.733692e+003, 1.016615e-002
1.735620e+003, 9.539400e-003
1.737548e+003, 8.990185e-003
1.739477e+003, 8.513584e-003
1.741405e+003, 7.875806e-003
1.743334e+003, 7.407225e-003
1.745262e+003, 6.885718e-003
1.747191e+003, 6.464471e-003
1.749119e+003, 6.168130e-003
1.751048e+003, 5.875684e-003
1.752976e+003, 5.596096e-003
1.754905e+003, 5.462913e-003
1.756833e+003, 5.457717e-003
1.758762e+003, 5.461361e-003
1.760690e+003, 5.435680e-003
1.762619e+003, 5.453045e-003
1.764547e+003, 5.447646e-003
1.766475e+003, 5.349446e-003
1.768404e+003, 5.305310e-003
1.770332e+003, 5.450088e-003
1.772261e+003, 5.693745e-003
1.774189e+003, 5.562142e-003
1.776118e+003, 5.350615e-003
1.778046e+003, 5.241523e-003
1.779975e+003, 5.327790e-003
1.781903e+003, 5.460736e-003
1.783832e+003, 5.348499e-003
1.785760e+003, 5.299709e-003
1.787689e+003, 5.215739e-003
1.789617e+003, 5.145018e-003
1.791546e+003, 5.311320e-003
1.793474e+003, 5.431205e-003
1.795402e+003, 5.309638e-003
1.797331e+003, 5.253945e-003
1.799259e+003, 5.184321e-003
1.801188e+003, 5.316352e-003
1.803116e+003, 5.234528e-003
1.805045e+003, 4.997279e-003
1.806973e+003, 4.995688e-003
1.808902e+003, 5.213250e-003
1.810830e+003, 5.344389e-003
1.812759e+003, 5.218259e-003
1.814687e+003, 4.817531e-003
1.816616e+003, 4.614955e-003
1.818544e+003, 4.991658e-003
1.820473e+003, 5.220791e-003
1.822401e+003, 5.206871e-003
1.824329e+003, 5.172284e-003
1.826258e+003, 4.993284e-003
1.828186e+003, 5.050373e-003
1.830115e+003, 5.358752e-003
1.832043e+003, 5.234849e-003
1.833972e+003, 5.022020e-003
1.835900e+003, 4.827640e-003
1.837829e+003, 4.818130e-003
1.839757e+003, 4.877831e-003
1.841686e+003, 4.873980e-003
1.843614e+003, 5.111497e-003
1.845543e+003, 5.120536e-003
1.847471e+003, 4.979769e-003
1.849400e+003, 5.053166e-003
1.851328e+003, 4.971957e-003
1.853256e+003, 5.036701e-003
1.855185e+003, 5.372071e-003
1.857113e+003, 5.256251e-003
1.859042e+003, 4.803285e-003
1.860970e+003, 4.612341e-003
1.862899e+003, 4.957259e-003
1.864827e+003, 5.148795e-003
1.866756e+003, 5.239279e-003
1.868684e+003, 5.281086e-003
1.870613e+003, 5.191092e-003
1.872541e+003, 4.943528e-003
1.874470e+003, 4.798851e-003
1.876398e+003, 4.820924e-003
1.878327e+003, 5.049850e-003
1.880255e+003, 4.905414e-003
1.882183e+003, 4.669684e-003
1.884112e+003, 4.902414e-003
1.886040e+003, 5.122718e-003
1.887969e+003, 5.095790e-003
1.889897e+003, 5.393289e-003
1.891826e+003, 5.689974e-003
1.893754e+003, 5.391916e-003
1.895683e+003, 4.802171e-003
1.897611e+003, 4.932604e-003
1.899540e+003, 5.481818e-003
1.901468e+003, 5.591087e-003
1.903397e+003, 5.371379e-003
1.905325e+003, 5.082988e-003
1.907254e+003, 4.834026e-003
1.909182e+003, 4.655682e-003
1.911110e+003, 4.609443e-003
1.913039e+003, 4.845310e-003
1.914967e+003, 5.106542e-003
1.916896e+003, 5.060114e-003
1.918824e+003, 5.323539e-003
1.920753e+003, 5.558413e-003
1.922681e+003, 5.171854e-003
1.924610e+003, 4.882506e-003
1.926538e+003, 4.933757e-003
1.928467e+003, 4.914078e-003
1.930395e+003, 4.793800e-003
1.932324e+003, 4.394299e-003
1.934252e+003, 4.353910e-003
1.936181e+003, 4.370761e-003
1.938109e+003, 4.311856e-003
1.940037e+003, 4.372037e-003
1.941966e+003, 4.427158e-003
1.943894e+003, 4.862498e-003
1.945823e+003, 4.964791e-003
1.947751e+003, 4.418095e-003
1.949680e+003, 4.376040e-003
1.951608e+003, 5.011165e-003
1.953537e+003, 5.424730e-003
1.955465e+003, 4.970949e-003
1.957394e+003, 4.295636e-003
1.959322e+003, 4.246691e-003
1.961251e+003, 4.269680e-003
1.963179e+003, 3.807360e-003
1.965108e+003, 3.182021e-003
1.967036e+003, 3.825838e-003
1.968964e+003, 4.317225e-003
1.970893e+003, 4.518051e-003
1.972821e+003, 4.503349e-003
1.974750e+003, 4.915265e-003
1.976678e+003, 5.948149e-003
1.978607e+003, 7.542488e-003
1.980535e+003, 7.511774e-003
1.982464e+003, 6.613681e-003
1.984392e+003, 5.994072e-003
1.986321e+003, 5.447214e-003
1.988249e+003, 5.157801e-003
1.990178e+003, 4.679006e-003
1.992106e+003, 4.486724e-003
1.994035e+003, 4.755701e-003
1.995963e+003, 4.742146e-003
1.997891e+003, 4.724031e-003
1.999820e+003, 4.834729e-003
2.001748e+003, 4.615787e-003
2.003677e+003, 4.154958e-003
2.005605e+003, 4.232075e-003
2.007534e+003, 5.678845e-003
2.009462e+003, 5.688924e-003
2.011391e+003, 4.600034e-003
2.013319e+003, 5.252969e-003
2.015248e+003, 5.473392e-003
2.017176e+003, 4.994853e-003
2.019105e+003, 4.815560e-003
2.021033e+003, 4.673654e-003
2.022962e+003, 5.135788e-003
2.024890e+003, 5.496813e-003
2.026818e+003, 5.290690e-003
2.028747e+003, 4.619050e-003
2.030675e+003, 4.227034e-003
2.032604e+003, 4.904235e-003
2.034532e+003, 6.169488e-003
2.036461e+003, 6.253617e-003
2.038389e+003, 5.498321e-003
2.040318e+003, 5.664418e-003
2.042246e+003, 6.485325e-003
2.044175e+003, 6.342382e-003
2.046103e+003, 6.011117e-003
2.048031e+003, 6.256551e-003
2.049960e+003, 6.732699e-003
2.051888e+003, 5.663356e-003
2.053817e+003, 4.884458e-003
2.055745e+003, 5.136941e-003
2.057674e+003, 4.909056e-003
2.059602e+003, 4.593332e-003
2.061531e+003, 5.075006e-003
2.063459e+003, 5.443770e-003
2.065388e+003, 5.764943e-003
2.067316e+003, 5.915111e-003
2.069245e+003, 6.018430e-003
2.071173e+003, 6.189104e-003
2.073102e+003, 7.121525e-003
2.075030e+003, 7.553683e-003
2.076958e+003, 6.743851e-003
2.078887e+003, 6.333816e-003
2.080815e+003, 6.605166e-003
2.082744e+003, 6.437862e-003
2.084672e+003, 5.901154e-003
2.086601e+003, 5.408489e-003
2.088529e+003, 5.609546e-003
2.090458e+003, 5.908329e-003
2.092386e+003, 5.153405e-003
2.094315e+003, 5.300044e-003
2.096243e+003, 5.627189e-003
2.098172e+003, 5.207437e-003
2.100100e+003, 5.255124e-003
2.102029e+003, 6.018639e-003
2.103957e+003, 6.782913e-003
2.105885e+003, 6.673992e-003
2.107814e+003, 6.199163e-003
2.109742e+003, 5.808615e-003
2.111671e+003, 5.633403e-003
2.113599e+003, 5.419644e-003
2.115528e+003, 5.225275e-003
2.117456e+003, 5.461999e-003
2.119385e+003, 5.524124e-003
2.121313e+003, 5.041023e-003
2.123242e+003, 4.273969e-003
2.125170e+003, 3.605829e-003
2.127099e+003, 3.723731e-003
2.129027e+003, 4.009684e-003
2.130956e+003, 3.331729e-003
2.132884e+003, 3.011874e-003
2.134813e+003, 3.302762e-003
2.136741e+003, 3.790656e-003
2.138669e+003, 3.995889e-003
2.140598e+003, 3.151287e-003
2.142526e+003, 2.884981e-003
2.144455e+003, 2.975036e-003
2.146383e+003, 3.076316e-003
2.148312e+003, 3.195284e-003
2.150240e+003, 3.539368e-003
2.152169e+003, 2.446495e-003
2.154097e+003, 2.856822e-004
2.156026e+003, -7.460853e-004
2.157954e+003, 2.185494e-003
2.159883e+003, 6.307340e-003
2.161811e+003, 7.660429e-003
2.163740e+003, 7.834462e-003
2.165668e+003, 6.436721e-003
2.167596e+003, 5.385810e-003
2.169525e+003, 5.365659e-003
2.171453e+003, 5.836687e-003
2.173382e+003, 5.965929e-003
2.175310e+003, 5.542500e-003
2.177239e+003, 5.497490e-003
2.179167e+003, 5.587699e-003
2.181096e+003, 6.448740e-003
2.183024e+003, 7.185611e-003
2.184953e+003, 6.926687e-003
2.186881e+003, 7.251533e-003
2.188810e+003, 7.513084e-003
2.190738e+003, 7.504925e-003
2.192667e+003, 7.652284e-003
2.194595e+003, 6.720325e-003
2.196523e+003, 6.648249e-003
2.198452e+003, 7.235659e-003
2.200380e+003, 6.737014e-003
2.202309e+003, 5.749587e-003
2.204237e+003, 5.827513e-003
2.206166e+003, 6.307686e-003
2.208094e+003, 6.974109e-003
2.210023e+003, 7.723560e-003
2.211951e+003, 8.300033e-003
2.213880e+003, 7.707461e-003
2.215808e+003, 7.506748e-003
2.217737e+003, 7.432636e-003
2.219665e+003, 7.319038e-003
2.221594e+003, 7.331331e-003
2.223522e+003, 7.971211e-003
2.225450e+003, 8.330308e-003
2.227379e+003, 8.257580e-003
2.229307e+003, 8.850471e-003
2.231236e+003, 9.125262e-003
2.233164e+003, 9.717283e-003
2.235093e+003, 9.290939e-003
2.237021e+003, 8.323230e-003
2.238950e+003, 8.391988e-003
2.240878e+003, 8.689394e-003
2.242807e+003, 8.993688e-003
2.244735e+003, 9.173715e-003
2.246664e+003, 9.340240e-003
2.248592e+003, 9.429275e-003
2.250521e+003, 8.934763e-003
2.252449e+003, 8.758811e-003
2.254377e+003, 9.678617e-003
2.256306e+003, 1.059978e-002
2.258234e+003, 9.950251e-003
2.260163e+003, 9.250295e-003
2.262091e+003, 9.515776e-003
2.264020e+003, 9.634105e-003
2.265948e+003, 9.475825e-003
2.267877e+003, 9.566897e-003
2.269805e+003, 9.813366e-003
2.271734e+003, 9.891573e-003
2.273662e+003, 9.604539e-003
2.275591e+003, 9.979655e-003
2.277519e+003, 1.034470e-002
2.279448e+003, 1.019251e-002
2.281376e+003, 1.013721e-002
2.283304e+003, 1.050049e-002
2.285233e+003, 1.066189e-002
2.287161e+003, 1.089214e-002
2.289090e+003, 1.096489e-002
2.291018e+003, 1.097528e-002
2.292947e+003, 1.078374e-002
2.294875e+003, 1.052251e-002
2.296804e+003, 1.017478e-002
2.298732e+003, 1.012046e-002
2.300661e+003, 1.040098e-002
2.302589e+003, 1.021066e-002
2.304518e+003, 1.028509e-002
2.306446e+003, 1.069482e-002
2.308375e+003, 1.098690e-002
2.310303e+003, 1.088200e-002
2.312231e+003, 1.072095e-002
2.314160e+003, 1.061752e-002
2.316088e+003, 1.048150e-002
2.318017e+003, 1.088946e-002
2.319945e+003, 1.132272e-002
2.321874e+003, 1.150059e-002
2.323802e+003, 1.159153e-002
2.325731e+003, 1.098085e-002
2.327659e+003, 1.038378e-002
2.329588e+003, 1.042646e-002
2.331516e+003, 1.044274e-002
2.333445e+003, 1.016441e-002
2.335373e+003, 1.013780e-002
2.337302e+003, 1.024317e-002
2.339230e+003, 1.028529e-002
2.341158e+003, 1.009992e-002
2.343087e+003, 1.001572e-002
2.345015e+003, 9.895517e-003
2.346944e+003, 1.011388e-002
2.348872e+003, 9.998166e-003
2.350801e+003, 9.651214e-003
2.352729e+003, 9.846444e-003
2.354658e+003, 1.017904e-002
2.356586e+003, 1.025410e-002
2.358515e+003, 1.014986e-002
2.360443e+003, 9.919239e-003
2.362372e+003, 9.987807e-003
2.364300e+003, 1.013393e-002
2.366229e+003, 9.977117e-003
2.368157e+003, 9.843908e-003
2.370085e+003, 9.599510e-003
2.372014e+003, 9.520615e-003
2.373942e+003, 9.718033e-003
2.375871e+003, 9.780602e-003
2.377799e+003, 9.594968e-003
2.379728e+003, 9.380569e-003
2.381656e+003, 9.265781e-003
2.383585e+003, 9.278066e-003
2.385513e+003, 9.244261e-003
2.387442e+003, 9.122282e-003
2.389370e+003, 9.251539e-003
2.391299e+003, 9.367573e-003
2.393227e+003, 9.542774e-003
2.395156e+003, 9.587067e-003
2.397084e+003, 9.327485e-003
2.399012e+003, 9.268503e-003
2.400941e+003, 9.681042e-003
2.402869e+003, 9.964247e-003
2.404798e+003, 1.001287e-002
2.406726e+003, 1.016293e-002
2.408655e+003, 1.015593e-002
2.410583e+003, 9.981800e-003
2.412512e+003, 1.002182e-002
2.414440e+003, 9.939943e-003
2.416369e+003, 9.853724e-003
2.418297e+003, 9.864742e-003
2.420226e+003, 9.713638e-003
2.422154e+003, 1.002963e-002
2.424083e+003, 1.017240e-002
2.426011e+003, 1.026060e-002
2.427939e+003, 1.044497e-002
2.429868e+003, 1.066494e-002
2.431796e+003, 1.048663e-002
2.433725e+003, 1.085996e-002
2.435653e+003, 1.087378e-002
2.437582e+003, 1.042291e-002
2.439510e+003, 1.037099e-002
2.441439e+003, 1.041604e-002
2.443367e+003, 1.071536e-002
2.445296e+003, 1.105624e-002
2.447224e+003, 1.092003e-002
2.449153e+003, 1.096012e-002
2.451081e+003, 1.114288e-002
2.453010e+003, 1.097196e-002
2.454938e+003, 1.079454e-002
2.456866e+003, 1.063338e-002
2.458795e+003, 1.094417e-002
2.460723e+003, 1.107097e-002
2.462652e+003, 1.090627e-002
2.464580e+003, 1.075048e-002
2.466509e+003, 1.045969e-002
2.468437e+003, 1.041419e-002
2.470366e+003, 1.076679e-002
2.472294e+003, 1.104771e-002
2.474223e+003, 1.060566e-002
2.476151e+003, 1.033515e-002
2.478080e+003, 1.061365e-002
2.480008e+003, 1.081380e-002
2.481937e+003, 1.092820e-002
2.483865e+003, 1.104952e-002
2.485793e+003, 1.070068e-002
2.487722e+003, 1.054782e-002
2.489650e+003, 1.091217e-002
2.491579e+003, 1.095223e-002
2.493507e+003, 1.096162e-002
2.495436e+003, 1.123516e-002
2.497364e+003, 1.121299e-002
2.499293e+003, 1.080872e-002
2.501221e+003, 1.091567e-002
2.503150e+003, 1.096941e-002
2.505078e+003, 1.101568e-002
2.507007e+003, 1.126300e-002
2.508935e+003, 1.153746e-002
2.510864e+003, 1.215499e-002
2.512792e+003, 1.236691e-002
2.514720e+003, 1.190735e-002
2.516649e+003, 1.129739e-002
2.518577e+003, 1.105084e-002
2.520506e+003, 1.137276e-002
2.522434e+003, 1.135697e-002
2.524363e+003, 1.144264e-002
2.526291e+003, 1.150442e-002
2.528220e+003, 1.118124e-002
2.530148e+003, 1.107883e-002
2.532077e+003, 1.136783e-002
2.534005e+003, 1.157586e-002
2.535934e+003, 1.174619e-002
2.537862e+003, 1.169427e-002
2.539791e+003, 1.153256e-002
2.541719e+003, 1.163910e-002
2.543647e+003, 1.169691e-002
2.545576e+003, 1.171251e-002
2.547504e+003, 1.166935e-002
2.549433e+003, 1.153196e-002
2.551361e+003, 1.174759e-002
2.553290e+003, 1.206603e-002
2.555218e+003, 1.225448e-002
2.557147e+003, 1.195476e-002
2.559075e+003, 1.172441e-002
2.561004e+003, 1.194628e-002
2.562932e+003, 1.201434e-002
2.564861e+003, 1.200602e-002
2.566789e+003, 1.203302e-002
2.568718e+003, 1.215262e-002
2.570646e+003, 1.186901e-002
2.572574e+003, 1.168875e-002
2.574503e+003, 1.190950e-002
2.576431e+003, 1.237684e-002
2.578360e+003, 1.278180e-002
2.580288e+003, 1.270610e-002
2.582217e+003, 1.259463e-002
2.584145e+003, 1.247987e-002
2.586074e+003, 1.233687e-002
2.588002e+003, 1.244031e-002
2.589931e+003, 1.243076e-002
2.591859e+003, 1.246572e-002
2.593788e+003, 1.289497e-002
2.595716e+003, 1.318359e-002
2.597645e+003, 1.305031e-002
2.599573e+003, 1.306994e-002
2.601501e+003, 1.320957e-002
2.603430e+003, 1.326789e-002
2.605358e+003, 1.331528e-002
2.607287e+003, 1.322365e-002
2.609215e+003, 1.310189e-002
2.611144e+003, 1.325906e-002
2.613072e+003, 1.351249e-002
2.615001e+003, 1.338060e-002
2.616929e+003, 1.343855e-002
2.618858e+003, 1.380456e-002
2.620786e+003, 1.390139e-002
2.622715e+003, 1.357466e-002
2.624643e+003, 1.325739e-002
2.626572e+003, 1.363681e-002
2.628500e+003, 1.394487e-002
2.630428e+003, 1.368612e-002
2.632357e+003, 1.343605e-002
2.634285e+003, 1.376803e-002
2.636214e+003, 1.392036e-002
2.638142e+003, 1.379588e-002
2.640071e+003, 1.379366e-002
2.641999e+003, 1.375394e-002
2.643928e+003, 1.362214e-002
2.645856e+003, 1.348437e-002
2.647785e+003, 1.348302e-002
2.649713e+003, 1.340596e-002
2.651642e+003, 1.364303e-002
2.653570e+003, 1.386668e-002
2.655499e+003, 1.373144e-002
2.657427e+003, 1.363698e-002
2.659355e+003, 1.361647e-002
2.661284e+003, 1.339947e-002
2.663212e+003, 1.338168e-002
2.665141e+003, 1.327516e-002
2.667069e+003, 1.313746e-002
2.668998e+003, 1.303900e-002
2.670926e+003, 1.308020e-002
2.672855e+003, 1.329916e-002
2.674783e+003, 1.346170e-002
2.676712e+003, 1.347518e-002
2.678640e+003, 1.352179e-002
2.680569e+003, 1.361338e-002
2.682497e+003, 1.366643e-002
2.684426e+003, 1.360840e-002
2.686354e+003, 1.361467e-002
2.688282e+003, 1.364301e-002
2.690211e+003, 1.390399e-002
2.692139e+003, 1.395394e-002
2.694068e+003, 1.368050e-002
2.695996e+003, 1.371171e-002
2.697925e+003, 1.388614e-002
2.699853e+003, 1.409641e-002
2.701782e+003, 1.423587e-002
2.703710e+003, 1.433481e-002
2.705639e+003, 1.443760e-002
2.707567e+003, 1.427353e-002
2.709496e+003, 1.415457e-002
2.711424e+003, 1.402190e-002
2.713353e+003, 1.403796e-002
2.715281e+003, 1.418097e-002
2.717209e+003, 1.436674e-002
2.719138e+003, 1.450535e-002
2.721066e+003, 1.451144e-002
2.722995e+003, 1.461252e-002
2.724923e+003, 1.465303e-002
2.726852e+003, 1.465782e-002
2.728780e+003, 1.448356e-002
2.730709e+003, 1.448372e-002
2.732637e+003, 1.478802e-002
2.734566e+003, 1.479341e-002
2.736494e+003, 1.479861e-002
2.738423e+003, 1.477964e-002
2.740351e+003, 1.488723e-002
2.742280e+003, 1.515636e-002
2.744208e+003, 1.487844e-002
2.746136e+003, 1.470879e-002
2.748065e+003, 1.524284e-002
2.749993e+003, 1.520103e-002
2.751922e+003, 1.513264e-002
2.753850e+003, 1.516061e-002
2.755779e+003, 1.531161e-002
2.757707e+003, 1.531261e-002
2.759636e+003, 1.550412e-002
2.761564e+003, 1.546054e-002
2.763493e+003, 1.533546e-002
2.765421e+003, 1.533039e-002
2.767350e+003, 1.561304e-002
2.769278e+003, 1.614710e-002
2.771207e+003, 1.625290e-002
2.773135e+003, 1.591547e-002
2.775063e+003, 1.565982e-002
2.776992e+003, 1.561384e-002
2.778920e+003, 1.561731e-002
2.780849e+003, 1.559968e-002
2.782777e+003, 1.585664e-002
2.784706e+003, 1.606060e-002
2.786634e+003, 1.616988e-002
2.788563e+003, 1.627827e-002
2.790491e+003, 1.635195e-002
2.792420e+003, 1.613219e-002
2.794348e+003, 1.606668e-002
2.796277e+003, 1.619926e-002
2.798205e+003, 1.613686e-002
2.800134e+003, 1.617168e-002
2.802062e+003, 1.632000e-002
2.803990e+003, 1.621100e-002
2.805919e+003, 1.640805e-002
2.807847e+003, 1.688647e-002
2.809776e+003, 1.693733e-002
2.811704e+003, 1.673964e-002
2.813633e+003, 1.682428e-002
2.815561e+003, 1.705195e-002
2.817490e+003, 1.705710e-002
2.819418e+003, 1.716076e-002
2.821347e+003, 1.748046e-002
2.823275e+003, 1.753416e-002
2.825204e+003, 1.757491e-002
2.827132e+003, 1.759831e-002
2.829061e+003, 1.766062e-002
2.830989e+003, 1.802556e-002
2.832917e+003, 1.818301e-002
2.834846e+003, 1.802638e-002
2.836774e+003, 1.814910e-002
2.838703e+003, 1.844516e-002
2.840631e+003, 1.872074e-002
2.842560e+003, 1.879733e-002
2.844488e+003, 1.891698e-002
2.846417e+003, 1.916043e-002
2.848345e+003, 1.943224e-002
2.850274e+003, 1.964314e-002
2.852202e+003, 1.958288e-002
2.854131e+003, 1.968135e-002
2.856059e+003, 1.961840e-002
2.857988e+003, 1.939645e-002
2.859916e+003, 1.959137e-002
2.861844e+003, 1.993080e-002
2.863773e+003, 1.997933e-002
2.865701e+003, 2.010433e-002
2.867630e+003, 2.023539e-002
2.869558e+003, 2.010801e-002
2.871487e+003, 2.005761e-002
2.873415e+003, 1.990352e-002
2.875344e+003, 1.992472e-002
2.877272e+003, 2.024878e-002
2.879201e+003, 2.023394e-002
2.881129e+003, 2.020423e-002
2.883058e+003, 2.014183e-002
2.884986e+003, 2.019746e-002
2.886915e+003, 2.039733e-002
2.888843e+003, 2.030423e-002
2.890771e+003, 2.019884e-002
2.892700e+003, 2.041921e-002
2.894628e+003, 2.076762e-002
2.896557e+003, 2.124043e-002
2.898485e+003, 2.150786e-002
2.900414e+003, 2.147535e-002
2.902342e+003, 2.163734e-002
2.904271e+003, 2.179524e-002
2.906199e+003, 2.209338e-002
2.908128e+003, 2.242726e-002
2.910056e+003, 2.237972e-002
2.911985e+003, 2.226570e-002
2.913913e+003, 2.239120e-002
2.915842e+003, 2.264264e-002
2.917770e+003, 2.265732e-002
2.919698e+003, 2.281048e-002
2.921627e+003, 2.324046e-002
2.923555e+003, 2.360037e-002
2.925484e+003, 2.389633e-002
2.927412e+003, 2.400756e-002
2.929341e+003, 2.390627e-002
2.931269e+003, 2.366363e-002
2.933198e+003, 2.357217e-002
2.935126e+003, 2.333923e-002
2.937055e+003, 2.289832e-002
2.938983e+003, 2.302440e-002
2.940912e+003, 2.332191e-002
2.942840e+003, 2.340841e-002
2.944769e+003, 2.367241e-002
2.946697e+003, 2.379215e-002
2.948625e+003, 2.355842e-002
2.950554e+003, 2.357094e-002
2.952482e+003, 2.382113e-002
2.954411e+003, 2.415625e-002
2.956339e+003, 2.424528e-002
2.958268e+003, 2.386151e-002
2.960196e+003, 2.354687e-002
2.962125e+003, 2.347175e-002
2.964053e+003, 2.353224e-002
2.965982e+003, 2.322911e-002
2.967910e+003, 2.275548e-002
2.969839e+003, 2.270927e-002
2.971767e+003, 2.279487e-002
2.973696e+003, 2.267228e-002
2.975624e+003, 2.241328e-002
2.977552e+003, 2.220206e-002
2.979481e+003, 2.204341e-002
2.981409e+003, 2.217796e-002
2.983338e+003, 2.261039e-002
2.985266e+003, 2.249165e-002
2.987195e+003, 2.193880e-002
2.989123e+003, 2.184821e-002
2.991052e+003, 2.195564e-002
2.992980e+003, 2.221551e-002
2.994909e+003, 2.200918e-002
2.996837e+003, 2.180028e-002
2.998766e+003, 2.198780e-002
3.000694e+003, 2.212875e-002
3.002623e+003, 2.225186e-002
3.004551e+003, 2.239092e-002
3.006479e+003, 2.235472e-002
3.008408e+003, 2.219141e-002
3.010336e+003, 2.224490e-002
3.012265e+003, 2.234474e-002
3.014193e+003, 2.257718e-002
3.016122e+003, 2.262813e-002
3.018050e+003, 2.279695e-002
3.019979e+003, 2.284848e-002
3.021907e+003, 2.280938e-002
3.023836e+003, 2.273239e-002
3.025764e+003, 2.281003e-002
3.027693e+003, 2.326765e-002
3.029621e+003, 2.338128e-002
3.031550e+003, 2.303149e-002
3.033478e+003, 2.315733e-002
3.035406e+003, 2.317318e-002
3.037335e+003, 2.313843e-002
3.039263e+003, 2.280974e-002
3.041192e+003, 2.267341e-002
3.043120e+003, 2.316331e-002
3.045049e+003, 2.334137e-002
3.046977e+003, 2.363896e-002
3.048906e+003, 2.383618e-002
3.050834e+003, 2.385660e-002
3.052763e+003, 2.388075e-002
3.054691e+003, 2.392314e-002
3.056620e+003, 2.406540e-002
3.058548e+003, 2.434624e-002
3.060477e+003, 2.463407e-002
3.062405e+003, 2.457796e-002
3.064333e+003, 2.450863e-002
3.066262e+003, 2.451247e-002
3.068190e+003, 2.467224e-002
3.070119e+003, 2.442870e-002
3.072047e+003, 2.464094e-002
3.073976e+003, 2.489827e-002
3.075904e+003, 2.474507e-002
3.077833e+003, 2.472256e-002
3.079761e+003, 2.503798e-002
3.081690e+003, 2.501059e-002
3.083618e+003, 2.498387e-002
3.085547e+003, 2.540516e-002
3.087475e+003, 2.550153e-002
3.089404e+003, 2.526844e-002
3.091332e+003, 2.566148e-002
3.093260e+003, 2.591550e-002
3.095189e+003, 2.611882e-002
3.097117e+003, 2.634259e-002
3.099046e+003, 2.644393e-002
3.100974e+003, 2.630048e-002
3.102903e+003, 2.586862e-002
3.104831e+003, 2.592539e-002
3.106760e+003, 2.643427e-002
3.108688e+003, 2.656276e-002
3.110617e+003, 2.661403e-002
3.112545e+003, 2.693959e-002
3.114474e+003, 2.688365e-002
3.116402e+003, 2.671450e-002
3.118331e+003, 2.682019e-002
3.120259e+003, 2.661123e-002
3.122188e+003, 2.681717e-002
3.124116e+003, 2.712158e-002
3.126044e+003, 2.722783e-002
3.127973e+003, 2.709966e-002
3.129901e+003, 2.714641e-002
3.131830e+003, 2.739839e-002
3.133758e+003, 2.756126e-002
3.135687e+003, 2.761205e-002
3.137615e+003, 2.756399e-002
3.139544e+003, 2.828384e-002
3.141472e+003, 2.867906e-002
3.143401e+003, 2.901676e-002
3.145329e+003, 2.893152e-002
3.147258e+003, 2.847216e-002
3.149186e+003, 2.844102e-002
3.151115e+003, 2.837582e-002
3.153043e+003, 2.827757e-002
3.154971e+003, 2.894750e-002
3.156900e+003, 2.941301e-002
3.158828e+003, 2.937002e-002
3.160757e+003, 2.940421e-002
3.162685e+003, 2.968877e-002
3.164614e+003, 3.006136e-002
3.166542e+003, 3.031133e-002
3.168471e+003, 3.021014e-002
3.170399e+003, 3.042708e-002
3.172328e+003, 2.997575e-002
3.174256e+003, 2.942923e-002
3.176185e+003, 2.930015e-002
3.178113e+003, 2.975192e-002
3.180042e+003, 3.032078e-002
3.181970e+003, 3.060410e-002
3.183898e+003, 3.062955e-002
3.185827e+003, 3.048050e-002
3.187755e+003, 3.067832e-002
3.189684e+003, 3.082719e-002
3.191612e+003, 3.087449e-002
3.193541e+003, 3.092593e-002
3.195469e+003, 3.111513e-002
3.197398e+003, 3.082592e-002
3.199326e+003, 3.075065e-002
3.201255e+003, 3.140059e-002
3.203183e+003, 3.168821e-002
3.205112e+003, 3.122151e-002
3.207040e+003, 3.118531e-002
3.208969e+003, 3.151518e-002
3.210897e+003, 3.171631e-002
3.212825e+003, 3.189480e-002
3.214754e+003, 3.229227e-002
3.216682e+003, 3.257693e-002
3.218611e+003, 3.267604e-002
3.220539e+003, 3.247914e-002
3.222468e+003, 3.233653e-002
3.224396e+003, 3.223092e-002
3.226325e+003, 3.216619e-002
3.228253e+003, 3.256427e-002
3.230182e+003, 3.278080e-002
3.232110e+003, 3.268473e-002
3.234039e+003, 3.287172e-002
3.235967e+003, 3.257273e-002
3.237896e+003, 3.304986e-002
3.239824e+003, 3.336213e-002
3.241752e+003, 3.311837e-002
3.243681e+003, 3.314929e-002
3.245609e+003, 3.300618e-002
3.247538e+003, 3.306368e-002
3.249466e+003, 3.328823e-002
3.251395e+003, 3.370954e-002
3.253323e+003, 3.398072e-002
3.255252e+003, 3.450654e-002
3.257180e+003, 3.458836e-002
3.259109e+003, 3.432303e-002
3.261037e+003, 3.449047e-002
3.262966e+003, 3.480779e-002
3.264894e+003, 3.453270e-002
3.266823e+003, 3.403413e-002
3.268751e+003, 3.393896e-002
3.270679e+003, 3.475736e-002
3.272608e+003, 3.518939e-002
3.274536e+003, 3.536807e-002
3.276465e+003, 3.536353e-002
3.278393e+003, 3.508314e-002
3.280322e+003, 3.498603e-002
3.282250e+003, 3.486249e-002
3.284179e+003, 3.430869e-002
3.286107e+003, 3.412753e-002
3.288036e+003, 3.448960e-002
3.289964e+003, 3.481641e-002
3.291893e+003, 3.547122e-002
3.293821e+003, 3.567326e-002
3.295750e+003, 3.533436e-002
3.297678e+003, 3.520709e-002
3.299606e+003, 3.518801e-002
3.301535e+003, 3.552993e-002
3.303463e+003, 3.633733e-002
3.305392e+003, 3.654065e-002
3.307320e+003, 3.587407e-002
3.309249e+003, 3.576008e-002
3.311177e+003, 3.613932e-002
3.313106e+003, 3.596034e-002
3.315034e+003, 3.590301e-002
3.316963e+003, 3.630277e-002
3.318891e+003, 3.627279e-002
3.320820e+003, 3.587113e-002
3.322748e+003, 3.574863e-002
3.324677e+003, 3.627604e-002
3.326605e+003, 3.652767e-002
3.328533e+003, 3.646221e-002
3.330462e+003, 3.634244e-002
3.332390e+003, 3.677149e-002
3.334319e+003, 3.699666e-002
3.336247e+003, 3.698619e-002
3.338176e+003, 3.721840e-002
3.340104e+003, 3.719256e-002
3.342033e+003, 3.663189e-002
3.343961e+003, 3.695190e-002
3.345890e+003, 3.705135e-002
3.347818e+003, 3.665253e-002
3.349747e+003, 3.655083e-002
3.351675e+003, 3.681583e-002
3.353604e+003, 3.708673e-002
3.355532e+003, 3.703199e-002
3.357460e+003, 3.673573e-002
3.359389e+003, 3.745857e-002
3.361317e+003, 3.781275e-002
3.363246e+003, 3.751701e-002
3.365174e+003, 3.744220e-002
3.367103e+003, 3.733546e-002
3.369031e+003, 3.725241e-002
3.370960e+003, 3.715985e-002
3.372888e+003, 3.749030e-002
3.374817e+003, 3.734770e-002
3.376745e+003, 3.708868e-002
3.378674e+003, 3.736247e-002
3.380602e+003, 3.721537e-002
3.382531e+003, 3.759012e-002
3.384459e+003, 3.816239e-002
3.386387e+003, 3.783790e-002
3.388316e+003, 3.724271e-002
3.390244e+003, 3.740367e-002
3.392173e+003, 3.740546e-002
3.394101e+003, 3.724102e-002
3.396030e+003, 3.758523e-002
3.397958e+003, 3.730066e-002
3.399887e+003, 3.669668e-002
3.401815e+003, 3.726138e-002
3.403744e+003, 3.785167e-002
3.405672e+003, 3.707879e-002
3.407601e+003, 3.671049e-002
3.409529e+003, 3.722470e-002
3.411458e+003, 3.720518e-002
3.413386e+003, 3.688772e-002
3.415314e+003, 3.680264e-002
3.417243e+003, 3.701460e-002
3.419171e+003, 3.705373e-002
3.421100e+003, 3.678306e-002
3.423028e+003, 3.666116e-002
3.424957e+003, 3.676242e-002
3.426885e+003, 3.638675e-002
3.428814e+003, 3.639885e-002
3.430742e+003, 3.644506e-002
3.432671e+003, 3.649713e-002
3.434599e+003, 3.652767e-002
3.436528e+003, 3.625683e-002
3.438456e+003, 3.555677e-002
3.440385e+003, 3.555523e-002
3.442313e+003, 3.617274e-002
3.444241e+003, 3.623790e-002
3.446170e+003, 3.583687e-002
3.448098e+003, 3.524352e-002
3.450027e+003, 3.518962e-002
3.451955e+003, 3.483673e-002
3.453884e+003, 3.468800e-002
3.455812e+003, 3.531205e-002
3.457741e+003, 3.572908e-002
3.459669e+003, 3.537904e-002
3.461598e+003, 3.514736e-002
3.463526e+003, 3.486918e-002
3.465455e+003, 3.409285e-002
3.467383e+003, 3.420643e-002
3.469312e+003, 3.467979e-002
3.471240e+003, 3.438145e-002
3.473168e+003, 3.335166e-002
3.475097e+003, 3.319902e-002
3.477025e+003, 3.372913e-002
3.478954e+003, 3.331635e-002
3.480882e+003, 3.283651e-002
3.482811e+003, 3.315912e-002
3.484739e+003, 3.267443e-002
3.486668e+003, 3.202014e-002
3.488596e+003, 3.238770e-002
3.490525e+003, 3.234311e-002
3.492453e+003, 3.209915e-002
3.494382e+003, 3.215862e-002
3.496310e+003, 3.257484e-002
3.498239e+003, 3.222123e-002
3.500167e+003, 3.203952e-002
3.502095e+003, 3.176673e-002
3.504024e+003, 3.128295e-002
3.505952e+003, 3.052402e-002
3.507881e+003, 3.066521e-002
3.509809e+003, 3.070165e-002
3.511738e+003, 2.980995e-002
3.513666e+003, 2.993364e-002
3.515595e+003, 2.987357e-002
3.517523e+003, 2.987581e-002
3.519452e+003, 3.025791e-002
3.521380e+003, 2.976414e-002
3.523309e+003, 2.934531e-002
3.525237e+003, 2.890029e-002
3.527166e+003, 2.856814e-002
3.529094e+003, 2.901187e-002
3.531022e+003, 2.933024e-002
3.532951e+003, 2.905729e-002
3.534879e+003, 2.885068e-002
3.536808e+003, 2.890439e-002
3.538736e+003, 2.839524e-002
3.540665e+003, 2.708981e-002
3.542593e+003, 2.667896e-002
3.544522e+003, 2.721997e-002
3.546450e+003, 2.824780e-002
3.548379e+003, 2.805613e-002
3.550307e+003, 2.706792e-002
3.552236e+003, 2.686883e-002
3.554164e+003, 2.690582e-002
3.556093e+003, 2.718014e-002
3.558021e+003, 2.664581e-002
3.559949e+003, 2.622913e-002
3.561878e+003, 2.661262e-002
3.563806e+003, 2.671809e-002
3.565735e+003, 2.651571e-002
3.567663e+003, 2.540790e-002
3.569592e+003, 2.495269e-002
3.571520e+003, 2.545065e-002
3.573449e+003, 2.577183e-002
3.575377e+003, 2.572129e-002
3.577306e+003, 2.519393e-002
3.579234e+003, 2.500684e-002
3.581163e+003, 2.506746e-002
3.583091e+003, 2.483002e-002
3.585020e+003, 2.465029e-002
3.586948e+003, 2.396217e-002
3.588876e+003, 2.297164e-002
3.590805e+003, 2.309277e-002
3.592733e+003, 2.377441e-002
3.594662e+003, 2.374920e-002
3.596590e+003, 2.358057e-002
3.598519e+003, 2.285319e-002
3.600447e+003, 2.243503e-002
3.602376e+003, 2.214399e-002
3.604304e+003, 2.171440e-002
3.606233e+003, 2.187081e-002
3.608161e+003, 2.195112e-002
3.610090e+003, 2.134821e-002
3.612018e+003, 2.042377e-002
3.613947e+003, 1.978918e-002
3.615875e+003, 2.033100e-002
3.617803e+003, 2.072053e-002
3.619732e+003, 2.006561e-002
3.621660e+003, 1.946361e-002
3.623589e+003, 1.941599e-002
3.625517e+003, 1.951450e-002
3.627446e+003, 1.983693e-002
3.629374e+003, 2.008119e-002
3.631303e+003, 1.965346e-002
3.633231e+003, 1.885692e-002
3.635160e+003, 1.864461e-002
3.637088e+003, 1.928337e-002
3.639017e+003, 1.961341e-002
3.640945e+003, 1.908804e-002
3.642874e+003, 1.875648e-002
3.644802e+003, 1.888239e-002
3.646730e+003, 1.853988e-002
3.648659e+003, 1.826911e-002
3.650587e+003, 1.842169e-002
3.652516e+003, 1.843889e-002
3.654444e+003, 1.754458e-002
3.656373e+003, 1.633974e-002
3.658301e+003, 1.592517e-002
3.660230e+003, 1.690369e-002
3.662158e+003, 1.742960e-002
3.664087e+003, 1.736514e-002
3.666015e+003, 1.726707e-002
3.667944e+003, 1.808711e-002
3.669872e+003, 1.908426e-002
3.671801e+003, 1.793879e-002
3.673729e+003, 1.740197e-002
3.675657e+003, 1.774407e-002
3.677586e+003, 1.717647e-002
3.679514e+003, 1.707987e-002
3.681443e+003, 1.660460e-002
3.683371e+003, 1.574019e-002
3.685300e+003, 1.524415e-002
3.687228e+003, 1.633087e-002
3.689157e+003, 1.728315e-002
3.691085e+003, 1.662140e-002
3.693014e+003, 1.561977e-002
3.694942e+003, 1.552347e-002
3.696871e+003, 1.639597e-002
3.698799e+003, 1.642236e-002
3.700728e+003, 1.670620e-002
3.702656e+003, 1.636735e-002
3.704584e+003, 1.619918e-002
3.706513e+003, 1.667487e-002
3.708441e+003, 1.711218e-002
3.710370e+003, 1.761357e-002
3.712298e+003, 1.785504e-002
3.714227e+003, 1.627938e-002
3.716155e+003, 1.514033e-002
3.718084e+003, 1.555663e-002
3.720012e+003, 1.641356e-002
3.721941e+003, 1.802848e-002
3.723869e+003, 1.784207e-002
3.725798e+003, 1.680591e-002
3.727726e+003, 1.642601e-002
3.729655e+003, 1.642914e-002
3.731583e+003, 1.771227e-002
3.733511e+003, 1.774131e-002
3.735440e+003, 1.808536e-002
3.737368e+003, 1.735618e-002
3.739297e+003, 1.625122e-002
3.741225e+003, 1.683429e-002
3.743154e+003, 1.791503e-002
3.745082e+003, 1.795538e-002
3.747011e+003, 1.746157e-002
3.748939e+003, 1.782605e-002
3.750868e+003, 1.759638e-002
3.752796e+003, 1.720689e-002
3.754725e+003, 1.694041e-002
3.756653e+003, 1.675241e-002
3.758582e+003, 1.707925e-002
3.760510e+003, 1.737738e-002
3.762438e+003, 1.697622e-002
3.764367e+003, 1.651754e-002
3.766295e+003, 1.645364e-002
3.768224e+003, 1.658075e-002
3.770152e+003, 1.654141e-002
3.772081e+003, 1.647248e-002
3.774009e+003, 1.642330e-002
3.775938e+003, 1.634576e-002
3.777866e+003, 1.675849e-002
3.779795e+003, 1.722399e-002
3.781723e+003, 1.753937e-002
3.783652e+003, 1.770253e-002
3.785580e+003, 1.700637e-002
3.787509e+003, 1.651818e-002
3.789437e+003, 1.653064e-002
3.791365e+003, 1.638705e-002
3.793294e+003, 1.647498e-002
3.795222e+003, 1.621969e-002
3.797151e+003, 1.611219e-002
3.799079e+003, 1.690893e-002
3.801008e+003, 1.738785e-002
3.802936e+003, 1.709121e-002
3.804865e+003, 1.718523e-002
3.806793e+003, 1.783005e-002
3.808722e+003, 1.731117e-002
3.810650e+003, 1.678427e-002
3.812579e+003, 1.691247e-002
3.814507e+003, 1.727054e-002
3.816436e+003, 1.741089e-002
3.818364e+003, 1.710162e-002
3.820292e+003, 1.722882e-002
3.822221e+003, 1.724084e-002
3.824149e+003, 1.671778e-002
3.826078e+003, 1.709928e-002
3.828006e+003, 1.778684e-002
3.829935e+003, 1.742977e-002
3.831863e+003, 1.720120e-002
3.833792e+003, 1.776121e-002
3.835720e+003, 1.872279e-002
3.837649e+003, 1.918196e-002
3.839577e+003, 1.865503e-002
3.841506e+003, 1.794722e-002
3.843434e+003, 1.727991e-002
3.845363e+003, 1.742685e-002
3.847291e+003, 1.718841e-002
3.849219e+003, 1.734381e-002
3.851148e+003, 1.776617e-002
3.853076e+003, 1.824029e-002
3.855005e+003, 1.810054e-002
3.856933e+003, 1.739484e-002
3.858862e+003, 1.745405e-002
3.860790e+003, 1.745605e-002
3.862719e+003, 1.746141e-002
3.864647e+003, 1.766862e-002
3.866576e+003, 1.746408e-002
3.868504e+003, 1.795610e-002
3.870433e+003, 1.779940e-002
3.872361e+003, 1.763206e-002
3.874290e+003, 1.788928e-002
3.876218e+003, 1.700534e-002
3.878146e+003, 1.684026e-002
3.880075e+003, 1.737840e-002
3.882003e+003, 1.782597e-002
3.883932e+003, 1.771244e-002
3.885860e+003, 1.782429e-002
3.887789e+003, 1.743768e-002
3.889717e+003, 1.698450e-002
3.891646e+003, 1.694030e-002
3.893574e+003, 1.664002e-002
3.895503e+003, 1.659404e-002
3.897431e+003, 1.697800e-002
3.899360e+003, 1.737640e-002
3.901288e+003, 1.768840e-002
3.903217e+003, 1.803762e-002
3.905145e+003, 1.825579e-002
3.907073e+003, 1.820395e-002
3.909002e+003, 1.807456e-002
3.910930e+003, 1.738829e-002
3.912859e+003, 1.680100e-002
3.914787e+003, 1.694159e-002
3.916716e+003, 1.719048e-002
3.918644e+003, 1.749028e-002
3.920573e+003, 1.777597e-002
3.922501e+003, 1.792222e-002
3.924430e+003, 1.750388e-002
3.926358e+003, 1.730561e-002
3.928287e+003, 1.762603e-002
3.930215e+003, 1.823714e-002
3.932144e+003, 1.869468e-002
3.934072e+003, 1.837072e-002
3.936000e+003, 1.768923e-002
3.937929e+003, 1.779678e-002
3.939857e+003, 1.820140e-002
3.941786e+003, 1.786449e-002
3.943714e+003, 1.760534e-002
3.945643e+003, 1.765754e-002
3.947571e+003, 1.767991e-002
3.949500e+003, 1.733767e-002
3.951428e+003, 1.702532e-002
3.953357e+003, 1.776141e-002
3.955285e+003, 1.816777e-002
3.957214e+003, 1.762202e-002
3.959142e+003, 1.752670e-002
3.961071e+003, 1.788280e-002
3.962999e+003, 1.769939e-002
3.964927e+003, 1.731237e-002
3.966856e+003, 1.739209e-002
3.968784e+003, 1.672866e-002
3.970713e+003, 1.648532e-002
3.972641e+003, 1.698697e-002
3.974570e+003, 1.742485e-002
3.976498e+003, 1.743330e-002
3.978427e+003, 1.720502e-002
3.980355e+003, 1.754493e-002
3.982284e+003, 1.854624e-002
3.984212e+003, 1.926231e-002
3.986141e+003, 1.815307e-002
3.988069e+003, 1.732359e-002
3.989998e+003, 1.742504e-002
3.991926e+003, 1.800178e-002
3.993854e+003, 1.809820e-002
3.995783e+003, 1.829492e-002
3.997711e+003, 1.796510e-002
3.999640e+003, 1.751709e-002
4.001568e+003, 0.000000e+000
##END=



