##NAMES=Almandine
##RRUFFID=R040076
##IDEAL CHEMISTRY=Fe^2+^_3_Al_2_(SiO_4_)_3_
##LOCALITY=Barton Garnet mine, Gore Mountain, Warren County, New York, USA
##OWNER=RRUFF
##SOURCE=University of Arizona Mineral Museum
##DESCRIPTION=Red coarsely crystalline
##STATUS=The identification of this mineral has been confirmed by X-ray diffraction and chemical analysis
##URL=rruff.info/R040076
##MEASURED CHEMISTRY=(Fe^2+^_1.38_Mg_1.26_Ca_0.33_Mn_0.03_)_Î£=3_Al_2.00_(Si_1.00_O_4_)_3_; trace amounts of Ti
3.991926e+002, 0.000000e+000
4.011211e+002, 1.900062e-001
4.030496e+002, 1.908856e-001
4.049780e+002, 1.952428e-001
4.069065e+002, 2.006578e-001
4.088350e+002, 2.092580e-001
4.107634e+002, 2.244924e-001
4.126919e+002, 2.373034e-001
4.146204e+002, 2.402291e-001
4.165488e+002, 2.404517e-001
4.184773e+002, 2.468473e-001
4.204058e+002, 2.547649e-001
4.223342e+002, 2.634998e-001
4.242627e+002, 2.699835e-001
4.261912e+002, 2.771824e-001
4.281196e+002, 2.872131e-001
4.300481e+002, 2.984628e-001
4.319766e+002, 3.022437e-001
4.339050e+002, 3.054284e-001
4.358335e+002, 3.133257e-001
4.377620e+002, 3.187169e-001
4.396904e+002, 3.201385e-001
4.416189e+002, 3.183179e-001
4.435474e+002, 3.143582e-001
4.454758e+002, 3.155120e-001
4.474043e+002, 3.137218e-001
4.493328e+002, 3.074098e-001
4.512612e+002, 3.025944e-001
4.531897e+002, 2.985770e-001
4.551182e+002, 2.883784e-001
4.570466e+002, 2.774177e-001
4.589751e+002, 2.683672e-001
4.609036e+002, 2.570245e-001
4.628320e+002, 2.477579e-001
4.647605e+002, 2.459344e-001
4.666890e+002, 2.500035e-001
4.686174e+002, 2.555665e-001
4.705459e+002, 2.597858e-001
4.724744e+002, 2.627162e-001
4.744028e+002, 2.606665e-001
4.763313e+002, 2.547891e-001
4.782598e+002, 2.459077e-001
4.801882e+002, 2.349687e-001
4.821167e+002, 2.240240e-001
4.840452e+002, 2.148831e-001
4.859736e+002, 2.064997e-001
4.879021e+002, 1.980768e-001
4.898306e+002, 1.899289e-001
4.917590e+002, 1.839286e-001
4.936875e+002, 1.782471e-001
4.956160e+002, 1.723820e-001
4.975444e+002, 1.666785e-001
4.994729e+002, 1.606259e-001
5.014014e+002, 1.543377e-001
5.033298e+002, 1.477593e-001
5.052583e+002, 1.416941e-001
5.071868e+002, 1.364666e-001
5.091152e+002, 1.312524e-001
5.110437e+002, 1.252837e-001
5.129722e+002, 1.201529e-001
5.149006e+002, 1.165540e-001
5.168291e+002, 1.132340e-001
5.187576e+002, 1.107869e-001
5.206860e+002, 1.104937e-001
5.226145e+002, 1.119170e-001
5.245430e+002, 1.142383e-001
5.264714e+002, 1.156314e-001
5.283999e+002, 1.147144e-001
5.303284e+002, 1.109665e-001
5.322568e+002, 1.049837e-001
5.341853e+002, 9.803566e-002
5.361138e+002, 9.150114e-002
5.380422e+002, 8.495025e-002
5.399707e+002, 7.860712e-002
5.418992e+002, 7.386245e-002
5.438276e+002, 6.985547e-002
5.457561e+002, 6.731281e-002
5.476846e+002, 6.762460e-002
5.496130e+002, 7.033330e-002
5.515415e+002, 7.476458e-002
5.534700e+002, 8.253323e-002
5.553984e+002, 9.518760e-002
5.573269e+002, 1.120606e-001
5.592554e+002, 1.332112e-001
5.611838e+002, 1.562679e-001
5.631123e+002, 1.774800e-001
5.650408e+002, 1.923583e-001
5.669692e+002, 1.985010e-001
5.688977e+002, 1.964656e-001
5.708262e+002, 1.874679e-001
5.727546e+002, 1.746504e-001
5.746831e+002, 1.608323e-001
5.766116e+002, 1.471339e-001
5.785400e+002, 1.345892e-001
5.804685e+002, 1.229946e-001
5.823970e+002, 1.127668e-001
5.843254e+002, 1.039954e-001
5.862539e+002, 9.579850e-002
5.881824e+002, 8.816845e-002
5.901108e+002, 8.095241e-002
5.920393e+002, 7.461771e-002
5.939678e+002, 6.845427e-002
5.958962e+002, 6.250207e-002
5.978247e+002, 5.741793e-002
5.997532e+002, 5.262960e-002
6.016816e+002, 4.781855e-002
6.036101e+002, 4.404054e-002
6.055386e+002, 4.093144e-002
6.074670e+002, 3.833184e-002
6.093955e+002, 3.629314e-002
6.113240e+002, 3.475014e-002
6.132524e+002, 3.348053e-002
6.151809e+002, 3.238214e-002
6.171094e+002, 3.158277e-002
6.190378e+002, 3.126466e-002
6.209663e+002, 3.097505e-002
6.228948e+002, 3.078357e-002
6.248232e+002, 3.062054e-002
6.267517e+002, 3.064859e-002
6.286802e+002, 3.067914e-002
6.306086e+002, 3.092391e-002
6.325371e+002, 3.148225e-002
6.344656e+002, 3.193554e-002
6.363940e+002, 3.226493e-002
6.383225e+002, 3.317719e-002
6.402510e+002, 3.411680e-002
6.421794e+002, 3.486458e-002
6.441079e+002, 3.506007e-002
6.460364e+002, 3.471212e-002
6.479648e+002, 3.381482e-002
6.498933e+002, 3.247371e-002
6.518218e+002, 3.142076e-002
6.537502e+002, 3.032695e-002
6.556787e+002, 2.918151e-002
6.576072e+002, 2.843114e-002
6.595356e+002, 2.783108e-002
6.614641e+002, 2.714103e-002
6.633926e+002, 2.667744e-002
6.653210e+002, 2.639433e-002
6.672495e+002, 2.642281e-002
6.691780e+002, 2.638208e-002
6.711064e+002, 2.631148e-002
6.730349e+002, 2.607648e-002
6.749634e+002, 2.593527e-002
6.768918e+002, 2.610299e-002
6.788203e+002, 2.631211e-002
6.807488e+002, 2.652803e-002
6.826772e+002, 2.671280e-002
6.846057e+002, 2.683375e-002
6.865342e+002, 2.700437e-002
6.884626e+002, 2.738278e-002
6.903911e+002, 2.774231e-002
6.923196e+002, 2.817377e-002
6.942480e+002, 2.853464e-002
6.961765e+002, 2.875557e-002
6.981050e+002, 2.922772e-002
7.000334e+002, 2.954117e-002
7.019619e+002, 2.966632e-002
7.038904e+002, 3.018310e-002
7.058188e+002, 3.059593e-002
7.077473e+002, 3.091406e-002
7.096758e+002, 3.158030e-002
7.116042e+002, 3.211292e-002
7.135327e+002, 3.256982e-002
7.154612e+002, 3.333893e-002
7.173896e+002, 3.425832e-002
7.193181e+002, 3.486541e-002
7.212466e+002, 3.549253e-002
7.231750e+002, 3.635046e-002
7.251035e+002, 3.695124e-002
7.270320e+002, 3.740889e-002
7.289604e+002, 3.814332e-002
7.308889e+002, 3.917555e-002
7.328174e+002, 4.026268e-002
7.347458e+002, 4.132636e-002
7.366743e+002, 4.251995e-002
7.386028e+002, 4.392511e-002
7.405313e+002, 4.545210e-002
7.424597e+002, 4.704969e-002
7.443882e+002, 4.863901e-002
7.463167e+002, 5.026959e-002
7.482451e+002, 5.193413e-002
7.501736e+002, 5.353686e-002
7.521021e+002, 5.504086e-002
7.540305e+002, 5.651076e-002
7.559590e+002, 5.800549e-002
7.578875e+002, 5.938971e-002
7.598159e+002, 6.131852e-002
7.617444e+002, 6.366099e-002
7.636729e+002, 6.573698e-002
7.656013e+002, 6.818927e-002
7.675298e+002, 7.090085e-002
7.694583e+002, 7.305824e-002
7.713867e+002, 7.568981e-002
7.733152e+002, 7.881964e-002
7.752437e+002, 8.204275e-002
7.771721e+002, 8.553587e-002
7.791006e+002, 8.936833e-002
7.810291e+002, 9.328155e-002
7.829575e+002, 9.720536e-002
7.848860e+002, 1.015437e-001
7.868145e+002, 1.061576e-001
7.887429e+002, 1.107715e-001
7.906714e+002, 1.156125e-001
7.925999e+002, 1.211539e-001
7.945283e+002, 1.270875e-001
7.964568e+002, 1.329409e-001
7.983853e+002, 1.388676e-001
8.003137e+002, 1.452747e-001
8.022422e+002, 1.520143e-001
8.041707e+002, 1.588783e-001
8.060991e+002, 1.657303e-001
8.080276e+002, 1.726134e-001
8.099561e+002, 1.796737e-001
8.118845e+002, 1.866457e-001
8.138130e+002, 1.937843e-001
8.157415e+002, 2.010792e-001
8.176699e+002, 2.083380e-001
8.195984e+002, 2.159167e-001
8.215269e+002, 2.238380e-001
8.234553e+002, 2.318784e-001
8.253838e+002, 2.402905e-001
8.273123e+002, 2.489159e-001
8.292407e+002, 2.573681e-001
8.311692e+002, 2.657940e-001
8.330977e+002, 2.742587e-001
8.350261e+002, 2.825304e-001
8.369546e+002, 2.910070e-001
8.388831e+002, 2.993749e-001
8.408115e+002, 3.072909e-001
8.427400e+002, 3.145338e-001
8.446685e+002, 3.214583e-001
8.465969e+002, 3.277197e-001
8.485254e+002, 3.331854e-001
8.504539e+002, 3.384311e-001
8.523823e+002, 3.433810e-001
8.543108e+002, 3.482264e-001
8.562393e+002, 3.522082e-001
8.581677e+002, 3.552446e-001
8.600962e+002, 3.570560e-001
8.620247e+002, 3.575679e-001
8.639531e+002, 3.572937e-001
8.658816e+002, 3.554692e-001
8.678101e+002, 3.519492e-001
8.697385e+002, 3.472160e-001
8.716670e+002, 3.408727e-001
8.735955e+002, 3.320370e-001
8.755239e+002, 3.212422e-001
8.774524e+002, 3.086631e-001
8.793809e+002, 2.961739e-001
8.813093e+002, 2.854613e-001
8.832378e+002, 2.781160e-001
8.851663e+002, 2.755462e-001
8.870947e+002, 2.782054e-001
8.890232e+002, 2.846816e-001
8.909517e+002, 2.928246e-001
8.928801e+002, 2.990361e-001
8.948085e+002, 3.006921e-001
8.967370e+002, 2.976440e-001
8.986655e+002, 2.905491e-001
9.005939e+002, 2.800347e-001
9.025224e+002, 2.678680e-001
9.044509e+002, 2.547775e-001
9.063793e+002, 2.415076e-001
9.083078e+002, 2.286280e-001
9.102363e+002, 2.159603e-001
9.121647e+002, 2.038780e-001
9.140932e+002, 1.925817e-001
9.160217e+002, 1.814374e-001
9.179501e+002, 1.705910e-001
9.198786e+002, 1.600652e-001
9.218071e+002, 1.500010e-001
9.237355e+002, 1.408897e-001
9.256640e+002, 1.329361e-001
9.275925e+002, 1.262506e-001
9.295209e+002, 1.212705e-001
9.314494e+002, 1.178831e-001
9.333779e+002, 1.160936e-001
9.353063e+002, 1.161463e-001
9.372348e+002, 1.183128e-001
9.391633e+002, 1.236500e-001
9.410917e+002, 1.328082e-001
9.430202e+002, 1.463101e-001
9.449487e+002, 1.650075e-001
9.468771e+002, 1.882083e-001
9.488056e+002, 2.140305e-001
9.507341e+002, 2.401918e-001
9.526625e+002, 2.637129e-001
9.545910e+002, 2.822867e-001
9.565195e+002, 2.956791e-001
9.584479e+002, 3.032323e-001
9.603764e+002, 3.048540e-001
9.623049e+002, 3.007687e-001
9.642333e+002, 2.921568e-001
9.661618e+002, 2.801755e-001
9.680903e+002, 2.660709e-001
9.700187e+002, 2.516553e-001
9.719472e+002, 2.378017e-001
9.738757e+002, 2.245761e-001
9.758041e+002, 2.122871e-001
9.777326e+002, 2.007889e-001
9.796611e+002, 1.900208e-001
9.815895e+002, 1.801244e-001
9.835180e+002, 1.709324e-001
9.854465e+002, 1.623139e-001
9.873749e+002, 1.540585e-001
9.893034e+002, 1.461416e-001
9.912319e+002, 1.388538e-001
9.931603e+002, 1.322226e-001
9.950888e+002, 1.257605e-001
9.970173e+002, 1.195199e-001
9.989457e+002, 1.136599e-001
1.000874e+003, 1.080283e-001
1.002803e+003, 1.025825e-001
1.004731e+003, 9.726977e-002
1.006660e+003, 9.230472e-002
1.008588e+003, 8.742261e-002
1.010517e+003, 8.259306e-002
1.012445e+003, 7.786801e-002
1.014373e+003, 7.313521e-002
1.016302e+003, 6.836002e-002
1.018230e+003, 6.395325e-002
1.020159e+003, 5.965533e-002
1.022087e+003, 5.556901e-002
1.024016e+003, 5.186848e-002
1.025944e+003, 4.840770e-002
1.027873e+003, 4.516194e-002
1.029801e+003, 4.207878e-002
1.031730e+003, 3.929128e-002
1.033658e+003, 3.704360e-002
1.035587e+003, 3.511680e-002
1.037515e+003, 3.328929e-002
1.039444e+003, 3.155227e-002
1.041372e+003, 3.017722e-002
1.043301e+003, 2.901295e-002
1.045229e+003, 2.792126e-002
1.047157e+003, 2.699855e-002
1.049086e+003, 2.598570e-002
1.051014e+003, 2.481702e-002
1.052943e+003, 2.387299e-002
1.054871e+003, 2.297615e-002
1.056800e+003, 2.204054e-002
1.058728e+003, 2.119582e-002
1.060657e+003, 2.044613e-002
1.062585e+003, 1.987993e-002
1.064514e+003, 1.944810e-002
1.066442e+003, 1.898717e-002
1.068371e+003, 1.863034e-002
1.070299e+003, 1.822531e-002
1.072228e+003, 1.783174e-002
1.074156e+003, 1.751000e-002
1.076084e+003, 1.703362e-002
1.078013e+003, 1.657259e-002
1.079941e+003, 1.635841e-002
1.081870e+003, 1.618276e-002
1.083798e+003, 1.610149e-002
1.085727e+003, 1.594785e-002
1.087655e+003, 1.564166e-002
1.089584e+003, 1.536241e-002
1.091512e+003, 1.536623e-002
1.093441e+003, 1.523369e-002
1.095369e+003, 1.510745e-002
1.097298e+003, 1.494062e-002
1.099226e+003, 1.481885e-002
1.101155e+003, 1.476452e-002
1.103083e+003, 1.487685e-002
1.105011e+003, 1.459539e-002
1.106940e+003, 1.427987e-002
1.108868e+003, 1.426876e-002
1.110797e+003, 1.425131e-002
1.112725e+003, 1.425782e-002
1.114654e+003, 1.432750e-002
1.116582e+003, 1.419415e-002
1.118511e+003, 1.393455e-002
1.120439e+003, 1.388584e-002
1.122368e+003, 1.383722e-002
1.124296e+003, 1.372905e-002
1.126225e+003, 1.350076e-002
1.128153e+003, 1.324221e-002
1.130082e+003, 1.308748e-002
1.132010e+003, 1.274018e-002
1.133938e+003, 1.242209e-002
1.135867e+003, 1.209020e-002
1.137795e+003, 1.172643e-002
1.139724e+003, 1.152795e-002
1.141652e+003, 1.123845e-002
1.143581e+003, 1.076946e-002
1.145509e+003, 1.041453e-002
1.147438e+003, 1.008319e-002
1.149366e+003, 9.895042e-003
1.151295e+003, 9.714917e-003
1.153223e+003, 9.637415e-003
1.155152e+003, 9.447793e-003
1.157080e+003, 9.302873e-003
1.159009e+003, 9.076148e-003
1.160937e+003, 8.756464e-003
1.162865e+003, 8.419485e-003
1.164794e+003, 8.323459e-003
1.166722e+003, 8.149067e-003
1.168651e+003, 7.792426e-003
1.170579e+003, 7.678061e-003
1.172508e+003, 7.663520e-003
1.174436e+003, 7.529248e-003
1.176365e+003, 7.296304e-003
1.178293e+003, 6.960711e-003
1.180222e+003, 6.780225e-003
1.182150e+003, 6.649083e-003
1.184079e+003, 6.427383e-003
1.186007e+003, 6.512467e-003
1.187936e+003, 6.599794e-003
1.189864e+003, 6.409075e-003
1.191792e+003, 6.146540e-003
1.193721e+003, 5.784636e-003
1.195649e+003, 5.580899e-003
1.197578e+003, 5.542815e-003
1.199506e+003, 5.456493e-003
1.201435e+003, 5.440768e-003
1.203363e+003, 5.361237e-003
1.205292e+003, 5.229197e-003
1.207220e+003, 5.161611e-003
1.209149e+003, 5.029943e-003
1.211077e+003, 4.881795e-003
1.213006e+003, 4.867377e-003
1.214934e+003, 4.970161e-003
1.216863e+003, 5.002769e-003
1.218791e+003, 4.940454e-003
1.220719e+003, 4.869454e-003
1.222648e+003, 4.817813e-003
1.224576e+003, 4.737919e-003
1.226505e+003, 4.733069e-003
1.228433e+003, 4.763567e-003
1.230362e+003, 4.788597e-003
1.232290e+003, 4.619302e-003
1.234219e+003, 4.503829e-003
1.236147e+003, 4.651304e-003
1.238076e+003, 4.779966e-003
1.240004e+003, 4.807924e-003
1.241933e+003, 4.745319e-003
1.243861e+003, 4.664212e-003
1.245790e+003, 4.529878e-003
1.247718e+003, 4.474923e-003
1.249646e+003, 4.513103e-003
1.251575e+003, 4.553044e-003
1.253503e+003, 4.508424e-003
1.255432e+003, 4.426298e-003
1.257360e+003, 4.475273e-003
1.259289e+003, 4.536146e-003
1.261217e+003, 4.266862e-003
1.263146e+003, 4.168347e-003
1.265074e+003, 4.376796e-003
1.267003e+003, 4.415080e-003
1.268931e+003, 4.308389e-003
1.270860e+003, 4.292115e-003
1.272788e+003, 4.309726e-003
1.274717e+003, 4.339050e-003
1.276645e+003, 4.511735e-003
1.278573e+003, 4.577426e-003
1.280502e+003, 4.557505e-003
1.282430e+003, 4.610565e-003
1.284359e+003, 4.634012e-003
1.286287e+003, 4.605322e-003
1.288216e+003, 4.434964e-003
1.290144e+003, 4.428235e-003
1.292073e+003, 4.510934e-003
1.294001e+003, 4.613168e-003
1.295930e+003, 4.536481e-003
1.297858e+003, 4.479447e-003
1.299787e+003, 4.726443e-003
1.301715e+003, 4.859479e-003
1.303644e+003, 4.826851e-003
1.305572e+003, 4.868998e-003
1.307500e+003, 4.842540e-003
1.309429e+003, 4.858725e-003
1.311357e+003, 5.057655e-003
1.313286e+003, 5.082274e-003
1.315214e+003, 5.206283e-003
1.317143e+003, 5.257823e-003
1.319071e+003, 5.158640e-003
1.321000e+003, 5.195152e-003
1.322928e+003, 5.300930e-003
1.324857e+003, 5.177680e-003
1.326785e+003, 5.163451e-003
1.328714e+003, 5.291864e-003
1.330642e+003, 5.472101e-003
1.332571e+003, 5.506064e-003
1.334499e+003, 5.459021e-003
1.336427e+003, 5.449207e-003
1.338356e+003, 5.566696e-003
1.340284e+003, 5.681907e-003
1.342213e+003, 5.783280e-003
1.344141e+003, 5.737739e-003
1.346070e+003, 5.847123e-003
1.347998e+003, 6.171390e-003
1.349927e+003, 6.170690e-003
1.351855e+003, 6.021610e-003
1.353784e+003, 6.045198e-003
1.355712e+003, 6.074423e-003
1.357641e+003, 6.214928e-003
1.359569e+003, 6.214596e-003
1.361498e+003, 6.091782e-003
1.363426e+003, 6.227851e-003
1.365354e+003, 6.384661e-003
1.367283e+003, 6.488870e-003
1.369211e+003, 6.495066e-003
1.371140e+003, 6.422330e-003
1.373068e+003, 6.663735e-003
1.374997e+003, 6.792832e-003
1.376925e+003, 6.663664e-003
1.378854e+003, 6.561896e-003
1.380782e+003, 6.748435e-003
1.382711e+003, 6.882984e-003
1.384639e+003, 6.819019e-003
1.386568e+003, 6.721396e-003
1.388496e+003, 6.747045e-003
1.390424e+003, 6.747741e-003
1.392353e+003, 6.739720e-003
1.394281e+003, 7.075907e-003
1.396210e+003, 7.255455e-003
1.398138e+003, 7.213535e-003
1.400067e+003, 7.133950e-003
1.401995e+003, 6.975378e-003
1.403924e+003, 7.177810e-003
1.405852e+003, 7.331076e-003
1.407781e+003, 7.300947e-003
1.409709e+003, 7.450327e-003
1.411638e+003, 7.513877e-003
1.413566e+003, 7.397234e-003
1.415495e+003, 7.237332e-003
1.417423e+003, 7.251102e-003
1.419351e+003, 7.175121e-003
1.421280e+003, 7.022015e-003
1.423208e+003, 7.160546e-003
1.425137e+003, 7.230991e-003
1.427065e+003, 7.322807e-003
1.428994e+003, 7.543733e-003
1.430922e+003, 7.492726e-003
1.432851e+003, 7.320241e-003
1.434779e+003, 7.266375e-003
1.436708e+003, 7.131708e-003
1.438636e+003, 7.162918e-003
1.440565e+003, 7.375321e-003
1.442493e+003, 7.440427e-003
1.444422e+003, 7.474054e-003
1.446350e+003, 7.457681e-003
1.448278e+003, 7.495716e-003
1.450207e+003, 7.561577e-003
1.452135e+003, 7.405597e-003
1.454064e+003, 7.220476e-003
1.455992e+003, 7.281991e-003
1.457921e+003, 7.472648e-003
1.459849e+003, 7.645451e-003
1.461778e+003, 7.804618e-003
1.463706e+003, 7.808962e-003
1.465635e+003, 7.610157e-003
1.467563e+003, 7.643115e-003
1.469492e+003, 7.723826e-003
1.471420e+003, 7.638949e-003
1.473349e+003, 7.511203e-003
1.475277e+003, 7.510066e-003
1.477205e+003, 7.432414e-003
1.479134e+003, 7.393018e-003
1.481062e+003, 7.342297e-003
1.482991e+003, 7.292823e-003
1.484919e+003, 7.275300e-003
1.486848e+003, 7.237731e-003
1.488776e+003, 7.291322e-003
1.490705e+003, 7.284516e-003
1.492633e+003, 7.339258e-003
1.494562e+003, 7.290887e-003
1.496490e+003, 7.166832e-003
1.498419e+003, 7.248720e-003
1.500347e+003, 7.490078e-003
1.502276e+003, 7.561377e-003
1.504204e+003, 7.468235e-003
1.506132e+003, 7.233799e-003
1.508061e+003, 7.169117e-003
1.509989e+003, 7.351112e-003
1.511918e+003, 7.425776e-003
1.513846e+003, 7.522788e-003
1.515775e+003, 7.671175e-003
1.517703e+003, 7.816073e-003
1.519632e+003, 7.745889e-003
1.521560e+003, 7.337724e-003
1.523489e+003, 7.638718e-003
1.525417e+003, 7.974428e-003
1.527346e+003, 7.906206e-003
1.529274e+003, 7.971399e-003
1.531203e+003, 8.125284e-003
1.533131e+003, 8.243890e-003
1.535059e+003, 8.375202e-003
1.536988e+003, 8.195231e-003
1.538916e+003, 8.099310e-003
1.540845e+003, 8.265871e-003
1.542773e+003, 8.448004e-003
1.544702e+003, 8.702390e-003
1.546630e+003, 9.053839e-003
1.548559e+003, 9.248300e-003
1.550487e+003, 9.122110e-003
1.552416e+003, 9.066061e-003
1.554344e+003, 9.197157e-003
1.556273e+003, 9.223104e-003
1.558201e+003, 9.100881e-003
1.560130e+003, 9.151875e-003
1.562058e+003, 9.449030e-003
1.563986e+003, 9.718624e-003
1.565915e+003, 9.814537e-003
1.567843e+003, 9.707278e-003
1.569772e+003, 9.757199e-003
1.571700e+003, 9.747573e-003
1.573629e+003, 9.819292e-003
1.575557e+003, 1.034423e-002
1.577486e+003, 1.051044e-002
1.579414e+003, 1.029992e-002
1.581343e+003, 1.039358e-002
1.583271e+003, 1.067812e-002
1.585200e+003, 1.070827e-002
1.587128e+003, 1.074339e-002
1.589057e+003, 1.101412e-002
1.590985e+003, 1.095141e-002
1.592913e+003, 1.075932e-002
1.594842e+003, 1.066839e-002
1.596770e+003, 1.066619e-002
1.598699e+003, 1.071963e-002
1.600627e+003, 1.074517e-002
1.602556e+003, 1.074313e-002
1.604484e+003, 1.082504e-002
1.606413e+003, 1.084686e-002
1.608341e+003, 1.078117e-002
1.610270e+003, 1.095504e-002
1.612198e+003, 1.110123e-002
1.614127e+003, 1.083499e-002
1.616055e+003, 1.068864e-002
1.617984e+003, 1.085564e-002
1.619912e+003, 1.098658e-002
1.621840e+003, 1.074042e-002
1.623769e+003, 1.070684e-002
1.625697e+003, 1.081959e-002
1.627626e+003, 1.084000e-002
1.629554e+003, 1.082444e-002
1.631483e+003, 1.085067e-002
1.633411e+003, 1.054798e-002
1.635340e+003, 1.028726e-002
1.637268e+003, 1.034645e-002
1.639197e+003, 1.048493e-002
1.641125e+003, 1.062371e-002
1.643054e+003, 1.052311e-002
1.644982e+003, 1.023961e-002
1.646911e+003, 1.010989e-002
1.648839e+003, 1.008188e-002
1.650767e+003, 1.001818e-002
1.652696e+003, 1.008013e-002
1.654624e+003, 1.034166e-002
1.656553e+003, 1.013302e-002
1.658481e+003, 9.846789e-003
1.660410e+003, 9.813104e-003
1.662338e+003, 9.778698e-003
1.664267e+003, 1.007098e-002
1.666195e+003, 1.015187e-002
1.668124e+003, 1.006542e-002
1.670052e+003, 1.015920e-002
1.671981e+003, 1.009531e-002
1.673909e+003, 9.851999e-003
1.675838e+003, 9.670062e-003
1.677766e+003, 9.588344e-003
1.679694e+003, 9.611319e-003
1.681623e+003, 9.671231e-003
1.683551e+003, 9.451533e-003
1.685480e+003, 9.231562e-003
1.687408e+003, 9.358245e-003
1.689337e+003, 9.201092e-003
1.691265e+003, 9.103979e-003
1.693194e+003, 9.195670e-003
1.695122e+003, 9.168681e-003
1.697051e+003, 9.115848e-003
1.698979e+003, 9.454069e-003
1.700908e+003, 9.702828e-003
1.702836e+003, 9.696666e-003
1.704765e+003, 9.743976e-003
1.706693e+003, 9.824556e-003
1.708621e+003, 9.664183e-003
1.710550e+003, 9.871289e-003
1.712478e+003, 1.003783e-002
1.714407e+003, 9.750531e-003
1.716335e+003, 9.747320e-003
1.718264e+003, 9.757643e-003
1.720192e+003, 9.610664e-003
1.722121e+003, 9.619352e-003
1.724049e+003, 9.874087e-003
1.725978e+003, 9.963211e-003
1.727906e+003, 9.892233e-003
1.729835e+003, 1.010418e-002
1.731763e+003, 1.012421e-002
1.733692e+003, 9.804610e-003
1.735620e+003, 9.899358e-003
1.737548e+003, 1.042705e-002
1.739477e+003, 1.012729e-002
1.741405e+003, 9.995689e-003
1.743334e+003, 1.025571e-002
1.745262e+003, 1.008110e-002
1.747191e+003, 9.805424e-003
1.749119e+003, 1.001668e-002
1.751048e+003, 1.014013e-002
1.752976e+003, 1.004916e-002
1.754905e+003, 1.011928e-002
1.756833e+003, 1.015797e-002
1.758762e+003, 1.034651e-002
1.760690e+003, 1.026632e-002
1.762619e+003, 1.001514e-002
1.764547e+003, 1.003825e-002
1.766475e+003, 1.000199e-002
1.768404e+003, 1.029208e-002
1.770332e+003, 1.042184e-002
1.772261e+003, 1.016359e-002
1.774189e+003, 1.023392e-002
1.776118e+003, 1.042761e-002
1.778046e+003, 1.026813e-002
1.779975e+003, 1.029613e-002
1.781903e+003, 1.026455e-002
1.783832e+003, 1.011864e-002
1.785760e+003, 1.028982e-002
1.787689e+003, 1.028374e-002
1.789617e+003, 1.011449e-002
1.791546e+003, 1.031812e-002
1.793474e+003, 1.044258e-002
1.795402e+003, 1.042285e-002
1.797331e+003, 1.031064e-002
1.799259e+003, 1.051932e-002
1.801188e+003, 1.049727e-002
1.803116e+003, 1.020530e-002
1.805045e+003, 9.942069e-003
1.806973e+003, 9.920284e-003
1.808902e+003, 9.827267e-003
1.810830e+003, 9.689111e-003
1.812759e+003, 9.918391e-003
1.814687e+003, 9.857226e-003
1.816616e+003, 9.764167e-003
1.818544e+003, 9.972549e-003
1.820473e+003, 1.007078e-002
1.822401e+003, 1.015885e-002
1.824329e+003, 1.022139e-002
1.826258e+003, 1.020081e-002
1.828186e+003, 1.022833e-002
1.830115e+003, 9.816745e-003
1.832043e+003, 9.829138e-003
1.833972e+003, 1.010236e-002
1.835900e+003, 1.013979e-002
1.837829e+003, 1.013258e-002
1.839757e+003, 1.025290e-002
1.841686e+003, 1.006774e-002
1.843614e+003, 1.003037e-002
1.845543e+003, 1.056368e-002
1.847471e+003, 1.044774e-002
1.849400e+003, 1.039636e-002
1.851328e+003, 1.073724e-002
1.853256e+003, 1.094472e-002
1.855185e+003, 1.046603e-002
1.857113e+003, 9.687582e-003
1.859042e+003, 9.620049e-003
1.860970e+003, 9.952969e-003
1.862899e+003, 1.009108e-002
1.864827e+003, 1.008569e-002
1.866756e+003, 1.051726e-002
1.868684e+003, 1.070362e-002
1.870613e+003, 1.075901e-002
1.872541e+003, 1.072081e-002
1.874470e+003, 1.067669e-002
1.876398e+003, 1.067924e-002
1.878327e+003, 1.058062e-002
1.880255e+003, 1.053284e-002
1.882183e+003, 1.043656e-002
1.884112e+003, 1.031156e-002
1.886040e+003, 1.045714e-002
1.887969e+003, 1.025630e-002
1.889897e+003, 1.000957e-002
1.891826e+003, 1.002541e-002
1.893754e+003, 9.892849e-003
1.895683e+003, 1.009011e-002
1.897611e+003, 1.022771e-002
1.899540e+003, 9.666666e-003
1.901468e+003, 9.349341e-003
1.903397e+003, 9.716845e-003
1.905325e+003, 1.045098e-002
1.907254e+003, 1.035250e-002
1.909182e+003, 9.716717e-003
1.911110e+003, 9.636592e-003
1.913039e+003, 9.774382e-003
1.914967e+003, 9.911386e-003
1.916896e+003, 9.823285e-003
1.918824e+003, 9.332187e-003
1.920753e+003, 9.484679e-003
1.922681e+003, 9.300513e-003
1.924610e+003, 9.218764e-003
1.926538e+003, 8.163023e-003
1.928467e+003, 7.558134e-003
1.930395e+003, 8.260412e-003
1.932324e+003, 8.640117e-003
1.934252e+003, 7.939725e-003
1.936181e+003, 7.920797e-003
1.938109e+003, 7.805176e-003
1.940037e+003, 6.910219e-003
1.941966e+003, 7.018397e-003
1.943894e+003, 7.155599e-003
1.945823e+003, 7.895764e-003
1.947751e+003, 8.307547e-003
1.949680e+003, 7.198822e-003
1.951608e+003, 7.311270e-003
1.953537e+003, 8.491891e-003
1.955465e+003, 8.556040e-003
1.957394e+003, 8.493358e-003
1.959322e+003, 8.729566e-003
1.961251e+003, 8.797452e-003
1.963179e+003, 7.927952e-003
1.965108e+003, 6.139265e-003
1.967036e+003, 5.317378e-003
1.968964e+003, 6.819093e-003
1.970893e+003, 6.951688e-003
1.972821e+003, 7.850958e-003
1.974750e+003, 9.856785e-003
1.976678e+003, 9.788749e-003
1.978607e+003, 1.074152e-002
1.980535e+003, 1.079770e-002
1.982464e+003, 9.111556e-003
1.984392e+003, 7.741962e-003
1.986321e+003, 7.499684e-003
1.988249e+003, 8.331803e-003
1.990178e+003, 8.923098e-003
1.992106e+003, 9.151006e-003
1.994035e+003, 1.066224e-002
1.995963e+003, 1.115209e-002
1.997891e+003, 1.031462e-002
1.999820e+003, 8.606540e-003
2.001748e+003, 8.105210e-003
2.003677e+003, 9.672009e-003
2.005605e+003, 1.111261e-002
2.007534e+003, 1.221424e-002
2.009462e+003, 1.171987e-002
2.011391e+003, 1.088550e-002
2.013319e+003, 1.090775e-002
2.015248e+003, 1.040678e-002
2.017176e+003, 9.874974e-003
2.019105e+003, 1.097607e-002
2.021033e+003, 1.187418e-002
2.022962e+003, 1.167441e-002
2.024890e+003, 1.363187e-002
2.026818e+003, 1.475769e-002
2.028747e+003, 1.259783e-002
2.030675e+003, 1.054300e-002
2.032604e+003, 9.194326e-003
2.034532e+003, 9.688442e-003
2.036461e+003, 1.205059e-002
2.038389e+003, 1.278579e-002
2.040318e+003, 1.252840e-002
2.042246e+003, 1.276950e-002
2.044175e+003, 1.441683e-002
2.046103e+003, 1.449368e-002
2.048032e+003, 1.509241e-002
2.049960e+003, 1.608845e-002
2.051889e+003, 1.413370e-002
2.053817e+003, 1.164512e-002
2.055746e+003, 1.243662e-002
2.057674e+003, 1.316077e-002
2.059603e+003, 1.393535e-002
2.061531e+003, 1.434940e-002
2.063459e+003, 1.438805e-002
2.065388e+003, 1.482049e-002
2.067316e+003, 1.456763e-002
2.069245e+003, 1.410037e-002
2.071173e+003, 1.471589e-002
2.073102e+003, 1.491487e-002
2.075030e+003, 1.534876e-002
2.076959e+003, 1.492269e-002
2.078887e+003, 1.389933e-002
2.080816e+003, 1.382938e-002
2.082744e+003, 1.478658e-002
2.084673e+003, 1.475850e-002
2.086601e+003, 1.474708e-002
2.088530e+003, 1.522749e-002
2.090458e+003, 1.453407e-002
2.092386e+003, 1.410415e-002
2.094315e+003, 1.448755e-002
2.096243e+003, 1.486872e-002
2.098172e+003, 1.506820e-002
2.100100e+003, 1.527691e-002
2.102029e+003, 1.489236e-002
2.103957e+003, 1.438886e-002
2.105886e+003, 1.412954e-002
2.107814e+003, 1.438722e-002
2.109743e+003, 1.469827e-002
2.111671e+003, 1.459386e-002
2.113600e+003, 1.410322e-002
2.115528e+003, 1.394385e-002
2.117457e+003, 1.394745e-002
2.119385e+003, 1.365190e-002
2.121313e+003, 1.388090e-002
2.123242e+003, 1.333735e-002
2.125170e+003, 1.282738e-002
2.127099e+003, 1.401233e-002
2.129027e+003, 1.418074e-002
2.130956e+003, 1.305480e-002
2.132884e+003, 1.308646e-002
2.134813e+003, 1.376775e-002
2.136741e+003, 1.501858e-002
2.138670e+003, 1.531986e-002
2.140598e+003, 1.328179e-002
2.142527e+003, 1.247139e-002
2.144455e+003, 1.453647e-002
2.146384e+003, 1.515897e-002
2.148312e+003, 1.560436e-002
2.150240e+003, 1.507883e-002
2.152169e+003, 1.569567e-002
2.154097e+003, 1.586846e-002
2.156026e+003, 1.532434e-002
2.157954e+003, 1.655162e-002
2.159883e+003, 1.907709e-002
2.161811e+003, 2.154015e-002
2.163740e+003, 2.120964e-002
2.165668e+003, 2.071985e-002
2.167597e+003, 2.030084e-002
2.169525e+003, 1.910084e-002
2.171454e+003, 1.711535e-002
2.173382e+003, 1.521733e-002
2.175311e+003, 1.651822e-002
2.177239e+003, 1.791297e-002
2.179167e+003, 1.838692e-002
2.181096e+003, 1.703944e-002
2.183024e+003, 1.690585e-002
2.184953e+003, 1.840168e-002
2.186881e+003, 1.900154e-002
2.188810e+003, 1.896581e-002
2.190738e+003, 2.076594e-002
2.192667e+003, 2.225466e-002
2.194595e+003, 2.272448e-002
2.196524e+003, 2.157945e-002
2.198452e+003, 1.956292e-002
2.200381e+003, 1.832885e-002
2.202309e+003, 1.822000e-002
2.204238e+003, 1.766145e-002
2.206166e+003, 1.665388e-002
2.208094e+003, 1.678803e-002
2.210023e+003, 1.663139e-002
2.211951e+003, 1.512108e-002
2.213880e+003, 1.552154e-002
2.215808e+003, 1.648974e-002
2.217737e+003, 1.706758e-002
2.219665e+003, 1.836758e-002
2.221594e+003, 2.065491e-002
2.223522e+003, 2.015180e-002
2.225451e+003, 1.819181e-002
2.227379e+003, 1.699702e-002
2.229308e+003, 1.652670e-002
2.231236e+003, 1.772370e-002
2.233165e+003, 1.929677e-002
2.235093e+003, 1.814593e-002
2.237021e+003, 1.550078e-002
2.238950e+003, 1.606438e-002
2.240878e+003, 1.731080e-002
2.242807e+003, 1.746370e-002
2.244735e+003, 1.798135e-002
2.246664e+003, 1.719685e-002
2.248592e+003, 1.590038e-002
2.250521e+003, 1.696413e-002
2.252449e+003, 1.837532e-002
2.254378e+003, 1.889172e-002
2.256306e+003, 1.877495e-002
2.258235e+003, 1.915994e-002
2.260163e+003, 1.885011e-002
2.262092e+003, 1.743444e-002
2.264020e+003, 1.662005e-002
2.265948e+003, 1.730734e-002
2.267877e+003, 1.790543e-002
2.269805e+003, 1.788616e-002
2.271734e+003, 1.812666e-002
2.273662e+003, 1.865927e-002
2.275591e+003, 1.879368e-002
2.277519e+003, 1.852432e-002
2.279448e+003, 1.915723e-002
2.281376e+003, 1.958412e-002
2.283305e+003, 1.982135e-002
2.285233e+003, 1.977758e-002
2.287162e+003, 1.933348e-002
2.289090e+003, 1.872461e-002
2.291019e+003, 1.840718e-002
2.292947e+003, 1.856719e-002
2.294875e+003, 1.854311e-002
2.296804e+003, 1.855595e-002
2.298732e+003, 1.849280e-002
2.300661e+003, 1.811839e-002
2.302589e+003, 1.798432e-002
2.304518e+003, 1.807098e-002
2.306446e+003, 1.821857e-002
2.308375e+003, 1.855716e-002
2.310303e+003, 1.940007e-002
2.312232e+003, 1.968073e-002
2.314160e+003, 1.936680e-002
2.316089e+003, 1.907982e-002
2.318017e+003, 1.925166e-002
2.319946e+003, 1.943593e-002
2.321874e+003, 1.993053e-002
2.323802e+003, 1.998458e-002
2.325731e+003, 1.863393e-002
2.327659e+003, 1.807064e-002
2.329588e+003, 1.796286e-002
2.331516e+003, 1.778278e-002
2.333445e+003, 1.854046e-002
2.335373e+003, 1.834834e-002
2.337302e+003, 1.771325e-002
2.339230e+003, 1.840281e-002
2.341159e+003, 1.864558e-002
2.343087e+003, 1.847895e-002
2.345016e+003, 1.802442e-002
2.346944e+003, 1.800355e-002
2.348873e+003, 1.830184e-002
2.350801e+003, 1.859856e-002
2.352729e+003, 1.840500e-002
2.354658e+003, 1.834545e-002
2.356586e+003, 1.890096e-002
2.358515e+003, 1.858982e-002
2.360443e+003, 1.813344e-002
2.362372e+003, 1.781728e-002
2.364300e+003, 1.738700e-002
2.366229e+003, 1.760626e-002
2.368157e+003, 1.858569e-002
2.370086e+003, 1.906621e-002
2.372014e+003, 1.907153e-002
2.373942e+003, 1.869750e-002
2.375871e+003, 1.820814e-002
2.377799e+003, 1.801866e-002
2.379728e+003, 1.772161e-002
2.381656e+003, 1.782115e-002
2.383585e+003, 1.803869e-002
2.385513e+003, 1.804946e-002
2.387442e+003, 1.811636e-002
2.389370e+003, 1.775775e-002
2.391299e+003, 1.755329e-002
2.393227e+003, 1.780349e-002
2.395156e+003, 1.840800e-002
2.397084e+003, 1.841660e-002
2.399012e+003, 1.794522e-002
2.400941e+003, 1.791897e-002
2.402869e+003, 1.782766e-002
2.404798e+003, 1.817736e-002
2.406726e+003, 1.885948e-002
2.408655e+003, 1.826662e-002
2.410583e+003, 1.787767e-002
2.412512e+003, 1.823893e-002
2.414440e+003, 1.785572e-002
2.416369e+003, 1.762298e-002
2.418297e+003, 1.764763e-002
2.420226e+003, 1.839719e-002
2.422154e+003, 1.914372e-002
2.424083e+003, 1.898346e-002
2.426011e+003, 1.884853e-002
2.427939e+003, 1.906686e-002
2.429868e+003, 1.903993e-002
2.431796e+003, 1.842949e-002
2.433725e+003, 1.839741e-002
2.435653e+003, 1.923629e-002
2.437582e+003, 1.966750e-002
2.439510e+003, 2.014297e-002
2.441439e+003, 2.039473e-002
2.443367e+003, 2.020809e-002
2.445296e+003, 1.988101e-002
2.447224e+003, 1.973549e-002
2.449153e+003, 1.971448e-002
2.451081e+003, 1.919344e-002
2.453010e+003, 1.914659e-002
2.454938e+003, 1.926185e-002
2.456866e+003, 1.942359e-002
2.458795e+003, 1.942280e-002
2.460723e+003, 1.978660e-002
2.462652e+003, 1.971956e-002
2.464580e+003, 1.963248e-002
2.466509e+003, 1.996760e-002
2.468437e+003, 1.916161e-002
2.470366e+003, 1.864644e-002
2.472294e+003, 1.912950e-002
2.474223e+003, 1.938011e-002
2.476151e+003, 1.944151e-002
2.478080e+003, 1.921350e-002
2.480008e+003, 1.964044e-002
2.481937e+003, 1.955641e-002
2.483865e+003, 2.006967e-002
2.485793e+003, 2.045875e-002
2.487722e+003, 1.999495e-002
2.489650e+003, 1.906585e-002
2.491579e+003, 1.891955e-002
2.493507e+003, 1.880402e-002
2.495436e+003, 1.895125e-002
2.497364e+003, 2.009003e-002
2.499293e+003, 2.034781e-002
2.501221e+003, 1.951949e-002
2.503150e+003, 1.966009e-002
2.505078e+003, 2.002235e-002
2.507007e+003, 2.068311e-002
2.508935e+003, 2.056131e-002
2.510864e+003, 1.987051e-002
2.512792e+003, 1.928225e-002
2.514720e+003, 1.959107e-002
2.516649e+003, 2.012957e-002
2.518577e+003, 2.012950e-002
2.520506e+003, 2.087889e-002
2.522434e+003, 2.177878e-002
2.524363e+003, 2.070773e-002
2.526291e+003, 1.955852e-002
2.528220e+003, 1.958356e-002
2.530148e+003, 2.054683e-002
2.532077e+003, 2.070152e-002
2.534005e+003, 1.997607e-002
2.535934e+003, 2.037138e-002
2.537862e+003, 2.036766e-002
2.539791e+003, 1.987622e-002
2.541719e+003, 2.058694e-002
2.543647e+003, 2.072695e-002
2.545576e+003, 2.039074e-002
2.547504e+003, 2.051122e-002
2.549433e+003, 2.163646e-002
2.551361e+003, 2.202755e-002
2.553290e+003, 2.065132e-002
2.555218e+003, 1.944749e-002
2.557147e+003, 2.006241e-002
2.559075e+003, 2.061724e-002
2.561004e+003, 2.068403e-002
2.562932e+003, 2.081214e-002
2.564861e+003, 2.124807e-002
2.566789e+003, 2.119949e-002
2.568718e+003, 1.993138e-002
2.570646e+003, 1.979078e-002
2.572574e+003, 2.067047e-002
2.574503e+003, 2.089475e-002
2.576431e+003, 2.094873e-002
2.578360e+003, 2.112189e-002
2.580288e+003, 2.103254e-002
2.582217e+003, 2.081106e-002
2.584145e+003, 2.089662e-002
2.586074e+003, 2.095129e-002
2.588002e+003, 2.107575e-002
2.589931e+003, 2.096258e-002
2.591859e+003, 2.108505e-002
2.593788e+003, 2.116015e-002
2.595716e+003, 2.199153e-002
2.597645e+003, 2.242016e-002
2.599573e+003, 2.236789e-002
2.601501e+003, 2.163111e-002
2.603430e+003, 2.114398e-002
2.605358e+003, 2.117519e-002
2.607287e+003, 2.181438e-002
2.609215e+003, 2.223189e-002
2.611144e+003, 2.233442e-002
2.613072e+003, 2.145724e-002
2.615001e+003, 2.077560e-002
2.616929e+003, 2.063347e-002
2.618858e+003, 2.127380e-002
2.620786e+003, 2.227017e-002
2.622715e+003, 2.200095e-002
2.624643e+003, 2.211506e-002
2.626572e+003, 2.260885e-002
2.628500e+003, 2.219570e-002
2.630428e+003, 2.197475e-002
2.632357e+003, 2.185853e-002
2.634285e+003, 2.160663e-002
2.636214e+003, 2.194114e-002
2.638142e+003, 2.214803e-002
2.640071e+003, 2.229232e-002
2.641999e+003, 2.190464e-002
2.643928e+003, 2.127464e-002
2.645856e+003, 2.135327e-002
2.647785e+003, 2.158481e-002
2.649713e+003, 2.167400e-002
2.651642e+003, 2.154655e-002
2.653570e+003, 2.229957e-002
2.655499e+003, 2.283454e-002
2.657427e+003, 2.254357e-002
2.659355e+003, 2.164809e-002
2.661284e+003, 2.134940e-002
2.663212e+003, 2.096637e-002
2.665141e+003, 2.070523e-002
2.667069e+003, 2.076063e-002
2.668998e+003, 2.066541e-002
2.670926e+003, 2.056586e-002
2.672855e+003, 2.077121e-002
2.674783e+003, 2.095116e-002
2.676712e+003, 2.091237e-002
2.678640e+003, 2.108003e-002
2.680569e+003, 2.081988e-002
2.682497e+003, 2.045078e-002
2.684426e+003, 2.070658e-002
2.686354e+003, 2.101211e-002
2.688282e+003, 2.077962e-002
2.690211e+003, 2.111911e-002
2.692139e+003, 2.154018e-002
2.694068e+003, 2.135752e-002
2.695996e+003, 2.188482e-002
2.697925e+003, 2.189285e-002
2.699853e+003, 2.101891e-002
2.701782e+003, 2.100726e-002
2.703710e+003, 2.112914e-002
2.705639e+003, 2.131939e-002
2.707567e+003, 2.153759e-002
2.709496e+003, 2.133352e-002
2.711424e+003, 2.111502e-002
2.713353e+003, 2.133396e-002
2.715281e+003, 2.164947e-002
2.717209e+003, 2.155632e-002
2.719138e+003, 2.118805e-002
2.721066e+003, 2.133429e-002
2.722995e+003, 2.119536e-002
2.724923e+003, 2.175218e-002
2.726852e+003, 2.200244e-002
2.728780e+003, 2.164215e-002
2.730709e+003, 2.167696e-002
2.732637e+003, 2.214841e-002
2.734566e+003, 2.242767e-002
2.736494e+003, 2.216557e-002
2.738423e+003, 2.200576e-002
2.740351e+003, 2.228344e-002
2.742280e+003, 2.233836e-002
2.744208e+003, 2.219209e-002
2.746136e+003, 2.169522e-002
2.748065e+003, 2.149836e-002
2.749993e+003, 2.177200e-002
2.751922e+003, 2.166690e-002
2.753850e+003, 2.153435e-002
2.755779e+003, 2.150097e-002
2.757707e+003, 2.177783e-002
2.759636e+003, 2.222766e-002
2.761564e+003, 2.221324e-002
2.763493e+003, 2.258630e-002
2.765421e+003, 2.258204e-002
2.767350e+003, 2.150284e-002
2.769278e+003, 2.164357e-002
2.771207e+003, 2.240434e-002
2.773135e+003, 2.203076e-002
2.775063e+003, 2.210359e-002
2.776992e+003, 2.227938e-002
2.778920e+003, 2.185527e-002
2.780849e+003, 2.190386e-002
2.782777e+003, 2.265149e-002
2.784706e+003, 2.328351e-002
2.786634e+003, 2.309167e-002
2.788563e+003, 2.350557e-002
2.790491e+003, 2.373664e-002
2.792420e+003, 2.316506e-002
2.794348e+003, 2.235662e-002
2.796277e+003, 2.164259e-002
2.798205e+003, 2.182422e-002
2.800134e+003, 2.277026e-002
2.802062e+003, 2.282812e-002
2.803990e+003, 2.224247e-002
2.805919e+003, 2.219474e-002
2.807847e+003, 2.234312e-002
2.809776e+003, 2.330233e-002
2.811704e+003, 2.353480e-002
2.813633e+003, 2.346553e-002
2.815561e+003, 2.320709e-002
2.817490e+003, 2.312398e-002
2.819418e+003, 2.307885e-002
2.821347e+003, 2.348183e-002
2.823275e+003, 2.399654e-002
2.825204e+003, 2.333595e-002
2.827132e+003, 2.322454e-002
2.829061e+003, 2.396812e-002
2.830989e+003, 2.477713e-002
2.832917e+003, 2.472691e-002
2.834846e+003, 2.334273e-002
2.836774e+003, 2.276669e-002
2.838703e+003, 2.322710e-002
2.840631e+003, 2.417233e-002
2.842560e+003, 2.433902e-002
2.844488e+003, 2.419145e-002
2.846417e+003, 2.449962e-002
2.848345e+003, 2.473258e-002
2.850274e+003, 2.553391e-002
2.852202e+003, 2.556522e-002
2.854131e+003, 2.496788e-002
2.856059e+003, 2.495564e-002
2.857988e+003, 2.465710e-002
2.859916e+003, 2.462055e-002
2.861844e+003, 2.462521e-002
2.863773e+003, 2.411947e-002
2.865701e+003, 2.409867e-002
2.867630e+003, 2.424725e-002
2.869558e+003, 2.406267e-002
2.871487e+003, 2.411787e-002
2.873415e+003, 2.441804e-002
2.875344e+003, 2.416267e-002
2.877272e+003, 2.350092e-002
2.879201e+003, 2.417653e-002
2.881129e+003, 2.475085e-002
2.883058e+003, 2.463158e-002
2.884986e+003, 2.458764e-002
2.886915e+003, 2.475449e-002
2.888843e+003, 2.509987e-002
2.890771e+003, 2.504965e-002
2.892700e+003, 2.511540e-002
2.894628e+003, 2.542717e-002
2.896557e+003, 2.536558e-002
2.898485e+003, 2.455932e-002
2.900414e+003, 2.432517e-002
2.902342e+003, 2.476908e-002
2.904271e+003, 2.486405e-002
2.906199e+003, 2.507498e-002
2.908128e+003, 2.504062e-002
2.910056e+003, 2.474806e-002
2.911985e+003, 2.605600e-002
2.913913e+003, 2.689906e-002
2.915842e+003, 2.673635e-002
2.917770e+003, 2.647109e-002
2.919698e+003, 2.605126e-002
2.921627e+003, 2.646322e-002
2.923555e+003, 2.761806e-002
2.925484e+003, 2.695780e-002
2.927412e+003, 2.593650e-002
2.929341e+003, 2.572326e-002
2.931269e+003, 2.632518e-002
2.933198e+003, 2.630600e-002
2.935126e+003, 2.590508e-002
2.937055e+003, 2.602250e-002
2.938983e+003, 2.646753e-002
2.940912e+003, 2.579267e-002
2.942840e+003, 2.541143e-002
2.944769e+003, 2.547201e-002
2.946697e+003, 2.494949e-002
2.948625e+003, 2.516055e-002
2.950554e+003, 2.492523e-002
2.952482e+003, 2.482779e-002
2.954411e+003, 2.493724e-002
2.956339e+003, 2.544401e-002
2.958268e+003, 2.593296e-002
2.960196e+003, 2.589569e-002
2.962125e+003, 2.658034e-002
2.964053e+003, 2.626624e-002
2.965982e+003, 2.553426e-002
2.967910e+003, 2.604951e-002
2.969839e+003, 2.537068e-002
2.971767e+003, 2.428412e-002
2.973696e+003, 2.501591e-002
2.975624e+003, 2.610307e-002
2.977552e+003, 2.587778e-002
2.979481e+003, 2.533305e-002
2.981409e+003, 2.589944e-002
2.983338e+003, 2.601913e-002
2.985266e+003, 2.574950e-002
2.987195e+003, 2.621337e-002
2.989123e+003, 2.695873e-002
2.991052e+003, 2.652936e-002
2.992980e+003, 2.564832e-002
2.994909e+003, 2.561453e-002
2.996837e+003, 2.543419e-002
2.998766e+003, 2.574906e-002
3.000694e+003, 2.649895e-002
3.002623e+003, 2.673383e-002
3.004551e+003, 2.639844e-002
3.006479e+003, 2.621151e-002
3.008408e+003, 2.558259e-002
3.010336e+003, 2.500451e-002
3.012265e+003, 2.533149e-002
3.014193e+003, 2.599046e-002
3.016122e+003, 2.641995e-002
3.018050e+003, 2.650863e-002
3.019979e+003, 2.691526e-002
3.021907e+003, 2.663430e-002
3.023836e+003, 2.573433e-002
3.025764e+003, 2.536736e-002
3.027693e+003, 2.549356e-002
3.029621e+003, 2.579211e-002
3.031550e+003, 2.728290e-002
3.033478e+003, 2.706086e-002
3.035406e+003, 2.682950e-002
3.037335e+003, 2.669682e-002
3.039263e+003, 2.662657e-002
3.041192e+003, 2.725525e-002
3.043120e+003, 2.705159e-002
3.045049e+003, 2.602183e-002
3.046977e+003, 2.534577e-002
3.048906e+003, 2.583912e-002
3.050834e+003, 2.739075e-002
3.052763e+003, 2.768437e-002
3.054691e+003, 2.710991e-002
3.056620e+003, 2.705170e-002
3.058548e+003, 2.658879e-002
3.060477e+003, 2.756403e-002
3.062405e+003, 2.833009e-002
3.064333e+003, 2.781982e-002
3.066262e+003, 2.730779e-002
3.068190e+003, 2.747221e-002
3.070119e+003, 2.737946e-002
3.072047e+003, 2.713354e-002
3.073976e+003, 2.688900e-002
3.075904e+003, 2.738999e-002
3.077833e+003, 2.745447e-002
3.079761e+003, 2.764216e-002
3.081690e+003, 2.792324e-002
3.083618e+003, 2.848762e-002
3.085547e+003, 2.807741e-002
3.087475e+003, 2.738032e-002
3.089404e+003, 2.733031e-002
3.091332e+003, 2.748360e-002
3.093260e+003, 2.761197e-002
3.095189e+003, 2.768249e-002
3.097117e+003, 2.770187e-002
3.099046e+003, 2.770824e-002
3.100974e+003, 2.813089e-002
3.102903e+003, 2.898197e-002
3.104831e+003, 2.935855e-002
3.106760e+003, 2.881167e-002
3.108688e+003, 2.839548e-002
3.110617e+003, 2.871790e-002
3.112545e+003, 2.814064e-002
3.114474e+003, 2.808027e-002
3.116402e+003, 2.882746e-002
3.118331e+003, 2.835222e-002
3.120259e+003, 2.744476e-002
3.122188e+003, 2.762855e-002
3.124116e+003, 2.853273e-002
3.126044e+003, 2.816739e-002
3.127973e+003, 2.746155e-002
3.129901e+003, 2.803914e-002
3.131830e+003, 2.827764e-002
3.133758e+003, 2.797742e-002
3.135687e+003, 2.834608e-002
3.137615e+003, 2.830918e-002
3.139544e+003, 2.869871e-002
3.141472e+003, 2.932870e-002
3.143401e+003, 2.873954e-002
3.145329e+003, 2.887380e-002
3.147258e+003, 2.952609e-002
3.149186e+003, 2.933078e-002
3.151115e+003, 2.956137e-002
3.153043e+003, 2.970900e-002
3.154971e+003, 2.935084e-002
3.156900e+003, 2.950990e-002
3.158828e+003, 2.904911e-002
3.160757e+003, 2.941723e-002
3.162685e+003, 2.985461e-002
3.164614e+003, 2.924618e-002
3.166542e+003, 2.895983e-002
3.168471e+003, 2.926948e-002
3.170399e+003, 3.003794e-002
3.172328e+003, 3.047243e-002
3.174256e+003, 3.098687e-002
3.176185e+003, 3.081372e-002
3.178113e+003, 2.953888e-002
3.180042e+003, 2.904795e-002
3.181970e+003, 2.974395e-002
3.183898e+003, 2.954061e-002
3.185827e+003, 2.918146e-002
3.187755e+003, 2.998956e-002
3.189684e+003, 3.070428e-002
3.191612e+003, 3.071833e-002
3.193541e+003, 3.104401e-002
3.195469e+003, 3.071420e-002
3.197398e+003, 3.013966e-002
3.199326e+003, 2.972952e-002
3.201255e+003, 2.883933e-002
3.203183e+003, 2.895454e-002
3.205112e+003, 3.026609e-002
3.207040e+003, 3.080414e-002
3.208969e+003, 3.066187e-002
3.210897e+003, 3.035530e-002
3.212825e+003, 3.102294e-002
3.214754e+003, 3.108978e-002
3.216682e+003, 3.057187e-002
3.218611e+003, 3.039505e-002
3.220539e+003, 3.020485e-002
3.222468e+003, 2.960312e-002
3.224396e+003, 2.922305e-002
3.226325e+003, 3.009937e-002
3.228253e+003, 3.119834e-002
3.230182e+003, 3.049958e-002
3.232110e+003, 3.013032e-002
3.234039e+003, 3.066471e-002
3.235967e+003, 2.999606e-002
3.237896e+003, 3.118348e-002
3.239824e+003, 3.198517e-002
3.241752e+003, 3.094477e-002
3.243681e+003, 3.026588e-002
3.245609e+003, 3.048391e-002
3.247538e+003, 3.081203e-002
3.249466e+003, 3.122066e-002
3.251395e+003, 3.170726e-002
3.253323e+003, 3.254845e-002
3.255252e+003, 3.239374e-002
3.257180e+003, 3.134956e-002
3.259109e+003, 3.140490e-002
3.261037e+003, 3.117292e-002
3.262966e+003, 3.084338e-002
3.264894e+003, 3.109414e-002
3.266823e+003, 3.120160e-002
3.268751e+003, 3.054807e-002
3.270679e+003, 2.988237e-002
3.272608e+003, 3.135857e-002
3.274536e+003, 3.337105e-002
3.276465e+003, 3.248425e-002
3.278393e+003, 3.105024e-002
3.280322e+003, 3.172975e-002
3.282250e+003, 3.249333e-002
3.284179e+003, 3.258017e-002
3.286107e+003, 3.122945e-002
3.288036e+003, 3.085222e-002
3.289964e+003, 3.122742e-002
3.291893e+003, 3.122821e-002
3.293821e+003, 3.085424e-002
3.295750e+003, 3.134410e-002
3.297678e+003, 3.114532e-002
3.299606e+003, 3.077274e-002
3.301535e+003, 3.065155e-002
3.303463e+003, 3.111372e-002
3.305392e+003, 3.104310e-002
3.307320e+003, 3.127585e-002
3.309249e+003, 3.146543e-002
3.311177e+003, 3.156042e-002
3.313106e+003, 3.252727e-002
3.315034e+003, 3.309084e-002
3.316963e+003, 3.257791e-002
3.318891e+003, 3.221744e-002
3.320820e+003, 3.201078e-002
3.322748e+003, 3.278183e-002
3.324677e+003, 3.252491e-002
3.326605e+003, 3.163218e-002
3.328533e+003, 3.090588e-002
3.330462e+003, 2.978269e-002
3.332390e+003, 2.910245e-002
3.334319e+003, 2.944912e-002
3.336247e+003, 3.115966e-002
3.338176e+003, 3.230952e-002
3.340104e+003, 3.164166e-002
3.342033e+003, 3.108548e-002
3.343961e+003, 3.093201e-002
3.345890e+003, 3.086174e-002
3.347818e+003, 3.084427e-002
3.349747e+003, 3.151425e-002
3.351675e+003, 3.219365e-002
3.353604e+003, 3.185103e-002
3.355532e+003, 3.105958e-002
3.357460e+003, 3.101645e-002
3.359389e+003, 3.107516e-002
3.361317e+003, 3.135806e-002
3.363246e+003, 3.115504e-002
3.365174e+003, 3.203081e-002
3.367103e+003, 3.212746e-002
3.369031e+003, 3.161882e-002
3.370960e+003, 3.176232e-002
3.372888e+003, 3.139795e-002
3.374817e+003, 3.222073e-002
3.376745e+003, 3.204819e-002
3.378674e+003, 3.218290e-002
3.380602e+003, 3.459596e-002
3.382531e+003, 3.419210e-002
3.384459e+003, 3.206076e-002
3.386387e+003, 3.230175e-002
3.388316e+003, 3.286385e-002
3.390244e+003, 3.316711e-002
3.392173e+003, 3.396855e-002
3.394101e+003, 3.333802e-002
3.396030e+003, 3.109396e-002
3.397958e+003, 3.153708e-002
3.399887e+003, 3.259014e-002
3.401815e+003, 3.207862e-002
3.403744e+003, 3.190307e-002
3.405672e+003, 3.260977e-002
3.407601e+003, 3.260108e-002
3.409529e+003, 3.224128e-002
3.411458e+003, 3.255093e-002
3.413386e+003, 3.338693e-002
3.415314e+003, 3.384201e-002
3.417243e+003, 3.316694e-002
3.419171e+003, 3.260764e-002
3.421100e+003, 3.274887e-002
3.423028e+003, 3.241789e-002
3.424957e+003, 3.223538e-002
3.426885e+003, 3.239185e-002
3.428814e+003, 3.220588e-002
3.430742e+003, 3.023929e-002
3.432671e+003, 3.075291e-002
3.434599e+003, 3.300407e-002
3.436528e+003, 3.335654e-002
3.438456e+003, 3.170493e-002
3.440385e+003, 3.285011e-002
3.442313e+003, 3.378186e-002
3.444241e+003, 3.365451e-002
3.446170e+003, 3.238005e-002
3.448098e+003, 3.111108e-002
3.450027e+003, 3.183753e-002
3.451955e+003, 3.334844e-002
3.453884e+003, 3.359373e-002
3.455812e+003, 3.341718e-002
3.457741e+003, 3.262848e-002
3.459669e+003, 3.200307e-002
3.461598e+003, 3.161772e-002
3.463526e+003, 3.296010e-002
3.465455e+003, 3.304525e-002
3.467383e+003, 3.222536e-002
3.469312e+003, 3.283878e-002
3.471240e+003, 3.288593e-002
3.473168e+003, 3.238471e-002
3.475097e+003, 3.293039e-002
3.477025e+003, 3.461720e-002
3.478954e+003, 3.584889e-002
3.480882e+003, 3.479935e-002
3.482811e+003, 3.295487e-002
3.484739e+003, 3.172306e-002
3.486668e+003, 3.143598e-002
3.488596e+003, 3.148823e-002
3.490525e+003, 3.122773e-002
3.492453e+003, 3.069162e-002
3.494382e+003, 3.091745e-002
3.496310e+003, 3.103675e-002
3.498239e+003, 3.194660e-002
3.500167e+003, 3.339931e-002
3.502095e+003, 3.179366e-002
3.504024e+003, 3.185067e-002
3.505952e+003, 3.223405e-002
3.507881e+003, 3.199818e-002
3.509809e+003, 3.248069e-002
3.511738e+003, 3.171709e-002
3.513666e+003, 3.087619e-002
3.515595e+003, 3.243362e-002
3.517523e+003, 3.314437e-002
3.519452e+003, 3.151386e-002
3.521380e+003, 2.976801e-002
3.523309e+003, 3.084455e-002
3.525237e+003, 3.199732e-002
3.527166e+003, 3.203155e-002
3.529094e+003, 3.180351e-002
3.531022e+003, 3.297092e-002
3.532951e+003, 3.303767e-002
3.534879e+003, 3.264768e-002
3.536808e+003, 3.278587e-002
3.538736e+003, 3.304381e-002
3.540665e+003, 3.244479e-002
3.542593e+003, 3.154283e-002
3.544522e+003, 3.108191e-002
3.546450e+003, 3.146487e-002
3.548379e+003, 3.174364e-002
3.550307e+003, 3.234988e-002
3.552236e+003, 3.213722e-002
3.554164e+003, 3.286909e-002
3.556093e+003, 3.342382e-002
3.558021e+003, 3.294706e-002
3.559949e+003, 3.194211e-002
3.561878e+003, 3.189889e-002
3.563806e+003, 3.330913e-002
3.565735e+003, 3.302036e-002
3.567663e+003, 3.278310e-002
3.569592e+003, 3.288897e-002
3.571520e+003, 3.217570e-002
3.573449e+003, 3.204085e-002
3.575377e+003, 3.157157e-002
3.577306e+003, 3.216512e-002
3.579234e+003, 3.281548e-002
3.581163e+003, 3.294596e-002
3.583091e+003, 3.202999e-002
3.585020e+003, 3.187776e-002
3.586948e+003, 3.163092e-002
3.588876e+003, 3.204191e-002
3.590805e+003, 3.260572e-002
3.592733e+003, 3.007210e-002
3.594662e+003, 2.910805e-002
3.596590e+003, 2.952075e-002
3.598519e+003, 3.147167e-002
3.600447e+003, 3.356086e-002
3.602376e+003, 3.272705e-002
3.604304e+003, 2.977898e-002
3.606233e+003, 3.035772e-002
3.608161e+003, 3.100295e-002
3.610090e+003, 2.958909e-002
3.612018e+003, 2.719827e-002
3.613947e+003, 2.942653e-002
3.615875e+003, 2.988644e-002
3.617803e+003, 2.919601e-002
3.619732e+003, 2.909974e-002
3.621660e+003, 2.834856e-002
3.623589e+003, 2.833682e-002
3.625517e+003, 3.009356e-002
3.627446e+003, 3.037099e-002
3.629374e+003, 3.043223e-002
3.631303e+003, 3.120022e-002
3.633231e+003, 3.159782e-002
3.635160e+003, 3.086575e-002
3.637088e+003, 2.919254e-002
3.639017e+003, 2.856127e-002
3.640945e+003, 2.888150e-002
3.642874e+003, 3.013468e-002
3.644802e+003, 2.978228e-002
3.646730e+003, 3.131926e-002
3.648659e+003, 3.328544e-002
3.650587e+003, 3.262878e-002
3.652516e+003, 3.072623e-002
3.654444e+003, 2.996632e-002
3.656373e+003, 3.052623e-002
3.658301e+003, 3.153998e-002
3.660230e+003, 3.128128e-002
3.662158e+003, 3.053869e-002
3.664087e+003, 3.102397e-002
3.666015e+003, 3.168781e-002
3.667944e+003, 3.260026e-002
3.669872e+003, 3.294856e-002
3.671801e+003, 3.060794e-002
3.673729e+003, 3.076351e-002
3.675657e+003, 3.045156e-002
3.677586e+003, 3.088153e-002
3.679514e+003, 3.079320e-002
3.681443e+003, 3.016442e-002
3.683371e+003, 2.939305e-002
3.685300e+003, 2.884744e-002
3.687228e+003, 3.034176e-002
3.689157e+003, 2.956141e-002
3.691085e+003, 3.020142e-002
3.693014e+003, 3.225367e-002
3.694942e+003, 3.105894e-002
3.696871e+003, 2.998483e-002
3.698799e+003, 3.045465e-002
3.700728e+003, 3.166549e-002
3.702656e+003, 3.144879e-002
3.704584e+003, 3.103302e-002
3.706513e+003, 2.969514e-002
3.708441e+003, 2.981571e-002
3.710370e+003, 3.214002e-002
3.712298e+003, 3.350188e-002
3.714227e+003, 3.376243e-002
3.716155e+003, 3.356611e-002
3.718084e+003, 3.234902e-002
3.720012e+003, 3.261918e-002
3.721941e+003, 3.310743e-002
3.723869e+003, 3.358570e-002
3.725798e+003, 3.395370e-002
3.727726e+003, 3.333777e-002
3.729655e+003, 3.268547e-002
3.731583e+003, 3.097366e-002
3.733511e+003, 3.067098e-002
3.735440e+003, 3.082476e-002
3.737368e+003, 3.148602e-002
3.739297e+003, 3.033143e-002
3.741225e+003, 3.014335e-002
3.743154e+003, 2.997537e-002
3.745082e+003, 3.190258e-002
3.747011e+003, 3.254290e-002
3.748939e+003, 3.034518e-002
3.750868e+003, 3.049777e-002
3.752796e+003, 3.172456e-002
3.754725e+003, 3.103844e-002
3.756653e+003, 3.158699e-002
3.758582e+003, 3.250923e-002
3.760510e+003, 3.265620e-002
3.762438e+003, 3.251517e-002
3.764367e+003, 3.291209e-002
3.766295e+003, 3.251104e-002
3.768224e+003, 3.203533e-002
3.770152e+003, 3.211041e-002
3.772081e+003, 3.192993e-002
3.774009e+003, 3.191244e-002
3.775938e+003, 3.253686e-002
3.777866e+003, 3.355471e-002
3.779795e+003, 3.238536e-002
3.781723e+003, 3.064142e-002
3.783652e+003, 3.066681e-002
3.785580e+003, 3.080855e-002
3.787509e+003, 3.258269e-002
3.789437e+003, 3.444285e-002
3.791365e+003, 3.287678e-002
3.793294e+003, 3.046911e-002
3.795222e+003, 3.099624e-002
3.797151e+003, 3.450562e-002
3.799079e+003, 3.431392e-002
3.801008e+003, 3.333598e-002
3.802936e+003, 3.211998e-002
3.804865e+003, 2.990370e-002
3.806793e+003, 2.964791e-002
3.808722e+003, 3.072783e-002
3.810650e+003, 3.106409e-002
3.812579e+003, 3.270436e-002
3.814507e+003, 3.340820e-002
3.816436e+003, 3.089895e-002
3.818364e+003, 3.143977e-002
3.820292e+003, 3.229675e-002
3.822221e+003, 3.123780e-002
3.824149e+003, 3.274610e-002
3.826078e+003, 3.563013e-002
3.828006e+003, 3.512104e-002
3.829935e+003, 3.344008e-002
3.831863e+003, 3.176579e-002
3.833792e+003, 3.022590e-002
3.835720e+003, 3.185607e-002
3.837649e+003, 3.307085e-002
3.839577e+003, 3.370769e-002
3.841506e+003, 3.496915e-002
3.843434e+003, 3.348114e-002
3.845363e+003, 3.138731e-002
3.847291e+003, 3.130812e-002
3.849219e+003, 3.207111e-002
3.851148e+003, 3.360958e-002
3.853076e+003, 3.345133e-002
3.855005e+003, 3.041072e-002
3.856933e+003, 2.984295e-002
3.858862e+003, 3.114174e-002
3.860790e+003, 3.240497e-002
3.862719e+003, 3.478337e-002
3.864647e+003, 3.504758e-002
3.866576e+003, 3.395097e-002
3.868504e+003, 3.251629e-002
3.870433e+003, 3.058276e-002
3.872361e+003, 3.059764e-002
3.874290e+003, 3.215688e-002
3.876218e+003, 3.039309e-002
3.878146e+003, 2.934686e-002
3.880075e+003, 3.027858e-002
3.882003e+003, 3.151343e-002
3.883932e+003, 3.349045e-002
3.885860e+003, 3.655301e-002
3.887789e+003, 3.758170e-002
3.889717e+003, 3.530292e-002
3.891646e+003, 3.331974e-002
3.893574e+003, 3.258737e-002
3.895503e+003, 3.312212e-002
3.897431e+003, 3.403545e-002
3.899360e+003, 3.339053e-002
3.901288e+003, 3.438472e-002
3.903217e+003, 3.361784e-002
3.905145e+003, 3.291994e-002
3.907073e+003, 3.128375e-002
3.909002e+003, 3.059959e-002
3.910930e+003, 3.222339e-002
3.912859e+003, 3.244066e-002
3.914787e+003, 3.311637e-002
3.916716e+003, 3.376995e-002
3.918644e+003, 3.443168e-002
3.920573e+003, 3.430931e-002
3.922501e+003, 3.135730e-002
3.924430e+003, 2.989055e-002
3.926358e+003, 3.302571e-002
3.928287e+003, 3.427298e-002
3.930215e+003, 3.346652e-002
3.932144e+003, 3.252681e-002
3.934072e+003, 3.149246e-002
3.936000e+003, 2.903237e-002
3.937929e+003, 3.018738e-002
3.939857e+003, 3.324541e-002
3.941786e+003, 3.376255e-002
3.943714e+003, 3.334905e-002
3.945643e+003, 3.319898e-002
3.947571e+003, 3.494265e-002
3.949500e+003, 3.457357e-002
3.951428e+003, 3.332990e-002
3.953357e+003, 3.404601e-002
3.955285e+003, 3.558889e-002
3.957214e+003, 3.701092e-002
3.959142e+003, 3.754986e-002
3.961071e+003, 3.532567e-002
3.962999e+003, 3.357196e-002
3.964927e+003, 3.370783e-002
3.966856e+003, 3.387468e-002
3.968784e+003, 3.563426e-002
3.970713e+003, 3.623192e-002
3.972641e+003, 3.530747e-002
3.974570e+003, 3.569449e-002
3.976498e+003, 3.614152e-002
3.978427e+003, 3.477385e-002
3.980355e+003, 3.322170e-002
3.982284e+003, 3.281854e-002
3.984212e+003, 3.363664e-002
3.986141e+003, 3.487792e-002
3.988069e+003, 3.488425e-002
3.989998e+003, 3.363706e-002
3.991926e+003, 3.240799e-002
3.993854e+003, 3.352163e-002
3.995783e+003, 3.398034e-002
3.997711e+003, 3.259860e-002
3.999640e+003, 3.261471e-002
4.001568e+003, 0.000000e+000
##END=



