##NAMES=Amblygonite
##RRUFFID=R040067
##IDEAL CHEMISTRY=LiAlPO_4_F
##LOCALITY=Montebras, France
##OWNER=RRUFF
##SOURCE=University of Arizona Mineral Museum
##DESCRIPTION=Pale blue fine-grained massive, associated with wavellite
##STATUS=The identification of this mineral has been confirmed by X-ray diffraction and chemical analysis
##URL=rruff.info/R040067
##MEASURED CHEMISTRY=(Li_0.76_Na_0.24_)Al(PO_4_)(F_0.80_(OH)_0.20_)
3.991926e+002, 0.000000e+000
4.011211e+002, 2.443583e-001
4.030496e+002, 2.454811e-001
4.049780e+002, 2.401605e-001
4.069065e+002, 2.411457e-001
4.088350e+002, 2.409081e-001
4.107634e+002, 2.392793e-001
4.126919e+002, 2.381348e-001
4.146204e+002, 2.378736e-001
4.165488e+002, 2.336444e-001
4.184773e+002, 2.285768e-001
4.204058e+002, 2.252859e-001
4.223342e+002, 2.210018e-001
4.242627e+002, 2.179692e-001
4.261912e+002, 2.173623e-001
4.281196e+002, 2.176313e-001
4.300481e+002, 2.146930e-001
4.319766e+002, 2.097591e-001
4.339050e+002, 2.071841e-001
4.358335e+002, 2.072125e-001
4.377620e+002, 2.089445e-001
4.396904e+002, 2.112192e-001
4.416189e+002, 2.132619e-001
4.435474e+002, 2.158431e-001
4.454758e+002, 2.206143e-001
4.474043e+002, 2.251206e-001
4.493328e+002, 2.289455e-001
4.512612e+002, 2.311098e-001
4.531897e+002, 2.336775e-001
4.551182e+002, 2.361382e-001
4.570466e+002, 2.364654e-001
4.589751e+002, 2.357715e-001
4.609036e+002, 2.379294e-001
4.628320e+002, 2.420322e-001
4.647605e+002, 2.428972e-001
4.666890e+002, 2.413994e-001
4.686174e+002, 2.422164e-001
4.705459e+002, 2.428848e-001
4.724744e+002, 2.410882e-001
4.744028e+002, 2.397278e-001
4.763313e+002, 2.385867e-001
4.782598e+002, 2.354912e-001
4.801882e+002, 2.298679e-001
4.821167e+002, 2.251725e-001
4.840452e+002, 2.228739e-001
4.859736e+002, 2.191405e-001
4.879021e+002, 2.141767e-001
4.898306e+002, 2.090303e-001
4.917590e+002, 2.040525e-001
4.936875e+002, 1.989126e-001
4.956160e+002, 1.944131e-001
4.975444e+002, 1.890261e-001
4.994729e+002, 1.840676e-001
5.014014e+002, 1.798104e-001
5.033298e+002, 1.759716e-001
5.052583e+002, 1.727988e-001
5.071868e+002, 1.694175e-001
5.091152e+002, 1.672525e-001
5.110437e+002, 1.652683e-001
5.129722e+002, 1.630737e-001
5.149006e+002, 1.618350e-001
5.168291e+002, 1.614681e-001
5.187576e+002, 1.612408e-001
5.206860e+002, 1.604226e-001
5.226145e+002, 1.602240e-001
5.245430e+002, 1.617806e-001
5.264714e+002, 1.636765e-001
5.283999e+002, 1.649321e-001
5.303284e+002, 1.659154e-001
5.322568e+002, 1.668646e-001
5.341853e+002, 1.677033e-001
5.361138e+002, 1.672932e-001
5.380422e+002, 1.665418e-001
5.399707e+002, 1.646117e-001
5.418992e+002, 1.621717e-001
5.438276e+002, 1.604573e-001
5.457561e+002, 1.581399e-001
5.476846e+002, 1.548084e-001
5.496130e+002, 1.521247e-001
5.515415e+002, 1.495174e-001
5.534700e+002, 1.467327e-001
5.553984e+002, 1.440552e-001
5.573269e+002, 1.415302e-001
5.592554e+002, 1.387018e-001
5.611838e+002, 1.357790e-001
5.631123e+002, 1.330140e-001
5.650408e+002, 1.304485e-001
5.669692e+002, 1.281426e-001
5.688977e+002, 1.261537e-001
5.708262e+002, 1.247899e-001
5.727546e+002, 1.232927e-001
5.746831e+002, 1.216171e-001
5.766116e+002, 1.209360e-001
5.785400e+002, 1.210111e-001
5.804685e+002, 1.213093e-001
5.823970e+002, 1.225982e-001
5.843254e+002, 1.244019e-001
5.862539e+002, 1.266591e-001
5.881824e+002, 1.286996e-001
5.901108e+002, 1.302881e-001
5.920393e+002, 1.303855e-001
5.939678e+002, 1.286822e-001
5.958962e+002, 1.262481e-001
5.978247e+002, 1.234909e-001
5.997532e+002, 1.202751e-001
6.016816e+002, 1.171759e-001
6.036101e+002, 1.147639e-001
6.055386e+002, 1.127593e-001
6.074670e+002, 1.108103e-001
6.093955e+002, 1.094049e-001
6.113240e+002, 1.087259e-001
6.132524e+002, 1.079643e-001
6.151809e+002, 1.071523e-001
6.171094e+002, 1.063287e-001
6.190378e+002, 1.056574e-001
6.209663e+002, 1.052215e-001
6.228948e+002, 1.052430e-001
6.248232e+002, 1.052324e-001
6.267517e+002, 1.053834e-001
6.286802e+002, 1.055761e-001
6.306086e+002, 1.058963e-001
6.325371e+002, 1.063434e-001
6.344656e+002, 1.069508e-001
6.363940e+002, 1.074224e-001
6.383225e+002, 1.076686e-001
6.402510e+002, 1.070518e-001
6.421794e+002, 1.052500e-001
6.441079e+002, 1.032384e-001
6.460364e+002, 1.013026e-001
6.479648e+002, 9.840459e-002
6.498933e+002, 9.543766e-002
6.518218e+002, 9.241939e-002
6.537502e+002, 8.932273e-002
6.556787e+002, 8.671679e-002
6.576072e+002, 8.405123e-002
6.595356e+002, 8.122975e-002
6.614641e+002, 7.869491e-002
6.633926e+002, 7.601245e-002
6.653210e+002, 7.333747e-002
6.672495e+002, 7.099649e-002
6.691780e+002, 6.846368e-002
6.711064e+002, 6.586231e-002
6.730349e+002, 6.305020e-002
6.749634e+002, 6.015469e-002
6.768918e+002, 5.764480e-002
6.788203e+002, 5.514083e-002
6.807488e+002, 5.246339e-002
6.826772e+002, 5.014866e-002
6.846057e+002, 4.777968e-002
6.865342e+002, 4.561060e-002
6.884626e+002, 4.340231e-002
6.903911e+002, 4.125862e-002
6.923196e+002, 3.954799e-002
6.942480e+002, 3.784098e-002
6.961765e+002, 3.641069e-002
6.981050e+002, 3.478912e-002
7.000334e+002, 3.297163e-002
7.019619e+002, 3.180548e-002
7.038904e+002, 3.090015e-002
7.058188e+002, 2.999335e-002
7.077473e+002, 2.926081e-002
7.096758e+002, 2.860876e-002
7.116042e+002, 2.803090e-002
7.135327e+002, 2.749865e-002
7.154612e+002, 2.704803e-002
7.173896e+002, 2.661787e-002
7.193181e+002, 2.648652e-002
7.212466e+002, 2.635750e-002
7.231750e+002, 2.602661e-002
7.251035e+002, 2.567064e-002
7.270320e+002, 2.543390e-002
7.289604e+002, 2.496140e-002
7.308889e+002, 2.484871e-002
7.328174e+002, 2.474750e-002
7.347458e+002, 2.472886e-002
7.366743e+002, 2.489385e-002
7.386028e+002, 2.476980e-002
7.405313e+002, 2.437819e-002
7.424597e+002, 2.412080e-002
7.443882e+002, 2.417325e-002
7.463167e+002, 2.427734e-002
7.482451e+002, 2.453445e-002
7.501736e+002, 2.465487e-002
7.521021e+002, 2.466404e-002
7.540305e+002, 2.503456e-002
7.559590e+002, 2.549710e-002
7.578875e+002, 2.583298e-002
7.598159e+002, 2.586419e-002
7.617444e+002, 2.584844e-002
7.636729e+002, 2.599575e-002
7.656013e+002, 2.611556e-002
7.675298e+002, 2.601681e-002
7.694583e+002, 2.619084e-002
7.713867e+002, 2.675357e-002
7.733152e+002, 2.758919e-002
7.752437e+002, 2.832109e-002
7.771721e+002, 2.912491e-002
7.791006e+002, 2.989733e-002
7.810291e+002, 3.065319e-002
7.829575e+002, 3.149997e-002
7.848860e+002, 3.243519e-002
7.868145e+002, 3.363733e-002
7.887429e+002, 3.531153e-002
7.906714e+002, 3.719502e-002
7.925999e+002, 3.894462e-002
7.945283e+002, 4.121837e-002
7.964568e+002, 4.384969e-002
7.983853e+002, 4.644512e-002
8.003137e+002, 4.908025e-002
8.022422e+002, 5.168861e-002
8.041707e+002, 5.428855e-002
8.060991e+002, 5.672824e-002
8.080276e+002, 5.917487e-002
8.099561e+002, 6.149152e-002
8.118845e+002, 6.366147e-002
8.138130e+002, 6.546349e-002
8.157415e+002, 6.695084e-002
8.176699e+002, 6.810703e-002
8.195984e+002, 6.871571e-002
8.215269e+002, 6.888255e-002
8.234553e+002, 6.831302e-002
8.253838e+002, 6.733070e-002
8.273123e+002, 6.617735e-002
8.292407e+002, 6.425889e-002
8.311692e+002, 6.177877e-002
8.330977e+002, 5.927876e-002
8.350261e+002, 5.638672e-002
8.369546e+002, 5.321322e-002
8.388831e+002, 4.993698e-002
8.408115e+002, 4.678003e-002
8.427400e+002, 4.368768e-002
8.446685e+002, 4.070791e-002
8.465969e+002, 3.796399e-002
8.485254e+002, 3.562659e-002
8.504539e+002, 3.390240e-002
8.523823e+002, 3.276226e-002
8.543108e+002, 3.164474e-002
8.562393e+002, 3.088723e-002
8.581677e+002, 3.042524e-002
8.600962e+002, 3.015073e-002
8.620247e+002, 2.977129e-002
8.639531e+002, 2.956488e-002
8.658816e+002, 2.956733e-002
8.678101e+002, 2.968512e-002
8.697385e+002, 2.968168e-002
8.716670e+002, 2.965575e-002
8.735955e+002, 2.987327e-002
8.755239e+002, 2.997916e-002
8.774524e+002, 3.006689e-002
8.793809e+002, 3.021129e-002
8.813093e+002, 3.023188e-002
8.832378e+002, 3.050045e-002
8.851663e+002, 3.104368e-002
8.870947e+002, 3.152080e-002
8.890232e+002, 3.172562e-002
8.909517e+002, 3.218124e-002
8.928801e+002, 3.297612e-002
8.948085e+002, 3.361007e-002
8.967370e+002, 3.408111e-002
8.986655e+002, 3.459590e-002
9.005939e+002, 3.525177e-002
9.025224e+002, 3.610795e-002
9.044509e+002, 3.714623e-002
9.063793e+002, 3.770219e-002
9.083078e+002, 3.822451e-002
9.102363e+002, 3.903690e-002
9.121647e+002, 4.002408e-002
9.140932e+002, 4.117618e-002
9.160217e+002, 4.217095e-002
9.179501e+002, 4.321114e-002
9.198786e+002, 4.417222e-002
9.218071e+002, 4.496371e-002
9.237355e+002, 4.574391e-002
9.256640e+002, 4.668952e-002
9.275925e+002, 4.776204e-002
9.295209e+002, 4.879752e-002
9.314494e+002, 4.985313e-002
9.333779e+002, 5.116343e-002
9.353063e+002, 5.278366e-002
9.372348e+002, 5.456083e-002
9.391633e+002, 5.630582e-002
9.410917e+002, 5.803331e-002
9.430202e+002, 6.018535e-002
9.449487e+002, 6.259017e-002
9.468771e+002, 6.500828e-002
9.488056e+002, 6.780265e-002
9.507341e+002, 7.110078e-002
9.526625e+002, 7.444648e-002
9.545910e+002, 7.793630e-002
9.565195e+002, 8.147324e-002
9.584479e+002, 8.534582e-002
9.603764e+002, 8.933004e-002
9.623049e+002, 9.330476e-002
9.642333e+002, 9.753689e-002
9.661618e+002, 1.019840e-001
9.680903e+002, 1.065642e-001
9.700187e+002, 1.114773e-001
9.719472e+002, 1.169684e-001
9.738757e+002, 1.228457e-001
9.758041e+002, 1.293821e-001
9.777326e+002, 1.366949e-001
9.796611e+002, 1.447100e-001
9.815895e+002, 1.532887e-001
9.835180e+002, 1.626299e-001
9.854465e+002, 1.728490e-001
9.873749e+002, 1.835243e-001
9.893034e+002, 1.949659e-001
9.912319e+002, 2.068927e-001
9.931603e+002, 2.188043e-001
9.950888e+002, 2.307438e-001
9.970173e+002, 2.421102e-001
9.989457e+002, 2.525247e-001
1.000874e+003, 2.619667e-001
1.002803e+003, 2.700513e-001
1.004731e+003, 2.763638e-001
1.006660e+003, 2.808332e-001
1.008588e+003, 2.837911e-001
1.010517e+003, 2.860585e-001
1.012445e+003, 2.880385e-001
1.014373e+003, 2.894019e-001
1.016302e+003, 2.905954e-001
1.018230e+003, 2.913692e-001
1.020159e+003, 2.908981e-001
1.022087e+003, 2.888679e-001
1.024016e+003, 2.855701e-001
1.025944e+003, 2.812319e-001
1.027873e+003, 2.767125e-001
1.029801e+003, 2.727379e-001
1.031730e+003, 2.702474e-001
1.033658e+003, 2.695450e-001
1.035587e+003, 2.703119e-001
1.037515e+003, 2.725371e-001
1.039444e+003, 2.760336e-001
1.041372e+003, 2.809565e-001
1.043301e+003, 2.870699e-001
1.045229e+003, 2.941975e-001
1.047157e+003, 3.022613e-001
1.049086e+003, 3.107640e-001
1.051014e+003, 3.194893e-001
1.052943e+003, 3.273411e-001
1.054871e+003, 3.340207e-001
1.056800e+003, 3.401336e-001
1.058728e+003, 3.448894e-001
1.060657e+003, 3.477884e-001
1.062585e+003, 3.493012e-001
1.064514e+003, 3.495228e-001
1.066442e+003, 3.479170e-001
1.068371e+003, 3.452928e-001
1.070299e+003, 3.422354e-001
1.072228e+003, 3.387447e-001
1.074156e+003, 3.341388e-001
1.076084e+003, 3.288582e-001
1.078013e+003, 3.232235e-001
1.079941e+003, 3.171740e-001
1.081870e+003, 3.105921e-001
1.083798e+003, 3.035956e-001
1.085727e+003, 2.964592e-001
1.087655e+003, 2.888404e-001
1.089584e+003, 2.812901e-001
1.091512e+003, 2.737790e-001
1.093441e+003, 2.661493e-001
1.095369e+003, 2.584524e-001
1.097298e+003, 2.512399e-001
1.099226e+003, 2.441766e-001
1.101155e+003, 2.368831e-001
1.103083e+003, 2.295545e-001
1.105011e+003, 2.228643e-001
1.106940e+003, 2.163958e-001
1.108868e+003, 2.099366e-001
1.110797e+003, 2.038824e-001
1.112725e+003, 1.980488e-001
1.114654e+003, 1.922738e-001
1.116582e+003, 1.866459e-001
1.118511e+003, 1.811824e-001
1.120439e+003, 1.756924e-001
1.122368e+003, 1.703657e-001
1.124296e+003, 1.651261e-001
1.126225e+003, 1.600198e-001
1.128153e+003, 1.546423e-001
1.130082e+003, 1.493651e-001
1.132010e+003, 1.443947e-001
1.133938e+003, 1.394568e-001
1.135867e+003, 1.345961e-001
1.137795e+003, 1.297391e-001
1.139724e+003, 1.252022e-001
1.141652e+003, 1.206372e-001
1.143581e+003, 1.159168e-001
1.145509e+003, 1.113566e-001
1.147438e+003, 1.069301e-001
1.149366e+003, 1.025448e-001
1.151295e+003, 9.822003e-002
1.153223e+003, 9.414002e-002
1.155152e+003, 9.046174e-002
1.157080e+003, 8.674326e-002
1.159009e+003, 8.329666e-002
1.160937e+003, 8.023272e-002
1.162865e+003, 7.732655e-002
1.164794e+003, 7.446767e-002
1.166722e+003, 7.146057e-002
1.168651e+003, 6.856877e-002
1.170579e+003, 6.564260e-002
1.172508e+003, 6.290499e-002
1.174436e+003, 6.050024e-002
1.176365e+003, 5.830428e-002
1.178293e+003, 5.597703e-002
1.180222e+003, 5.393704e-002
1.182150e+003, 5.222999e-002
1.184079e+003, 5.070270e-002
1.186007e+003, 4.925014e-002
1.187936e+003, 4.785209e-002
1.189864e+003, 4.665688e-002
1.191792e+003, 4.559983e-002
1.193721e+003, 4.456129e-002
1.195649e+003, 4.336303e-002
1.197578e+003, 4.216132e-002
1.199506e+003, 4.086649e-002
1.201435e+003, 3.922512e-002
1.203363e+003, 3.718596e-002
1.205292e+003, 3.499404e-002
1.207220e+003, 3.266914e-002
1.209149e+003, 3.003500e-002
1.211077e+003, 2.723569e-002
1.213006e+003, 2.461228e-002
1.214934e+003, 2.216422e-002
1.216863e+003, 1.981309e-002
1.218791e+003, 1.794297e-002
1.220719e+003, 1.657439e-002
1.222648e+003, 1.530852e-002
1.224576e+003, 1.388801e-002
1.226505e+003, 1.280307e-002
1.228433e+003, 1.211782e-002
1.230362e+003, 1.130877e-002
1.232290e+003, 1.042063e-002
1.234219e+003, 9.757736e-003
1.236147e+003, 9.360177e-003
1.238076e+003, 8.983171e-003
1.240004e+003, 8.537978e-003
1.241933e+003, 8.292043e-003
1.243861e+003, 8.138095e-003
1.245790e+003, 7.814853e-003
1.247718e+003, 7.515694e-003
1.249646e+003, 7.215583e-003
1.251575e+003, 6.744910e-003
1.253503e+003, 6.523838e-003
1.255432e+003, 6.320722e-003
1.257360e+003, 6.227080e-003
1.259289e+003, 6.146884e-003
1.261217e+003, 6.124294e-003
1.263146e+003, 6.238317e-003
1.265074e+003, 6.201098e-003
1.267003e+003, 5.908475e-003
1.268931e+003, 5.672303e-003
1.270860e+003, 5.545541e-003
1.272788e+003, 5.501322e-003
1.274717e+003, 5.498652e-003
1.276645e+003, 5.458246e-003
1.278573e+003, 5.358430e-003
1.280502e+003, 5.315117e-003
1.282430e+003, 5.136705e-003
1.284359e+003, 4.981798e-003
1.286287e+003, 4.927230e-003
1.288216e+003, 4.906428e-003
1.290144e+003, 4.868891e-003
1.292073e+003, 4.805222e-003
1.294001e+003, 4.933842e-003
1.295930e+003, 4.926240e-003
1.297858e+003, 4.715313e-003
1.299787e+003, 4.586744e-003
1.301715e+003, 4.476075e-003
1.303644e+003, 4.247990e-003
1.305572e+003, 4.197394e-003
1.307500e+003, 4.346401e-003
1.309429e+003, 4.387851e-003
1.311357e+003, 4.426289e-003
1.313286e+003, 4.398031e-003
1.315214e+003, 4.488402e-003
1.317143e+003, 4.643565e-003
1.319071e+003, 4.657963e-003
1.321000e+003, 4.544717e-003
1.322928e+003, 4.448858e-003
1.324857e+003, 4.404567e-003
1.326785e+003, 4.356105e-003
1.328714e+003, 4.365003e-003
1.330642e+003, 4.382650e-003
1.332571e+003, 4.197160e-003
1.334499e+003, 4.192888e-003
1.336427e+003, 4.389360e-003
1.338356e+003, 4.172727e-003
1.340284e+003, 4.056890e-003
1.342213e+003, 4.103358e-003
1.344141e+003, 4.087168e-003
1.346070e+003, 3.975293e-003
1.347998e+003, 3.851338e-003
1.349927e+003, 3.940362e-003
1.351855e+003, 4.060637e-003
1.353784e+003, 4.172473e-003
1.355712e+003, 3.959276e-003
1.357641e+003, 3.786568e-003
1.359569e+003, 3.904307e-003
1.361498e+003, 4.015761e-003
1.363426e+003, 4.161780e-003
1.365354e+003, 4.166859e-003
1.367283e+003, 4.049045e-003
1.369211e+003, 3.913126e-003
1.371140e+003, 3.898109e-003
1.373068e+003, 3.903831e-003
1.374997e+003, 4.002021e-003
1.376925e+003, 4.011464e-003
1.378854e+003, 4.019392e-003
1.380782e+003, 4.170346e-003
1.382711e+003, 4.146214e-003
1.384639e+003, 4.134674e-003
1.386568e+003, 4.191161e-003
1.388496e+003, 4.091474e-003
1.390424e+003, 3.968003e-003
1.392353e+003, 4.172985e-003
1.394281e+003, 4.381139e-003
1.396210e+003, 4.395362e-003
1.398138e+003, 4.320988e-003
1.400067e+003, 4.415594e-003
1.401995e+003, 4.303870e-003
1.403924e+003, 4.417688e-003
1.405852e+003, 4.510902e-003
1.407781e+003, 4.486559e-003
1.409709e+003, 4.461616e-003
1.411638e+003, 4.498363e-003
1.413566e+003, 4.438376e-003
1.415495e+003, 4.326484e-003
1.417423e+003, 4.506939e-003
1.419351e+003, 4.895082e-003
1.421280e+003, 4.771527e-003
1.423208e+003, 4.573650e-003
1.425137e+003, 4.789860e-003
1.427065e+003, 5.015001e-003
1.428994e+003, 4.942707e-003
1.430922e+003, 4.771414e-003
1.432851e+003, 4.619879e-003
1.434779e+003, 4.707111e-003
1.436708e+003, 4.982759e-003
1.438636e+003, 4.892229e-003
1.440565e+003, 4.761034e-003
1.442493e+003, 4.866522e-003
1.444422e+003, 5.006863e-003
1.446350e+003, 4.887491e-003
1.448278e+003, 5.002732e-003
1.450207e+003, 5.169097e-003
1.452135e+003, 5.134862e-003
1.454064e+003, 5.011129e-003
1.455992e+003, 4.833410e-003
1.457921e+003, 5.193736e-003
1.459849e+003, 5.136754e-003
1.461778e+003, 5.175224e-003
1.463706e+003, 5.009848e-003
1.465635e+003, 5.154212e-003
1.467563e+003, 5.031078e-003
1.469492e+003, 5.074079e-003
1.471420e+003, 5.079158e-003
1.473349e+003, 5.565210e-003
1.475277e+003, 5.555162e-003
1.477205e+003, 5.397509e-003
1.479134e+003, 5.101763e-003
1.481062e+003, 5.166226e-003
1.482991e+003, 5.278015e-003
1.484919e+003, 5.230705e-003
1.486848e+003, 5.081903e-003
1.488776e+003, 5.029803e-003
1.490705e+003, 5.213543e-003
1.492633e+003, 5.197642e-003
1.494562e+003, 5.011081e-003
1.496490e+003, 5.182274e-003
1.498419e+003, 5.269721e-003
1.500347e+003, 5.370615e-003
1.502276e+003, 5.254297e-003
1.504204e+003, 5.314334e-003
1.506132e+003, 5.541833e-003
1.508061e+003, 5.650622e-003
1.509989e+003, 5.517663e-003
1.511918e+003, 5.665348e-003
1.513846e+003, 5.842786e-003
1.515775e+003, 5.784379e-003
1.517703e+003, 5.914347e-003
1.519632e+003, 5.775560e-003
1.521560e+003, 6.237717e-003
1.523489e+003, 6.185768e-003
1.525417e+003, 6.297539e-003
1.527346e+003, 6.376185e-003
1.529274e+003, 6.406445e-003
1.531203e+003, 6.386101e-003
1.533131e+003, 6.537228e-003
1.535059e+003, 6.946811e-003
1.536988e+003, 6.741435e-003
1.538916e+003, 6.787418e-003
1.540845e+003, 7.259847e-003
1.542773e+003, 7.303841e-003
1.544702e+003, 7.091986e-003
1.546630e+003, 7.140328e-003
1.548559e+003, 7.264175e-003
1.550487e+003, 7.709254e-003
1.552416e+003, 7.830895e-003
1.554344e+003, 7.904678e-003
1.556273e+003, 7.578650e-003
1.558201e+003, 7.751081e-003
1.560130e+003, 8.339542e-003
1.562058e+003, 8.274613e-003
1.563986e+003, 8.453951e-003
1.565915e+003, 8.772632e-003
1.567843e+003, 8.623699e-003
1.569772e+003, 8.942181e-003
1.571700e+003, 9.224758e-003
1.573629e+003, 9.139775e-003
1.575557e+003, 8.885999e-003
1.577486e+003, 9.545613e-003
1.579414e+003, 9.510800e-003
1.581343e+003, 9.671190e-003
1.583271e+003, 1.004679e-002
1.585200e+003, 1.023598e-002
1.587128e+003, 1.013907e-002
1.589057e+003, 1.009234e-002
1.590985e+003, 1.019395e-002
1.592913e+003, 1.030673e-002
1.594842e+003, 1.064554e-002
1.596770e+003, 1.069301e-002
1.598699e+003, 1.044526e-002
1.600627e+003, 1.050236e-002
1.602556e+003, 1.056227e-002
1.604484e+003, 1.079737e-002
1.606413e+003, 1.088057e-002
1.608341e+003, 1.093276e-002
1.610270e+003, 1.124957e-002
1.612198e+003, 1.131064e-002
1.614127e+003, 1.124249e-002
1.616055e+003, 1.127857e-002
1.617984e+003, 1.177070e-002
1.619912e+003, 1.154374e-002
1.621840e+003, 1.147813e-002
1.623769e+003, 1.161104e-002
1.625697e+003, 1.168329e-002
1.627626e+003, 1.189820e-002
1.629554e+003, 1.201529e-002
1.631483e+003, 1.186091e-002
1.633411e+003, 1.150618e-002
1.635340e+003, 1.179400e-002
1.637268e+003, 1.202920e-002
1.639197e+003, 1.194054e-002
1.641125e+003, 1.196614e-002
1.643054e+003, 1.169227e-002
1.644982e+003, 1.133447e-002
1.646911e+003, 1.168969e-002
1.648839e+003, 1.160397e-002
1.650767e+003, 1.137625e-002
1.652696e+003, 1.167896e-002
1.654624e+003, 1.186442e-002
1.656553e+003, 1.088643e-002
1.658481e+003, 1.066574e-002
1.660410e+003, 1.066151e-002
1.662338e+003, 1.046226e-002
1.664267e+003, 1.028032e-002
1.666195e+003, 9.863752e-003
1.668124e+003, 9.767324e-003
1.670052e+003, 9.666428e-003
1.671981e+003, 8.889509e-003
1.673909e+003, 8.471685e-003
1.675838e+003, 8.766408e-003
1.677766e+003, 8.188707e-003
1.679694e+003, 8.100694e-003
1.681623e+003, 8.029747e-003
1.683551e+003, 7.811130e-003
1.685480e+003, 8.170551e-003
1.687408e+003, 7.525843e-003
1.689337e+003, 7.638593e-003
1.691265e+003, 7.401721e-003
1.693194e+003, 6.821220e-003
1.695122e+003, 6.562856e-003
1.697051e+003, 7.094072e-003
1.698979e+003, 6.353044e-003
1.700908e+003, 6.972466e-003
1.702836e+003, 6.536674e-003
1.704765e+003, 6.407911e-003
1.706693e+003, 5.993729e-003
1.708621e+003, 5.652000e-003
1.710550e+003, 5.877532e-003
1.712478e+003, 5.816661e-003
1.714407e+003, 5.650605e-003
1.716335e+003, 5.497039e-003
1.718264e+003, 5.824701e-003
1.720192e+003, 5.667710e-003
1.722121e+003, 5.451794e-003
1.724049e+003, 5.479443e-003
1.725978e+003, 5.554695e-003
1.727906e+003, 5.358071e-003
1.729835e+003, 5.232241e-003
1.731763e+003, 5.194476e-003
1.733692e+003, 4.926570e-003
1.735620e+003, 4.778526e-003
1.737548e+003, 4.325681e-003
1.739477e+003, 4.567703e-003
1.741405e+003, 4.866384e-003
1.743334e+003, 4.780051e-003
1.745262e+003, 4.535163e-003
1.747191e+003, 4.309899e-003
1.749119e+003, 4.618392e-003
1.751048e+003, 4.743068e-003
1.752976e+003, 4.696285e-003
1.754905e+003, 4.723348e-003
1.756833e+003, 4.906995e-003
1.758762e+003, 5.082611e-003
1.760690e+003, 4.946331e-003
1.762619e+003, 5.073521e-003
1.764547e+003, 4.877872e-003
1.766475e+003, 4.828278e-003
1.768404e+003, 4.886908e-003
1.770332e+003, 4.650448e-003
1.772261e+003, 4.839512e-003
1.774189e+003, 4.920889e-003
1.776118e+003, 4.895432e-003
1.778046e+003, 4.917362e-003
1.779975e+003, 5.035186e-003
1.781903e+003, 5.191112e-003
1.783832e+003, 4.803679e-003
1.785760e+003, 4.959433e-003
1.787689e+003, 5.002509e-003
1.789617e+003, 4.789621e-003
1.791546e+003, 4.845260e-003
1.793474e+003, 5.072796e-003
1.795402e+003, 4.840097e-003
1.797331e+003, 4.708809e-003
1.799259e+003, 4.517511e-003
1.801188e+003, 4.512718e-003
1.803116e+003, 4.441112e-003
1.805045e+003, 4.535792e-003
1.806973e+003, 4.516113e-003
1.808902e+003, 4.613127e-003
1.810830e+003, 4.768511e-003
1.812759e+003, 4.702406e-003
1.814687e+003, 4.580589e-003
1.816616e+003, 4.466734e-003
1.818544e+003, 4.513151e-003
1.820473e+003, 4.946956e-003
1.822401e+003, 5.422850e-003
1.824329e+003, 5.794802e-003
1.826258e+003, 5.785080e-003
1.828186e+003, 4.853995e-003
1.830115e+003, 4.525193e-003
1.832043e+003, 4.400310e-003
1.833972e+003, 4.823845e-003
1.835900e+003, 4.963344e-003
1.837829e+003, 4.549326e-003
1.839757e+003, 4.369409e-003
1.841686e+003, 4.506540e-003
1.843614e+003, 4.687157e-003
1.845543e+003, 5.050125e-003
1.847471e+003, 5.262633e-003
1.849400e+003, 5.076411e-003
1.851328e+003, 4.500510e-003
1.853256e+003, 4.468749e-003
1.855185e+003, 4.495312e-003
1.857113e+003, 4.354329e-003
1.859042e+003, 4.557863e-003
1.860970e+003, 4.671542e-003
1.862899e+003, 4.559947e-003
1.864827e+003, 4.381383e-003
1.866756e+003, 4.161298e-003
1.868684e+003, 4.088646e-003
1.870613e+003, 3.779517e-003
1.872541e+003, 3.496928e-003
1.874470e+003, 4.080511e-003
1.876398e+003, 4.344958e-003
1.878327e+003, 4.301720e-003
1.880255e+003, 4.458440e-003
1.882183e+003, 4.438819e-003
1.884112e+003, 4.000220e-003
1.886040e+003, 3.906847e-003
1.887969e+003, 3.961948e-003
1.889897e+003, 4.192690e-003
1.891826e+003, 4.048479e-003
1.893754e+003, 3.845835e-003
1.895683e+003, 3.786473e-003
1.897611e+003, 3.836301e-003
1.899540e+003, 4.158458e-003
1.901468e+003, 4.111791e-003
1.903397e+003, 3.701651e-003
1.905325e+003, 3.578396e-003
1.907254e+003, 4.182451e-003
1.909182e+003, 4.970046e-003
1.911110e+003, 4.670205e-003
1.913039e+003, 3.963008e-003
1.914967e+003, 3.671651e-003
1.916896e+003, 3.782581e-003
1.918824e+003, 3.331539e-003
1.920753e+003, 3.159954e-003
1.922681e+003, 3.438678e-003
1.924610e+003, 2.563294e-003
1.926538e+003, 2.603321e-003
1.928467e+003, 2.787955e-003
1.930395e+003, 2.697878e-003
1.932324e+003, 2.780983e-003
1.934252e+003, 2.646632e-003
1.936181e+003, 2.109713e-003
1.938109e+003, 7.366539e-004
1.940037e+003, 9.575175e-005
1.941966e+003, 2.676666e-004
1.943894e+003, 1.523492e-003
1.945823e+003, 2.380911e-003
1.947751e+003, 2.628155e-003
1.949680e+003, 2.007051e-003
1.951608e+003, 1.235500e-003
1.953537e+003, 7.735481e-004
1.955465e+003, 4.105865e-004
1.957394e+003, -1.578110e-004
1.959322e+003, -7.290135e-004
1.961251e+003, -5.204392e-004
1.963179e+003, -2.661096e-004
1.965108e+003, -8.904233e-004
1.967036e+003, -8.725717e-004
1.968964e+003, 3.768461e-004
1.970893e+003, -5.731562e-004
1.972821e+003, -2.968683e-003
1.974750e+003, -2.491046e-003
1.976678e+003, -7.601671e-004
1.978607e+003, 1.014026e-004
1.980535e+003, -3.688121e-004
1.982464e+003, -1.599927e-003
1.984392e+003, -3.055464e-003
1.986321e+003, -1.840850e-003
1.988249e+003, -1.348459e-003
1.990178e+003, -2.077904e-003
1.992106e+003, -2.247058e-003
1.994035e+003, -1.687229e-003
1.995963e+003, -2.055733e-003
1.997891e+003, -1.516875e-003
1.999820e+003, -1.393317e-003
2.001748e+003, -2.846960e-003
2.003677e+003, -4.232181e-003
2.005605e+003, -2.892276e-003
2.007534e+003, -1.641096e-003
2.009462e+003, -1.847534e-003
2.011391e+003, -2.154492e-003
2.013319e+003, -3.766354e-003
2.015248e+003, -4.462488e-003
2.017176e+003, -5.124851e-003
2.019105e+003, -4.984505e-003
2.021033e+003, -4.409403e-003
2.022962e+003, -2.727491e-003
2.024890e+003, -2.386168e-003
2.026818e+003, -3.021230e-003
2.028747e+003, -2.762619e-003
2.030675e+003, -1.939620e-003
2.032604e+003, -2.522380e-003
2.034532e+003, -3.268741e-003
2.036461e+003, -2.607715e-003
2.038389e+003, -2.844992e-003
2.040318e+003, -2.547059e-003
2.042246e+003, -2.474519e-003
2.044175e+003, -1.997302e-003
2.046103e+003, -1.045067e-003
2.048032e+003, -5.375890e-004
2.049960e+003, 3.122123e-004
2.051889e+003, 3.151364e-004
2.053817e+003, 4.942542e-004
2.055746e+003, 4.769872e-004
2.057674e+003, -8.760231e-005
2.059603e+003, 2.032649e-004
2.061531e+003, 1.582659e-003
2.063459e+003, 1.330416e-003
2.065388e+003, 1.227548e-003
2.067316e+003, 1.953757e-003
2.069245e+003, 3.467472e-003
2.071173e+003, 3.946530e-003
2.073102e+003, 2.266367e-003
2.075030e+003, 1.484285e-003
2.076959e+003, 1.301362e-003
2.078887e+003, 9.822103e-004
2.080816e+003, 1.229079e-003
2.082744e+003, 2.190581e-003
2.084673e+003, 2.543526e-003
2.086601e+003, 1.640370e-003
2.088530e+003, 1.346742e-003
2.090458e+003, 1.684209e-003
2.092386e+003, 1.231692e-003
2.094315e+003, 1.428805e-003
2.096243e+003, 1.250033e-003
2.098172e+003, 1.197165e-003
2.100100e+003, 1.056835e-003
2.102029e+003, 1.201601e-003
2.103957e+003, 1.218133e-003
2.105886e+003, 1.346912e-003
2.107814e+003, 8.119785e-004
2.109743e+003, 8.098549e-004
2.111671e+003, 1.234238e-003
2.113600e+003, 2.174351e-003
2.115528e+003, 2.267331e-003
2.117457e+003, 1.473992e-003
2.119385e+003, 2.726643e-004
2.121313e+003, -3.922463e-004
2.123242e+003, -4.278312e-004
2.125170e+003, -1.154636e-003
2.127099e+003, -5.687121e-004
2.129027e+003, -3.023714e-005
2.130956e+003, -1.440088e-003
2.132884e+003, -3.071402e-003
2.134813e+003, -2.903972e-003
2.136741e+003, -2.361221e-003
2.138670e+003, -2.954282e-003
2.140598e+003, -3.380067e-003
2.142527e+003, -2.540510e-003
2.144455e+003, -2.939248e-003
2.146384e+003, -5.485297e-003
2.148312e+003, -6.174622e-003
2.150240e+003, -5.294614e-003
2.152169e+003, -6.025519e-003
2.154097e+003, -8.828316e-003
2.156026e+003, -1.153484e-002
2.157954e+003, -1.103065e-002
2.159883e+003, -8.040080e-003
2.161811e+003, -4.626042e-003
2.163740e+003, -1.693889e-003
2.165668e+003, -1.718031e-003
2.167597e+003, -2.033008e-003
2.169525e+003, -2.212904e-003
2.171454e+003, -4.030957e-003
2.173382e+003, -4.548956e-003
2.175311e+003, -2.598396e-003
2.177239e+003, -1.929881e-003
2.179167e+003, -4.380535e-003
2.181096e+003, -4.933905e-003
2.183024e+003, -2.114150e-003
2.184953e+003, -1.066147e-003
2.186881e+003, -9.238366e-004
2.188810e+003, -1.759746e-003
2.190738e+003, -3.100604e-003
2.192667e+003, -3.277402e-003
2.194595e+003, -1.773827e-003
2.196524e+003, -1.784837e-004
2.198452e+003, 3.294139e-004
2.200381e+003, 1.384530e-003
2.202309e+003, 1.751791e-003
2.204238e+003, 6.406413e-004
2.206166e+003, 4.914736e-004
2.208094e+003, 1.341938e-003
2.210023e+003, 1.738924e-003
2.211951e+003, 9.781993e-004
2.213880e+003, 8.973003e-005
2.215808e+003, 2.027368e-005
2.217737e+003, 1.376388e-003
2.219665e+003, 1.900769e-003
2.221594e+003, 2.011853e-003
2.223522e+003, 2.696755e-003
2.225451e+003, 2.827344e-003
2.227379e+003, 2.453349e-003
2.229308e+003, 1.635522e-003
2.231236e+003, 7.125467e-004
2.233165e+003, 1.124587e-003
2.235093e+003, 2.592368e-003
2.237021e+003, 3.633918e-003
2.238950e+003, 3.787054e-003
2.240878e+003, 3.644533e-003
2.242807e+003, 3.670300e-003
2.244735e+003, 3.795425e-003
2.246664e+003, 3.884789e-003
2.248592e+003, 3.960840e-003
2.250521e+003, 3.816538e-003
2.252449e+003, 4.390066e-003
2.254378e+003, 4.887290e-003
2.256306e+003, 3.592892e-003
2.258235e+003, 3.941657e-003
2.260163e+003, 4.652998e-003
2.262092e+003, 4.117221e-003
2.264020e+003, 4.228190e-003
2.265948e+003, 4.842930e-003
2.267877e+003, 5.049874e-003
2.269805e+003, 5.450117e-003
2.271734e+003, 6.140091e-003
2.273662e+003, 6.303637e-003
2.275591e+003, 6.646619e-003
2.277519e+003, 6.284181e-003
2.279448e+003, 5.877342e-003
2.281376e+003, 6.112386e-003
2.283305e+003, 6.703994e-003
2.285233e+003, 7.423733e-003
2.287162e+003, 7.762589e-003
2.289090e+003, 7.709302e-003
2.291019e+003, 7.370769e-003
2.292947e+003, 7.258914e-003
2.294875e+003, 7.909010e-003
2.296804e+003, 8.686324e-003
2.298732e+003, 8.229385e-003
2.300661e+003, 7.589540e-003
2.302589e+003, 7.245542e-003
2.304518e+003, 7.163568e-003
2.306446e+003, 7.305536e-003
2.308375e+003, 8.182938e-003
2.310303e+003, 8.588400e-003
2.312232e+003, 8.134058e-003
2.314160e+003, 7.958292e-003
2.316089e+003, 8.546866e-003
2.318017e+003, 8.662278e-003
2.319946e+003, 8.726278e-003
2.321874e+003, 9.474357e-003
2.323802e+003, 1.015427e-002
2.325731e+003, 9.302604e-003
2.327659e+003, 8.096002e-003
2.329588e+003, 7.797242e-003
2.331516e+003, 8.201630e-003
2.333445e+003, 8.638780e-003
2.335373e+003, 8.320467e-003
2.337302e+003, 8.023609e-003
2.339230e+003, 7.851246e-003
2.341159e+003, 8.386867e-003
2.343087e+003, 8.767159e-003
2.345016e+003, 8.475872e-003
2.346944e+003, 8.126541e-003
2.348873e+003, 8.081288e-003
2.350801e+003, 8.431777e-003
2.352729e+003, 8.946996e-003
2.354658e+003, 9.081719e-003
2.356586e+003, 8.930488e-003
2.358515e+003, 8.674987e-003
2.360443e+003, 8.804258e-003
2.362372e+003, 8.346425e-003
2.364300e+003, 8.176443e-003
2.366229e+003, 8.363054e-003
2.368157e+003, 7.922714e-003
2.370086e+003, 8.007237e-003
2.372014e+003, 8.402345e-003
2.373942e+003, 7.856386e-003
2.375871e+003, 7.497355e-003
2.377799e+003, 7.724308e-003
2.379728e+003, 8.145270e-003
2.381656e+003, 8.305845e-003
2.383585e+003, 8.589304e-003
2.385513e+003, 8.387164e-003
2.387442e+003, 8.211645e-003
2.389370e+003, 8.135218e-003
2.391299e+003, 8.158086e-003
2.393227e+003, 8.040893e-003
2.395156e+003, 7.973365e-003
2.397084e+003, 7.689338e-003
2.399012e+003, 7.266698e-003
2.400941e+003, 7.958932e-003
2.402869e+003, 8.328275e-003
2.404798e+003, 8.313573e-003
2.406726e+003, 8.925050e-003
2.408655e+003, 8.965766e-003
2.410583e+003, 8.104864e-003
2.412512e+003, 8.343138e-003
2.414440e+003, 9.108337e-003
2.416369e+003, 8.818365e-003
2.418297e+003, 8.439872e-003
2.420226e+003, 8.758687e-003
2.422154e+003, 9.281787e-003
2.424083e+003, 9.282611e-003
2.426011e+003, 9.017955e-003
2.427939e+003, 9.232208e-003
2.429868e+003, 9.608668e-003
2.431796e+003, 9.607592e-003
2.433725e+003, 9.222967e-003
2.435653e+003, 8.850235e-003
2.437582e+003, 9.278237e-003
2.439510e+003, 1.024977e-002
2.441439e+003, 1.003907e-002
2.443367e+003, 9.693576e-003
2.445296e+003, 9.809815e-003
2.447224e+003, 9.574763e-003
2.449153e+003, 8.715498e-003
2.451081e+003, 8.501627e-003
2.453010e+003, 8.367813e-003
2.454938e+003, 8.334710e-003
2.456866e+003, 8.635183e-003
2.458795e+003, 9.236186e-003
2.460723e+003, 9.464436e-003
2.462652e+003, 9.503054e-003
2.464580e+003, 9.099279e-003
2.466509e+003, 9.464175e-003
2.468437e+003, 9.823890e-003
2.470366e+003, 9.340578e-003
2.472294e+003, 9.451661e-003
2.474223e+003, 9.202342e-003
2.476151e+003, 8.980650e-003
2.478080e+003, 9.385392e-003
2.480008e+003, 9.625069e-003
2.481937e+003, 9.644667e-003
2.483865e+003, 9.408380e-003
2.485793e+003, 8.963042e-003
2.487722e+003, 8.739373e-003
2.489650e+003, 8.843367e-003
2.491579e+003, 9.148901e-003
2.493507e+003, 9.507240e-003
2.495436e+003, 9.732154e-003
2.497364e+003, 9.553748e-003
2.499293e+003, 9.008450e-003
2.501221e+003, 7.999121e-003
2.503150e+003, 8.238425e-003
2.505078e+003, 9.434962e-003
2.507007e+003, 9.627587e-003
2.508935e+003, 8.590139e-003
2.510864e+003, 8.981530e-003
2.512792e+003, 9.534056e-003
2.514720e+003, 9.118913e-003
2.516649e+003, 9.570559e-003
2.518577e+003, 1.033489e-002
2.520506e+003, 9.923705e-003
2.522434e+003, 9.220037e-003
2.524363e+003, 9.619801e-003
2.526291e+003, 9.533083e-003
2.528220e+003, 9.350754e-003
2.530148e+003, 9.607086e-003
2.532077e+003, 8.852532e-003
2.534005e+003, 9.164700e-003
2.535934e+003, 9.478010e-003
2.537862e+003, 8.774428e-003
2.539791e+003, 9.067166e-003
2.541719e+003, 9.857818e-003
2.543647e+003, 9.878648e-003
2.545576e+003, 1.005006e-002
2.547504e+003, 1.007965e-002
2.549433e+003, 9.867362e-003
2.551361e+003, 9.768383e-003
2.553290e+003, 9.475884e-003
2.555218e+003, 9.602338e-003
2.557147e+003, 9.841647e-003
2.559075e+003, 9.389516e-003
2.561004e+003, 9.544989e-003
2.562932e+003, 1.032469e-002
2.564861e+003, 9.843464e-003
2.566789e+003, 9.409751e-003
2.568718e+003, 9.729814e-003
2.570646e+003, 9.729470e-003
2.572574e+003, 9.570139e-003
2.574503e+003, 9.653285e-003
2.576431e+003, 9.878734e-003
2.578360e+003, 1.054170e-002
2.580288e+003, 1.047588e-002
2.582217e+003, 9.813303e-003
2.584145e+003, 9.989682e-003
2.586074e+003, 1.094048e-002
2.588002e+003, 1.132450e-002
2.589931e+003, 1.122121e-002
2.591859e+003, 1.136454e-002
2.593788e+003, 1.147032e-002
2.595716e+003, 1.144505e-002
2.597645e+003, 1.141912e-002
2.599573e+003, 1.139566e-002
2.601501e+003, 1.085934e-002
2.603430e+003, 1.094378e-002
2.605358e+003, 1.096504e-002
2.607287e+003, 1.126324e-002
2.609215e+003, 1.159338e-002
2.611144e+003, 1.141666e-002
2.613072e+003, 1.108318e-002
2.615001e+003, 1.093055e-002
2.616929e+003, 1.120076e-002
2.618858e+003, 1.123601e-002
2.620786e+003, 1.096061e-002
2.622715e+003, 1.099219e-002
2.624643e+003, 1.112215e-002
2.626572e+003, 1.131041e-002
2.628500e+003, 1.123181e-002
2.630428e+003, 1.099010e-002
2.632357e+003, 1.098900e-002
2.634285e+003, 1.117253e-002
2.636214e+003, 1.126627e-002
2.638142e+003, 1.127654e-002
2.640071e+003, 1.176520e-002
2.641999e+003, 1.149699e-002
2.643928e+003, 1.136629e-002
2.645856e+003, 1.150678e-002
2.647785e+003, 1.151898e-002
2.649713e+003, 1.184595e-002
2.651642e+003, 1.173065e-002
2.653570e+003, 1.146653e-002
2.655499e+003, 1.138466e-002
2.657427e+003, 1.161820e-002
2.659355e+003, 1.187632e-002
2.661284e+003, 1.186934e-002
2.663212e+003, 1.152619e-002
2.665141e+003, 1.107136e-002
2.667069e+003, 1.097339e-002
2.668998e+003, 1.126775e-002
2.670926e+003, 1.149155e-002
2.672855e+003, 1.185106e-002
2.674783e+003, 1.192461e-002
2.676712e+003, 1.153471e-002
2.678640e+003, 1.142470e-002
2.680569e+003, 1.147894e-002
2.682497e+003, 1.108073e-002
2.684426e+003, 1.139638e-002
2.686354e+003, 1.177414e-002
2.688282e+003, 1.192863e-002
2.690211e+003, 1.184237e-002
2.692139e+003, 1.162965e-002
2.694068e+003, 1.178991e-002
2.695996e+003, 1.210834e-002
2.697925e+003, 1.153447e-002
2.699853e+003, 1.125854e-002
2.701782e+003, 1.163106e-002
2.703710e+003, 1.177219e-002
2.705639e+003, 1.167519e-002
2.707567e+003, 1.205606e-002
2.709496e+003, 1.231601e-002
2.711424e+003, 1.228202e-002
2.713353e+003, 1.244656e-002
2.715281e+003, 1.178040e-002
2.717209e+003, 1.156554e-002
2.719138e+003, 1.202375e-002
2.721066e+003, 1.237206e-002
2.722995e+003, 1.269095e-002
2.724923e+003, 1.278408e-002
2.726852e+003, 1.258464e-002
2.728780e+003, 1.229512e-002
2.730709e+003, 1.190710e-002
2.732637e+003, 1.201657e-002
2.734566e+003, 1.235899e-002
2.736494e+003, 1.280482e-002
2.738423e+003, 1.246417e-002
2.740351e+003, 1.195207e-002
2.742280e+003, 1.265325e-002
2.744208e+003, 1.353440e-002
2.746136e+003, 1.348262e-002
2.748065e+003, 1.284331e-002
2.749993e+003, 1.301425e-002
2.751922e+003, 1.283331e-002
2.753850e+003, 1.263369e-002
2.755779e+003, 1.312388e-002
2.757707e+003, 1.357426e-002
2.759636e+003, 1.385845e-002
2.761564e+003, 1.348590e-002
2.763493e+003, 1.297010e-002
2.765421e+003, 1.282698e-002
2.767350e+003, 1.363758e-002
2.769278e+003, 1.432447e-002
2.771207e+003, 1.397758e-002
2.773135e+003, 1.341751e-002
2.775063e+003, 1.297802e-002
2.776992e+003, 1.368239e-002
2.778920e+003, 1.421166e-002
2.780849e+003, 1.381360e-002
2.782777e+003, 1.378037e-002
2.784706e+003, 1.363137e-002
2.786634e+003, 1.377724e-002
2.788563e+003, 1.405651e-002
2.790491e+003, 1.408971e-002
2.792420e+003, 1.432609e-002
2.794348e+003, 1.461268e-002
2.796277e+003, 1.407562e-002
2.798205e+003, 1.422359e-002
2.800134e+003, 1.484672e-002
2.802062e+003, 1.505931e-002
2.803990e+003, 1.495351e-002
2.805919e+003, 1.479627e-002
2.807847e+003, 1.500562e-002
2.809776e+003, 1.527581e-002
2.811704e+003, 1.487562e-002
2.813633e+003, 1.424588e-002
2.815561e+003, 1.459906e-002
2.817490e+003, 1.475447e-002
2.819418e+003, 1.501203e-002
2.821347e+003, 1.524614e-002
2.823275e+003, 1.562563e-002
2.825204e+003, 1.553837e-002
2.827132e+003, 1.529058e-002
2.829061e+003, 1.525555e-002
2.830989e+003, 1.552060e-002
2.832917e+003, 1.612039e-002
2.834846e+003, 1.659426e-002
2.836774e+003, 1.604653e-002
2.838703e+003, 1.514879e-002
2.840631e+003, 1.513755e-002
2.842560e+003, 1.519798e-002
2.844488e+003, 1.519083e-002
2.846417e+003, 1.540833e-002
2.848345e+003, 1.547697e-002
2.850274e+003, 1.568800e-002
2.852202e+003, 1.573163e-002
2.854131e+003, 1.548580e-002
2.856059e+003, 1.533031e-002
2.857988e+003, 1.550884e-002
2.859916e+003, 1.558637e-002
2.861844e+003, 1.581401e-002
2.863773e+003, 1.604265e-002
2.865701e+003, 1.590610e-002
2.867630e+003, 1.541012e-002
2.869558e+003, 1.532653e-002
2.871487e+003, 1.639575e-002
2.873415e+003, 1.706688e-002
2.875344e+003, 1.680870e-002
2.877272e+003, 1.646771e-002
2.879201e+003, 1.645149e-002
2.881129e+003, 1.650391e-002
2.883058e+003, 1.607277e-002
2.884986e+003, 1.608197e-002
2.886915e+003, 1.704174e-002
2.888843e+003, 1.727544e-002
2.890771e+003, 1.680335e-002
2.892700e+003, 1.673909e-002
2.894628e+003, 1.731159e-002
2.896557e+003, 1.793659e-002
2.898485e+003, 1.835795e-002
2.900414e+003, 1.858061e-002
2.902342e+003, 1.819416e-002
2.904271e+003, 1.788430e-002
2.906199e+003, 1.829620e-002
2.908128e+003, 1.823843e-002
2.910056e+003, 1.777010e-002
2.911985e+003, 1.807361e-002
2.913913e+003, 1.791332e-002
2.915842e+003, 1.684077e-002
2.917770e+003, 1.714018e-002
2.919698e+003, 1.771390e-002
2.921627e+003, 1.726547e-002
2.923555e+003, 1.674289e-002
2.925484e+003, 1.667172e-002
2.927412e+003, 1.674994e-002
2.929341e+003, 1.744979e-002
2.931269e+003, 1.849767e-002
2.933198e+003, 1.820654e-002
2.935126e+003, 1.834548e-002
2.937055e+003, 1.861356e-002
2.938983e+003, 1.788965e-002
2.940912e+003, 1.780267e-002
2.942840e+003, 1.792845e-002
2.944769e+003, 1.844158e-002
2.946697e+003, 1.919946e-002
2.948625e+003, 1.919932e-002
2.950554e+003, 1.935976e-002
2.952482e+003, 1.949080e-002
2.954411e+003, 1.963941e-002
2.956339e+003, 1.992838e-002
2.958268e+003, 2.016648e-002
2.960196e+003, 2.037005e-002
2.962125e+003, 1.974948e-002
2.964053e+003, 1.956279e-002
2.965982e+003, 2.020469e-002
2.967910e+003, 2.012602e-002
2.969839e+003, 2.001647e-002
2.971767e+003, 2.081956e-002
2.973696e+003, 2.071332e-002
2.975624e+003, 2.033717e-002
2.977552e+003, 2.046551e-002
2.979481e+003, 2.127939e-002
2.981409e+003, 2.143758e-002
2.983338e+003, 2.070544e-002
2.985266e+003, 2.099937e-002
2.987195e+003, 2.149457e-002
2.989123e+003, 2.190455e-002
2.991052e+003, 2.206937e-002
2.992980e+003, 2.201491e-002
2.994909e+003, 2.167801e-002
2.996837e+003, 2.169207e-002
2.998766e+003, 2.247561e-002
3.000694e+003, 2.289920e-002
3.002623e+003, 2.241554e-002
3.004551e+003, 2.206154e-002
3.006479e+003, 2.235110e-002
3.008408e+003, 2.276989e-002
3.010336e+003, 2.212532e-002
3.012265e+003, 2.237786e-002
3.014193e+003, 2.377381e-002
3.016122e+003, 2.485568e-002
3.018050e+003, 2.501905e-002
3.019979e+003, 2.468168e-002
3.021907e+003, 2.317266e-002
3.023836e+003, 2.258704e-002
3.025764e+003, 2.362006e-002
3.027693e+003, 2.442642e-002
3.029621e+003, 2.457299e-002
3.031550e+003, 2.404869e-002
3.033478e+003, 2.331888e-002
3.035406e+003, 2.339308e-002
3.037335e+003, 2.421778e-002
3.039263e+003, 2.524057e-002
3.041192e+003, 2.536423e-002
3.043120e+003, 2.504877e-002
3.045049e+003, 2.541008e-002
3.046977e+003, 2.522570e-002
3.048906e+003, 2.526257e-002
3.050834e+003, 2.620370e-002
3.052763e+003, 2.609440e-002
3.054691e+003, 2.570537e-002
3.056620e+003, 2.591749e-002
3.058548e+003, 2.637239e-002
3.060477e+003, 2.618205e-002
3.062405e+003, 2.564975e-002
3.064333e+003, 2.572253e-002
3.066262e+003, 2.647061e-002
3.068190e+003, 2.650665e-002
3.070119e+003, 2.633021e-002
3.072047e+003, 2.573892e-002
3.073976e+003, 2.583545e-002
3.075904e+003, 2.609659e-002
3.077833e+003, 2.569590e-002
3.079761e+003, 2.554234e-002
3.081690e+003, 2.618649e-002
3.083618e+003, 2.673425e-002
3.085547e+003, 2.716928e-002
3.087475e+003, 2.700900e-002
3.089404e+003, 2.700153e-002
3.091332e+003, 2.675964e-002
3.093260e+003, 2.696946e-002
3.095189e+003, 2.818615e-002
3.097117e+003, 2.828399e-002
3.099046e+003, 2.802824e-002
3.100974e+003, 2.791958e-002
3.102903e+003, 2.804433e-002
3.104831e+003, 2.865095e-002
3.106760e+003, 2.862532e-002
3.108688e+003, 2.827783e-002
3.110617e+003, 2.780806e-002
3.112545e+003, 2.745940e-002
3.114474e+003, 2.818820e-002
3.116402e+003, 2.853866e-002
3.118331e+003, 2.832756e-002
3.120259e+003, 2.785373e-002
3.122188e+003, 2.765004e-002
3.124116e+003, 2.800407e-002
3.126044e+003, 2.780873e-002
3.127973e+003, 2.799188e-002
3.129901e+003, 2.770766e-002
3.131830e+003, 2.779824e-002
3.133758e+003, 2.795991e-002
3.135687e+003, 2.798401e-002
3.137615e+003, 2.843639e-002
3.139544e+003, 2.822169e-002
3.141472e+003, 2.802831e-002
3.143401e+003, 2.850211e-002
3.145329e+003, 2.886209e-002
3.147258e+003, 2.896350e-002
3.149186e+003, 2.882746e-002
3.151115e+003, 2.789480e-002
3.153043e+003, 2.824426e-002
3.154971e+003, 2.887721e-002
3.156900e+003, 2.863988e-002
3.158828e+003, 2.883780e-002
3.160757e+003, 2.915159e-002
3.162685e+003, 2.905056e-002
3.164614e+003, 2.893205e-002
3.166542e+003, 3.006420e-002
3.168471e+003, 2.999806e-002
3.170399e+003, 2.990810e-002
3.172328e+003, 3.008507e-002
3.174256e+003, 2.876350e-002
3.176185e+003, 2.879667e-002
3.178113e+003, 2.975113e-002
3.180042e+003, 3.054694e-002
3.181970e+003, 3.117095e-002
3.183898e+003, 3.044691e-002
3.185827e+003, 3.028386e-002
3.187755e+003, 3.074512e-002
3.189684e+003, 3.025419e-002
3.191612e+003, 3.034988e-002
3.193541e+003, 2.978666e-002
3.195469e+003, 2.976906e-002
3.197398e+003, 3.023554e-002
3.199326e+003, 3.055543e-002
3.201255e+003, 3.165487e-002
3.203183e+003, 3.185528e-002
3.205112e+003, 3.149083e-002
3.207040e+003, 3.114961e-002
3.208969e+003, 3.030083e-002
3.210897e+003, 3.151350e-002
3.212825e+003, 3.182863e-002
3.214754e+003, 3.080218e-002
3.216682e+003, 3.116305e-002
3.218611e+003, 3.220654e-002
3.220539e+003, 3.249252e-002
3.222468e+003, 3.219597e-002
3.224396e+003, 3.249119e-002
3.226325e+003, 3.318705e-002
3.228253e+003, 3.306144e-002
3.230182e+003, 3.260272e-002
3.232110e+003, 3.232660e-002
3.234039e+003, 3.137743e-002
3.235967e+003, 3.141500e-002
3.237896e+003, 3.153937e-002
3.239824e+003, 3.125376e-002
3.241752e+003, 3.077077e-002
3.243681e+003, 3.098605e-002
3.245609e+003, 3.298398e-002
3.247538e+003, 3.354706e-002
3.249466e+003, 3.299727e-002
3.251395e+003, 3.315041e-002
3.253323e+003, 3.338252e-002
3.255252e+003, 3.319172e-002
3.257180e+003, 3.259709e-002
3.259109e+003, 3.254579e-002
3.261037e+003, 3.330757e-002
3.262966e+003, 3.390064e-002
3.264894e+003, 3.312657e-002
3.266823e+003, 3.159510e-002
3.268751e+003, 3.207973e-002
3.270679e+003, 3.379631e-002
3.272608e+003, 3.475844e-002
3.274536e+003, 3.321041e-002
3.276465e+003, 3.199010e-002
3.278393e+003, 3.331136e-002
3.280322e+003, 3.344967e-002
3.282250e+003, 3.379593e-002
3.284179e+003, 3.472912e-002
3.286107e+003, 3.491029e-002
3.288036e+003, 3.481512e-002
3.289964e+003, 3.437451e-002
3.291893e+003, 3.500473e-002
3.293821e+003, 3.521962e-002
3.295750e+003, 3.499806e-002
3.297678e+003, 3.507800e-002
3.299606e+003, 3.586900e-002
3.301535e+003, 3.563032e-002
3.303463e+003, 3.690339e-002
3.305392e+003, 3.916441e-002
3.307320e+003, 3.920596e-002
3.309249e+003, 3.865638e-002
3.311177e+003, 3.886781e-002
3.313106e+003, 3.961528e-002
3.315034e+003, 3.991385e-002
3.316963e+003, 3.936283e-002
3.318891e+003, 4.126605e-002
3.320820e+003, 4.240723e-002
3.322748e+003, 4.288455e-002
3.324677e+003, 4.430526e-002
3.326605e+003, 4.493542e-002
3.328533e+003, 4.519244e-002
3.330462e+003, 4.506162e-002
3.332390e+003, 4.573852e-002
3.334319e+003, 4.696345e-002
3.336247e+003, 4.777461e-002
3.338176e+003, 4.828769e-002
3.340104e+003, 4.754300e-002
3.342033e+003, 4.790163e-002
3.343961e+003, 4.890620e-002
3.345890e+003, 4.879739e-002
3.347818e+003, 4.867043e-002
3.349747e+003, 4.839195e-002
3.351675e+003, 4.789705e-002
3.353604e+003, 4.857438e-002
3.355532e+003, 5.061032e-002
3.357460e+003, 5.132349e-002
3.359389e+003, 4.943774e-002
3.361317e+003, 4.825401e-002
3.363246e+003, 4.895336e-002
3.365174e+003, 4.926845e-002
3.367103e+003, 4.907284e-002
3.369031e+003, 4.946058e-002
3.370960e+003, 4.910976e-002
3.372888e+003, 4.892672e-002
3.374817e+003, 4.834897e-002
3.376745e+003, 4.645018e-002
3.378674e+003, 4.583056e-002
3.380602e+003, 4.630346e-002
3.382531e+003, 4.582056e-002
3.384459e+003, 4.534222e-002
3.386387e+003, 4.480068e-002
3.388316e+003, 4.520725e-002
3.390244e+003, 4.493937e-002
3.392173e+003, 4.385290e-002
3.394101e+003, 4.278314e-002
3.396030e+003, 4.237115e-002
3.397958e+003, 3.897776e-002
3.399887e+003, 3.699256e-002
3.401815e+003, 3.605134e-002
3.403744e+003, 3.474810e-002
3.405672e+003, 3.304234e-002
3.407601e+003, 3.209613e-002
3.409529e+003, 3.265192e-002
3.411458e+003, 3.209919e-002
3.413386e+003, 2.987487e-002
3.415314e+003, 2.972675e-002
3.417243e+003, 2.943364e-002
3.419171e+003, 2.885419e-002
3.421100e+003, 2.898489e-002
3.423028e+003, 2.799018e-002
3.424957e+003, 2.641559e-002
3.426885e+003, 2.656952e-002
3.428814e+003, 2.645840e-002
3.430742e+003, 2.585643e-002
3.432671e+003, 2.653181e-002
3.434599e+003, 2.766482e-002
3.436528e+003, 2.714350e-002
3.438456e+003, 2.625206e-002
3.440385e+003, 2.590903e-002
3.442313e+003, 2.576445e-002
3.444241e+003, 2.660079e-002
3.446170e+003, 2.680377e-002
3.448098e+003, 2.649905e-002
3.450027e+003, 2.514361e-002
3.451955e+003, 2.465481e-002
3.453884e+003, 2.508234e-002
3.455812e+003, 2.519159e-002
3.457741e+003, 2.462345e-002
3.459669e+003, 2.558369e-002
3.461598e+003, 2.684144e-002
3.463526e+003, 2.714077e-002
3.465455e+003, 2.596814e-002
3.467383e+003, 2.666175e-002
3.469312e+003, 2.704472e-002
3.471240e+003, 2.746005e-002
3.473168e+003, 2.807360e-002
3.475097e+003, 2.793305e-002
3.477025e+003, 2.793623e-002
3.478954e+003, 2.913254e-002
3.480882e+003, 3.057727e-002
3.482811e+003, 3.047234e-002
3.484739e+003, 2.938169e-002
3.486668e+003, 2.942187e-002
3.488596e+003, 2.972834e-002
3.490525e+003, 3.033108e-002
3.492453e+003, 3.203145e-002
3.494382e+003, 3.242441e-002
3.496310e+003, 3.254243e-002
3.498239e+003, 3.152750e-002
3.500167e+003, 3.011153e-002
3.502095e+003, 3.216397e-002
3.504024e+003, 3.445321e-002
3.505952e+003, 3.505821e-002
3.507881e+003, 3.539188e-002
3.509809e+003, 3.695472e-002
3.511738e+003, 3.737766e-002
3.513666e+003, 3.767179e-002
3.515595e+003, 3.748484e-002
3.517523e+003, 3.489080e-002
3.519452e+003, 3.525859e-002
3.521380e+003, 3.550048e-002
3.523309e+003, 3.468855e-002
3.525237e+003, 3.498010e-002
3.527166e+003, 3.474720e-002
3.529094e+003, 3.308173e-002
3.531022e+003, 3.184731e-002
3.532951e+003, 3.125815e-002
3.534879e+003, 3.137000e-002
3.536808e+003, 3.150051e-002
3.538736e+003, 3.067559e-002
3.540665e+003, 2.907362e-002
3.542593e+003, 2.792562e-002
3.544522e+003, 2.693332e-002
3.546450e+003, 2.709734e-002
3.548379e+003, 2.663279e-002
3.550307e+003, 2.428824e-002
3.552236e+003, 2.329021e-002
3.554164e+003, 2.438987e-002
3.556093e+003, 2.344337e-002
3.558021e+003, 2.144364e-002
3.559949e+003, 2.261538e-002
3.561878e+003, 2.318809e-002
3.563806e+003, 2.064491e-002
3.565735e+003, 1.947547e-002
3.567663e+003, 2.088566e-002
3.569592e+003, 2.033385e-002
3.571520e+003, 1.831083e-002
3.573449e+003, 1.784958e-002
3.575377e+003, 1.878463e-002
3.577306e+003, 1.967707e-002
3.579234e+003, 1.908545e-002
3.581163e+003, 1.775020e-002
3.583091e+003, 1.681533e-002
3.585020e+003, 1.578342e-002
3.586948e+003, 1.568026e-002
3.588876e+003, 1.632628e-002
3.590805e+003, 1.661425e-002
3.592733e+003, 1.532297e-002
3.594662e+003, 1.526131e-002
3.596590e+003, 1.516035e-002
3.598519e+003, 1.427984e-002
3.600447e+003, 1.618579e-002
3.602376e+003, 1.729403e-002
3.604304e+003, 1.673247e-002
3.606233e+003, 1.707528e-002
3.608161e+003, 1.592007e-002
3.610090e+003, 1.475290e-002
3.612018e+003, 1.449236e-002
3.613947e+003, 1.370167e-002
3.615875e+003, 1.406520e-002
3.617803e+003, 1.423454e-002
3.619732e+003, 1.244286e-002
3.621660e+003, 1.325574e-002
3.623589e+003, 1.479218e-002
3.625517e+003, 1.368931e-002
3.627446e+003, 1.183251e-002
3.629374e+003, 1.122620e-002
3.631303e+003, 1.116345e-002
3.633231e+003, 1.024775e-002
3.635160e+003, 8.813717e-003
3.637088e+003, 1.021666e-002
3.639017e+003, 1.249492e-002
3.640945e+003, 1.312145e-002
3.642874e+003, 1.242483e-002
3.644802e+003, 8.600415e-003
3.646730e+003, 7.205051e-003
3.648659e+003, 8.728278e-003
3.650587e+003, 9.047206e-003
3.652516e+003, 9.202797e-003
3.654444e+003, 9.417759e-003
3.656373e+003, 9.936867e-003
3.658301e+003, 1.152028e-002
3.660230e+003, 1.193833e-002
3.662158e+003, 1.022564e-002
3.664087e+003, 9.423797e-003
3.666015e+003, 1.000023e-002
3.667944e+003, 1.000977e-002
3.669872e+003, 1.008772e-002
3.671801e+003, 8.972521e-003
3.673729e+003, 8.489248e-003
3.675657e+003, 9.518852e-003
3.677586e+003, 1.240382e-002
3.679514e+003, 1.070889e-002
3.681443e+003, 8.522030e-003
3.683371e+003, 9.857581e-003
3.685300e+003, 1.040393e-002
3.687228e+003, 1.141164e-002
3.689157e+003, 1.015548e-002
3.691085e+003, 8.924815e-003
3.693014e+003, 9.622509e-003
3.694942e+003, 1.129828e-002
3.696871e+003, 1.217199e-002
3.698799e+003, 1.064200e-002
3.700728e+003, 8.759355e-003
3.702656e+003, 9.348850e-003
3.704584e+003, 1.017608e-002
3.706513e+003, 1.038123e-002
3.708441e+003, 9.757393e-003
3.710370e+003, 9.097909e-003
3.712298e+003, 1.008883e-002
3.714227e+003, 9.884670e-003
3.716155e+003, 9.019965e-003
3.718084e+003, 8.117931e-003
3.720012e+003, 6.795426e-003
3.721941e+003, 7.234936e-003
3.723869e+003, 8.541827e-003
3.725798e+003, 8.115538e-003
3.727726e+003, 8.201298e-003
3.729655e+003, 1.090095e-002
3.731583e+003, 1.115295e-002
3.733511e+003, 1.110839e-002
3.735440e+003, 9.515896e-003
3.737368e+003, 7.430988e-003
3.739297e+003, 8.095999e-003
3.741225e+003, 1.033048e-002
3.743154e+003, 1.131741e-002
3.745082e+003, 9.494022e-003
3.747011e+003, 9.626294e-003
3.748939e+003, 8.273054e-003
3.750868e+003, 8.300917e-003
3.752796e+003, 9.234308e-003
3.754725e+003, 7.369382e-003
3.756653e+003, 7.118484e-003
3.758582e+003, 7.590888e-003
3.760510e+003, 7.150696e-003
3.762438e+003, 9.141061e-003
3.764367e+003, 1.080413e-002
3.766295e+003, 1.139491e-002
3.768224e+003, 1.048531e-002
3.770152e+003, 1.056887e-002
3.772081e+003, 9.700748e-003
3.774009e+003, 1.029590e-002
3.775938e+003, 9.915571e-003
3.777866e+003, 1.025528e-002
3.779795e+003, 1.140194e-002
3.781723e+003, 1.084435e-002
3.783652e+003, 1.027514e-002
3.785580e+003, 9.820124e-003
3.787509e+003, 1.008105e-002
3.789437e+003, 9.696749e-003
3.791365e+003, 9.245942e-003
3.793294e+003, 8.377483e-003
3.795222e+003, 8.691180e-003
3.797151e+003, 9.589802e-003
3.799079e+003, 9.393370e-003
3.801008e+003, 9.623990e-003
3.802936e+003, 1.083921e-002
3.804865e+003, 1.174570e-002
3.806793e+003, 1.030980e-002
3.808722e+003, 9.367836e-003
3.810650e+003, 1.115443e-002
3.812579e+003, 1.125775e-002
3.814507e+003, 8.714496e-003
3.816436e+003, 8.873743e-003
3.818364e+003, 8.522746e-003
3.820292e+003, 9.266574e-003
3.822221e+003, 1.031373e-002
3.824149e+003, 1.030223e-002
3.826078e+003, 9.898763e-003
3.828006e+003, 1.027063e-002
3.829935e+003, 1.247081e-002
3.831863e+003, 1.288226e-002
3.833792e+003, 1.165652e-002
3.835720e+003, 1.111354e-002
3.837649e+003, 8.844437e-003
3.839577e+003, 9.554772e-003
3.841506e+003, 1.228766e-002
3.843434e+003, 1.321443e-002
3.845363e+003, 1.251680e-002
3.847291e+003, 1.253682e-002
3.849219e+003, 1.163433e-002
3.851148e+003, 8.280284e-003
3.853076e+003, 8.206296e-003
3.855005e+003, 1.024808e-002
3.856933e+003, 1.049971e-002
3.858862e+003, 1.005354e-002
3.860790e+003, 1.049245e-002
3.862719e+003, 1.002303e-002
3.864647e+003, 8.824388e-003
3.866576e+003, 1.123143e-002
3.868504e+003, 1.104994e-002
3.870433e+003, 8.354218e-003
3.872361e+003, 8.598367e-003
3.874290e+003, 1.065818e-002
3.876218e+003, 1.042839e-002
3.878146e+003, 9.778813e-003
3.880075e+003, 1.106241e-002
3.882003e+003, 1.128440e-002
3.883932e+003, 1.072304e-002
3.885860e+003, 9.891508e-003
3.887789e+003, 1.066757e-002
3.889717e+003, 9.997908e-003
3.891646e+003, 9.210121e-003
3.893574e+003, 1.070006e-002
3.895503e+003, 1.141966e-002
3.897431e+003, 1.180174e-002
3.899360e+003, 1.091334e-002
3.901288e+003, 1.055865e-002
3.903217e+003, 1.165804e-002
3.905145e+003, 1.202030e-002
3.907073e+003, 1.168090e-002
3.909002e+003, 1.035720e-002
3.910930e+003, 8.599852e-003
3.912859e+003, 8.115900e-003
3.914787e+003, 9.757817e-003
3.916716e+003, 1.366088e-002
3.918644e+003, 1.319229e-002
3.920573e+003, 1.126991e-002
3.922501e+003, 1.027658e-002
3.924430e+003, 8.517923e-003
3.926358e+003, 7.413198e-003
3.928287e+003, 8.632647e-003
3.930215e+003, 1.056447e-002
3.932144e+003, 1.112677e-002
3.934072e+003, 9.256644e-003
3.936000e+003, 7.799636e-003
3.937929e+003, 8.555216e-003
3.939857e+003, 9.500488e-003
3.941786e+003, 1.110200e-002
3.943714e+003, 1.208097e-002
3.945643e+003, 1.212821e-002
3.947571e+003, 1.199122e-002
3.949500e+003, 1.105958e-002
3.951428e+003, 1.026766e-002
3.953357e+003, 1.050659e-002
3.955285e+003, 1.221685e-002
3.957214e+003, 1.322817e-002
3.959142e+003, 1.178899e-002
3.961071e+003, 1.118233e-002
3.962999e+003, 1.042507e-002
3.964927e+003, 1.169921e-002
3.966856e+003, 1.116082e-002
3.968784e+003, 8.650388e-003
3.970713e+003, 8.236270e-003
3.972641e+003, 8.200592e-003
3.974570e+003, 9.747867e-003
3.976498e+003, 1.107125e-002
3.978427e+003, 1.138139e-002
3.980355e+003, 1.235737e-002
3.982284e+003, 1.240960e-002
3.984212e+003, 1.255789e-002
3.986141e+003, 1.373498e-002
3.988069e+003, 1.372657e-002
3.989998e+003, 1.183919e-002
3.991926e+003, 1.215005e-002
3.993854e+003, 1.271824e-002
3.995783e+003, 1.191288e-002
3.997711e+003, 1.027944e-002
3.999640e+003, 1.028440e-002
4.001568e+003, 0.000000e+000
##END=



