##NAMES=Amblygonite
##RRUFFID=R040006
##IDEAL CHEMISTRY=LiAlPO_4_F
##LOCALITY=Pala, San Diego County, California, USA
##OWNER=RRUFF
##SOURCE=University of Arizona Mineral Museum
##DESCRIPTION=Light gray coarsely crystalline massive
##STATUS=The identification of this mineral has been confirmed by X-ray diffraction and chemical analysis
##URL=rruff.info/R040006
##MEASURED CHEMISTRY=LiAl_1.00_(P_1.00_O_4_)(F_0.73_(OH)_0.27_)_Î£=1_; Li assumed by stoichiometry; OH estimated by charge balance
3.741225e+002, 2.596892e-001
3.760510e+002, 2.548580e-001
3.779795e+002, 2.317703e-001
3.799079e+002, 2.309626e-001
3.818364e+002, 2.399440e-001
3.837649e+002, 2.270267e-001
3.856933e+002, 2.288879e-001
3.876218e+002, 2.278715e-001
3.895503e+002, 2.251073e-001
3.914787e+002, 2.235050e-001
3.934072e+002, 2.262891e-001
3.953357e+002, 2.265645e-001
3.972641e+002, 2.305068e-001
3.991926e+002, 2.313079e-001
4.011211e+002, 2.306901e-001
4.030495e+002, 2.290973e-001
4.049780e+002, 2.292058e-001
4.069065e+002, 2.299358e-001
4.088349e+002, 2.286801e-001
4.107634e+002, 2.250185e-001
4.126919e+002, 2.191228e-001
4.146203e+002, 2.147535e-001
4.165488e+002, 2.155192e-001
4.184773e+002, 2.106063e-001
4.204057e+002, 2.023369e-001
4.223342e+002, 1.966746e-001
4.242627e+002, 1.942915e-001
4.261911e+002, 1.900352e-001
4.281196e+002, 1.867233e-001
4.300481e+002, 1.857975e-001
4.319765e+002, 1.849614e-001
4.339050e+002, 1.841167e-001
4.358335e+002, 1.836651e-001
4.377619e+002, 1.845036e-001
4.396904e+002, 1.865137e-001
4.416189e+002, 1.887907e-001
4.435473e+002, 1.914437e-001
4.454758e+002, 1.949551e-001
4.474043e+002, 1.993885e-001
4.493327e+002, 2.032934e-001
4.512612e+002, 2.060690e-001
4.531897e+002, 2.094948e-001
4.551181e+002, 2.142949e-001
4.570466e+002, 2.171495e-001
4.589751e+002, 2.197729e-001
4.609035e+002, 2.228002e-001
4.628320e+002, 2.246717e-001
4.647605e+002, 2.254303e-001
4.666889e+002, 2.269457e-001
4.686174e+002, 2.261695e-001
4.705459e+002, 2.254021e-001
4.724743e+002, 2.251929e-001
4.744028e+002, 2.231265e-001
4.763313e+002, 2.207184e-001
4.782597e+002, 2.183525e-001
4.801882e+002, 2.153244e-001
4.821167e+002, 2.116928e-001
4.840451e+002, 2.079756e-001
4.859736e+002, 2.039309e-001
4.879021e+002, 1.995596e-001
4.898305e+002, 1.951490e-001
4.917590e+002, 1.912273e-001
4.936875e+002, 1.874535e-001
4.956159e+002, 1.824859e-001
4.975444e+002, 1.777920e-001
4.994729e+002, 1.736197e-001
5.014013e+002, 1.700028e-001
5.033298e+002, 1.671558e-001
5.052583e+002, 1.649247e-001
5.071867e+002, 1.623618e-001
5.091152e+002, 1.587971e-001
5.110437e+002, 1.565837e-001
5.129721e+002, 1.541397e-001
5.149006e+002, 1.518505e-001
5.168290e+002, 1.497617e-001
5.187575e+002, 1.478731e-001
5.206860e+002, 1.478486e-001
5.226144e+002, 1.491132e-001
5.245429e+002, 1.507142e-001
5.264714e+002, 1.527878e-001
5.283998e+002, 1.548900e-001
5.303283e+002, 1.564135e-001
5.322568e+002, 1.568163e-001
5.341852e+002, 1.566846e-001
5.361137e+002, 1.554059e-001
5.380422e+002, 1.521926e-001
5.399706e+002, 1.483901e-001
5.418991e+002, 1.447175e-001
5.438276e+002, 1.408607e-001
5.457560e+002, 1.367648e-001
5.476845e+002, 1.332492e-001
5.496130e+002, 1.302377e-001
5.515414e+002, 1.270020e-001
5.534699e+002, 1.235829e-001
5.553984e+002, 1.206074e-001
5.573268e+002, 1.178893e-001
5.592553e+002, 1.147798e-001
5.611838e+002, 1.116102e-001
5.631122e+002, 1.087856e-001
5.650407e+002, 1.065040e-001
5.669692e+002, 1.047030e-001
5.688976e+002, 1.033110e-001
5.708261e+002, 1.024461e-001
5.727546e+002, 1.018715e-001
5.746830e+002, 1.023498e-001
5.766115e+002, 1.039311e-001
5.785400e+002, 1.064018e-001
5.804684e+002, 1.095208e-001
5.823969e+002, 1.135584e-001
5.843254e+002, 1.178584e-001
5.862538e+002, 1.220767e-001
5.881823e+002, 1.249909e-001
5.901108e+002, 1.261466e-001
5.920392e+002, 1.260673e-001
5.939677e+002, 1.244693e-001
5.958962e+002, 1.211097e-001
5.978246e+002, 1.169745e-001
5.997531e+002, 1.130317e-001
6.016816e+002, 1.092163e-001
6.036100e+002, 1.060386e-001
6.055385e+002, 1.036370e-001
6.074670e+002, 1.017051e-001
6.093954e+002, 9.977496e-002
6.113239e+002, 9.820051e-002
6.132524e+002, 9.710135e-002
6.151808e+002, 9.617841e-002
6.171093e+002, 9.524751e-002
6.190378e+002, 9.483594e-002
6.209662e+002, 9.476613e-002
6.228947e+002, 9.484074e-002
6.248232e+002, 9.528772e-002
6.267516e+002, 9.587891e-002
6.286801e+002, 9.642222e-002
6.306086e+002, 9.700368e-002
6.325370e+002, 9.748755e-002
6.344655e+002, 9.764878e-002
6.363940e+002, 9.720483e-002
6.383224e+002, 9.556349e-002
6.402509e+002, 9.345485e-002
6.421794e+002, 9.061517e-002
6.441078e+002, 8.757123e-002
6.460363e+002, 8.460977e-002
6.479648e+002, 8.160590e-002
6.498932e+002, 7.886287e-002
6.518217e+002, 7.642105e-002
6.537502e+002, 7.421890e-002
6.556786e+002, 7.226740e-002
6.576071e+002, 7.030903e-002
6.595356e+002, 6.816179e-002
6.614641e+002, 6.582895e-002
6.633925e+002, 6.342135e-002
6.653210e+002, 6.118752e-002
6.672495e+002, 5.863924e-002
6.691779e+002, 5.507881e-002
6.711064e+002, 5.106014e-002
6.730349e+002, 4.694453e-002
6.749633e+002, 4.285508e-002
6.768918e+002, 3.922458e-002
6.788203e+002, 3.604794e-002
6.807487e+002, 3.324198e-002
6.826772e+002, 3.068758e-002
6.846057e+002, 2.830526e-002
6.865341e+002, 2.626140e-002
6.884626e+002, 2.454199e-002
6.903911e+002, 2.321922e-002
6.923195e+002, 2.191495e-002
6.942480e+002, 2.065118e-002
6.961765e+002, 1.981289e-002
6.981049e+002, 1.895903e-002
7.000334e+002, 1.829407e-002
7.019619e+002, 1.758021e-002
7.038903e+002, 1.718202e-002
7.058188e+002, 1.680308e-002
7.077473e+002, 1.634716e-002
7.096757e+002, 1.583136e-002
7.116042e+002, 1.556722e-002
7.135327e+002, 1.541673e-002
7.154611e+002, 1.525608e-002
7.173896e+002, 1.511274e-002
7.193181e+002, 1.500508e-002
7.212465e+002, 1.483941e-002
7.231750e+002, 1.483746e-002
7.251035e+002, 1.488466e-002
7.270319e+002, 1.473552e-002
7.289604e+002, 1.471731e-002
7.308889e+002, 1.488412e-002
7.328173e+002, 1.495179e-002
7.347458e+002, 1.499052e-002
7.366743e+002, 1.518508e-002
7.386027e+002, 1.540872e-002
7.405312e+002, 1.556363e-002
7.424597e+002, 1.566492e-002
7.443881e+002, 1.589365e-002
7.463166e+002, 1.625380e-002
7.482451e+002, 1.647390e-002
7.501735e+002, 1.674555e-002
7.521020e+002, 1.702289e-002
7.540305e+002, 1.743116e-002
7.559589e+002, 1.791470e-002
7.578874e+002, 1.839636e-002
7.598159e+002, 1.895177e-002
7.617443e+002, 1.954849e-002
7.636728e+002, 2.038615e-002
7.656013e+002, 2.126059e-002
7.675297e+002, 2.228664e-002
7.694582e+002, 2.323511e-002
7.713867e+002, 2.408984e-002
7.733151e+002, 2.539218e-002
7.752436e+002, 2.717155e-002
7.771721e+002, 2.905202e-002
7.791005e+002, 3.116694e-002
7.810290e+002, 3.355762e-002
7.829575e+002, 3.627249e-002
7.848859e+002, 3.924273e-002
7.868144e+002, 4.244230e-002
7.887429e+002, 4.611361e-002
7.906713e+002, 5.018229e-002
7.925998e+002, 5.419122e-002
7.945283e+002, 5.825452e-002
7.964567e+002, 6.261452e-002
7.983852e+002, 6.684402e-002
8.003137e+002, 7.101191e-002
8.022421e+002, 7.515275e-002
8.041706e+002, 7.921634e-002
8.060991e+002, 8.282877e-002
8.080275e+002, 8.592217e-002
8.099560e+002, 8.860004e-002
8.118845e+002, 9.061053e-002
8.138129e+002, 9.172571e-002
8.157414e+002, 9.193323e-002
8.176699e+002, 9.126928e-002
8.195983e+002, 8.999503e-002
8.215268e+002, 8.806598e-002
8.234553e+002, 8.552529e-002
8.253837e+002, 8.214027e-002
8.273122e+002, 7.822339e-002
8.292407e+002, 7.364742e-002
8.311691e+002, 6.826761e-002
8.330976e+002, 6.257875e-002
8.350261e+002, 5.700972e-002
8.369545e+002, 5.138890e-002
8.388830e+002, 4.586928e-002
8.408115e+002, 4.096225e-002
8.427399e+002, 3.654564e-002
8.446684e+002, 3.269459e-002
8.465969e+002, 2.953643e-002
8.485253e+002, 2.689853e-002
8.504538e+002, 2.486536e-002
8.523823e+002, 2.335495e-002
8.543107e+002, 2.224792e-002
8.562392e+002, 2.133793e-002
8.581677e+002, 2.088609e-002
8.600961e+002, 2.046778e-002
8.620246e+002, 2.020143e-002
8.639531e+002, 2.013277e-002
8.658815e+002, 2.008837e-002
8.678100e+002, 2.013825e-002
8.697385e+002, 2.019042e-002
8.716669e+002, 2.033466e-002
8.735954e+002, 2.051804e-002
8.755239e+002, 2.092027e-002
8.774523e+002, 2.135202e-002
8.793808e+002, 2.165917e-002
8.813093e+002, 2.210099e-002
8.832377e+002, 2.260777e-002
8.851662e+002, 2.316524e-002
8.870947e+002, 2.378285e-002
8.890231e+002, 2.432181e-002
8.909516e+002, 2.503662e-002
8.928801e+002, 2.571290e-002
8.948085e+002, 2.620128e-002
8.967370e+002, 2.671638e-002
8.986655e+002, 2.747456e-002
9.005939e+002, 2.836750e-002
9.025224e+002, 2.923735e-002
9.044509e+002, 3.010156e-002
9.063793e+002, 3.103239e-002
9.083078e+002, 3.196314e-002
9.102363e+002, 3.284547e-002
9.121647e+002, 3.378426e-002
9.140932e+002, 3.464697e-002
9.160217e+002, 3.555625e-002
9.179501e+002, 3.650741e-002
9.198786e+002, 3.724210e-002
9.218071e+002, 3.810339e-002
9.237355e+002, 3.914945e-002
9.256640e+002, 4.014720e-002
9.275925e+002, 4.133916e-002
9.295209e+002, 4.265925e-002
9.314494e+002, 4.419152e-002
9.333779e+002, 4.576304e-002
9.353063e+002, 4.724998e-002
9.372348e+002, 4.893306e-002
9.391633e+002, 5.080800e-002
9.410917e+002, 5.287964e-002
9.430202e+002, 5.499369e-002
9.449487e+002, 5.728064e-002
9.468771e+002, 5.981279e-002
9.488056e+002, 6.231535e-002
9.507341e+002, 6.486527e-002
9.526625e+002, 6.771334e-002
9.545910e+002, 7.073093e-002
9.565195e+002, 7.383372e-002
9.584479e+002, 7.732692e-002
9.603764e+002, 8.106592e-002
9.623049e+002, 8.494557e-002
9.642333e+002, 8.921677e-002
9.661618e+002, 9.374558e-002
9.680903e+002, 9.845191e-002
9.700187e+002, 1.033570e-001
9.719472e+002, 1.084957e-001
9.738757e+002, 1.142724e-001
9.758041e+002, 1.204195e-001
9.777326e+002, 1.267941e-001
9.796611e+002, 1.336195e-001
9.815895e+002, 1.412131e-001
9.835180e+002, 1.490990e-001
9.854465e+002, 1.572310e-001
9.873749e+002, 1.658377e-001
9.893034e+002, 1.750477e-001
9.912319e+002, 1.844970e-001
9.931603e+002, 1.941711e-001
9.950888e+002, 2.037583e-001
9.970173e+002, 2.130352e-001
9.989457e+002, 2.217551e-001
1.000874e+003, 2.301114e-001
1.002803e+003, 2.377749e-001
1.004731e+003, 2.445511e-001
1.006660e+003, 2.503584e-001
1.008588e+003, 2.549791e-001
1.010517e+003, 2.582915e-001
1.012445e+003, 2.601549e-001
1.014373e+003, 2.608286e-001
1.016302e+003, 2.603908e-001
1.018230e+003, 2.582796e-001
1.020159e+003, 2.545508e-001
1.022087e+003, 2.496385e-001
1.024016e+003, 2.434122e-001
1.025944e+003, 2.359841e-001
1.027873e+003, 2.282858e-001
1.029801e+003, 2.211278e-001
1.031730e+003, 2.150603e-001
1.033658e+003, 2.105408e-001
1.035587e+003, 2.080717e-001
1.037515e+003, 2.077672e-001
1.039443e+003, 2.095749e-001
1.041372e+003, 2.133348e-001
1.043300e+003, 2.193738e-001
1.045229e+003, 2.275786e-001
1.047157e+003, 2.371150e-001
1.049086e+003, 2.477828e-001
1.051014e+003, 2.594631e-001
1.052943e+003, 2.711215e-001
1.054871e+003, 2.822664e-001
1.056800e+003, 2.927850e-001
1.058728e+003, 3.020986e-001
1.060657e+003, 3.096641e-001
1.062585e+003, 3.149178e-001
1.064514e+003, 3.182242e-001
1.066442e+003, 3.201603e-001
1.068370e+003, 3.206692e-001
1.070299e+003, 3.198507e-001
1.072227e+003, 3.177623e-001
1.074156e+003, 3.148900e-001
1.076084e+003, 3.113979e-001
1.078013e+003, 3.074609e-001
1.079941e+003, 3.029611e-001
1.081870e+003, 2.980906e-001
1.083798e+003, 2.930674e-001
1.085727e+003, 2.877163e-001
1.087655e+003, 2.820025e-001
1.089584e+003, 2.763105e-001
1.091512e+003, 2.704077e-001
1.093441e+003, 2.644767e-001
1.095369e+003, 2.582339e-001
1.097297e+003, 2.517889e-001
1.099226e+003, 2.451551e-001
1.101154e+003, 2.385260e-001
1.103083e+003, 2.317711e-001
1.105011e+003, 2.249043e-001
1.106940e+003, 2.178976e-001
1.108868e+003, 2.110690e-001
1.110797e+003, 2.046230e-001
1.112725e+003, 1.983534e-001
1.114654e+003, 1.921356e-001
1.116582e+003, 1.865024e-001
1.118511e+003, 1.812478e-001
1.120439e+003, 1.757924e-001
1.122368e+003, 1.703165e-001
1.124296e+003, 1.650896e-001
1.126224e+003, 1.596921e-001
1.128153e+003, 1.540186e-001
1.130081e+003, 1.484686e-001
1.132010e+003, 1.430011e-001
1.133938e+003, 1.373795e-001
1.135867e+003, 1.318689e-001
1.137795e+003, 1.264492e-001
1.139724e+003, 1.211338e-001
1.141652e+003, 1.158328e-001
1.143581e+003, 1.109048e-001
1.145509e+003, 1.063328e-001
1.147438e+003, 1.021017e-001
1.149366e+003, 9.840260e-002
1.151295e+003, 9.515677e-002
1.153223e+003, 9.199505e-002
1.155151e+003, 8.879334e-002
1.157080e+003, 8.577042e-002
1.159008e+003, 8.283978e-002
1.160937e+003, 7.995717e-002
1.162865e+003, 7.716324e-002
1.164794e+003, 7.466428e-002
1.166722e+003, 7.243911e-002
1.168651e+003, 7.007591e-002
1.170579e+003, 6.780782e-002
1.172508e+003, 6.579532e-002
1.174436e+003, 6.402084e-002
1.176365e+003, 6.234534e-002
1.178293e+003, 6.078231e-002
1.180222e+003, 5.946015e-002
1.182150e+003, 5.830377e-002
1.184078e+003, 5.737460e-002
1.186007e+003, 5.672846e-002
1.187935e+003, 5.599411e-002
1.189864e+003, 5.512176e-002
1.191792e+003, 5.408070e-002
1.193721e+003, 5.267069e-002
1.195649e+003, 5.084283e-002
1.197578e+003, 4.870566e-002
1.199506e+003, 4.611596e-002
1.201435e+003, 4.305814e-002
1.203363e+003, 3.990418e-002
1.205292e+003, 3.678080e-002
1.207220e+003, 3.349171e-002
1.209149e+003, 3.022393e-002
1.211077e+003, 2.685088e-002
1.213005e+003, 2.359569e-002
1.214934e+003, 2.074422e-002
1.216862e+003, 1.832982e-002
1.218791e+003, 1.614964e-002
1.220719e+003, 1.417787e-002
1.222648e+003, 1.227640e-002
1.224576e+003, 1.081002e-002
1.226505e+003, 9.739147e-003
1.228433e+003, 8.706375e-003
1.230362e+003, 7.873587e-003
1.232290e+003, 7.218605e-003
1.234219e+003, 6.546425e-003
1.236147e+003, 5.946358e-003
1.238076e+003, 5.477184e-003
1.240004e+003, 5.150685e-003
1.241932e+003, 4.807944e-003
1.243861e+003, 4.366458e-003
1.245789e+003, 3.924654e-003
1.247718e+003, 3.619197e-003
1.249646e+003, 3.389562e-003
1.251575e+003, 3.276065e-003
1.253503e+003, 3.155419e-003
1.255432e+003, 2.921285e-003
1.257360e+003, 2.686774e-003
1.259289e+003, 2.546899e-003
1.261217e+003, 2.419092e-003
1.263146e+003, 2.250944e-003
1.265074e+003, 2.111404e-003
1.267003e+003, 1.920283e-003
1.268931e+003, 1.686382e-003
1.270859e+003, 1.620498e-003
1.272788e+003, 1.585757e-003
1.274716e+003, 1.481199e-003
1.276645e+003, 1.311593e-003
1.278573e+003, 1.247648e-003
1.280502e+003, 1.343012e-003
1.282430e+003, 1.301952e-003
1.284359e+003, 1.188822e-003
1.286287e+003, 1.212666e-003
1.288216e+003, 1.127162e-003
1.290144e+003, 8.887252e-004
1.292073e+003, 7.846883e-004
1.294001e+003, 7.719289e-004
1.295930e+003, 6.921412e-004
1.297858e+003, 6.230219e-004
1.299786e+003, 6.522105e-004
1.301715e+003, 7.156417e-004
1.303643e+003, 7.580290e-004
1.305572e+003, 7.201449e-004
1.307500e+003, 6.672350e-004
1.309429e+003, 6.412235e-004
1.311357e+003, 6.030923e-004
1.313286e+003, 6.273102e-004
1.315214e+003, 6.599743e-004
1.317143e+003, 7.061475e-004
1.319071e+003, 6.935080e-004
1.321000e+003, 6.055586e-004
1.322928e+003, 4.435777e-004
1.324857e+003, 4.077882e-004
1.326785e+003, 4.197118e-004
1.328714e+003, 3.504475e-004
1.330642e+003, 2.825270e-004
1.332570e+003, 3.529798e-004
1.334499e+003, 3.307771e-004
1.336427e+003, 3.081173e-004
1.338356e+003, 2.168029e-004
1.340284e+003, 1.248007e-004
1.342213e+003, 1.606439e-004
1.344141e+003, 2.779388e-004
1.346070e+003, 2.022122e-004
1.347998e+003, 1.674219e-004
1.349927e+003, 1.638946e-004
1.351855e+003, 1.045749e-004
1.353784e+003, 9.318670e-005
1.355712e+003, 1.837914e-004
1.357641e+003, 1.004496e-004
1.359569e+003, 8.576315e-005
1.361497e+003, 1.948886e-004
1.363426e+003, 1.600936e-004
1.365354e+003, 6.714711e-005
1.367283e+003, 2.768563e-005
1.369211e+003, -1.410726e-005
1.371140e+003, 2.075203e-005
1.373068e+003, 7.168758e-005
1.374997e+003, 1.060484e-004
1.376925e+003, 1.475805e-004
1.378854e+003, 1.586541e-004
1.380782e+003, 1.648622e-004
1.382711e+003, 1.359463e-004
1.384639e+003, 2.160599e-005
1.386568e+003, 1.488611e-004
1.388496e+003, 1.986740e-004
1.390424e+003, 1.296843e-004
1.392353e+003, 1.934969e-004
1.394281e+003, 3.557550e-004
1.396210e+003, 3.063525e-004
1.398138e+003, 2.840147e-004
1.400067e+003, 3.418188e-004
1.401995e+003, 4.637029e-004
1.403924e+003, 5.020909e-004
1.405852e+003, 5.109413e-004
1.407781e+003, 4.588499e-004
1.409709e+003, 5.045896e-004
1.411638e+003, 4.996605e-004
1.413566e+003, 4.798640e-004
1.415495e+003, 5.143177e-004
1.417423e+003, 7.087900e-004
1.419351e+003, 8.143348e-004
1.421280e+003, 6.801806e-004
1.423208e+003, 7.303007e-004
1.425137e+003, 8.208345e-004
1.427065e+003, 7.589805e-004
1.428994e+003, 7.390610e-004
1.430922e+003, 9.059302e-004
1.432851e+003, 8.682701e-004
1.434779e+003, 8.089925e-004
1.436708e+003, 9.622017e-004
1.438636e+003, 8.043065e-004
1.440565e+003, 6.252956e-004
1.442493e+003, 5.809342e-004
1.444422e+003, 6.178339e-004
1.446350e+003, 6.977265e-004
1.448278e+003, 7.533379e-004
1.450207e+003, 7.436186e-004
1.452135e+003, 8.540705e-004
1.454064e+003, 9.455327e-004
1.455992e+003, 1.367698e-003
1.457921e+003, 1.354461e-003
1.459849e+003, 9.200698e-004
1.461778e+003, 7.057402e-004
1.463706e+003, 8.791534e-004
1.465635e+003, 1.023696e-003
1.467563e+003, 7.772591e-004
1.469492e+003, 6.800767e-004
1.471420e+003, 8.462503e-004
1.473349e+003, 1.011874e-003
1.475277e+003, 9.215300e-004
1.477205e+003, 7.046141e-004
1.479134e+003, 5.338094e-004
1.481062e+003, 5.489127e-004
1.482991e+003, 4.664913e-004
1.484919e+003, 4.466776e-004
1.486848e+003, 5.417367e-004
1.488776e+003, 5.502088e-004
1.490705e+003, 5.083246e-004
1.492633e+003, 4.602025e-004
1.494562e+003, 5.492271e-004
1.496490e+003, 7.186029e-004
1.498419e+003, 5.767166e-004
1.500347e+003, 4.677300e-004
1.502276e+003, 4.626740e-004
1.504204e+003, 6.110821e-004
1.506132e+003, 9.776666e-004
1.508061e+003, 9.212841e-004
1.509989e+003, 6.605613e-004
1.511918e+003, 5.232943e-004
1.513846e+003, 4.437233e-004
1.515775e+003, 5.619715e-004
1.517703e+003, 6.408253e-004
1.519632e+003, 6.847058e-004
1.521560e+003, 8.641600e-004
1.523489e+003, 6.772851e-004
1.525417e+003, 5.500278e-004
1.527346e+003, 6.004865e-004
1.529274e+003, 5.619678e-004
1.531203e+003, 6.746228e-004
1.533131e+003, 7.989710e-004
1.535059e+003, 5.516912e-004
1.536988e+003, 6.957973e-004
1.538916e+003, 1.395419e-003
1.540845e+003, 1.363738e-003
1.542773e+003, 9.468627e-004
1.544702e+003, 8.424634e-004
1.546630e+003, 6.736196e-004
1.548559e+003, 5.916391e-004
1.550487e+003, 6.512299e-004
1.552416e+003, 7.515482e-004
1.554344e+003, 8.753851e-004
1.556273e+003, 1.182329e-003
1.558201e+003, 1.870112e-003
1.560130e+003, 1.960156e-003
1.562058e+003, 1.385201e-003
1.563986e+003, 1.189500e-003
1.565915e+003, 1.274215e-003
1.567843e+003, 1.402455e-003
1.569772e+003, 1.521855e-003
1.571700e+003, 1.524333e-003
1.573629e+003, 1.701983e-003
1.575557e+003, 2.111115e-003
1.577486e+003, 2.041649e-003
1.579414e+003, 1.904317e-003
1.581343e+003, 2.058799e-003
1.583271e+003, 1.980269e-003
1.585200e+003, 2.013691e-003
1.587128e+003, 2.069869e-003
1.589057e+003, 2.283835e-003
1.590985e+003, 2.499237e-003
1.592913e+003, 2.510197e-003
1.594842e+003, 2.611395e-003
1.596770e+003, 2.737701e-003
1.598699e+003, 2.735144e-003
1.600627e+003, 2.883265e-003
1.602556e+003, 3.037781e-003
1.604484e+003, 3.064383e-003
1.606413e+003, 3.067465e-003
1.608341e+003, 3.040199e-003
1.610270e+003, 3.036973e-003
1.612198e+003, 3.009804e-003
1.614127e+003, 3.186310e-003
1.616055e+003, 3.512740e-003
1.617984e+003, 3.191089e-003
1.619912e+003, 2.880076e-003
1.621840e+003, 3.016295e-003
1.623769e+003, 2.994801e-003
1.625697e+003, 2.919050e-003
1.627626e+003, 2.829248e-003
1.629554e+003, 2.669224e-003
1.631483e+003, 2.612744e-003
1.633411e+003, 2.771086e-003
1.635340e+003, 2.916011e-003
1.637268e+003, 2.653018e-003
1.639197e+003, 2.316969e-003
1.641125e+003, 2.217069e-003
1.643054e+003, 2.172801e-003
1.644982e+003, 2.429329e-003
1.646911e+003, 2.509048e-003
1.648839e+003, 2.282032e-003
1.650767e+003, 2.500804e-003
1.652696e+003, 2.932571e-003
1.654624e+003, 2.316682e-003
1.656553e+003, 1.771806e-003
1.658481e+003, 1.601518e-003
1.660410e+003, 1.456394e-003
1.662338e+003, 1.551854e-003
1.664267e+003, 1.554036e-003
1.666195e+003, 1.538515e-003
1.668124e+003, 1.625693e-003
1.670052e+003, 1.591632e-003
1.671981e+003, 1.436694e-003
1.673909e+003, 1.376388e-003
1.675838e+003, 1.283903e-003
1.677766e+003, 1.085040e-003
1.679694e+003, 1.112815e-003
1.681623e+003, 1.320019e-003
1.683551e+003, 1.810275e-003
1.685480e+003, 1.633779e-003
1.687408e+003, 1.184317e-003
1.689337e+003, 1.135157e-003
1.691265e+003, 9.642266e-004
1.693194e+003, 9.540338e-004
1.695122e+003, 1.554060e-003
1.697051e+003, 1.561970e-003
1.698979e+003, 1.488776e-003
1.700908e+003, 1.517855e-003
1.702836e+003, 9.668532e-004
1.704765e+003, 9.022303e-004
1.706693e+003, 7.348338e-004
1.708621e+003, 6.394926e-004
1.710550e+003, 6.677844e-004
1.712478e+003, 6.651311e-004
1.714407e+003, 7.101730e-004
1.716335e+003, 1.043018e-003
1.718264e+003, 1.029484e-003
1.720192e+003, 5.440684e-004
1.722121e+003, 3.847453e-004
1.724049e+003, 2.833963e-004
1.725978e+003, 2.002527e-004
1.727906e+003, 3.188594e-004
1.729835e+003, 3.299414e-004
1.731763e+003, 6.795855e-004
1.733692e+003, 1.187681e-003
1.735620e+003, 8.236828e-004
1.737548e+003, 3.081370e-004
1.739477e+003, 1.642362e-004
1.741405e+003, -1.452500e-004
1.743334e+003, -4.323766e-004
1.745262e+003, -5.115024e-004
1.747191e+003, -5.003180e-004
1.749119e+003, -2.209736e-004
1.751048e+003, -1.193537e-004
1.752976e+003, -3.885998e-004
1.754905e+003, -3.428166e-004
1.756833e+003, -1.367222e-004
1.758762e+003, -3.703494e-004
1.760690e+003, -3.955875e-004
1.762619e+003, -2.139426e-004
1.764547e+003, -3.464280e-004
1.766475e+003, -4.477681e-004
1.768404e+003, -3.948992e-004
1.770332e+003, -3.136490e-004
1.772261e+003, 2.589204e-005
1.774189e+003, -9.480988e-005
1.776118e+003, -3.321880e-004
1.778046e+003, -2.386075e-004
1.779975e+003, -1.455781e-004
1.781903e+003, -1.799621e-004
1.783832e+003, -1.305675e-004
1.785760e+003, -5.662776e-005
1.787689e+003, -2.573291e-004
1.789617e+003, -4.845923e-004
1.791546e+003, -3.230742e-004
1.793474e+003, -3.174703e-004
1.795402e+003, -3.678074e-004
1.797331e+003, -2.654452e-004
1.799259e+003, -1.363246e-004
1.801188e+003, -1.377828e-004
1.803116e+003, -3.604518e-004
1.805045e+003, -4.332145e-004
1.806973e+003, -3.926735e-004
1.808902e+003, -3.373649e-004
1.810830e+003, -2.801940e-004
1.812759e+003, -2.386880e-004
1.814687e+003, -4.022987e-004
1.816616e+003, -4.792921e-004
1.818544e+003, -2.917016e-004
1.820473e+003, -1.999778e-004
1.822401e+003, -2.275807e-004
1.824329e+003, -1.482165e-004
1.826258e+003, -1.061278e-004
1.828186e+003, -1.181672e-004
1.830115e+003, -1.593206e-004
1.832043e+003, -2.172468e-004
1.833972e+003, -1.115163e-004
1.835900e+003, -2.339194e-004
1.837829e+003, -5.801360e-005
1.839757e+003, 2.240576e-005
1.841686e+003, -1.160154e-004
1.843614e+003, -2.163398e-004
1.845543e+003, -1.621987e-004
1.847471e+003, -2.480879e-004
1.849400e+003, -3.549723e-004
1.851328e+003, -3.013038e-004
1.853256e+003, -1.422343e-004
1.855185e+003, -2.430988e-004
1.857113e+003, -3.259416e-004
1.859042e+003, -1.808753e-004
1.860970e+003, 1.413125e-004
1.862899e+003, 1.703104e-004
1.864827e+003, 2.262929e-005
1.866756e+003, -1.122196e-004
1.868684e+003, -1.673483e-005
1.870613e+003, 9.583119e-005
1.872541e+003, -9.055435e-005
1.874470e+003, -6.170128e-004
1.876398e+003, -5.268406e-004
1.878327e+003, -2.158886e-004
1.880255e+003, -2.750223e-004
1.882183e+003, -3.905623e-004
1.884112e+003, -4.188358e-004
1.886040e+003, -1.696893e-004
1.887969e+003, 2.249102e-004
1.889897e+003, 1.667340e-005
1.891826e+003, -8.153939e-005
1.893754e+003, -1.922971e-004
1.895683e+003, -2.743377e-004
1.897611e+003, 3.745695e-004
1.899540e+003, 3.562183e-004
1.901468e+003, 6.060209e-005
1.903397e+003, -2.631315e-005
1.905325e+003, 6.764790e-005
1.907254e+003, 3.676964e-004
1.909182e+003, 2.851187e-004
1.911110e+003, -7.698438e-005
1.913039e+003, 1.253833e-004
1.914967e+003, 3.665343e-004
1.916896e+003, 7.790360e-004
1.918824e+003, 1.002507e-003
1.920753e+003, 8.147117e-004
1.922681e+003, 4.648429e-004
1.924610e+003, -3.003231e-004
1.926538e+003, -2.903061e-004
1.928467e+003, 1.308470e-004
1.930395e+003, 1.475366e-004
1.932324e+003, 2.732170e-004
1.934252e+003, 3.936511e-004
1.936181e+003, 7.215138e-004
1.938109e+003, 9.641959e-004
1.940037e+003, 1.503254e-004
1.941966e+003, -1.797301e-005
1.943894e+003, 3.394352e-004
1.945823e+003, 3.146197e-004
1.947751e+003, 7.367065e-004
1.949680e+003, 7.639463e-004
1.951608e+003, 9.305659e-005
1.953537e+003, 1.375019e-004
1.955465e+003, -1.765555e-004
1.957394e+003, -8.695317e-005
1.959322e+003, 3.806830e-004
1.961251e+003, 1.219049e-003
1.963179e+003, 1.552799e-003
1.965108e+003, 1.275491e-003
1.967036e+003, 1.905356e-004
1.968964e+003, 4.347162e-004
1.970893e+003, 1.130435e-003
1.972821e+003, 1.633663e-003
1.974750e+003, 1.981763e-003
1.976678e+003, 1.562063e-003
1.978607e+003, 2.476831e-003
1.980535e+003, 3.329753e-003
1.982464e+003, 1.759191e-003
1.984392e+003, 6.611149e-004
1.986321e+003, 8.394246e-004
1.988249e+003, 5.739389e-004
1.990178e+003, 8.656217e-004
1.992106e+003, 1.124506e-003
1.994035e+003, 8.636790e-004
1.995963e+003, 1.375637e-003
1.997891e+003, 1.310184e-003
1.999820e+003, 4.786756e-004
2.001748e+003, -2.298935e-004
2.003677e+003, -8.375926e-004
2.005605e+003, -1.262078e-003
2.007534e+003, -3.778315e-004
2.009462e+003, -3.040656e-004
2.011391e+003, -1.069858e-003
2.013319e+003, -9.909072e-004
2.015248e+003, -4.485641e-004
2.017176e+003, -7.180357e-005
2.019105e+003, -2.254825e-005
2.021033e+003, -6.254781e-004
2.022962e+003, -1.705941e-004
2.024890e+003, 3.946791e-004
2.026818e+003, -7.898500e-005
2.028747e+003, -4.227362e-004
2.030675e+003, -2.777139e-004
2.032604e+003, 5.412512e-004
2.034532e+003, 6.899284e-004
2.036461e+003, 9.579537e-005
2.038389e+003, -2.612954e-004
2.040318e+003, 5.589891e-004
2.042246e+003, 8.281474e-004
2.044175e+003, 3.439165e-005
2.046103e+003, -6.335028e-004
2.048031e+003, -4.248393e-004
2.049960e+003, 8.489741e-004
2.051888e+003, 2.153104e-004
2.053817e+003, -7.436336e-004
2.055745e+003, -4.431969e-004
2.057674e+003, 6.140722e-005
2.059602e+003, -3.216094e-004
2.061531e+003, -9.260841e-004
2.063459e+003, -1.403207e-003
2.065388e+003, -1.066511e-003
2.067316e+003, -4.467302e-004
2.069245e+003, 1.101379e-004
2.071173e+003, 3.241258e-004
2.073102e+003, 7.578521e-006
2.075030e+003, 1.178525e-004
2.076958e+003, -2.137455e-004
2.078887e+003, -2.752079e-004
2.080815e+003, -9.976106e-005
2.082744e+003, -1.023622e-003
2.084672e+003, -9.845069e-004
2.086601e+003, -7.164839e-004
2.088529e+003, -4.924721e-004
2.090458e+003, -5.317925e-004
2.092386e+003, -1.060869e-003
2.094315e+003, -1.451673e-003
2.096243e+003, -9.221683e-004
2.098172e+003, -1.835480e-004
2.100100e+003, 5.850731e-005
2.102029e+003, -2.191925e-004
2.103957e+003, -4.649627e-004
2.105885e+003, -4.465691e-004
2.107814e+003, -2.609650e-004
2.109742e+003, -6.485172e-005
2.111671e+003, -2.948641e-004
2.113599e+003, -6.958010e-004
2.115528e+003, -5.946259e-004
2.117456e+003, -1.207678e-003
2.119385e+003, -1.619044e-003
2.121313e+003, -1.540770e-003
2.123242e+003, -1.291336e-003
2.125170e+003, -1.469751e-003
2.127099e+003, -1.820920e-003
2.129027e+003, -2.161520e-003
2.130956e+003, -1.826184e-003
2.132884e+003, -2.150143e-003
2.134813e+003, -2.886028e-003
2.136741e+003, -2.311619e-003
2.138669e+003, -1.269536e-003
2.140598e+003, -9.380092e-004
2.142526e+003, -2.045913e-003
2.144455e+003, -2.954335e-003
2.146383e+003, -2.739999e-003
2.148312e+003, -2.594124e-003
2.150240e+003, -2.855173e-003
2.152169e+003, -3.285340e-003
2.154097e+003, -2.378526e-003
2.156026e+003, -1.250805e-003
2.157954e+003, 1.483746e-004
2.159883e+003, 1.228319e-003
2.161811e+003, 1.044376e-003
2.163740e+003, 7.251380e-004
2.165668e+003, 8.806014e-004
2.167596e+003, 9.530154e-004
2.169525e+003, 4.053880e-004
2.171453e+003, -5.969875e-004
2.173382e+003, -1.269406e-003
2.175310e+003, -1.281012e-003
2.177239e+003, 1.639836e-004
2.179167e+003, -2.354761e-004
2.181096e+003, -7.990245e-004
2.183024e+003, 3.209803e-006
2.184953e+003, 6.960575e-004
2.186881e+003, -4.004920e-005
2.188810e+003, -9.313615e-004
2.190738e+003, 4.890305e-005
2.192667e+003, 5.691478e-004
2.194595e+003, 2.483393e-004
2.196523e+003, 9.561910e-004
2.198452e+003, 7.832772e-004
2.200380e+003, 7.530861e-005
2.202309e+003, 1.011605e-004
2.204237e+003, 8.370646e-004
2.206166e+003, 6.339650e-004
2.208094e+003, 2.696663e-004
2.210023e+003, 5.285279e-004
2.211951e+003, 7.151333e-004
2.213880e+003, 2.764009e-004
2.215808e+003, 1.326799e-004
2.217737e+003, 4.424944e-004
2.219665e+003, 4.911830e-004
2.221594e+003, 6.960782e-004
2.223522e+003, 9.040812e-004
2.225450e+003, 6.169155e-004
2.227379e+003, 4.328366e-004
2.229307e+003, 4.726034e-004
2.231236e+003, 4.045661e-004
2.233164e+003, 5.354580e-004
2.235093e+003, 6.791729e-004
2.237021e+003, 1.226020e-003
2.238950e+003, 1.611261e-003
2.240878e+003, 1.822958e-003
2.242807e+003, 1.365730e-003
2.244735e+003, 9.783284e-004
2.246664e+003, 1.005913e-003
2.248592e+003, 9.580038e-004
2.250521e+003, 1.211279e-003
2.252449e+003, 1.117066e-003
2.254377e+003, 8.784007e-004
2.256306e+003, 7.298395e-004
2.258234e+003, 9.679852e-004
2.260163e+003, 1.412083e-003
2.262091e+003, 1.233342e-003
2.264020e+003, 5.926458e-004
2.265948e+003, 3.277375e-004
2.267877e+003, 8.502862e-004
2.269805e+003, 1.249396e-003
2.271734e+003, 1.225370e-003
2.273662e+003, 1.458806e-003
2.275591e+003, 2.258354e-003
2.277519e+003, 2.304912e-003
2.279448e+003, 2.213112e-003
2.281376e+003, 2.284541e-003
2.283304e+003, 2.153803e-003
2.285233e+003, 2.456939e-003
2.287161e+003, 1.996258e-003
2.289090e+003, 1.647960e-003
2.291018e+003, 1.660849e-003
2.292947e+003, 1.662608e-003
2.294875e+003, 1.547522e-003
2.296804e+003, 1.519874e-003
2.298732e+003, 1.584469e-003
2.300661e+003, 1.584839e-003
2.302589e+003, 1.545116e-003
2.304518e+003, 1.530975e-003
2.306446e+003, 1.536853e-003
2.308375e+003, 1.668317e-003
2.310303e+003, 1.760454e-003
2.312231e+003, 1.679061e-003
2.314160e+003, 1.850314e-003
2.316088e+003, 2.043821e-003
2.318017e+003, 2.142694e-003
2.319945e+003, 2.450569e-003
2.321874e+003, 2.907784e-003
2.323802e+003, 3.139461e-003
2.325731e+003, 2.656920e-003
2.327659e+003, 1.923645e-003
2.329588e+003, 1.927688e-003
2.331516e+003, 2.545889e-003
2.333445e+003, 2.701612e-003
2.335373e+003, 2.429019e-003
2.337302e+003, 2.276347e-003
2.339230e+003, 2.150638e-003
2.341158e+003, 2.126162e-003
2.343087e+003, 2.390901e-003
2.345015e+003, 2.264735e-003
2.346944e+003, 1.723657e-003
2.348872e+003, 1.504741e-003
2.350801e+003, 1.866785e-003
2.352729e+003, 2.156509e-003
2.354658e+003, 2.456909e-003
2.356586e+003, 2.571612e-003
2.358515e+003, 2.774606e-003
2.360443e+003, 2.952330e-003
2.362372e+003, 3.011138e-003
2.364300e+003, 3.144635e-003
2.366229e+003, 3.157841e-003
2.368157e+003, 2.625603e-003
2.370085e+003, 2.145156e-003
2.372014e+003, 1.997612e-003
2.373942e+003, 1.653564e-003
2.375871e+003, 1.429788e-003
2.377799e+003, 1.286700e-003
2.379728e+003, 1.240298e-003
2.381656e+003, 1.256207e-003
2.383585e+003, 1.294857e-003
2.385513e+003, 1.532915e-003
2.387442e+003, 2.060700e-003
2.389370e+003, 1.991864e-003
2.391299e+003, 1.766121e-003
2.393227e+003, 1.799591e-003
2.395156e+003, 1.336738e-003
2.397084e+003, 1.263431e-003
2.399012e+003, 1.567642e-003
2.400941e+003, 1.502974e-003
2.402869e+003, 1.032939e-003
2.404798e+003, 1.070854e-003
2.406726e+003, 1.635716e-003
2.408655e+003, 1.923503e-003
2.410583e+003, 1.711654e-003
2.412512e+003, 1.353629e-003
2.414440e+003, 1.179010e-003
2.416369e+003, 1.154381e-003
2.418297e+003, 1.065589e-003
2.420226e+003, 1.020584e-003
2.422154e+003, 1.022347e-003
2.424083e+003, 1.358765e-003
2.426011e+003, 1.595746e-003
2.427939e+003, 1.809483e-003
2.429868e+003, 1.832837e-003
2.431796e+003, 2.069141e-003
2.433725e+003, 1.744644e-003
2.435653e+003, 1.355927e-003
2.437582e+003, 1.219809e-003
2.439510e+003, 1.428940e-003
2.441439e+003, 1.514968e-003
2.443367e+003, 1.811485e-003
2.445296e+003, 1.966970e-003
2.447224e+003, 1.681583e-003
2.449153e+003, 1.445955e-003
2.451081e+003, 1.478167e-003
2.453010e+003, 1.394384e-003
2.454938e+003, 1.394593e-003
2.456866e+003, 1.676706e-003
2.458795e+003, 1.835355e-003
2.460723e+003, 1.846452e-003
2.462652e+003, 1.854389e-003
2.464580e+003, 1.767019e-003
2.466509e+003, 1.790360e-003
2.468437e+003, 1.581003e-003
2.470366e+003, 1.716944e-003
2.472294e+003, 1.748568e-003
2.474223e+003, 1.768100e-003
2.476151e+003, 1.864746e-003
2.478080e+003, 1.981114e-003
2.480008e+003, 1.998318e-003
2.481937e+003, 1.794596e-003
2.483865e+003, 1.449680e-003
2.485793e+003, 1.411972e-003
2.487722e+003, 1.445112e-003
2.489650e+003, 1.468072e-003
2.491579e+003, 1.790585e-003
2.493507e+003, 2.043343e-003
2.495436e+003, 1.893105e-003
2.497364e+003, 1.694764e-003
2.499293e+003, 1.355264e-003
2.501221e+003, 1.133732e-003
2.503150e+003, 1.498328e-003
2.505078e+003, 1.751774e-003
2.507007e+003, 1.588260e-003
2.508935e+003, 1.669831e-003
2.510864e+003, 1.893373e-003
2.512792e+003, 1.385883e-003
2.514720e+003, 1.152666e-003
2.516649e+003, 1.839660e-003
2.518577e+003, 2.294650e-003
2.520506e+003, 2.283710e-003
2.522434e+003, 2.480707e-003
2.524363e+003, 2.404754e-003
2.526291e+003, 1.799433e-003
2.528220e+003, 1.630519e-003
2.530148e+003, 1.906091e-003
2.532077e+003, 2.165349e-003
2.534005e+003, 1.757500e-003
2.535934e+003, 1.923473e-003
2.537862e+003, 2.579561e-003
2.539791e+003, 2.365301e-003
2.541719e+003, 2.298765e-003
2.543647e+003, 2.184827e-003
2.545576e+003, 2.207974e-003
2.547504e+003, 2.119773e-003
2.549433e+003, 2.056058e-003
2.551361e+003, 1.730528e-003
2.553290e+003, 1.961490e-003
2.555218e+003, 2.401048e-003
2.557147e+003, 2.422488e-003
2.559075e+003, 2.177179e-003
2.561004e+003, 2.120184e-003
2.562932e+003, 2.336470e-003
2.564861e+003, 2.277452e-003
2.566789e+003, 1.990848e-003
2.568718e+003, 2.016244e-003
2.570646e+003, 2.247580e-003
2.572574e+003, 2.206163e-003
2.574503e+003, 2.142022e-003
2.576431e+003, 2.260748e-003
2.578360e+003, 2.544214e-003
2.580288e+003, 2.463192e-003
2.582217e+003, 2.332336e-003
2.584145e+003, 2.088309e-003
2.586074e+003, 2.010836e-003
2.588002e+003, 2.315721e-003
2.589931e+003, 2.343271e-003
2.591859e+003, 2.350036e-003
2.593788e+003, 2.520261e-003
2.595716e+003, 2.397100e-003
2.597645e+003, 2.198297e-003
2.599573e+003, 2.162159e-003
2.601501e+003, 2.467290e-003
2.603430e+003, 2.587154e-003
2.605358e+003, 2.217382e-003
2.607287e+003, 1.923404e-003
2.609215e+003, 1.839473e-003
2.611144e+003, 2.174272e-003
2.613072e+003, 2.296315e-003
2.615001e+003, 2.145325e-003
2.616929e+003, 2.304616e-003
2.618858e+003, 2.359382e-003
2.620786e+003, 2.341733e-003
2.622715e+003, 2.179271e-003
2.624643e+003, 2.215308e-003
2.626572e+003, 2.389275e-003
2.628500e+003, 2.344195e-003
2.630428e+003, 2.359470e-003
2.632357e+003, 2.559028e-003
2.634285e+003, 2.246311e-003
2.636214e+003, 1.890099e-003
2.638142e+003, 1.960243e-003
2.640071e+003, 2.137929e-003
2.641999e+003, 2.308444e-003
2.643928e+003, 2.551648e-003
2.645856e+003, 2.603346e-003
2.647785e+003, 2.366225e-003
2.649713e+003, 2.262065e-003
2.651642e+003, 2.199031e-003
2.653570e+003, 2.146313e-003
2.655499e+003, 2.216120e-003
2.657427e+003, 2.182475e-003
2.659355e+003, 2.039146e-003
2.661284e+003, 1.928823e-003
2.663212e+003, 1.759160e-003
2.665141e+003, 1.616221e-003
2.667069e+003, 1.384007e-003
2.668998e+003, 1.458250e-003
2.670926e+003, 1.809296e-003
2.672855e+003, 1.760522e-003
2.674783e+003, 1.558576e-003
2.676712e+003, 1.563107e-003
2.678640e+003, 1.613667e-003
2.680569e+003, 1.589159e-003
2.682497e+003, 1.364196e-003
2.684426e+003, 1.425674e-003
2.686354e+003, 1.746343e-003
2.688282e+003, 1.766006e-003
2.690211e+003, 1.648049e-003
2.692139e+003, 1.782888e-003
2.694068e+003, 1.854915e-003
2.695996e+003, 1.904757e-003
2.697925e+003, 1.743837e-003
2.699853e+003, 1.528337e-003
2.701782e+003, 1.545137e-003
2.703710e+003, 1.836488e-003
2.705639e+003, 2.059163e-003
2.707567e+003, 2.021214e-003
2.709496e+003, 1.928616e-003
2.711424e+003, 1.814579e-003
2.713353e+003, 1.768364e-003
2.715281e+003, 1.678658e-003
2.717209e+003, 1.731006e-003
2.719138e+003, 1.732799e-003
2.721066e+003, 1.594213e-003
2.722995e+003, 1.687700e-003
2.724923e+003, 1.829622e-003
2.726852e+003, 1.833112e-003
2.728780e+003, 1.841960e-003
2.730709e+003, 1.877732e-003
2.732637e+003, 1.969043e-003
2.734566e+003, 2.183670e-003
2.736494e+003, 1.984960e-003
2.738423e+003, 1.853440e-003
2.740351e+003, 1.962547e-003
2.742280e+003, 2.131980e-003
2.744208e+003, 2.041431e-003
2.746136e+003, 2.160927e-003
2.748065e+003, 2.083034e-003
2.749993e+003, 1.853163e-003
2.751922e+003, 1.940070e-003
2.753850e+003, 2.202039e-003
2.755779e+003, 2.118823e-003
2.757707e+003, 1.952393e-003
2.759636e+003, 2.068818e-003
2.761564e+003, 2.144545e-003
2.763493e+003, 2.170468e-003
2.765421e+003, 2.179742e-003
2.767350e+003, 2.127461e-003
2.769278e+003, 2.031095e-003
2.771207e+003, 2.013049e-003
2.773135e+003, 2.107067e-003
2.775063e+003, 2.052203e-003
2.776992e+003, 2.139741e-003
2.778920e+003, 2.273910e-003
2.780849e+003, 2.246713e-003
2.782777e+003, 2.113361e-003
2.784706e+003, 2.164036e-003
2.786634e+003, 2.467964e-003
2.788563e+003, 2.668592e-003
2.790491e+003, 2.651667e-003
2.792420e+003, 2.692298e-003
2.794348e+003, 2.780575e-003
2.796277e+003, 2.773990e-003
2.798205e+003, 2.450459e-003
2.800134e+003, 2.378005e-003
2.802062e+003, 2.417636e-003
2.803990e+003, 2.519961e-003
2.805919e+003, 2.647414e-003
2.807847e+003, 2.573558e-003
2.809776e+003, 2.448867e-003
2.811704e+003, 2.443201e-003
2.813633e+003, 2.743307e-003
2.815561e+003, 2.767948e-003
2.817490e+003, 2.671272e-003
2.819418e+003, 2.670333e-003
2.821347e+003, 2.704790e-003
2.823275e+003, 2.571968e-003
2.825204e+003, 2.544875e-003
2.827132e+003, 2.762082e-003
2.829061e+003, 3.025862e-003
2.830989e+003, 3.005105e-003
2.832917e+003, 3.177795e-003
2.834846e+003, 3.358075e-003
2.836774e+003, 3.267194e-003
2.838703e+003, 3.397811e-003
2.840631e+003, 3.611197e-003
2.842560e+003, 3.536438e-003
2.844488e+003, 3.398518e-003
2.846417e+003, 3.609881e-003
2.848345e+003, 3.596077e-003
2.850274e+003, 3.613329e-003
2.852202e+003, 3.713157e-003
2.854131e+003, 3.432794e-003
2.856059e+003, 3.313416e-003
2.857988e+003, 3.368476e-003
2.859916e+003, 3.500588e-003
2.861844e+003, 3.323275e-003
2.863773e+003, 3.264765e-003
2.865701e+003, 3.672130e-003
2.867630e+003, 4.052172e-003
2.869558e+003, 4.023749e-003
2.871487e+003, 3.605533e-003
2.873415e+003, 3.435573e-003
2.875344e+003, 3.401991e-003
2.877272e+003, 3.662443e-003
2.879201e+003, 4.157281e-003
2.881129e+003, 3.919921e-003
2.883058e+003, 3.363102e-003
2.884986e+003, 3.611634e-003
2.886915e+003, 3.955355e-003
2.888843e+003, 4.060966e-003
2.890771e+003, 4.444777e-003
2.892700e+003, 4.356981e-003
2.894628e+003, 4.119171e-003
2.896557e+003, 4.130336e-003
2.898485e+003, 4.350988e-003
2.900414e+003, 4.511122e-003
2.902342e+003, 4.414465e-003
2.904271e+003, 4.502520e-003
2.906199e+003, 4.399248e-003
2.908128e+003, 4.346037e-003
2.910056e+003, 4.615446e-003
2.911985e+003, 4.919248e-003
2.913913e+003, 5.203853e-003
2.915842e+003, 5.357605e-003
2.917770e+003, 5.139583e-003
2.919698e+003, 5.149522e-003
2.921627e+003, 5.251239e-003
2.923555e+003, 5.236464e-003
2.925484e+003, 5.305166e-003
2.927412e+003, 5.254557e-003
2.929341e+003, 5.203379e-003
2.931269e+003, 5.098024e-003
2.933198e+003, 5.222607e-003
2.935126e+003, 4.726711e-003
2.937055e+003, 4.339505e-003
2.938983e+003, 4.355213e-003
2.940912e+003, 4.481319e-003
2.942840e+003, 4.716311e-003
2.944769e+003, 4.608695e-003
2.946697e+003, 4.531404e-003
2.948625e+003, 4.390006e-003
2.950554e+003, 4.544187e-003
2.952482e+003, 4.773315e-003
2.954411e+003, 4.992559e-003
2.956339e+003, 5.221943e-003
2.958268e+003, 5.697683e-003
2.960196e+003, 5.842713e-003
2.962125e+003, 5.764642e-003
2.964053e+003, 5.643844e-003
2.965982e+003, 5.173392e-003
2.967910e+003, 4.769601e-003
2.969839e+003, 4.853430e-003
2.971767e+003, 5.068846e-003
2.973696e+003, 4.925390e-003
2.975624e+003, 4.574871e-003
2.977552e+003, 4.430561e-003
2.979481e+003, 4.201210e-003
2.981409e+003, 4.274840e-003
2.983338e+003, 4.395367e-003
2.985266e+003, 4.247113e-003
2.987195e+003, 4.280181e-003
2.989123e+003, 4.460176e-003
2.991052e+003, 4.843133e-003
2.992980e+003, 4.916480e-003
2.994909e+003, 4.811032e-003
2.996837e+003, 4.919615e-003
2.998766e+003, 4.895404e-003
3.000694e+003, 4.629866e-003
3.002623e+003, 4.524869e-003
3.004551e+003, 4.640114e-003
3.006479e+003, 5.005467e-003
3.008408e+003, 5.229268e-003
3.010336e+003, 5.087974e-003
3.012265e+003, 4.706093e-003
3.014193e+003, 4.604309e-003
3.016122e+003, 4.875207e-003
3.018050e+003, 4.958060e-003
3.019979e+003, 4.967105e-003
3.021907e+003, 5.143698e-003
3.023836e+003, 5.040017e-003
3.025764e+003, 5.053950e-003
3.027693e+003, 5.041603e-003
3.029621e+003, 5.426421e-003
3.031550e+003, 5.641233e-003
3.033478e+003, 5.179017e-003
3.035406e+003, 5.045759e-003
3.037335e+003, 5.418494e-003
3.039263e+003, 5.754594e-003
3.041192e+003, 5.708798e-003
3.043120e+003, 5.190566e-003
3.045049e+003, 5.353638e-003
3.046977e+003, 5.592573e-003
3.048906e+003, 5.670021e-003
3.050834e+003, 5.928278e-003
3.052763e+003, 5.939089e-003
3.054691e+003, 6.159244e-003
3.056620e+003, 6.439557e-003
3.058548e+003, 6.360671e-003
3.060477e+003, 6.201009e-003
3.062405e+003, 6.284180e-003
3.064333e+003, 6.296442e-003
3.066262e+003, 5.868235e-003
3.068190e+003, 5.904246e-003
3.070119e+003, 6.231839e-003
3.072047e+003, 6.564204e-003
3.073976e+003, 6.552309e-003
3.075904e+003, 6.362308e-003
3.077833e+003, 6.404559e-003
3.079761e+003, 6.791741e-003
3.081690e+003, 6.732513e-003
3.083618e+003, 6.601961e-003
3.085547e+003, 6.612707e-003
3.087475e+003, 6.516254e-003
3.089404e+003, 6.589903e-003
3.091332e+003, 6.839078e-003
3.093260e+003, 6.546447e-003
3.095189e+003, 6.892858e-003
3.097117e+003, 7.270952e-003
3.099046e+003, 7.150611e-003
3.100974e+003, 6.904346e-003
3.102903e+003, 7.021222e-003
3.104831e+003, 7.169804e-003
3.106760e+003, 7.152063e-003
3.108688e+003, 7.395246e-003
3.110617e+003, 7.684903e-003
3.112545e+003, 7.562457e-003
3.114474e+003, 7.096160e-003
3.116402e+003, 6.775331e-003
3.118331e+003, 6.891015e-003
3.120259e+003, 7.346070e-003
3.122188e+003, 7.636193e-003
3.124116e+003, 7.278031e-003
3.126044e+003, 7.206554e-003
3.127973e+003, 7.028109e-003
3.129901e+003, 7.116299e-003
3.131830e+003, 7.514367e-003
3.133758e+003, 7.577416e-003
3.135687e+003, 7.721710e-003
3.137615e+003, 7.972754e-003
3.139544e+003, 8.197028e-003
3.141472e+003, 7.842370e-003
3.143401e+003, 7.604764e-003
3.145329e+003, 8.084299e-003
3.147258e+003, 8.357551e-003
3.149186e+003, 7.971832e-003
3.151115e+003, 7.501024e-003
3.153043e+003, 7.526564e-003
3.154971e+003, 8.047098e-003
3.156900e+003, 8.530345e-003
3.158828e+003, 8.377651e-003
3.160757e+003, 8.059477e-003
3.162685e+003, 8.182409e-003
3.164614e+003, 8.552784e-003
3.166542e+003, 8.503357e-003
3.168471e+003, 8.316263e-003
3.170399e+003, 8.419870e-003
3.172328e+003, 8.938582e-003
3.174256e+003, 8.937606e-003
3.176185e+003, 8.760075e-003
3.178113e+003, 9.043869e-003
3.180042e+003, 8.984923e-003
3.181970e+003, 9.027679e-003
3.183898e+003, 9.177084e-003
3.185827e+003, 9.245822e-003
3.187755e+003, 9.162685e-003
3.189684e+003, 8.932663e-003
3.191612e+003, 9.055097e-003
3.193541e+003, 9.690847e-003
3.195469e+003, 9.654019e-003
3.197398e+003, 9.462657e-003
3.199326e+003, 9.812987e-003
3.201255e+003, 9.940945e-003
3.203183e+003, 9.940687e-003
3.205112e+003, 1.009060e-002
3.207040e+003, 9.891658e-003
3.208969e+003, 9.908268e-003
3.210897e+003, 1.004521e-002
3.212825e+003, 9.730859e-003
3.214754e+003, 9.968462e-003
3.216682e+003, 1.020326e-002
3.218611e+003, 9.921998e-003
3.220539e+003, 9.515071e-003
3.222468e+003, 9.792077e-003
3.224396e+003, 1.065742e-002
3.226325e+003, 1.064555e-002
3.228253e+003, 1.019990e-002
3.230182e+003, 1.016110e-002
3.232110e+003, 1.040801e-002
3.234039e+003, 1.046523e-002
3.235967e+003, 1.047769e-002
3.237896e+003, 1.058969e-002
3.239824e+003, 1.115589e-002
3.241752e+003, 1.096165e-002
3.243681e+003, 1.022109e-002
3.245609e+003, 1.049859e-002
3.247538e+003, 1.083209e-002
3.249466e+003, 1.105494e-002
3.251395e+003, 1.096210e-002
3.253323e+003, 1.128874e-002
3.255252e+003, 1.178079e-002
3.257180e+003, 1.150590e-002
3.259109e+003, 1.143787e-002
3.261037e+003, 1.159360e-002
3.262966e+003, 1.178627e-002
3.264894e+003, 1.220862e-002
3.266823e+003, 1.168747e-002
3.268751e+003, 1.161363e-002
3.270679e+003, 1.228969e-002
3.272608e+003, 1.270840e-002
3.274536e+003, 1.256303e-002
3.276465e+003, 1.292594e-002
3.278393e+003, 1.336018e-002
3.280322e+003, 1.352006e-002
3.282250e+003, 1.382474e-002
3.284179e+003, 1.427063e-002
3.286107e+003, 1.474268e-002
3.288036e+003, 1.508155e-002
3.289964e+003, 1.521330e-002
3.291893e+003, 1.603308e-002
3.293821e+003, 1.641178e-002
3.295750e+003, 1.666005e-002
3.297678e+003, 1.740737e-002
3.299606e+003, 1.800889e-002
3.301535e+003, 1.851417e-002
3.303463e+003, 1.955835e-002
3.305392e+003, 2.051693e-002
3.307320e+003, 2.131964e-002
3.309249e+003, 2.183700e-002
3.311177e+003, 2.240719e-002
3.313106e+003, 2.355880e-002
3.315034e+003, 2.489256e-002
3.316963e+003, 2.613462e-002
3.318891e+003, 2.732971e-002
3.320820e+003, 2.869552e-002
3.322748e+003, 2.963434e-002
3.324677e+003, 3.050766e-002
3.326605e+003, 3.185734e-002
3.328533e+003, 3.291428e-002
3.330462e+003, 3.431541e-002
3.332390e+003, 3.568606e-002
3.334319e+003, 3.688977e-002
3.336247e+003, 3.866971e-002
3.338176e+003, 4.022342e-002
3.340104e+003, 4.130265e-002
3.342033e+003, 4.223272e-002
3.343961e+003, 4.358094e-002
3.345890e+003, 4.528424e-002
3.347818e+003, 4.675049e-002
3.349747e+003, 4.812356e-002
3.351675e+003, 4.902329e-002
3.353604e+003, 4.991430e-002
3.355532e+003, 5.149934e-002
3.357460e+003, 5.227807e-002
3.359389e+003, 5.178147e-002
3.361317e+003, 5.225930e-002
3.363246e+003, 5.325868e-002
3.365174e+003, 5.318290e-002
3.367103e+003, 5.276113e-002
3.369031e+003, 5.207964e-002
3.370960e+003, 5.137571e-002
3.372888e+003, 5.058683e-002
3.374817e+003, 4.950356e-002
3.376745e+003, 4.806293e-002
3.378674e+003, 4.653057e-002
3.380602e+003, 4.467173e-002
3.382531e+003, 4.241605e-002
3.384459e+003, 4.033579e-002
3.386387e+003, 3.850411e-002
3.388316e+003, 3.704332e-002
3.390244e+003, 3.470880e-002
3.392173e+003, 3.263757e-002
3.394101e+003, 3.108679e-002
3.396030e+003, 2.924365e-002
3.397958e+003, 2.718949e-002
3.399887e+003, 2.552025e-002
3.401815e+003, 2.378630e-002
3.403744e+003, 2.196874e-002
3.405672e+003, 2.098759e-002
3.407601e+003, 1.942722e-002
3.409529e+003, 1.724774e-002
3.411458e+003, 1.563710e-002
3.413386e+003, 1.464373e-002
3.415314e+003, 1.383368e-002
3.417243e+003, 1.194974e-002
3.419171e+003, 1.030049e-002
3.421100e+003, 9.574101e-003
3.423028e+003, 8.688330e-003
3.424957e+003, 8.275000e-003
3.426885e+003, 7.284095e-003
3.428814e+003, 5.762771e-003
3.430742e+003, 4.995783e-003
3.432671e+003, 4.746028e-003
3.434599e+003, 4.234997e-003
3.436528e+003, 3.886475e-003
3.438456e+003, 3.396375e-003
3.440385e+003, 3.529517e-003
3.442313e+003, 3.887389e-003
3.444241e+003, 3.251892e-003
3.446170e+003, 2.925643e-003
3.448098e+003, 3.164427e-003
3.450027e+003, 3.405360e-003
3.451955e+003, 3.353445e-003
3.453884e+003, 3.053201e-003
3.455812e+003, 2.345619e-003
3.457741e+003, 1.960116e-003
3.459669e+003, 2.185464e-003
3.461598e+003, 2.645453e-003
3.463526e+003, 3.170504e-003
3.465455e+003, 3.169338e-003
3.467383e+003, 2.937828e-003
3.469312e+003, 2.269140e-003
3.471240e+003, 1.732762e-003
3.473168e+003, 2.080504e-003
3.475097e+003, 2.452110e-003
3.477025e+003, 2.820076e-003
3.478954e+003, 3.587791e-003
3.480882e+003, 3.493208e-003
3.482811e+003, 3.102230e-003
3.484739e+003, 2.894391e-003
3.486668e+003, 2.423317e-003
3.488596e+003, 2.535056e-003
3.490525e+003, 2.602681e-003
3.492453e+003, 2.459525e-003
3.494382e+003, 2.772712e-003
3.496310e+003, 2.992054e-003
3.498239e+003, 2.564713e-003
3.500167e+003, 2.234809e-003
3.502095e+003, 1.954211e-003
3.504024e+003, 1.872130e-003
3.505952e+003, 1.931726e-003
3.507881e+003, 1.749467e-003
3.509809e+003, 2.296053e-003
3.511738e+003, 2.070159e-003
3.513666e+003, 1.545580e-003
3.515595e+003, 1.629397e-003
3.517523e+003, 1.930241e-003
3.519452e+003, 1.329241e-003
3.521380e+003, 9.136871e-004
3.523309e+003, 1.315308e-003
3.525237e+003, 1.587577e-003
3.527166e+003, 1.448609e-003
3.529094e+003, 1.340854e-003
3.531022e+003, 9.365604e-004
3.532951e+003, 4.456198e-004
3.534879e+003, 1.484999e-003
3.536808e+003, 1.525521e-003
3.538736e+003, 1.143274e-003
3.540665e+003, 1.052520e-003
3.542593e+003, 8.621822e-004
3.544522e+003, 1.005741e-003
3.546450e+003, 1.460406e-003
3.548379e+003, 1.721504e-003
3.550307e+003, 1.722386e-003
3.552236e+003, 1.145790e-003
3.554164e+003, 9.105738e-004
3.556093e+003, 9.842290e-004
3.558021e+003, 3.097592e-004
3.559949e+003, -1.351882e-004
3.561878e+003, -1.348305e-004
3.563806e+003, -4.404931e-004
3.565735e+003, -2.385530e-004
3.567663e+003, 7.285835e-005
3.569592e+003, 2.857600e-004
3.571520e+003, 2.180556e-004
3.573449e+003, -1.801714e-004
3.575377e+003, -4.362601e-004
3.577306e+003, -1.198977e-004
3.579234e+003, -1.278297e-004
3.581163e+003, -5.474159e-004
3.583091e+003, -2.595864e-004
3.585020e+003, 4.867247e-004
3.586948e+003, 8.205604e-004
3.588876e+003, 7.087721e-004
3.590805e+003, 2.542355e-004
3.592733e+003, -2.245687e-004
3.594662e+003, -4.202691e-004
3.596590e+003, -7.885002e-004
3.598519e+003, -6.901559e-004
3.600447e+003, -8.628740e-004
3.602376e+003, -1.344531e-003
3.604304e+003, -1.209034e-003
3.606233e+003, -7.632417e-004
3.608161e+003, -2.471714e-004
3.610090e+003, -1.675717e-004
3.612018e+003, -2.759953e-004
3.613947e+003, -1.362348e-004
3.615875e+003, -6.843336e-006
3.617803e+003, 5.767340e-004
3.619732e+003, 1.088671e-003
3.621660e+003, 7.627318e-004
3.623589e+003, 6.558461e-004
3.625517e+003, 6.580776e-004
3.627446e+003, 1.070852e-003
3.629374e+003, 1.225899e-003
3.631303e+003, 7.006307e-004
3.633231e+003, -1.801331e-004
3.635160e+003, -6.122093e-004
3.637088e+003, -7.784423e-004
3.639017e+003, -7.373348e-005
3.640945e+003, -6.772276e-004
3.642874e+003, -1.744046e-003
3.644802e+003, -1.506032e-003
3.646730e+003, 1.971965e-004
3.648659e+003, 6.966876e-004
3.650587e+003, -3.861339e-004
3.652516e+003, -1.177944e-003
3.654444e+003, -1.052900e-003
3.656373e+003, -1.272008e-003
3.658301e+003, -1.865236e-003
3.660230e+003, -1.747664e-003
3.662158e+003, -2.108216e-003
3.664087e+003, -2.690619e-003
3.666015e+003, -2.571415e-003
3.667944e+003, -1.655138e-003
3.669872e+003, -4.597359e-004
3.671801e+003, -1.055025e-003
3.673729e+003, -1.192936e-003
3.675657e+003, -6.249485e-004
3.677586e+003, -8.689042e-004
3.679514e+003, -4.832147e-004
3.681443e+003, -7.935301e-005
3.683371e+003, -8.034356e-004
3.685300e+003, -1.324468e-003
3.687228e+003, -8.913735e-005
3.689157e+003, 9.565182e-004
3.691085e+003, 7.897058e-004
3.693014e+003, -1.410410e-004
3.694942e+003, -1.114685e-003
3.696871e+003, -1.636666e-003
3.698799e+003, -1.994767e-003
3.700728e+003, -1.956168e-003
3.702656e+003, -1.971575e-003
3.704584e+003, -1.810684e-003
3.706513e+003, -1.244591e-003
3.708441e+003, -1.400586e-003
3.710370e+003, -1.439430e-003
3.712298e+003, -9.831318e-004
3.714227e+003, -2.304546e-003
3.716155e+003, -2.834406e-003
3.718084e+003, -2.489945e-003
3.720012e+003, -2.739975e-003
3.721941e+003, -2.665239e-003
3.723869e+003, -2.583128e-003
3.725798e+003, -3.108743e-003
3.727726e+003, -3.652589e-003
3.729655e+003, -2.817244e-003
3.731583e+003, -1.540167e-003
3.733511e+003, -1.705746e-003
3.735440e+003, -1.978400e-003
3.737368e+003, -2.202700e-003
3.739297e+003, -2.417067e-003
3.741225e+003, -2.502528e-003
3.743154e+003, -1.992369e-003
3.745082e+003, -1.829965e-003
3.747011e+003, -2.479420e-003
3.748939e+003, -1.380383e-003
3.750868e+003, -5.777837e-004
3.752796e+003, -1.913673e-003
3.754725e+003, -3.107671e-003
3.756653e+003, -3.404355e-003
3.758582e+003, -2.975974e-003
3.760510e+003, -2.685009e-003
3.762438e+003, -3.612387e-003
3.764367e+003, -3.808540e-003
3.766295e+003, -2.825203e-003
3.768224e+003, -1.959348e-003
3.770152e+003, -2.614939e-003
3.772081e+003, -2.850397e-003
3.774009e+003, -3.010558e-003
3.775938e+003, -4.060304e-003
3.777866e+003, -4.145952e-003
3.779795e+003, -3.370296e-003
3.781723e+003, -2.869423e-003
3.783652e+003, -2.982316e-003
3.785580e+003, -3.796730e-003
3.787509e+003, -4.193689e-003
3.789437e+003, -4.269252e-003
3.791365e+003, -3.609891e-003
3.793294e+003, -2.739190e-003
3.795222e+003, -3.003608e-003
3.797151e+003, -3.665501e-003
3.799079e+003, -3.662753e-003
3.801008e+003, -2.729469e-003
3.802936e+003, -2.829387e-003
3.804865e+003, -3.062286e-003
3.806793e+003, -2.364994e-003
3.808722e+003, -3.326953e-003
3.810650e+003, -4.033673e-003
3.812579e+003, -3.819488e-003
3.814507e+003, -2.666386e-003
3.816436e+003, -2.118364e-003
3.818364e+003, -2.976808e-003
3.820292e+003, -2.705662e-003
3.822221e+003, -2.676083e-003
3.824149e+003, -3.679470e-003
3.826078e+003, -4.504870e-003
3.828006e+003, -4.163720e-003
3.829935e+003, -3.315879e-003
3.831863e+003, -3.076430e-003
3.833792e+003, -2.836080e-003
3.835720e+003, -2.435798e-003
3.837649e+003, -2.091796e-003
3.839577e+003, -3.211904e-003
3.841506e+003, -4.102341e-003
3.843434e+003, -3.935717e-003
3.845363e+003, -3.688192e-003
3.847291e+003, -4.114718e-003
3.849219e+003, -4.429501e-003
3.851148e+003, -3.668740e-003
3.853076e+003, -2.307507e-003
3.855005e+003, -2.623859e-003
3.856933e+003, -3.747533e-003
3.858862e+003, -3.621737e-003
3.860790e+003, -3.837112e-003
3.862719e+003, -4.269968e-003
3.864647e+003, -3.942954e-003
3.866576e+003, -3.748226e-003
3.868504e+003, -3.259205e-003
3.870433e+003, -3.317937e-003
3.872361e+003, -3.581090e-003
3.874290e+003, -3.744547e-003
3.876218e+003, -4.298793e-003
3.878146e+003, -4.280073e-003
3.880075e+003, -3.572027e-003
3.882003e+003, -3.870693e-003
3.883932e+003, -3.723433e-003
3.885860e+003, -3.260688e-003
3.887789e+003, -3.603001e-003
3.889717e+003, -3.839885e-003
3.891646e+003, -3.495191e-003
3.893574e+003, -3.921484e-003
3.895503e+003, -5.002247e-003
3.897431e+003, -4.977959e-003
3.899360e+003, -4.326293e-003
3.901288e+003, -3.807854e-003
3.903217e+003, -4.037363e-003
3.905145e+003, -4.545455e-003
3.907073e+003, -4.179967e-003
3.909002e+003, -3.403172e-003
3.910930e+003, -3.112434e-003
3.912859e+003, -2.773607e-003
3.914787e+003, -3.691354e-003
3.916716e+003, -4.437236e-003
3.918644e+003, -4.127173e-003
3.920573e+003, -4.225241e-003
3.922501e+003, -3.870906e-003
3.924430e+003, -4.233584e-003
3.926358e+003, -4.373113e-003
3.928287e+003, -3.983147e-003
3.930215e+003, -3.426361e-003
3.932144e+003, -3.183205e-003
3.934072e+003, -4.003361e-003
3.936000e+003, -4.791167e-003
3.937929e+003, -4.642193e-003
3.939857e+003, -4.556606e-003
3.941786e+003, -4.925621e-003
3.943714e+003, -4.859371e-003
3.945643e+003, -4.467364e-003
3.947571e+003, -4.746368e-003
3.949500e+003, -4.600187e-003
3.951428e+003, -4.120007e-003
3.953357e+003, -5.130964e-003
3.955285e+003, -5.412159e-003
3.957214e+003, -4.306712e-003
3.959142e+003, -3.996698e-003
3.961071e+003, -4.423375e-003
3.962999e+003, -3.887679e-003
3.964927e+003, -4.541963e-003
3.966856e+003, -5.450852e-003
3.968784e+003, -4.566466e-003
3.970713e+003, -3.679591e-003
3.972641e+003, -4.091409e-003
3.974570e+003, -5.102256e-003
3.976498e+003, -5.285502e-003
3.978427e+003, -4.681981e-003
3.980355e+003, -4.347644e-003
3.982284e+003, -4.774304e-003
3.984212e+003, -5.017651e-003
3.986141e+003, -5.063144e-003
3.988069e+003, -4.414723e-003
3.989998e+003, -3.604754e-003
3.991926e+003, -3.815035e-003
3.993854e+003, -4.791228e-003
3.995783e+003, -4.558769e-003
3.997711e+003, -4.511433e-003
3.999640e+003, -5.132638e-003
##END=



