##NAMES=Anapaite
##RRUFFID=R050510
##IDEAL CHEMISTRY=Ca_2_Fe^2+^(PO_4_)_2_&#183;4H_2_O
##LOCALITY=Prats-Sampsor, Spain
##OWNER=RRUFF
##SOURCE=University of Arizona Mineral Museum
##DESCRIPTION=Pale green tabular crystals lining fractured rock. Probe photo shows two phases. This sample is the lighter phase in the probe photo.
##STATUS=The identification of this mineral has been confirmed by X-ray diffraction and chemical analysis
##URL=rruff.info/R050510
##MEASURED CHEMISTRY=Ca_2.00_(Fe^2+^_0.93_Mn_0.07_)_Σ=1_(P_1.00_O_4_)_2_·4H_2_O; (lighter phase)
3.991926e+002, 1.006800e-001
4.011211e+002, 8.662325e-002
4.030496e+002, 8.662325e-002
4.049780e+002, 7.538544e-002
4.069065e+002, 7.149888e-002
4.088350e+002, 7.255720e-002
4.107634e+002, 6.681421e-002
4.126919e+002, 6.610315e-002
4.146204e+002, 6.653240e-002
4.165488e+002, 6.460885e-002
4.184773e+002, 6.561773e-002
4.204058e+002, 6.659087e-002
4.223342e+002, 6.966898e-002
4.242627e+002, 7.413735e-002
4.261912e+002, 7.652844e-002
4.281196e+002, 7.709590e-002
4.300481e+002, 7.621272e-002
4.319766e+002, 7.879938e-002
4.339050e+002, 8.305747e-002
4.358335e+002, 8.298968e-002
4.377620e+002, 8.656194e-002
4.396904e+002, 8.918387e-002
4.416189e+002, 8.899443e-002
4.435474e+002, 8.764313e-002
4.454758e+002, 8.745509e-002
4.474043e+002, 8.623400e-002
4.493328e+002, 8.507286e-002
4.512612e+002, 8.319449e-002
4.531897e+002, 8.504223e-002
4.551182e+002, 9.041767e-002
4.570466e+002, 9.188444e-002
4.589751e+002, 9.208325e-002
4.609036e+002, 9.358075e-002
4.628320e+002, 9.580466e-002
4.647605e+002, 9.760464e-002
4.666890e+002, 1.017759e-001
4.686174e+002, 1.059859e-001
4.705459e+002, 1.084603e-001
4.724744e+002, 1.134974e-001
4.744028e+002, 1.181381e-001
4.763313e+002, 1.221844e-001
4.782598e+002, 1.278087e-001
4.801882e+002, 1.351316e-001
4.821167e+002, 1.419131e-001
4.840452e+002, 1.467101e-001
4.859736e+002, 1.491199e-001
4.879021e+002, 1.468509e-001
4.898306e+002, 1.442070e-001
4.917590e+002, 1.423470e-001
4.936875e+002, 1.422887e-001
4.956160e+002, 1.445453e-001
4.975444e+002, 1.476462e-001
4.994729e+002, 1.516943e-001
5.014014e+002, 1.571531e-001
5.033298e+002, 1.658294e-001
5.052583e+002, 1.771765e-001
5.071868e+002, 1.893171e-001
5.091152e+002, 2.043245e-001
5.110437e+002, 2.193695e-001
5.129722e+002, 2.373606e-001
5.149006e+002, 2.601179e-001
5.168291e+002, 2.861358e-001
5.187576e+002, 3.162129e-001
5.206860e+002, 3.521442e-001
5.226145e+002, 3.924442e-001
5.245430e+002, 4.393281e-001
5.264714e+002, 4.940756e-001
5.283999e+002, 5.538768e-001
5.303284e+002, 6.106967e-001
5.322568e+002, 6.578026e-001
5.341853e+002, 6.792232e-001
5.361138e+002, 6.643773e-001
5.380422e+002, 6.283756e-001
5.399707e+002, 5.841188e-001
5.418992e+002, 5.339254e-001
5.438276e+002, 4.803748e-001
5.457561e+002, 4.278625e-001
5.476846e+002, 3.803703e-001
5.496130e+002, 3.402143e-001
5.515415e+002, 3.090576e-001
5.534700e+002, 2.889085e-001
5.553984e+002, 2.818321e-001
5.573269e+002, 2.894146e-001
5.592554e+002, 3.085264e-001
5.611838e+002, 3.275421e-001
5.631123e+002, 3.327107e-001
5.650408e+002, 3.170873e-001
5.669692e+002, 2.840534e-001
5.688977e+002, 2.446636e-001
5.708262e+002, 2.102698e-001
5.727546e+002, 1.842582e-001
5.746831e+002, 1.664532e-001
5.766116e+002, 1.577591e-001
5.785400e+002, 1.552597e-001
5.804685e+002, 1.561686e-001
5.823970e+002, 1.604715e-001
5.843254e+002, 1.680597e-001
5.862539e+002, 1.786330e-001
5.881824e+002, 1.925559e-001
5.901108e+002, 2.102306e-001
5.920393e+002, 2.304155e-001
5.939678e+002, 2.519658e-001
5.958962e+002, 2.737986e-001
5.978247e+002, 2.925889e-001
5.997532e+002, 3.031229e-001
6.016816e+002, 3.024544e-001
6.036101e+002, 2.899721e-001
6.055386e+002, 2.692561e-001
6.074670e+002, 2.448405e-001
6.093955e+002, 2.216393e-001
6.113240e+002, 2.029098e-001
6.132524e+002, 1.894696e-001
6.151809e+002, 1.827149e-001
6.171094e+002, 1.822639e-001
6.190378e+002, 1.852061e-001
6.209663e+002, 1.915758e-001
6.228948e+002, 2.010247e-001
6.248232e+002, 2.116623e-001
6.267517e+002, 2.237388e-001
6.286802e+002, 2.345838e-001
6.306086e+002, 2.411241e-001
6.325371e+002, 2.420110e-001
6.344656e+002, 2.377876e-001
6.363940e+002, 2.286434e-001
6.383225e+002, 2.138184e-001
6.402510e+002, 1.947319e-001
6.421794e+002, 1.745701e-001
6.441079e+002, 1.547861e-001
6.460364e+002, 1.353518e-001
6.479648e+002, 1.176447e-001
6.498933e+002, 1.029032e-001
6.518218e+002, 9.112646e-002
6.537502e+002, 8.134651e-002
6.556787e+002, 7.372189e-002
6.576072e+002, 6.856028e-002
6.595356e+002, 6.439905e-002
6.614641e+002, 6.079659e-002
6.633926e+002, 5.722842e-002
6.653210e+002, 5.436936e-002
6.672495e+002, 5.219027e-002
6.691780e+002, 5.093803e-002
6.711064e+002, 4.974104e-002
6.730349e+002, 4.869698e-002
6.749634e+002, 4.780669e-002
6.768918e+002, 4.689891e-002
6.788203e+002, 4.664281e-002
6.807488e+002, 4.654245e-002
6.826772e+002, 4.584737e-002
6.846057e+002, 4.568891e-002
6.865342e+002, 4.589634e-002
6.884626e+002, 4.619950e-002
6.903911e+002, 4.631822e-002
6.923196e+002, 4.676199e-002
6.942480e+002, 4.710914e-002
6.961765e+002, 4.720842e-002
6.981050e+002, 4.767063e-002
7.000334e+002, 4.828160e-002
7.019619e+002, 4.838793e-002
7.038904e+002, 4.920734e-002
7.058188e+002, 5.010616e-002
7.077473e+002, 5.080586e-002
7.096758e+002, 5.162978e-002
7.116042e+002, 5.245572e-002
7.135327e+002, 5.332023e-002
7.154612e+002, 5.424395e-002
7.173896e+002, 5.532158e-002
7.193181e+002, 5.648207e-002
7.212466e+002, 5.759781e-002
7.231750e+002, 5.874741e-002
7.251035e+002, 6.009504e-002
7.270320e+002, 6.125800e-002
7.289604e+002, 6.317355e-002
7.308889e+002, 6.531820e-002
7.328174e+002, 6.739663e-002
7.347458e+002, 6.950209e-002
7.366743e+002, 7.202605e-002
7.386028e+002, 7.452465e-002
7.405313e+002, 7.722690e-002
7.424597e+002, 8.038750e-002
7.443882e+002, 8.374429e-002
7.463167e+002, 8.683853e-002
7.482451e+002, 9.075499e-002
7.501736e+002, 9.508832e-002
7.521021e+002, 9.996225e-002
7.540305e+002, 1.055548e-001
7.559590e+002, 1.117383e-001
7.578875e+002, 1.186555e-001
7.598159e+002, 1.265634e-001
7.617444e+002, 1.351292e-001
7.636729e+002, 1.447095e-001
7.656013e+002, 1.552249e-001
7.675298e+002, 1.653357e-001
7.694583e+002, 1.750734e-001
7.713867e+002, 1.837307e-001
7.733152e+002, 1.900087e-001
7.752437e+002, 1.927144e-001
7.771721e+002, 1.914480e-001
7.791006e+002, 1.864741e-001
7.810291e+002, 1.782989e-001
7.829575e+002, 1.681432e-001
7.848860e+002, 1.566514e-001
7.868145e+002, 1.454035e-001
7.887429e+002, 1.358256e-001
7.906714e+002, 1.271755e-001
7.925999e+002, 1.193457e-001
7.945283e+002, 1.132776e-001
7.964568e+002, 1.088662e-001
7.983853e+002, 1.054906e-001
8.003137e+002, 1.031251e-001
8.022422e+002, 1.015465e-001
8.041707e+002, 1.007719e-001
8.060991e+002, 1.007947e-001
8.080276e+002, 1.010141e-001
8.099561e+002, 1.020468e-001
8.118845e+002, 1.040314e-001
8.138130e+002, 1.060944e-001
8.157415e+002, 1.089340e-001
8.176699e+002, 1.130422e-001
8.195984e+002, 1.174516e-001
8.215269e+002, 1.224576e-001
8.234553e+002, 1.277252e-001
8.253838e+002, 1.339795e-001
8.273123e+002, 1.415321e-001
8.292407e+002, 1.501777e-001
8.311692e+002, 1.594327e-001
8.330977e+002, 1.695586e-001
8.350261e+002, 1.808010e-001
8.369546e+002, 1.917894e-001
8.388831e+002, 2.021704e-001
8.408115e+002, 2.116728e-001
8.427400e+002, 2.192958e-001
8.446685e+002, 2.229595e-001
8.465969e+002, 2.219857e-001
8.485254e+002, 2.169533e-001
8.504539e+002, 2.082409e-001
8.523823e+002, 1.968304e-001
8.543108e+002, 1.840835e-001
8.562393e+002, 1.711536e-001
8.581677e+002, 1.594905e-001
8.600962e+002, 1.499619e-001
8.620247e+002, 1.426764e-001
8.639531e+002, 1.378587e-001
8.658816e+002, 1.351130e-001
8.678101e+002, 1.341675e-001
8.697385e+002, 1.358281e-001
8.716670e+002, 1.390683e-001
8.735955e+002, 1.429287e-001
8.755239e+002, 1.478166e-001
8.774524e+002, 1.537230e-001
8.793809e+002, 1.603956e-001
8.813093e+002, 1.681371e-001
8.832378e+002, 1.767389e-001
8.851663e+002, 1.862739e-001
8.870947e+002, 1.970223e-001
8.890232e+002, 2.077910e-001
8.909517e+002, 2.192626e-001
8.928801e+002, 2.308647e-001
8.948085e+002, 2.414544e-001
8.967370e+002, 2.509151e-001
8.986655e+002, 2.590876e-001
9.005939e+002, 2.652182e-001
9.025224e+002, 2.684748e-001
9.044509e+002, 2.688797e-001
9.063793e+002, 2.676457e-001
9.083078e+002, 2.652419e-001
9.102363e+002, 2.627631e-001
9.121647e+002, 2.612992e-001
9.140932e+002, 2.620409e-001
9.160217e+002, 2.651663e-001
9.179501e+002, 2.709927e-001
9.198786e+002, 2.800611e-001
9.218071e+002, 2.922075e-001
9.237355e+002, 3.074991e-001
9.256640e+002, 3.256129e-001
9.275925e+002, 3.459043e-001
9.295209e+002, 3.680242e-001
9.314494e+002, 3.926347e-001
9.333779e+002, 4.195585e-001
9.353063e+002, 4.473150e-001
9.372348e+002, 4.746708e-001
9.391633e+002, 4.990550e-001
9.410917e+002, 5.159278e-001
9.430202e+002, 5.219594e-001
9.449487e+002, 5.191308e-001
9.468771e+002, 5.167274e-001
9.488056e+002, 5.233839e-001
9.507341e+002, 5.398384e-001
9.526625e+002, 5.606328e-001
9.545910e+002, 5.799826e-001
9.565195e+002, 5.932356e-001
9.584479e+002, 5.985306e-001
9.603764e+002, 5.964766e-001
9.623049e+002, 5.892041e-001
9.642333e+002, 5.780348e-001
9.661618e+002, 5.638155e-001
9.680903e+002, 5.477587e-001
9.700187e+002, 5.308278e-001
9.719472e+002, 5.137995e-001
9.738757e+002, 4.968649e-001
9.758041e+002, 4.801114e-001
9.777326e+002, 4.638467e-001
9.796611e+002, 4.484459e-001
9.815895e+002, 4.349305e-001
9.835180e+002, 4.234033e-001
9.854465e+002, 4.144578e-001
9.873749e+002, 4.081060e-001
9.893034e+002, 4.048227e-001
9.912319e+002, 4.044246e-001
9.931603e+002, 4.060959e-001
9.950888e+002, 4.099158e-001
9.970173e+002, 4.136049e-001
9.989457e+002, 4.154284e-001
1.000874e+003, 4.120874e-001
1.002803e+003, 4.026877e-001
1.004731e+003, 3.886271e-001
1.006660e+003, 3.708262e-001
1.008588e+003, 3.515323e-001
1.010517e+003, 3.325720e-001
1.012445e+003, 3.158348e-001
1.014373e+003, 3.024876e-001
1.016302e+003, 2.927078e-001
1.018230e+003, 2.868717e-001
1.020159e+003, 2.839107e-001
1.022087e+003, 2.827532e-001
1.024016e+003, 2.828148e-001
1.025944e+003, 2.831681e-001
1.027873e+003, 2.832776e-001
1.029801e+003, 2.824336e-001
1.031730e+003, 2.808277e-001
1.033658e+003, 2.789873e-001
1.035587e+003, 2.769649e-001
1.037515e+003, 2.753355e-001
1.039444e+003, 2.747413e-001
1.041372e+003, 2.748364e-001
1.043301e+003, 2.751949e-001
1.045229e+003, 2.754546e-001
1.047157e+003, 2.746978e-001
1.049086e+003, 2.727358e-001
1.051014e+003, 2.693160e-001
1.052943e+003, 2.643727e-001
1.054871e+003, 2.579366e-001
1.056800e+003, 2.504145e-001
1.058728e+003, 2.427183e-001
1.060657e+003, 2.347678e-001
1.062585e+003, 2.267101e-001
1.064514e+003, 2.191668e-001
1.066442e+003, 2.119769e-001
1.068371e+003, 2.052919e-001
1.070299e+003, 1.992957e-001
1.072228e+003, 1.944692e-001
1.074156e+003, 1.911040e-001
1.076084e+003, 1.887721e-001
1.078013e+003, 1.879246e-001
1.079941e+003, 1.884211e-001
1.081870e+003, 1.898736e-001
1.083798e+003, 1.915670e-001
1.085727e+003, 1.931926e-001
1.087655e+003, 1.946842e-001
1.089584e+003, 1.956746e-001
1.091512e+003, 1.952679e-001
1.093441e+003, 1.938833e-001
1.095369e+003, 1.919481e-001
1.097298e+003, 1.887137e-001
1.099226e+003, 1.846827e-001
1.101155e+003, 1.800808e-001
1.103083e+003, 1.742103e-001
1.105011e+003, 1.676444e-001
1.106940e+003, 1.609721e-001
1.108868e+003, 1.541186e-001
1.110797e+003, 1.466430e-001
1.112725e+003, 1.391591e-001
1.114654e+003, 1.319478e-001
1.116582e+003, 1.245570e-001
1.118511e+003, 1.170713e-001
1.120439e+003, 1.092673e-001
1.122368e+003, 1.018797e-001
1.124296e+003, 9.465329e-002
1.126225e+003, 8.722813e-002
1.128153e+003, 8.007654e-002
1.130082e+003, 7.327957e-002
1.132010e+003, 6.671181e-002
1.133938e+003, 6.020464e-002
1.135867e+003, 5.416703e-002
1.137795e+003, 4.857794e-002
1.139724e+003, 4.335640e-002
1.141652e+003, 3.851467e-002
1.143581e+003, 3.431655e-002
1.145509e+003, 3.061621e-002
1.147438e+003, 2.751821e-002
1.149366e+003, 2.487696e-002
1.151295e+003, 2.257959e-002
1.153223e+003, 2.056291e-002
1.155152e+003, 1.872573e-002
1.157080e+003, 1.747174e-002
1.159009e+003, 1.657207e-002
1.160937e+003, 1.554507e-002
1.162865e+003, 1.470767e-002
1.164794e+003, 1.393025e-002
1.166722e+003, 1.318571e-002
1.168651e+003, 1.266774e-002
1.170579e+003, 1.218777e-002
1.172508e+003, 1.160208e-002
1.174436e+003, 1.119689e-002
1.176365e+003, 1.079819e-002
1.178293e+003, 1.035252e-002
1.180222e+003, 9.971510e-003
1.182150e+003, 9.700806e-003
1.184079e+003, 9.555576e-003
1.186007e+003, 9.422110e-003
1.187936e+003, 9.262047e-003
1.189864e+003, 8.932388e-003
1.191792e+003, 8.626233e-003
1.193721e+003, 8.467576e-003
1.195649e+003, 8.371127e-003
1.197578e+003, 8.345354e-003
1.199506e+003, 8.189671e-003
1.201435e+003, 7.865987e-003
1.203363e+003, 7.907556e-003
1.205292e+003, 7.841662e-003
1.207220e+003, 7.716310e-003
1.209149e+003, 7.639147e-003
1.211077e+003, 7.495009e-003
1.213006e+003, 7.417246e-003
1.214934e+003, 7.472761e-003
1.216863e+003, 7.411954e-003
1.218791e+003, 7.404202e-003
1.220719e+003, 7.294780e-003
1.222648e+003, 7.239725e-003
1.224576e+003, 7.392844e-003
1.226505e+003, 7.515809e-003
1.228433e+003, 7.432312e-003
1.230362e+003, 7.345090e-003
1.232290e+003, 7.397798e-003
1.234219e+003, 7.386946e-003
1.236147e+003, 7.347213e-003
1.238076e+003, 7.267791e-003
1.240004e+003, 7.317659e-003
1.241933e+003, 7.373735e-003
1.243861e+003, 7.292421e-003
1.245790e+003, 7.254415e-003
1.247718e+003, 7.251787e-003
1.249646e+003, 7.342394e-003
1.251575e+003, 7.514596e-003
1.253503e+003, 7.283863e-003
1.255432e+003, 7.242084e-003
1.257360e+003, 7.361434e-003
1.259289e+003, 7.356446e-003
1.261217e+003, 7.401303e-003
1.263146e+003, 7.285244e-003
1.265074e+003, 7.101782e-003
1.267003e+003, 7.037289e-003
1.268931e+003, 6.961156e-003
1.270860e+003, 6.954557e-003
1.272788e+003, 7.134925e-003
1.274717e+003, 7.345292e-003
1.276645e+003, 7.157796e-003
1.278573e+003, 6.982334e-003
1.280502e+003, 6.905369e-003
1.282430e+003, 6.881569e-003
1.284359e+003, 6.811218e-003
1.286287e+003, 6.920788e-003
1.288216e+003, 6.776451e-003
1.290144e+003, 6.411716e-003
1.292073e+003, 6.412019e-003
1.294001e+003, 6.536019e-003
1.295930e+003, 6.619209e-003
1.297858e+003, 6.432262e-003
1.299787e+003, 6.184156e-003
1.301715e+003, 6.282642e-003
1.303644e+003, 6.417432e-003
1.305572e+003, 6.403780e-003
1.307500e+003, 6.347191e-003
1.309429e+003, 6.303182e-003
1.311357e+003, 6.377048e-003
1.313286e+003, 6.460377e-003
1.315214e+003, 6.551391e-003
1.317143e+003, 6.446925e-003
1.319071e+003, 6.183886e-003
1.321000e+003, 6.218707e-003
1.322928e+003, 6.305098e-003
1.324857e+003, 6.318411e-003
1.326785e+003, 6.430715e-003
1.328714e+003, 6.539315e-003
1.330642e+003, 6.593642e-003
1.332571e+003, 6.538205e-003
1.334499e+003, 6.423956e-003
1.336427e+003, 6.414271e-003
1.338356e+003, 6.568311e-003
1.340284e+003, 6.597174e-003
1.342213e+003, 6.778538e-003
1.344141e+003, 6.989304e-003
1.346070e+003, 7.030689e-003
1.347998e+003, 6.998867e-003
1.349927e+003, 7.039916e-003
1.351855e+003, 7.040286e-003
1.353784e+003, 7.038838e-003
1.355712e+003, 7.088041e-003
1.357641e+003, 7.114110e-003
1.359569e+003, 7.048605e-003
1.361498e+003, 7.102726e-003
1.363426e+003, 7.228910e-003
1.365354e+003, 7.325073e-003
1.367283e+003, 7.357559e-003
1.369211e+003, 7.135936e-003
1.371140e+003, 7.038805e-003
1.373068e+003, 7.248923e-003
1.374997e+003, 7.568168e-003
1.376925e+003, 7.581486e-003
1.378854e+003, 7.684135e-003
1.380782e+003, 8.097908e-003
1.382711e+003, 8.258894e-003
1.384639e+003, 8.444332e-003
1.386568e+003, 8.782648e-003
1.388496e+003, 8.778050e-003
1.390424e+003, 8.733050e-003
1.392353e+003, 8.899345e-003
1.394281e+003, 9.046047e-003
1.396210e+003, 9.129923e-003
1.398138e+003, 9.016614e-003
1.400067e+003, 9.101433e-003
1.401995e+003, 9.262994e-003
1.403924e+003, 9.201259e-003
1.405852e+003, 9.151918e-003
1.407781e+003, 9.232396e-003
1.409709e+003, 9.149550e-003
1.411638e+003, 9.104444e-003
1.413566e+003, 9.196386e-003
1.415495e+003, 9.265837e-003
1.417423e+003, 9.242550e-003
1.419351e+003, 9.187722e-003
1.421280e+003, 9.274875e-003
1.423208e+003, 9.325449e-003
1.425137e+003, 9.293729e-003
1.427065e+003, 9.345728e-003
1.428994e+003, 9.504942e-003
1.430922e+003, 9.750582e-003
1.432851e+003, 9.754818e-003
1.434779e+003, 9.422483e-003
1.436708e+003, 9.232667e-003
1.438636e+003, 9.416016e-003
1.440565e+003, 9.506940e-003
1.442493e+003, 9.686305e-003
1.444422e+003, 9.974901e-003
1.446350e+003, 1.024998e-002
1.448278e+003, 1.053294e-002
1.450207e+003, 1.054418e-002
1.452135e+003, 1.058781e-002
1.454064e+003, 1.092124e-002
1.455992e+003, 1.094210e-002
1.457921e+003, 1.074622e-002
1.459849e+003, 1.087588e-002
1.461778e+003, 1.114783e-002
1.463706e+003, 1.114592e-002
1.465635e+003, 1.103148e-002
1.467563e+003, 1.103756e-002
1.469492e+003, 1.104361e-002
1.471420e+003, 1.106621e-002
1.473349e+003, 1.106465e-002
1.475277e+003, 1.089358e-002
1.477205e+003, 1.077723e-002
1.479134e+003, 1.075444e-002
1.481062e+003, 1.057765e-002
1.482991e+003, 1.044313e-002
1.484919e+003, 1.048236e-002
1.486848e+003, 1.045066e-002
1.488776e+003, 1.055946e-002
1.490705e+003, 1.066791e-002
1.492633e+003, 1.087089e-002
1.494562e+003, 1.108926e-002
1.496490e+003, 1.121215e-002
1.498419e+003, 1.127955e-002
1.500347e+003, 1.124027e-002
1.502276e+003, 1.128046e-002
1.504204e+003, 1.142896e-002
1.506132e+003, 1.153473e-002
1.508061e+003, 1.160922e-002
1.509989e+003, 1.199760e-002
1.511918e+003, 1.209758e-002
1.513846e+003, 1.210065e-002
1.515775e+003, 1.244015e-002
1.517703e+003, 1.305102e-002
1.519632e+003, 1.352299e-002
1.521560e+003, 1.375145e-002
1.523489e+003, 1.415865e-002
1.525417e+003, 1.478682e-002
1.527346e+003, 1.518158e-002
1.529274e+003, 1.564632e-002
1.531203e+003, 1.643832e-002
1.533131e+003, 1.725445e-002
1.535059e+003, 1.789457e-002
1.536988e+003, 1.867709e-002
1.538916e+003, 1.947006e-002
1.540845e+003, 2.029594e-002
1.542773e+003, 2.108941e-002
1.544702e+003, 2.180061e-002
1.546630e+003, 2.256982e-002
1.548559e+003, 2.309939e-002
1.550487e+003, 2.330732e-002
1.552416e+003, 2.339676e-002
1.554344e+003, 2.364843e-002
1.556273e+003, 2.386222e-002
1.558201e+003, 2.414365e-002
1.560130e+003, 2.449614e-002
1.562058e+003, 2.457317e-002
1.563986e+003, 2.461963e-002
1.565915e+003, 2.500343e-002
1.567843e+003, 2.556694e-002
1.569772e+003, 2.614997e-002
1.571700e+003, 2.683355e-002
1.573629e+003, 2.775543e-002
1.575557e+003, 2.873722e-002
1.577486e+003, 2.996850e-002
1.579414e+003, 3.152375e-002
1.581343e+003, 3.347430e-002
1.583271e+003, 3.550591e-002
1.585200e+003, 3.760759e-002
1.587128e+003, 4.023165e-002
1.589057e+003, 4.312650e-002
1.590985e+003, 4.564246e-002
1.592913e+003, 4.757908e-002
1.594842e+003, 4.857872e-002
1.596770e+003, 4.872812e-002
1.598699e+003, 4.822772e-002
1.600627e+003, 4.754370e-002
1.602556e+003, 4.644767e-002
1.604484e+003, 4.538883e-002
1.606413e+003, 4.447427e-002
1.608341e+003, 4.353060e-002
1.610270e+003, 4.254929e-002
1.612198e+003, 4.157975e-002
1.614127e+003, 4.055834e-002
1.616055e+003, 3.940076e-002
1.617984e+003, 3.805484e-002
1.619912e+003, 3.691179e-002
1.621840e+003, 3.603944e-002
1.623769e+003, 3.517728e-002
1.625697e+003, 3.423627e-002
1.627626e+003, 3.325550e-002
1.629554e+003, 3.264504e-002
1.631483e+003, 3.250832e-002
1.633411e+003, 3.216147e-002
1.635340e+003, 3.195899e-002
1.637268e+003, 3.198399e-002
1.639197e+003, 3.169965e-002
1.641125e+003, 3.144648e-002
1.643054e+003, 3.142432e-002
1.644982e+003, 3.141442e-002
1.646911e+003, 3.132648e-002
1.648839e+003, 3.119666e-002
1.650767e+003, 3.108734e-002
1.652696e+003, 3.093510e-002
1.654624e+003, 3.067303e-002
1.656553e+003, 3.035752e-002
1.658481e+003, 3.021161e-002
1.660410e+003, 3.004047e-002
1.662338e+003, 2.969580e-002
1.664267e+003, 2.927604e-002
1.666195e+003, 2.878140e-002
1.668124e+003, 2.821873e-002
1.670052e+003, 2.764521e-002
1.671981e+003, 2.674368e-002
1.673909e+003, 2.580798e-002
1.675838e+003, 2.509898e-002
1.677766e+003, 2.450403e-002
1.679694e+003, 2.396974e-002
1.681623e+003, 2.309890e-002
1.683551e+003, 2.219406e-002
1.685480e+003, 2.181583e-002
1.687408e+003, 2.125136e-002
1.689337e+003, 2.058883e-002
1.691265e+003, 1.995777e-002
1.693194e+003, 1.935659e-002
1.695122e+003, 1.862161e-002
1.697051e+003, 1.790645e-002
1.698979e+003, 1.744318e-002
1.700908e+003, 1.696394e-002
1.702836e+003, 1.643870e-002
1.704765e+003, 1.575162e-002
1.706693e+003, 1.521425e-002
1.708621e+003, 1.477818e-002
1.710550e+003, 1.421603e-002
1.712478e+003, 1.364879e-002
1.714407e+003, 1.353115e-002
1.716335e+003, 1.343128e-002
1.718264e+003, 1.311866e-002
1.720192e+003, 1.290285e-002
1.722121e+003, 1.259072e-002
1.724049e+003, 1.236126e-002
1.725978e+003, 1.214082e-002
1.727906e+003, 1.171783e-002
1.729835e+003, 1.118386e-002
1.731763e+003, 1.095287e-002
1.733692e+003, 1.072289e-002
1.735620e+003, 1.021060e-002
1.737548e+003, 9.590905e-003
1.739477e+003, 9.240519e-003
1.741405e+003, 9.165184e-003
1.743334e+003, 9.105628e-003
1.745262e+003, 9.268139e-003
1.747191e+003, 9.404233e-003
1.749119e+003, 9.347014e-003
1.751048e+003, 9.536202e-003
1.752976e+003, 9.904216e-003
1.754905e+003, 1.036626e-002
1.756833e+003, 1.081106e-002
1.758762e+003, 1.102271e-002
1.760690e+003, 1.102706e-002
1.762619e+003, 1.120382e-002
1.764547e+003, 1.139307e-002
1.766475e+003, 1.128257e-002
1.768404e+003, 1.120372e-002
1.770332e+003, 1.124949e-002
1.772261e+003, 1.127060e-002
1.774189e+003, 1.140617e-002
1.776118e+003, 1.139450e-002
1.778046e+003, 1.132505e-002
1.779975e+003, 1.133148e-002
1.781903e+003, 1.161919e-002
1.783832e+003, 1.163281e-002
1.785760e+003, 1.156515e-002
1.787689e+003, 1.161147e-002
1.789617e+003, 1.181080e-002
1.791546e+003, 1.219905e-002
1.793474e+003, 1.222829e-002
1.795402e+003, 1.201061e-002
1.797331e+003, 1.202914e-002
1.799259e+003, 1.195928e-002
1.801188e+003, 1.187335e-002
1.803116e+003, 1.199187e-002
1.805045e+003, 1.217309e-002
1.806973e+003, 1.212671e-002
1.808902e+003, 1.186821e-002
1.810830e+003, 1.191538e-002
1.812759e+003, 1.211441e-002
1.814687e+003, 1.215438e-002
1.816616e+003, 1.201296e-002
1.818544e+003, 1.190060e-002
1.820473e+003, 1.227553e-002
1.822401e+003, 1.246934e-002
1.824329e+003, 1.243292e-002
1.826258e+003, 1.229503e-002
1.828186e+003, 1.199957e-002
1.830115e+003, 1.196725e-002
1.832043e+003, 1.217912e-002
1.833972e+003, 1.215513e-002
1.835900e+003, 1.200999e-002
1.837829e+003, 1.219070e-002
1.839757e+003, 1.231326e-002
1.841686e+003, 1.234493e-002
1.843614e+003, 1.216157e-002
1.845543e+003, 1.219377e-002
1.847471e+003, 1.231578e-002
1.849400e+003, 1.210456e-002
1.851328e+003, 1.162396e-002
1.853256e+003, 1.144131e-002
1.855185e+003, 1.175889e-002
1.857113e+003, 1.224956e-002
1.859042e+003, 1.263516e-002
1.860970e+003, 1.293794e-002
1.862899e+003, 1.281186e-002
1.864827e+003, 1.248970e-002
1.866756e+003, 1.248547e-002
1.868684e+003, 1.306884e-002
1.870613e+003, 1.343976e-002
1.872541e+003, 1.335061e-002
1.874470e+003, 1.324914e-002
1.876398e+003, 1.333540e-002
1.878327e+003, 1.369379e-002
1.880255e+003, 1.407168e-002
1.882183e+003, 1.449176e-002
1.884112e+003, 1.506068e-002
1.886040e+003, 1.518471e-002
1.887969e+003, 1.504559e-002
1.889897e+003, 1.518436e-002
1.891826e+003, 1.550050e-002
1.893754e+003, 1.569816e-002
1.895683e+003, 1.620111e-002
1.897611e+003, 1.679153e-002
1.899540e+003, 1.720687e-002
1.901468e+003, 1.738321e-002
1.903397e+003, 1.764735e-002
1.905325e+003, 1.773432e-002
1.907254e+003, 1.813609e-002
1.909182e+003, 1.953986e-002
1.911110e+003, 2.038845e-002
1.913039e+003, 2.005225e-002
1.914967e+003, 2.047381e-002
1.916896e+003, 2.113216e-002
1.918824e+003, 2.151077e-002
1.920753e+003, 2.189660e-002
1.922681e+003, 2.257987e-002
1.924610e+003, 2.351234e-002
1.926538e+003, 2.377713e-002
1.928467e+003, 2.442905e-002
1.930395e+003, 2.561674e-002
1.932324e+003, 2.611928e-002
1.934252e+003, 2.600385e-002
1.936181e+003, 2.616000e-002
1.938109e+003, 2.659268e-002
1.940037e+003, 2.614757e-002
1.941966e+003, 2.565733e-002
1.943894e+003, 2.648099e-002
1.945823e+003, 2.686414e-002
1.947751e+003, 2.562419e-002
1.949680e+003, 2.458730e-002
1.951608e+003, 2.498395e-002
1.953537e+003, 2.608262e-002
1.955465e+003, 2.637035e-002
1.957394e+003, 2.475459e-002
1.959322e+003, 2.454372e-002
1.961251e+003, 2.503298e-002
1.963179e+003, 2.530734e-002
1.965108e+003, 2.584765e-002
1.967036e+003, 2.653044e-002
1.968964e+003, 2.568029e-002
1.970893e+003, 2.395136e-002
1.972821e+003, 2.241848e-002
1.974750e+003, 2.220159e-002
1.976678e+003, 2.288055e-002
1.978607e+003, 2.394743e-002
1.980535e+003, 2.280400e-002
1.982464e+003, 2.155032e-002
1.984392e+003, 2.152351e-002
1.986321e+003, 2.141002e-002
1.988249e+003, 2.072883e-002
1.990178e+003, 1.970851e-002
1.992106e+003, 1.821545e-002
1.994035e+003, 1.704123e-002
1.995963e+003, 1.706890e-002
1.997891e+003, 1.716789e-002
1.999820e+003, 1.685911e-002
2.001748e+003, 1.571664e-002
2.003677e+003, 1.563183e-002
2.005605e+003, 1.570812e-002
2.007534e+003, 1.518069e-002
2.009462e+003, 1.577893e-002
2.011391e+003, 1.672455e-002
2.013319e+003, 1.647958e-002
2.015248e+003, 1.574323e-002
2.017176e+003, 1.637225e-002
2.019105e+003, 1.720367e-002
2.021033e+003, 1.747799e-002
2.022962e+003, 1.645102e-002
2.024890e+003, 1.568548e-002
2.026818e+003, 1.583628e-002
2.028747e+003, 1.597005e-002
2.030675e+003, 1.667920e-002
2.032604e+003, 1.634848e-002
2.034532e+003, 1.559491e-002
2.036461e+003, 1.602055e-002
2.038389e+003, 1.651668e-002
2.040318e+003, 1.663944e-002
2.042246e+003, 1.633117e-002
2.044175e+003, 1.642838e-002
2.046103e+003, 1.736900e-002
2.048032e+003, 1.797023e-002
2.049960e+003, 1.818021e-002
2.051889e+003, 1.769401e-002
2.053817e+003, 1.781648e-002
2.055746e+003, 1.788542e-002
2.057674e+003, 1.691433e-002
2.059603e+003, 1.617233e-002
2.061531e+003, 1.676698e-002
2.063459e+003, 1.759680e-002
2.065388e+003, 1.798225e-002
2.067316e+003, 1.809609e-002
2.069245e+003, 1.862915e-002
2.071173e+003, 1.888465e-002
2.073102e+003, 1.877866e-002
2.075030e+003, 1.914677e-002
2.076959e+003, 1.871998e-002
2.078887e+003, 1.794581e-002
2.080816e+003, 1.818660e-002
2.082744e+003, 1.792741e-002
2.084673e+003, 1.817582e-002
2.086601e+003, 1.899744e-002
2.088530e+003, 1.840042e-002
2.090458e+003, 1.785431e-002
2.092386e+003, 1.837502e-002
2.094315e+003, 1.862386e-002
2.096243e+003, 1.822019e-002
2.098172e+003, 1.849349e-002
2.100100e+003, 1.816041e-002
2.102029e+003, 1.819123e-002
2.103957e+003, 1.865060e-002
2.105886e+003, 1.954205e-002
2.107814e+003, 1.978962e-002
2.109743e+003, 1.919390e-002
2.111671e+003, 1.943333e-002
2.113600e+003, 1.992634e-002
2.115528e+003, 1.982509e-002
2.117457e+003, 1.989960e-002
2.119385e+003, 1.987903e-002
2.121313e+003, 1.901666e-002
2.123242e+003, 1.865720e-002
2.125170e+003, 1.928111e-002
2.127099e+003, 1.926500e-002
2.129027e+003, 1.869767e-002
2.130956e+003, 1.825098e-002
2.132884e+003, 1.761947e-002
2.134813e+003, 1.800760e-002
2.136741e+003, 1.877938e-002
2.138670e+003, 1.885212e-002
2.140598e+003, 1.837799e-002
2.142527e+003, 1.791301e-002
2.144455e+003, 1.806935e-002
2.146384e+003, 1.819389e-002
2.148312e+003, 1.765836e-002
2.150240e+003, 1.660839e-002
2.152169e+003, 1.620469e-002
2.154097e+003, 1.593227e-002
2.156026e+003, 1.505324e-002
2.157954e+003, 1.584577e-002
2.159883e+003, 1.899505e-002
2.161811e+003, 1.919165e-002
2.163740e+003, 1.807529e-002
2.165668e+003, 1.869466e-002
2.167597e+003, 1.968199e-002
2.169525e+003, 1.892943e-002
2.171454e+003, 1.965886e-002
2.173382e+003, 2.104514e-002
2.175311e+003, 2.072852e-002
2.177239e+003, 2.004847e-002
2.179167e+003, 1.969041e-002
2.181096e+003, 2.045954e-002
2.183024e+003, 2.117854e-002
2.184953e+003, 2.142158e-002
2.186881e+003, 2.170348e-002
2.188810e+003, 2.140393e-002
2.190738e+003, 2.183127e-002
2.192667e+003, 2.255369e-002
2.194595e+003, 2.215594e-002
2.196524e+003, 2.220138e-002
2.198452e+003, 2.331043e-002
2.200381e+003, 2.357957e-002
2.202309e+003, 2.384027e-002
2.204238e+003, 2.327557e-002
2.206166e+003, 2.260500e-002
2.208094e+003, 2.269004e-002
2.210023e+003, 2.338365e-002
2.211951e+003, 2.444002e-002
2.213880e+003, 2.481429e-002
2.215808e+003, 2.516923e-002
2.217737e+003, 2.437946e-002
2.219665e+003, 2.415892e-002
2.221594e+003, 2.482984e-002
2.223522e+003, 2.551247e-002
2.225451e+003, 2.570918e-002
2.227379e+003, 2.536400e-002
2.229308e+003, 2.569284e-002
2.231236e+003, 2.659926e-002
2.233165e+003, 2.749057e-002
2.235093e+003, 2.797024e-002
2.237021e+003, 2.849529e-002
2.238950e+003, 2.860382e-002
2.240878e+003, 2.896324e-002
2.242807e+003, 2.931120e-002
2.244735e+003, 2.894631e-002
2.246664e+003, 2.865404e-002
2.248592e+003, 2.850626e-002
2.250521e+003, 2.897865e-002
2.252449e+003, 3.002257e-002
2.254378e+003, 3.096951e-002
2.256306e+003, 3.180766e-002
2.258235e+003, 3.183725e-002
2.260163e+003, 3.185290e-002
2.262092e+003, 3.275571e-002
2.264020e+003, 3.325529e-002
2.265948e+003, 3.353425e-002
2.267877e+003, 3.367057e-002
2.269805e+003, 3.423035e-002
2.271734e+003, 3.495756e-002
2.273662e+003, 3.595629e-002
2.275591e+003, 3.655070e-002
2.277519e+003, 3.679219e-002
2.279448e+003, 3.703825e-002
2.281376e+003, 3.733059e-002
2.283305e+003, 3.785957e-002
2.285233e+003, 3.871537e-002
2.287162e+003, 3.923564e-002
2.289090e+003, 3.951418e-002
2.291019e+003, 4.006451e-002
2.292947e+003, 4.054259e-002
2.294875e+003, 4.139693e-002
2.296804e+003, 4.173595e-002
2.298732e+003, 4.137331e-002
2.300661e+003, 4.169087e-002
2.302589e+003, 4.202892e-002
2.304518e+003, 4.199837e-002
2.306446e+003, 4.216341e-002
2.308375e+003, 4.282518e-002
2.310303e+003, 4.314937e-002
2.312232e+003, 4.270284e-002
2.314160e+003, 4.224988e-002
2.316089e+003, 4.191684e-002
2.318017e+003, 4.139121e-002
2.319946e+003, 4.048887e-002
2.321874e+003, 3.981927e-002
2.323802e+003, 3.918400e-002
2.325731e+003, 3.802691e-002
2.327659e+003, 3.667511e-002
2.329588e+003, 3.573073e-002
2.331516e+003, 3.506832e-002
2.333445e+003, 3.416138e-002
2.335373e+003, 3.337063e-002
2.337302e+003, 3.243177e-002
2.339230e+003, 3.124227e-002
2.341159e+003, 3.024685e-002
2.343087e+003, 2.963776e-002
2.345016e+003, 2.937150e-002
2.346944e+003, 2.834799e-002
2.348873e+003, 2.766767e-002
2.350801e+003, 2.759768e-002
2.352729e+003, 2.713310e-002
2.354658e+003, 2.643232e-002
2.356586e+003, 2.596068e-002
2.358515e+003, 2.584666e-002
2.360443e+003, 2.561691e-002
2.362372e+003, 2.514507e-002
2.364300e+003, 2.445843e-002
2.366229e+003, 2.427727e-002
2.368157e+003, 2.449678e-002
2.370086e+003, 2.464179e-002
2.372014e+003, 2.464004e-002
2.373942e+003, 2.494686e-002
2.375871e+003, 2.512541e-002
2.377799e+003, 2.459217e-002
2.379728e+003, 2.452303e-002
2.381656e+003, 2.448026e-002
2.383585e+003, 2.455599e-002
2.385513e+003, 2.470629e-002
2.387442e+003, 2.465081e-002
2.389370e+003, 2.451083e-002
2.391299e+003, 2.428084e-002
2.393227e+003, 2.435380e-002
2.395156e+003, 2.418043e-002
2.397084e+003, 2.415209e-002
2.399012e+003, 2.429034e-002
2.400941e+003, 2.421519e-002
2.402869e+003, 2.415374e-002
2.404798e+003, 2.392772e-002
2.406726e+003, 2.375858e-002
2.408655e+003, 2.387220e-002
2.410583e+003, 2.412740e-002
2.412512e+003, 2.373254e-002
2.414440e+003, 2.364097e-002
2.416369e+003, 2.387958e-002
2.418297e+003, 2.421617e-002
2.420226e+003, 2.485724e-002
2.422154e+003, 2.486236e-002
2.424083e+003, 2.425138e-002
2.426011e+003, 2.459912e-002
2.427939e+003, 2.467637e-002
2.429868e+003, 2.441075e-002
2.431796e+003, 2.446140e-002
2.433725e+003, 2.433467e-002
2.435653e+003, 2.387920e-002
2.437582e+003, 2.415304e-002
2.439510e+003, 2.432829e-002
2.441439e+003, 2.419227e-002
2.443367e+003, 2.383303e-002
2.445296e+003, 2.360137e-002
2.447224e+003, 2.413668e-002
2.449153e+003, 2.403529e-002
2.451081e+003, 2.374178e-002
2.453010e+003, 2.388638e-002
2.454938e+003, 2.392650e-002
2.456866e+003, 2.369577e-002
2.458795e+003, 2.362467e-002
2.460723e+003, 2.409871e-002
2.462652e+003, 2.455357e-002
2.464580e+003, 2.432538e-002
2.466509e+003, 2.392023e-002
2.468437e+003, 2.419872e-002
2.470366e+003, 2.444213e-002
2.472294e+003, 2.446670e-002
2.474223e+003, 2.512738e-002
2.476151e+003, 2.557762e-002
2.478080e+003, 2.558813e-002
2.480008e+003, 2.596100e-002
2.481937e+003, 2.602749e-002
2.483865e+003, 2.548998e-002
2.485793e+003, 2.558721e-002
2.487722e+003, 2.554676e-002
2.489650e+003, 2.569959e-002
2.491579e+003, 2.666666e-002
2.493507e+003, 2.701419e-002
2.495436e+003, 2.673664e-002
2.497364e+003, 2.716030e-002
2.499293e+003, 2.749760e-002
2.501221e+003, 2.785893e-002
2.503150e+003, 2.788239e-002
2.505078e+003, 2.717444e-002
2.507007e+003, 2.706814e-002
2.508935e+003, 2.731799e-002
2.510864e+003, 2.740823e-002
2.512792e+003, 2.759366e-002
2.514720e+003, 2.792186e-002
2.516649e+003, 2.846511e-002
2.518577e+003, 2.858276e-002
2.520506e+003, 2.857129e-002
2.522434e+003, 2.867340e-002
2.524363e+003, 2.862664e-002
2.526291e+003, 2.909346e-002
2.528220e+003, 2.930879e-002
2.530148e+003, 2.950099e-002
2.532077e+003, 2.950546e-002
2.534005e+003, 2.976843e-002
2.535934e+003, 3.033886e-002
2.537862e+003, 3.019698e-002
2.539791e+003, 3.025506e-002
2.541719e+003, 3.056163e-002
2.543647e+003, 3.081365e-002
2.545576e+003, 3.142354e-002
2.547504e+003, 3.172741e-002
2.549433e+003, 3.204527e-002
2.551361e+003, 3.187594e-002
2.553290e+003, 3.165513e-002
2.555218e+003, 3.224747e-002
2.557147e+003, 3.248732e-002
2.559075e+003, 3.179814e-002
2.561004e+003, 3.183379e-002
2.562932e+003, 3.238328e-002
2.564861e+003, 3.236293e-002
2.566789e+003, 3.252500e-002
2.568718e+003, 3.294323e-002
2.570646e+003, 3.317213e-002
2.572574e+003, 3.296217e-002
2.574503e+003, 3.259842e-002
2.576431e+003, 3.318554e-002
2.578360e+003, 3.377632e-002
2.580288e+003, 3.366774e-002
2.582217e+003, 3.404561e-002
2.584145e+003, 3.463462e-002
2.586074e+003, 3.477495e-002
2.588002e+003, 3.515655e-002
2.589931e+003, 3.570426e-002
2.591859e+003, 3.581061e-002
2.593788e+003, 3.574174e-002
2.595716e+003, 3.588657e-002
2.597645e+003, 3.595456e-002
2.599573e+003, 3.606140e-002
2.601501e+003, 3.630514e-002
2.603430e+003, 3.646168e-002
2.605358e+003, 3.672317e-002
2.607287e+003, 3.688831e-002
2.609215e+003, 3.741480e-002
2.611144e+003, 3.835271e-002
2.613072e+003, 3.829386e-002
2.615001e+003, 3.785567e-002
2.616929e+003, 3.803404e-002
2.618858e+003, 3.840907e-002
2.620786e+003, 3.839061e-002
2.622715e+003, 3.831001e-002
2.624643e+003, 3.836364e-002
2.626572e+003, 3.892124e-002
2.628500e+003, 3.937463e-002
2.630428e+003, 3.938900e-002
2.632357e+003, 3.944001e-002
2.634285e+003, 3.969974e-002
2.636214e+003, 3.985697e-002
2.638142e+003, 4.008090e-002
2.640071e+003, 4.027684e-002
2.641999e+003, 4.037460e-002
2.643928e+003, 4.098410e-002
2.645856e+003, 4.131850e-002
2.647785e+003, 4.149309e-002
2.649713e+003, 4.193990e-002
2.651642e+003, 4.241596e-002
2.653570e+003, 4.251403e-002
2.655499e+003, 4.239101e-002
2.657427e+003, 4.270869e-002
2.659355e+003, 4.318044e-002
2.661284e+003, 4.352108e-002
2.663212e+003, 4.385491e-002
2.665141e+003, 4.420844e-002
2.667069e+003, 4.470018e-002
2.668998e+003, 4.537570e-002
2.670926e+003, 4.591266e-002
2.672855e+003, 4.653529e-002
2.674783e+003, 4.697030e-002
2.676712e+003, 4.721839e-002
2.678640e+003, 4.746104e-002
2.680569e+003, 4.806136e-002
2.682497e+003, 4.879188e-002
2.684426e+003, 4.941910e-002
2.686354e+003, 4.983345e-002
2.688282e+003, 5.024675e-002
2.690211e+003, 5.072721e-002
2.692139e+003, 5.137756e-002
2.694068e+003, 5.195314e-002
2.695996e+003, 5.237437e-002
2.697925e+003, 5.291894e-002
2.699853e+003, 5.355582e-002
2.701782e+003, 5.406585e-002
2.703710e+003, 5.451990e-002
2.705639e+003, 5.506529e-002
2.707567e+003, 5.559230e-002
2.709496e+003, 5.590343e-002
2.711424e+003, 5.644268e-002
2.713353e+003, 5.734467e-002
2.715281e+003, 5.777135e-002
2.717209e+003, 5.808208e-002
2.719138e+003, 5.859279e-002
2.721066e+003, 5.929917e-002
2.722995e+003, 5.960343e-002
2.724923e+003, 5.964874e-002
2.726852e+003, 5.990673e-002
2.728780e+003, 6.037465e-002
2.730709e+003, 6.094034e-002
2.732637e+003, 6.157647e-002
2.734566e+003, 6.215350e-002
2.736494e+003, 6.216730e-002
2.738423e+003, 6.214861e-002
2.740351e+003, 6.250703e-002
2.742280e+003, 6.277074e-002
2.744208e+003, 6.300014e-002
2.746136e+003, 6.337336e-002
2.748065e+003, 6.349339e-002
2.749993e+003, 6.367543e-002
2.751922e+003, 6.422254e-002
2.753850e+003, 6.414367e-002
2.755779e+003, 6.374224e-002
2.757707e+003, 6.370785e-002
2.759636e+003, 6.370578e-002
2.761564e+003, 6.383303e-002
2.763493e+003, 6.393851e-002
2.765421e+003, 6.382079e-002
2.767350e+003, 6.377205e-002
2.769278e+003, 6.376644e-002
2.771207e+003, 6.373947e-002
2.773135e+003, 6.362602e-002
2.775063e+003, 6.309177e-002
2.776992e+003, 6.290139e-002
2.778920e+003, 6.260817e-002
2.780849e+003, 6.226840e-002
2.782777e+003, 6.249107e-002
2.784706e+003, 6.234141e-002
2.786634e+003, 6.159571e-002
2.788563e+003, 6.142655e-002
2.790491e+003, 6.152496e-002
2.792420e+003, 6.131294e-002
2.794348e+003, 6.089886e-002
2.796277e+003, 6.065773e-002
2.798205e+003, 6.029935e-002
2.800134e+003, 5.979401e-002
2.802062e+003, 5.946461e-002
2.803990e+003, 5.924816e-002
2.805919e+003, 5.908424e-002
2.807847e+003, 5.893902e-002
2.809776e+003, 5.840213e-002
2.811704e+003, 5.748569e-002
2.813633e+003, 5.721349e-002
2.815561e+003, 5.703110e-002
2.817490e+003, 5.670575e-002
2.819418e+003, 5.630942e-002
2.821347e+003, 5.603219e-002
2.823275e+003, 5.588719e-002
2.825204e+003, 5.557253e-002
2.827132e+003, 5.495257e-002
2.829061e+003, 5.453259e-002
2.830989e+003, 5.415314e-002
2.832917e+003, 5.404105e-002
2.834846e+003, 5.421936e-002
2.836774e+003, 5.372989e-002
2.838703e+003, 5.294618e-002
2.840631e+003, 5.252751e-002
2.842560e+003, 5.233235e-002
2.844488e+003, 5.202272e-002
2.846417e+003, 5.168733e-002
2.848345e+003, 5.106279e-002
2.850274e+003, 5.004388e-002
2.852202e+003, 4.927726e-002
2.854131e+003, 4.920203e-002
2.856059e+003, 4.913109e-002
2.857988e+003, 4.931144e-002
2.859916e+003, 4.920867e-002
2.861844e+003, 4.932295e-002
2.863773e+003, 4.997023e-002
2.865701e+003, 5.023689e-002
2.867630e+003, 5.006310e-002
2.869558e+003, 4.983735e-002
2.871487e+003, 4.970612e-002
2.873415e+003, 4.946310e-002
2.875344e+003, 4.940540e-002
2.877272e+003, 4.939196e-002
2.879201e+003, 4.915628e-002
2.881129e+003, 4.924894e-002
2.883058e+003, 4.922976e-002
2.884986e+003, 4.907510e-002
2.886915e+003, 4.889166e-002
2.888843e+003, 4.902128e-002
2.890771e+003, 4.912426e-002
2.892700e+003, 4.927318e-002
2.894628e+003, 4.915780e-002
2.896557e+003, 4.840556e-002
2.898485e+003, 4.771733e-002
2.900414e+003, 4.739556e-002
2.902342e+003, 4.774259e-002
2.904271e+003, 4.783288e-002
2.906199e+003, 4.735927e-002
2.908128e+003, 4.711128e-002
2.910056e+003, 4.707509e-002
2.911985e+003, 4.713751e-002
2.913913e+003, 4.697739e-002
2.915842e+003, 4.609227e-002
2.917770e+003, 4.525812e-002
2.919698e+003, 4.502629e-002
2.921627e+003, 4.539074e-002
2.923555e+003, 4.554585e-002
2.925484e+003, 4.534815e-002
2.927412e+003, 4.490542e-002
2.929341e+003, 4.509017e-002
2.931269e+003, 4.559410e-002
2.933198e+003, 4.609909e-002
2.935126e+003, 4.655768e-002
2.937055e+003, 4.700327e-002
2.938983e+003, 4.747897e-002
2.940912e+003, 4.787597e-002
2.942840e+003, 4.833159e-002
2.944769e+003, 4.900403e-002
2.946697e+003, 4.899780e-002
2.948625e+003, 4.858558e-002
2.950554e+003, 4.882506e-002
2.952482e+003, 4.909592e-002
2.954411e+003, 4.962476e-002
2.956339e+003, 4.985761e-002
2.958268e+003, 4.995388e-002
2.960196e+003, 4.990369e-002
2.962125e+003, 5.000663e-002
2.964053e+003, 5.015901e-002
2.965982e+003, 5.020360e-002
2.967910e+003, 5.042645e-002
2.969839e+003, 5.111411e-002
2.971767e+003, 5.130387e-002
2.973696e+003, 5.145298e-002
2.975624e+003, 5.177840e-002
2.977552e+003, 5.213254e-002
2.979481e+003, 5.254400e-002
2.981409e+003, 5.263761e-002
2.983338e+003, 5.245478e-002
2.985266e+003, 5.259617e-002
2.987195e+003, 5.290108e-002
2.989123e+003, 5.287182e-002
2.991052e+003, 5.305137e-002
2.992980e+003, 5.299855e-002
2.994909e+003, 5.298444e-002
2.996837e+003, 5.286033e-002
2.998766e+003, 5.263626e-002
3.000694e+003, 5.244136e-002
3.002623e+003, 5.260836e-002
3.004551e+003, 5.275705e-002
3.006479e+003, 5.260339e-002
3.008408e+003, 5.266858e-002
3.010336e+003, 5.254239e-002
3.012265e+003, 5.268003e-002
3.014193e+003, 5.272896e-002
3.016122e+003, 5.268470e-002
3.018050e+003, 5.264165e-002
3.019979e+003, 5.288286e-002
3.021907e+003, 5.299840e-002
3.023836e+003, 5.309597e-002
3.025764e+003, 5.286886e-002
3.027693e+003, 5.264154e-002
3.029621e+003, 5.272630e-002
3.031550e+003, 5.296744e-002
3.033478e+003, 5.287852e-002
3.035406e+003, 5.274138e-002
3.037335e+003, 5.289390e-002
3.039263e+003, 5.256965e-002
3.041192e+003, 5.219068e-002
3.043120e+003, 5.261431e-002
3.045049e+003, 5.353577e-002
3.046977e+003, 5.348465e-002
3.048906e+003, 5.280450e-002
3.050834e+003, 5.301854e-002
3.052763e+003, 5.351744e-002
3.054691e+003, 5.352494e-002
3.056620e+003, 5.340742e-002
3.058548e+003, 5.355946e-002
3.060477e+003, 5.393288e-002
3.062405e+003, 5.396191e-002
3.064333e+003, 5.368636e-002
3.066262e+003, 5.368092e-002
3.068190e+003, 5.420078e-002
3.070119e+003, 5.462701e-002
3.072047e+003, 5.468503e-002
3.073976e+003, 5.456273e-002
3.075904e+003, 5.464490e-002
3.077833e+003, 5.450401e-002
3.079761e+003, 5.431660e-002
3.081690e+003, 5.445101e-002
3.083618e+003, 5.480023e-002
3.085547e+003, 5.516535e-002
3.087475e+003, 5.506991e-002
3.089404e+003, 5.513367e-002
3.091332e+003, 5.525301e-002
3.093260e+003, 5.485139e-002
3.095189e+003, 5.490008e-002
3.097117e+003, 5.479185e-002
3.099046e+003, 5.462904e-002
3.100974e+003, 5.456952e-002
3.102903e+003, 5.387274e-002
3.104831e+003, 5.339415e-002
3.106760e+003, 5.303722e-002
3.108688e+003, 5.210852e-002
3.110617e+003, 5.129898e-002
3.112545e+003, 5.102791e-002
3.114474e+003, 5.106939e-002
3.116402e+003, 5.039829e-002
3.118331e+003, 5.002659e-002
3.120259e+003, 4.946295e-002
3.122188e+003, 4.824961e-002
3.124116e+003, 4.764759e-002
3.126044e+003, 4.662776e-002
3.127973e+003, 4.581121e-002
3.129901e+003, 4.542731e-002
3.131830e+003, 4.475998e-002
3.133758e+003, 4.401629e-002
3.135687e+003, 4.382540e-002
3.137615e+003, 4.303996e-002
3.139544e+003, 4.156947e-002
3.141472e+003, 4.099426e-002
3.143401e+003, 4.082365e-002
3.145329e+003, 4.007290e-002
3.147258e+003, 3.910024e-002
3.149186e+003, 3.841200e-002
3.151115e+003, 3.802232e-002
3.153043e+003, 3.782754e-002
3.154971e+003, 3.783278e-002
3.156900e+003, 3.736356e-002
3.158828e+003, 3.665723e-002
3.160757e+003, 3.649257e-002
3.162685e+003, 3.593491e-002
3.164614e+003, 3.536865e-002
3.166542e+003, 3.512767e-002
3.168471e+003, 3.462396e-002
3.170399e+003, 3.387636e-002
3.172328e+003, 3.275821e-002
3.174256e+003, 3.278051e-002
3.176185e+003, 3.357362e-002
3.178113e+003, 3.316562e-002
3.180042e+003, 3.175593e-002
3.181970e+003, 3.108859e-002
3.183898e+003, 3.119264e-002
3.185827e+003, 3.107186e-002
3.187755e+003, 3.094499e-002
3.189684e+003, 3.069781e-002
3.191612e+003, 2.993339e-002
3.193541e+003, 2.938518e-002
3.195469e+003, 2.941521e-002
3.197398e+003, 2.932506e-002
3.199326e+003, 2.878268e-002
3.201255e+003, 2.822467e-002
3.203183e+003, 2.784395e-002
3.205112e+003, 2.761357e-002
3.207040e+003, 2.754970e-002
3.208969e+003, 2.690669e-002
3.210897e+003, 2.636524e-002
3.212825e+003, 2.607118e-002
3.214754e+003, 2.633317e-002
3.216682e+003, 2.598306e-002
3.218611e+003, 2.600420e-002
3.220539e+003, 2.618748e-002
3.222468e+003, 2.543327e-002
3.224396e+003, 2.540872e-002
3.226325e+003, 2.537703e-002
3.228253e+003, 2.454880e-002
3.230182e+003, 2.417563e-002
3.232110e+003, 2.415150e-002
3.234039e+003, 2.408460e-002
3.235967e+003, 2.388274e-002
3.237896e+003, 2.343428e-002
3.239824e+003, 2.375851e-002
3.241752e+003, 2.338935e-002
3.243681e+003, 2.245696e-002
3.245609e+003, 2.222725e-002
3.247538e+003, 2.259407e-002
3.249466e+003, 2.205581e-002
3.251395e+003, 2.115485e-002
3.253323e+003, 2.064060e-002
3.255252e+003, 2.055027e-002
3.257180e+003, 2.003795e-002
3.259109e+003, 1.933185e-002
3.261037e+003, 1.896768e-002
3.262966e+003, 1.941795e-002
3.264894e+003, 2.020016e-002
3.266823e+003, 2.012301e-002
3.268751e+003, 1.960603e-002
3.270679e+003, 1.893036e-002
3.272608e+003, 1.793525e-002
3.274536e+003, 1.762551e-002
3.276465e+003, 1.756606e-002
3.278393e+003, 1.762889e-002
3.280322e+003, 1.751652e-002
3.282250e+003, 1.732562e-002
3.284179e+003, 1.718919e-002
3.286107e+003, 1.712770e-002
3.288036e+003, 1.708737e-002
3.289964e+003, 1.659912e-002
3.291893e+003, 1.666381e-002
3.293821e+003, 1.678737e-002
3.295750e+003, 1.670203e-002
3.297678e+003, 1.624947e-002
3.299606e+003, 1.607006e-002
3.301535e+003, 1.590302e-002
3.303463e+003, 1.512621e-002
3.305392e+003, 1.492116e-002
3.307320e+003, 1.482573e-002
3.309249e+003, 1.492935e-002
3.311177e+003, 1.545741e-002
3.313106e+003, 1.544477e-002
3.315034e+003, 1.492088e-002
3.316963e+003, 1.472951e-002
3.318891e+003, 1.459711e-002
3.320820e+003, 1.407041e-002
3.322748e+003, 1.358294e-002
3.324677e+003, 1.352268e-002
3.326605e+003, 1.306703e-002
3.328533e+003, 1.335754e-002
3.330462e+003, 1.370593e-002
3.332390e+003, 1.304221e-002
3.334319e+003, 1.233484e-002
3.336247e+003, 1.232451e-002
3.338176e+003, 1.271503e-002
3.340104e+003, 1.274058e-002
3.342033e+003, 1.272878e-002
3.343961e+003, 1.227130e-002
3.345890e+003, 1.185337e-002
3.347818e+003, 1.177141e-002
3.349747e+003, 1.141457e-002
3.351675e+003, 1.184240e-002
3.353604e+003, 1.128138e-002
3.355532e+003, 1.036351e-002
3.357460e+003, 1.056951e-002
3.359389e+003, 1.075356e-002
3.361317e+003, 1.069110e-002
3.363246e+003, 1.047771e-002
3.365174e+003, 1.037444e-002
3.367103e+003, 1.015449e-002
3.369031e+003, 1.018203e-002
3.370960e+003, 1.016195e-002
3.372888e+003, 1.019767e-002
3.374817e+003, 1.023234e-002
3.376745e+003, 9.769593e-003
3.378674e+003, 9.334115e-003
3.380602e+003, 8.976563e-003
3.382531e+003, 9.154254e-003
3.384459e+003, 9.194118e-003
3.386387e+003, 9.199804e-003
3.388316e+003, 9.561606e-003
3.390244e+003, 9.782606e-003
3.392173e+003, 9.182002e-003
3.394101e+003, 8.764796e-003
3.396030e+003, 9.064823e-003
3.397958e+003, 8.884328e-003
3.399887e+003, 8.249101e-003
3.401815e+003, 8.664663e-003
3.403744e+003, 9.089421e-003
3.405672e+003, 8.413860e-003
3.407601e+003, 7.378824e-003
3.409529e+003, 7.132837e-003
3.411458e+003, 7.625794e-003
3.413386e+003, 8.572157e-003
3.415314e+003, 8.516570e-003
3.417243e+003, 8.003025e-003
3.419171e+003, 7.907725e-003
3.421100e+003, 8.169581e-003
3.423028e+003, 7.633752e-003
3.424957e+003, 7.716378e-003
3.426885e+003, 8.241807e-003
3.428814e+003, 7.876244e-003
3.430742e+003, 7.504145e-003
3.432671e+003, 7.237940e-003
3.434599e+003, 6.952469e-003
3.436528e+003, 6.839492e-003
3.438456e+003, 6.622910e-003
3.440385e+003, 7.072145e-003
3.442313e+003, 7.147051e-003
3.444241e+003, 6.451229e-003
3.446170e+003, 6.331322e-003
3.448098e+003, 6.398770e-003
3.450027e+003, 6.333809e-003
3.451955e+003, 5.763068e-003
3.453884e+003, 6.018359e-003
3.455812e+003, 6.633878e-003
3.457741e+003, 6.274204e-003
3.459669e+003, 6.243043e-003
3.461598e+003, 6.187954e-003
3.463526e+003, 5.790669e-003
3.465455e+003, 6.124873e-003
3.467383e+003, 5.952985e-003
3.469312e+003, 5.618142e-003
3.471240e+003, 6.137609e-003
3.473168e+003, 6.299114e-003
3.475097e+003, 6.022323e-003
3.477025e+003, 6.252186e-003
3.478954e+003, 5.990542e-003
3.480882e+003, 5.910427e-003
3.482811e+003, 6.199683e-003
3.484739e+003, 6.169435e-003
3.486668e+003, 5.835029e-003
3.488596e+003, 5.128765e-003
3.490525e+003, 5.103586e-003
3.492453e+003, 5.894540e-003
3.494382e+003, 6.511095e-003
3.496310e+003, 6.398770e-003
3.498239e+003, 5.407939e-003
3.500167e+003, 4.617668e-003
3.502095e+003, 4.904858e-003
3.504024e+003, 4.956098e-003
3.505952e+003, 4.419095e-003
3.507881e+003, 4.986798e-003
3.509809e+003, 5.385025e-003
3.511738e+003, 5.206690e-003
3.513666e+003, 4.882205e-003
3.515595e+003, 4.585521e-003
3.517523e+003, 4.705282e-003
3.519452e+003, 5.066575e-003
3.521380e+003, 5.474807e-003
3.523309e+003, 5.305625e-003
3.525237e+003, 5.143919e-003
3.527166e+003, 4.927377e-003
3.529094e+003, 4.505799e-003
3.531022e+003, 4.223824e-003
3.532951e+003, 4.044962e-003
3.534879e+003, 4.532985e-003
3.536808e+003, 4.603838e-003
3.538736e+003, 4.002356e-003
3.540665e+003, 4.472555e-003
3.542593e+003, 4.689975e-003
3.544522e+003, 4.695100e-003
3.546450e+003, 4.207263e-003
3.548379e+003, 3.659423e-003
3.550307e+003, 4.038775e-003
3.552236e+003, 4.877648e-003
3.554164e+003, 4.559001e-003
3.556093e+003, 3.761282e-003
3.558021e+003, 3.382873e-003
3.559949e+003, 3.541686e-003
3.561878e+003, 3.269551e-003
3.563806e+003, 2.923393e-003
3.565735e+003, 3.359899e-003
3.567663e+003, 3.123986e-003
3.569592e+003, 2.784013e-003
3.571520e+003, 2.722958e-003
3.573449e+003, 3.369149e-003
3.575377e+003, 3.684985e-003
3.577306e+003, 4.474128e-003
3.579234e+003, 4.321700e-003
3.581163e+003, 3.144778e-003
3.583091e+003, 2.876928e-003
3.585020e+003, 3.016371e-003
3.586948e+003, 3.153890e-003
3.588876e+003, 3.226654e-003
3.590805e+003, 3.228758e-003
3.592733e+003, 3.194543e-003
3.594662e+003, 3.321768e-003
3.596590e+003, 3.775019e-003
3.598519e+003, 3.122952e-003
3.600447e+003, 2.506487e-003
3.602376e+003, 2.234633e-003
3.604304e+003, 2.809024e-003
3.606233e+003, 3.671586e-003
3.608161e+003, 3.444354e-003
3.610090e+003, 3.097088e-003
3.612018e+003, 2.806389e-003
3.613947e+003, 2.289723e-003
3.615875e+003, 3.344205e-003
3.617803e+003, 4.631432e-003
3.619732e+003, 3.797546e-003
3.621660e+003, 3.051839e-003
3.623589e+003, 3.383340e-003
3.625517e+003, 3.437808e-003
3.627446e+003, 3.227255e-003
3.629374e+003, 2.445138e-003
3.631303e+003, 1.275344e-003
3.633231e+003, 9.748364e-004
3.635160e+003, 1.992240e-003
3.637088e+003, 2.880997e-003
3.639017e+003, 2.651045e-003
3.640945e+003, 1.850164e-003
3.642874e+003, 1.983453e-003
3.644802e+003, 2.446538e-003
3.646730e+003, 2.265874e-003
3.648659e+003, 1.970738e-003
3.650587e+003, 1.638417e-003
3.652516e+003, 1.620890e-003
3.654444e+003, 2.131866e-003
3.656373e+003, 2.988612e-003
3.658301e+003, 3.423481e-003
3.660230e+003, 3.492550e-003
3.662158e+003, 3.359064e-003
3.664087e+003, 2.600642e-003
3.666015e+003, 1.628140e-003
3.667944e+003, 9.956587e-004
3.669872e+003, 1.112242e-003
3.671801e+003, 1.199749e-003
3.673729e+003, 1.065339e-003
3.675657e+003, 1.301897e-003
3.677586e+003, 1.598109e-003
3.679514e+003, 1.907834e-003
3.681443e+003, 2.397391e-003
3.683371e+003, 2.541413e-003
3.685300e+003, 2.521184e-003
3.687228e+003, 2.486458e-003
3.689157e+003, 1.861678e-003
3.691085e+003, 1.717814e-003
3.693014e+003, 2.598509e-003
3.694942e+003, 3.177620e-003
3.696871e+003, 3.026981e-003
3.698799e+003, 2.526782e-003
3.700728e+003, 2.187242e-003
3.702656e+003, 2.041507e-003
3.704584e+003, 2.604176e-003
3.706513e+003, 2.429378e-003
3.708441e+003, 1.777363e-003
3.710370e+003, 1.794697e-003
3.712298e+003, 1.720376e-003
3.714227e+003, 1.847535e-003
3.716155e+003, 2.136494e-003
3.718084e+003, 2.056787e-003
3.720012e+003, 1.608518e-003
3.721941e+003, 1.602133e-003
3.723869e+003, 2.029456e-003
3.725798e+003, 2.901877e-003
3.727726e+003, 2.871291e-003
3.729655e+003, 2.287391e-003
3.731583e+003, 1.582944e-003
3.733511e+003, 1.362453e-003
3.735440e+003, 2.325432e-003
3.737368e+003, 2.585776e-003
3.739297e+003, 2.114785e-003
3.741225e+003, 1.966344e-003
3.743154e+003, 1.744028e-003
3.745082e+003, 1.876053e-003
3.747011e+003, 2.078261e-003
3.748939e+003, 2.896907e-003
3.750868e+003, 2.381733e-003
3.752796e+003, 1.385853e-003
3.754725e+003, 1.317417e-003
3.756653e+003, 2.183846e-003
3.758582e+003, 2.577010e-003
3.760510e+003, 2.132965e-003
3.762438e+003, 2.047466e-003
3.764367e+003, 3.041863e-003
3.766295e+003, 3.410957e-003
3.768224e+003, 4.138883e-003
3.770152e+003, 4.916185e-003
3.772081e+003, 4.124801e-003
3.774009e+003, 3.021276e-003
3.775938e+003, 2.825999e-003
3.777866e+003, 3.456277e-003
3.779795e+003, 3.240308e-003
3.781723e+003, 1.970538e-003
3.783652e+003, 1.912793e-003
3.785580e+003, 2.450936e-003
3.787509e+003, 2.685516e-003
3.789437e+003, 2.923526e-003
3.791365e+003, 3.165471e-003
3.793294e+003, 2.315338e-003
3.795222e+003, 1.813729e-003
3.797151e+003, 2.989313e-003
3.799079e+003, 3.016704e-003
3.801008e+003, 2.390028e-003
3.802936e+003, 2.759270e-003
3.804865e+003, 3.005828e-003
3.806793e+003, 2.863019e-003
3.808722e+003, 2.414417e-003
3.810650e+003, 2.345286e-003
3.812579e+003, 3.010165e-003
3.814507e+003, 3.457947e-003
3.816436e+003, 3.287546e-003
3.818364e+003, 2.809924e-003
3.820292e+003, 2.767940e-003
3.822221e+003, 2.704387e-003
3.824149e+003, 2.427278e-003
3.826078e+003, 2.643544e-003
3.828006e+003, 2.777377e-003
3.829935e+003, 1.939851e-003
3.831863e+003, 1.949636e-003
3.833792e+003, 2.615842e-003
3.835720e+003, 2.600109e-003
3.837649e+003, 2.400124e-003
3.839577e+003, 2.981439e-003
3.841506e+003, 3.089913e-003
3.843434e+003, 3.472743e-003
3.845363e+003, 3.575327e-003
3.847291e+003, 2.764372e-003
3.849219e+003, 2.870724e-003
3.851148e+003, 3.759210e-003
3.853076e+003, 3.605261e-003
3.855005e+003, 2.671347e-003
3.856933e+003, 2.254017e-003
3.858862e+003, 2.723492e-003
3.860790e+003, 3.341334e-003
3.862719e+003, 3.611175e-003
3.864647e+003, 4.412266e-003
3.866576e+003, 4.529134e-003
3.868504e+003, 3.980119e-003
3.870433e+003, 3.638339e-003
3.872361e+003, 2.852046e-003
3.874290e+003, 1.615968e-003
3.876218e+003, 1.915855e-003
3.878146e+003, 3.274793e-003
3.880075e+003, 2.772908e-003
3.882003e+003, 1.903641e-003
3.883932e+003, 2.116283e-003
3.885860e+003, 2.514085e-003
3.887789e+003, 3.274659e-003
3.889717e+003, 3.739892e-003
3.891646e+003, 3.475449e-003
3.893574e+003, 2.969195e-003
3.895503e+003, 2.544713e-003
3.897431e+003, 2.491790e-003
3.899360e+003, 1.972069e-003
3.901288e+003, 2.170459e-003
3.903217e+003, 2.417949e-003
3.905145e+003, 2.588309e-003
3.907073e+003, 3.514228e-003
3.909002e+003, 3.226488e-003
3.910930e+003, 2.215317e-003
3.912859e+003, 1.854423e-003
3.914787e+003, 2.252385e-003
3.916716e+003, 2.668180e-003
3.918644e+003, 3.191906e-003
3.920573e+003, 3.277864e-003
3.922501e+003, 2.268805e-003
3.924430e+003, 1.646399e-003
3.926358e+003, 1.657143e-003
3.928287e+003, 2.386563e-003
3.930215e+003, 2.734962e-003
3.932144e+003, 3.299098e-003
3.934072e+003, 3.745975e-003
3.936000e+003, 3.179890e-003
3.937929e+003, 2.565644e-003
3.939857e+003, 2.813059e-003
3.941786e+003, 3.480392e-003
3.943714e+003, 3.556385e-003
3.945643e+003, 3.438944e-003
3.947571e+003, 3.723349e-003
3.949500e+003, 3.647193e-003
3.951428e+003, 2.684950e-003
3.953357e+003, 2.524383e-003
3.955285e+003, 2.040442e-003
3.957214e+003, 2.582209e-003
3.959142e+003, 3.325006e-003
3.961071e+003, 3.055410e-003
3.962999e+003, 3.422212e-003
3.964927e+003, 2.870857e-003
3.966856e+003, 2.992082e-003
3.968784e+003, 2.603675e-003
3.970713e+003, 2.217614e-003
3.972641e+003, 2.221245e-003
3.974570e+003, 2.309242e-003
3.976498e+003, 2.513452e-003
3.978427e+003, 3.037825e-003
3.980355e+003, 2.368373e-003
3.982284e+003, 3.158395e-003
3.984212e+003, 3.472409e-003
3.986141e+003, 2.579643e-003
3.988069e+003, 2.941406e-003
3.989998e+003, 2.956752e-003
3.991926e+003, 2.788948e-003
3.993854e+003, 2.943208e-003
3.995783e+003, 2.945510e-003
3.997711e+003, 3.281870e-003
3.999640e+003, 3.281870e-003
4.001568e+003, 0.000000e+000
##END=



