##NAMES=Andalusite
##RRUFFID=R050561
##IDEAL CHEMISTRY=Al_2_SiO_5_
##LOCALITY=Cargo Muchacho Mountain, Imperial County, California
##OWNER=RRUFF
##SOURCE=Dave Bunk Minerals
##DESCRIPTION=Brown coarsely crystalline massive
##STATUS=The identification of this mineral has been confirmed by X-ray diffraction and chemical analysis
##URL=rruff.info/R050561
##MEASURED CHEMISTRY=(Al_1.98_Fe^3+^_0.02_)_Î£=2_Si_1.00_O_5_
399.1926, 0.1960564
401.1211, 0.1912793
403.0496, 0.1921989
404.9780, 0.2063387
406.9065, 0.2176950
408.8350, 0.2149643
410.7634, 0.2180021
412.6919, 0.2262599
414.6204, 0.2306555
416.5488, 0.2359711
418.4773, 0.2428012
420.4058, 0.2468664
422.3342, 0.2486094
424.2627, 0.2488996
426.1912, 0.2532915
428.1196, 0.2557326
430.0481, 0.2533154
431.9766, 0.2471310
433.9050, 0.2445164
435.8335, 0.2445279
437.7620, 0.2418470
439.6904, 0.2377234
441.6189, 0.2347085
443.5474, 0.2326354
445.4758, 0.2265698
447.4043, 0.2229435
449.3328, 0.2194315
451.2612, 0.2143432
453.1897, 0.2085008
455.1182, 0.1980126
457.0466, 0.1834062
458.9751, 0.1654810
460.9036, 0.1486869
462.8320, 0.1348909
464.7605, 0.1276838
466.6890, 0.1268467
468.6174, 0.1282496
470.5459, 0.1285551
472.4744, 0.1297939
474.4028, 0.1302494
476.3313, 0.1291815
478.2598, 0.1289385
480.1882, 0.1302249
482.1167, 0.1313412
484.0452, 0.1310749
485.9736, 0.1301947
487.9021, 0.1295146
489.8306, 0.1278176
491.7590, 0.1249480
493.6875, 0.1217366
495.6160, 0.1181660
497.5444, 0.1141529
499.4729, 0.1096062
501.4014, 0.1054722
503.3298, 0.1039993
505.2583, 0.1055089
507.1868, 0.1114739
509.1152, 0.1227680
511.0437, 0.1390000
512.9722, 0.1592464
514.9006, 0.1765224
516.8291, 0.1817616
518.7576, 0.1744998
520.6860, 0.1618770
522.6145, 0.1502972
524.5430, 0.1414432
526.4714, 0.1355017
528.3999, 0.1317860
530.3284, 0.1293532
532.2568, 0.1269542
534.1853, 0.1241717
536.1138, 0.1215442
538.0422, 0.1191015
539.9707, 0.1168006
541.8992, 0.1148952
543.8276, 0.1146042
545.7561, 0.1149897
547.6846, 0.1163243
549.6130, 0.1182438
551.5415, 0.1204996
553.4700, 0.1232032
555.3984, 0.1270277
557.3269, 0.1307066
559.2554, 0.1326427
561.1838, 0.1310829
563.1123, 0.1279550
565.0408, 0.1275804
566.9692, 0.1301097
568.8977, 0.1333000
570.8262, 0.1366006
572.7546, 0.1404523
574.6831, 0.1448851
576.6116, 0.1488921
578.5400, 0.1522979
580.4685, 0.1554878
582.3970, 0.1580109
584.3254, 0.1603229
586.2539, 0.1622504
588.1824, 0.1653137
590.1108, 0.1676047
592.0393, 0.1682184
593.9678, 0.1689222
595.8962, 0.1701866
597.8247, 0.1706383
599.7532, 0.1719468
601.6816, 0.1730292
603.6101, 0.1730958
605.5386, 0.1734394
607.4670, 0.1732356
609.3955, 0.1727128
611.3240, 0.1724544
613.2524, 0.1725872
615.1809, 0.1719985
617.1094, 0.1708088
619.0378, 0.1696666
620.9663, 0.1679137
622.8948, 0.1659554
624.8232, 0.1643867
626.7517, 0.1627465
628.6802, 0.1612576
630.6086, 0.1600665
632.5371, 0.1590967
634.4656, 0.1584762
636.3940, 0.1574092
638.3225, 0.1564346
640.2510, 0.1553440
642.1794, 0.1537733
644.1079, 0.1521285
646.0364, 0.1510577
647.9648, 0.1499431
649.8933, 0.1481365
651.8218, 0.1463225
653.7502, 0.1446089
655.6787, 0.1426957
657.6072, 0.1406079
659.5356, 0.1389595
661.4641, 0.1383417
663.3926, 0.1382103
665.3210, 0.1388040
667.2495, 0.1399446
669.1780, 0.1413694
671.1064, 0.1432366
673.0349, 0.1436287
674.9634, 0.1416390
676.8918, 0.1388933
678.8203, 0.1367677
680.7488, 0.1350183
682.6772, 0.1337036
684.6057, 0.1328088
686.5342, 0.1318902
688.4626, 0.1308528
690.3911, 0.1301575
692.3196, 0.1294866
694.2480, 0.1281482
696.1765, 0.1264048
698.1050, 0.1248570
700.0334, 0.1227222
701.9619, 0.1205833
703.8904, 0.1187637
705.8188, 0.1170027
707.7473, 0.1149967
709.6758, 0.1132481
711.6042, 0.1115611
713.5327, 0.1094985
715.4612, 0.1069875
717.3896, 0.1049691
719.3181, 0.1031397
721.2466, 0.1016216
723.1750, 9.9988364E-02
725.1035, 9.8319367E-02
727.0320, 9.6550189E-02
728.9604, 9.4873764E-02
730.8889, 9.2547640E-02
732.8174, 8.9962609E-02
734.7458, 8.6853758E-02
736.6743, 8.2570098E-02
738.6028, 7.8333147E-02
740.5313, 7.3613472E-02
742.4597, 6.7756549E-02
744.3882, 6.1677180E-02
746.3167, 5.6277439E-02
748.2451, 5.1441420E-02
750.1736, 4.7148131E-02
752.1021, 4.4045340E-02
754.0305, 4.2205501E-02
755.9590, 4.1017611E-02
757.8875, 4.0619910E-02
759.8159, 4.1442301E-02
761.7444, 4.3243669E-02
763.6729, 4.5790501E-02
765.6013, 4.9479749E-02
767.5298, 5.3967979E-02
769.4583, 5.8854729E-02
771.3867, 6.4043038E-02
773.3152, 6.7200780E-02
775.2437, 6.6918872E-02
777.1721, 6.3059561E-02
779.1006, 5.6918651E-02
781.0291, 5.0774269E-02
782.9575, 4.5520879E-02
784.8860, 4.1993350E-02
786.8145, 4.0244829E-02
788.7429, 3.9755192E-02
790.6714, 3.9810300E-02
792.5999, 4.0000420E-02
794.5283, 4.0190808E-02
796.4568, 4.0324740E-02
798.3853, 4.0657669E-02
800.3137, 4.0724821E-02
802.2422, 4.0548380E-02
804.1707, 4.0292591E-02
806.0991, 4.0050302E-02
808.0276, 4.0337950E-02
809.9561, 4.1164432E-02
811.8845, 4.2288490E-02
813.8130, 4.3774851E-02
815.7415, 4.5552369E-02
817.6699, 4.7679819E-02
819.5984, 5.0222151E-02
821.5269, 5.2790079E-02
823.4553, 5.5213738E-02
825.3838, 5.7630491E-02
827.3123, 6.0663451E-02
829.2407, 6.4019457E-02
831.1692, 6.7768447E-02
833.0977, 7.1698420E-02
835.0261, 7.5453043E-02
836.9546, 7.9133853E-02
838.8831, 8.3114557E-02
840.8115, 8.7947741E-02
842.7400, 9.2901006E-02
844.6685, 9.7968780E-02
846.5969, 0.1036081
848.5254, 0.1092416
850.4539, 0.1145425
852.3823, 0.1203193
854.3108, 0.1263568
856.2393, 0.1322880
858.1677, 0.1384620
860.0962, 0.1447259
862.0247, 0.1506692
863.9531, 0.1559832
865.8816, 0.1604839
867.8101, 0.1641868
869.7385, 0.1675285
871.6670, 0.1705140
873.5955, 0.1729443
875.5239, 0.1753781
877.4524, 0.1781794
879.3809, 0.1807018
881.3093, 0.1826592
883.2378, 0.1844630
885.1663, 0.1865595
887.0947, 0.1886585
889.0232, 0.1904777
890.9517, 0.1917756
892.8801, 0.1915088
894.8085, 0.1915616
896.7370, 0.1921071
898.6655, 0.1914078
900.5939, 0.1897214
902.5224, 0.1879567
904.4509, 0.1861493
906.3793, 0.1847098
908.3078, 0.1832407
910.2363, 0.1817333
912.1647, 0.1811197
914.0932, 0.1818816
916.0217, 0.1841232
917.9501, 0.1887497
919.8786, 0.1956658
921.8071, 0.2034890
923.7355, 0.2114024
925.6640, 0.2181579
927.5925, 0.2221839
929.5209, 0.2226970
931.4494, 0.2202898
933.3779, 0.2167792
935.3063, 0.2129985
937.2348, 0.2092291
939.1633, 0.2057329
941.0917, 0.2021816
943.0202, 0.1986121
944.9487, 0.1950816
946.8771, 0.1919696
948.8056, 0.1892355
950.7341, 0.1866210
952.6625, 0.1840945
954.5910, 0.1818890
956.5195, 0.1802544
958.4479, 0.1787498
960.3764, 0.1780303
962.3049, 0.1786709
964.2333, 0.1803294
966.1618, 0.1827918
968.0903, 0.1847848
970.0187, 0.1841259
971.9472, 0.1800202
973.8757, 0.1738545
975.8041, 0.1672968
977.7326, 0.1613193
979.6611, 0.1557408
981.5895, 0.1507099
983.5180, 0.1461244
985.4465, 0.1416001
987.3749, 0.1375019
989.3034, 0.1336592
991.2319, 0.1299174
993.1603, 0.1264379
995.0888, 0.1234060
997.0173, 0.1204913
998.9457, 0.1176583
1000.874, 0.1147222
1002.803, 0.1121070
1004.731, 0.1095797
1006.660, 0.1067432
1008.588, 0.1039564
1010.517, 0.1012929
1012.445, 9.8335333E-02
1014.373, 9.5450737E-02
1016.302, 9.2856273E-02
1018.230, 9.0177968E-02
1020.159, 8.7314971E-02
1022.087, 8.5130319E-02
1024.016, 8.3297707E-02
1025.944, 8.1346877E-02
1027.873, 7.9384230E-02
1029.801, 7.7793188E-02
1031.730, 7.5949438E-02
1033.658, 7.4020989E-02
1035.587, 7.2246037E-02
1037.515, 6.9971681E-02
1039.444, 6.7493133E-02
1041.372, 6.5289363E-02
1043.301, 6.3204668E-02
1045.229, 6.1204519E-02
1047.157, 5.8967251E-02
1049.086, 5.6701690E-02
1051.014, 5.4649930E-02
1052.943, 5.2918270E-02
1054.871, 5.0833311E-02
1056.800, 4.8654441E-02
1058.728, 4.6694089E-02
1060.657, 4.4981949E-02
1062.585, 4.3321330E-02
1064.514, 4.1193150E-02
1066.442, 3.9131921E-02
1068.371, 3.7508711E-02
1070.299, 3.6100470E-02
1072.228, 3.4848191E-02
1074.156, 3.3599120E-02
1076.084, 3.2769781E-02
1078.013, 3.2167871E-02
1079.941, 3.1499941E-02
1081.870, 3.0832021E-02
1083.798, 3.0342281E-02
1085.727, 2.9740339E-02
1087.655, 2.9442221E-02
1089.584, 2.9317940E-02
1091.512, 2.8801929E-02
1093.441, 2.8284671E-02
1095.369, 2.8108951E-02
1097.298, 2.7613200E-02
1099.226, 2.7439360E-02
1101.155, 2.7248969E-02
1103.083, 2.6687860E-02
1105.011, 2.6304020E-02
1106.940, 2.5992369E-02
1108.868, 2.5375940E-02
1110.797, 2.5002060E-02
1112.725, 2.4817821E-02
1114.654, 2.4172889E-02
1116.582, 2.3450481E-02
1118.511, 2.2692220E-02
1120.439, 2.1685399E-02
1122.368, 2.0929830E-02
1124.296, 2.0315809E-02
1126.225, 1.9581741E-02
1128.153, 1.9100800E-02
1130.082, 1.8720319E-02
1132.010, 1.7881781E-02
1133.938, 1.6941490E-02
1135.867, 1.6494060E-02
1137.795, 1.6180040E-02
1139.724, 1.5603010E-02
1141.652, 1.4909430E-02
1143.581, 1.4301540E-02
1145.509, 1.3866870E-02
1147.438, 1.3307510E-02
1149.366, 1.2746130E-02
1151.295, 1.2040430E-02
1153.223, 1.1612500E-02
1155.152, 1.1421730E-02
1157.080, 1.1250530E-02
1159.009, 1.1180330E-02
1160.937, 1.1427460E-02
1162.865, 1.1643190E-02
1164.794, 1.1340690E-02
1166.722, 1.0769040E-02
1168.651, 1.0390980E-02
1170.579, 9.9321017E-03
1172.508, 9.3352152E-03
1174.436, 9.1257747E-03
1176.365, 9.0312138E-03
1178.293, 8.6069833E-03
1180.222, 8.2050571E-03
1182.150, 8.0823218E-03
1184.079, 7.8056371E-03
1186.007, 7.3150010E-03
1187.936, 7.0545650E-03
1189.864, 6.9696228E-03
1191.792, 6.7360629E-03
1193.721, 6.2947199E-03
1195.649, 5.9251548E-03
1197.578, 5.5406862E-03
1199.506, 5.3389580E-03
1201.435, 4.9995668E-03
1203.363, 4.5644781E-03
1205.292, 4.2973929E-03
1207.220, 4.0065181E-03
1209.149, 3.6134750E-03
1211.077, 3.4232701E-03
1213.006, 3.3402140E-03
1214.934, 2.8356879E-03
1216.863, 2.3035919E-03
1218.791, 2.0289130E-03
1220.719, 1.5949310E-03
1222.648, 1.4628900E-03
1224.576, 1.5241150E-03
1226.505, 1.1428980E-03
1228.433, 6.9998001E-04
1230.362, 6.4997422E-04
1232.290, 4.0617510E-04
1234.219, 8.8748740E-05
1236.147, 1.9315429E-04
1238.076, 4.1756549E-04
1240.004, 3.1711560E-04
1241.933, 2.0040539E-05
1243.861, -1.5914559E-04
1245.790, -4.5671381E-04
1247.718, -6.1614061E-04
1249.646, -7.5066532E-04
1251.575, -4.9778202E-04
1253.503, -3.7541761E-04
1255.432, -4.6926769E-04
1257.360, -3.6304200E-04
1259.289, -5.4495328E-04
1261.217, -6.5649132E-04
1263.146, -5.4152118E-04
1265.074, -4.9720419E-04
1267.003, -2.6068179E-04
1268.931, -1.4701110E-04
1270.860, -1.8638380E-04
1272.788, -3.3356901E-04
1274.717, -2.5500750E-04
1276.645, -2.0685270E-04
1278.573, -6.5279557E-05
1280.502, 8.9997498E-05
1282.430, -9.5606401E-06
1284.359, -4.4341581E-05
1286.287, -1.1220690E-04
1288.216, -1.3908920E-04
1290.144, -1.2314260E-04
1292.073, -4.3666121E-05
1294.001, -8.1929080E-05
1295.930, -2.3603121E-04
1297.858, -2.0517431E-04
1299.787, -1.8399610E-04
1301.715, -2.9606049E-04
1303.644, -2.9485850E-04
1305.572, -3.5426600E-04
1307.500, -3.1447961E-04
1309.429, -2.4716361E-04
1311.357, -1.1161360E-04
1313.286, -7.0489077E-05
1315.214, -1.8369680E-04
1317.143, -2.6929670E-04
1319.071, -1.8436660E-04
1321.000, -1.4341650E-04
1322.928, -1.7044500E-04
1324.857, -1.1241140E-04
1326.785, 1.3339540E-04
1328.714, 1.7126231E-05
1330.642, -2.2159571E-04
1332.571, -5.1318872E-04
1334.499, -6.3624769E-04
1336.427, -5.8236031E-04
1338.356, -5.7522650E-04
1340.284, -6.0768682E-04
1342.213, -4.4109361E-04
1344.141, -4.0772589E-04
1346.070, -6.5802550E-04
1347.998, -7.9489249E-04
1349.927, -7.9911179E-04
1351.855, -6.7669217E-04
1353.784, -5.9319468E-04
1355.712, -6.0323888E-04
1357.641, -9.2091510E-04
1359.569, -9.1997441E-04
1361.498, -6.1369973E-04
1363.426, -9.3904737E-04
1365.354, -1.5160780E-03
1367.283, -1.5686020E-03
1369.211, -1.1529860E-03
1371.140, -1.1164290E-03
1373.068, -1.2933020E-03
1374.997, -1.6626440E-03
1376.925, -1.7267111E-03
1378.854, -1.7655730E-03
1380.782, -1.6091850E-03
1382.711, -1.4609500E-03
1384.639, -1.4498980E-03
1386.568, -1.3363640E-03
1388.496, -1.3464860E-03
1390.424, -1.4398700E-03
1392.353, -1.4730711E-03
1394.281, -1.2311760E-03
1396.210, -1.0328460E-03
1398.138, -1.1092341E-03
1400.067, -1.1344720E-03
1401.995, -1.0514091E-03
1403.924, -1.0176550E-03
1405.852, -9.2985161E-04
1407.781, -8.5664983E-04
1409.709, -1.0401740E-03
1411.638, -8.4213511E-04
1413.566, -5.6389451E-04
1415.495, -4.6986269E-04
1417.423, -6.9909880E-04
1419.351, -1.0678050E-03
1421.280, -9.2571398E-04
1423.208, -7.4198860E-04
1425.137, -7.3224062E-04
1427.065, -7.0489373E-04
1428.994, -6.6436757E-04
1430.922, -6.7738863E-04
1432.851, -6.6312542E-04
1434.779, -8.4369199E-04
1436.708, -1.1357480E-03
1438.636, -8.7023719E-04
1440.565, -6.1066798E-04
1442.493, -9.9216786E-04
1444.422, -1.2890151E-03
1446.350, -1.5384210E-03
1448.278, -1.8110230E-03
1450.207, -1.8214360E-03
1452.135, -2.1133751E-03
1454.064, -2.1779300E-03
1455.992, -2.0394090E-03
1457.921, -2.1345541E-03
1459.849, -2.5646440E-03
1461.778, -2.4273519E-03
1463.706, -2.1385769E-03
1465.635, -2.2967381E-03
1467.563, -2.1991190E-03
1469.492, -1.6087880E-03
1471.420, -1.1852330E-03
1473.349, -7.9358107E-04
1475.277, -3.2610589E-04
1477.205, 1.0215800E-04
1479.134, -6.8707901E-05
1481.062, -1.5441600E-04
1482.991, 2.5984229E-04
1484.919, 2.8041040E-04
1486.848, 1.6303940E-04
1488.776, 3.4465609E-04
1490.705, 3.5256491E-04
1492.633, 6.4004172E-04
1494.562, 7.0471759E-04
1496.490, 6.2531669E-04
1498.419, 7.2413130E-04
1500.347, 6.7858171E-04
1502.276, 7.2918442E-04
1504.204, 7.9768320E-04
1506.132, 8.4007852E-04
1508.061, 1.0418650E-03
1509.989, 9.0805971E-04
1511.918, 6.2353961E-04
1513.846, 6.5109611E-04
1515.775, 8.2946522E-04
1517.703, 8.9044101E-04
1519.632, 1.0073460E-03
1521.560, 1.1728460E-03
1523.489, 9.4160449E-04
1525.417, 9.6122059E-04
1527.346, 9.3750138E-04
1529.274, 7.7424833E-04
1531.203, 8.7006408E-04
1533.131, 7.2656549E-04
1535.059, 7.2075822E-04
1536.988, 8.8849670E-04
1538.916, 1.0375950E-03
1540.845, 1.1658210E-03
1542.773, 1.2920850E-03
1544.702, 1.2211410E-03
1546.630, 1.2103959E-03
1548.559, 1.1511500E-03
1550.487, 9.7506313E-04
1552.416, 7.4296532E-04
1554.344, 7.5389072E-04
1556.273, 8.9128001E-04
1558.201, 1.0509080E-03
1560.130, 6.9739250E-04
1562.058, 6.1018218E-04
1563.986, 5.5720261E-04
1565.915, 7.4584200E-04
1567.843, 1.0770790E-03
1569.772, 1.1851550E-03
1571.700, 1.1709610E-03
1573.629, 8.7093911E-04
1575.557, 7.5242051E-04
1577.486, 8.1812398E-04
1579.414, 5.1650562E-04
1581.343, 4.5164721E-04
1583.271, 6.6572701E-04
1585.200, 6.9208973E-04
1587.128, 7.1082980E-04
1589.057, 8.3392998E-04
1590.985, 7.7044847E-04
1592.913, 5.8235187E-04
1594.842, 5.0986372E-04
1596.770, 5.1953422E-04
1598.699, 2.4577760E-04
1600.627, 1.7599321E-04
1602.556, 5.1934412E-04
1604.484, 6.9907238E-04
1606.413, 5.6390121E-04
1608.341, 5.1023299E-04
1610.270, 4.7720750E-04
1612.198, 2.0387520E-04
1614.127, 5.4340358E-05
1616.055, 3.5488841E-04
1617.984, 4.8448271E-04
1619.912, 2.0152191E-04
1621.840, 3.7309510E-04
1623.769, 3.8064440E-04
1625.697, 3.1405431E-04
1627.626, 3.1081200E-04
1629.554, 2.5813701E-04
1631.483, 4.1825909E-04
1633.411, 7.2727870E-04
1635.340, 6.1711483E-04
1637.268, 5.7913020E-04
1639.197, 4.6860561E-04
1641.125, 4.5179939E-04
1643.054, 6.6792249E-04
1644.982, 4.8547651E-04
1646.911, 4.0419621E-04
1648.839, 3.7952469E-04
1650.767, 4.4148281E-04
1652.696, 5.0331582E-04
1654.624, 4.6813340E-04
1656.553, 2.8739759E-04
1658.481, 1.3243600E-05
1660.410, 9.9420919E-05
1662.338, 4.6254459E-04
1664.267, 6.1445357E-04
1666.195, 5.7035539E-04
1668.124, 2.9460400E-05
1670.052, -2.5754140E-04
1671.981, 1.4732211E-04
1673.909, 4.3152209E-04
1675.838, 4.5713290E-04
1677.766, 2.3529980E-04
1679.694, -2.2108410E-04
1681.623, -1.3800280E-04
1683.551, 3.4660529E-04
1685.480, 9.8855438E-05
1687.408, -5.1212370E-05
1689.337, 3.4471630E-04
1691.265, 3.3731689E-04
1693.194, 2.1518400E-04
1695.122, 1.1925060E-04
1697.051, 6.5286084E-05
1698.979, -2.5406759E-04
1700.908, -9.9408717E-05
1702.836, -2.4872200E-04
1704.765, -5.7768013E-04
1706.693, -1.0173080E-03
1708.621, -1.4367050E-03
1710.550, -1.6384930E-03
1712.478, -2.0474130E-03
1714.407, -2.1852111E-03
1716.335, -2.0675070E-03
1718.264, -1.8401960E-03
1720.192, -1.9071320E-03
1722.121, -1.9151320E-03
1724.049, -1.7915710E-03
1725.978, -2.2109081E-03
1727.906, -2.9899450E-03
1729.835, -3.1359899E-03
1731.763, -3.0844000E-03
1733.692, -3.5216969E-03
1735.620, -3.8958080E-03
1737.548, -4.5001991E-03
1739.477, -5.1202150E-03
1741.405, -5.3179711E-03
1743.334, -5.3168619E-03
1745.262, -4.7273780E-03
1747.191, -3.5142570E-03
1749.119, -3.0257280E-03
1751.048, -2.7562529E-03
1752.976, -2.3112770E-03
1754.905, -1.4861270E-03
1756.833, -3.5226971E-04
1758.762, 1.2390240E-04
1760.690, 5.2341959E-04
1762.619, 9.2665182E-04
1764.547, 9.1578258E-04
1766.475, 7.8640849E-04
1768.404, 8.7437389E-04
1770.332, 1.1227760E-03
1772.261, 1.4111530E-03
1774.189, 1.1600750E-03
1776.118, 9.6957368E-04
1778.046, 1.2404250E-03
1779.975, 1.3412550E-03
1781.903, 1.0023500E-03
1783.832, 9.8562078E-04
1785.760, 1.6751200E-03
1787.689, 1.6984770E-03
1789.617, 1.1041280E-03
1791.546, 1.0751199E-03
1793.474, 1.3468440E-03
1795.402, 1.1920580E-03
1797.331, 1.3314860E-03
1799.259, 1.4126430E-03
1801.188, 1.5776360E-03
1803.116, 1.4316520E-03
1805.045, 1.4494210E-03
1806.973, 1.5730440E-03
1808.902, 1.7661470E-03
1810.830, 1.7798160E-03
1812.759, 1.6664370E-03
1814.687, 1.4513800E-03
1816.616, 1.9624040E-03
1818.544, 2.3957819E-03
1820.473, 1.8808900E-03
1822.401, 1.4760010E-03
1824.329, 1.5049370E-03
1826.258, 1.6037180E-03
1828.186, 1.5693570E-03
1830.115, 1.3607530E-03
1832.043, 1.3957541E-03
1833.972, 1.0154539E-03
1835.900, 1.5780510E-03
1837.829, 2.3138169E-03
1839.757, 2.8841521E-03
1841.686, 2.8836229E-03
1843.614, 2.4230501E-03
1845.543, 1.3262840E-03
1847.471, 1.1458290E-03
1849.400, 9.1258099E-04
1851.328, 7.4534368E-04
1853.256, 1.8942649E-03
1855.185, 2.0377161E-03
1857.113, 1.1398550E-03
1859.042, 1.0716460E-03
1860.970, 9.7453018E-04
1862.899, 7.6971098E-04
1864.827, 7.9401041E-04
1866.756, 9.4393361E-04
1868.684, 1.6353281E-03
1870.613, 2.1883310E-03
1872.541, 1.9912219E-03
1874.470, 1.4433820E-03
1876.398, 1.3076690E-03
1878.327, 1.2069120E-03
1880.255, 9.8437944E-04
1882.183, 8.0876658E-04
1884.112, 1.1635530E-03
1886.040, 1.3150770E-03
1887.969, 1.1945009E-03
1889.897, 1.2323461E-03
1891.826, 1.2841410E-03
1893.754, 1.0207230E-03
1895.683, 8.7165862E-04
1897.611, 2.3877290E-04
1899.540, 1.9110620E-04
1901.468, 1.1089330E-04
1903.397, 3.6643870E-04
1905.325, 6.5139058E-04
1907.254, 6.2378001E-04
1909.182, 7.1051222E-04
1911.110, 1.3402960E-03
1913.039, 1.4030450E-03
1914.967, 4.2802101E-04
1916.896, 2.4609151E-04
1918.824, 1.1616580E-04
1920.753, 4.7006720E-04
1922.681, 7.2063692E-04
1924.610, 5.2288698E-04
1926.538, 4.0122899E-04
1928.467, 5.0405040E-04
1930.395, -3.6699639E-04
1932.324, -1.2895110E-03
1934.252, -1.7443090E-03
1936.181, -1.7552660E-03
1938.109, -1.0733510E-03
1940.037, -1.1662190E-03
1941.966, -1.3928229E-03
1943.894, -6.4957322E-04
1945.823, -1.3059870E-03
1947.751, -1.1970210E-03
1949.680, -2.1851620E-04
1951.608, 1.0612140E-04
1953.537, -1.2595240E-03
1955.465, -1.1384820E-03
1957.394, -1.1172590E-03
1959.322, -6.9170381E-04
1961.251, 4.6209770E-04
1963.179, -7.9828617E-04
1965.108, 1.4815400E-03
1967.036, 2.8585671E-03
1968.964, 1.0882680E-04
1970.893, -1.7249540E-03
1972.821, -1.3595370E-04
1974.750, -4.0283220E-04
1976.678, 2.5609061E-05
1978.607, 1.7375670E-03
1980.535, 1.1959600E-03
1982.464, 1.0008640E-03
1984.392, 2.2464129E-03
1986.321, 1.4924570E-03
1988.249, 7.5039126E-05
1990.178, 8.4045163E-04
1992.106, -9.0836681E-04
1994.035, -2.8603489E-03
1995.963, 1.0816400E-03
1997.891, 3.3312580E-03
1999.820, 1.2343460E-03
2001.748, -7.3226239E-04
2003.677, 3.7365619E-04
2005.605, 7.2291872E-04
2007.534, 1.7579719E-03
2009.462, 2.5004561E-03
2011.391, 1.7959420E-03
2013.319, 1.2434800E-03
2015.248, 4.9753569E-04
2017.176, -8.6938770E-04
2019.105, 1.7021289E-04
2021.033, 2.7060700E-03
2022.962, 2.6537899E-03
2024.890, -5.4536242E-04
2026.818, 5.1161402E-04
2028.747, 3.2983611E-03
2030.675, 6.1729699E-03
2032.604, 3.8067801E-03
2034.532, 6.8763198E-05
2036.461, 2.2303690E-04
2038.389, 1.5209570E-03
2040.318, 1.0132190E-03
2042.246, 6.5723067E-04
2044.175, 1.9735249E-03
2046.103, 2.4859479E-03
2048.032, 1.9832340E-03
2049.960, 2.6957490E-03
2051.889, 2.5703621E-03
2053.817, 2.8545491E-03
2055.746, 3.5545039E-03
2057.674, 2.2198700E-03
2059.603, 2.2913229E-03
2061.531, 2.6225171E-03
2063.459, 3.2496669E-03
2065.388, 2.6397090E-03
2067.316, 1.1572060E-03
2069.245, 4.4713830E-04
2071.173, 1.7320800E-03
2073.102, 3.9293319E-03
2075.030, 4.2379848E-03
2076.959, 2.5137749E-03
2078.887, 1.6643431E-03
2080.816, 2.2662620E-03
2082.744, 3.3666859E-03
2084.673, 3.6018849E-03
2086.601, 2.5126189E-03
2088.530, 1.5597560E-03
2090.458, 1.1890940E-03
2092.386, 8.5710519E-04
2094.315, 4.3221359E-04
2096.243, 1.9340690E-03
2098.172, 3.6078300E-03
2100.100, 3.2937529E-03
2102.029, 2.0055070E-03
2103.957, 2.1014609E-03
2105.886, 2.9129181E-03
2107.814, 3.1443711E-03
2109.743, 3.7386201E-03
2111.671, 4.0600630E-03
2113.600, 3.5831730E-03
2115.528, 2.4657780E-03
2117.457, 2.7161080E-03
2119.385, 3.3934221E-03
2121.313, 2.5475819E-03
2123.242, 6.0785769E-05
2125.170, -5.4401049E-04
2127.099, 3.3462621E-04
2129.027, 1.0627100E-03
2130.956, -2.3883329E-04
2132.884, -1.8251890E-03
2134.813, 6.3216168E-04
2136.741, 2.0299689E-03
2138.670, 2.0129820E-03
2140.598, 1.0762970E-03
2142.527, 1.6833590E-03
2144.455, 4.3161371E-04
2146.384, 6.0989708E-04
2148.312, 2.3193650E-03
2150.240, 6.8293029E-04
2152.169, -8.2216873E-05
2154.097, -2.1288730E-03
2156.026, -6.5177549E-03
2157.954, -4.2766142E-03
2159.883, 3.0995430E-03
2161.811, 6.2262970E-03
2163.740, 7.0056198E-03
2165.668, 7.1928352E-03
2167.597, 4.2006299E-03
2169.525, 2.2664589E-03
2171.454, 3.8020301E-03
2173.382, 5.3105978E-03
2175.311, 3.9438321E-03
2177.239, 3.8585169E-03
2179.167, 4.0064380E-03
2181.096, 3.6089460E-03
2183.024, 4.7430350E-03
2184.953, 3.5206401E-03
2186.881, 3.7170099E-03
2188.810, 5.7511921E-03
2190.738, 6.3888230E-03
2192.667, 5.3860680E-03
2194.595, 3.7071989E-03
2196.524, 4.0041432E-03
2198.452, 5.3043170E-03
2200.381, 4.9895970E-03
2202.309, 5.5182232E-03
2204.238, 5.0542150E-03
2206.166, 6.1426559E-03
2208.094, 6.0047451E-03
2210.023, 4.8166350E-03
2211.951, 3.1755129E-03
2213.880, 2.6197641E-03
2215.808, 2.3322520E-03
2217.737, 3.0009230E-03
2219.665, 4.2406628E-03
2221.594, 6.0621970E-03
2223.522, 6.9137509E-03
2225.451, 6.2495619E-03
2227.379, 5.8138510E-03
2229.308, 5.4012709E-03
2231.236, 5.2761482E-03
2233.165, 5.7053892E-03
2235.093, 4.9914871E-03
2237.021, 4.8018051E-03
2238.950, 4.9848128E-03
2240.878, 6.3659758E-03
2242.807, 6.9952700E-03
2244.735, 7.1933819E-03
2246.664, 4.6657128E-03
2248.592, 3.6809170E-03
2250.521, 5.5836760E-03
2252.449, 6.8895211E-03
2254.378, 7.0881639E-03
2256.306, 6.6447668E-03
2258.235, 6.8759448E-03
2260.163, 6.7249662E-03
2262.092, 6.1822841E-03
2264.020, 4.2815520E-03
2265.948, 4.9819108E-03
2267.877, 6.9589592E-03
2269.805, 5.9681730E-03
2271.734, 5.2432599E-03
2273.662, 5.8217370E-03
2275.591, 6.8871072E-03
2277.519, 7.3538618E-03
2279.448, 7.3457840E-03
2281.376, 7.4516120E-03
2283.305, 7.8635942E-03
2285.233, 7.3808292E-03
2287.162, 7.6459120E-03
2289.090, 7.7969050E-03
2291.019, 7.0908228E-03
2292.947, 6.3978932E-03
2294.875, 6.2775449E-03
2296.804, 5.9119188E-03
2298.732, 5.3898841E-03
2300.661, 5.9137950E-03
2302.589, 7.1635959E-03
2304.518, 6.7905160E-03
2306.446, 5.9151370E-03
2308.375, 5.9577841E-03
2310.303, 5.5780350E-03
2312.232, 5.7161348E-03
2314.160, 6.3745892E-03
2316.089, 6.0240128E-03
2318.017, 6.1359722E-03
2319.946, 6.9831088E-03
2321.874, 7.7476902E-03
2323.802, 7.7081919E-03
2325.731, 6.8407650E-03
2327.659, 5.8961511E-03
2329.588, 5.7404879E-03
2331.516, 5.5226772E-03
2333.445, 5.4259561E-03
2335.373, 6.1446242E-03
2337.302, 5.2377242E-03
2339.230, 4.5722481E-03
2341.159, 5.7229740E-03
2343.087, 5.9961430E-03
2345.016, 5.5541070E-03
2346.944, 5.4608630E-03
2348.873, 5.2789869E-03
2350.801, 4.5194412E-03
2352.729, 4.6576788E-03
2354.658, 5.2615609E-03
2356.586, 5.5028470E-03
2358.515, 5.7017468E-03
2360.443, 5.2896612E-03
2362.372, 4.6531782E-03
2364.300, 5.2420832E-03
2366.229, 5.3422670E-03
2368.157, 4.9561821E-03
2370.086, 4.9536689E-03
2372.014, 4.7426769E-03
2373.942, 4.6834750E-03
2375.871, 4.9859318E-03
2377.799, 5.2450090E-03
2379.728, 5.1404568E-03
2381.656, 5.3807478E-03
2383.585, 5.0483881E-03
2385.513, 5.1593878E-03
2387.442, 5.2355891E-03
2389.370, 5.2373512E-03
2391.299, 4.7661909E-03
2393.227, 5.1352698E-03
2395.156, 6.7136711E-03
2397.084, 6.2621641E-03
2399.012, 5.8116410E-03
2400.941, 6.3933362E-03
2402.869, 6.5506049E-03
2404.798, 6.3468469E-03
2406.726, 5.8944821E-03
2408.655, 5.5638528E-03
2410.583, 5.6956690E-03
2412.512, 5.8576060E-03
2414.440, 5.7808771E-03
2416.369, 5.9711589E-03
2418.297, 5.6784460E-03
2420.226, 5.3727692E-03
2422.154, 5.7117920E-03
2424.083, 5.6176591E-03
2426.011, 5.3116870E-03
2427.939, 5.0868751E-03
2429.868, 6.3286130E-03
2431.796, 6.9973189E-03
2433.725, 6.3338722E-03
2435.653, 6.6696210E-03
2437.582, 7.3343520E-03
2439.510, 6.6970210E-03
2441.439, 6.7137131E-03
2443.367, 7.8361891E-03
2445.296, 7.1069589E-03
2447.224, 6.4987959E-03
2449.153, 7.1837730E-03
2451.081, 7.0904992E-03
2453.010, 6.6715921E-03
2454.938, 6.3196071E-03
2456.866, 7.0088990E-03
2458.795, 6.6689630E-03
2460.723, 5.2059488E-03
2462.652, 5.5811261E-03
2464.580, 6.4304401E-03
2466.509, 6.3753729E-03
2468.437, 5.3973449E-03
2470.366, 4.8087500E-03
2472.294, 5.9746690E-03
2474.223, 7.2215688E-03
2476.151, 6.5965820E-03
2478.080, 5.3095850E-03
2480.008, 5.1473342E-03
2481.937, 4.9394928E-03
2483.865, 5.2549080E-03
2485.793, 5.4623638E-03
2487.722, 6.8155201E-03
2489.650, 7.3478241E-03
2491.579, 7.3032291E-03
2493.507, 7.1805441E-03
2495.436, 6.7675100E-03
2497.364, 5.4904521E-03
2499.293, 5.8190119E-03
2501.221, 6.1685061E-03
2503.150, 6.2299832E-03
2505.078, 6.4550261E-03
2507.007, 7.0970040E-03
2508.935, 6.4004082E-03
2510.864, 6.1409138E-03
2512.792, 5.9864731E-03
2514.720, 6.2245899E-03
2516.649, 6.8222708E-03
2518.577, 6.8626851E-03
2520.506, 6.3951472E-03
2522.434, 7.2225360E-03
2524.363, 8.0590462E-03
2526.291, 6.7581190E-03
2528.220, 5.7793218E-03
2530.148, 6.6441088E-03
2532.077, 6.1532259E-03
2534.005, 5.5816388E-03
2535.934, 6.8364171E-03
2537.862, 7.0304880E-03
2539.791, 5.4160999E-03
2541.719, 4.2324490E-03
2543.647, 5.8322130E-03
2545.576, 6.2101190E-03
2547.504, 6.4889500E-03
2549.433, 7.3616598E-03
2551.361, 6.4827879E-03
2553.290, 5.2378052E-03
2555.218, 6.5249498E-03
2557.147, 7.9472726E-03
2559.075, 7.8544617E-03
2561.004, 6.5084840E-03
2562.932, 4.9588261E-03
2564.861, 4.9465941E-03
2566.789, 6.8536201E-03
2568.718, 7.5349910E-03
2570.646, 5.8847829E-03
2572.574, 5.4729911E-03
2574.503, 6.4447210E-03
2576.431, 6.5581682E-03
2578.360, 6.4955349E-03
2580.288, 7.1178190E-03
2582.217, 6.7903078E-03
2584.145, 5.9848060E-03
2586.074, 5.7424079E-03
2588.002, 6.4930879E-03
2589.931, 6.8475460E-03
2591.859, 7.2750621E-03
2593.788, 7.1573062E-03
2595.716, 6.7852261E-03
2597.645, 5.8953660E-03
2599.573, 5.9099612E-03
2601.501, 5.4864581E-03
2603.430, 6.5909689E-03
2605.358, 6.8859900E-03
2607.287, 5.9452141E-03
2609.215, 7.2892350E-03
2611.144, 8.1193587E-03
2613.072, 6.3776551E-03
2615.001, 6.3542170E-03
2616.929, 6.3441680E-03
2618.858, 6.1055040E-03
2620.786, 6.4345570E-03
2622.715, 6.7706499E-03
2624.643, 7.2865589E-03
2626.572, 7.4756849E-03
2628.500, 7.2878008E-03
2630.428, 7.9911333E-03
2632.357, 8.1435060E-03
2634.285, 6.2645092E-03
2636.214, 5.8041411E-03
2638.142, 7.0104562E-03
2640.071, 6.8180081E-03
2641.999, 6.0921279E-03
2643.928, 6.2225219E-03
2645.856, 6.1947140E-03
2647.785, 6.4807278E-03
2649.713, 6.7397570E-03
2651.642, 5.4522739E-03
2653.570, 4.7877831E-03
2655.499, 5.2987891E-03
2657.427, 5.8696959E-03
2659.355, 6.1139008E-03
2661.284, 6.4109080E-03
2663.212, 6.0264319E-03
2665.141, 6.1592511E-03
2667.069, 6.6475552E-03
2668.998, 6.0689482E-03
2670.926, 5.7363911E-03
2672.855, 6.1059408E-03
2674.783, 5.9353788E-03
2676.712, 5.3613428E-03
2678.640, 5.3172358E-03
2680.569, 5.3296299E-03
2682.497, 5.8291280E-03
2684.426, 5.8963420E-03
2686.354, 5.5107721E-03
2688.282, 6.4795292E-03
2690.211, 6.7303372E-03
2692.139, 5.6463270E-03
2694.068, 5.4407679E-03
2695.996, 5.7538771E-03
2697.925, 5.9336298E-03
2699.853, 6.2034102E-03
2701.782, 5.9176390E-03
2703.710, 5.5692298E-03
2705.639, 6.2190741E-03
2707.567, 6.2678261E-03
2709.496, 6.0756900E-03
2711.424, 5.7101152E-03
2713.353, 6.1138440E-03
2715.281, 6.4286948E-03
2717.209, 5.8246530E-03
2719.138, 5.6921840E-03
2721.066, 6.2162089E-03
2722.995, 6.7811459E-03
2724.923, 7.7320430E-03
2726.852, 7.9250224E-03
2728.780, 7.4316449E-03
2730.709, 7.1521299E-03
2732.637, 7.1230219E-03
2734.566, 6.3787620E-03
2736.494, 6.1861472E-03
2738.423, 6.9439509E-03
2740.351, 6.3852291E-03
2742.280, 5.2218540E-03
2744.208, 5.4099830E-03
2746.136, 6.6259089E-03
2748.065, 7.1691028E-03
2749.993, 7.9658106E-03
2751.922, 7.8661172E-03
2753.850, 7.3918491E-03
2755.779, 6.9111362E-03
2757.707, 6.7048380E-03
2759.636, 6.7464551E-03
2761.564, 6.7388709E-03
2763.493, 6.8531889E-03
2765.421, 7.7233589E-03
2767.350, 7.3295529E-03
2769.278, 7.0298561E-03
2771.207, 7.5649871E-03
2773.135, 6.2306700E-03
2775.063, 6.8316688E-03
2776.992, 7.7605732E-03
2778.920, 7.4459300E-03
2780.849, 7.3533249E-03
2782.777, 6.7686439E-03
2784.706, 6.1290460E-03
2786.634, 7.0107151E-03
2788.563, 7.1814740E-03
2790.491, 7.0561739E-03
2792.420, 6.9818860E-03
2794.348, 7.1146111E-03
2796.277, 6.4799539E-03
2798.205, 5.9094871E-03
2800.134, 5.4516792E-03
2802.062, 5.8804150E-03
2803.990, 6.5054349E-03
2805.919, 7.2982069E-03
2807.847, 7.5718788E-03
2809.776, 7.8225322E-03
2811.704, 7.7860132E-03
2813.633, 7.3794271E-03
2815.561, 6.5253722E-03
2817.490, 6.2041748E-03
2819.418, 6.0811942E-03
2821.347, 7.0570940E-03
2823.275, 8.7485742E-03
2825.204, 9.1625238E-03
2827.132, 8.1364587E-03
2829.061, 7.3586758E-03
2830.989, 7.8929169E-03
2832.917, 8.4824665E-03
2834.846, 7.1162428E-03
2836.774, 6.5112850E-03
2838.703, 6.8255630E-03
2840.631, 5.5725761E-03
2842.560, 5.2308012E-03
2844.488, 6.4125750E-03
2846.417, 7.0057339E-03
2848.345, 7.0952061E-03
2850.274, 7.5982399E-03
2852.202, 8.9605050E-03
2854.131, 7.7923490E-03
2856.059, 6.5509011E-03
2857.988, 7.5922031E-03
2859.916, 9.1749858E-03
2861.844, 9.5452601E-03
2863.773, 8.6739352E-03
2865.701, 6.6852081E-03
2867.630, 5.1029022E-03
2869.558, 4.2514158E-03
2871.487, 4.6821218E-03
2873.415, 6.1208722E-03
2875.344, 6.1616502E-03
2877.272, 5.7770051E-03
2879.201, 5.9219771E-03
2881.129, 6.2702610E-03
2883.058, 6.0204170E-03
2884.986, 5.7704062E-03
2886.915, 5.7842219E-03
2888.843, 5.7095271E-03
2890.771, 5.6288210E-03
2892.700, 5.1046368E-03
2894.628, 6.0503250E-03
2896.557, 6.6874740E-03
2898.485, 6.6502132E-03
2900.414, 6.5402570E-03
2902.342, 6.0066991E-03
2904.271, 5.4173642E-03
2906.199, 5.6984671E-03
2908.128, 6.6486970E-03
2910.056, 7.1783750E-03
2911.985, 8.9548007E-03
2913.913, 1.0744470E-02
2915.842, 9.4777057E-03
2917.770, 8.2297400E-03
2919.698, 1.0191760E-02
2921.627, 1.0218090E-02
2923.555, 8.5530877E-03
2925.484, 8.0148261E-03
2927.412, 7.8038760E-03
2929.341, 7.3346230E-03
2931.269, 6.8641300E-03
2933.198, 7.7331588E-03
2935.126, 8.1074256E-03
2937.055, 7.7008582E-03
2938.983, 8.3416188E-03
2940.912, 9.0955310E-03
2942.840, 9.3196463E-03
2944.769, 8.6649908E-03
2946.697, 6.9503430E-03
2948.625, 5.1808180E-03
2950.554, 5.6652431E-03
2952.482, 7.5821462E-03
2954.411, 9.0814847E-03
2956.339, 1.0250880E-02
2958.268, 1.1266820E-02
2960.196, 1.0644970E-02
2962.125, 1.0012100E-02
2964.053, 1.0193940E-02
2965.982, 9.8852860E-03
2967.910, 1.0591020E-02
2969.839, 1.0093990E-02
2971.767, 9.2548029E-03
2973.696, 7.7236211E-03
2975.624, 7.2206212E-03
2977.552, 7.7230618E-03
2979.481, 7.6671029E-03
2981.409, 6.8709021E-03
2983.338, 7.9938434E-03
2985.266, 9.6792784E-03
2987.195, 9.8282378E-03
2989.123, 1.0003600E-02
2991.052, 8.1625059E-03
2992.980, 8.2575791E-03
2994.909, 8.1933122E-03
2996.837, 8.1628785E-03
2998.766, 1.0012560E-02
3000.694, 1.0589390E-02
3002.623, 1.2120940E-02
3004.551, 1.3505490E-02
3006.479, 1.1738390E-02
3008.408, 9.7786495E-03
3010.336, 1.0846510E-02
3012.265, 1.1042510E-02
3014.193, 9.1094729E-03
3016.122, 7.6842541E-03
3018.050, 7.9967426E-03
3019.979, 9.3794968E-03
3021.907, 1.1090770E-02
3023.836, 9.9666473E-03
3025.764, 1.0199610E-02
3027.693, 1.0495730E-02
3029.621, 9.9283587E-03
3031.550, 7.9728151E-03
3033.478, 6.4938678E-03
3035.406, 9.1972016E-03
3037.335, 1.0863880E-02
3039.263, 1.0166140E-02
3041.192, 1.0439750E-02
3043.120, 1.0733730E-02
3045.049, 9.4433278E-03
3046.977, 8.4199337E-03
3048.906, 8.5459091E-03
3050.834, 9.2204884E-03
3052.763, 8.8685621E-03
3054.691, 9.5921252E-03
3056.620, 1.1397410E-02
3058.548, 1.1933980E-02
3060.477, 1.1441960E-02
3062.405, 9.6215438E-03
3064.333, 7.1677580E-03
3066.262, 7.0594759E-03
3068.190, 8.9680068E-03
3070.119, 8.8131139E-03
3072.047, 8.3353240E-03
3073.976, 9.6992385E-03
3075.904, 9.8784259E-03
3077.833, 9.1019636E-03
3079.761, 9.4925407E-03
3081.690, 1.1100100E-02
3083.618, 1.0419160E-02
3085.547, 9.3909791E-03
3087.475, 9.3855783E-03
3089.404, 1.0417990E-02
3091.332, 1.0517610E-02
3093.260, 9.5660137E-03
3095.189, 9.0449592E-03
3097.117, 1.0594960E-02
3099.046, 1.2288920E-02
3100.974, 1.1971900E-02
3102.903, 1.2367000E-02
3104.831, 1.1235750E-02
3106.760, 9.2253452E-03
3108.688, 8.2938746E-03
3110.617, 9.8888148E-03
3112.545, 1.1209590E-02
3114.474, 1.1599420E-02
3116.402, 1.0061770E-02
3118.331, 7.9126526E-03
3120.259, 7.8247059E-03
3122.188, 8.7279892E-03
3124.116, 9.4959177E-03
3126.044, 1.0907870E-02
3127.973, 1.1900790E-02
3129.901, 1.0400930E-02
3131.830, 1.0274600E-02
3133.758, 1.0881600E-02
3135.687, 1.1047090E-02
3137.615, 9.8384041E-03
3139.544, 8.5222377E-03
3141.472, 9.3883350E-03
3143.401, 1.0517040E-02
3145.329, 1.0069210E-02
3147.258, 8.3883293E-03
3149.186, 8.2472228E-03
3151.115, 8.7379618E-03
3153.043, 8.4838429E-03
3154.971, 9.9607520E-03
3156.900, 1.0393520E-02
3158.828, 1.0712080E-02
3160.757, 1.0682410E-02
3162.685, 9.2676096E-03
3164.614, 9.8096430E-03
3166.542, 1.0671190E-02
3168.471, 9.7269677E-03
3170.399, 1.0199830E-02
3172.328, 1.0554580E-02
3174.256, 1.0673550E-02
3176.185, 1.0087090E-02
3178.113, 9.7731128E-03
3180.042, 1.0104960E-02
3181.970, 9.3000252E-03
3183.898, 9.2143258E-03
3185.827, 1.0380060E-02
3187.755, 9.8860571E-03
3189.684, 8.0458177E-03
3191.612, 7.4192188E-03
3193.541, 7.3275352E-03
3195.469, 7.7115758E-03
3197.398, 8.5624661E-03
3199.326, 9.5537538E-03
3201.255, 9.0836817E-03
3203.183, 7.9685301E-03
3205.112, 7.3296358E-03
3207.040, 8.4288800E-03
3208.969, 9.7147720E-03
3210.897, 8.9026662E-03
3212.825, 8.0021536E-03
3214.754, 8.6989757E-03
3216.682, 9.5620118E-03
3218.611, 6.9366680E-03
3220.539, 7.2540012E-03
3222.468, 1.0300870E-02
3224.396, 9.9594472E-03
3226.325, 9.1940947E-03
3228.253, 9.6573671E-03
3230.182, 8.7085217E-03
3232.110, 8.2218843E-03
3234.039, 7.4523441E-03
3235.967, 5.9655351E-03
3237.896, 7.3694489E-03
3239.824, 9.7076539E-03
3241.752, 9.8636700E-03
3243.681, 7.8884466E-03
3245.609, 6.5822839E-03
3247.538, 6.5798168E-03
3249.466, 6.7819082E-03
3251.395, 7.9472922E-03
3253.323, 9.6980659E-03
3255.252, 9.4346153E-03
3257.180, 8.4067043E-03
3259.109, 7.7055390E-03
3261.037, 8.1750499E-03
3262.966, 8.2909130E-03
3264.894, 9.1255438E-03
3266.823, 1.0836360E-02
3268.751, 1.0708740E-02
3270.679, 9.8694023E-03
3272.608, 1.0173560E-02
3274.536, 1.0350910E-02
3276.465, 1.0503010E-02
3278.393, 1.1050430E-02
3280.322, 1.0240020E-02
3282.250, 1.0889390E-02
3284.179, 1.1961790E-02
3286.107, 1.0982610E-02
3288.036, 1.0026000E-02
3289.964, 1.1109870E-02
3291.893, 1.1041630E-02
3293.821, 9.5710093E-03
3295.750, 1.0064590E-02
3297.678, 1.0107670E-02
3299.606, 9.3747554E-03
3301.535, 1.0488270E-02
3303.463, 9.3977209E-03
3305.392, 9.2424862E-03
3307.320, 9.6061528E-03
3309.249, 8.6404784E-03
3311.177, 9.0934820E-03
3313.106, 1.0752960E-02
3315.034, 9.3483822E-03
3316.963, 8.6026834E-03
3318.891, 1.0184980E-02
3320.820, 1.0395920E-02
3322.748, 9.9861678E-03
3324.677, 1.0004050E-02
3326.605, 1.0824200E-02
3328.533, 1.0992600E-02
3330.462, 1.2457240E-02
3332.390, 1.3270000E-02
3334.319, 1.1082740E-02
3336.247, 8.0987792E-03
3338.176, 8.2358262E-03
3340.104, 8.7037850E-03
3342.033, 9.0311300E-03
3343.961, 9.6288119E-03
3345.890, 1.0041200E-02
3347.818, 1.0252530E-02
3349.747, 9.4724130E-03
3351.675, 8.1788907E-03
3353.604, 1.0164160E-02
3355.532, 1.1850620E-02
3357.460, 9.6721612E-03
3359.389, 7.5200922E-03
3361.317, 7.1292799E-03
3363.246, 8.7979455E-03
3365.174, 9.1291200E-03
3367.103, 9.2484178E-03
3369.031, 1.0011630E-02
3370.960, 1.0501470E-02
3372.888, 1.1141230E-02
3374.817, 1.2241850E-02
3376.745, 1.2642540E-02
3378.674, 1.1998030E-02
3380.602, 1.0568170E-02
3382.531, 9.6786087E-03
3384.459, 8.7288907E-03
3386.387, 8.8133300E-03
3388.316, 1.1301240E-02
3390.244, 1.1884540E-02
3392.173, 1.0367190E-02
3394.101, 8.2728090E-03
3396.030, 8.5178753E-03
3397.958, 1.0810800E-02
3399.887, 1.0661480E-02
3401.815, 8.3694831E-03
3403.744, 7.2712861E-03
3405.672, 8.3191684E-03
3407.601, 8.9850826E-03
3409.529, 8.8882186E-03
3411.458, 8.2902191E-03
3413.386, 1.0376220E-02
3415.314, 1.0580040E-02
3417.243, 8.2792277E-03
3419.171, 8.4242634E-03
3421.100, 1.0278560E-02
3423.028, 1.1278390E-02
3424.957, 1.0714380E-02
3426.885, 1.1273710E-02
3428.814, 1.1915180E-02
3430.742, 1.2069590E-02
3432.671, 1.0663240E-02
3434.599, 8.7747546E-03
3436.528, 1.0356440E-02
3438.456, 1.1637720E-02
3440.385, 1.0357500E-02
3442.313, 9.4220554E-03
3444.241, 1.0537480E-02
3446.170, 1.0868040E-02
3448.098, 1.2449040E-02
3450.027, 1.2183530E-02
3451.955, 1.0579850E-02
3453.884, 1.0783080E-02
3455.812, 1.0643800E-02
3457.741, 1.0241100E-02
3459.669, 1.1081620E-02
3461.598, 1.0580870E-02
3463.526, 1.1513240E-02
3465.455, 1.2834770E-02
3467.383, 1.2651080E-02
3469.312, 1.2199720E-02
3471.240, 1.2056230E-02
3473.168, 1.1807860E-02
3475.097, 1.2179780E-02
3477.025, 1.1632650E-02
3478.954, 1.1072680E-02
3480.882, 1.1517940E-02
3482.811, 1.2124800E-02
3484.739, 1.2531030E-02
3486.668, 1.3169340E-02
3488.596, 1.3199830E-02
3490.525, 1.1988330E-02
3492.453, 1.2933130E-02
3494.382, 1.3774150E-02
3496.310, 1.2045450E-02
3498.239, 1.1202130E-02
3500.167, 1.3404830E-02
3502.095, 1.5462490E-02
3504.024, 1.4639190E-02
3505.952, 1.3101690E-02
3507.881, 1.2206930E-02
3509.809, 1.1363140E-02
3511.738, 1.3388810E-02
3513.666, 1.3723760E-02
3515.595, 1.3030220E-02
3517.523, 1.2882210E-02
3519.452, 1.4597920E-02
3521.380, 1.4817380E-02
3523.309, 1.3266410E-02
3525.237, 1.1439330E-02
3527.166, 1.2625970E-02
3529.094, 1.4862710E-02
3531.022, 1.4255460E-02
3532.951, 1.4563030E-02
3534.879, 1.4221850E-02
3536.808, 1.4552540E-02
3538.736, 1.6015571E-02
3540.665, 1.3255080E-02
3542.593, 1.0208330E-02
3544.522, 1.2760930E-02
3546.450, 1.7554089E-02
3548.379, 1.7277781E-02
3550.307, 1.2702400E-02
3552.236, 9.6895266E-03
3554.164, 8.0392016E-03
3556.093, 1.1036080E-02
3558.021, 1.3860130E-02
3559.949, 1.4187360E-02
3561.878, 1.4719200E-02
3563.806, 1.5072930E-02
3565.735, 1.4535010E-02
3567.663, 1.6452899E-02
3569.592, 1.5415240E-02
3571.520, 1.1785540E-02
3573.449, 1.0757030E-02
3575.377, 1.1758990E-02
3577.306, 1.1900540E-02
3579.234, 1.2216380E-02
3581.163, 1.2959610E-02
3583.091, 1.2386310E-02
3585.020, 1.1333680E-02
3586.948, 1.0546480E-02
3588.876, 1.2995070E-02
3590.805, 1.4706140E-02
3592.733, 1.7181510E-02
3594.662, 2.0251309E-02
3596.590, 1.5165380E-02
3598.519, 1.3578580E-02
3600.447, 1.5068170E-02
3602.376, 1.4360890E-02
3604.304, 1.6516989E-02
3606.233, 1.5669299E-02
3608.161, 1.2110170E-02
3610.090, 1.4865060E-02
3612.018, 1.7582690E-02
3613.947, 1.4206180E-02
3615.875, 1.4119590E-02
3617.803, 1.5558180E-02
3619.732, 1.3257860E-02
3621.660, 1.3126120E-02
3623.589, 1.4102220E-02
3625.517, 1.1990830E-02
3627.446, 1.3245150E-02
3629.374, 1.5333240E-02
3631.303, 1.6038440E-02
3633.231, 1.6025919E-02
3635.160, 1.6781701E-02
3637.088, 1.7613331E-02
3639.017, 1.5358880E-02
3640.945, 1.2350530E-02
3642.874, 1.2334080E-02
3644.802, 1.5753450E-02
3646.730, 2.0680280E-02
3648.659, 1.7037580E-02
3650.587, 1.1986240E-02
3652.516, 1.3958990E-02
3654.444, 1.9739840E-02
3656.373, 1.8778911E-02
3658.301, 1.3492280E-02
3660.230, 1.4114250E-02
3662.158, 1.3241580E-02
3664.087, 1.3132870E-02
3666.015, 1.3184970E-02
3667.944, 1.4490680E-02
3669.872, 1.5365710E-02
3671.801, 1.3703910E-02
3673.729, 1.4076660E-02
3675.657, 1.3422900E-02
3677.586, 1.2954830E-02
3679.514, 1.2265860E-02
3681.443, 1.2482370E-02
3683.371, 1.3009290E-02
3685.300, 1.4291620E-02
3687.228, 1.7209280E-02
3689.157, 1.6528361E-02
3691.085, 1.8150629E-02
3693.014, 2.0679200E-02
3694.942, 2.0746680E-02
3696.871, 1.5775239E-02
3698.799, 1.2363370E-02
3700.728, 1.5890270E-02
3702.656, 1.8049089E-02
3704.584, 1.5282660E-02
3706.513, 1.4489750E-02
3708.441, 1.5498550E-02
3710.370, 1.3086550E-02
3712.298, 1.2862850E-02
3714.227, 1.3272130E-02
3716.155, 1.4883690E-02
3718.084, 1.7084960E-02
3720.012, 1.6531480E-02
3721.941, 1.4378220E-02
3723.869, 1.1913340E-02
3725.798, 1.0378010E-02
3727.726, 9.4768004E-03
3729.655, 1.1442910E-02
3731.583, 1.3256610E-02
3733.511, 1.3901540E-02
3735.440, 1.3450510E-02
3737.368, 1.4377970E-02
3739.297, 1.3093400E-02
3741.225, 1.0817640E-02
3743.154, 1.3348980E-02
3745.082, 1.4600710E-02
3747.011, 1.4209530E-02
3748.939, 1.2044100E-02
3750.868, 1.3385640E-02
3752.796, 1.4570940E-02
3754.725, 1.4275430E-02
3756.653, 1.5452600E-02
3758.582, 1.4445260E-02
3760.510, 1.6005279E-02
3762.438, 1.6043831E-02
3764.367, 1.3801450E-02
3766.295, 1.5603630E-02
3768.224, 1.7141109E-02
3770.152, 1.4489980E-02
3772.081, 1.1409840E-02
3774.009, 1.0736210E-02
3775.938, 1.0007910E-02
3777.866, 6.3544549E-03
3779.795, 5.2082120E-03
3781.723, 1.0445770E-02
3783.652, 1.3656600E-02
3785.580, 1.0709790E-02
3787.509, 1.1248760E-02
3789.437, 1.3677360E-02
3791.365, 1.1406940E-02
3793.294, 1.1615130E-02
3795.222, 1.5304950E-02
3797.151, 1.4543230E-02
3799.079, 1.2277720E-02
3801.008, 1.0402830E-02
3802.936, 1.1327440E-02
3804.865, 1.2614610E-02
3806.793, 1.4486760E-02
3808.722, 1.2772370E-02
3810.650, 9.0445923E-03
3812.579, 1.0322000E-02
3814.507, 1.1137690E-02
3816.436, 1.1273180E-02
3818.364, 1.1428680E-02
3820.292, 1.1839940E-02
3822.221, 1.3888660E-02
3824.149, 1.4408760E-02
3826.078, 1.1810760E-02
3828.006, 1.0534290E-02
3829.935, 1.2171740E-02
3831.863, 1.4212690E-02
3833.792, 1.4706500E-02
3835.720, 1.4390820E-02
3837.649, 1.3390870E-02
3839.577, 1.0337490E-02
3841.506, 9.3192840E-03
3843.434, 1.1754810E-02
3845.363, 1.3182250E-02
3847.291, 1.4893460E-02
3849.219, 1.7005561E-02
3851.148, 1.6673921E-02
3853.076, 1.5016330E-02
3855.005, 1.3537580E-02
3856.933, 1.0937380E-02
3858.862, 9.2209894E-03
3860.790, 1.0764330E-02
3862.719, 1.1312730E-02
3864.647, 1.1599190E-02
3866.576, 1.3122610E-02
3868.504, 1.4685910E-02
3870.433, 1.4080780E-02
3872.361, 1.3141730E-02
3874.290, 1.1406330E-02
3876.218, 1.2057380E-02
3878.146, 1.3320280E-02
3880.075, 1.0587660E-02
3882.003, 1.1991690E-02
3883.932, 1.5097240E-02
3885.860, 1.3939700E-02
3887.789, 1.3722580E-02
3889.717, 1.1762030E-02
3891.646, 1.1839020E-02
3893.574, 1.0593730E-02
3895.503, 1.1805000E-02
3897.431, 1.3036280E-02
3899.360, 1.4035280E-02
3901.288, 1.4790680E-02
3903.217, 1.6665559E-02
3905.145, 1.8204780E-02
3907.073, 1.7772060E-02
3909.002, 1.7516989E-02
3910.930, 1.5630970E-02
3912.859, 1.2472890E-02
3914.787, 1.0239680E-02
3916.716, 1.2555000E-02
3918.644, 1.4187050E-02
3920.573, 1.6152561E-02
3922.501, 1.5609530E-02
3924.430, 1.2579330E-02
3926.358, 1.1921560E-02
3928.287, 1.4179960E-02
3930.215, 1.5841451E-02
3932.144, 1.8082149E-02
3934.072, 1.7471820E-02
3936.000, 1.4283420E-02
3937.929, 1.3415280E-02
3939.857, 1.5370340E-02
3941.786, 1.6229941E-02
3943.714, 1.2808470E-02
3945.643, 9.5302397E-03
3947.571, 1.1742310E-02
3949.500, 1.3709130E-02
3951.428, 1.1599820E-02
3953.357, 1.1082660E-02
3955.285, 1.5151270E-02
3957.214, 1.6315170E-02
3959.142, 1.8320721E-02
3961.071, 1.7807210E-02
3962.999, 1.7750870E-02
3964.927, 1.6261039E-02
3966.856, 1.5297830E-02
3968.784, 1.5615360E-02
3970.713, 1.6188210E-02
3972.641, 1.7879970E-02
3974.570, 1.8224010E-02
3976.498, 1.4201600E-02
3978.427, 1.2110590E-02
3980.355, 1.3246000E-02
3982.284, 1.7193710E-02
3984.212, 1.5927849E-02
3986.141, 1.3943500E-02
3988.069, 1.5682301E-02
3989.998, 1.4090670E-02
3991.926, 1.5814930E-02
3993.854, 1.9959791E-02
3995.783, 1.7265370E-02
3997.711, 1.4139140E-02
3999.640, 1.4145960E-02
##END=



