##NAMES=Andalusite
##RRUFFID=R050626
##IDEAL CHEMISTRY=Al_2_SiO_5_
##LOCALITY=Minas Gerais, Brazil
##OWNER=RRUFF
##SOURCE=Gemological Center
##DESCRIPTION=Grayish brown fragment
##STATUS=The identification of this mineral has been confirmed by X-ray diffraction and chemical analysis
##URL=rruff.info/R050626
##MEASURED CHEMISTRY=(Al_1.99_Fe^3+^_0.01_)_Î£=1_Si_1.00_O_5_
399.1926, 0.1662776
401.1211, 0.1757203
403.0496, 0.1765651
404.9780, 0.1788096
406.9065, 0.1768879
408.8350, 0.1767371
410.7634, 0.1835024
412.6919, 0.1887865
414.6204, 0.1913124
416.5488, 0.1915417
418.4773, 0.1899466
420.4058, 0.1857812
422.3342, 0.1853349
424.2627, 0.1904492
426.1912, 0.1956586
428.1196, 0.1958858
430.0481, 0.1929932
431.9766, 0.1930757
433.9050, 0.1924445
435.8335, 0.1886458
437.7620, 0.1857312
439.6904, 0.1810707
441.6189, 0.1764352
443.5474, 0.1724850
445.4758, 0.1704643
447.4043, 0.1696591
449.3328, 0.1680321
451.2612, 0.1638941
453.1897, 0.1597926
455.1182, 0.1535864
457.0466, 0.1427366
458.9751, 0.1290900
460.9036, 0.1148282
462.8320, 0.1016338
464.7605, 9.3357787E-02
466.6890, 9.0982758E-02
468.6174, 9.0787843E-02
470.5459, 9.1885202E-02
472.4744, 9.4359443E-02
474.4028, 9.6803300E-02
476.3313, 9.7631112E-02
478.2598, 9.9205859E-02
480.1882, 0.1011673
482.1167, 0.1025225
484.0452, 0.1030044
485.9736, 0.1028173
487.9021, 0.1032408
489.8306, 0.1029811
491.7590, 0.1010198
493.6875, 9.8783493E-02
495.6160, 9.6355133E-02
497.5444, 9.3510032E-02
499.4729, 9.1171779E-02
501.4014, 8.8657252E-02
503.3298, 8.6112902E-02
505.2583, 8.4651724E-02
507.1868, 8.7162398E-02
509.1152, 9.4028749E-02
511.0437, 0.1059578
512.9722, 0.1234089
514.9006, 0.1414016
516.8291, 0.1522918
518.7576, 0.1505255
520.6860, 0.1398727
522.6145, 0.1274462
524.5430, 0.1177357
526.4714, 0.1117099
528.3999, 0.1075452
530.3284, 0.1037951
532.2568, 0.1012057
534.1853, 9.9203698E-02
536.1138, 9.7731508E-02
538.0422, 9.6088551E-02
539.9707, 9.3718760E-02
541.8992, 9.1880307E-02
543.8276, 9.0633258E-02
545.7561, 8.9883007E-02
547.6846, 9.1042884E-02
549.6130, 9.3282670E-02
551.5415, 9.5744923E-02
553.4700, 9.8975658E-02
555.3984, 0.1030224
557.3269, 0.1073447
559.2554, 0.1110316
561.1838, 0.1118758
563.1123, 0.1092005
565.0408, 0.1079190
566.9692, 0.1098235
568.8977, 0.1122484
570.8262, 0.1158474
572.7546, 0.1202788
574.6831, 0.1236753
576.6116, 0.1270702
578.5400, 0.1302558
580.4685, 0.1326578
582.3970, 0.1344424
584.3254, 0.1365117
586.2539, 0.1381160
588.1824, 0.1385976
590.1108, 0.1393161
592.0393, 0.1405755
593.9678, 0.1411163
595.8962, 0.1413385
597.8247, 0.1413172
599.7532, 0.1412875
601.6816, 0.1413527
603.6101, 0.1419117
605.5386, 0.1422310
607.4670, 0.1419127
609.3955, 0.1416313
611.3240, 0.1415317
613.2524, 0.1409007
615.1809, 0.1397802
617.1094, 0.1388831
619.0378, 0.1379164
620.9663, 0.1372107
622.8948, 0.1359763
624.8232, 0.1349006
626.7517, 0.1343842
628.6802, 0.1335157
630.6086, 0.1326922
632.5371, 0.1319740
634.4656, 0.1304448
636.3940, 0.1292363
638.3225, 0.1288197
640.2510, 0.1279955
642.1794, 0.1268946
644.1079, 0.1255841
646.0364, 0.1243324
647.9648, 0.1231728
649.8933, 0.1222406
651.8218, 0.1209599
653.7502, 0.1196369
655.6787, 0.1183109
657.6072, 0.1168204
659.5356, 0.1150948
661.4641, 0.1138022
663.3926, 0.1134250
665.3210, 0.1140109
667.2495, 0.1149521
669.1780, 0.1162340
671.1064, 0.1175572
673.0349, 0.1182247
674.9634, 0.1168381
676.8918, 0.1142655
678.8203, 0.1119860
680.7488, 0.1098779
682.6772, 0.1085940
684.6057, 0.1077507
686.5342, 0.1063639
688.4626, 0.1051067
690.3911, 0.1045628
692.3196, 0.1040768
694.2480, 0.1033020
696.1765, 0.1021082
698.1050, 0.1012321
700.0334, 0.1004457
701.9619, 9.8914579E-02
703.8904, 9.7588427E-02
705.8188, 9.6452832E-02
707.7473, 9.4971642E-02
709.6758, 9.3199663E-02
711.6042, 9.1780059E-02
713.5327, 9.0191543E-02
715.4612, 8.9080527E-02
717.3896, 8.8157900E-02
719.3181, 8.6684689E-02
721.2466, 8.5267007E-02
723.1750, 8.3668321E-02
725.1035, 8.2193948E-02
727.0320, 8.1019387E-02
728.9604, 7.9787463E-02
730.8889, 7.8281187E-02
732.8174, 7.6308310E-02
734.7458, 7.3232397E-02
736.6743, 6.9768801E-02
738.6028, 6.5872043E-02
740.5313, 6.1488830E-02
742.4597, 5.6557171E-02
744.3882, 5.1275011E-02
746.3167, 4.6204571E-02
748.2451, 4.1592348E-02
750.1736, 3.7723899E-02
752.1021, 3.4645289E-02
754.0305, 3.2609958E-02
755.9590, 3.1418361E-02
757.8875, 3.0714869E-02
759.8159, 3.0678179E-02
761.7444, 3.1675778E-02
763.6729, 3.3645131E-02
765.6013, 3.6164969E-02
767.5298, 3.9608091E-02
769.4583, 4.4074070E-02
771.3867, 4.8849270E-02
773.3152, 5.2506730E-02
775.2437, 5.3060640E-02
777.1721, 5.0119601E-02
779.1006, 4.4793669E-02
781.0291, 3.9187148E-02
782.9575, 3.4390122E-02
784.8860, 3.0948060E-02
786.8145, 2.9453591E-02
788.7429, 2.9058060E-02
790.6714, 2.8591899E-02
792.5999, 2.8493591E-02
794.5283, 2.8435931E-02
796.4568, 2.8089561E-02
798.3853, 2.8148569E-02
800.3137, 2.8734030E-02
802.2422, 2.9379079E-02
804.1707, 3.0468900E-02
806.0991, 3.2058530E-02
808.0276, 3.3338021E-02
809.9561, 3.4921121E-02
811.8845, 3.6489610E-02
813.8130, 3.8343020E-02
815.7415, 4.0994059E-02
817.6699, 4.3335531E-02
819.5984, 4.5480710E-02
821.5269, 4.7741849E-02
823.4553, 5.0148621E-02
825.3838, 5.2759901E-02
827.3123, 5.5767719E-02
829.2407, 5.9241161E-02
831.1692, 6.2810920E-02
833.0977, 6.6160031E-02
835.0261, 6.9814250E-02
836.9546, 7.3823288E-02
838.8831, 7.7632181E-02
840.8115, 8.1880070E-02
842.7400, 8.6619772E-02
844.6685, 9.1071203E-02
846.5969, 9.5257953E-02
848.5254, 9.9936113E-02
850.4539, 0.1054685
852.3823, 0.1109880
854.3108, 0.1162047
856.2393, 0.1215145
858.1677, 0.1263435
860.0962, 0.1308541
862.0247, 0.1355645
863.9531, 0.1396921
865.8816, 0.1432895
867.8101, 0.1460000
869.7385, 0.1479902
871.6670, 0.1494855
873.5955, 0.1503998
875.5239, 0.1513458
877.4524, 0.1528252
879.3809, 0.1543552
881.3093, 0.1552135
883.2378, 0.1556628
885.1663, 0.1563310
887.0947, 0.1569507
889.0232, 0.1572271
890.9517, 0.1568569
892.8801, 0.1562958
894.8085, 0.1557662
896.7370, 0.1549735
898.6655, 0.1536759
900.5939, 0.1522614
902.5224, 0.1510375
904.4509, 0.1496201
906.3793, 0.1485687
908.3078, 0.1475690
910.2363, 0.1462659
912.1647, 0.1457117
914.0932, 0.1469739
916.0217, 0.1492651
917.9501, 0.1529813
919.8786, 0.1581733
921.8071, 0.1645483
923.7355, 0.1713848
925.6640, 0.1772140
927.5925, 0.1802828
929.5209, 0.1801118
931.4494, 0.1780966
933.3779, 0.1751894
935.3063, 0.1715913
937.2348, 0.1682938
939.1633, 0.1651672
941.0917, 0.1622841
943.0202, 0.1595744
944.9487, 0.1567215
946.8771, 0.1542912
948.8056, 0.1520953
950.7341, 0.1500054
952.6625, 0.1480188
954.5910, 0.1461747
956.5195, 0.1444849
958.4479, 0.1427891
960.3764, 0.1415060
962.3049, 0.1408151
964.2333, 0.1414628
966.1618, 0.1430525
968.0903, 0.1446035
970.0187, 0.1447476
971.9472, 0.1424314
973.8757, 0.1382820
975.8041, 0.1335379
977.7326, 0.1284835
979.6611, 0.1238003
981.5895, 0.1196284
983.5180, 0.1155442
985.4465, 0.1117554
987.3749, 0.1081989
989.3034, 0.1047348
991.2319, 0.1014461
993.1603, 9.8152362E-02
995.0888, 9.4739653E-02
997.0173, 9.1669083E-02
998.9457, 8.8793859E-02
1000.874, 8.5522458E-02
1002.803, 8.2510203E-02
1004.731, 7.9912178E-02
1006.660, 7.6755583E-02
1008.588, 7.4072398E-02
1010.517, 7.1595259E-02
1012.445, 6.8677217E-02
1014.373, 6.5908171E-02
1016.302, 6.3416883E-02
1018.230, 6.0862862E-02
1020.159, 5.8507461E-02
1022.087, 5.6518141E-02
1024.016, 5.4541629E-02
1025.944, 5.2507579E-02
1027.873, 5.0522629E-02
1029.801, 4.8847660E-02
1031.730, 4.7183309E-02
1033.658, 4.5248669E-02
1035.587, 4.3342471E-02
1037.515, 4.1554678E-02
1039.444, 3.9678689E-02
1041.372, 3.7988119E-02
1043.301, 3.6430780E-02
1045.229, 3.4900520E-02
1047.157, 3.3230022E-02
1049.086, 3.2026321E-02
1051.014, 3.0983711E-02
1052.943, 2.9586520E-02
1054.871, 2.8012469E-02
1056.800, 2.6609451E-02
1058.728, 2.5370140E-02
1060.657, 2.4061710E-02
1062.585, 2.2854390E-02
1064.514, 2.1580029E-02
1066.442, 2.0543970E-02
1068.371, 1.9626969E-02
1070.299, 1.8654071E-02
1072.228, 1.7698940E-02
1074.156, 1.6712699E-02
1076.084, 1.5645340E-02
1078.013, 1.4823650E-02
1079.941, 1.4065390E-02
1081.870, 1.3415030E-02
1083.798, 1.2846110E-02
1085.727, 1.2230110E-02
1087.655, 1.1640240E-02
1089.584, 1.1018790E-02
1091.512, 1.0615440E-02
1093.441, 1.0265640E-02
1095.369, 9.9515282E-03
1097.298, 9.6023800E-03
1099.226, 9.1518601E-03
1101.155, 8.6656800E-03
1103.083, 8.6035226E-03
1105.011, 8.6990912E-03
1106.940, 8.6626224E-03
1108.868, 8.6208917E-03
1110.797, 8.3531430E-03
1112.725, 7.9819774E-03
1114.654, 7.8673400E-03
1116.582, 7.6998142E-03
1118.511, 7.5101238E-03
1120.439, 7.3258118E-03
1122.368, 7.0690918E-03
1124.296, 6.7531611E-03
1126.225, 6.4648329E-03
1128.153, 6.3157831E-03
1130.082, 6.4202370E-03
1132.010, 6.0301321E-03
1133.938, 5.8658142E-03
1135.867, 5.9164311E-03
1137.795, 5.6695328E-03
1139.724, 5.6005339E-03
1141.652, 5.3917579E-03
1143.581, 4.9037910E-03
1145.509, 4.6761450E-03
1147.438, 4.6501299E-03
1149.366, 4.4932952E-03
1151.295, 4.4594188E-03
1153.223, 4.3747541E-03
1155.152, 4.2326311E-03
1157.080, 4.0708431E-03
1159.009, 3.8434560E-03
1160.937, 3.7496239E-03
1162.865, 3.6811330E-03
1164.794, 3.5210680E-03
1166.722, 3.6337280E-03
1168.651, 3.7861250E-03
1170.579, 3.7359891E-03
1172.508, 3.5664900E-03
1174.436, 3.5114631E-03
1176.365, 3.5278650E-03
1178.293, 3.6115311E-03
1180.222, 3.4775750E-03
1182.150, 3.2897410E-03
1184.079, 3.2871710E-03
1186.007, 3.2493791E-03
1187.936, 3.2173111E-03
1189.864, 3.1842920E-03
1191.792, 3.0181131E-03
1193.721, 2.9477701E-03
1195.649, 2.9392249E-03
1197.578, 2.9005900E-03
1199.506, 2.7522510E-03
1201.435, 2.5998640E-03
1203.363, 2.5950610E-03
1205.292, 2.8926090E-03
1207.220, 2.8846869E-03
1209.149, 2.6489701E-03
1211.077, 2.4935890E-03
1213.006, 2.4073930E-03
1214.934, 2.4358891E-03
1216.863, 2.4184911E-03
1218.791, 2.1346069E-03
1220.719, 1.8293110E-03
1222.648, 1.8430949E-03
1224.576, 2.0699480E-03
1226.505, 2.2623381E-03
1228.433, 2.4268490E-03
1230.362, 2.2396480E-03
1232.290, 2.0484750E-03
1234.219, 2.0758600E-03
1236.147, 1.8560881E-03
1238.076, 1.8876350E-03
1240.004, 2.1408219E-03
1241.933, 2.1943499E-03
1243.861, 2.0503739E-03
1245.790, 1.8491100E-03
1247.718, 1.6633800E-03
1249.646, 1.5575190E-03
1251.575, 1.4920949E-03
1253.503, 1.5976070E-03
1255.432, 1.5891760E-03
1257.360, 1.5886510E-03
1259.289, 1.6028880E-03
1261.217, 1.6025350E-03
1263.146, 1.7694290E-03
1265.074, 1.8613311E-03
1267.003, 1.9574370E-03
1268.931, 2.0372160E-03
1270.860, 1.9035180E-03
1272.788, 1.6268810E-03
1274.717, 1.8060610E-03
1276.645, 2.1223770E-03
1278.573, 2.3462980E-03
1280.502, 2.1025110E-03
1282.430, 1.6632850E-03
1284.359, 1.6304030E-03
1286.287, 1.7073170E-03
1288.216, 1.7566750E-03
1290.144, 1.6669440E-03
1292.073, 1.5241060E-03
1294.001, 1.6795821E-03
1295.930, 1.8169041E-03
1297.858, 1.8510590E-03
1299.787, 1.9326720E-03
1301.715, 1.8711870E-03
1303.644, 1.7159260E-03
1305.572, 1.6850120E-03
1307.500, 1.8469481E-03
1309.429, 1.8668660E-03
1311.357, 1.8051880E-03
1313.286, 1.6767679E-03
1315.214, 1.8153060E-03
1317.143, 2.1212769E-03
1319.071, 2.0128360E-03
1321.000, 1.8539840E-03
1322.928, 1.8131130E-03
1324.857, 2.0544829E-03
1326.785, 2.2025551E-03
1328.714, 2.2073919E-03
1330.642, 2.0024411E-03
1332.571, 2.0016220E-03
1334.499, 1.9699989E-03
1336.427, 1.8815449E-03
1338.356, 1.8831480E-03
1340.284, 2.0866080E-03
1342.213, 2.1502250E-03
1344.141, 2.0803211E-03
1346.070, 2.1173251E-03
1347.998, 1.9907339E-03
1349.927, 1.8008950E-03
1351.855, 1.6448851E-03
1353.784, 1.5657300E-03
1355.712, 1.7463900E-03
1357.641, 1.8455250E-03
1359.569, 1.8471520E-03
1361.498, 1.7221720E-03
1363.426, 1.5872089E-03
1365.354, 1.5271310E-03
1367.283, 1.6143210E-03
1369.211, 1.9347570E-03
1371.140, 2.0379019E-03
1373.068, 1.5448360E-03
1374.997, 9.8858681E-04
1376.925, 1.0483330E-03
1378.854, 1.0558430E-03
1380.782, 1.0176770E-03
1382.711, 1.2770240E-03
1384.639, 1.3718220E-03
1386.568, 1.5228990E-03
1388.496, 1.6866080E-03
1390.424, 1.7080310E-03
1392.353, 1.7667070E-03
1394.281, 1.9119240E-03
1396.210, 2.1557540E-03
1398.138, 1.9545311E-03
1400.067, 1.8216730E-03
1401.995, 1.7472610E-03
1403.924, 1.9915539E-03
1405.852, 2.0808470E-03
1407.781, 1.8779821E-03
1409.709, 2.0089450E-03
1411.638, 2.3108320E-03
1413.566, 2.0238869E-03
1415.495, 1.6048430E-03
1417.423, 1.6059460E-03
1419.351, 1.7551670E-03
1421.280, 1.8000110E-03
1423.208, 1.6925040E-03
1425.137, 1.7645000E-03
1427.065, 1.9860039E-03
1428.994, 2.1863210E-03
1430.922, 2.2518421E-03
1432.851, 1.8842340E-03
1434.779, 1.7173230E-03
1436.708, 1.6836399E-03
1438.636, 1.7141970E-03
1440.565, 1.7951860E-03
1442.493, 1.5423500E-03
1444.422, 1.3591500E-03
1446.350, 1.4456430E-03
1448.278, 1.5142370E-03
1450.207, 1.6284930E-03
1452.135, 1.5154240E-03
1454.064, 1.4648460E-03
1455.992, 1.5619590E-03
1457.921, 1.5490639E-03
1459.849, 1.4805160E-03
1461.778, 1.3705310E-03
1463.706, 1.4439840E-03
1465.635, 1.4846800E-03
1467.563, 1.5314760E-03
1469.492, 1.6690900E-03
1471.420, 1.9006740E-03
1473.349, 2.2517331E-03
1475.277, 2.4804180E-03
1477.205, 2.7123790E-03
1479.134, 2.8692500E-03
1481.062, 2.7206929E-03
1482.991, 2.6204700E-03
1484.919, 2.7893949E-03
1486.848, 2.9840840E-03
1488.776, 2.7894571E-03
1490.705, 2.7097859E-03
1492.633, 2.8181900E-03
1494.562, 3.0783240E-03
1496.490, 3.1505050E-03
1498.419, 3.0712041E-03
1500.347, 3.0806500E-03
1502.276, 3.0686059E-03
1504.204, 3.0617800E-03
1506.132, 3.1024581E-03
1508.061, 2.8355760E-03
1509.989, 2.9896151E-03
1511.918, 3.5077529E-03
1513.846, 3.7126101E-03
1515.775, 3.4762081E-03
1517.703, 3.1918280E-03
1519.632, 3.0510440E-03
1521.560, 2.9965709E-03
1523.489, 3.2817610E-03
1525.417, 3.6541261E-03
1527.346, 3.5379501E-03
1529.274, 3.5028360E-03
1531.203, 3.4983789E-03
1533.131, 3.2867061E-03
1535.059, 3.2359450E-03
1536.988, 3.3069500E-03
1538.916, 3.4109300E-03
1540.845, 3.6155700E-03
1542.773, 3.9276122E-03
1544.702, 3.8992120E-03
1546.630, 3.6488799E-03
1548.559, 3.4802139E-03
1550.487, 3.4360080E-03
1552.416, 3.3879101E-03
1554.344, 3.4053689E-03
1556.273, 3.4244170E-03
1558.201, 3.3570020E-03
1560.130, 3.4856410E-03
1562.058, 3.6575410E-03
1563.986, 3.7977940E-03
1565.915, 3.7990329E-03
1567.843, 3.7717940E-03
1569.772, 3.6291149E-03
1571.700, 3.6179191E-03
1573.629, 3.6568500E-03
1575.557, 3.6381860E-03
1577.486, 3.6529391E-03
1579.414, 3.4315779E-03
1581.343, 3.3046589E-03
1583.271, 3.5057589E-03
1585.200, 3.8022450E-03
1587.128, 3.6226120E-03
1589.057, 3.1810170E-03
1590.985, 3.2482189E-03
1592.913, 3.2829661E-03
1594.842, 3.2823221E-03
1596.770, 3.5087429E-03
1598.699, 3.4677810E-03
1600.627, 3.3640380E-03
1602.556, 3.4645130E-03
1604.484, 3.3261499E-03
1606.413, 3.2670971E-03
1608.341, 3.3942810E-03
1610.270, 3.6278050E-03
1612.198, 3.7699479E-03
1614.127, 3.6345050E-03
1616.055, 3.6575249E-03
1617.984, 3.8320960E-03
1619.912, 3.5577600E-03
1621.840, 3.4159119E-03
1623.769, 3.5826149E-03
1625.697, 3.6843300E-03
1627.626, 3.6821400E-03
1629.554, 3.9357268E-03
1631.483, 3.7393391E-03
1633.411, 3.3502809E-03
1635.340, 3.3700790E-03
1637.268, 3.3821759E-03
1639.197, 3.2258439E-03
1641.125, 3.5252720E-03
1643.054, 3.8770770E-03
1644.982, 4.0384880E-03
1646.911, 4.0790592E-03
1648.839, 3.5800550E-03
1650.767, 3.1091231E-03
1652.696, 3.3586950E-03
1654.624, 3.7817969E-03
1656.553, 4.1033272E-03
1658.481, 4.0031611E-03
1660.410, 3.6545000E-03
1662.338, 3.3024820E-03
1664.267, 3.6645411E-03
1666.195, 4.1098879E-03
1668.124, 3.8592699E-03
1670.052, 3.7975900E-03
1671.981, 3.8743201E-03
1673.909, 3.7060641E-03
1675.838, 3.5855509E-03
1677.766, 3.5831970E-03
1679.694, 3.7198239E-03
1681.623, 3.6629420E-03
1683.551, 3.4016741E-03
1685.480, 3.6158341E-03
1687.408, 3.6822860E-03
1689.337, 3.4245551E-03
1691.265, 3.3785270E-03
1693.194, 3.3714459E-03
1695.122, 3.5599850E-03
1697.051, 3.1426460E-03
1698.979, 2.8431411E-03
1700.908, 2.6655749E-03
1702.836, 2.4651680E-03
1704.765, 2.3083820E-03
1706.693, 2.0109729E-03
1708.621, 1.6854290E-03
1710.550, 1.3830831E-03
1712.478, 1.5686780E-03
1714.407, 1.8028500E-03
1716.335, 1.6823231E-03
1718.264, 1.7484670E-03
1720.192, 1.8630431E-03
1722.121, 2.1269389E-03
1724.049, 2.1038291E-03
1725.978, 2.1781020E-03
1727.906, 2.0731690E-03
1729.835, 1.3723180E-03
1731.763, 8.6200167E-04
1733.692, 5.4183631E-04
1735.620, 8.6495792E-04
1737.548, 4.2667150E-04
1739.477, 2.5387120E-04
1741.405, 3.0690979E-04
1743.334, -3.6216970E-05
1745.262, 1.6459520E-04
1747.191, 3.0318039E-04
1749.119, 3.6242360E-04
1751.048, 6.8574899E-04
1752.976, 1.2250300E-03
1754.905, 1.6302090E-03
1756.833, 2.3867700E-03
1758.762, 2.7954860E-03
1760.690, 2.5315380E-03
1762.619, 2.4055270E-03
1764.547, 3.0097980E-03
1766.475, 3.3833701E-03
1768.404, 3.1240340E-03
1770.332, 3.2736971E-03
1772.261, 3.8617279E-03
1774.189, 3.7535061E-03
1776.118, 3.4854240E-03
1778.046, 3.1645531E-03
1779.975, 3.0668441E-03
1781.903, 3.0908550E-03
1783.832, 3.3178921E-03
1785.760, 3.3164280E-03
1787.689, 2.9559140E-03
1789.617, 2.8692880E-03
1791.546, 3.1553800E-03
1793.474, 3.5925531E-03
1795.402, 3.8621719E-03
1797.331, 3.7781079E-03
1799.259, 3.9352369E-03
1801.188, 4.0449700E-03
1803.116, 4.4776052E-03
1805.045, 4.7307378E-03
1806.973, 4.4195028E-03
1808.902, 4.0024710E-03
1810.830, 3.8872189E-03
1812.759, 3.6273811E-03
1814.687, 3.1172959E-03
1816.616, 3.4160470E-03
1818.544, 4.2912988E-03
1820.473, 4.4720531E-03
1822.401, 3.7540561E-03
1824.329, 3.7258391E-03
1826.258, 3.3886000E-03
1828.186, 3.6023890E-03
1830.115, 4.2869002E-03
1832.043, 4.0151160E-03
1833.972, 3.3651381E-03
1835.900, 3.4481571E-03
1837.829, 3.9460319E-03
1839.757, 3.5586290E-03
1841.686, 3.4028860E-03
1843.614, 3.4239951E-03
1845.543, 3.6958701E-03
1847.471, 3.7148600E-03
1849.400, 3.6686889E-03
1851.328, 3.3028631E-03
1853.256, 2.9065469E-03
1855.185, 3.2775251E-03
1857.113, 3.7429039E-03
1859.042, 4.1913022E-03
1860.970, 4.4772238E-03
1862.899, 4.1398150E-03
1864.827, 3.2856259E-03
1866.756, 3.3644231E-03
1868.684, 3.6713670E-03
1870.613, 3.8522480E-03
1872.541, 3.5931261E-03
1874.470, 3.2193051E-03
1876.398, 3.3808020E-03
1878.327, 3.8221111E-03
1880.255, 3.8329831E-03
1882.183, 3.0548191E-03
1884.112, 2.9189130E-03
1886.040, 2.7046211E-03
1887.969, 3.0085151E-03
1889.897, 3.2182650E-03
1891.826, 2.7325391E-03
1893.754, 3.1334970E-03
1895.683, 3.2727639E-03
1897.611, 2.5920919E-03
1899.540, 2.1226541E-03
1901.468, 2.2995439E-03
1903.397, 3.7886661E-03
1905.325, 3.7157049E-03
1907.254, 2.9350410E-03
1909.182, 2.7057549E-03
1911.110, 2.4770179E-03
1913.039, 2.7510959E-03
1914.967, 2.8070910E-03
1916.896, 2.8895200E-03
1918.824, 3.5327729E-03
1920.753, 3.0681670E-03
1922.681, 1.5297120E-03
1924.610, 1.1309620E-03
1926.538, 1.5755650E-03
1928.467, 1.8750720E-03
1930.395, 1.9972820E-03
1932.324, 1.5108930E-03
1934.252, 8.6834980E-04
1936.181, 4.7031240E-04
1938.109, 1.8451680E-04
1940.037, -7.6832512E-04
1941.966, -2.6846971E-04
1943.894, -1.3672940E-04
1945.823, -5.5074209E-04
1947.751, 1.4276760E-04
1949.680, 1.1915590E-03
1951.608, 1.5408070E-03
1953.537, 1.4744380E-03
1955.465, 8.6282589E-04
1957.394, -8.0742328E-05
1959.322, -3.3427359E-04
1961.251, 8.1932428E-04
1963.179, 1.6129600E-03
1965.108, 2.3723270E-03
1967.036, 7.0875551E-04
1968.964, -1.0912860E-03
1970.893, 8.0557290E-04
1972.821, 2.8581859E-03
1974.750, 1.8990240E-03
1976.678, 1.9625169E-03
1978.607, 3.8113340E-03
1980.535, 4.7687730E-03
1982.464, 3.5374099E-03
1984.392, 2.0518971E-03
1986.321, 1.4827000E-03
1988.249, 1.6499930E-03
1990.178, 1.8188960E-03
1992.106, 1.9537529E-03
1994.035, 2.5848949E-03
1995.963, 2.4432009E-03
1997.891, 2.0954511E-03
1999.820, 1.4109380E-03
2001.748, 1.2013310E-03
2003.677, 1.6111140E-03
2005.605, 2.7012790E-03
2007.534, 3.2150671E-03
2009.462, 1.2774370E-03
2011.391, -4.9456948E-04
2013.319, -4.6704119E-04
2015.248, 1.6703240E-03
2017.176, 3.9481330E-03
2019.105, 2.8017401E-03
2021.033, -2.9111549E-04
2022.962, -1.0821850E-03
2024.890, 1.3893810E-03
2026.818, 3.6237689E-03
2028.747, 4.0234509E-03
2030.675, 3.9757048E-03
2032.604, 4.0555932E-03
2034.532, 6.0003358E-03
2036.461, 6.2557920E-03
2038.389, 3.3070550E-03
2040.318, 2.3275490E-03
2042.246, 4.0691211E-03
2044.175, 5.3343610E-03
2046.103, 4.5451000E-03
2048.032, 4.5730518E-03
2049.960, 5.8642221E-03
2051.889, 6.4915651E-03
2053.817, 5.6184120E-03
2055.746, 4.8514451E-03
2057.674, 4.7330940E-03
2059.603, 3.9520692E-03
2061.531, 3.7736990E-03
2063.459, 4.6746461E-03
2065.388, 4.2872578E-03
2067.316, 4.4603841E-03
2069.245, 3.7816910E-03
2071.173, 2.7992961E-03
2073.102, 3.6544460E-03
2075.030, 4.3997811E-03
2076.959, 5.3784419E-03
2078.887, 5.5745691E-03
2080.816, 5.2801692E-03
2082.744, 5.8295010E-03
2084.673, 4.8050568E-03
2086.601, 4.5074122E-03
2088.530, 5.6704059E-03
2090.458, 5.9648720E-03
2092.386, 4.5923050E-03
2094.315, 4.2174142E-03
2096.243, 4.6103331E-03
2098.172, 4.3367990E-03
2100.100, 5.2572251E-03
2102.029, 5.9187389E-03
2103.957, 6.0169329E-03
2105.886, 5.4366440E-03
2107.814, 4.9729901E-03
2109.743, 6.0701398E-03
2111.671, 6.3429521E-03
2113.600, 6.5704789E-03
2115.528, 5.9194979E-03
2117.457, 4.7759558E-03
2119.385, 4.2353761E-03
2121.313, 4.5779459E-03
2123.242, 3.8784670E-03
2125.170, 4.5939130E-03
2127.099, 5.0855982E-03
2129.027, 3.7667721E-03
2130.956, 2.0236950E-03
2132.884, 1.7135910E-03
2134.813, 3.2467551E-03
2136.741, 4.8198798E-03
2138.670, 4.0255669E-03
2140.598, 2.6786420E-03
2142.527, 2.0909610E-03
2144.455, 3.5116579E-03
2146.384, 4.3174801E-03
2148.312, 4.2976169E-03
2150.240, 4.5368429E-03
2152.169, 3.8923521E-03
2154.097, 2.5113060E-03
2156.026, -1.4310920E-03
2157.954, 1.9170620E-03
2159.883, 1.0164670E-02
2161.811, 8.4846364E-03
2163.740, 5.8920621E-03
2165.668, 5.8673471E-03
2167.597, 8.3447983E-03
2169.525, 1.1179070E-02
2171.454, 9.9561550E-03
2173.382, 9.7324289E-03
2175.311, 9.8452093E-03
2177.239, 7.3994938E-03
2179.167, 4.5726281E-03
2181.096, 5.2850428E-03
2183.024, 6.7947488E-03
2184.953, 7.0451279E-03
2186.881, 8.9648562E-03
2188.810, 1.0093860E-02
2190.738, 9.1067851E-03
2192.667, 6.8500810E-03
2194.595, 6.6183950E-03
2196.524, 7.0825838E-03
2198.452, 6.3896850E-03
2200.381, 6.4363931E-03
2202.309, 6.8631531E-03
2204.238, 6.0997270E-03
2206.166, 6.6755940E-03
2208.094, 8.1552425E-03
2210.023, 1.0764830E-02
2211.951, 1.0626740E-02
2213.880, 9.5392736E-03
2215.808, 1.0554630E-02
2217.737, 8.6129317E-03
2219.665, 7.1931388E-03
2221.594, 8.4440317E-03
2223.522, 9.0061100E-03
2225.451, 7.9068281E-03
2227.379, 7.7848132E-03
2229.308, 7.6672821E-03
2231.236, 8.3463714E-03
2233.165, 8.9282123E-03
2235.093, 9.4974767E-03
2237.021, 9.4838897E-03
2238.950, 8.5364934E-03
2240.878, 8.1520267E-03
2242.807, 7.5030280E-03
2244.735, 7.0692338E-03
2246.664, 7.4436180E-03
2248.592, 7.3276409E-03
2250.521, 7.0955660E-03
2252.449, 6.8799010E-03
2254.378, 6.6266041E-03
2256.306, 7.4462602E-03
2258.235, 7.9271263E-03
2260.163, 8.4001943E-03
2262.092, 8.8415332E-03
2264.020, 7.5523732E-03
2265.948, 6.2845522E-03
2267.877, 7.3456671E-03
2269.805, 8.4084207E-03
2271.734, 9.1857351E-03
2273.662, 9.6857119E-03
2275.591, 1.0105790E-02
2277.519, 1.0562210E-02
2279.448, 9.1252970E-03
2281.376, 7.2294730E-03
2283.305, 9.2165619E-03
2285.233, 1.1462480E-02
2287.162, 1.1330030E-02
2289.090, 9.6528614E-03
2291.019, 8.2007833E-03
2292.947, 8.9630522E-03
2294.875, 9.5057450E-03
2296.804, 8.7558459E-03
2298.732, 8.0451760E-03
2300.661, 8.7303296E-03
2302.589, 9.4734598E-03
2304.518, 9.5413681E-03
2306.446, 9.0463581E-03
2308.375, 8.7655438E-03
2310.303, 8.4720543E-03
2312.232, 8.7366765E-03
2314.160, 9.3317460E-03
2316.089, 9.9609978E-03
2318.017, 9.5792711E-03
2319.946, 8.9326277E-03
2321.874, 1.0148520E-02
2323.802, 1.2071730E-02
2325.731, 1.0716170E-02
2327.659, 9.0731392E-03
2329.588, 8.8140927E-03
2331.516, 8.5830344E-03
2333.445, 8.2910666E-03
2335.373, 8.6612273E-03
2337.302, 8.8096084E-03
2339.230, 8.8153919E-03
2341.159, 8.5847341E-03
2343.087, 8.3513930E-03
2345.016, 8.3206641E-03
2346.944, 8.0777491E-03
2348.873, 7.9814699E-03
2350.801, 8.4556956E-03
2352.729, 8.6951684E-03
2354.658, 8.4876632E-03
2356.586, 8.9604314E-03
2358.515, 8.9158146E-03
2360.443, 9.0504466E-03
2362.372, 9.3221860E-03
2364.300, 8.2001844E-03
2366.229, 7.5517530E-03
2368.157, 7.9517867E-03
2370.086, 7.6201530E-03
2372.014, 7.4971430E-03
2373.942, 7.6813670E-03
2375.871, 8.0576586E-03
2377.799, 8.3102211E-03
2379.728, 8.1006996E-03
2381.656, 8.4618134E-03
2383.585, 8.1179682E-03
2385.513, 7.6449900E-03
2387.442, 7.3860711E-03
2389.370, 6.9963061E-03
2391.299, 7.3451782E-03
2393.227, 7.2290809E-03
2395.156, 6.7012100E-03
2397.084, 7.0850230E-03
2399.012, 7.8314412E-03
2400.941, 8.0674002E-03
2402.869, 8.2567520E-03
2404.798, 7.9815146E-03
2406.726, 8.0289794E-03
2408.655, 8.7399222E-03
2410.583, 9.2069181E-03
2412.512, 8.9276396E-03
2414.440, 7.7678361E-03
2416.369, 7.0914011E-03
2418.297, 7.5580361E-03
2420.226, 8.4235761E-03
2422.154, 8.1908470E-03
2424.083, 8.3425166E-03
2426.011, 8.8202469E-03
2427.939, 8.1903040E-03
2429.868, 7.9894383E-03
2431.796, 9.1314726E-03
2433.725, 8.6199781E-03
2435.653, 6.7974590E-03
2437.582, 8.3768442E-03
2439.510, 1.0519810E-02
2441.439, 9.8878574E-03
2443.367, 8.6561702E-03
2445.296, 9.5387120E-03
2447.224, 9.4150072E-03
2449.153, 8.3781658E-03
2451.081, 8.4143141E-03
2453.010, 8.5292412E-03
2454.938, 9.8815272E-03
2456.866, 9.7087091E-03
2458.795, 8.9245690E-03
2460.723, 9.0835178E-03
2462.652, 9.3377130E-03
2464.580, 8.5963095E-03
2466.509, 8.3221421E-03
2468.437, 8.7571088E-03
2470.366, 8.0843279E-03
2472.294, 7.3974719E-03
2474.223, 7.8261346E-03
2476.151, 8.5273357E-03
2478.080, 8.1860162E-03
2480.008, 8.9823417E-03
2481.937, 9.5752701E-03
2483.865, 8.1234463E-03
2485.793, 8.3688656E-03
2487.722, 8.8231964E-03
2489.650, 8.8226348E-03
2491.579, 8.0879536E-03
2493.507, 7.9326583E-03
2495.436, 9.1311038E-03
2497.364, 8.8103432E-03
2499.293, 6.9898181E-03
2501.221, 6.6208430E-03
2503.150, 7.4279150E-03
2505.078, 7.6247002E-03
2507.007, 6.8018162E-03
2508.935, 6.2355190E-03
2510.864, 6.4224820E-03
2512.792, 7.1098632E-03
2514.720, 7.7341842E-03
2516.649, 7.6050851E-03
2518.577, 8.3773136E-03
2520.506, 9.1346623E-03
2522.434, 8.8855587E-03
2524.363, 8.5926224E-03
2526.291, 9.1303065E-03
2528.220, 1.0756920E-02
2530.148, 1.0494160E-02
2532.077, 9.3704341E-03
2534.005, 9.6813617E-03
2535.934, 9.0063028E-03
2537.862, 8.7508736E-03
2539.791, 8.1643369E-03
2541.719, 7.0182891E-03
2543.647, 8.3074151E-03
2545.576, 9.8909112E-03
2547.504, 8.8930316E-03
2549.433, 8.4003592E-03
2551.361, 8.9416066E-03
2553.290, 7.4212579E-03
2555.218, 7.3221158E-03
2557.147, 8.5888514E-03
2559.075, 8.7944474E-03
2561.004, 9.3208794E-03
2562.932, 1.0078910E-02
2564.861, 9.4597023E-03
2566.789, 9.2126112E-03
2568.718, 8.8649886E-03
2570.646, 8.5226102E-03
2572.574, 8.3104270E-03
2574.503, 8.6144796E-03
2576.431, 8.5193394E-03
2578.360, 8.3599295E-03
2580.288, 7.6504480E-03
2582.217, 7.5651989E-03
2584.145, 8.8600619E-03
2586.074, 9.1475733E-03
2588.002, 8.6711431E-03
2589.931, 8.1860758E-03
2591.859, 7.8078038E-03
2593.788, 7.8606065E-03
2595.716, 8.1893746E-03
2597.645, 8.9974403E-03
2599.573, 9.3990648E-03
2601.501, 9.3154712E-03
2603.430, 8.7174447E-03
2605.358, 9.1530383E-03
2607.287, 1.0106630E-02
2609.215, 9.9885073E-03
2611.144, 9.9572232E-03
2613.072, 8.9681428E-03
2615.001, 8.2147829E-03
2616.929, 9.1929892E-03
2618.858, 9.3320394E-03
2620.786, 8.4280269E-03
2622.715, 8.4059509E-03
2624.643, 9.1810739E-03
2626.572, 8.9832461E-03
2628.500, 7.8835422E-03
2630.428, 8.1851184E-03
2632.357, 8.6709559E-03
2634.285, 8.5482942E-03
2636.214, 8.6899977E-03
2638.142, 9.8717446E-03
2640.071, 1.0553530E-02
2641.999, 9.8681645E-03
2643.928, 9.2688454E-03
2645.856, 9.0678474E-03
2647.785, 9.0413848E-03
2649.713, 9.6211657E-03
2651.642, 9.9024083E-03
2653.570, 9.7262291E-03
2655.499, 9.3188109E-03
2657.427, 8.7253237E-03
2659.355, 8.7067084E-03
2661.284, 9.1085443E-03
2663.212, 9.4053959E-03
2665.141, 9.2001613E-03
2667.069, 8.8736331E-03
2668.998, 8.3163567E-03
2670.926, 7.8162747E-03
2672.855, 8.0931773E-03
2674.783, 9.2924982E-03
2676.712, 9.6115237E-03
2678.640, 9.4549591E-03
2680.569, 9.4401864E-03
2682.497, 8.6865639E-03
2684.426, 8.3006443E-03
2686.354, 7.9807909E-03
2688.282, 7.9128910E-03
2690.211, 8.9408373E-03
2692.139, 8.8765072E-03
2694.068, 8.4701786E-03
2695.996, 9.1927778E-03
2697.925, 8.9734094E-03
2699.853, 8.1353812E-03
2701.782, 8.3576487E-03
2703.710, 7.9601360E-03
2705.639, 7.8478884E-03
2707.567, 8.4192324E-03
2709.496, 9.4255935E-03
2711.424, 9.8487046E-03
2713.353, 1.0554010E-02
2715.281, 1.0565280E-02
2717.209, 8.5494407E-03
2719.138, 7.4962792E-03
2721.066, 8.6020669E-03
2722.995, 9.6085574E-03
2724.923, 9.5749963E-03
2726.852, 9.1733821E-03
2728.780, 9.0075750E-03
2730.709, 9.0649594E-03
2732.637, 9.0921884E-03
2734.566, 8.7709250E-03
2736.494, 9.3327537E-03
2738.423, 9.7559793E-03
2740.351, 9.3423026E-03
2742.280, 8.9309458E-03
2744.208, 9.0469811E-03
2746.136, 9.7480109E-03
2748.065, 9.8085813E-03
2749.993, 8.6000720E-03
2751.922, 7.8458115E-03
2753.850, 8.8543706E-03
2755.779, 9.2655309E-03
2757.707, 9.9077551E-03
2759.636, 1.0542280E-02
2761.564, 1.0574120E-02
2763.493, 1.0008070E-02
2765.421, 9.1763549E-03
2767.350, 9.2508243E-03
2769.278, 9.2699965E-03
2771.207, 9.4572296E-03
2773.135, 9.6441256E-03
2775.063, 9.6817454E-03
2776.992, 9.4230026E-03
2778.920, 9.0949144E-03
2780.849, 9.4488366E-03
2782.777, 9.9533293E-03
2784.706, 9.0876929E-03
2786.634, 8.4214397E-03
2788.563, 7.6371720E-03
2790.491, 8.4405718E-03
2792.420, 8.5977251E-03
2794.348, 9.0382220E-03
2796.277, 9.5344270E-03
2798.205, 9.5314803E-03
2800.134, 9.5817056E-03
2802.062, 9.6705426E-03
2803.990, 1.0513180E-02
2805.919, 1.0583800E-02
2807.847, 1.0405010E-02
2809.776, 1.0723370E-02
2811.704, 1.0266670E-02
2813.633, 1.0113800E-02
2815.561, 9.9084619E-03
2817.490, 8.0418698E-03
2819.418, 8.5762516E-03
2821.347, 9.1231111E-03
2823.275, 9.2371898E-03
2825.204, 9.8388651E-03
2827.132, 9.9944947E-03
2829.061, 1.0105180E-02
2830.989, 1.0528520E-02
2832.917, 1.0388300E-02
2834.846, 9.6108206E-03
2836.774, 9.3391240E-03
2838.703, 1.0190750E-02
2840.631, 9.4183655E-03
2842.560, 8.9728152E-03
2844.488, 9.7175222E-03
2846.417, 9.6971747E-03
2848.345, 9.5727351E-03
2850.274, 9.9383518E-03
2852.202, 1.0433990E-02
2854.131, 1.0075470E-02
2856.059, 9.1014560E-03
2857.988, 9.5309708E-03
2859.916, 1.0850250E-02
2861.844, 1.0495530E-02
2863.773, 9.8638181E-03
2865.701, 1.0143130E-02
2867.630, 9.5098428E-03
2869.558, 8.8787396E-03
2871.487, 9.1475639E-03
2873.415, 9.2599532E-03
2875.344, 8.7478925E-03
2877.272, 9.0949750E-03
2879.201, 1.0102530E-02
2881.129, 1.0727460E-02
2883.058, 9.2621259E-03
2884.986, 8.5798856E-03
2886.915, 9.3316110E-03
2888.843, 9.3446970E-03
2890.771, 9.3812998E-03
2892.700, 9.6054059E-03
2894.628, 9.8650986E-03
2896.557, 9.8251104E-03
2898.485, 1.0103940E-02
2900.414, 1.0495700E-02
2902.342, 8.5853348E-03
2904.271, 7.3736920E-03
2906.199, 7.7493368E-03
2908.128, 8.4344521E-03
2910.056, 8.9491066E-03
2911.985, 1.0918560E-02
2913.913, 1.2604260E-02
2915.842, 1.1879390E-02
2917.770, 1.0526980E-02
2919.698, 1.0330830E-02
2921.627, 8.8887867E-03
2923.555, 8.1574712E-03
2925.484, 8.9887567E-03
2927.412, 8.8603999E-03
2929.341, 8.6134542E-03
2931.269, 8.8195382E-03
2933.198, 9.5226644E-03
2935.126, 9.0899561E-03
2937.055, 9.3015544E-03
2938.983, 8.6502880E-03
2940.912, 8.1474651E-03
2942.840, 8.6774379E-03
2944.769, 9.2117889E-03
2946.697, 8.6495262E-03
2948.625, 8.1329178E-03
2950.554, 7.7352468E-03
2952.482, 8.5034436E-03
2954.411, 9.7750276E-03
2956.339, 9.9080335E-03
2958.268, 1.1172180E-02
2960.196, 1.0625920E-02
2962.125, 9.5962035E-03
2964.053, 9.7496035E-03
2965.982, 9.3878834E-03
2967.910, 9.1600623E-03
2969.839, 9.8546734E-03
2971.767, 1.0281280E-02
2973.696, 9.2374310E-03
2975.624, 9.8260464E-03
2977.552, 1.0874110E-02
2979.481, 1.0901100E-02
2981.409, 1.0330180E-02
2983.338, 1.0484130E-02
2985.266, 1.1634920E-02
2987.195, 1.1676600E-02
2989.123, 1.1374420E-02
2991.052, 1.0583060E-02
2992.980, 9.5635066E-03
2994.909, 9.1436543E-03
2996.837, 9.4696796E-03
2998.766, 9.8000569E-03
3000.694, 1.0609980E-02
3002.623, 1.0444930E-02
3004.551, 1.0680760E-02
3006.479, 1.1089660E-02
3008.408, 1.1602380E-02
3010.336, 1.1199370E-02
3012.265, 1.0178300E-02
3014.193, 9.3722288E-03
3016.122, 9.4113909E-03
3018.050, 9.6721137E-03
3019.979, 1.0920900E-02
3021.907, 1.1846340E-02
3023.836, 1.0311090E-02
3025.764, 9.9217538E-03
3027.693, 1.1094680E-02
3029.621, 1.1873480E-02
3031.550, 1.0724120E-02
3033.478, 9.7637344E-03
3035.406, 9.6804984E-03
3037.335, 9.7569535E-03
3039.263, 1.0432690E-02
3041.192, 1.1146380E-02
3043.120, 1.1552390E-02
3045.049, 1.0560160E-02
3046.977, 1.1531470E-02
3048.906, 1.1940900E-02
3050.834, 9.7097196E-03
3052.763, 8.7207388E-03
3054.691, 8.9719649E-03
3056.620, 9.7480770E-03
3058.548, 1.0456490E-02
3060.477, 1.0698460E-02
3062.405, 1.1295550E-02
3064.333, 1.1133240E-02
3066.262, 1.0783460E-02
3068.190, 1.0659240E-02
3070.119, 1.0376100E-02
3072.047, 1.0650960E-02
3073.976, 1.0637340E-02
3075.904, 1.1352290E-02
3077.833, 1.0887160E-02
3079.761, 1.0686120E-02
3081.690, 1.1351130E-02
3083.618, 1.1575190E-02
3085.547, 1.0542210E-02
3087.475, 1.0800910E-02
3089.404, 1.1447680E-02
3091.332, 1.0653220E-02
3093.260, 1.0722630E-02
3095.189, 1.0769280E-02
3097.117, 1.1401240E-02
3099.046, 1.1983710E-02
3100.974, 1.1347760E-02
3102.903, 1.1754990E-02
3104.831, 1.1125910E-02
3106.760, 1.1458140E-02
3108.688, 1.1364250E-02
3110.617, 1.1055080E-02
3112.545, 1.1062260E-02
3114.474, 1.1942340E-02
3116.402, 1.0284730E-02
3118.331, 9.4492529E-03
3120.259, 1.1261870E-02
3122.188, 1.1298260E-02
3124.116, 1.0927010E-02
3126.044, 1.2040120E-02
3127.973, 1.3653000E-02
3129.901, 1.3457610E-02
3131.830, 1.3666440E-02
3133.758, 1.2856880E-02
3135.687, 1.1128150E-02
3137.615, 1.0061730E-02
3139.544, 1.0674490E-02
3141.472, 1.1751650E-02
3143.401, 1.1941360E-02
3145.329, 1.0947760E-02
3147.258, 1.0782960E-02
3149.186, 1.1999500E-02
3151.115, 1.3180820E-02
3153.043, 1.3181400E-02
3154.971, 1.2450400E-02
3156.900, 1.2222960E-02
3158.828, 1.2256090E-02
3160.757, 1.0879800E-02
3162.685, 1.1058410E-02
3164.614, 1.1565120E-02
3166.542, 1.2928010E-02
3168.471, 1.3856480E-02
3170.399, 1.2955740E-02
3172.328, 1.2387790E-02
3174.256, 1.1260250E-02
3176.185, 9.9404836E-03
3178.113, 1.0189010E-02
3180.042, 9.5174909E-03
3181.970, 8.8518541E-03
3183.898, 1.0167700E-02
3185.827, 1.1477220E-02
3187.755, 1.1988980E-02
3189.684, 1.2204990E-02
3191.612, 1.2055010E-02
3193.541, 1.1867400E-02
3195.469, 1.1440860E-02
3197.398, 1.1866130E-02
3199.326, 1.2885410E-02
3201.255, 1.3249940E-02
3203.183, 1.3195240E-02
3205.112, 1.1685380E-02
3207.040, 1.0875250E-02
3208.969, 1.0415290E-02
3210.897, 9.2891399E-03
3212.825, 9.4552627E-03
3214.754, 1.0406920E-02
3216.682, 1.0970460E-02
3218.611, 1.1581240E-02
3220.539, 1.1641870E-02
3222.468, 1.1280460E-02
3224.396, 1.1792210E-02
3226.325, 1.3240820E-02
3228.253, 1.3474000E-02
3230.182, 1.2795800E-02
3232.110, 1.3728540E-02
3234.039, 1.4199730E-02
3235.967, 1.3752610E-02
3237.896, 1.2006260E-02
3239.824, 1.0528530E-02
3241.752, 1.1210780E-02
3243.681, 1.1317340E-02
3245.609, 1.0932450E-02
3247.538, 9.9125896E-03
3249.466, 1.1074030E-02
3251.395, 1.2982360E-02
3253.323, 1.1221140E-02
3255.252, 1.1593890E-02
3257.180, 1.4241490E-02
3259.109, 1.4339590E-02
3261.037, 1.4442490E-02
3262.966, 1.5136790E-02
3264.894, 1.4126280E-02
3266.823, 1.3491490E-02
3268.751, 1.3062700E-02
3270.679, 1.1979400E-02
3272.608, 1.1919870E-02
3274.536, 1.0705940E-02
3276.465, 1.2223950E-02
3278.393, 1.2715170E-02
3280.322, 1.2142090E-02
3282.250, 1.2092740E-02
3284.179, 1.0189910E-02
3286.107, 1.0025270E-02
3288.036, 1.2359320E-02
3289.964, 1.4476230E-02
3291.893, 1.4096360E-02
3293.821, 1.2673260E-02
3295.750, 1.2865010E-02
3297.678, 1.2636070E-02
3299.606, 1.2441410E-02
3301.535, 1.2759670E-02
3303.463, 1.2008960E-02
3305.392, 1.2673250E-02
3307.320, 1.4175710E-02
3309.249, 1.3117200E-02
3311.177, 1.0811800E-02
3313.106, 1.0611730E-02
3315.034, 1.1996090E-02
3316.963, 1.1763270E-02
3318.891, 1.2086780E-02
3320.820, 1.2717200E-02
3322.748, 1.1995140E-02
3324.677, 1.2030430E-02
3326.605, 1.1062650E-02
3328.533, 1.0629920E-02
3330.462, 1.2949630E-02
3332.390, 1.5881211E-02
3334.319, 1.5196470E-02
3336.247, 1.2789660E-02
3338.176, 1.1102800E-02
3340.104, 1.1024570E-02
3342.033, 1.0629080E-02
3343.961, 1.1292430E-02
3345.890, 1.2082930E-02
3347.818, 1.2874750E-02
3349.747, 1.3386050E-02
3351.675, 1.1770270E-02
3353.604, 1.1274600E-02
3355.532, 1.1483900E-02
3357.460, 1.1885130E-02
3359.389, 1.2611240E-02
3361.317, 1.2138750E-02
3363.246, 1.2725990E-02
3365.174, 1.5076950E-02
3367.103, 1.7710440E-02
3369.031, 1.4880970E-02
3370.960, 1.3098300E-02
3372.888, 1.3750030E-02
3374.817, 1.2712700E-02
3376.745, 1.3063890E-02
3378.674, 1.1959540E-02
3380.602, 1.0864360E-02
3382.531, 1.2211970E-02
3384.459, 1.3224870E-02
3386.387, 1.3360920E-02
3388.316, 1.3993020E-02
3390.244, 1.5305160E-02
3392.173, 1.4711830E-02
3394.101, 1.2415800E-02
3396.030, 1.0000430E-02
3397.958, 9.4064763E-03
3399.887, 1.0190440E-02
3401.815, 1.1808740E-02
3403.744, 1.1292470E-02
3405.672, 1.1466250E-02
3407.601, 1.2522120E-02
3409.529, 1.1673140E-02
3411.458, 1.2943420E-02
3413.386, 1.2953140E-02
3415.314, 1.0316210E-02
3417.243, 1.0387940E-02
3419.171, 1.2218140E-02
3421.100, 1.1363530E-02
3423.028, 1.1733080E-02
3424.957, 1.5028020E-02
3426.885, 1.4450830E-02
3428.814, 1.1195800E-02
3430.742, 1.0516440E-02
3432.671, 1.0029550E-02
3434.599, 9.9215331E-03
3436.528, 1.1731950E-02
3438.456, 1.3630510E-02
3440.385, 1.4030020E-02
3442.313, 1.3201910E-02
3444.241, 1.3396290E-02
3446.170, 1.3162790E-02
3448.098, 1.0886200E-02
3450.027, 1.0353610E-02
3451.955, 1.0544260E-02
3453.884, 1.0614340E-02
3455.812, 1.0183970E-02
3457.741, 1.1760030E-02
3459.669, 1.2590220E-02
3461.598, 1.1563350E-02
3463.526, 1.1165080E-02
3465.455, 1.1384630E-02
3467.383, 1.1663950E-02
3469.312, 1.3060770E-02
3471.240, 1.3232550E-02
3473.168, 1.1501810E-02
3475.097, 1.0879470E-02
3477.025, 1.1704050E-02
3478.954, 1.2111260E-02
3480.882, 1.2420870E-02
3482.811, 1.1305610E-02
3484.739, 8.7939128E-03
3486.668, 9.3833813E-03
3488.596, 1.1177310E-02
3490.525, 1.3583430E-02
3492.453, 1.4321090E-02
3494.382, 1.5128800E-02
3496.310, 1.4645450E-02
3498.239, 1.2475670E-02
3500.167, 1.1131780E-02
3502.095, 1.1752420E-02
3504.024, 1.3182780E-02
3505.952, 1.4514480E-02
3507.881, 1.3465330E-02
3509.809, 1.2492200E-02
3511.738, 1.2812440E-02
3513.666, 1.3795070E-02
3515.595, 1.2779300E-02
3517.523, 1.1977100E-02
3519.452, 1.2335120E-02
3521.380, 1.1622550E-02
3523.309, 1.1679140E-02
3525.237, 1.3709320E-02
3527.166, 1.4584130E-02
3529.094, 1.4159630E-02
3531.022, 1.6337370E-02
3532.951, 1.4923750E-02
3534.879, 1.5424090E-02
3536.808, 1.4133570E-02
3538.736, 1.3305450E-02
3540.665, 1.2862970E-02
3542.593, 1.3124720E-02
3544.522, 1.2682060E-02
3546.450, 1.3342160E-02
3548.379, 1.3919970E-02
3550.307, 1.2353610E-02
3552.236, 1.1364490E-02
3554.164, 1.0832150E-02
3556.093, 1.1641550E-02
3558.021, 1.3260120E-02
3559.949, 1.5614390E-02
3561.878, 1.5427460E-02
3563.806, 1.5376300E-02
3565.735, 1.3395640E-02
3567.663, 1.1857500E-02
3569.592, 1.0012780E-02
3571.520, 8.8066459E-03
3573.449, 1.0254090E-02
3575.377, 1.1278020E-02
3577.306, 1.1715890E-02
3579.234, 1.4141770E-02
3581.163, 1.5582540E-02
3583.091, 1.4551350E-02
3585.020, 1.5785180E-02
3586.948, 1.4417900E-02
3588.876, 1.3107070E-02
3590.805, 1.3765640E-02
3592.733, 1.3447240E-02
3594.662, 1.3126880E-02
3596.590, 1.2884940E-02
3598.519, 1.2686520E-02
3600.447, 1.0908700E-02
3602.376, 1.0245310E-02
3604.304, 1.2100230E-02
3606.233, 1.4161150E-02
3608.161, 1.6073801E-02
3610.090, 1.6373910E-02
3612.018, 1.3704250E-02
3613.947, 1.2235180E-02
3615.875, 1.3673320E-02
3617.803, 1.3142970E-02
3619.732, 1.1080300E-02
3621.660, 1.0548390E-02
3623.589, 1.1573170E-02
3625.517, 1.2416610E-02
3627.446, 1.3956180E-02
3629.374, 1.4884980E-02
3631.303, 1.5189040E-02
3633.231, 1.5941160E-02
3635.160, 1.5413270E-02
3637.088, 1.4962600E-02
3639.017, 1.3548360E-02
3640.945, 1.1511330E-02
3642.874, 1.2565230E-02
3644.802, 1.4475420E-02
3646.730, 1.5592280E-02
3648.659, 1.5432290E-02
3650.587, 1.4719970E-02
3652.516, 1.5456430E-02
3654.444, 1.4194080E-02
3656.373, 1.3881820E-02
3658.301, 1.4806990E-02
3660.230, 1.4688960E-02
3662.158, 1.4833870E-02
3664.087, 1.2872640E-02
3666.015, 1.1738530E-02
3667.944, 1.3961310E-02
3669.872, 1.4811720E-02
3671.801, 1.3847000E-02
3673.729, 1.3537030E-02
3675.657, 1.4165140E-02
3677.586, 1.2791330E-02
3679.514, 1.3806730E-02
3681.443, 1.6395820E-02
3683.371, 1.5239990E-02
3685.300, 1.4821980E-02
3687.228, 1.3762480E-02
3689.157, 1.4358380E-02
3691.085, 1.7220611E-02
3693.014, 2.0033170E-02
3694.942, 1.6590901E-02
3696.871, 1.4325990E-02
3698.799, 1.4908310E-02
3700.728, 1.4953710E-02
3702.656, 1.5382700E-02
3704.584, 1.3318490E-02
3706.513, 1.2307720E-02
3708.441, 1.2539610E-02
3710.370, 1.1068060E-02
3712.298, 9.4123380E-03
3714.227, 1.2383560E-02
3716.155, 1.6217809E-02
3718.084, 1.4784990E-02
3720.012, 1.4729590E-02
3721.941, 1.3075890E-02
3723.869, 1.2383510E-02
3725.798, 1.4922190E-02
3727.726, 1.5154940E-02
3729.655, 1.3519530E-02
3731.583, 1.2374890E-02
3733.511, 1.2135240E-02
3735.440, 1.1817200E-02
3737.368, 1.2357400E-02
3739.297, 1.2552550E-02
3741.225, 1.3442720E-02
3743.154, 1.2465260E-02
3745.082, 1.2821840E-02
3747.011, 1.4239840E-02
3748.939, 1.4624150E-02
3750.868, 1.4115590E-02
3752.796, 1.0477120E-02
3754.725, 1.2536890E-02
3756.653, 1.6252849E-02
3758.582, 1.5321610E-02
3760.510, 1.2678000E-02
3762.438, 1.3706370E-02
3764.367, 1.4903580E-02
3766.295, 1.4263150E-02
3768.224, 1.4402210E-02
3770.152, 1.3434940E-02
3772.081, 1.1612100E-02
3774.009, 1.3145750E-02
3775.938, 1.4238590E-02
3777.866, 1.3083470E-02
3779.795, 1.2849040E-02
3781.723, 1.3147610E-02
3783.652, 1.3305840E-02
3785.580, 1.1926790E-02
3787.509, 1.2543290E-02
3789.437, 1.2908900E-02
3791.365, 1.1108950E-02
3793.294, 1.3123980E-02
3795.222, 1.2601650E-02
3797.151, 9.9473046E-03
3799.079, 1.3480280E-02
3801.008, 1.5945170E-02
3802.936, 1.6114719E-02
3804.865, 1.7506281E-02
3806.793, 1.4948720E-02
3808.722, 1.2491720E-02
3810.650, 1.5868461E-02
3812.579, 1.6983939E-02
3814.507, 1.4521470E-02
3816.436, 1.4110700E-02
3818.364, 1.3634810E-02
3820.292, 1.4618200E-02
3822.221, 1.7328760E-02
3824.149, 1.5541830E-02
3826.078, 1.5864870E-02
3828.006, 1.7865820E-02
3829.935, 1.6163001E-02
3831.863, 1.5163890E-02
3833.792, 1.2902280E-02
3835.720, 1.0805330E-02
3837.649, 1.1759140E-02
3839.577, 1.3099330E-02
3841.506, 1.4983700E-02
3843.434, 1.7044580E-02
3845.363, 1.6192861E-02
3847.291, 1.7731890E-02
3849.219, 1.7570890E-02
3851.148, 1.4769350E-02
3853.076, 1.4160290E-02
3855.005, 1.4308050E-02
3856.933, 1.3612890E-02
3858.862, 1.4136030E-02
3860.790, 1.2919400E-02
3862.719, 1.3478740E-02
3864.647, 1.7697221E-02
3866.576, 2.0012001E-02
3868.504, 1.7663460E-02
3870.433, 1.1969760E-02
3872.361, 1.4930700E-02
3874.290, 1.8781630E-02
3876.218, 1.7093310E-02
3878.146, 1.6042121E-02
3880.075, 1.0925490E-02
3882.003, 1.0320610E-02
3883.932, 1.6482500E-02
3885.860, 1.8983940E-02
3887.789, 1.6581470E-02
3889.717, 1.4603800E-02
3891.646, 1.2863740E-02
3893.574, 1.3539590E-02
3895.503, 1.5194830E-02
3897.431, 1.6931960E-02
3899.360, 1.4799270E-02
3901.288, 1.1826830E-02
3903.217, 1.0452740E-02
3905.145, 9.5987171E-03
3907.073, 1.1810730E-02
3909.002, 1.5814381E-02
3910.930, 1.6848600E-02
3912.859, 1.5693890E-02
3914.787, 1.6126640E-02
3916.716, 1.7920051E-02
3918.644, 1.6875271E-02
3920.573, 1.7292710E-02
3922.501, 1.8485120E-02
3924.430, 1.8009350E-02
3926.358, 2.0389611E-02
3928.287, 1.8411200E-02
3930.215, 1.3930090E-02
3932.144, 1.3650200E-02
3934.072, 1.5746869E-02
3936.000, 1.5412010E-02
3937.929, 1.5690940E-02
3939.857, 1.6288420E-02
3941.786, 1.2594710E-02
3943.714, 1.2110070E-02
3945.643, 1.4844370E-02
3947.571, 1.5723821E-02
3949.500, 1.6142409E-02
3951.428, 1.8746650E-02
3953.357, 2.0025210E-02
3955.285, 1.7249489E-02
3957.214, 1.4080380E-02
3959.142, 1.4069260E-02
3961.071, 1.3602980E-02
3962.999, 1.4847810E-02
3964.927, 1.7962471E-02
3966.856, 1.8764170E-02
3968.784, 1.7240349E-02
3970.713, 1.3854120E-02
3972.641, 1.5559070E-02
3974.570, 1.6506519E-02
3976.498, 1.7017830E-02
3978.427, 1.4255680E-02
3980.355, 1.4595330E-02
3982.284, 1.6196361E-02
3984.212, 1.2524810E-02
3986.141, 1.2704360E-02
3988.069, 1.7311450E-02
3989.998, 1.8477671E-02
3991.926, 1.5334590E-02
3993.854, 9.8319342E-03
3995.783, 1.1975970E-02
3997.711, 2.1449460E-02
3999.640, 2.1459799E-02
##END=



