##NAMES=Andalusite
##RRUFFID=R050449
##IDEAL CHEMISTRY=Al_2_SiO_5_
##LOCALITY=Itinga, Minas Gerais, Brazil
##OWNER=RRUFF
##SOURCE=Marcus Origlieri
##DESCRIPTION=Green fragment
##STATUS=The identification of this mineral has been confirmed by X-ray diffraction and chemical analysis
##URL=rruff.info/R050449
##MEASURED CHEMISTRY=Al_2.00_Fe^3+^_0.01_Si_0.99_O_5_
3.991926e+002, 6.498863e-001
4.011211e+002, 6.685548e-001
4.030496e+002, 6.685548e-001
4.049780e+002, 7.089648e-001
4.069065e+002, 7.596673e-001
4.088350e+002, 7.370042e-001
4.107634e+002, 7.316321e-001
4.126919e+002, 7.355626e-001
4.146204e+002, 7.205761e-001
4.165488e+002, 7.284291e-001
4.184773e+002, 7.697536e-001
4.204058e+002, 7.958314e-001
4.223342e+002, 8.031289e-001
4.242627e+002, 7.938656e-001
4.261912e+002, 7.797184e-001
4.281196e+002, 7.550537e-001
4.300481e+002, 7.311316e-001
4.319766e+002, 7.204330e-001
4.339050e+002, 7.066773e-001
4.358335e+002, 6.862512e-001
4.377620e+002, 6.853950e-001
4.396904e+002, 6.793105e-001
4.416189e+002, 6.651666e-001
4.435474e+002, 6.501507e-001
4.454758e+002, 6.265747e-001
4.474043e+002, 5.946050e-001
4.493328e+002, 5.802032e-001
4.512612e+002, 5.676513e-001
4.531897e+002, 5.464919e-001
4.551182e+002, 5.103158e-001
4.570466e+002, 4.545141e-001
4.589751e+002, 3.921326e-001
4.609036e+002, 3.432334e-001
4.628320e+002, 3.097396e-001
4.647605e+002, 2.947933e-001
4.666890e+002, 2.972347e-001
4.686174e+002, 3.065768e-001
4.705459e+002, 3.125521e-001
4.724744e+002, 3.220883e-001
4.744028e+002, 3.307546e-001
4.763313e+002, 3.362495e-001
4.782598e+002, 3.403955e-001
4.801882e+002, 3.419828e-001
4.821167e+002, 3.426700e-001
4.840452e+002, 3.434672e-001
4.859736e+002, 3.410395e-001
4.879021e+002, 3.389436e-001
4.898306e+002, 3.363586e-001
4.917590e+002, 3.298043e-001
4.936875e+002, 3.185661e-001
4.956160e+002, 3.076034e-001
4.975444e+002, 2.942346e-001
4.994729e+002, 2.781961e-001
5.014014e+002, 2.658670e-001
5.033298e+002, 2.579326e-001
5.052583e+002, 2.573750e-001
5.071868e+002, 2.688683e-001
5.091152e+002, 2.952452e-001
5.110437e+002, 3.384185e-001
5.129722e+002, 3.983403e-001
5.149006e+002, 4.589683e-001
5.168291e+002, 4.869350e-001
5.187576e+002, 4.666902e-001
5.206860e+002, 4.203205e-001
5.226145e+002, 3.766531e-001
5.245430e+002, 3.505530e-001
5.264714e+002, 3.358030e-001
5.283999e+002, 3.247253e-001
5.303284e+002, 3.137290e-001
5.322568e+002, 3.014766e-001
5.341853e+002, 2.900429e-001
5.361138e+002, 2.813411e-001
5.380422e+002, 2.728162e-001
5.399707e+002, 2.656230e-001
5.418992e+002, 2.599068e-001
5.438276e+002, 2.539828e-001
5.457561e+002, 2.527214e-001
5.476846e+002, 2.578253e-001
5.496130e+002, 2.645157e-001
5.515415e+002, 2.723268e-001
5.534700e+002, 2.829838e-001
5.553984e+002, 2.960874e-001
5.573269e+002, 3.097298e-001
5.592554e+002, 3.214126e-001
5.611838e+002, 3.242731e-001
5.631123e+002, 3.178796e-001
5.650408e+002, 3.144557e-001
5.669692e+002, 3.180207e-001
5.688977e+002, 3.262749e-001
5.708262e+002, 3.390032e-001
5.727546e+002, 3.522021e-001
5.746831e+002, 3.637906e-001
5.766116e+002, 3.764788e-001
5.785400e+002, 3.865725e-001
5.804685e+002, 3.933106e-001
5.823970e+002, 3.983315e-001
5.843254e+002, 4.042461e-001
5.862539e+002, 4.095847e-001
5.881824e+002, 4.156244e-001
5.901108e+002, 4.207173e-001
5.920393e+002, 4.219587e-001
5.939678e+002, 4.218282e-001
5.958962e+002, 4.222570e-001
5.978247e+002, 4.209577e-001
5.997532e+002, 4.201868e-001
6.016816e+002, 4.205331e-001
6.036101e+002, 4.203368e-001
6.055386e+002, 4.198783e-001
6.074670e+002, 4.177163e-001
6.093955e+002, 4.126090e-001
6.113240e+002, 4.081752e-001
6.132524e+002, 4.030123e-001
6.151809e+002, 3.964831e-001
6.171094e+002, 3.913641e-001
6.190378e+002, 3.866537e-001
6.209663e+002, 3.806426e-001
6.228948e+002, 3.746876e-001
6.248232e+002, 3.688301e-001
6.267517e+002, 3.616523e-001
6.286802e+002, 3.552871e-001
6.306086e+002, 3.507837e-001
6.325371e+002, 3.468806e-001
6.344656e+002, 3.417375e-001
6.363940e+002, 3.370119e-001
6.383225e+002, 3.330531e-001
6.402510e+002, 3.284985e-001
6.421794e+002, 3.228882e-001
6.441079e+002, 3.186620e-001
6.460364e+002, 3.144042e-001
6.479648e+002, 3.092527e-001
6.498933e+002, 3.047314e-001
6.518218e+002, 3.006077e-001
6.537502e+002, 2.966803e-001
6.556787e+002, 2.920775e-001
6.576072e+002, 2.866150e-001
6.595356e+002, 2.824907e-001
6.614641e+002, 2.797941e-001
6.633926e+002, 2.789490e-001
6.653210e+002, 2.806827e-001
6.672495e+002, 2.836685e-001
6.691780e+002, 2.866800e-001
6.711064e+002, 2.890205e-001
6.730349e+002, 2.885705e-001
6.749634e+002, 2.830077e-001
6.768918e+002, 2.754095e-001
6.788203e+002, 2.691664e-001
6.807488e+002, 2.634543e-001
6.826772e+002, 2.589106e-001
6.846057e+002, 2.566480e-001
6.865342e+002, 2.550415e-001
6.884626e+002, 2.522614e-001
6.903911e+002, 2.488203e-001
6.923196e+002, 2.456936e-001
6.942480e+002, 2.427979e-001
6.961765e+002, 2.395483e-001
6.981050e+002, 2.358037e-001
7.000334e+002, 2.316962e-001
7.019619e+002, 2.274864e-001
7.038904e+002, 2.232623e-001
7.058188e+002, 2.181822e-001
7.077473e+002, 2.134132e-001
7.096758e+002, 2.085914e-001
7.116042e+002, 2.034888e-001
7.135327e+002, 1.980895e-001
7.154612e+002, 1.929609e-001
7.173896e+002, 1.888662e-001
7.193181e+002, 1.850099e-001
7.212466e+002, 1.809546e-001
7.231750e+002, 1.763866e-001
7.251035e+002, 1.722648e-001
7.270320e+002, 1.687918e-001
7.289604e+002, 1.653814e-001
7.308889e+002, 1.625444e-001
7.328174e+002, 1.590014e-001
7.347458e+002, 1.540338e-001
7.366743e+002, 1.474259e-001
7.386028e+002, 1.388260e-001
7.405313e+002, 1.295930e-001
7.424597e+002, 1.194536e-001
7.443882e+002, 1.084964e-001
7.463167e+002, 9.789617e-002
7.482451e+002, 8.831079e-002
7.501736e+002, 8.072782e-002
7.521021e+002, 7.506949e-002
7.540305e+002, 7.117806e-002
7.559590e+002, 6.847466e-002
7.578875e+002, 6.713114e-002
7.598159e+002, 6.749690e-002
7.617444e+002, 6.914259e-002
7.636729e+002, 7.154244e-002
7.656013e+002, 7.584076e-002
7.675298e+002, 8.243681e-002
7.694583e+002, 9.081013e-002
7.713867e+002, 9.988409e-002
7.733152e+002, 1.067541e-001
7.752437e+002, 1.086324e-001
7.771721e+002, 1.033067e-001
7.791006e+002, 9.308678e-002
7.810291e+002, 8.170629e-002
7.829575e+002, 7.210315e-002
7.848860e+002, 6.597219e-002
7.868145e+002, 6.305653e-002
7.887429e+002, 6.155585e-002
7.906714e+002, 6.030019e-002
7.925999e+002, 5.906295e-002
7.945283e+002, 5.811693e-002
7.964568e+002, 5.751183e-002
7.983853e+002, 5.668080e-002
8.003137e+002, 5.689250e-002
8.022422e+002, 5.796961e-002
8.041707e+002, 5.929685e-002
8.060991e+002, 6.095970e-002
8.080276e+002, 6.280524e-002
8.099561e+002, 6.453842e-002
8.118845e+002, 6.687852e-002
8.138130e+002, 6.946985e-002
8.157415e+002, 7.251851e-002
8.176699e+002, 7.622160e-002
8.195984e+002, 8.034213e-002
8.215269e+002, 8.403836e-002
8.234553e+002, 8.781409e-002
8.253838e+002, 9.276199e-002
8.273123e+002, 9.789667e-002
8.292407e+002, 1.027575e-001
8.311692e+002, 1.084539e-001
8.330977e+002, 1.145289e-001
8.350261e+002, 1.213747e-001
8.369546e+002, 1.287405e-001
8.388831e+002, 1.363361e-001
8.408115e+002, 1.443053e-001
8.427400e+002, 1.532046e-001
8.446685e+002, 1.620309e-001
8.465969e+002, 1.714170e-001
8.485254e+002, 1.816522e-001
8.504539e+002, 1.924045e-001
8.523823e+002, 2.034851e-001
8.543108e+002, 2.141829e-001
8.562393e+002, 2.254381e-001
8.581677e+002, 2.368830e-001
8.600962e+002, 2.476567e-001
8.620247e+002, 2.573873e-001
8.639531e+002, 2.666755e-001
8.658816e+002, 2.752216e-001
8.678101e+002, 2.824745e-001
8.697385e+002, 2.881165e-001
8.716670e+002, 2.919814e-001
8.735955e+002, 2.949570e-001
8.755239e+002, 2.977715e-001
8.774524e+002, 3.006574e-001
8.793809e+002, 3.034724e-001
8.813093e+002, 3.055331e-001
8.832378e+002, 3.074100e-001
8.851663e+002, 3.085567e-001
8.870947e+002, 3.086562e-001
8.890232e+002, 3.079418e-001
8.909517e+002, 3.070600e-001
8.928801e+002, 3.055415e-001
8.948085e+002, 3.034897e-001
8.967370e+002, 3.002506e-001
8.986655e+002, 2.958153e-001
9.005939e+002, 2.913779e-001
9.025224e+002, 2.867205e-001
9.044509e+002, 2.813315e-001
9.063793e+002, 2.764045e-001
9.083078e+002, 2.728432e-001
9.102363e+002, 2.699731e-001
9.121647e+002, 2.687103e-001
9.140932e+002, 2.697236e-001
9.160217e+002, 2.731522e-001
9.179501e+002, 2.804404e-001
9.198786e+002, 2.913809e-001
9.218071e+002, 3.052897e-001
9.237355e+002, 3.197154e-001
9.256640e+002, 3.315375e-001
9.275925e+002, 3.388115e-001
9.295209e+002, 3.397535e-001
9.314494e+002, 3.350702e-001
9.333779e+002, 3.276487e-001
9.353063e+002, 3.195202e-001
9.372348e+002, 3.114246e-001
9.391633e+002, 3.031848e-001
9.410917e+002, 2.963514e-001
9.430202e+002, 2.902560e-001
9.449487e+002, 2.847394e-001
9.468771e+002, 2.793097e-001
9.488056e+002, 2.740565e-001
9.507341e+002, 2.697887e-001
9.526625e+002, 2.650043e-001
9.545910e+002, 2.603689e-001
9.565195e+002, 2.562702e-001
9.584479e+002, 2.524200e-001
9.603764e+002, 2.495333e-001
9.623049e+002, 2.485019e-001
9.642333e+002, 2.485660e-001
9.661618e+002, 2.493915e-001
9.680903e+002, 2.502494e-001
9.700187e+002, 2.483349e-001
9.719472e+002, 2.411311e-001
9.738757e+002, 2.310310e-001
9.758041e+002, 2.202981e-001
9.777326e+002, 2.099771e-001
9.796611e+002, 2.009489e-001
9.815895e+002, 1.928030e-001
9.835180e+002, 1.850614e-001
9.854465e+002, 1.775166e-001
9.873749e+002, 1.707167e-001
9.893034e+002, 1.646024e-001
9.912319e+002, 1.587453e-001
9.931603e+002, 1.527950e-001
9.950888e+002, 1.475620e-001
9.970173e+002, 1.429146e-001
9.989457e+002, 1.379329e-001
1.000874e+003, 1.330156e-001
1.002803e+003, 1.285070e-001
1.004731e+003, 1.243000e-001
1.006660e+003, 1.202747e-001
1.008588e+003, 1.163021e-001
1.010517e+003, 1.122176e-001
1.012445e+003, 1.085578e-001
1.014373e+003, 1.053299e-001
1.016302e+003, 1.018699e-001
1.018230e+003, 9.836903e-002
1.020159e+003, 9.498522e-002
1.022087e+003, 9.187429e-002
1.024016e+003, 8.892030e-002
1.025944e+003, 8.586309e-002
1.027873e+003, 8.273047e-002
1.029801e+003, 7.982899e-002
1.031730e+003, 7.670382e-002
1.033658e+003, 7.377416e-002
1.035587e+003, 7.086323e-002
1.037515e+003, 6.782339e-002
1.039444e+003, 6.477837e-002
1.041372e+003, 6.184775e-002
1.043301e+003, 5.916898e-002
1.045229e+003, 5.651022e-002
1.047157e+003, 5.395602e-002
1.049086e+003, 5.139941e-002
1.051014e+003, 4.905893e-002
1.052943e+003, 4.683384e-002
1.054871e+003, 4.428486e-002
1.056800e+003, 4.200749e-002
1.058728e+003, 3.991912e-002
1.060657e+003, 3.798789e-002
1.062585e+003, 3.617256e-002
1.064514e+003, 3.448626e-002
1.066442e+003, 3.279523e-002
1.068371e+003, 3.112575e-002
1.070299e+003, 2.942571e-002
1.072228e+003, 2.789243e-002
1.074156e+003, 2.679986e-002
1.076084e+003, 2.573995e-002
1.078013e+003, 2.438829e-002
1.079941e+003, 2.328313e-002
1.081870e+003, 2.234050e-002
1.083798e+003, 2.122185e-002
1.085727e+003, 2.014133e-002
1.087655e+003, 1.935534e-002
1.089584e+003, 1.879966e-002
1.091512e+003, 1.810317e-002
1.093441e+003, 1.768801e-002
1.095369e+003, 1.749334e-002
1.097298e+003, 1.706576e-002
1.099226e+003, 1.671987e-002
1.101155e+003, 1.632553e-002
1.103083e+003, 1.603619e-002
1.105011e+003, 1.582924e-002
1.106940e+003, 1.538359e-002
1.108868e+003, 1.496955e-002
1.110797e+003, 1.468786e-002
1.112725e+003, 1.441355e-002
1.114654e+003, 1.393733e-002
1.116582e+003, 1.339431e-002
1.118511e+003, 1.312508e-002
1.120439e+003, 1.311282e-002
1.122368e+003, 1.301749e-002
1.124296e+003, 1.270807e-002
1.126225e+003, 1.248881e-002
1.128153e+003, 1.207608e-002
1.130082e+003, 1.164768e-002
1.132010e+003, 1.119859e-002
1.133938e+003, 1.079486e-002
1.135867e+003, 1.042290e-002
1.137795e+003, 1.005228e-002
1.139724e+003, 9.935777e-003
1.141652e+003, 9.623053e-003
1.143581e+003, 8.987387e-003
1.145509e+003, 8.536540e-003
1.147438e+003, 8.390787e-003
1.149366e+003, 8.416156e-003
1.151295e+003, 8.317422e-003
1.153223e+003, 7.879821e-003
1.155152e+003, 7.610889e-003
1.157080e+003, 7.605865e-003
1.159009e+003, 7.403764e-003
1.160937e+003, 7.229146e-003
1.162865e+003, 7.142436e-003
1.164794e+003, 7.058775e-003
1.166722e+003, 6.714867e-003
1.168651e+003, 6.505175e-003
1.170579e+003, 6.323959e-003
1.172508e+003, 6.218506e-003
1.174436e+003, 6.069866e-003
1.176365e+003, 6.002099e-003
1.178293e+003, 5.836473e-003
1.180222e+003, 5.802791e-003
1.182150e+003, 5.679067e-003
1.184079e+003, 5.428371e-003
1.186007e+003, 5.276580e-003
1.187936e+003, 5.139762e-003
1.189864e+003, 4.987502e-003
1.191792e+003, 4.928148e-003
1.193721e+003, 4.818544e-003
1.195649e+003, 4.559738e-003
1.197578e+003, 4.296936e-003
1.199506e+003, 4.188361e-003
1.201435e+003, 4.211646e-003
1.203363e+003, 4.089613e-003
1.205292e+003, 3.705103e-003
1.207220e+003, 3.570683e-003
1.209149e+003, 3.686990e-003
1.211077e+003, 3.488608e-003
1.213006e+003, 3.359799e-003
1.214934e+003, 3.329013e-003
1.216863e+003, 3.367078e-003
1.218791e+003, 3.355892e-003
1.220719e+003, 3.145980e-003
1.222648e+003, 2.762638e-003
1.224576e+003, 2.691184e-003
1.226505e+003, 2.810091e-003
1.228433e+003, 2.889236e-003
1.230362e+003, 2.815960e-003
1.232290e+003, 2.681782e-003
1.234219e+003, 2.533648e-003
1.236147e+003, 2.400890e-003
1.238076e+003, 2.394093e-003
1.240004e+003, 2.414284e-003
1.241933e+003, 2.312107e-003
1.243861e+003, 2.319569e-003
1.245790e+003, 2.295852e-003
1.247718e+003, 2.241194e-003
1.249646e+003, 2.211620e-003
1.251575e+003, 2.201762e-003
1.253503e+003, 2.274268e-003
1.255432e+003, 2.387496e-003
1.257360e+003, 2.459800e-003
1.259289e+003, 2.646411e-003
1.261217e+003, 2.544713e-003
1.263146e+003, 2.493923e-003
1.265074e+003, 2.693551e-003
1.267003e+003, 2.791449e-003
1.268931e+003, 2.854648e-003
1.270860e+003, 2.916454e-003
1.272788e+003, 2.794417e-003
1.274717e+003, 2.757069e-003
1.276645e+003, 2.944008e-003
1.278573e+003, 3.046901e-003
1.280502e+003, 3.133064e-003
1.282430e+003, 3.120649e-003
1.284359e+003, 2.973833e-003
1.286287e+003, 2.871958e-003
1.288216e+003, 2.756369e-003
1.290144e+003, 2.678182e-003
1.292073e+003, 2.764171e-003
1.294001e+003, 2.738196e-003
1.295930e+003, 2.686850e-003
1.297858e+003, 2.697419e-003
1.299787e+003, 2.543580e-003
1.301715e+003, 2.506353e-003
1.303644e+003, 2.657245e-003
1.305572e+003, 2.592676e-003
1.307500e+003, 2.442172e-003
1.309429e+003, 2.533781e-003
1.311357e+003, 2.528682e-003
1.313286e+003, 2.505520e-003
1.315214e+003, 2.537047e-003
1.317143e+003, 2.425612e-003
1.319071e+003, 2.491424e-003
1.321000e+003, 2.583076e-003
1.322928e+003, 2.558578e-003
1.324857e+003, 2.662413e-003
1.326785e+003, 2.611376e-003
1.328714e+003, 2.412185e-003
1.330642e+003, 2.421347e-003
1.332571e+003, 2.395093e-003
1.334499e+003, 2.472596e-003
1.336427e+003, 2.470463e-003
1.338356e+003, 2.410952e-003
1.340284e+003, 2.470130e-003
1.342213e+003, 2.324099e-003
1.344141e+003, 2.344487e-003
1.346070e+003, 2.336858e-003
1.347998e+003, 2.315905e-003
1.349927e+003, 2.308177e-003
1.351855e+003, 2.179850e-003
1.353784e+003, 1.926538e-003
1.355712e+003, 1.774868e-003
1.357641e+003, 1.851229e-003
1.359569e+003, 1.939285e-003
1.361498e+003, 1.695228e-003
1.363426e+003, 1.522624e-003
1.365354e+003, 1.438076e-003
1.367283e+003, 1.460849e-003
1.369211e+003, 1.546232e-003
1.371140e+003, 1.387449e-003
1.373068e+003, 1.320342e-003
1.374997e+003, 1.308212e-003
1.376925e+003, 1.333570e-003
1.378854e+003, 1.440004e-003
1.380782e+003, 1.361622e-003
1.382711e+003, 1.341480e-003
1.384639e+003, 1.199052e-003
1.386568e+003, 1.069624e-003
1.388496e+003, 1.141143e-003
1.390424e+003, 1.317550e-003
1.392353e+003, 1.510355e-003
1.394281e+003, 1.564688e-003
1.396210e+003, 1.446753e-003
1.398138e+003, 1.369400e-003
1.400067e+003, 1.252615e-003
1.401995e+003, 1.232478e-003
1.403924e+003, 1.318215e-003
1.405852e+003, 1.472718e-003
1.407781e+003, 1.529407e-003
1.409709e+003, 1.543905e-003
1.411638e+003, 1.464672e-003
1.413566e+003, 1.495592e-003
1.415495e+003, 1.475411e-003
1.417423e+003, 1.413643e-003
1.419351e+003, 1.302529e-003
1.421280e+003, 1.342378e-003
1.423208e+003, 1.482592e-003
1.425137e+003, 1.437411e-003
1.427065e+003, 1.476707e-003
1.428994e+003, 1.485518e-003
1.430922e+003, 1.464373e-003
1.432851e+003, 1.427704e-003
1.434779e+003, 1.312466e-003
1.436708e+003, 1.411050e-003
1.438636e+003, 1.488743e-003
1.440565e+003, 1.361456e-003
1.442493e+003, 1.218323e-003
1.444422e+003, 1.304057e-003
1.446350e+003, 1.450543e-003
1.448278e+003, 1.309873e-003
1.450207e+003, 1.225766e-003
1.452135e+003, 1.189317e-003
1.454064e+003, 1.192074e-003
1.455992e+003, 1.105731e-003
1.457921e+003, 1.013925e-003
1.459849e+003, 1.012530e-003
1.461778e+003, 8.868096e-004
1.463706e+003, 8.469693e-004
1.465635e+003, 8.811321e-004
1.467563e+003, 9.069304e-004
1.469492e+003, 9.850648e-004
1.471420e+003, 1.222078e-003
1.473349e+003, 1.339386e-003
1.475277e+003, 1.287541e-003
1.477205e+003, 1.416501e-003
1.479134e+003, 1.606988e-003
1.481062e+003, 1.540912e-003
1.482991e+003, 1.504303e-003
1.484919e+003, 1.606124e-003
1.486848e+003, 1.564222e-003
1.488776e+003, 1.476907e-003
1.490705e+003, 1.675736e-003
1.492633e+003, 1.727794e-003
1.494562e+003, 1.771608e-003
1.496490e+003, 1.833693e-003
1.498419e+003, 1.800420e-003
1.500347e+003, 1.760330e-003
1.502276e+003, 1.829434e-003
1.504204e+003, 1.777530e-003
1.506132e+003, 1.758167e-003
1.508061e+003, 1.732651e-003
1.509989e+003, 1.742864e-003
1.511918e+003, 1.883873e-003
1.513846e+003, 1.873923e-003
1.515775e+003, 1.803315e-003
1.517703e+003, 1.868266e-003
1.519632e+003, 1.924308e-003
1.521560e+003, 1.852760e-003
1.523489e+003, 1.669150e-003
1.525417e+003, 1.587101e-003
1.527346e+003, 1.720975e-003
1.529274e+003, 1.887101e-003
1.531203e+003, 1.839117e-003
1.533131e+003, 1.661067e-003
1.535059e+003, 1.554146e-003
1.536988e+003, 1.625480e-003
1.538916e+003, 1.676800e-003
1.540845e+003, 1.656943e-003
1.542773e+003, 1.601368e-003
1.544702e+003, 1.683120e-003
1.546630e+003, 1.825009e-003
1.548559e+003, 1.760063e-003
1.550487e+003, 1.645302e-003
1.552416e+003, 1.643772e-003
1.554344e+003, 1.691635e-003
1.556273e+003, 1.607254e-003
1.558201e+003, 1.657575e-003
1.560130e+003, 1.793000e-003
1.562058e+003, 1.824709e-003
1.563986e+003, 1.800453e-003
1.565915e+003, 1.791703e-003
1.567843e+003, 1.800487e-003
1.569772e+003, 1.879048e-003
1.571700e+003, 1.911362e-003
1.573629e+003, 1.893591e-003
1.575557e+003, 1.942280e-003
1.577486e+003, 1.941748e-003
1.579414e+003, 1.813064e-003
1.581343e+003, 1.777064e-003
1.583271e+003, 1.840747e-003
1.585200e+003, 1.799422e-003
1.587128e+003, 1.697057e-003
1.589057e+003, 1.618296e-003
1.590985e+003, 1.672642e-003
1.592913e+003, 1.789374e-003
1.594842e+003, 1.903874e-003
1.596770e+003, 1.855655e-003
1.598699e+003, 2.043038e-003
1.600627e+003, 2.258147e-003
1.602556e+003, 2.272602e-003
1.604484e+003, 2.160303e-003
1.606413e+003, 1.932629e-003
1.608341e+003, 1.805411e-003
1.610270e+003, 1.873923e-003
1.612198e+003, 2.030355e-003
1.614127e+003, 2.041540e-003
1.616055e+003, 1.971204e-003
1.617984e+003, 1.856287e-003
1.619912e+003, 1.846903e-003
1.621840e+003, 1.890296e-003
1.623769e+003, 1.994304e-003
1.625697e+003, 1.990077e-003
1.627626e+003, 2.066009e-003
1.629554e+003, 1.991242e-003
1.631483e+003, 1.933960e-003
1.633411e+003, 1.895188e-003
1.635340e+003, 1.791437e-003
1.637268e+003, 1.718812e-003
1.639197e+003, 1.877118e-003
1.641125e+003, 1.896053e-003
1.643054e+003, 1.875121e-003
1.644982e+003, 1.862676e-003
1.646911e+003, 1.644437e-003
1.648839e+003, 1.584374e-003
1.650767e+003, 1.837453e-003
1.652696e+003, 2.020202e-003
1.654624e+003, 1.841346e-003
1.656553e+003, 1.702180e-003
1.658481e+003, 1.668950e-003
1.660410e+003, 1.662897e-003
1.662338e+003, 1.747222e-003
1.664267e+003, 1.727661e-003
1.666195e+003, 1.720941e-003
1.668124e+003, 1.784783e-003
1.670052e+003, 1.700284e-003
1.671981e+003, 1.614205e-003
1.673909e+003, 1.535658e-003
1.675838e+003, 1.595382e-003
1.677766e+003, 1.572768e-003
1.679694e+003, 1.362652e-003
1.681623e+003, 1.173037e-003
1.683551e+003, 1.357235e-003
1.685480e+003, 1.577890e-003
1.687408e+003, 1.553282e-003
1.689337e+003, 1.496390e-003
1.691265e+003, 1.489474e-003
1.693194e+003, 1.559932e-003
1.695122e+003, 1.417798e-003
1.697051e+003, 1.177954e-003
1.698979e+003, 1.085601e-003
1.700908e+003, 9.773935e-004
1.702836e+003, 9.487685e-004
1.704765e+003, 1.049130e-003
1.706693e+003, 9.540816e-004
1.708621e+003, 6.950122e-004
1.710550e+003, 3.425754e-004
1.712478e+003, 3.026192e-004
1.714407e+003, 5.285775e-004
1.716335e+003, 7.990662e-004
1.718264e+003, 6.315963e-004
1.720192e+003, 5.280136e-004
1.722121e+003, 6.215753e-004
1.724049e+003, 5.922770e-004
1.725978e+003, 5.185590e-004
1.727906e+003, 1.879107e-004
1.729835e+003, -1.719648e-004
1.731763e+003, -2.086943e-004
1.733692e+003, -3.433317e-004
1.735620e+003, -1.010505e-003
1.737548e+003, -1.525162e-003
1.739477e+003, -1.731937e-003
1.741405e+003, -1.866235e-003
1.743334e+003, -1.914962e-003
1.745262e+003, -1.581553e-003
1.747191e+003, -1.071689e-003
1.749119e+003, -9.830338e-004
1.751048e+003, -1.027661e-003
1.752976e+003, -7.482837e-004
1.754905e+003, -6.417957e-004
1.756833e+003, -4.549570e-004
1.758762e+003, 7.356380e-005
1.760690e+003, 4.844246e-004
1.762619e+003, 5.671611e-004
1.764547e+003, 5.355774e-004
1.766475e+003, 5.376011e-004
1.768404e+003, 6.432766e-004
1.770332e+003, 5.638102e-004
1.772261e+003, 3.447971e-004
1.774189e+003, 2.486427e-004
1.776118e+003, 4.072757e-004
1.778046e+003, 4.936795e-004
1.779975e+003, 4.375897e-004
1.781903e+003, 5.578715e-004
1.783832e+003, 8.135063e-004
1.785760e+003, 7.209984e-004
1.787689e+003, 5.864707e-004
1.789617e+003, 7.674324e-004
1.791546e+003, 8.300051e-004
1.793474e+003, 8.309014e-004
1.795402e+003, 8.229341e-004
1.797331e+003, 7.270057e-004
1.799259e+003, 7.894065e-004
1.801188e+003, 6.587402e-004
1.803116e+003, 5.998419e-004
1.805045e+003, 8.319637e-004
1.806973e+003, 8.136723e-004
1.808902e+003, 4.575901e-004
1.810830e+003, 4.411055e-004
1.812759e+003, 4.308236e-004
1.814687e+003, 4.443891e-004
1.816616e+003, 8.145686e-004
1.818544e+003, 6.811733e-004
1.820473e+003, 4.667780e-004
1.822401e+003, 6.382659e-004
1.824329e+003, 5.587009e-004
1.826258e+003, 3.492075e-004
1.828186e+003, 3.840608e-004
1.830115e+003, 4.500608e-004
1.832043e+003, 3.154512e-004
1.833972e+003, 4.219018e-004
1.835900e+003, 3.807113e-004
1.837829e+003, 4.844246e-004
1.839757e+003, 4.426975e-004
1.841686e+003, 6.369386e-004
1.843614e+003, 9.187177e-004
1.845543e+003, 5.210470e-004
1.847471e+003, 4.060486e-004
1.849400e+003, 6.395932e-004
1.851328e+003, 7.723450e-004
1.853256e+003, 2.015680e-004
1.855185e+003, 5.295142e-005
1.857113e+003, 2.706900e-004
1.859042e+003, 3.861169e-004
1.860970e+003, 2.534831e-004
1.862899e+003, 5.830201e-004
1.864827e+003, 6.580433e-004
1.866756e+003, 6.432102e-004
1.868684e+003, 5.230706e-004
1.870613e+003, -7.289428e-006
1.872541e+003, -1.194318e-004
1.874470e+003, -1.629558e-004
1.876398e+003, -2.744619e-004
1.878327e+003, -2.772103e-004
1.880255e+003, -3.396106e-005
1.882183e+003, -1.427180e-004
1.884112e+003, -5.253206e-004
1.886040e+003, -3.763721e-004
1.887969e+003, -4.713409e-004
1.889897e+003, -5.229047e-004
1.891826e+003, -6.039778e-004
1.893754e+003, -7.337626e-004
1.895683e+003, -6.420605e-004
1.897611e+003, -8.830185e-004
1.899540e+003, -6.010330e-004
1.901468e+003, -3.476026e-004
1.903397e+003, -3.850787e-004
1.905325e+003, -5.235004e-004
1.907254e+003, -7.308848e-004
1.909182e+003, -6.768976e-004
1.911110e+003, -8.729661e-004
1.913039e+003, -9.051065e-004
1.914967e+003, -1.169348e-003
1.916896e+003, -1.381445e-003
1.918824e+003, -1.033016e-003
1.920753e+003, -1.072417e-003
1.922681e+003, -1.456645e-003
1.924610e+003, -2.289844e-003
1.926538e+003, -1.616579e-003
1.928467e+003, -1.315547e-003
1.930395e+003, -1.767248e-003
1.932324e+003, -2.113572e-003
1.934252e+003, -1.931851e-003
1.936181e+003, -1.483789e-003
1.938109e+003, -1.898401e-003
1.940037e+003, -2.643391e-003
1.941966e+003, -2.772469e-003
1.943894e+003, -2.854835e-003
1.945823e+003, -2.888014e-003
1.947751e+003, -2.723543e-003
1.949680e+003, -2.196491e-003
1.951608e+003, -2.341027e-003
1.953537e+003, -3.357844e-003
1.955465e+003, -4.167979e-003
1.957394e+003, -4.216382e-003
1.959322e+003, -4.512132e-003
1.961251e+003, -4.074078e-003
1.963179e+003, -3.836329e-003
1.965108e+003, -5.018106e-003
1.967036e+003, -5.489139e-003
1.968964e+003, -5.013684e-003
1.970893e+003, -4.880651e-003
1.972821e+003, -4.037903e-003
1.974750e+003, -2.831529e-003
1.976678e+003, -2.193294e-003
1.978607e+003, -2.303423e-003
1.980535e+003, -3.039328e-003
1.982464e+003, -3.127631e-003
1.984392e+003, -2.727461e-003
1.986321e+003, -3.038967e-003
1.988249e+003, -2.181161e-003
1.990178e+003, -2.290305e-003
1.992106e+003, -3.183913e-003
1.994035e+003, -2.506237e-003
1.995963e+003, -2.171205e-003
1.997891e+003, -2.669473e-003
1.999820e+003, -3.338708e-003
2.001748e+003, -2.405682e-003
2.003677e+003, -1.995116e-003
2.005605e+003, -3.024983e-003
2.007534e+003, -4.076540e-003
2.009462e+003, -4.470550e-003
2.011391e+003, -3.109998e-003
2.013319e+003, -2.271386e-003
2.015248e+003, -2.626002e-003
2.017176e+003, -3.552772e-003
2.019105e+003, -3.974969e-003
2.021033e+003, -2.430098e-003
2.022962e+003, -1.888306e-003
2.024890e+003, -2.811712e-003
2.026818e+003, -2.310278e-003
2.028747e+003, -9.086775e-004
2.030675e+003, -4.120251e-004
2.032604e+003, -1.683553e-003
2.034532e+003, -2.267265e-003
2.036461e+003, -1.799223e-003
2.038389e+003, -1.663089e-003
2.040318e+003, -1.096941e-003
2.042246e+003, -1.010505e-003
2.044175e+003, -1.591358e-003
2.046103e+003, -8.912190e-004
2.048032e+003, -4.953257e-005
2.049960e+003, -2.150198e-004
2.051889e+003, -8.800094e-004
2.053817e+003, -7.284040e-004
2.055746e+003, -6.255176e-004
2.057674e+003, -1.201830e-003
2.059603e+003, -8.248832e-004
2.061531e+003, 2.506319e-004
2.063459e+003, -1.309591e-004
2.065388e+003, -7.499044e-004
2.067316e+003, -2.567129e-004
2.069245e+003, -2.307835e-004
2.071173e+003, -8.298439e-004
2.073102e+003, -8.901939e-004
2.075030e+003, 2.669436e-004
2.076959e+003, 9.632136e-004
2.078887e+003, 6.089665e-004
2.080816e+003, 6.645474e-004
2.082744e+003, 5.450323e-004
2.084673e+003, 2.109162e-004
2.086601e+003, 5.245435e-005
2.088530e+003, 3.269572e-004
2.090458e+003, 6.178590e-004
2.092386e+003, 1.723975e-004
2.094315e+003, -2.265115e-004
2.096243e+003, -2.762169e-004
2.098172e+003, 4.899974e-004
2.100100e+003, 7.526288e-004
2.102029e+003, 2.206293e-004
2.103957e+003, 2.395920e-004
2.105886e+003, 4.232284e-004
2.107814e+003, 5.673601e-004
2.109743e+003, 1.485285e-003
2.111671e+003, 1.515442e-003
2.113600e+003, 5.751237e-004
2.115528e+003, 1.039539e-004
2.117457e+003, -1.179556e-005
2.119385e+003, 3.411495e-004
2.121313e+003, 4.941770e-004
2.123242e+003, -2.569778e-004
2.125170e+003, -5.549387e-004
2.127099e+003, -2.788990e-004
2.129027e+003, 1.623571e-006
2.130956e+003, -1.156890e-003
2.132884e+003, -2.404495e-003
2.134813e+003, -2.174865e-003
2.136741e+003, -1.863167e-003
2.138670e+003, -1.221325e-003
2.140598e+003, -1.013017e-003
2.142527e+003, -1.964606e-003
2.144455e+003, -1.892430e-003
2.146384e+003, -1.342502e-003
2.148312e+003, -9.143646e-004
2.150240e+003, -2.255511e-004
2.152169e+003, -1.104146e-003
2.154097e+003, -2.057514e-003
2.156026e+003, -1.621432e-003
2.157954e+003, -1.993005e-003
2.159883e+003, -1.594495e-003
2.161811e+003, -6.589335e-004
2.163740e+003, -4.683290e-004
2.165668e+003, 1.205198e-003
2.167597e+003, 2.154542e-003
2.169525e+003, 4.718862e-004
2.171454e+003, -9.799263e-004
2.173382e+003, -8.774301e-004
2.175311e+003, 1.218489e-003
2.177239e+003, 2.244591e-003
2.179167e+003, 1.346964e-003
2.181096e+003, 4.358318e-004
2.183024e+003, 1.570141e-003
2.184953e+003, 2.404555e-003
2.186881e+003, 2.073866e-003
2.188810e+003, 1.318016e-003
2.190738e+003, -4.880370e-005
2.192667e+003, 1.648068e-004
2.194595e+003, -2.703653e-005
2.196524e+003, -7.924392e-004
2.198452e+003, -5.410069e-004
2.200381e+003, 3.758363e-004
2.202309e+003, 1.754907e-003
2.204238e+003, 1.371361e-003
2.206166e+003, 2.424432e-004
2.208094e+003, 2.285193e-004
2.210023e+003, 5.826551e-004
2.211951e+003, 1.789208e-003
2.213880e+003, 1.836887e-003
2.215808e+003, 1.040063e-003
2.217737e+003, 6.479554e-004
2.219665e+003, 1.324463e-003
2.221594e+003, 1.614471e-003
2.223522e+003, 1.052751e-003
2.225451e+003, 9.556756e-004
2.227379e+003, 1.631000e-003
2.229308e+003, 1.709598e-003
2.231236e+003, 8.348519e-004
2.233165e+003, 6.041222e-004
2.235093e+003, 1.731187e-003
2.237021e+003, 2.359311e-003
2.238950e+003, 2.226773e-003
2.240878e+003, 1.431162e-003
2.242807e+003, 1.290299e-003
2.244735e+003, 1.444625e-003
2.246664e+003, 1.287607e-003
2.248592e+003, 1.182838e-003
2.250521e+003, 1.861844e-003
2.252449e+003, 1.709930e-003
2.254378e+003, 1.575761e-003
2.256306e+003, 2.240861e-003
2.258235e+003, 2.765372e-003
2.260163e+003, 2.072801e-003
2.262092e+003, 1.641510e-003
2.264020e+003, 1.291163e-003
2.265948e+003, 1.848966e-003
2.267877e+003, 2.714023e-003
2.269805e+003, 2.833603e-003
2.271734e+003, 2.781245e-003
2.273662e+003, 2.690317e-003
2.275591e+003, 2.408486e-003
2.277519e+003, 2.441106e-003
2.279448e+003, 2.489791e-003
2.281376e+003, 2.511052e-003
2.283305e+003, 3.055910e-003
2.285233e+003, 3.196446e-003
2.287162e+003, 2.686983e-003
2.289090e+003, 2.256282e-003
2.291019e+003, 2.452469e-003
2.292947e+003, 2.891370e-003
2.294875e+003, 2.793750e-003
2.296804e+003, 2.524649e-003
2.298732e+003, 2.311608e-003
2.300661e+003, 2.308177e-003
2.302589e+003, 2.425179e-003
2.304518e+003, 2.617942e-003
2.306446e+003, 2.585876e-003
2.308375e+003, 2.491424e-003
2.310303e+003, 2.656779e-003
2.312232e+003, 2.713756e-003
2.314160e+003, 2.455967e-003
2.316089e+003, 2.608309e-003
2.318017e+003, 2.547879e-003
2.319946e+003, 2.590542e-003
2.321874e+003, 3.028683e-003
2.323802e+003, 3.145546e-003
2.325731e+003, 2.709155e-003
2.327659e+003, 2.453735e-003
2.329588e+003, 2.416516e-003
2.331516e+003, 2.456701e-003
2.333445e+003, 2.413584e-003
2.335373e+003, 2.504020e-003
2.337302e+003, 2.640210e-003
2.339230e+003, 2.557345e-003
2.341159e+003, 2.219080e-003
2.343087e+003, 2.262310e-003
2.345016e+003, 2.223776e-003
2.346944e+003, 1.933294e-003
2.348873e+003, 1.832662e-003
2.350801e+003, 1.950302e-003
2.352729e+003, 2.411585e-003
2.354658e+003, 2.330162e-003
2.356586e+003, 2.057354e-003
2.358515e+003, 2.186377e-003
2.360443e+003, 2.382099e-003
2.362372e+003, 2.257214e-003
2.364300e+003, 1.982654e-003
2.366229e+003, 1.980457e-003
2.368157e+003, 2.245157e-003
2.370086e+003, 2.140756e-003
2.372014e+003, 1.767915e-003
2.373942e+003, 1.784117e-003
2.375871e+003, 1.863308e-003
2.377799e+003, 1.951267e-003
2.379728e+003, 1.723469e-003
2.381656e+003, 1.310372e-003
2.383585e+003, 1.112076e-003
2.385513e+003, 1.433090e-003
2.387442e+003, 1.861311e-003
2.389370e+003, 2.160269e-003
2.391299e+003, 1.776831e-003
2.393227e+003, 1.851861e-003
2.395156e+003, 1.813064e-003
2.397084e+003, 1.498518e-003
2.399012e+003, 1.425876e-003
2.400941e+003, 1.615203e-003
2.402869e+003, 1.644670e-003
2.404798e+003, 1.731786e-003
2.406726e+003, 1.968974e-003
2.408655e+003, 2.225807e-003
2.410583e+003, 2.172224e-003
2.412512e+003, 1.880712e-003
2.414440e+003, 1.788010e-003
2.416369e+003, 2.097571e-003
2.418297e+003, 1.972868e-003
2.420226e+003, 2.159470e-003
2.422154e+003, 2.348584e-003
2.424083e+003, 1.973401e-003
2.426011e+003, 1.498784e-003
2.427939e+003, 1.595748e-003
2.429868e+003, 1.926605e-003
2.431796e+003, 1.867534e-003
2.433725e+003, 1.643772e-003
2.435653e+003, 1.623617e-003
2.437582e+003, 1.917419e-003
2.439510e+003, 2.277332e-003
2.441439e+003, 2.140590e-003
2.443367e+003, 2.152710e-003
2.445296e+003, 1.706039e-003
2.447224e+003, 1.437578e-003
2.449153e+003, 1.677432e-003
2.451081e+003, 2.183646e-003
2.453010e+003, 2.474362e-003
2.454938e+003, 2.216915e-003
2.456866e+003, 2.203860e-003
2.458795e+003, 2.288557e-003
2.460723e+003, 2.014942e-003
2.462652e+003, 1.782420e-003
2.464580e+003, 2.233634e-003
2.466509e+003, 2.286259e-003
2.468437e+003, 1.886403e-003
2.470366e+003, 1.909299e-003
2.472294e+003, 1.606822e-003
2.474223e+003, 1.574764e-003
2.476151e+003, 1.506996e-003
2.478080e+003, 1.633561e-003
2.480008e+003, 2.345053e-003
2.481937e+003, 2.628176e-003
2.483865e+003, 2.501654e-003
2.485793e+003, 2.664046e-003
2.487722e+003, 2.507919e-003
2.489650e+003, 2.191239e-003
2.491579e+003, 2.046367e-003
2.493507e+003, 2.230603e-003
2.495436e+003, 2.273302e-003
2.497364e+003, 2.135928e-003
2.499293e+003, 1.836122e-003
2.501221e+003, 1.795729e-003
2.503150e+003, 1.756737e-003
2.505078e+003, 1.967010e-003
2.507007e+003, 2.317037e-003
2.508935e+003, 2.080824e-003
2.510864e+003, 1.717082e-003
2.512792e+003, 2.210954e-003
2.514720e+003, 2.805689e-003
2.516649e+003, 2.217281e-003
2.518577e+003, 1.704708e-003
2.520506e+003, 1.665657e-003
2.522434e+003, 1.731886e-003
2.524363e+003, 1.775168e-003
2.526291e+003, 1.817322e-003
2.528220e+003, 2.197499e-003
2.530148e+003, 2.169726e-003
2.532077e+003, 1.873824e-003
2.534005e+003, 2.008518e-003
2.535934e+003, 1.925174e-003
2.537862e+003, 2.025328e-003
2.539791e+003, 2.157006e-003
2.541719e+003, 1.956525e-003
2.543647e+003, 1.746523e-003
2.545576e+003, 1.895288e-003
2.547504e+003, 2.004656e-003
2.549433e+003, 1.618229e-003
2.551361e+003, 1.592356e-003
2.553290e+003, 1.502741e-003
2.555218e+003, 1.672409e-003
2.557147e+003, 1.823811e-003
2.559075e+003, 1.767516e-003
2.561004e+003, 1.880213e-003
2.562932e+003, 2.220145e-003
2.564861e+003, 2.203028e-003
2.566789e+003, 1.688908e-003
2.568718e+003, 1.680592e-003
2.570646e+003, 1.766950e-003
2.572574e+003, 1.935225e-003
2.574503e+003, 2.499788e-003
2.576431e+003, 2.605442e-003
2.578360e+003, 2.425013e-003
2.580288e+003, 2.519350e-003
2.582217e+003, 1.998765e-003
2.584145e+003, 2.025295e-003
2.586074e+003, 2.460832e-003
2.588002e+003, 2.396559e-003
2.589931e+003, 2.147116e-003
2.591859e+003, 2.452935e-003
2.593788e+003, 2.607609e-003
2.595716e+003, 2.393960e-003
2.597645e+003, 1.989944e-003
2.599573e+003, 2.201995e-003
2.601501e+003, 2.677182e-003
2.603430e+003, 2.509253e-003
2.605358e+003, 2.226074e-003
2.607287e+003, 2.253984e-003
2.609215e+003, 2.356113e-003
2.611144e+003, 2.402422e-003
2.613072e+003, 2.326398e-003
2.615001e+003, 3.069791e-003
2.616929e+003, 3.550940e-003
2.618858e+003, 3.177487e-003
2.620786e+003, 2.722392e-003
2.622715e+003, 2.488091e-003
2.624643e+003, 2.461066e-003
2.626572e+003, 2.670080e-003
2.628500e+003, 2.589243e-003
2.630428e+003, 2.650678e-003
2.632357e+003, 2.922392e-003
2.634285e+003, 2.737229e-003
2.636214e+003, 2.387763e-003
2.638142e+003, 2.462599e-003
2.640071e+003, 2.562744e-003
2.641999e+003, 2.590109e-003
2.643928e+003, 2.814226e-003
2.645856e+003, 2.780678e-003
2.647785e+003, 2.675915e-003
2.649713e+003, 2.787381e-003
2.651642e+003, 2.744298e-003
2.653570e+003, 2.845576e-003
2.655499e+003, 2.719424e-003
2.657427e+003, 2.538180e-003
2.659355e+003, 2.706521e-003
2.661284e+003, 2.807223e-003
2.663212e+003, 2.329696e-003
2.665141e+003, 1.980690e-003
2.667069e+003, 2.333260e-003
2.668998e+003, 2.666880e-003
2.670926e+003, 2.240361e-003
2.672855e+003, 2.164732e-003
2.674783e+003, 2.078760e-003
2.676712e+003, 1.939651e-003
2.678640e+003, 2.327564e-003
2.680569e+003, 2.536014e-003
2.682497e+003, 2.381266e-003
2.684426e+003, 2.078095e-003
2.686354e+003, 1.869764e-003
2.688282e+003, 2.053692e-003
2.690211e+003, 1.982687e-003
2.692139e+003, 1.891128e-003
2.694068e+003, 2.083455e-003
2.695996e+003, 2.325065e-003
2.697925e+003, 2.272635e-003
2.699853e+003, 2.247722e-003
2.701782e+003, 2.276832e-003
2.703710e+003, 2.126521e-003
2.705639e+003, 2.199661e-003
2.707567e+003, 2.306540e-003
2.709496e+003, 2.356784e-003
2.711424e+003, 2.163346e-003
2.713353e+003, 2.358930e-003
2.715281e+003, 2.859412e-003
2.717209e+003, 2.798529e-003
2.719138e+003, 2.876405e-003
2.721066e+003, 2.870049e-003
2.722995e+003, 2.844665e-003
2.724923e+003, 2.842702e-003
2.726852e+003, 2.649206e-003
2.728780e+003, 2.616772e-003
2.730709e+003, 2.556382e-003
2.732637e+003, 2.364868e-003
2.734566e+003, 2.284358e-003
2.736494e+003, 2.510170e-003
2.738423e+003, 2.593601e-003
2.740351e+003, 2.695529e-003
2.742280e+003, 2.717057e-003
2.744208e+003, 2.394294e-003
2.746136e+003, 2.518551e-003
2.748065e+003, 2.704263e-003
2.749993e+003, 2.466513e-003
2.751922e+003, 2.431676e-003
2.753850e+003, 2.579699e-003
2.755779e+003, 2.397688e-003
2.757707e+003, 2.328520e-003
2.759636e+003, 2.342923e-003
2.761564e+003, 2.316568e-003
2.763493e+003, 2.601467e-003
2.765421e+003, 3.046683e-003
2.767350e+003, 2.921073e-003
2.769278e+003, 2.600003e-003
2.771207e+003, 2.454200e-003
2.773135e+003, 2.593752e-003
2.775063e+003, 2.616876e-003
2.776992e+003, 2.510505e-003
2.778920e+003, 2.496217e-003
2.780849e+003, 2.704277e-003
2.782777e+003, 2.513499e-003
2.784706e+003, 2.440274e-003
2.786634e+003, 2.260260e-003
2.788563e+003, 2.278647e-003
2.790491e+003, 2.469274e-003
2.792420e+003, 2.671569e-003
2.794348e+003, 2.840011e-003
2.796277e+003, 2.511643e-003
2.798205e+003, 2.362487e-003
2.800134e+003, 2.434603e-003
2.802062e+003, 2.399843e-003
2.803990e+003, 2.166430e-003
2.805919e+003, 2.091628e-003
2.807847e+003, 2.478819e-003
2.809776e+003, 2.476792e-003
2.811704e+003, 2.133225e-003
2.813633e+003, 2.190576e-003
2.815561e+003, 2.201551e-003
2.817490e+003, 2.206138e-003
2.819418e+003, 2.015979e-003
2.821347e+003, 2.073025e-003
2.823275e+003, 2.364620e-003
2.825204e+003, 2.317972e-003
2.827132e+003, 2.026427e-003
2.829061e+003, 2.088592e-003
2.830989e+003, 2.156566e-003
2.832917e+003, 2.074504e-003
2.834846e+003, 1.999694e-003
2.836774e+003, 2.098560e-003
2.838703e+003, 2.547381e-003
2.840631e+003, 2.507053e-003
2.842560e+003, 2.658232e-003
2.844488e+003, 2.546795e-003
2.846417e+003, 2.261254e-003
2.848345e+003, 2.216693e-003
2.850274e+003, 2.230115e-003
2.852202e+003, 2.230440e-003
2.854131e+003, 1.990289e-003
2.856059e+003, 1.861419e-003
2.857988e+003, 2.246686e-003
2.859916e+003, 2.717278e-003
2.861844e+003, 2.712005e-003
2.863773e+003, 2.733246e-003
2.865701e+003, 2.718910e-003
2.867630e+003, 2.421519e-003
2.869558e+003, 2.079548e-003
2.871487e+003, 2.300166e-003
2.873415e+003, 3.086203e-003
2.875344e+003, 2.901332e-003
2.877272e+003, 2.133085e-003
2.879201e+003, 1.858362e-003
2.881129e+003, 1.996984e-003
2.883058e+003, 1.898889e-003
2.884986e+003, 2.306023e-003
2.886915e+003, 2.491693e-003
2.888843e+003, 2.505979e-003
2.890771e+003, 2.720543e-003
2.892700e+003, 2.651225e-003
2.894628e+003, 2.448582e-003
2.896557e+003, 2.527709e-003
2.898485e+003, 2.796841e-003
2.900414e+003, 2.782863e-003
2.902342e+003, 2.354200e-003
2.904271e+003, 2.367766e-003
2.906199e+003, 2.320038e-003
2.908128e+003, 1.977378e-003
2.910056e+003, 2.055699e-003
2.911985e+003, 2.580457e-003
2.913913e+003, 2.746044e-003
2.915842e+003, 2.677870e-003
2.917770e+003, 2.656270e-003
2.919698e+003, 2.737649e-003
2.921627e+003, 2.678463e-003
2.923555e+003, 2.495526e-003
2.925484e+003, 2.594670e-003
2.927412e+003, 2.590539e-003
2.929341e+003, 2.444425e-003
2.931269e+003, 2.182288e-003
2.933198e+003, 2.484923e-003
2.935126e+003, 2.885504e-003
2.937055e+003, 3.000522e-003
2.938983e+003, 2.890720e-003
2.940912e+003, 2.813824e-003
2.942840e+003, 2.780556e-003
2.944769e+003, 2.646987e-003
2.946697e+003, 2.172629e-003
2.948625e+003, 2.135152e-003
2.950554e+003, 2.190273e-003
2.952482e+003, 2.343358e-003
2.954411e+003, 2.155995e-003
2.956339e+003, 2.507615e-003
2.958268e+003, 3.036649e-003
2.960196e+003, 3.038865e-003
2.962125e+003, 3.488950e-003
2.964053e+003, 3.657413e-003
2.965982e+003, 2.951180e-003
2.967910e+003, 2.683441e-003
2.969839e+003, 2.683849e-003
2.971767e+003, 2.428390e-003
2.973696e+003, 2.228171e-003
2.975624e+003, 2.020356e-003
2.977552e+003, 1.701068e-003
2.979481e+003, 2.398236e-003
2.981409e+003, 3.284079e-003
2.983338e+003, 3.269891e-003
2.985266e+003, 2.938915e-003
2.987195e+003, 2.914808e-003
2.989123e+003, 2.668194e-003
2.991052e+003, 2.626516e-003
2.992980e+003, 2.892536e-003
2.994909e+003, 2.914848e-003
2.996837e+003, 3.071869e-003
2.998766e+003, 2.867771e-003
3.000694e+003, 3.054027e-003
3.002623e+003, 2.942867e-003
3.004551e+003, 2.733655e-003
3.006479e+003, 3.072872e-003
3.008408e+003, 3.141827e-003
3.010336e+003, 2.979369e-003
3.012265e+003, 3.213464e-003
3.014193e+003, 3.635356e-003
3.016122e+003, 3.399069e-003
3.018050e+003, 3.063472e-003
3.019979e+003, 3.328579e-003
3.021907e+003, 3.201336e-003
3.023836e+003, 2.801908e-003
3.025764e+003, 2.491591e-003
3.027693e+003, 2.416284e-003
3.029621e+003, 2.755882e-003
3.031550e+003, 2.563606e-003
3.033478e+003, 2.436419e-003
3.035406e+003, 2.378381e-003
3.037335e+003, 2.520604e-003
3.039263e+003, 3.098013e-003
3.041192e+003, 2.908112e-003
3.043120e+003, 2.526606e-003
3.045049e+003, 2.678374e-003
3.046977e+003, 2.979697e-003
3.048906e+003, 2.515404e-003
3.050834e+003, 2.431400e-003
3.052763e+003, 3.027313e-003
3.054691e+003, 3.198182e-003
3.056620e+003, 3.010228e-003
3.058548e+003, 3.107877e-003
3.060477e+003, 3.128237e-003
3.062405e+003, 2.969785e-003
3.064333e+003, 2.308227e-003
3.066262e+003, 2.169956e-003
3.068190e+003, 2.757611e-003
3.070119e+003, 2.567387e-003
3.072047e+003, 2.206051e-003
3.073976e+003, 2.302438e-003
3.075904e+003, 2.270892e-003
3.077833e+003, 2.387359e-003
3.079761e+003, 2.560426e-003
3.081690e+003, 2.700918e-003
3.083618e+003, 3.058404e-003
3.085547e+003, 3.291399e-003
3.087475e+003, 3.196171e-003
3.089404e+003, 3.124981e-003
3.091332e+003, 2.620844e-003
3.093260e+003, 3.039646e-003
3.095189e+003, 3.395126e-003
3.097117e+003, 3.258730e-003
3.099046e+003, 3.126616e-003
3.100974e+003, 3.045630e-003
3.102903e+003, 3.505530e-003
3.104831e+003, 3.518322e-003
3.106760e+003, 3.403355e-003
3.108688e+003, 3.446416e-003
3.110617e+003, 3.451306e-003
3.112545e+003, 3.711916e-003
3.114474e+003, 3.889248e-003
3.116402e+003, 3.421023e-003
3.118331e+003, 2.945712e-003
3.120259e+003, 2.606377e-003
3.122188e+003, 2.140288e-003
3.124116e+003, 2.009607e-003
3.126044e+003, 2.661520e-003
3.127973e+003, 3.041244e-003
3.129901e+003, 3.073237e-003
3.131830e+003, 3.178015e-003
3.133758e+003, 2.684557e-003
3.135687e+003, 2.236964e-003
3.137615e+003, 2.415920e-003
3.139544e+003, 2.609737e-003
3.141472e+003, 3.101849e-003
3.143401e+003, 3.325616e-003
3.145329e+003, 3.176518e-003
3.147258e+003, 2.854377e-003
3.149186e+003, 2.833870e-003
3.151115e+003, 3.212701e-003
3.153043e+003, 3.324706e-003
3.154971e+003, 3.073262e-003
3.156900e+003, 2.972598e-003
3.158828e+003, 2.901244e-003
3.160757e+003, 2.870424e-003
3.162685e+003, 3.173248e-003
3.164614e+003, 3.444855e-003
3.166542e+003, 3.240474e-003
3.168471e+003, 2.578043e-003
3.170399e+003, 2.390028e-003
3.172328e+003, 2.571577e-003
3.174256e+003, 2.373170e-003
3.176185e+003, 2.462365e-003
3.178113e+003, 3.014736e-003
3.180042e+003, 3.220746e-003
3.181970e+003, 3.572153e-003
3.183898e+003, 3.697717e-003
3.185827e+003, 3.420141e-003
3.187755e+003, 2.950246e-003
3.189684e+003, 2.825432e-003
3.191612e+003, 2.672714e-003
3.193541e+003, 2.582509e-003
3.195469e+003, 2.702753e-003
3.197398e+003, 3.315758e-003
3.199326e+003, 3.867410e-003
3.201255e+003, 3.745173e-003
3.203183e+003, 3.435170e-003
3.205112e+003, 3.352419e-003
3.207040e+003, 3.313754e-003
3.208969e+003, 3.345374e-003
3.210897e+003, 3.538513e-003
3.212825e+003, 2.963023e-003
3.214754e+003, 2.605675e-003
3.216682e+003, 2.799786e-003
3.218611e+003, 3.339464e-003
3.220539e+003, 2.974600e-003
3.222468e+003, 3.123452e-003
3.224396e+003, 3.810449e-003
3.226325e+003, 3.339631e-003
3.228253e+003, 2.709321e-003
3.230182e+003, 2.799419e-003
3.232110e+003, 2.994417e-003
3.234039e+003, 3.149785e-003
3.235967e+003, 3.290183e-003
3.237896e+003, 3.386646e-003
3.239824e+003, 3.682045e-003
3.241752e+003, 3.425318e-003
3.243681e+003, 3.350984e-003
3.245609e+003, 3.036023e-003
3.247538e+003, 3.036023e-003
3.249466e+003, 3.069057e-003
3.251395e+003, 2.678082e-003
3.253323e+003, 2.630576e-003
3.255252e+003, 2.605675e-003
3.257180e+003, 2.636143e-003
3.259109e+003, 2.925227e-003
3.261037e+003, 3.239673e-003
3.262966e+003, 3.557320e-003
3.264894e+003, 3.915051e-003
3.266823e+003, 3.479924e-003
3.268751e+003, 3.139038e-003
3.270679e+003, 2.725326e-003
3.272608e+003, 2.433343e-003
3.274536e+003, 3.057579e-003
3.276465e+003, 3.471006e-003
3.278393e+003, 3.879245e-003
3.280322e+003, 3.947651e-003
3.282250e+003, 3.665504e-003
3.284179e+003, 3.953836e-003
3.286107e+003, 3.892919e-003
3.288036e+003, 3.172046e-003
3.289964e+003, 3.439211e-003
3.291893e+003, 3.509852e-003
3.293821e+003, 2.552012e-003
3.295750e+003, 2.420614e-003
3.297678e+003, 3.191706e-003
3.299606e+003, 3.199383e-003
3.301535e+003, 3.093651e-003
3.303463e+003, 3.446725e-003
3.305392e+003, 3.235601e-003
3.307320e+003, 2.968095e-003
3.309249e+003, 2.896007e-003
3.311177e+003, 3.224051e-003
3.313106e+003, 3.766663e-003
3.315034e+003, 3.556051e-003
3.316963e+003, 2.955651e-003
3.318891e+003, 2.931365e-003
3.320820e+003, 3.323437e-003
3.322748e+003, 3.448629e-003
3.324677e+003, 3.119548e-003
3.326605e+003, 2.850412e-003
3.328533e+003, 2.924494e-003
3.330462e+003, 3.190137e-003
3.332390e+003, 3.656382e-003
3.334319e+003, 4.020248e-003
3.336247e+003, 3.499030e-003
3.338176e+003, 3.334422e-003
3.340104e+003, 3.519272e-003
3.342033e+003, 3.383073e-003
3.343961e+003, 3.395496e-003
3.345890e+003, 2.755502e-003
3.347818e+003, 2.578576e-003
3.349747e+003, 3.520975e-003
3.351675e+003, 4.183677e-003
3.353604e+003, 3.809145e-003
3.355532e+003, 3.658755e-003
3.357460e+003, 3.685721e-003
3.359389e+003, 3.376795e-003
3.361317e+003, 3.248219e-003
3.363246e+003, 3.341033e-003
3.365174e+003, 3.439411e-003
3.367103e+003, 3.339163e-003
3.369031e+003, 3.444922e-003
3.370960e+003, 3.243278e-003
3.372888e+003, 3.309848e-003
3.374817e+003, 4.035498e-003
3.376745e+003, 3.657719e-003
3.378674e+003, 3.216273e-003
3.380602e+003, 3.312352e-003
3.382531e+003, 3.376929e-003
3.384459e+003, 3.507280e-003
3.386387e+003, 3.432798e-003
3.388316e+003, 3.483131e-003
3.390244e+003, 3.820410e-003
3.392173e+003, 3.444955e-003
3.394101e+003, 3.084508e-003
3.396030e+003, 3.366711e-003
3.397958e+003, 3.208929e-003
3.399887e+003, 3.144011e-003
3.401815e+003, 3.583445e-003
3.403744e+003, 3.496591e-003
3.405672e+003, 3.568779e-003
3.407601e+003, 4.214323e-003
3.409529e+003, 4.010750e-003
3.411458e+003, 3.491180e-003
3.413386e+003, 3.830939e-003
3.415314e+003, 3.869684e-003
3.417243e+003, 3.342068e-003
3.419171e+003, 3.403477e-003
3.421100e+003, 3.444721e-003
3.423028e+003, 3.321500e-003
3.424957e+003, 3.491481e-003
3.426885e+003, 3.616755e-003
3.428814e+003, 3.310416e-003
3.430742e+003, 3.051839e-003
3.432671e+003, 3.103229e-003
3.434599e+003, 3.196312e-003
3.436528e+003, 3.105865e-003
3.438456e+003, 3.237370e-003
3.440385e+003, 3.354890e-003
3.442313e+003, 2.897808e-003
3.444241e+003, 2.354481e-003
3.446170e+003, 2.537347e-003
3.448098e+003, 3.534137e-003
3.450027e+003, 3.802059e-003
3.451955e+003, 3.204824e-003
3.453884e+003, 3.010999e-003
3.455812e+003, 3.013568e-003
3.457741e+003, 3.366577e-003
3.459669e+003, 3.630587e-003
3.461598e+003, 3.797279e-003
3.463526e+003, 4.031719e-003
3.465455e+003, 3.382873e-003
3.467383e+003, 3.270620e-003
3.469312e+003, 3.661595e-003
3.471240e+003, 3.733408e-003
3.473168e+003, 3.701126e-003
3.475097e+003, 3.488608e-003
3.477025e+003, 3.234966e-003
3.478954e+003, 3.760112e-003
3.480882e+003, 4.164541e-003
3.482811e+003, 4.003159e-003
3.484739e+003, 4.188461e-003
3.486668e+003, 3.784511e-003
3.488596e+003, 3.193341e-003
3.490525e+003, 3.556852e-003
3.492453e+003, 3.940964e-003
3.494382e+003, 4.127276e-003
3.496310e+003, 4.022488e-003
3.498239e+003, 3.498362e-003
3.500167e+003, 3.289683e-003
3.502095e+003, 2.992749e-003
3.504024e+003, 2.561144e-003
3.505952e+003, 2.642710e-003
3.507881e+003, 2.788881e-003
3.509809e+003, 3.712087e-003
3.511738e+003, 4.663315e-003
3.513666e+003, 4.751139e-003
3.515595e+003, 3.791731e-003
3.517523e+003, 3.533569e-003
3.519452e+003, 3.627079e-003
3.521380e+003, 3.647694e-003
3.523309e+003, 3.373222e-003
3.525237e+003, 3.112272e-003
3.527166e+003, 3.724887e-003
3.529094e+003, 4.140757e-003
3.531022e+003, 3.787018e-003
3.532951e+003, 3.507714e-003
3.534879e+003, 3.179389e-003
3.536808e+003, 3.069458e-003
3.538736e+003, 2.805022e-003
3.540665e+003, 2.888535e-003
3.542593e+003, 3.538847e-003
3.544522e+003, 3.359131e-003
3.546450e+003, 2.549912e-003
3.548379e+003, 1.968641e-003
3.550307e+003, 2.039177e-003
3.552236e+003, 2.201729e-003
3.554164e+003, 2.559911e-003
3.556093e+003, 3.162234e-003
3.558021e+003, 2.822130e-003
3.559949e+003, 1.924009e-003
3.561878e+003, 2.397525e-003
3.563806e+003, 2.985109e-003
3.565735e+003, 2.528549e-003
3.567663e+003, 2.417616e-003
3.569592e+003, 3.066188e-003
3.571520e+003, 2.745765e-003
3.573449e+003, 2.312540e-003
3.575377e+003, 3.173815e-003
3.577306e+003, 3.765192e-003
3.579234e+003, 3.194944e-003
3.581163e+003, 3.263809e-003
3.583091e+003, 3.100225e-003
3.585020e+003, 2.507720e-003
3.586948e+003, 1.474713e-003
3.588876e+003, 1.281326e-003
3.590805e+003, 2.020735e-003
3.592733e+003, 2.337424e-003
3.594662e+003, 2.636943e-003
3.596590e+003, 2.925794e-003
3.598519e+003, 2.293786e-003
3.600447e+003, 1.835457e-003
3.602376e+003, 1.956525e-003
3.604304e+003, 2.899909e-003
3.606233e+003, 3.639943e-003
3.608161e+003, 3.350049e-003
3.610090e+003, 3.198882e-003
3.612018e+003, 2.748666e-003
3.613947e+003, 1.840947e-003
3.615875e+003, 2.815627e-003
3.617803e+003, 3.155358e-003
3.619732e+003, 3.047168e-003
3.621660e+003, 2.937470e-003
3.623589e+003, 2.231103e-003
3.625517e+003, 2.630876e-003
3.627446e+003, 2.800987e-003
3.629374e+003, 2.260845e-003
3.631303e+003, 1.727029e-003
3.633231e+003, 1.864573e-003
3.635160e+003, 1.921313e-003
3.637088e+003, 1.753210e-003
3.639017e+003, 1.929700e-003
3.640945e+003, 1.436913e-003
3.642874e+003, 1.427339e-003
3.644802e+003, 1.816857e-003
3.646730e+003, 2.461699e-003
3.648659e+003, 2.386563e-003
3.650587e+003, 2.471896e-003
3.652516e+003, 2.514385e-003
3.654444e+003, 2.486425e-003
3.656373e+003, 2.527249e-003
3.658301e+003, 1.731087e-003
3.660230e+003, 1.682022e-003
3.662158e+003, 2.076596e-003
3.664087e+003, 1.842311e-003
3.666015e+003, 1.644371e-003
3.667944e+003, 1.651455e-003
3.669872e+003, 2.169260e-003
3.671801e+003, 2.615276e-003
3.673729e+003, 2.530615e-003
3.675657e+003, 1.750948e-003
3.677586e+003, 1.631566e-003
3.679514e+003, 1.985683e-003
3.681443e+003, 2.253084e-003
3.683371e+003, 3.044532e-003
3.685300e+003, 3.178321e-003
3.687228e+003, 2.986110e-003
3.689157e+003, 1.939884e-003
3.691085e+003, 1.124699e-003
3.693014e+003, 1.177754e-003
3.694942e+003, 2.003125e-003
3.696871e+003, 2.178285e-003
3.698799e+003, 1.517570e-003
3.700728e+003, 2.242160e-003
3.702656e+003, 2.430377e-003
3.704584e+003, 1.660768e-003
3.706513e+003, 1.306915e-003
3.708441e+003, 1.826107e-003
3.710370e+003, 2.438974e-003
3.712298e+003, 1.936922e-003
3.714227e+003, 1.178153e-003
3.716155e+003, 1.503406e-003
3.718084e+003, 1.846903e-003
3.720012e+003, 1.054876e-003
3.721941e+003, 1.874522e-003
3.723869e+003, 2.889936e-003
3.725798e+003, 3.097522e-003
3.727726e+003, 1.890562e-003
3.729655e+003, 1.507262e-003
3.731583e+003, 2.281762e-003
3.733511e+003, 2.345886e-003
3.735440e+003, 1.962117e-003
3.737368e+003, 2.856482e-003
3.739297e+003, 2.876828e-003
3.741225e+003, 2.399957e-003
3.743154e+003, 2.433742e-003
3.745082e+003, 2.173056e-003
3.747011e+003, 2.293553e-003
3.748939e+003, 2.023231e-003
3.750868e+003, 1.626677e-003
3.752796e+003, 2.014610e-003
3.754725e+003, 1.465104e-003
3.756653e+003, 1.400479e-003
3.758582e+003, 1.296015e-003
3.760510e+003, 1.557671e-003
3.762438e+003, 3.189503e-003
3.764367e+003, 2.585676e-003
3.766295e+003, 1.605592e-003
3.768224e+003, 2.765072e-003
3.770152e+003, 2.713823e-003
3.772081e+003, 1.991808e-003
3.774009e+003, 2.786314e-003
3.775938e+003, 3.001157e-003
3.777866e+003, 2.720824e-003
3.779795e+003, 2.557645e-003
3.781723e+003, 1.690371e-003
3.783652e+003, 1.185296e-003
3.785580e+003, 1.757735e-003
3.787509e+003, 2.238163e-003
3.789437e+003, 2.460499e-003
3.791365e+003, 1.824942e-003
3.793294e+003, 1.366375e-003
3.795222e+003, 9.558416e-004
3.797151e+003, 1.356636e-003
3.799079e+003, 1.575395e-003
3.801008e+003, 2.523716e-003
3.802936e+003, 2.221478e-003
3.804865e+003, 2.672047e-003
3.806793e+003, 2.947544e-003
3.808722e+003, 2.521184e-003
3.810650e+003, 2.213452e-003
3.812579e+003, 2.397525e-003
3.814507e+003, 2.400657e-003
3.816436e+003, 2.381699e-003
3.818364e+003, 2.531015e-003
3.820292e+003, 2.659579e-003
3.822221e+003, 1.595914e-003
3.824149e+003, 1.322137e-003
3.826078e+003, 1.880047e-003
3.828006e+003, 2.159237e-003
3.829935e+003, 2.477527e-003
3.831863e+003, 2.819896e-003
3.833792e+003, 1.924574e-003
3.835720e+003, 1.526547e-003
3.837649e+003, 1.834824e-003
3.839577e+003, 2.258613e-003
3.841506e+003, 2.590642e-003
3.843434e+003, 2.015142e-003
3.845363e+003, 9.925369e-004
3.847291e+003, 1.164631e-003
3.849219e+003, 2.164132e-003
3.851148e+003, 2.085619e-003
3.853076e+003, 1.994404e-003
3.855005e+003, 2.186943e-003
3.856933e+003, 1.903575e-003
3.858862e+003, 1.699219e-003
3.860790e+003, 1.779060e-003
3.862719e+003, 2.136761e-003
3.864647e+003, 2.683549e-003
3.866576e+003, 2.997854e-003
3.868504e+003, 2.918189e-003
3.870433e+003, 2.582309e-003
3.872361e+003, 2.148881e-003
3.874290e+003, 2.128037e-003
3.876218e+003, 2.327097e-003
3.878146e+003, 1.876020e-003
3.880075e+003, 1.532832e-003
3.882003e+003, 1.452937e-003
3.883932e+003, 1.448714e-003
3.885860e+003, 9.906772e-004
3.887789e+003, 1.424546e-003
3.889717e+003, 2.713089e-003
3.891646e+003, 2.533315e-003
3.893574e+003, 1.901145e-003
3.895503e+003, 1.663130e-003
3.897431e+003, 1.881344e-003
3.899360e+003, 1.850264e-003
3.901288e+003, 1.566350e-003
3.903217e+003, 1.245537e-003
3.905145e+003, 4.489331e-004
3.907073e+003, 1.146558e-003
3.909002e+003, 1.789174e-003
3.910930e+003, 1.942181e-003
3.912859e+003, 2.589809e-003
3.914787e+003, 2.374570e-003
3.916716e+003, 1.749185e-003
3.918644e+003, 1.491835e-003
3.920573e+003, 1.384424e-003
3.922501e+003, 2.306611e-003
3.924430e+003, 2.626509e-003
3.926358e+003, 1.903208e-003
3.928287e+003, 2.125473e-003
3.930215e+003, 2.717857e-003
3.932144e+003, 2.492457e-003
3.934072e+003, 2.771641e-003
3.936000e+003, 3.585483e-003
3.937929e+003, 3.536208e-003
3.939857e+003, 3.550238e-003
3.941786e+003, 3.667409e-003
3.943714e+003, 3.179990e-003
3.945643e+003, 2.657379e-003
3.947571e+003, 2.891504e-003
3.949500e+003, 2.827533e-003
3.951428e+003, 2.167062e-003
3.953357e+003, 1.486748e-003
3.955285e+003, 1.518468e-003
3.957214e+003, 1.714721e-003
3.959142e+003, 2.309009e-003
3.961071e+003, 2.416816e-003
3.962999e+003, 2.821463e-003
3.964927e+003, 2.528616e-003
3.966856e+003, 2.134396e-003
3.968784e+003, 2.076130e-003
3.970713e+003, 1.683020e-003
3.972641e+003, 1.375782e-003
3.974570e+003, 1.420491e-003
3.976498e+003, 1.036609e-003
3.978427e+003, 1.670148e-003
3.980355e+003, 2.429344e-003
3.982284e+003, 2.238496e-003
3.984212e+003, 2.804655e-003
3.986141e+003, 3.545394e-003
3.988069e+003, 3.426921e-003
3.989998e+003, 2.733195e-003
3.991926e+003, 2.396392e-003
3.993854e+003, 1.780058e-003
3.995783e+003, 1.656012e-003
3.997711e+003, 2.543913e-003
3.999640e+003, 2.543913e-003
4.001568e+003, 0.000000e+000
##END=



