##NAMES=Andradite
##RRUFFID=R050377
##IDEAL CHEMISTRY=Ca_3_Fe^3+^_2_(SiO_4_)_3_
##LOCALITY=Zlatoust District, South Urals, Russia
##OWNER=RRUFF
##SOURCE=University of Arizona Mineral Museum
##DESCRIPTION=Dark red cubes
##STATUS=The identification of this mineral has been confirmed by X-ray diffraction and chemical analysis
##URL=rruff.info/R050377
##MEASURED CHEMISTRY=Ca_3.00_(Fe^3+^_1.48_Ti_0.31_Mg_0.14_Zr_0.07_)_Σ=2_(Si_2.73_Al_0.24_Ti_0.03_)_Σ=3_O_12_
399.1926, 0.2098943
401.1211, 0.2149605
403.0496, 0.2159939
404.9780, 0.2060629
406.9065, 0.2052370
408.8350, 0.2014900
410.7634, 0.1947620
412.6919, 0.1949101
414.6204, 0.1954619
416.5488, 0.1941123
418.4773, 0.1967134
420.4058, 0.2045279
422.3342, 0.2137507
424.2627, 0.2223331
426.1912, 0.2292106
428.1196, 0.2366607
430.0481, 0.2375975
431.9766, 0.2364523
433.9050, 0.2323140
435.8335, 0.2259793
437.7620, 0.2159620
439.6904, 0.2042151
441.6189, 0.1951853
443.5474, 0.1892162
445.4758, 0.1837002
447.4043, 0.1766423
449.3328, 0.1692617
451.2612, 0.1646973
453.1897, 0.1588179
455.1182, 0.1545537
457.0466, 0.1535781
458.9751, 0.1525903
460.9036, 0.1503597
462.8320, 0.1468983
464.7605, 0.1443516
466.6890, 0.1433143
468.6174, 0.1426809
470.5459, 0.1425810
472.4744, 0.1430740
474.4028, 0.1431673
476.3313, 0.1415921
478.2598, 0.1373648
480.1882, 0.1328560
482.1167, 0.1293065
484.0452, 0.1274467
485.9736, 0.1267565
487.9021, 0.1270960
489.8306, 0.1296159
491.7590, 0.1344718
493.6875, 0.1402522
495.6160, 0.1472626
497.5444, 0.1550098
499.4729, 0.1636095
501.4014, 0.1746052
503.3298, 0.1846326
505.2583, 0.1930012
507.1868, 0.2014083
509.1152, 0.2055523
511.0437, 0.2064142
512.9722, 0.2059565
514.9006, 0.2029993
516.8291, 0.2002232
518.7576, 0.1965673
520.6860, 0.1929086
522.6145, 0.1902801
524.5430, 0.1878936
526.4714, 0.1856666
528.3999, 0.1834655
530.3284, 0.1808041
532.2568, 0.1797182
534.1853, 0.1792081
536.1138, 0.1792343
538.0422, 0.1810826
539.9707, 0.1839620
541.8992, 0.1884477
543.8276, 0.1935664
545.7561, 0.1986226
547.6846, 0.2039682
549.6130, 0.2097059
551.5415, 0.2145023
553.4700, 0.2182018
555.3984, 0.2228620
557.3269, 0.2272670
559.2554, 0.2308659
561.1838, 0.2346461
563.1123, 0.2377449
565.0408, 0.2406121
566.9692, 0.2445900
568.8977, 0.2483625
570.8262, 0.2509147
572.7546, 0.2526165
574.6831, 0.2536913
576.6116, 0.2537879
578.5400, 0.2538215
580.4685, 0.2533865
582.3970, 0.2522816
584.3254, 0.2511790
586.2539, 0.2493763
588.1824, 0.2462709
590.1108, 0.2421202
592.0393, 0.2388467
593.9678, 0.2360629
595.8962, 0.2320602
597.8247, 0.2292535
599.7532, 0.2276159
601.6816, 0.2258544
603.6101, 0.2249026
605.5386, 0.2243784
607.4670, 0.2233550
609.3955, 0.2225121
611.3240, 0.2207636
613.2524, 0.2188153
615.1809, 0.2183784
617.1094, 0.2175071
619.0378, 0.2159926
620.9663, 0.2152259
622.8948, 0.2154454
624.8232, 0.2148001
626.7517, 0.2131044
628.6802, 0.2119921
630.6086, 0.2115695
632.5371, 0.2109029
634.4656, 0.2096651
636.3940, 0.2083022
638.3225, 0.2072196
640.2510, 0.2058250
642.1794, 0.2050215
644.1079, 0.2045530
646.0364, 0.2029991
647.9648, 0.2009271
649.8933, 0.1992322
651.8218, 0.1973076
653.7502, 0.1948377
655.6787, 0.1929324
657.6072, 0.1918380
659.5356, 0.1903478
661.4641, 0.1882311
663.3926, 0.1857799
665.3210, 0.1833664
667.2495, 0.1815841
669.1780, 0.1794148
671.1064, 0.1774175
673.0349, 0.1763400
674.9634, 0.1752162
676.8918, 0.1735084
678.8203, 0.1723910
680.7488, 0.1719048
682.6772, 0.1714411
684.6057, 0.1710282
686.5342, 0.1706841
688.4626, 0.1702792
690.3911, 0.1699265
692.3196, 0.1685961
694.2480, 0.1668018
696.1765, 0.1654381
698.1050, 0.1640436
700.0334, 0.1623414
701.9619, 0.1615635
703.8904, 0.1609585
705.8188, 0.1596393
707.7473, 0.1587401
709.6758, 0.1586363
711.6042, 0.1584947
713.5327, 0.1582889
715.4612, 0.1580951
717.3896, 0.1580220
719.3181, 0.1578505
721.2466, 0.1581254
723.1750, 0.1592015
725.1035, 0.1602549
727.0320, 0.1608010
728.9604, 0.1617057
730.8889, 0.1629513
732.8174, 0.1639263
734.7458, 0.1649718
736.6743, 0.1657677
738.6028, 0.1661952
740.5313, 0.1665692
742.4597, 0.1672575
744.3882, 0.1682308
746.3167, 0.1688242
748.2451, 0.1692929
750.1736, 0.1699671
752.1021, 0.1708167
754.0305, 0.1715571
755.9590, 0.1719703
757.8875, 0.1724363
759.8159, 0.1729056
761.7444, 0.1731506
763.6729, 0.1734938
765.6013, 0.1740837
767.5298, 0.1750162
769.4583, 0.1757603
771.3867, 0.1771216
773.3152, 0.1788159
775.2437, 0.1799822
777.1721, 0.1815362
779.1006, 0.1833141
781.0291, 0.1854414
782.9575, 0.1877245
784.8860, 0.1900458
786.8145, 0.1930354
788.7429, 0.1960894
790.6714, 0.1987393
792.5999, 0.2012637
794.5283, 0.2042151
796.4568, 0.2074495
798.3853, 0.2096575
800.3137, 0.2119188
802.2422, 0.2140763
804.1707, 0.2156197
806.0991, 0.2165884
808.0276, 0.2169522
809.9561, 0.2170030
811.8845, 0.2166627
813.8130, 0.2158628
815.7415, 0.2154910
817.6699, 0.2154592
819.5984, 0.2149615
821.5269, 0.2146778
823.4553, 0.2139844
825.3838, 0.2126612
827.3123, 0.2105897
829.2407, 0.2085016
831.1692, 0.2061333
833.0977, 0.2033711
835.0261, 0.2000256
836.9546, 0.1959940
838.8831, 0.1918144
840.8115, 0.1878896
842.7400, 0.1838454
844.6685, 0.1793537
846.5969, 0.1745117
848.5254, 0.1695497
850.4539, 0.1648249
852.3823, 0.1604444
854.3108, 0.1561644
856.2393, 0.1525489
858.1677, 0.1495555
860.0962, 0.1474272
862.0247, 0.1464021
863.9531, 0.1461894
865.8816, 0.1469720
867.8101, 0.1489178
869.7385, 0.1518076
871.6670, 0.1557926
873.5955, 0.1612444
875.5239, 0.1677524
877.4524, 0.1740194
879.3809, 0.1799852
881.3093, 0.1847703
883.2378, 0.1877546
885.1663, 0.1890200
887.0947, 0.1885577
889.0232, 0.1866615
890.9517, 0.1834521
892.8801, 0.1792153
894.8085, 0.1747736
896.7370, 0.1704700
898.6655, 0.1663676
900.5939, 0.1629205
902.5224, 0.1604092
904.4509, 0.1586808
906.3793, 0.1575008
908.3078, 0.1570670
910.2363, 0.1571784
912.1647, 0.1568300
914.0932, 0.1555884
916.0217, 0.1536101
917.9501, 0.1513227
919.8786, 0.1485119
921.8071, 0.1452931
923.7355, 0.1420111
925.6640, 0.1387440
927.5925, 0.1359443
929.5209, 0.1334366
931.4494, 0.1310542
933.3779, 0.1285956
935.3063, 0.1259430
937.2348, 0.1237300
939.1633, 0.1210897
941.0917, 0.1184512
943.0202, 0.1155168
944.9487, 0.1119750
946.8771, 0.1083675
948.8056, 0.1049492
950.7341, 0.1015875
952.6625, 9.8285578E-02
954.5910, 9.5192634E-02
956.5195, 9.1806218E-02
958.4479, 8.8486813E-02
960.3764, 8.5247681E-02
962.3049, 8.2137331E-02
964.2333, 7.9233229E-02
966.1618, 7.5971179E-02
968.0903, 7.2491527E-02
970.0187, 6.9408543E-02
971.9472, 6.6709377E-02
973.8757, 6.4083584E-02
975.8041, 6.1330799E-02
977.7326, 5.8526240E-02
979.6611, 5.6061640E-02
981.5895, 5.3802140E-02
983.5180, 5.1740378E-02
985.4465, 4.9912039E-02
987.3749, 4.7983021E-02
989.3034, 4.6262600E-02
991.2319, 4.4826038E-02
993.1603, 4.3152340E-02
995.0888, 4.1026700E-02
997.0173, 3.9195351E-02
998.9457, 3.7789650E-02
1000.874, 3.6316499E-02
1002.803, 3.5171218E-02
1004.731, 3.4445651E-02
1006.660, 3.3742119E-02
1008.588, 3.2950621E-02
1010.517, 3.2326739E-02
1012.445, 3.1687390E-02
1014.373, 3.1073790E-02
1016.302, 3.0112300E-02
1018.230, 2.9046839E-02
1020.159, 2.8557731E-02
1022.087, 2.8022621E-02
1024.016, 2.7449690E-02
1025.944, 2.6940091E-02
1027.873, 2.6588511E-02
1029.801, 2.6382141E-02
1031.730, 2.5850780E-02
1033.658, 2.5536740E-02
1035.587, 2.5424270E-02
1037.515, 2.5446439E-02
1039.444, 2.5279939E-02
1041.372, 2.4872450E-02
1043.301, 2.4818270E-02
1045.229, 2.4726510E-02
1047.157, 2.4535870E-02
1049.086, 2.4479991E-02
1051.014, 2.4243040E-02
1052.943, 2.4148731E-02
1054.871, 2.3924571E-02
1056.800, 2.3567570E-02
1058.728, 2.3330741E-02
1060.657, 2.3084490E-02
1062.585, 2.2724450E-02
1064.514, 2.2612620E-02
1066.442, 2.2489190E-02
1068.371, 2.1923680E-02
1070.299, 2.1539681E-02
1072.228, 2.1326110E-02
1074.156, 2.1207521E-02
1076.084, 2.1035610E-02
1078.013, 2.0747270E-02
1079.941, 2.0695969E-02
1081.870, 2.0736190E-02
1083.798, 2.0529080E-02
1085.727, 2.0203860E-02
1087.655, 1.9976020E-02
1089.584, 1.9716380E-02
1091.512, 1.9396299E-02
1093.441, 1.9102089E-02
1095.369, 1.8489631E-02
1097.298, 1.8053630E-02
1099.226, 1.7840371E-02
1101.155, 1.7657001E-02
1103.083, 1.7556870E-02
1105.011, 1.7258359E-02
1106.940, 1.6912909E-02
1108.868, 1.6938150E-02
1110.797, 1.6998369E-02
1112.725, 1.6717670E-02
1114.654, 1.6312329E-02
1116.582, 1.6007420E-02
1118.511, 1.5759921E-02
1120.439, 1.5905799E-02
1122.368, 1.5901240E-02
1124.296, 1.5648341E-02
1126.225, 1.5520730E-02
1128.153, 1.5469870E-02
1130.082, 1.5473560E-02
1132.010, 1.5438570E-02
1133.938, 1.5154570E-02
1135.867, 1.4830150E-02
1137.795, 1.4488370E-02
1139.724, 1.4178960E-02
1141.652, 1.3904740E-02
1143.581, 1.3862300E-02
1145.509, 1.3921000E-02
1147.438, 1.3816060E-02
1149.366, 1.3725860E-02
1151.295, 1.3705450E-02
1153.223, 1.3620450E-02
1155.152, 1.3418790E-02
1157.080, 1.2945470E-02
1159.009, 1.2828750E-02
1160.937, 1.2805270E-02
1162.865, 1.2702850E-02
1164.794, 1.2681460E-02
1166.722, 1.2792880E-02
1168.651, 1.2527660E-02
1170.579, 1.2366400E-02
1172.508, 1.2400190E-02
1174.436, 1.2219190E-02
1176.365, 1.2310360E-02
1178.293, 1.2405860E-02
1180.222, 1.2397550E-02
1182.150, 1.2149100E-02
1184.079, 1.2034480E-02
1186.007, 1.2258880E-02
1187.936, 1.2533710E-02
1189.864, 1.2353380E-02
1191.792, 1.2155570E-02
1193.721, 1.2141070E-02
1195.649, 1.2025160E-02
1197.578, 1.1993760E-02
1199.506, 1.2104590E-02
1201.435, 1.2223840E-02
1203.363, 1.2079280E-02
1205.292, 1.2056620E-02
1207.220, 1.2529480E-02
1209.149, 1.2652120E-02
1211.077, 1.2524750E-02
1213.006, 1.2272610E-02
1214.934, 1.2179360E-02
1216.863, 1.2240200E-02
1218.791, 1.2163150E-02
1220.719, 1.1872080E-02
1222.648, 1.1924550E-02
1224.576, 1.2304300E-02
1226.505, 1.2298720E-02
1228.433, 1.2031890E-02
1230.362, 1.1873060E-02
1232.290, 1.1943850E-02
1234.219, 1.2177610E-02
1236.147, 1.2355130E-02
1238.076, 1.2368700E-02
1240.004, 1.2441740E-02
1241.933, 1.2749630E-02
1243.861, 1.2775800E-02
1245.790, 1.2551410E-02
1247.718, 1.2602150E-02
1249.646, 1.2600400E-02
1251.575, 1.2924210E-02
1253.503, 1.3344160E-02
1255.432, 1.3421430E-02
1257.360, 1.3555050E-02
1259.289, 1.3340250E-02
1261.217, 1.3073040E-02
1263.146, 1.2897510E-02
1265.074, 1.3227170E-02
1267.003, 1.3836590E-02
1268.931, 1.4156960E-02
1270.860, 1.4507180E-02
1272.788, 1.4733980E-02
1274.717, 1.4799070E-02
1276.645, 1.5063430E-02
1278.573, 1.5470740E-02
1280.502, 1.5296560E-02
1282.430, 1.5036380E-02
1284.359, 1.5387830E-02
1286.287, 1.5483530E-02
1288.216, 1.5209250E-02
1290.144, 1.5065080E-02
1292.073, 1.4971910E-02
1294.001, 1.5082370E-02
1295.930, 1.5317050E-02
1297.858, 1.5434950E-02
1299.787, 1.5400700E-02
1301.715, 1.5569210E-02
1303.644, 1.5909789E-02
1305.572, 1.6119201E-02
1307.500, 1.6395791E-02
1309.429, 1.6342681E-02
1311.357, 1.6184861E-02
1313.286, 1.6482400E-02
1315.214, 1.6784510E-02
1317.143, 1.6927609E-02
1319.071, 1.7072961E-02
1321.000, 1.7131520E-02
1322.928, 1.7256251E-02
1324.857, 1.7244810E-02
1326.785, 1.7467679E-02
1328.714, 1.7653599E-02
1330.642, 1.7964371E-02
1332.571, 1.8177550E-02
1334.499, 1.8307120E-02
1336.427, 1.8405830E-02
1338.356, 1.8404471E-02
1340.284, 1.8372640E-02
1342.213, 1.8576920E-02
1344.141, 1.9123631E-02
1346.070, 1.9401001E-02
1347.998, 1.9545389E-02
1349.927, 1.9720720E-02
1351.855, 2.0066250E-02
1353.784, 2.0319670E-02
1355.712, 2.0570040E-02
1357.641, 2.0698020E-02
1359.569, 2.0697789E-02
1361.498, 2.1030640E-02
1363.426, 2.1548830E-02
1365.354, 2.1970250E-02
1367.283, 2.2148499E-02
1369.211, 2.2297950E-02
1371.140, 2.2787100E-02
1373.068, 2.3182910E-02
1374.997, 2.3506880E-02
1376.925, 2.3658020E-02
1378.854, 2.3991389E-02
1380.782, 2.4398129E-02
1382.711, 2.4641531E-02
1384.639, 2.5181839E-02
1386.568, 2.5786219E-02
1388.496, 2.6254460E-02
1390.424, 2.6539231E-02
1392.353, 2.6675880E-02
1394.281, 2.6891209E-02
1396.210, 2.7086280E-02
1398.138, 2.7669439E-02
1400.067, 2.8356420E-02
1401.995, 2.8664401E-02
1403.924, 2.8899441E-02
1405.852, 2.9072059E-02
1407.781, 2.9057190E-02
1409.709, 2.9151520E-02
1411.638, 2.9511111E-02
1413.566, 2.9764179E-02
1415.495, 2.9976230E-02
1417.423, 3.0083740E-02
1419.351, 3.0271020E-02
1421.280, 3.0276980E-02
1423.208, 3.0274229E-02
1425.137, 3.0307220E-02
1427.065, 3.0439060E-02
1428.994, 3.0540969E-02
1430.922, 3.0787710E-02
1432.851, 3.0827750E-02
1434.779, 3.0625921E-02
1436.708, 3.0727429E-02
1438.636, 3.0795570E-02
1440.565, 3.0665129E-02
1442.493, 3.0602230E-02
1444.422, 3.0750399E-02
1446.350, 3.0942570E-02
1448.278, 3.1183939E-02
1450.207, 3.1297520E-02
1452.135, 3.1289939E-02
1454.064, 3.1263340E-02
1455.992, 3.1309329E-02
1457.921, 3.1145710E-02
1459.849, 3.1236650E-02
1461.778, 3.1486809E-02
1463.706, 3.1605009E-02
1465.635, 3.1622872E-02
1467.563, 3.1529222E-02
1469.492, 3.1671129E-02
1471.420, 3.2101430E-02
1473.349, 3.2254800E-02
1475.277, 3.2369670E-02
1477.205, 3.2643851E-02
1479.134, 3.2745410E-02
1481.062, 3.2584570E-02
1482.991, 3.2598410E-02
1484.919, 3.3131581E-02
1486.848, 3.3440311E-02
1488.776, 3.3484921E-02
1490.705, 3.3252139E-02
1492.633, 3.3470999E-02
1494.562, 3.3660419E-02
1496.490, 3.3565421E-02
1498.419, 3.3687942E-02
1500.347, 3.3936240E-02
1502.276, 3.3623960E-02
1504.204, 3.3399541E-02
1506.132, 3.3400562E-02
1508.061, 3.3306349E-02
1509.989, 3.3286721E-02
1511.918, 3.3406511E-02
1513.846, 3.3403620E-02
1515.775, 3.3349749E-02
1517.703, 3.3415981E-02
1519.632, 3.3673380E-02
1521.560, 3.3636220E-02
1523.489, 3.3432811E-02
1525.417, 3.3285148E-02
1527.346, 3.2961860E-02
1529.274, 3.2759089E-02
1531.203, 3.2743260E-02
1533.131, 3.2730982E-02
1535.059, 3.2736350E-02
1536.988, 3.2856122E-02
1538.916, 3.3066731E-02
1540.845, 3.2879852E-02
1542.773, 3.2815330E-02
1544.702, 3.2939140E-02
1546.630, 3.2905448E-02
1548.559, 3.2903701E-02
1550.487, 3.2981411E-02
1552.416, 3.3010330E-02
1554.344, 3.3164121E-02
1556.273, 3.3148780E-02
1558.201, 3.3281282E-02
1560.130, 3.3099391E-02
1562.058, 3.2702889E-02
1563.986, 3.2739449E-02
1565.915, 3.2906920E-02
1567.843, 3.2935452E-02
1569.772, 3.3179391E-02
1571.700, 3.3249680E-02
1573.629, 3.3188552E-02
1575.557, 3.3297010E-02
1577.486, 3.3043381E-02
1579.414, 3.3008870E-02
1581.343, 3.2954060E-02
1583.271, 3.2806478E-02
1585.200, 3.3226449E-02
1587.128, 3.3693392E-02
1589.057, 3.3782661E-02
1590.985, 3.4146100E-02
1592.913, 3.4348421E-02
1594.842, 3.4373961E-02
1596.770, 3.4536030E-02
1598.699, 3.4663979E-02
1600.627, 3.4619611E-02
1602.556, 3.4579732E-02
1604.484, 3.4372762E-02
1606.413, 3.4631971E-02
1608.341, 3.4837931E-02
1610.270, 3.4775060E-02
1612.198, 3.4960050E-02
1614.127, 3.5105769E-02
1616.055, 3.5216171E-02
1617.984, 3.5623111E-02
1619.912, 3.5678331E-02
1621.840, 3.5782941E-02
1623.769, 3.6094021E-02
1625.697, 3.6200780E-02
1627.626, 3.6264900E-02
1629.554, 3.6238249E-02
1631.483, 3.6104269E-02
1633.411, 3.6203150E-02
1635.340, 3.6472820E-02
1637.268, 3.6914509E-02
1639.197, 3.6829561E-02
1641.125, 3.7062809E-02
1643.054, 3.7461769E-02
1644.982, 3.7485059E-02
1646.911, 3.7455630E-02
1648.839, 3.7437089E-02
1650.767, 3.7485480E-02
1652.696, 3.7597939E-02
1654.624, 3.7718419E-02
1656.553, 3.7891500E-02
1658.481, 3.7879549E-02
1660.410, 3.7892509E-02
1662.338, 3.8075220E-02
1664.267, 3.7850589E-02
1666.195, 3.7591819E-02
1668.124, 3.7932951E-02
1670.052, 3.8165290E-02
1671.981, 3.7829790E-02
1673.909, 3.7682671E-02
1675.838, 3.7697840E-02
1677.766, 3.7489690E-02
1679.694, 3.7314732E-02
1681.623, 3.7026718E-02
1683.551, 3.7002761E-02
1685.480, 3.7139550E-02
1687.408, 3.7221450E-02
1689.337, 3.7127320E-02
1691.265, 3.6986459E-02
1693.194, 3.7031230E-02
1695.122, 3.6970109E-02
1697.051, 3.6998920E-02
1698.979, 3.7236210E-02
1700.908, 3.7381921E-02
1702.836, 3.7080619E-02
1704.765, 3.7277520E-02
1706.693, 3.7389811E-02
1708.621, 3.7367821E-02
1710.550, 3.7580959E-02
1712.478, 3.7542451E-02
1714.407, 3.7282709E-02
1716.335, 3.7463851E-02
1718.264, 3.7608329E-02
1720.192, 3.7532341E-02
1722.121, 3.7567999E-02
1724.049, 3.7627611E-02
1725.978, 3.7536450E-02
1727.906, 3.7441101E-02
1729.835, 3.7484389E-02
1731.763, 3.7309140E-02
1733.692, 3.7422821E-02
1735.620, 3.7084989E-02
1737.548, 3.6764510E-02
1739.477, 3.6810290E-02
1741.405, 3.6267620E-02
1743.334, 3.6095109E-02
1745.262, 3.6248401E-02
1747.191, 3.6153771E-02
1749.119, 3.6052000E-02
1751.048, 3.6606390E-02
1752.976, 3.7236661E-02
1754.905, 3.7198421E-02
1756.833, 3.7183929E-02
1758.762, 3.7210129E-02
1760.690, 3.7375279E-02
1762.619, 3.7601382E-02
1764.547, 3.7832551E-02
1766.475, 3.8083859E-02
1768.404, 3.8072541E-02
1770.332, 3.8226008E-02
1772.261, 3.8558200E-02
1774.189, 3.8322940E-02
1776.118, 3.8014911E-02
1778.046, 3.8778659E-02
1779.975, 3.9383899E-02
1781.903, 3.9467201E-02
1783.832, 3.9342549E-02
1785.760, 3.9678842E-02
1787.689, 3.9744511E-02
1789.617, 3.9716430E-02
1791.546, 3.9700631E-02
1793.474, 3.9762441E-02
1795.402, 3.9714672E-02
1797.331, 3.9790981E-02
1799.259, 4.0331569E-02
1801.188, 4.0375240E-02
1803.116, 3.9791949E-02
1805.045, 3.9944012E-02
1806.973, 4.0406950E-02
1808.902, 4.0756881E-02
1810.830, 4.0777531E-02
1812.759, 4.0838100E-02
1814.687, 4.0974569E-02
1816.616, 4.0775381E-02
1818.544, 4.0334109E-02
1820.473, 4.0387738E-02
1822.401, 4.0911980E-02
1824.329, 4.1009381E-02
1826.258, 4.0934209E-02
1828.186, 4.1142270E-02
1830.115, 4.1054510E-02
1832.043, 4.0923089E-02
1833.972, 4.0993098E-02
1835.900, 4.1302089E-02
1837.829, 4.0975131E-02
1839.757, 4.0446781E-02
1841.686, 4.0407591E-02
1843.614, 4.0646091E-02
1845.543, 4.1646600E-02
1847.471, 4.1795351E-02
1849.400, 4.1647211E-02
1851.328, 4.2257771E-02
1853.256, 4.2279590E-02
1855.185, 4.1490681E-02
1857.113, 4.0972449E-02
1859.042, 4.1450098E-02
1860.970, 4.1809142E-02
1862.899, 4.1957520E-02
1864.827, 4.2359609E-02
1866.756, 4.3243490E-02
1868.684, 4.3616150E-02
1870.613, 4.4036601E-02
1872.541, 4.3593381E-02
1874.470, 4.3040149E-02
1876.398, 4.3101270E-02
1878.327, 4.3155611E-02
1880.255, 4.3098181E-02
1882.183, 4.3520700E-02
1884.112, 4.3091889E-02
1886.040, 4.2734671E-02
1887.969, 4.2952970E-02
1889.897, 4.3356020E-02
1891.826, 4.3792579E-02
1893.754, 4.3530051E-02
1895.683, 4.2669240E-02
1897.611, 4.2660929E-02
1899.540, 4.3029860E-02
1901.468, 4.3715071E-02
1903.397, 4.4792932E-02
1905.325, 4.4752471E-02
1907.254, 4.4450700E-02
1909.182, 4.4663731E-02
1911.110, 4.4418398E-02
1913.039, 4.3725289E-02
1914.967, 4.4604171E-02
1916.896, 4.5610551E-02
1918.824, 4.5395769E-02
1920.753, 4.5212999E-02
1922.681, 4.5703329E-02
1924.610, 4.5245551E-02
1926.538, 4.5234758E-02
1928.467, 4.6922378E-02
1930.395, 4.6863910E-02
1932.324, 4.5525920E-02
1934.252, 4.5071881E-02
1936.181, 4.4461980E-02
1938.109, 4.5083161E-02
1940.037, 4.5620728E-02
1941.966, 4.4629429E-02
1943.894, 4.4045150E-02
1945.823, 4.4541821E-02
1947.751, 4.5958292E-02
1949.680, 4.5150530E-02
1951.608, 4.3863490E-02
1953.537, 4.4595119E-02
1955.465, 4.6161029E-02
1957.394, 4.6366330E-02
1959.322, 4.6662901E-02
1961.251, 4.8229150E-02
1963.179, 4.9457129E-02
1965.108, 4.7971342E-02
1967.036, 4.6318840E-02
1968.964, 4.6971321E-02
1970.893, 4.7920831E-02
1972.821, 4.7675829E-02
1974.750, 4.6055749E-02
1976.678, 4.8212651E-02
1978.607, 5.1528230E-02
1980.535, 5.1121071E-02
1982.464, 4.7018871E-02
1984.392, 4.5519330E-02
1986.321, 4.6195678E-02
1988.249, 4.6341870E-02
1990.178, 4.8702769E-02
1992.106, 4.8466209E-02
1994.035, 4.7422402E-02
1995.963, 4.7020670E-02
1997.891, 4.7832832E-02
1999.820, 4.9608901E-02
2001.748, 4.9692839E-02
2003.677, 4.8740480E-02
2005.605, 4.8971072E-02
2007.534, 4.6861678E-02
2009.462, 4.7738459E-02
2011.391, 4.7202460E-02
2013.319, 4.7227580E-02
2015.248, 5.0310589E-02
2017.176, 5.1763799E-02
2019.105, 5.0300378E-02
2021.033, 5.2459229E-02
2022.962, 5.2244689E-02
2024.890, 5.1295150E-02
2026.818, 5.1273670E-02
2028.747, 4.8987608E-02
2030.675, 4.9296409E-02
2032.604, 4.8587479E-02
2034.532, 5.0009608E-02
2036.461, 5.3872701E-02
2038.389, 5.3384580E-02
2040.318, 5.1090069E-02
2042.246, 5.3173210E-02
2044.175, 5.3598698E-02
2046.103, 5.2034281E-02
2048.032, 5.3023811E-02
2049.960, 5.4828189E-02
2051.889, 5.3299680E-02
2053.817, 5.2322309E-02
2055.746, 5.2538171E-02
2057.674, 5.4300200E-02
2059.603, 5.5059589E-02
2061.531, 5.3032320E-02
2063.459, 5.1913511E-02
2065.388, 5.2645970E-02
2067.316, 5.3439699E-02
2069.245, 5.2964970E-02
2071.173, 5.3917781E-02
2073.102, 5.5065211E-02
2075.030, 5.5804841E-02
2076.959, 5.6623220E-02
2078.887, 5.5447891E-02
2080.816, 5.4080229E-02
2082.744, 5.4535661E-02
2084.673, 5.4567821E-02
2086.601, 5.4842371E-02
2088.530, 5.5617649E-02
2090.458, 5.6031350E-02
2092.386, 5.5570439E-02
2094.315, 5.4603629E-02
2096.243, 5.4058529E-02
2098.172, 5.5040210E-02
2100.100, 5.6617670E-02
2102.029, 5.7142660E-02
2103.957, 5.7281852E-02
2105.886, 5.6828719E-02
2107.814, 5.5335969E-02
2109.743, 5.5326000E-02
2111.671, 5.6825981E-02
2113.600, 5.7124078E-02
2115.528, 5.5992961E-02
2117.457, 5.6110971E-02
2119.385, 5.6083709E-02
2121.313, 5.6947790E-02
2123.242, 5.8067288E-02
2125.170, 5.6701519E-02
2127.099, 5.6099981E-02
2129.027, 5.6033470E-02
2130.956, 5.5571541E-02
2132.884, 5.5477072E-02
2134.813, 5.6548640E-02
2136.741, 5.6564961E-02
2138.670, 5.7063349E-02
2140.598, 5.8792170E-02
2142.527, 5.8463309E-02
2144.455, 5.8181029E-02
2146.384, 5.6025900E-02
2148.312, 5.3595521E-02
2150.240, 5.5931769E-02
2152.169, 5.7123221E-02
2154.097, 5.3976640E-02
2156.026, 5.2873731E-02
2157.954, 5.7208449E-02
2159.883, 6.1435688E-02
2161.811, 6.0404111E-02
2163.740, 6.1616581E-02
2165.668, 6.1915800E-02
2167.597, 6.0917620E-02
2169.525, 5.9520502E-02
2171.454, 5.7992630E-02
2173.382, 5.6234051E-02
2175.311, 5.7304271E-02
2177.239, 6.0675561E-02
2179.167, 5.9583232E-02
2181.096, 5.6167979E-02
2183.024, 5.6952510E-02
2184.953, 5.8784619E-02
2186.881, 5.9498560E-02
2188.810, 6.1441690E-02
2190.738, 6.1074439E-02
2192.667, 6.1158098E-02
2194.595, 6.0545910E-02
2196.524, 6.0791310E-02
2198.452, 6.1432950E-02
2200.381, 6.1643839E-02
2202.309, 6.3460171E-02
2204.238, 6.2974729E-02
2206.166, 6.3085407E-02
2208.094, 6.2103622E-02
2210.023, 5.9965249E-02
2211.951, 6.0277481E-02
2213.880, 6.2357511E-02
2215.808, 6.3985117E-02
2217.737, 6.3710563E-02
2219.665, 6.1847311E-02
2221.594, 6.1130211E-02
2223.522, 6.1780550E-02
2225.451, 6.3896149E-02
2227.379, 6.3549809E-02
2229.308, 6.2249091E-02
2231.236, 6.1221000E-02
2233.165, 6.1455611E-02
2235.093, 6.1255760E-02
2237.021, 6.1853439E-02
2238.950, 6.2911920E-02
2240.878, 6.2552936E-02
2242.807, 6.3619122E-02
2244.735, 6.5405510E-02
2246.664, 6.5195210E-02
2248.592, 6.4313874E-02
2250.521, 6.3201077E-02
2252.449, 6.3006870E-02
2254.378, 6.3653789E-02
2256.306, 6.5148570E-02
2258.235, 6.6494919E-02
2260.163, 6.6249773E-02
2262.092, 6.4753197E-02
2264.020, 6.4817376E-02
2265.948, 6.4178981E-02
2267.877, 6.4406708E-02
2269.805, 6.5906547E-02
2271.734, 6.6817567E-02
2273.662, 6.5901838E-02
2275.591, 6.4658873E-02
2277.519, 6.4118460E-02
2279.448, 6.5642416E-02
2281.376, 6.6572472E-02
2283.305, 6.6568553E-02
2285.233, 6.6566318E-02
2287.162, 6.6347152E-02
2289.090, 6.6863850E-02
2291.019, 6.7323133E-02
2292.947, 6.6815548E-02
2294.875, 6.6943876E-02
2296.804, 6.7701697E-02
2298.732, 6.7849040E-02
2300.661, 6.6803373E-02
2302.589, 6.6054933E-02
2304.518, 6.6071667E-02
2306.446, 6.6941053E-02
2308.375, 6.6757143E-02
2310.303, 6.6863470E-02
2312.232, 6.7482367E-02
2314.160, 6.8440244E-02
2316.089, 6.8347767E-02
2318.017, 6.8385527E-02
2319.946, 6.9316611E-02
2321.874, 7.0818141E-02
2323.802, 7.0980370E-02
2325.731, 6.9722950E-02
2327.659, 6.8845332E-02
2329.588, 6.8655103E-02
2331.516, 6.9543183E-02
2333.445, 6.9710091E-02
2335.373, 6.9113337E-02
2337.302, 6.9588833E-02
2339.230, 6.9367297E-02
2341.159, 6.8468809E-02
2343.087, 6.8479463E-02
2345.016, 6.8354167E-02
2346.944, 6.7410588E-02
2348.873, 6.7660570E-02
2350.801, 6.8245873E-02
2352.729, 6.8322688E-02
2354.658, 6.8510666E-02
2356.586, 6.9068693E-02
2358.515, 7.0116483E-02
2360.443, 7.0850573E-02
2362.372, 7.0108429E-02
2364.300, 6.8756357E-02
2366.229, 6.9057100E-02
2368.157, 6.9749020E-02
2370.086, 6.9687419E-02
2372.014, 6.9468059E-02
2373.942, 6.8267487E-02
2375.871, 6.7645147E-02
2377.799, 6.7794517E-02
2379.728, 6.8065509E-02
2381.656, 6.7514829E-02
2383.585, 6.6469312E-02
2385.513, 6.6800423E-02
2387.442, 6.7996547E-02
2389.370, 6.8575807E-02
2391.299, 6.8202093E-02
2393.227, 6.9086179E-02
2395.156, 6.8953320E-02
2397.084, 6.8272270E-02
2399.012, 6.8401642E-02
2400.941, 6.8745919E-02
2402.869, 6.9005013E-02
2404.798, 6.9802962E-02
2406.726, 6.9335938E-02
2408.655, 6.7736119E-02
2410.583, 6.7979537E-02
2412.512, 6.9040433E-02
2414.440, 6.8640180E-02
2416.369, 6.8762027E-02
2418.297, 6.9302186E-02
2420.226, 6.9408000E-02
2422.154, 6.9918923E-02
2424.083, 6.9856383E-02
2426.011, 6.9150403E-02
2427.939, 6.9780737E-02
2429.868, 7.1034163E-02
2431.796, 7.1241803E-02
2433.725, 7.1338147E-02
2435.653, 7.0589706E-02
2437.582, 6.9883570E-02
2439.510, 7.1033530E-02
2441.439, 7.2188944E-02
2443.367, 7.1915403E-02
2445.296, 7.1425714E-02
2447.224, 7.1550392E-02
2449.153, 7.1454540E-02
2451.081, 7.1136951E-02
2453.010, 7.1883693E-02
2454.938, 7.2128363E-02
2456.866, 7.1809672E-02
2458.795, 7.1818277E-02
2460.723, 7.1360387E-02
2462.652, 7.0746757E-02
2464.580, 7.0861921E-02
2466.509, 7.1584247E-02
2468.437, 7.2955109E-02
2470.366, 7.2893038E-02
2472.294, 7.2442159E-02
2474.223, 7.2427623E-02
2476.151, 7.1586259E-02
2478.080, 7.1392007E-02
2480.008, 7.2421193E-02
2481.937, 7.2725043E-02
2483.865, 7.2506882E-02
2485.793, 7.2609872E-02
2487.722, 7.2818197E-02
2489.650, 7.2280407E-02
2491.579, 7.2211146E-02
2493.507, 7.2640799E-02
2495.436, 7.2385162E-02
2497.364, 7.2770320E-02
2499.293, 7.3745973E-02
2501.221, 7.4128903E-02
2503.150, 7.3294371E-02
2505.078, 7.2603717E-02
2507.007, 7.3171578E-02
2508.935, 7.4294508E-02
2510.864, 7.4515678E-02
2512.792, 7.4321464E-02
2514.720, 7.4469753E-02
2516.649, 7.5201690E-02
2518.577, 7.4557789E-02
2520.506, 7.3478140E-02
2522.434, 7.3869847E-02
2524.363, 7.3561057E-02
2526.291, 7.3139258E-02
2528.220, 7.3832907E-02
2530.148, 7.4558698E-02
2532.077, 7.4487768E-02
2534.005, 7.4091949E-02
2535.934, 7.3539764E-02
2537.862, 7.3272280E-02
2539.791, 7.4340694E-02
2541.719, 7.5030372E-02
2543.647, 7.6179817E-02
2545.576, 7.6637417E-02
2547.504, 7.4989401E-02
2549.433, 7.3685803E-02
2551.361, 7.5048387E-02
2553.290, 7.5951248E-02
2555.218, 7.6284997E-02
2557.147, 7.6227590E-02
2559.075, 7.6318137E-02
2561.004, 7.6074667E-02
2562.932, 7.6209798E-02
2564.861, 7.6765873E-02
2566.789, 7.6492712E-02
2568.718, 7.4793153E-02
2570.646, 7.4860133E-02
2572.574, 7.6547988E-02
2574.503, 7.6668501E-02
2576.431, 7.6169558E-02
2578.360, 7.6183230E-02
2580.288, 7.7753320E-02
2582.217, 7.8693628E-02
2584.145, 7.7742167E-02
2586.074, 7.6876633E-02
2588.002, 7.7194408E-02
2589.931, 7.7360854E-02
2591.859, 7.7579357E-02
2593.788, 7.7448353E-02
2595.716, 7.6683164E-02
2597.645, 7.7377938E-02
2599.573, 7.7554487E-02
2601.501, 7.8318633E-02
2603.430, 7.8367077E-02
2605.358, 7.7488549E-02
2607.287, 7.7096753E-02
2609.215, 7.7759273E-02
2611.144, 7.7794321E-02
2613.072, 7.8287043E-02
2615.001, 7.8966781E-02
2616.929, 8.0045179E-02
2618.858, 7.9816513E-02
2620.786, 7.8502700E-02
2622.715, 7.8581601E-02
2624.643, 7.9557821E-02
2626.572, 7.9780623E-02
2628.500, 7.9591706E-02
2630.428, 7.9621613E-02
2632.357, 7.9966083E-02
2634.285, 7.9753138E-02
2636.214, 7.9139099E-02
2638.142, 7.9223298E-02
2640.071, 7.8812152E-02
2641.999, 7.8826867E-02
2643.928, 7.9188749E-02
2645.856, 7.8970693E-02
2647.785, 7.9568803E-02
2649.713, 7.9607278E-02
2651.642, 7.9290263E-02
2653.570, 7.9382703E-02
2655.499, 7.9958461E-02
2657.427, 8.0813318E-02
2659.355, 8.1102677E-02
2661.284, 8.0078423E-02
2663.212, 7.9487763E-02
2665.141, 8.0065958E-02
2667.069, 8.0488257E-02
2668.998, 7.9875007E-02
2670.926, 7.9714961E-02
2672.855, 8.0185242E-02
2674.783, 8.0500484E-02
2676.712, 8.0960669E-02
2678.640, 8.1217408E-02
2680.569, 8.0643468E-02
2682.497, 8.0655187E-02
2684.426, 8.0927953E-02
2686.354, 8.1242301E-02
2688.282, 8.0908567E-02
2690.211, 8.0432318E-02
2692.139, 7.9877786E-02
2694.068, 8.0042057E-02
2695.996, 8.0331437E-02
2697.925, 8.0063432E-02
2699.853, 8.0713697E-02
2701.782, 8.1494384E-02
2703.710, 8.1190147E-02
2705.639, 8.0974832E-02
2707.567, 8.1159838E-02
2709.496, 8.1816941E-02
2711.424, 8.2080320E-02
2713.353, 8.2131021E-02
2715.281, 8.2543217E-02
2717.209, 8.2335599E-02
2719.138, 8.1226267E-02
2721.066, 8.1397779E-02
2722.995, 8.3002903E-02
2724.923, 8.2716562E-02
2726.852, 8.1837013E-02
2728.780, 8.1756502E-02
2730.709, 8.2258880E-02
2732.637, 8.1948683E-02
2734.566, 8.1857853E-02
2736.494, 8.2704477E-02
2738.423, 8.3760597E-02
2740.351, 8.4389910E-02
2742.280, 8.3694592E-02
2744.208, 8.3162852E-02
2746.136, 8.3326519E-02
2748.065, 8.3059467E-02
2749.993, 8.2838438E-02
2751.922, 8.2335353E-02
2753.850, 8.2585312E-02
2755.779, 8.3415017E-02
2757.707, 8.4844351E-02
2759.636, 8.5005678E-02
2761.564, 8.4482141E-02
2763.493, 8.3961703E-02
2765.421, 8.4333643E-02
2767.350, 8.4981397E-02
2769.278, 8.5337363E-02
2771.207, 8.5714623E-02
2773.135, 8.5572474E-02
2775.063, 8.4877767E-02
2776.992, 8.4261850E-02
2778.920, 8.5379377E-02
2780.849, 8.6286433E-02
2782.777, 8.5499913E-02
2784.706, 8.4916778E-02
2786.634, 8.5430197E-02
2788.563, 8.4950767E-02
2790.491, 8.4409870E-02
2792.420, 8.5883111E-02
2794.348, 8.6244293E-02
2796.277, 8.5418113E-02
2798.205, 8.5439503E-02
2800.134, 8.4821068E-02
2802.062, 8.5143030E-02
2803.990, 8.4947877E-02
2805.919, 8.4181666E-02
2807.847, 8.4999703E-02
2809.776, 8.6485393E-02
2811.704, 8.6583927E-02
2813.633, 8.6253561E-02
2815.561, 8.5812733E-02
2817.490, 8.5535482E-02
2819.418, 8.5785888E-02
2821.347, 8.6209580E-02
2823.275, 8.6627409E-02
2825.204, 8.6327158E-02
2827.132, 8.6049810E-02
2829.061, 8.6646609E-02
2830.989, 8.7375797E-02
2832.917, 8.7023906E-02
2834.846, 8.7809138E-02
2836.774, 8.9169040E-02
2838.703, 8.9302734E-02
2840.631, 8.8325828E-02
2842.560, 8.8058360E-02
2844.488, 8.7300181E-02
2846.417, 8.6884297E-02
2848.345, 8.7120213E-02
2850.274, 8.7578848E-02
2852.202, 8.7357320E-02
2854.131, 8.6779833E-02
2856.059, 8.6822562E-02
2857.988, 8.6741291E-02
2859.916, 8.8019364E-02
2861.844, 8.9336239E-02
2863.773, 8.9251898E-02
2865.701, 8.9307569E-02
2867.630, 8.8014342E-02
2869.558, 8.7586410E-02
2871.487, 8.8902362E-02
2873.415, 9.0582937E-02
2875.344, 8.9989386E-02
2877.272, 8.9411557E-02
2879.201, 8.9220673E-02
2881.129, 8.8147730E-02
2883.058, 8.7779991E-02
2884.986, 8.8578202E-02
2886.915, 8.9796901E-02
2888.843, 9.0380728E-02
2890.771, 8.9693323E-02
2892.700, 9.0242743E-02
2894.628, 9.0731047E-02
2896.557, 9.1070041E-02
2898.485, 9.0893671E-02
2900.414, 9.1143601E-02
2902.342, 9.1070257E-02
2904.271, 9.0871252E-02
2906.199, 9.1470800E-02
2908.128, 9.2290074E-02
2910.056, 9.1747172E-02
2911.985, 9.0522379E-02
2913.913, 8.9641623E-02
2915.842, 8.9134254E-02
2917.770, 8.9799590E-02
2919.698, 9.0962633E-02
2921.627, 9.2163607E-02
2923.555, 9.2974707E-02
2925.484, 9.1892913E-02
2927.412, 9.1083482E-02
2929.341, 9.0523914E-02
2931.269, 8.9646056E-02
2933.198, 9.0797894E-02
2935.126, 9.1746278E-02
2937.055, 9.0791211E-02
2938.983, 9.0386748E-02
2940.912, 9.0802453E-02
2942.840, 9.1397941E-02
2944.769, 9.2222251E-02
2946.697, 9.2217334E-02
2948.625, 9.1304377E-02
2950.554, 9.1464609E-02
2952.482, 9.2627302E-02
2954.411, 9.3267582E-02
2956.339, 9.3180373E-02
2958.268, 9.3163021E-02
2960.196, 9.3539372E-02
2962.125, 9.4684601E-02
2964.053, 9.4251923E-02
2965.982, 9.3274303E-02
2967.910, 9.3980253E-02
2969.839, 9.4377369E-02
2971.767, 9.3964607E-02
2973.696, 9.4508551E-02
2975.624, 9.5231898E-02
2977.552, 9.4611563E-02
2979.481, 9.3833342E-02
2981.409, 9.3621172E-02
2983.338, 9.4860688E-02
2985.266, 9.5316589E-02
2987.195, 9.4565667E-02
2989.123, 9.3771182E-02
2991.052, 9.4250642E-02
2992.980, 9.5321707E-02
2994.909, 9.5353156E-02
2996.837, 9.4324820E-02
2998.766, 9.3911938E-02
3000.694, 9.4280593E-02
3002.623, 9.4875447E-02
3004.551, 9.4737351E-02
3006.479, 9.5039964E-02
3008.408, 9.5852569E-02
3010.336, 9.5789187E-02
3012.265, 9.5239349E-02
3014.193, 9.5847912E-02
3016.122, 9.5867820E-02
3018.050, 9.5028453E-02
3019.979, 9.5030561E-02
3021.907, 9.4874598E-02
3023.836, 9.5455222E-02
3025.764, 9.6500762E-02
3027.693, 9.7456627E-02
3029.621, 9.6835867E-02
3031.550, 9.6361093E-02
3033.478, 9.6042722E-02
3035.406, 9.5734619E-02
3037.335, 9.4730623E-02
3039.263, 9.5296517E-02
3041.192, 9.6667811E-02
3043.120, 9.7123981E-02
3045.049, 9.7682707E-02
3046.977, 9.7517781E-02
3048.906, 9.7373001E-02
3050.834, 9.6846633E-02
3052.763, 9.5940717E-02
3054.691, 9.6116103E-02
3056.620, 9.6680701E-02
3058.548, 9.7248420E-02
3060.477, 9.6464276E-02
3062.405, 9.8038509E-02
3064.333, 9.9710353E-02
3066.262, 9.7789399E-02
3068.190, 9.7163647E-02
3070.119, 9.7880453E-02
3072.047, 9.8118097E-02
3073.976, 9.8313540E-02
3075.904, 9.8656043E-02
3077.833, 9.9764273E-02
3079.761, 9.9042743E-02
3081.690, 9.8225228E-02
3083.618, 9.9886879E-02
3085.547, 0.1019124
3087.475, 0.1009535
3089.404, 9.9918239E-02
3091.332, 0.1006218
3093.260, 0.1013700
3095.189, 0.1001298
3097.117, 9.9191047E-02
3099.046, 9.9443108E-02
3100.974, 9.9034093E-02
3102.903, 9.7940691E-02
3104.831, 9.9405646E-02
3106.760, 0.1011316
3108.688, 0.1005201
3110.617, 9.8696440E-02
3112.545, 9.7860686E-02
3114.474, 9.9668652E-02
3116.402, 0.1018996
3118.331, 0.1025210
3120.259, 0.1011880
3122.188, 0.1012507
3124.116, 0.1020694
3126.044, 0.1023773
3127.973, 0.1017711
3129.901, 0.1010588
3131.830, 0.1027923
3133.758, 0.1034752
3135.687, 0.1019786
3137.615, 0.1018313
3139.544, 0.1027060
3141.472, 0.1024294
3143.401, 0.1025143
3145.329, 0.1031528
3147.258, 0.1036648
3149.186, 0.1038975
3151.115, 0.1030332
3153.043, 0.1036848
3154.971, 0.1042480
3156.900, 0.1039144
3158.828, 0.1040577
3160.757, 0.1038567
3162.685, 0.1038338
3164.614, 0.1037360
3166.542, 0.1039574
3168.471, 0.1035444
3170.399, 0.1049077
3172.328, 0.1054456
3174.256, 0.1051400
3176.185, 0.1046281
3178.113, 0.1029975
3180.042, 0.1020668
3181.970, 0.1048396
3183.898, 0.1069033
3185.827, 0.1056278
3187.755, 0.1046356
3189.684, 0.1037576
3191.612, 0.1025113
3193.541, 0.1028455
3195.469, 0.1032681
3197.398, 0.1038732
3199.326, 0.1052339
3201.255, 0.1057017
3203.183, 0.1054121
3205.112, 0.1048848
3207.040, 0.1030010
3208.969, 0.1018745
3210.897, 0.1033761
3212.825, 0.1040439
3214.754, 0.1048339
3216.682, 0.1044436
3218.611, 0.1041423
3220.539, 0.1053461
3222.468, 0.1057865
3224.396, 0.1040096
3226.325, 0.1033157
3228.253, 0.1057658
3230.182, 0.1068081
3232.110, 0.1065846
3234.039, 0.1065361
3235.967, 0.1059883
3237.896, 0.1063586
3239.824, 0.1073618
3241.752, 0.1079781
3243.681, 0.1075587
3245.609, 0.1053081
3247.538, 0.1031978
3249.466, 0.1047174
3251.395, 0.1079721
3253.323, 0.1083300
3255.252, 0.1064839
3257.180, 0.1076153
3259.109, 0.1103933
3261.037, 0.1113046
3262.966, 0.1108654
3264.894, 0.1086826
3266.823, 0.1073710
3268.751, 0.1076033
3270.679, 0.1059838
3272.608, 0.1056530
3274.536, 0.1063322
3276.465, 0.1078432
3278.393, 0.1097574
3280.322, 0.1106015
3282.250, 0.1096372
3284.179, 0.1096183
3286.107, 0.1097704
3288.036, 0.1117522
3289.964, 0.1128872
3291.893, 0.1121351
3293.821, 0.1104747
3295.750, 0.1082743
3297.678, 0.1075919
3299.606, 0.1078408
3301.535, 0.1085115
3303.463, 0.1091389
3305.392, 0.1101118
3307.320, 0.1082409
3309.249, 0.1076697
3311.177, 0.1089119
3313.106, 0.1108253
3315.034, 0.1115543
3316.963, 0.1111227
3318.891, 0.1107024
3320.820, 0.1108881
3322.748, 0.1099111
3324.677, 0.1107675
3326.605, 0.1122603
3328.533, 0.1124877
3330.462, 0.1119971
3332.390, 0.1099427
3334.319, 0.1094574
3336.247, 0.1098332
3338.176, 0.1111102
3340.104, 0.1115828
3342.033, 0.1113347
3343.961, 0.1110356
3345.890, 0.1110338
3347.818, 0.1095306
3349.747, 0.1086858
3351.675, 0.1108778
3353.604, 0.1131857
3355.532, 0.1119789
3357.460, 0.1093100
3359.389, 0.1092389
3361.317, 0.1101133
3363.246, 0.1118618
3365.174, 0.1143173
3367.103, 0.1140632
3369.031, 0.1135133
3370.960, 0.1135200
3372.888, 0.1108778
3374.817, 0.1101362
3376.745, 0.1130498
3378.674, 0.1140647
3380.602, 0.1131202
3382.531, 0.1124354
3384.459, 0.1114488
3386.387, 0.1118285
3388.316, 0.1121868
3390.244, 0.1111957
3392.173, 0.1131654
3394.101, 0.1155327
3396.030, 0.1129238
3397.958, 0.1089869
3399.887, 0.1089137
3401.815, 0.1108654
3403.744, 0.1129670
3405.672, 0.1110093
3407.601, 0.1094416
3409.529, 0.1117960
3411.458, 0.1134923
3413.386, 0.1129363
3415.314, 0.1131627
3417.243, 0.1133102
3419.171, 0.1094685
3421.100, 0.1094306
3423.028, 0.1109099
3424.957, 0.1129781
3426.885, 0.1143877
3428.814, 0.1138073
3430.742, 0.1119933
3432.671, 0.1115564
3434.599, 0.1133357
3436.528, 0.1155890
3438.456, 0.1155074
3440.385, 0.1150818
3442.313, 0.1131431
3444.241, 0.1126944
3446.170, 0.1121311
3448.098, 0.1098986
3450.027, 0.1109705
3451.955, 0.1114457
3453.884, 0.1109811
3455.812, 0.1116595
3457.741, 0.1145649
3459.669, 0.1133794
3461.598, 0.1118404
3463.526, 0.1153026
3465.455, 0.1160835
3467.383, 0.1137414
3469.312, 0.1145344
3471.240, 0.1147397
3473.168, 0.1158962
3475.097, 0.1157011
3477.025, 0.1128522
3478.954, 0.1109609
3480.882, 0.1112270
3482.811, 0.1102759
3484.739, 0.1119081
3486.668, 0.1135268
3488.596, 0.1142814
3490.525, 0.1146634
3492.453, 0.1149332
3494.382, 0.1161442
3496.310, 0.1157439
3498.239, 0.1149599
3500.167, 0.1145448
3502.095, 0.1124191
3504.024, 0.1131712
3505.952, 0.1155122
3507.881, 0.1130375
3509.809, 0.1105993
3511.738, 0.1119967
3513.666, 0.1141198
3515.595, 0.1153881
3517.523, 0.1132862
3519.452, 0.1117963
3521.380, 0.1111016
3523.309, 0.1132807
3525.237, 0.1152800
3527.166, 0.1114425
3529.094, 0.1092536
3531.022, 0.1109733
3532.951, 0.1116303
3534.879, 0.1137579
3536.808, 0.1126528
3538.736, 0.1112857
3540.665, 0.1118402
3542.593, 0.1133405
3544.522, 0.1148084
3546.450, 0.1136535
3548.379, 0.1146140
3550.307, 0.1159955
3552.236, 0.1132821
3554.164, 0.1137337
3556.093, 0.1163933
3558.021, 0.1171803
3559.949, 0.1140935
3561.878, 0.1131589
3563.806, 0.1148350
3565.735, 0.1126925
3567.663, 0.1104616
3569.592, 0.1106233
3571.520, 0.1117536
3573.449, 0.1091126
3575.377, 0.1101494
3577.306, 0.1125832
3579.234, 0.1117536
3581.163, 0.1100834
3583.091, 0.1139740
3585.020, 0.1165334
3586.948, 0.1167109
3588.876, 0.1120455
3590.805, 0.1080402
3592.733, 0.1093795
3594.662, 0.1092488
3596.590, 0.1076195
3598.519, 0.1099890
3600.447, 0.1141351
3602.376, 0.1159842
3604.304, 0.1142109
3606.233, 0.1138033
3608.161, 0.1132149
3610.090, 0.1137093
3612.018, 0.1148716
3613.947, 0.1126738
3615.875, 0.1122433
3617.803, 0.1116238
3619.732, 0.1128769
3621.660, 0.1126004
3623.589, 0.1101910
3625.517, 0.1123165
3627.446, 0.1122299
3629.374, 0.1075512
3631.303, 0.1037407
3633.231, 0.1021079
3635.160, 0.1045744
3637.088, 0.1063801
3639.017, 0.1037248
3640.945, 0.1080747
3642.874, 0.1104561
3644.802, 0.1053914
3646.730, 0.1027576
3648.659, 0.1036175
3650.587, 0.1060749
3652.516, 0.1098833
3654.444, 0.1121081
3656.373, 0.1094402
3658.301, 0.1055873
3660.230, 0.1062179
3662.158, 0.1084444
3664.087, 0.1085242
3666.015, 0.1089891
3667.944, 0.1090240
3669.872, 0.1099798
3671.801, 0.1090417
3673.729, 0.1074369
3675.657, 0.1078351
3677.586, 0.1085034
3679.514, 0.1077016
3681.443, 0.1056480
3683.371, 0.1044193
3685.300, 0.1032135
3687.228, 0.1031076
3689.157, 0.1041513
3691.085, 0.1034597
3693.014, 0.1041872
3694.942, 0.1046507
3696.871, 0.1047340
3698.799, 0.1050737
3700.728, 0.1045612
3702.656, 0.1056213
3704.584, 0.1069965
3706.513, 0.1045624
3708.441, 0.1020549
3710.370, 0.1062009
3712.298, 0.1077111
3714.227, 0.1051929
3716.155, 0.1039294
3718.084, 0.1058743
3720.012, 0.1076734
3721.941, 0.1076102
3723.869, 0.1074869
3725.798, 0.1066097
3727.726, 0.1071655
3729.655, 0.1088906
3731.583, 0.1074392
3733.511, 0.1057466
3735.440, 0.1057384
3737.368, 0.1060164
3739.297, 0.1019243
3741.225, 9.9916518E-02
3743.154, 0.1017478
3745.082, 0.1050192
3747.011, 0.1086251
3748.939, 0.1090439
3750.868, 0.1095929
3752.796, 0.1124862
3754.725, 0.1146977
3756.653, 0.1148826
3758.582, 0.1152982
3760.510, 0.1107170
3762.438, 0.1056484
3764.367, 0.1047903
3766.295, 0.1042106
3768.224, 0.1028823
3770.152, 0.1057219
3772.081, 0.1092526
3774.009, 0.1091675
3775.938, 0.1066734
3777.866, 0.1088140
3779.795, 0.1108679
3781.723, 0.1100367
3783.652, 0.1094383
3785.580, 0.1124564
3787.509, 0.1134036
3789.437, 0.1103637
3791.365, 0.1102630
3793.294, 0.1067385
3795.222, 0.1015228
3797.151, 0.1049099
3799.079, 0.1081155
3801.008, 0.1073682
3802.936, 0.1083179
3804.865, 0.1103972
3806.793, 0.1087319
3808.722, 0.1096545
3810.650, 0.1134718
3812.579, 0.1118952
3814.507, 0.1108776
3816.436, 0.1133188
3818.364, 0.1132261
3820.292, 0.1106103
3822.221, 0.1088746
3824.149, 0.1083527
3826.078, 0.1097419
3828.006, 0.1119831
3829.935, 0.1098999
3831.863, 0.1077082
3833.792, 0.1080884
3835.720, 0.1107723
3837.649, 0.1127219
3839.577, 0.1144527
3841.506, 0.1160158
3843.434, 0.1148882
3845.363, 0.1117956
3847.291, 0.1142471
3849.219, 0.1142670
3851.148, 0.1138256
3853.076, 0.1134388
3855.005, 0.1087307
3856.933, 0.1097627
3858.862, 0.1119337
3860.790, 0.1114376
3862.719, 0.1125515
3864.647, 0.1106545
3866.576, 0.1108161
3868.504, 0.1100345
3870.433, 0.1084026
3872.361, 0.1086518
3874.290, 0.1099519
3876.218, 0.1063217
3878.146, 0.1039693
3880.075, 0.1086385
3882.003, 0.1112845
3883.932, 0.1117373
3885.860, 0.1110774
3887.789, 0.1085853
3889.717, 0.1105422
3891.646, 0.1119037
3893.574, 0.1110775
3895.503, 0.1121132
3897.431, 0.1141221
3899.360, 0.1116388
3901.288, 0.1112015
3903.217, 0.1136542
3905.145, 0.1105545
3907.073, 0.1101996
3909.002, 0.1141108
3910.930, 0.1132167
3912.859, 0.1085495
3914.787, 0.1114236
3916.716, 0.1164032
3918.644, 0.1167228
3920.573, 0.1142095
3922.501, 0.1117219
3924.430, 0.1102539
3926.358, 0.1129985
3928.287, 0.1152199
3930.215, 0.1133491
3932.144, 0.1122152
3934.072, 0.1142873
3936.000, 0.1138124
3937.929, 0.1128954
3939.857, 0.1123940
3941.786, 0.1122654
3943.714, 0.1124299
3945.643, 0.1116498
3947.571, 0.1111338
3949.500, 0.1150691
3951.428, 0.1170941
3953.357, 0.1157700
3955.285, 0.1139206
3957.214, 0.1107101
3959.142, 0.1120695
3961.071, 0.1133788
3962.999, 0.1150573
3964.927, 0.1149397
3966.856, 0.1130140
3968.784, 0.1117965
3970.713, 0.1157103
3972.641, 0.1197116
3974.570, 0.1171499
3976.498, 0.1156391
3978.427, 0.1132937
3980.355, 0.1127167
3982.284, 0.1151322
3984.212, 0.1129149
3986.141, 0.1133469
3988.069, 0.1174960
3989.998, 0.1165380
3991.926, 0.1158840
3993.854, 0.1138010
3995.783, 0.1109853
3997.711, 0.1129626
3999.640, 0.1130171
##END=



