##NAMES=Anglesite
##RRUFFID=R050408
##IDEAL CHEMISTRY=Pb^2+^S^6+^O_4_
##LOCALITY=Tsumeb mine, Tsumeb, Otavi District, Oshikoto, Namibia
##OWNER=RRUFF
##SOURCE=California Institute of Technology
##DESCRIPTION=Pale yellow fragment
##STATUS=The identification of this mineral has been confirmed by X-ray diffraction and chemical analysis
##URL=rruff.info/R050408
##MEASURED CHEMISTRY=Pb_1.00_S_1.00_O_4_
399.1926, 2.8824620E-02
401.1211, 2.9148880E-02
403.0496, 2.9289011E-02
404.9780, 3.3115759E-02
406.9065, 3.3871680E-02
408.8350, 3.3297230E-02
410.7634, 3.3125091E-02
412.6919, 3.2516930E-02
414.6204, 3.3332039E-02
416.5488, 3.6627378E-02
418.4773, 3.9241299E-02
420.4058, 4.0478479E-02
422.3342, 4.0615309E-02
424.2627, 4.0526081E-02
426.1912, 4.3012269E-02
428.1196, 4.6017431E-02
430.0481, 4.5239311E-02
431.9766, 4.6800930E-02
433.9050, 5.2142661E-02
435.8335, 5.6308441E-02
437.7620, 5.8200639E-02
439.6904, 5.8638290E-02
441.6189, 5.6361470E-02
443.5474, 5.5882249E-02
445.4758, 5.6378599E-02
447.4043, 5.4986231E-02
449.3328, 5.6548111E-02
451.2612, 5.9992749E-02
453.1897, 6.2996186E-02
455.1182, 6.5015808E-02
457.0466, 6.7687817E-02
458.9751, 6.9514193E-02
460.9036, 7.3335677E-02
462.8320, 7.7324547E-02
464.7605, 7.8663819E-02
466.6890, 7.8493223E-02
468.6174, 7.8374743E-02
470.5459, 7.8221738E-02
472.4744, 7.8657627E-02
474.4028, 7.9972327E-02
476.3313, 8.1396960E-02
478.2598, 8.2884461E-02
480.1882, 8.4612697E-02
482.1167, 8.5699603E-02
484.0452, 8.6983897E-02
485.9736, 8.8648282E-02
487.9021, 9.0783589E-02
489.8306, 9.3547672E-02
491.7590, 9.5813736E-02
493.6875, 9.7726993E-02
495.6160, 0.1006729
497.5444, 0.1034135
499.4729, 0.1063282
501.4014, 0.1089184
503.3298, 0.1123921
505.2583, 0.1156829
507.1868, 0.1190056
509.1152, 0.1235323
511.0437, 0.1271925
512.9722, 0.1296626
514.9006, 0.1344473
516.8291, 0.1393455
518.7576, 0.1432569
520.6860, 0.1484239
522.6145, 0.1537176
524.5430, 0.1590941
526.4714, 0.1647396
528.3999, 0.1701659
530.3284, 0.1759367
532.2568, 0.1823933
534.1853, 0.1907053
536.1138, 0.1978094
538.0422, 0.2049362
539.9707, 0.2124660
541.8992, 0.2200004
543.8276, 0.2292826
545.7561, 0.2376475
547.6846, 0.2464292
549.6130, 0.2577986
551.5415, 0.2682925
553.4700, 0.2784635
555.3984, 0.2898380
557.3269, 0.3014479
559.2554, 0.3136316
561.1838, 0.3262690
563.1123, 0.3388781
565.0408, 0.3525201
566.9692, 0.3660459
568.8977, 0.3808488
570.8262, 0.3976074
572.7546, 0.4152731
574.6831, 0.4326834
576.6116, 0.4499952
578.5400, 0.4693334
580.4685, 0.4889650
582.3970, 0.5049769
584.3254, 0.5178236
586.2539, 0.5289817
588.1824, 0.5298099
590.1108, 0.5162960
592.0393, 0.4889462
593.9678, 0.4513906
595.8962, 0.4084137
597.8247, 0.3656471
599.7532, 0.3257119
601.6816, 0.2886612
603.6101, 0.2560448
605.5386, 0.2283970
607.4670, 0.2044772
609.3955, 0.1854323
611.3240, 0.1736841
613.2524, 0.1707591
615.1809, 0.1764586
617.1094, 0.1897889
619.0378, 0.2095114
620.9663, 0.2326018
622.8948, 0.2521243
624.8232, 0.2622585
626.7517, 0.2624614
628.6802, 0.2527955
630.6086, 0.2332186
632.5371, 0.2073718
634.4656, 0.1777337
636.3940, 0.1464550
638.3225, 0.1156472
640.2510, 8.8259503E-02
642.1794, 6.7149676E-02
644.1079, 5.2075312E-02
646.0364, 4.1908301E-02
647.9648, 3.5399631E-02
649.8933, 3.0855769E-02
651.8218, 2.7857710E-02
653.7502, 2.6135679E-02
655.6787, 2.5058741E-02
657.6072, 2.4526490E-02
659.5356, 2.4855480E-02
661.4641, 2.5144281E-02
663.3926, 2.5375230E-02
665.3210, 2.5650350E-02
667.2495, 2.5994970E-02
669.1780, 2.5929511E-02
671.1064, 2.5312571E-02
673.0349, 2.4668220E-02
674.9634, 2.4093799E-02
676.8918, 2.3489051E-02
678.8203, 2.3282239E-02
680.7488, 2.3517661E-02
682.6772, 2.3505690E-02
684.6057, 2.3594830E-02
686.5342, 2.3779031E-02
688.4626, 2.4816200E-02
690.3911, 2.5699230E-02
692.3196, 2.6232731E-02
694.2480, 2.6691761E-02
696.1765, 2.7598999E-02
698.1050, 2.8357560E-02
700.0334, 2.9239289E-02
701.9619, 3.0050149E-02
703.8904, 3.0418489E-02
705.8188, 3.1383000E-02
707.7473, 3.2384790E-02
709.6758, 3.3148900E-02
711.6042, 3.3892281E-02
713.5327, 3.4951951E-02
715.4612, 3.6140159E-02
717.3896, 3.7244439E-02
719.3181, 3.8183309E-02
721.2466, 3.9283171E-02
723.1750, 4.0812861E-02
725.1035, 4.1982211E-02
727.0320, 4.3111451E-02
728.9604, 4.4383392E-02
730.8889, 4.5872111E-02
732.8174, 4.7435991E-02
734.7458, 4.9087580E-02
736.6743, 5.0360650E-02
738.6028, 5.1396329E-02
740.5313, 5.2367821E-02
742.4597, 5.3821459E-02
744.3882, 5.5284869E-02
746.3167, 5.6410670E-02
748.2451, 5.7352789E-02
750.1736, 5.8150489E-02
752.1021, 5.9433311E-02
754.0305, 6.1195839E-02
755.9590, 6.2848426E-02
757.8875, 6.4362302E-02
759.8159, 6.5962523E-02
761.7444, 6.7406498E-02
763.6729, 6.9027841E-02
765.6013, 7.1132697E-02
767.5298, 7.2802663E-02
769.4583, 7.4253440E-02
771.3867, 7.5953066E-02
773.3152, 7.7313647E-02
775.2437, 7.8824893E-02
777.1721, 8.0743447E-02
779.1006, 8.2731478E-02
781.0291, 8.4929243E-02
782.9575, 8.6972103E-02
784.8860, 8.9181088E-02
786.8145, 9.1263004E-02
788.7429, 9.3598783E-02
790.6714, 9.6215107E-02
792.5999, 9.8307043E-02
794.5283, 9.9753439E-02
796.4568, 0.1014885
798.3853, 0.1037613
800.3137, 0.1058218
802.2422, 0.1078310
804.1707, 0.1098383
806.0991, 0.1122542
808.0276, 0.1147275
809.9561, 0.1170169
811.8845, 0.1193943
813.8130, 0.1219981
815.7415, 0.1246123
817.6699, 0.1275404
819.5984, 0.1306058
821.5269, 0.1334176
823.4553, 0.1361025
825.3838, 0.1397118
827.3123, 0.1434358
829.2407, 0.1464764
831.1692, 0.1499121
833.0977, 0.1534937
835.0261, 0.1570182
836.9546, 0.1608402
838.8831, 0.1645139
840.8115, 0.1677809
842.7400, 0.1713807
844.6685, 0.1751954
846.5969, 0.1797087
848.5254, 0.1845304
850.4539, 0.1891921
852.3823, 0.1932019
854.3108, 0.1967077
856.2393, 0.2007961
858.1677, 0.2055459
860.0962, 0.2102199
862.0247, 0.2153502
863.9531, 0.2204953
865.8816, 0.2260706
867.8101, 0.2323744
869.7385, 0.2386058
871.6670, 0.2441245
873.5955, 0.2498914
875.5239, 0.2562126
877.4524, 0.2622321
879.3809, 0.2682139
881.3093, 0.2744620
883.2378, 0.2809895
885.1663, 0.2878721
887.0947, 0.2943022
889.0232, 0.3008460
890.9517, 0.3080497
892.8801, 0.3149602
894.8085, 0.3220325
896.7370, 0.3295848
898.6655, 0.3368515
900.5939, 0.3431265
902.5224, 0.3496501
904.4509, 0.3566125
906.3793, 0.3636081
908.3078, 0.3703374
910.2363, 0.3778408
912.1647, 0.3857608
914.0932, 0.3937993
916.0217, 0.4017394
917.9501, 0.4090514
919.8786, 0.4160984
921.8071, 0.4235393
923.7355, 0.4313563
925.6640, 0.4396606
927.5925, 0.4470039
929.5209, 0.4543426
931.4494, 0.4625139
933.3779, 0.4707141
935.3063, 0.4790661
937.2348, 0.4885809
939.1633, 0.4986461
941.0917, 0.5096943
943.0202, 0.5215975
944.9487, 0.5336705
946.8771, 0.5451784
948.8056, 0.5565082
950.7341, 0.5693625
952.6625, 0.5840618
954.5910, 0.5983406
956.5195, 0.6127874
958.4479, 0.6270256
960.3764, 0.6398212
962.3049, 0.6475263
964.2333, 0.6451822
966.1618, 0.6263619
968.0903, 0.5898607
970.0187, 0.5519202
971.9472, 0.5353500
973.8757, 0.5441753
975.8041, 0.5669082
977.7326, 0.5922866
979.6611, 0.6150277
981.5895, 0.6355203
983.5180, 0.6532737
985.4465, 0.6685908
987.3749, 0.6840771
989.3034, 0.6985905
991.2319, 0.7093187
993.1603, 0.7183043
995.0888, 0.7264224
997.0173, 0.7318700
998.9457, 0.7352098
1000.874, 0.7374523
1002.803, 0.7395847
1004.731, 0.7418698
1006.660, 0.7450490
1008.588, 0.7494651
1010.517, 0.7528506
1012.445, 0.7567584
1014.373, 0.7609026
1016.302, 0.7630183
1018.230, 0.7637848
1020.159, 0.7644165
1022.087, 0.7628574
1024.016, 0.7583034
1025.944, 0.7531613
1027.873, 0.7463933
1029.801, 0.7383120
1031.730, 0.7292356
1033.658, 0.7204752
1035.587, 0.7100717
1037.515, 0.6985554
1039.444, 0.6877296
1041.372, 0.6762380
1043.301, 0.6632936
1045.229, 0.6493533
1047.157, 0.6346229
1049.086, 0.6198385
1051.014, 0.6049380
1052.943, 0.5899221
1054.871, 0.5745339
1056.800, 0.5585601
1058.728, 0.5431924
1060.657, 0.5290695
1062.585, 0.5149266
1064.514, 0.5011376
1066.442, 0.4874460
1068.371, 0.4746161
1070.299, 0.4629506
1072.228, 0.4517105
1074.156, 0.4407589
1076.084, 0.4305269
1078.013, 0.4210227
1079.941, 0.4117194
1081.870, 0.4024426
1083.798, 0.3938664
1085.727, 0.3857469
1087.655, 0.3772201
1089.584, 0.3691700
1091.512, 0.3620439
1093.441, 0.3549985
1095.369, 0.3480614
1097.298, 0.3413408
1099.226, 0.3343801
1101.155, 0.3274426
1103.083, 0.3208685
1105.011, 0.3149514
1106.940, 0.3091158
1108.868, 0.3033083
1110.797, 0.2980317
1112.725, 0.2923645
1114.654, 0.2864251
1116.582, 0.2809691
1118.511, 0.2755235
1120.439, 0.2699597
1122.368, 0.2644550
1124.296, 0.2587987
1126.225, 0.2525548
1128.153, 0.2463153
1130.082, 0.2408317
1132.010, 0.2356550
1133.938, 0.2305636
1135.867, 0.2262959
1137.795, 0.2228391
1139.724, 0.2197795
1141.652, 0.2180711
1143.581, 0.2179268
1145.509, 0.2191215
1147.438, 0.2216729
1149.366, 0.2258618
1151.295, 0.2303284
1153.223, 0.2351543
1155.152, 0.2399852
1157.080, 0.2443735
1159.009, 0.2480336
1160.937, 0.2507193
1162.865, 0.2521120
1164.794, 0.2519405
1166.722, 0.2503096
1168.651, 0.2475104
1170.579, 0.2438880
1172.508, 0.2389519
1174.436, 0.2329561
1176.365, 0.2271224
1178.293, 0.2207158
1180.222, 0.2135467
1182.150, 0.2060387
1184.079, 0.1984590
1186.007, 0.1906967
1187.936, 0.1826227
1189.864, 0.1750036
1191.792, 0.1674414
1193.721, 0.1596460
1195.649, 0.1522070
1197.578, 0.1451738
1199.506, 0.1383409
1201.435, 0.1314924
1203.363, 0.1243552
1205.292, 0.1175891
1207.220, 0.1114666
1209.149, 0.1051254
1211.077, 9.8112918E-02
1213.006, 9.0559199E-02
1214.934, 8.2650512E-02
1216.863, 7.4807324E-02
1218.791, 6.7346737E-02
1220.719, 6.0290370E-02
1222.648, 5.4175030E-02
1224.576, 4.8980359E-02
1226.505, 4.4107229E-02
1228.433, 3.9542459E-02
1230.362, 3.5597749E-02
1232.290, 3.2366391E-02
1234.219, 2.9609259E-02
1236.147, 2.7171940E-02
1238.076, 2.4683200E-02
1240.004, 2.2271641E-02
1241.933, 2.0495901E-02
1243.861, 1.9101240E-02
1245.790, 1.7461840E-02
1247.718, 1.5990321E-02
1249.646, 1.4868140E-02
1251.575, 1.4012080E-02
1253.503, 1.3034890E-02
1255.432, 1.2100690E-02
1257.360, 1.1063230E-02
1259.289, 1.0033540E-02
1261.217, 9.5123630E-03
1263.146, 9.0544019E-03
1265.074, 8.4035844E-03
1267.003, 7.8411344E-03
1268.931, 7.2867349E-03
1270.860, 6.9183530E-03
1272.788, 6.4561432E-03
1274.717, 6.0765110E-03
1276.645, 5.8542960E-03
1278.573, 5.4910821E-03
1280.502, 5.1234411E-03
1282.430, 4.9866950E-03
1284.359, 5.0288462E-03
1286.287, 4.8372732E-03
1288.216, 4.6141851E-03
1290.144, 4.4760308E-03
1292.073, 4.3146582E-03
1294.001, 4.2070011E-03
1295.930, 4.1290889E-03
1297.858, 4.0688282E-03
1299.787, 3.9503030E-03
1301.715, 3.9194631E-03
1303.644, 4.0033059E-03
1305.572, 3.9748992E-03
1307.500, 3.6227009E-03
1309.429, 3.6422790E-03
1311.357, 3.7560160E-03
1313.286, 3.9394489E-03
1315.214, 3.8384821E-03
1317.143, 3.4599281E-03
1319.071, 3.4021181E-03
1321.000, 3.6307671E-03
1322.928, 3.6819461E-03
1324.857, 3.7056920E-03
1326.785, 3.5646069E-03
1328.714, 3.5091031E-03
1330.642, 3.5228010E-03
1332.571, 3.6291119E-03
1334.499, 3.6509610E-03
1336.427, 3.6161779E-03
1338.356, 3.5482650E-03
1340.284, 3.3942901E-03
1342.213, 3.2591771E-03
1344.141, 3.3606060E-03
1346.070, 3.4394930E-03
1347.998, 3.5681659E-03
1349.927, 3.8820209E-03
1351.855, 4.0243398E-03
1353.784, 4.2167772E-03
1355.712, 4.2463108E-03
1357.641, 3.9874860E-03
1359.569, 3.7972541E-03
1361.498, 3.8752891E-03
1363.426, 3.9926982E-03
1365.354, 3.9600870E-03
1367.283, 4.0538921E-03
1369.211, 4.1961581E-03
1371.140, 4.3203509E-03
1373.068, 4.2400500E-03
1374.997, 4.1042399E-03
1376.925, 4.0724198E-03
1378.854, 4.3539070E-03
1380.782, 4.4184350E-03
1382.711, 4.3887449E-03
1384.639, 4.6166019E-03
1386.568, 4.8161191E-03
1388.496, 5.1991828E-03
1390.424, 5.4382840E-03
1392.353, 5.4887012E-03
1394.281, 5.5587781E-03
1396.210, 5.7133199E-03
1398.138, 5.6719701E-03
1400.067, 5.4271771E-03
1401.995, 5.2131359E-03
1403.924, 5.1392871E-03
1405.852, 4.9965582E-03
1407.781, 5.1563210E-03
1409.709, 5.4295850E-03
1411.638, 5.4411660E-03
1413.566, 5.4408489E-03
1415.495, 5.6575029E-03
1417.423, 5.5068238E-03
1419.351, 5.3546620E-03
1421.280, 5.5650971E-03
1423.208, 5.6963768E-03
1425.137, 5.5944459E-03
1427.065, 5.3749881E-03
1428.994, 5.2643889E-03
1430.922, 5.1598530E-03
1432.851, 5.1155370E-03
1434.779, 5.1310030E-03
1436.708, 5.2084122E-03
1438.636, 5.2825571E-03
1440.565, 5.3783129E-03
1442.493, 5.2678948E-03
1444.422, 5.1389462E-03
1446.350, 5.1349839E-03
1448.278, 4.9776458E-03
1450.207, 4.8718220E-03
1452.135, 4.7286819E-03
1454.064, 4.5642639E-03
1455.992, 4.5136129E-03
1457.921, 4.9946690E-03
1459.849, 5.3215721E-03
1461.778, 5.2887471E-03
1463.706, 5.2101482E-03
1465.635, 5.1928749E-03
1467.563, 5.7493141E-03
1469.492, 6.3561602E-03
1471.420, 6.8513462E-03
1473.349, 7.1511278E-03
1475.277, 7.6037440E-03
1477.205, 8.1626130E-03
1479.134, 8.2501620E-03
1481.062, 8.2778679E-03
1482.991, 8.5184444E-03
1484.919, 8.6367717E-03
1486.848, 8.7598404E-03
1488.776, 8.7424507E-03
1490.705, 8.4638614E-03
1492.633, 8.6568771E-03
1494.562, 9.0833381E-03
1496.490, 9.0042539E-03
1498.419, 8.7427124E-03
1500.347, 8.7662069E-03
1502.276, 8.7352488E-03
1504.204, 8.8961972E-03
1506.132, 9.0377824E-03
1508.061, 9.1604656E-03
1509.989, 9.1499072E-03
1511.918, 9.2126494E-03
1513.846, 8.9724446E-03
1515.775, 8.6874198E-03
1517.703, 8.6829308E-03
1519.632, 8.6965663E-03
1521.560, 8.7870425E-03
1523.489, 9.0992441E-03
1525.417, 9.2112590E-03
1527.346, 9.4214221E-03
1529.274, 9.7097820E-03
1531.203, 9.6339462E-03
1533.131, 9.5586227E-03
1535.059, 9.8995091E-03
1536.988, 9.6334564E-03
1538.916, 9.2750397E-03
1540.845, 9.5535275E-03
1542.773, 9.7732404E-03
1544.702, 9.7259944E-03
1546.630, 9.6788667E-03
1548.559, 9.7578289E-03
1550.487, 9.9918069E-03
1552.416, 9.8643349E-03
1554.344, 9.8148705E-03
1556.273, 1.0224390E-02
1558.201, 1.0219550E-02
1560.130, 1.0105360E-02
1562.058, 1.0309060E-02
1563.986, 1.0438600E-02
1565.915, 1.0690350E-02
1567.843, 1.0984210E-02
1569.772, 1.0788440E-02
1571.700, 1.0498330E-02
1573.629, 1.0956920E-02
1575.557, 1.1213940E-02
1577.486, 1.0876080E-02
1579.414, 1.0548690E-02
1581.343, 1.0526830E-02
1583.271, 1.0549200E-02
1585.200, 1.0520710E-02
1587.128, 1.1003310E-02
1589.057, 1.1130800E-02
1590.985, 1.0686090E-02
1592.913, 1.0462750E-02
1594.842, 1.0431750E-02
1596.770, 1.0439800E-02
1598.699, 1.0049210E-02
1600.627, 1.0036210E-02
1602.556, 1.0315980E-02
1604.484, 1.0283340E-02
1606.413, 1.0315530E-02
1608.341, 1.0527890E-02
1610.270, 1.0880210E-02
1612.198, 1.0823960E-02
1614.127, 1.0648290E-02
1616.055, 1.0685260E-02
1617.984, 1.0743580E-02
1619.912, 1.0684990E-02
1621.840, 1.0416610E-02
1623.769, 1.0345790E-02
1625.697, 1.0367530E-02
1627.626, 1.0446270E-02
1629.554, 1.0680120E-02
1631.483, 1.0938500E-02
1633.411, 1.0985180E-02
1635.340, 1.0998860E-02
1637.268, 1.1143470E-02
1639.197, 1.1155110E-02
1641.125, 1.1478500E-02
1643.054, 1.1648960E-02
1644.982, 1.1435300E-02
1646.911, 1.1547080E-02
1648.839, 1.1819380E-02
1650.767, 1.1641560E-02
1652.696, 1.1532660E-02
1654.624, 1.1428580E-02
1656.553, 1.1288550E-02
1658.481, 1.1354730E-02
1660.410, 1.1695020E-02
1662.338, 1.1584110E-02
1664.267, 1.1245060E-02
1666.195, 1.1168660E-02
1668.124, 1.1067030E-02
1670.052, 1.1143490E-02
1671.981, 1.1187240E-02
1673.909, 1.0892510E-02
1675.838, 1.0939040E-02
1677.766, 1.1341010E-02
1679.694, 1.1296160E-02
1681.623, 1.1153530E-02
1683.551, 1.1498660E-02
1685.480, 1.1812110E-02
1687.408, 1.1701940E-02
1689.337, 1.1342190E-02
1691.265, 1.1293450E-02
1693.194, 1.1557900E-02
1695.122, 1.1631260E-02
1697.051, 1.1602970E-02
1698.979, 1.1686270E-02
1700.908, 1.1714820E-02
1702.836, 1.1415920E-02
1704.765, 1.0920720E-02
1706.693, 1.0613420E-02
1708.621, 1.0693020E-02
1710.550, 1.0297810E-02
1712.478, 1.0094910E-02
1714.407, 1.0149400E-02
1716.335, 1.0168720E-02
1718.264, 1.0303200E-02
1720.192, 1.0426080E-02
1722.121, 1.0560730E-02
1724.049, 1.1005420E-02
1725.978, 1.0882630E-02
1727.906, 1.0505980E-02
1729.835, 9.8611880E-03
1731.763, 9.6632028E-03
1733.692, 9.0271439E-03
1735.620, 8.4328270E-03
1737.548, 8.1920680E-03
1739.477, 7.8313267E-03
1741.405, 7.2829728E-03
1743.334, 6.6633970E-03
1745.262, 6.9222492E-03
1747.191, 7.7316458E-03
1749.119, 8.3826752E-03
1751.048, 9.0088928E-03
1752.976, 1.0045610E-02
1754.905, 1.0843580E-02
1756.833, 1.1218940E-02
1758.762, 1.1801800E-02
1760.690, 1.2351770E-02
1762.619, 1.2723110E-02
1764.547, 1.3361050E-02
1766.475, 1.3853590E-02
1768.404, 1.3956600E-02
1770.332, 1.3966750E-02
1772.261, 1.3910680E-02
1774.189, 1.3892660E-02
1776.118, 1.4030850E-02
1778.046, 1.4119040E-02
1779.975, 1.3808870E-02
1781.903, 1.4035430E-02
1783.832, 1.4475540E-02
1785.760, 1.4259780E-02
1787.689, 1.4405930E-02
1789.617, 1.4739160E-02
1791.546, 1.4798300E-02
1793.474, 1.4304130E-02
1795.402, 1.4114370E-02
1797.331, 1.4391670E-02
1799.259, 1.4598360E-02
1801.188, 1.4835680E-02
1803.116, 1.5287700E-02
1805.045, 1.5214470E-02
1806.973, 1.4981760E-02
1808.902, 1.5447380E-02
1810.830, 1.5575970E-02
1812.759, 1.5152480E-02
1814.687, 1.4535110E-02
1816.616, 1.4665280E-02
1818.544, 1.5179280E-02
1820.473, 1.5545770E-02
1822.401, 1.5073170E-02
1824.329, 1.4740920E-02
1826.258, 1.5046670E-02
1828.186, 1.5024040E-02
1830.115, 1.5200080E-02
1832.043, 1.5656030E-02
1833.972, 1.5761759E-02
1835.900, 1.5600830E-02
1837.829, 1.5102350E-02
1839.757, 1.5470010E-02
1841.686, 1.5771231E-02
1843.614, 1.5522370E-02
1845.543, 1.5614180E-02
1847.471, 1.5323020E-02
1849.400, 1.5131490E-02
1851.328, 1.5601390E-02
1853.256, 1.6026899E-02
1855.185, 1.5192790E-02
1857.113, 1.5389630E-02
1859.042, 1.7111881E-02
1860.970, 1.7094931E-02
1862.899, 1.6328810E-02
1864.827, 1.7129410E-02
1866.756, 1.7394559E-02
1868.684, 1.6992269E-02
1870.613, 1.6217081E-02
1872.541, 1.6074309E-02
1874.470, 1.6299820E-02
1876.398, 1.6698331E-02
1878.327, 1.7003439E-02
1880.255, 1.6933050E-02
1882.183, 1.6811060E-02
1884.112, 1.6166380E-02
1886.040, 1.5540880E-02
1887.969, 1.5873110E-02
1889.897, 1.6146529E-02
1891.826, 1.6381040E-02
1893.754, 1.7147200E-02
1895.683, 1.6855080E-02
1897.611, 1.5927261E-02
1899.540, 1.6674699E-02
1901.468, 1.7643930E-02
1903.397, 1.7045850E-02
1905.325, 1.7028321E-02
1907.254, 1.7148640E-02
1909.182, 1.6959671E-02
1911.110, 1.6986500E-02
1913.039, 1.7596280E-02
1914.967, 1.7927689E-02
1916.896, 1.8005511E-02
1918.824, 1.8132851E-02
1920.753, 1.7847970E-02
1922.681, 1.7226420E-02
1924.610, 1.7084740E-02
1926.538, 1.7520569E-02
1928.467, 1.7931720E-02
1930.395, 1.7808709E-02
1932.324, 1.6500320E-02
1934.252, 1.7284490E-02
1936.181, 1.8708780E-02
1938.109, 1.8653350E-02
1940.037, 1.8899269E-02
1941.966, 1.8381329E-02
1943.894, 1.7789049E-02
1945.823, 1.7087830E-02
1947.751, 1.8260060E-02
1949.680, 1.9219380E-02
1951.608, 1.7696600E-02
1953.537, 1.6942190E-02
1955.465, 1.6524561E-02
1957.394, 1.6485570E-02
1959.322, 1.6557680E-02
1961.251, 1.6933121E-02
1963.179, 1.6773950E-02
1965.108, 1.6678469E-02
1967.036, 1.8657589E-02
1968.964, 1.8819731E-02
1970.893, 1.9328561E-02
1972.821, 1.9928550E-02
1974.750, 1.9751631E-02
1976.678, 1.7667821E-02
1978.607, 1.6896540E-02
1980.535, 1.7805001E-02
1982.464, 1.8775061E-02
1984.392, 2.0916250E-02
1986.321, 2.2612659E-02
1988.249, 2.2319930E-02
1990.178, 2.2008371E-02
1992.106, 2.1257350E-02
1994.035, 2.1949571E-02
1995.963, 2.2773350E-02
1997.891, 2.1044290E-02
1999.820, 1.9583650E-02
2001.748, 1.9846041E-02
2003.677, 2.1804340E-02
2005.605, 2.1890819E-02
2007.534, 2.1458240E-02
2009.462, 1.9138070E-02
2011.391, 1.7897200E-02
2013.319, 1.8698160E-02
2015.248, 1.8889969E-02
2017.176, 2.1103080E-02
2019.105, 2.1423411E-02
2021.033, 2.1416420E-02
2022.962, 2.0458370E-02
2024.890, 1.9279109E-02
2026.818, 1.9572640E-02
2028.747, 1.8434370E-02
2030.675, 1.6781630E-02
2032.604, 1.7938521E-02
2034.532, 1.9048560E-02
2036.461, 2.1330271E-02
2038.389, 2.1178620E-02
2040.318, 1.9442581E-02
2042.246, 1.7405421E-02
2044.175, 1.5615060E-02
2046.103, 1.6302779E-02
2048.032, 1.8752569E-02
2049.960, 2.0552959E-02
2051.889, 2.1439910E-02
2053.817, 2.2152871E-02
2055.746, 2.1312481E-02
2057.674, 2.1065990E-02
2059.603, 2.2147911E-02
2061.531, 2.2039050E-02
2063.459, 2.2549691E-02
2065.388, 2.3836140E-02
2067.316, 2.1550169E-02
2069.245, 2.0926720E-02
2071.173, 2.3513200E-02
2073.102, 2.3128550E-02
2075.030, 2.2498840E-02
2076.959, 2.1776440E-02
2078.887, 2.2233140E-02
2080.816, 2.4020420E-02
2082.744, 2.4475791E-02
2084.673, 2.3003681E-02
2086.601, 2.3227450E-02
2088.530, 2.4007419E-02
2090.458, 2.3503929E-02
2092.386, 2.3030911E-02
2094.315, 2.4332400E-02
2096.243, 2.5255280E-02
2098.172, 2.4389779E-02
2100.100, 2.4395401E-02
2102.029, 2.4724890E-02
2103.957, 2.4634760E-02
2105.886, 2.4616420E-02
2107.814, 2.4428271E-02
2109.743, 2.5897419E-02
2111.671, 2.6720490E-02
2113.600, 2.6209040E-02
2115.528, 2.4947921E-02
2117.457, 2.4129741E-02
2119.385, 2.3806751E-02
2121.313, 2.3141351E-02
2123.242, 2.4590731E-02
2125.170, 2.6020380E-02
2127.099, 2.5899010E-02
2129.027, 2.4638830E-02
2130.956, 2.3734380E-02
2132.884, 2.1912100E-02
2134.813, 2.2358609E-02
2136.741, 2.3445060E-02
2138.670, 2.1179380E-02
2140.598, 1.9904871E-02
2142.527, 1.8612510E-02
2144.455, 1.8720889E-02
2146.384, 1.9274911E-02
2148.312, 2.0047139E-02
2150.240, 1.8051650E-02
2152.169, 1.5941691E-02
2154.097, 1.4666450E-02
2156.026, 1.2912580E-02
2157.954, 1.5118420E-02
2159.883, 1.9027110E-02
2161.811, 1.8760890E-02
2163.740, 1.7243730E-02
2165.668, 1.6804030E-02
2167.597, 1.8047269E-02
2169.525, 1.9050291E-02
2171.454, 2.1649649E-02
2173.382, 2.1544291E-02
2175.311, 2.0442029E-02
2177.239, 2.0632889E-02
2179.167, 2.0507861E-02
2181.096, 1.9408191E-02
2183.024, 2.0388430E-02
2184.953, 2.2080520E-02
2186.881, 2.2282550E-02
2188.810, 2.1123610E-02
2190.738, 1.9538891E-02
2192.667, 2.0307019E-02
2194.595, 2.1543611E-02
2196.524, 2.1136589E-02
2198.452, 2.0970020E-02
2200.381, 2.1375360E-02
2202.309, 2.2362281E-02
2204.238, 2.2435470E-02
2206.166, 2.2591909E-02
2208.094, 2.3197699E-02
2210.023, 2.2504700E-02
2211.951, 2.2088520E-02
2213.880, 2.3159800E-02
2215.808, 2.4679450E-02
2217.737, 2.5543200E-02
2219.665, 2.3665840E-02
2221.594, 2.3843329E-02
2223.522, 2.4295701E-02
2225.451, 2.3374140E-02
2227.379, 2.1145919E-02
2229.308, 2.2625091E-02
2231.236, 2.5472170E-02
2233.165, 2.5146941E-02
2235.093, 2.4222730E-02
2237.021, 2.4016960E-02
2238.950, 2.3558110E-02
2240.878, 2.4997840E-02
2242.807, 2.7349880E-02
2244.735, 2.7245579E-02
2246.664, 2.6572160E-02
2248.592, 2.6050840E-02
2250.521, 2.5444631E-02
2252.449, 2.6998119E-02
2254.378, 2.7481381E-02
2256.306, 2.6974190E-02
2258.235, 2.7780220E-02
2260.163, 2.8157460E-02
2262.092, 2.7346570E-02
2264.020, 2.7721820E-02
2265.948, 2.8363060E-02
2267.877, 2.8753869E-02
2269.805, 2.8886041E-02
2271.734, 2.9040029E-02
2273.662, 2.8884850E-02
2275.591, 2.9190440E-02
2277.519, 2.9127350E-02
2279.448, 2.7303871E-02
2281.376, 2.7297830E-02
2283.305, 2.9318221E-02
2285.233, 3.0616229E-02
2287.162, 3.0234169E-02
2289.090, 3.0882720E-02
2291.019, 3.0739460E-02
2292.947, 3.0040000E-02
2294.875, 3.0929791E-02
2296.804, 3.0816140E-02
2298.732, 2.9391900E-02
2300.661, 2.9304380E-02
2302.589, 2.9845091E-02
2304.518, 2.9777100E-02
2306.446, 3.0116750E-02
2308.375, 3.1216441E-02
2310.303, 3.1733509E-02
2312.232, 3.1596329E-02
2314.160, 3.1558041E-02
2316.089, 3.1311959E-02
2318.017, 3.2086201E-02
2319.946, 3.3326939E-02
2321.874, 3.3715170E-02
2323.802, 3.2514989E-02
2325.731, 3.1385560E-02
2327.659, 3.1349611E-02
2329.588, 3.1415708E-02
2331.516, 3.1082870E-02
2333.445, 3.1013461E-02
2335.373, 3.1239850E-02
2337.302, 3.0993581E-02
2339.230, 3.0872609E-02
2341.159, 3.1121431E-02
2343.087, 3.0691041E-02
2345.016, 3.0406211E-02
2346.944, 3.0682500E-02
2348.873, 3.1471081E-02
2350.801, 3.1203100E-02
2352.729, 3.1405300E-02
2354.658, 3.1685632E-02
2356.586, 3.1956460E-02
2358.515, 3.1998001E-02
2360.443, 3.1268511E-02
2362.372, 3.1427149E-02
2364.300, 3.1043749E-02
2366.229, 3.0049279E-02
2368.157, 3.0218730E-02
2370.086, 3.1261940E-02
2372.014, 3.2062441E-02
2373.942, 3.2208361E-02
2375.871, 3.2091759E-02
2377.799, 3.1718250E-02
2379.728, 3.1754632E-02
2381.656, 3.1786140E-02
2383.585, 3.1248281E-02
2385.513, 3.0574109E-02
2387.442, 2.9724481E-02
2389.370, 2.9436819E-02
2391.299, 2.9748850E-02
2393.227, 3.0245749E-02
2395.156, 3.1288009E-02
2397.084, 3.1659730E-02
2399.012, 3.1374510E-02
2400.941, 3.1863630E-02
2402.869, 3.2118101E-02
2404.798, 3.2043960E-02
2406.726, 3.1797521E-02
2408.655, 3.1192480E-02
2410.583, 3.1793721E-02
2412.512, 3.1780679E-02
2414.440, 3.1618241E-02
2416.369, 3.1446639E-02
2418.297, 3.1014420E-02
2420.226, 3.1852119E-02
2422.154, 3.4392372E-02
2424.083, 3.4375940E-02
2426.011, 3.1669870E-02
2427.939, 3.1203881E-02
2429.868, 3.3345070E-02
2431.796, 3.3147771E-02
2433.725, 3.2608211E-02
2435.653, 3.3592809E-02
2437.582, 3.4216952E-02
2439.510, 3.4815129E-02
2441.439, 3.5009190E-02
2443.367, 3.4762841E-02
2445.296, 3.4291171E-02
2447.224, 3.5195161E-02
2449.153, 3.6019739E-02
2451.081, 3.6356561E-02
2453.010, 3.5475820E-02
2454.938, 3.4589041E-02
2456.866, 3.5013281E-02
2458.795, 3.4539972E-02
2460.723, 3.4624320E-02
2462.652, 3.5433900E-02
2464.580, 3.5755530E-02
2466.509, 3.5792548E-02
2468.437, 3.5485189E-02
2470.366, 3.5787839E-02
2472.294, 3.6125049E-02
2474.223, 3.5577931E-02
2476.151, 3.5557840E-02
2478.080, 3.5556249E-02
2480.008, 3.5389181E-02
2481.937, 3.6651202E-02
2483.865, 3.7226550E-02
2485.793, 3.6587931E-02
2487.722, 3.6693908E-02
2489.650, 3.6720481E-02
2491.579, 3.5189301E-02
2493.507, 3.4257188E-02
2495.436, 3.5253089E-02
2497.364, 3.6806259E-02
2499.293, 3.7746768E-02
2501.221, 3.6986060E-02
2503.150, 3.6889981E-02
2505.078, 3.8249139E-02
2507.007, 3.8068499E-02
2508.935, 3.7805378E-02
2510.864, 3.8194101E-02
2512.792, 3.7531599E-02
2514.720, 3.8033690E-02
2516.649, 3.9806020E-02
2518.577, 3.9708789E-02
2520.506, 3.8994670E-02
2522.434, 3.9415710E-02
2524.363, 3.8953800E-02
2526.291, 3.8601998E-02
2528.220, 3.8306911E-02
2530.148, 3.7596051E-02
2532.077, 3.7775960E-02
2534.005, 3.8615249E-02
2535.934, 3.9218459E-02
2537.862, 4.0049110E-02
2539.791, 3.9689180E-02
2541.719, 3.8588800E-02
2543.647, 3.8295802E-02
2545.576, 3.8818479E-02
2547.504, 3.8776901E-02
2549.433, 3.8359549E-02
2551.361, 3.8571320E-02
2553.290, 3.9007790E-02
2555.218, 3.9950188E-02
2557.147, 4.0685609E-02
2559.075, 4.0864870E-02
2561.004, 3.9554559E-02
2562.932, 3.8621310E-02
2564.861, 4.0142968E-02
2566.789, 4.0480550E-02
2568.718, 4.0196989E-02
2570.646, 4.1023739E-02
2572.574, 4.0709078E-02
2574.503, 3.8901031E-02
2576.431, 3.9845381E-02
2578.360, 4.0906869E-02
2580.288, 4.0361390E-02
2582.217, 4.0568698E-02
2584.145, 4.1386459E-02
2586.074, 4.0791359E-02
2588.002, 4.0146250E-02
2589.931, 3.9793279E-02
2591.859, 4.0255040E-02
2593.788, 4.0060639E-02
2595.716, 3.9984461E-02
2597.645, 4.0930849E-02
2599.573, 4.1182760E-02
2601.501, 4.0682219E-02
2603.430, 3.9707240E-02
2605.358, 4.0191401E-02
2607.287, 4.0967941E-02
2609.215, 4.0560979E-02
2611.144, 3.9644070E-02
2613.072, 4.0602721E-02
2615.001, 4.1488010E-02
2616.929, 4.1003302E-02
2618.858, 4.1054029E-02
2620.786, 4.1582141E-02
2622.715, 4.1951969E-02
2624.643, 4.2082880E-02
2626.572, 4.1951898E-02
2628.500, 4.1755840E-02
2630.428, 4.1866850E-02
2632.357, 4.2420700E-02
2634.285, 4.3178499E-02
2636.214, 4.2887960E-02
2638.142, 4.1596431E-02
2640.071, 4.0976901E-02
2641.999, 4.1103639E-02
2643.928, 4.0832229E-02
2645.856, 4.0501431E-02
2647.785, 4.0381279E-02
2649.713, 4.1359790E-02
2651.642, 4.2013381E-02
2653.570, 4.2429011E-02
2655.499, 4.2212930E-02
2657.427, 4.1614931E-02
2659.355, 4.0987041E-02
2661.284, 4.1154649E-02
2663.212, 4.1746330E-02
2665.141, 4.1487381E-02
2667.069, 4.0499389E-02
2668.998, 4.0544700E-02
2670.926, 4.0351771E-02
2672.855, 4.0475540E-02
2674.783, 4.0628549E-02
2676.712, 4.1008841E-02
2678.640, 4.1321419E-02
2680.569, 4.1530829E-02
2682.497, 4.1224360E-02
2684.426, 4.1315280E-02
2686.354, 4.1880339E-02
2688.282, 4.1796751E-02
2690.211, 4.0941730E-02
2692.139, 4.0864471E-02
2694.068, 4.1693442E-02
2695.996, 4.2085111E-02
2697.925, 4.1938700E-02
2699.853, 4.1561440E-02
2701.782, 4.1720431E-02
2703.710, 4.1786171E-02
2705.639, 4.2232100E-02
2707.567, 4.2722128E-02
2709.496, 4.3087240E-02
2711.424, 4.2777229E-02
2713.353, 4.3610979E-02
2715.281, 4.4205949E-02
2717.209, 4.2863108E-02
2719.138, 4.1668050E-02
2721.066, 4.2026710E-02
2722.995, 4.3370269E-02
2724.923, 4.3602262E-02
2726.852, 4.3914061E-02
2728.780, 4.4292070E-02
2730.709, 4.4066150E-02
2732.637, 4.4035960E-02
2734.566, 4.3546010E-02
2736.494, 4.3480501E-02
2738.423, 4.3968119E-02
2740.351, 4.3824881E-02
2742.280, 4.3460120E-02
2744.208, 4.3039341E-02
2746.136, 4.3219499E-02
2748.065, 4.3214779E-02
2749.993, 4.3507300E-02
2751.922, 4.3786760E-02
2753.850, 4.4599932E-02
2755.779, 4.4770759E-02
2757.707, 4.4984970E-02
2759.636, 4.3802511E-02
2761.564, 4.3508559E-02
2763.493, 4.3929059E-02
2765.421, 4.4565700E-02
2767.350, 4.5261741E-02
2769.278, 4.5211591E-02
2771.207, 4.5351371E-02
2773.135, 4.4895481E-02
2775.063, 4.3849759E-02
2776.992, 4.3592259E-02
2778.920, 4.4722650E-02
2780.849, 4.5231700E-02
2782.777, 4.4524830E-02
2784.706, 4.4681899E-02
2786.634, 4.5153651E-02
2788.563, 4.5232888E-02
2790.491, 4.4665080E-02
2792.420, 4.3837830E-02
2794.348, 4.3219380E-02
2796.277, 4.3586999E-02
2798.205, 4.4805039E-02
2800.134, 4.5245040E-02
2802.062, 4.4801820E-02
2803.990, 4.4834688E-02
2805.919, 4.5639951E-02
2807.847, 4.5677539E-02
2809.776, 4.5573980E-02
2811.704, 4.5645479E-02
2813.633, 4.5910262E-02
2815.561, 4.5380551E-02
2817.490, 4.5797221E-02
2819.418, 4.6030130E-02
2821.347, 4.5862969E-02
2823.275, 4.7892060E-02
2825.204, 4.7700029E-02
2827.132, 4.5793980E-02
2829.061, 4.5028709E-02
2830.989, 4.4582389E-02
2832.917, 4.4929929E-02
2834.846, 4.5686919E-02
2836.774, 4.5461029E-02
2838.703, 4.5928109E-02
2840.631, 4.4854760E-02
2842.560, 4.4782329E-02
2844.488, 4.5535430E-02
2846.417, 4.5859210E-02
2848.345, 4.5985449E-02
2850.274, 4.4568811E-02
2852.202, 4.4330880E-02
2854.131, 4.5357071E-02
2856.059, 4.5642909E-02
2857.988, 4.6898711E-02
2859.916, 4.7566209E-02
2861.844, 4.6981569E-02
2863.773, 4.6731122E-02
2865.701, 4.6997719E-02
2867.630, 4.7507539E-02
2869.558, 4.6975732E-02
2871.487, 4.6531811E-02
2873.415, 4.6941951E-02
2875.344, 4.6914861E-02
2877.272, 4.6559270E-02
2879.201, 4.6984188E-02
2881.129, 4.7479801E-02
2883.058, 4.6822172E-02
2884.986, 4.8018251E-02
2886.915, 4.7525208E-02
2888.843, 4.6106890E-02
2890.771, 4.6481919E-02
2892.700, 4.8586160E-02
2894.628, 4.8893511E-02
2896.557, 4.8347238E-02
2898.485, 4.8249260E-02
2900.414, 4.8580509E-02
2902.342, 4.7005299E-02
2904.271, 4.6444539E-02
2906.199, 4.7060300E-02
2908.128, 4.7092419E-02
2910.056, 4.7446091E-02
2911.985, 4.8059370E-02
2913.913, 4.8227079E-02
2915.842, 4.8179559E-02
2917.770, 4.7976378E-02
2919.698, 4.9117811E-02
2921.627, 5.0448209E-02
2923.555, 5.0263949E-02
2925.484, 4.9459849E-02
2927.412, 4.8641779E-02
2929.341, 4.9616840E-02
2931.269, 5.0586041E-02
2933.198, 5.2582290E-02
2935.126, 5.2437510E-02
2937.055, 5.0608750E-02
2938.983, 5.0294582E-02
2940.912, 5.0034638E-02
2942.840, 5.0487969E-02
2944.769, 5.1055260E-02
2946.697, 5.0159682E-02
2948.625, 4.8901241E-02
2950.554, 4.8859101E-02
2952.482, 4.9916599E-02
2954.411, 4.9974579E-02
2956.339, 5.0332539E-02
2958.268, 5.0405759E-02
2960.196, 5.0545260E-02
2962.125, 5.1274151E-02
2964.053, 5.2752439E-02
2965.982, 5.1879819E-02
2967.910, 5.1043250E-02
2969.839, 5.2156299E-02
2971.767, 5.1964391E-02
2973.696, 5.0867740E-02
2975.624, 5.0968871E-02
2977.552, 5.1256899E-02
2979.481, 5.1806550E-02
2981.409, 5.1085111E-02
2983.338, 5.0747480E-02
2985.266, 5.2486010E-02
2987.195, 5.3729251E-02
2989.123, 5.3262219E-02
2991.052, 5.3542130E-02
2992.980, 5.3604599E-02
2994.909, 5.2092560E-02
2996.837, 5.2434340E-02
2998.766, 5.4507181E-02
3000.694, 5.4289240E-02
3002.623, 5.4634999E-02
3004.551, 5.5456940E-02
3006.479, 5.4173429E-02
3008.408, 5.3262029E-02
3010.336, 5.3838689E-02
3012.265, 5.3176120E-02
3014.193, 5.2932382E-02
3016.122, 5.2682292E-02
3018.050, 5.2555948E-02
3019.979, 5.3229898E-02
3021.907, 5.4613210E-02
3023.836, 5.4943722E-02
3025.764, 5.4802399E-02
3027.693, 5.4675680E-02
3029.621, 5.4097779E-02
3031.550, 5.2855659E-02
3033.478, 5.4091889E-02
3035.406, 5.5759251E-02
3037.335, 5.4303519E-02
3039.263, 5.4248750E-02
3041.192, 5.6391370E-02
3043.120, 5.6499351E-02
3045.049, 5.5114351E-02
3046.977, 5.4950979E-02
3048.906, 5.6521729E-02
3050.834, 5.6885440E-02
3052.763, 5.5177830E-02
3054.691, 5.5812150E-02
3056.620, 5.6487009E-02
3058.548, 5.4548569E-02
3060.477, 5.3088792E-02
3062.405, 5.3378250E-02
3064.333, 5.3247880E-02
3066.262, 5.1540859E-02
3068.190, 5.2151810E-02
3070.119, 5.2253641E-02
3072.047, 5.3616539E-02
3073.976, 5.3930789E-02
3075.904, 5.2886479E-02
3077.833, 5.3640120E-02
3079.761, 5.4570738E-02
3081.690, 5.6116611E-02
3083.618, 5.6841131E-02
3085.547, 5.6763660E-02
3087.475, 5.7236720E-02
3089.404, 5.8708351E-02
3091.332, 5.9881970E-02
3093.260, 5.9780799E-02
3095.189, 5.7554789E-02
3097.117, 5.6979708E-02
3099.046, 5.6464650E-02
3100.974, 5.5753071E-02
3102.903, 5.6892268E-02
3104.831, 5.6329660E-02
3106.760, 5.6432001E-02
3108.688, 5.7438679E-02
3110.617, 5.7049520E-02
3112.545, 5.6153011E-02
3114.474, 5.6106068E-02
3116.402, 5.6224499E-02
3118.331, 5.6273662E-02
3120.259, 5.6559999E-02
3122.188, 5.7371002E-02
3124.116, 5.9259299E-02
3126.044, 5.9425689E-02
3127.973, 5.6638431E-02
3129.901, 5.6331299E-02
3131.830, 5.8135580E-02
3133.758, 5.6949310E-02
3135.687, 5.5911299E-02
3137.615, 5.7231221E-02
3139.544, 6.0628660E-02
3141.472, 6.1262131E-02
3143.401, 5.9354559E-02
3145.329, 5.8486491E-02
3147.258, 5.8775429E-02
3149.186, 5.8319580E-02
3151.115, 5.8425471E-02
3153.043, 5.7624239E-02
3154.971, 5.7581641E-02
3156.900, 5.8539391E-02
3158.828, 5.9398569E-02
3160.757, 6.0972560E-02
3162.685, 6.1056320E-02
3164.614, 5.7730939E-02
3166.542, 5.6730289E-02
3168.471, 5.9321400E-02
3170.399, 6.0097899E-02
3172.328, 5.9810359E-02
3174.256, 5.9537221E-02
3176.185, 5.8600370E-02
3178.113, 5.8125690E-02
3180.042, 5.8973242E-02
3181.970, 6.0124960E-02
3183.898, 6.1814740E-02
3185.827, 6.0755830E-02
3187.755, 5.8733959E-02
3189.684, 5.9233900E-02
3191.612, 6.0214709E-02
3193.541, 6.0706250E-02
3195.469, 6.0280059E-02
3197.398, 5.9144638E-02
3199.326, 5.9077669E-02
3201.255, 6.0476501E-02
3203.183, 6.1362550E-02
3205.112, 6.0054969E-02
3207.040, 5.9100252E-02
3208.969, 5.8299478E-02
3210.897, 5.8564730E-02
3212.825, 5.8797419E-02
3214.754, 5.8845151E-02
3216.682, 5.8472961E-02
3218.611, 5.9304580E-02
3220.539, 6.0031340E-02
3222.468, 5.9353929E-02
3224.396, 6.0224351E-02
3226.325, 6.0251441E-02
3228.253, 5.9110109E-02
3230.182, 5.8450751E-02
3232.110, 5.9199721E-02
3234.039, 5.9911761E-02
3235.967, 6.2360968E-02
3237.896, 6.2629193E-02
3239.824, 6.0420051E-02
3241.752, 6.1782409E-02
3243.681, 6.4198509E-02
3245.609, 6.2562302E-02
3247.538, 6.0335681E-02
3249.466, 6.0526140E-02
3251.395, 6.1499450E-02
3253.323, 6.1704710E-02
3255.252, 6.0777690E-02
3257.180, 6.2118381E-02
3259.109, 6.2985078E-02
3261.037, 6.2359609E-02
3262.966, 6.1248269E-02
3264.894, 6.0364950E-02
3266.823, 6.0343679E-02
3268.751, 6.0913950E-02
3270.679, 6.2654197E-02
3272.608, 6.3480780E-02
3274.536, 6.2999897E-02
3276.465, 6.1685082E-02
3278.393, 6.1935570E-02
3280.322, 6.3628130E-02
3282.250, 6.1535079E-02
3284.179, 6.0979061E-02
3286.107, 6.0298331E-02
3288.036, 6.0333490E-02
3289.964, 6.1045069E-02
3291.893, 6.2589847E-02
3293.821, 6.2276620E-02
3295.750, 6.0509790E-02
3297.678, 5.9898820E-02
3299.606, 6.3156918E-02
3301.535, 6.4151138E-02
3303.463, 6.2390111E-02
3305.392, 6.2411550E-02
3307.320, 6.2594697E-02
3309.249, 6.2697507E-02
3311.177, 6.2940814E-02
3313.106, 6.3250557E-02
3315.034, 6.3750014E-02
3316.963, 6.4641833E-02
3318.891, 6.4509429E-02
3320.820, 6.3640453E-02
3322.748, 6.1831601E-02
3324.677, 6.2988877E-02
3326.605, 6.6297799E-02
3328.533, 6.5389253E-02
3330.462, 6.4438462E-02
3332.390, 6.4162597E-02
3334.319, 6.3394897E-02
3336.247, 6.4038940E-02
3338.176, 6.5266252E-02
3340.104, 6.3053690E-02
3342.033, 6.1880611E-02
3343.961, 6.2566973E-02
3345.890, 6.5097503E-02
3347.818, 6.6283613E-02
3349.747, 6.4982183E-02
3351.675, 6.3700520E-02
3353.604, 6.3536122E-02
3355.532, 6.3878126E-02
3357.460, 6.3484848E-02
3359.389, 6.2839828E-02
3361.317, 6.5141313E-02
3363.246, 6.6416107E-02
3365.174, 6.3811719E-02
3367.103, 6.1698090E-02
3369.031, 6.1826590E-02
3370.960, 6.2376119E-02
3372.888, 6.3994303E-02
3374.817, 6.6607393E-02
3376.745, 6.6453911E-02
3378.674, 6.4207092E-02
3380.602, 6.3200623E-02
3382.531, 6.3087143E-02
3384.459, 6.3785240E-02
3386.387, 6.3521057E-02
3388.316, 6.3391007E-02
3390.244, 6.4038701E-02
3392.173, 6.5099023E-02
3394.101, 6.2512383E-02
3396.030, 6.2975422E-02
3397.958, 6.6689380E-02
3399.887, 6.6878222E-02
3401.815, 6.5536089E-02
3403.744, 6.5637141E-02
3405.672, 6.5026604E-02
3407.601, 6.5254331E-02
3409.529, 6.6358708E-02
3411.458, 6.3969359E-02
3413.386, 6.3733824E-02
3415.314, 6.4221524E-02
3417.243, 6.4712949E-02
3419.171, 6.6634648E-02
3421.100, 6.8400607E-02
3423.028, 6.7488313E-02
3424.957, 6.6907629E-02
3426.885, 6.8319291E-02
3428.814, 6.7202494E-02
3430.742, 6.5106086E-02
3432.671, 6.5036356E-02
3434.599, 6.5198191E-02
3436.528, 6.7486621E-02
3438.456, 6.9413692E-02
3440.385, 6.6485777E-02
3442.313, 6.4101771E-02
3444.241, 6.4656071E-02
3446.170, 6.6624083E-02
3448.098, 6.7524038E-02
3450.027, 6.8226367E-02
3451.955, 6.8581887E-02
3453.884, 6.6430807E-02
3455.812, 6.6063173E-02
3457.741, 6.5174364E-02
3459.669, 6.4655557E-02
3461.598, 6.6136613E-02
3463.526, 6.5460809E-02
3465.455, 6.6276647E-02
3467.383, 6.7875013E-02
3469.312, 6.8877377E-02
3471.240, 6.8971157E-02
3473.168, 6.8594888E-02
3475.097, 6.7832701E-02
3477.025, 6.5593436E-02
3478.954, 6.7437589E-02
3480.882, 6.8585873E-02
3482.811, 6.7669958E-02
3484.739, 6.7732900E-02
3486.668, 6.8209127E-02
3488.596, 6.9446221E-02
3490.525, 6.9233403E-02
3492.453, 6.9903083E-02
3494.382, 7.0087671E-02
3496.310, 6.9334812E-02
3498.239, 6.8458520E-02
3500.167, 6.9931552E-02
3502.095, 7.0216633E-02
3504.024, 6.7736983E-02
3505.952, 6.6019773E-02
3507.881, 6.5944910E-02
3509.809, 6.5455303E-02
3511.738, 6.5909266E-02
3513.666, 6.6044673E-02
3515.595, 6.8915769E-02
3517.523, 7.1229286E-02
3519.452, 6.9753453E-02
3521.380, 6.9275647E-02
3523.309, 7.2286338E-02
3525.237, 7.1937151E-02
3527.166, 7.0714377E-02
3529.094, 6.9336861E-02
3531.022, 6.8003736E-02
3532.951, 6.7379013E-02
3534.879, 6.9743574E-02
3536.808, 7.2317854E-02
3538.736, 7.0766717E-02
3540.665, 6.7141756E-02
3542.593, 6.9788054E-02
3544.522, 7.1622677E-02
3546.450, 7.1157873E-02
3548.379, 7.2858378E-02
3550.307, 7.3656783E-02
3552.236, 7.3515177E-02
3554.164, 7.3327243E-02
3556.093, 7.4454613E-02
3558.021, 7.7053659E-02
3559.949, 7.3269352E-02
3561.878, 7.0306137E-02
3563.806, 7.1101397E-02
3565.735, 7.2163843E-02
3567.663, 7.2796233E-02
3569.592, 7.4011460E-02
3571.520, 7.2369963E-02
3573.449, 7.1191877E-02
3575.377, 7.1626984E-02
3577.306, 6.9807693E-02
3579.234, 6.8896294E-02
3581.163, 7.1472153E-02
3583.091, 7.0998587E-02
3585.020, 6.7409180E-02
3586.948, 6.7906201E-02
3588.876, 7.1941257E-02
3590.805, 7.2365969E-02
3592.733, 7.1706563E-02
3594.662, 7.0729151E-02
3596.590, 6.8553753E-02
3598.519, 6.6883527E-02
3600.447, 6.8259217E-02
3602.376, 6.9665939E-02
3604.304, 7.0253722E-02
3606.233, 7.3223203E-02
3608.161, 7.1140014E-02
3610.090, 7.1305208E-02
3612.018, 7.4309252E-02
3613.947, 7.3788680E-02
3615.875, 7.1518660E-02
3617.803, 7.0804983E-02
3619.732, 7.2981097E-02
3621.660, 7.3467053E-02
3623.589, 7.0402600E-02
3625.517, 6.9993280E-02
3627.446, 7.2531283E-02
3629.374, 7.2467327E-02
3631.303, 6.8568580E-02
3633.231, 6.8415023E-02
3635.160, 7.3454916E-02
3637.088, 7.4171752E-02
3639.017, 7.0964381E-02
3640.945, 7.0906967E-02
3642.874, 7.2139457E-02
3644.802, 7.4314117E-02
3646.730, 7.3219672E-02
3648.659, 7.1384206E-02
3650.587, 7.0700742E-02
3652.516, 7.0862100E-02
3654.444, 7.1568079E-02
3656.373, 7.2801434E-02
3658.301, 7.3497713E-02
3660.230, 7.4767493E-02
3662.158, 7.7909037E-02
3664.087, 7.5936571E-02
3666.015, 7.2992280E-02
3667.944, 7.3393978E-02
3669.872, 7.4711099E-02
3671.801, 7.3062643E-02
3673.729, 7.2279043E-02
3675.657, 7.2103404E-02
3677.586, 7.1140811E-02
3679.514, 7.2683729E-02
3681.443, 7.4387863E-02
3683.371, 7.7187613E-02
3685.300, 7.8280687E-02
3687.228, 7.2475851E-02
3689.157, 7.2075129E-02
3691.085, 7.6321140E-02
3693.014, 7.7871934E-02
3694.942, 7.5607590E-02
3696.871, 7.2735228E-02
3698.799, 7.1413159E-02
3700.728, 7.0665397E-02
3702.656, 6.8597041E-02
3704.584, 6.9793239E-02
3706.513, 7.2221532E-02
3708.441, 7.1006328E-02
3710.370, 6.9590017E-02
3712.298, 7.2220288E-02
3714.227, 7.3728040E-02
3716.155, 7.3985830E-02
3718.084, 7.2220102E-02
3720.012, 7.2155736E-02
3721.941, 7.2494797E-02
3723.869, 7.5250953E-02
3725.798, 7.7102341E-02
3727.726, 7.3607013E-02
3729.655, 7.2620243E-02
3731.583, 7.7205077E-02
3733.511, 8.1120588E-02
3735.440, 7.7426113E-02
3737.368, 7.0374802E-02
3739.297, 6.9647513E-02
3741.225, 7.1100913E-02
3743.154, 7.4332356E-02
3745.082, 7.5712509E-02
3747.011, 7.6048732E-02
3748.939, 7.6403931E-02
3750.868, 7.5205132E-02
3752.796, 7.6838218E-02
3754.725, 7.9817303E-02
3756.653, 7.9629682E-02
3758.582, 7.8563727E-02
3760.510, 7.5971410E-02
3762.438, 7.7079557E-02
3764.367, 7.7621497E-02
3766.295, 7.7241383E-02
3768.224, 8.0236040E-02
3770.152, 7.9995319E-02
3772.081, 7.5730734E-02
3774.009, 7.4708447E-02
3775.938, 7.7703178E-02
3777.866, 7.5516410E-02
3779.795, 7.3587477E-02
3781.723, 7.9558343E-02
3783.652, 8.1797943E-02
3785.580, 8.2367972E-02
3787.509, 8.1400476E-02
3789.437, 7.7514462E-02
3791.365, 7.6768488E-02
3793.294, 7.7169053E-02
3795.222, 7.5726926E-02
3797.151, 7.7474177E-02
3799.079, 7.7719621E-02
3801.008, 7.7495463E-02
3802.936, 7.7401131E-02
3804.865, 7.8301892E-02
3806.793, 7.8266717E-02
3808.722, 7.6729134E-02
3810.650, 7.7742338E-02
3812.579, 7.9957411E-02
3814.507, 8.0883488E-02
3816.436, 8.0364533E-02
3818.364, 7.9312928E-02
3820.292, 7.5821787E-02
3822.221, 7.5364873E-02
3824.149, 7.5962409E-02
3826.078, 7.5536832E-02
3828.006, 7.8791313E-02
3829.935, 8.1202082E-02
3831.863, 8.1830211E-02
3833.792, 8.0519207E-02
3835.720, 7.4696347E-02
3837.649, 7.4754380E-02
3839.577, 7.6718651E-02
3841.506, 7.8784101E-02
3843.434, 8.0236606E-02
3845.363, 8.0642551E-02
3847.291, 8.1598587E-02
3849.219, 8.0930240E-02
3851.148, 7.9696089E-02
3853.076, 8.2922742E-02
3855.005, 8.2356468E-02
3856.933, 7.8468934E-02
3858.862, 7.7702127E-02
3860.790, 7.8109093E-02
3862.719, 7.9387277E-02
3864.647, 8.1669837E-02
3866.576, 7.9245880E-02
3868.504, 7.6687962E-02
3870.433, 7.9637788E-02
3872.361, 8.0672897E-02
3874.290, 7.8436531E-02
3876.218, 7.8670293E-02
3878.146, 7.8548141E-02
3880.075, 7.7760883E-02
3882.003, 8.0323689E-02
3883.932, 7.9954423E-02
3885.860, 8.1366859E-02
3887.789, 8.4824428E-02
3889.717, 8.4054373E-02
3891.646, 8.2483940E-02
3893.574, 8.2955092E-02
3895.503, 8.1647716E-02
3897.431, 8.2569681E-02
3899.360, 8.2870223E-02
3901.288, 8.3235130E-02
3903.217, 8.1279621E-02
3905.145, 8.2815170E-02
3907.073, 8.7120824E-02
3909.002, 8.4863737E-02
3910.930, 8.1085458E-02
3912.859, 7.7995427E-02
3914.787, 7.6852784E-02
3916.716, 7.9788826E-02
3918.644, 8.1650063E-02
3920.573, 8.1049807E-02
3922.501, 7.9853147E-02
3924.430, 8.0977216E-02
3926.358, 7.9816736E-02
3928.287, 8.0444612E-02
3930.215, 8.0284528E-02
3932.144, 8.0956601E-02
3934.072, 8.4679149E-02
3936.000, 8.4167384E-02
3937.929, 8.3537117E-02
3939.857, 8.5547343E-02
3941.786, 8.3735377E-02
3943.714, 8.4097341E-02
3945.643, 8.9765370E-02
3947.571, 8.9231677E-02
3949.500, 8.6413734E-02
3951.428, 8.7088063E-02
3953.357, 8.4232792E-02
3955.285, 8.1614994E-02
3957.214, 7.9646692E-02
3959.142, 7.7581480E-02
3961.071, 8.1438348E-02
3962.999, 8.5312143E-02
3964.927, 8.3614968E-02
3966.856, 8.3560981E-02
3968.784, 8.3664693E-02
3970.713, 8.4023431E-02
3972.641, 8.4731624E-02
3974.570, 8.3804063E-02
3976.498, 8.4687106E-02
3978.427, 8.6187340E-02
3980.355, 8.3132111E-02
3982.284, 8.5396208E-02
3984.212, 8.8289388E-02
3986.141, 8.9578502E-02
3988.069, 8.8229284E-02
3989.998, 8.7191217E-02
3991.926, 8.5711934E-02
3993.854, 8.3582073E-02
3995.783, 8.4263712E-02
3997.711, 8.6083062E-02
3999.640, 8.6124592E-02
##END=



