##NAMES=Anglesite
##RRUFFID=R040004
##IDEAL CHEMISTRY=Pb^2+^S^6+^O_4_
##LOCALITY=Erupcion mine, Los Lamentos, Chihuahua, Mexico
##OWNER=RRUFF
##SOURCE=University of Arizona Mineral Museum
##DESCRIPTION=Tan colored tabular crystal
##STATUS=The identification of this mineral has been confirmed by X-ray diffraction and chemical analysis
##URL=rruff.info/R040004
##MEASURED CHEMISTRY=Pb_1.00_S_1.00_O_4_
3.741225e+002, 1.583805e-002
3.760510e+002, 1.586069e-002
3.779795e+002, 1.294825e-002
3.799079e+002, 1.098443e-002
3.818364e+002, 8.596167e-003
3.837649e+002, 8.737855e-003
3.856933e+002, 1.384959e-002
3.876218e+002, 1.431021e-002
3.895503e+002, 1.230833e-002
3.914787e+002, 1.517437e-002
3.934072e+002, 1.979216e-002
3.953357e+002, 1.931138e-002
3.972641e+002, 2.031400e-002
3.991926e+002, 2.029708e-002
4.011211e+002, 2.194019e-002
4.030495e+002, 2.447551e-002
4.049780e+002, 2.365315e-002
4.069065e+002, 2.246810e-002
4.088349e+002, 2.281553e-002
4.107634e+002, 2.447541e-002
4.126919e+002, 2.602380e-002
4.146203e+002, 2.657460e-002
4.165488e+002, 2.735731e-002
4.184773e+002, 2.887171e-002
4.204057e+002, 2.933291e-002
4.223342e+002, 3.028255e-002
4.242627e+002, 3.155887e-002
4.261911e+002, 3.186807e-002
4.281196e+002, 3.277691e-002
4.300481e+002, 3.490327e-002
4.319765e+002, 3.687187e-002
4.339050e+002, 3.912377e-002
4.358335e+002, 4.140787e-002
4.377619e+002, 4.385271e-002
4.396904e+002, 4.464095e-002
4.416189e+002, 4.317452e-002
4.435473e+002, 4.229811e-002
4.454758e+002, 4.303462e-002
4.474043e+002, 4.450410e-002
4.493327e+002, 4.562825e-002
4.512612e+002, 4.735684e-002
4.531897e+002, 4.959307e-002
4.551181e+002, 5.238710e-002
4.570466e+002, 5.482317e-002
4.589751e+002, 5.686490e-002
4.609035e+002, 5.973916e-002
4.628320e+002, 6.210592e-002
4.647605e+002, 6.344952e-002
4.666889e+002, 6.451067e-002
4.686174e+002, 6.423721e-002
4.705459e+002, 6.442957e-002
4.724743e+002, 6.535000e-002
4.744028e+002, 6.630861e-002
4.763313e+002, 6.711620e-002
4.782597e+002, 6.805947e-002
4.801882e+002, 6.960223e-002
4.821167e+002, 7.083062e-002
4.840451e+002, 7.240763e-002
4.859736e+002, 7.411429e-002
4.879021e+002, 7.574210e-002
4.898305e+002, 7.762996e-002
4.917590e+002, 8.015435e-002
4.936875e+002, 8.222668e-002
4.956159e+002, 8.377112e-002
4.975444e+002, 8.578209e-002
4.994729e+002, 8.832089e-002
5.014013e+002, 9.097682e-002
5.033298e+002, 9.330622e-002
5.052583e+002, 9.580942e-002
5.071867e+002, 9.874072e-002
5.091152e+002, 1.015019e-001
5.110437e+002, 1.040741e-001
5.129721e+002, 1.070454e-001
5.149006e+002, 1.103752e-001
5.168290e+002, 1.135473e-001
5.187575e+002, 1.160410e-001
5.206860e+002, 1.190318e-001
5.226144e+002, 1.230896e-001
5.245429e+002, 1.267941e-001
5.264714e+002, 1.302328e-001
5.283998e+002, 1.337842e-001
5.303283e+002, 1.379250e-001
5.322568e+002, 1.418115e-001
5.341852e+002, 1.462027e-001
5.361137e+002, 1.511081e-001
5.380422e+002, 1.556652e-001
5.399706e+002, 1.597765e-001
5.418991e+002, 1.647683e-001
5.438276e+002, 1.701750e-001
5.457560e+002, 1.756995e-001
5.476845e+002, 1.813705e-001
5.496130e+002, 1.872574e-001
5.515414e+002, 1.935490e-001
5.534699e+002, 1.998696e-001
5.553984e+002, 2.061231e-001
5.573268e+002, 2.123338e-001
5.592553e+002, 2.180477e-001
5.611838e+002, 2.237712e-001
5.631122e+002, 2.308090e-001
5.650407e+002, 2.383097e-001
5.669692e+002, 2.453295e-001
5.688976e+002, 2.522163e-001
5.708261e+002, 2.594997e-001
5.727546e+002, 2.665542e-001
5.746830e+002, 2.743219e-001
5.766115e+002, 2.831049e-001
5.785400e+002, 2.904894e-001
5.804684e+002, 2.978250e-001
5.823969e+002, 3.053765e-001
5.843254e+002, 3.112437e-001
5.862538e+002, 3.154506e-001
5.881823e+002, 3.171015e-001
5.901108e+002, 3.146916e-001
5.920392e+002, 3.063665e-001
5.939677e+002, 2.927148e-001
5.958962e+002, 2.749536e-001
5.978246e+002, 2.536802e-001
5.997531e+002, 2.311288e-001
6.016816e+002, 2.086783e-001
6.036100e+002, 1.871467e-001
6.055385e+002, 1.681258e-001
6.074670e+002, 1.518900e-001
6.093954e+002, 1.387198e-001
6.113239e+002, 1.300249e-001
6.132524e+002, 1.269611e-001
6.151808e+002, 1.292751e-001
6.171093e+002, 1.361369e-001
6.190378e+002, 1.459123e-001
6.209662e+002, 1.562398e-001
6.228947e+002, 1.652317e-001
6.248232e+002, 1.704688e-001
6.267516e+002, 1.706717e-001
6.286801e+002, 1.655919e-001
6.306086e+002, 1.551840e-001
6.325370e+002, 1.404934e-001
6.344655e+002, 1.229974e-001
6.363940e+002, 1.037638e-001
6.383224e+002, 8.354471e-002
6.402509e+002, 6.449889e-002
6.421794e+002, 4.881419e-002
6.441078e+002, 3.750920e-002
6.460363e+002, 2.970727e-002
6.479648e+002, 2.468778e-002
6.498932e+002, 2.158862e-002
6.518217e+002, 1.950486e-002
6.537502e+002, 1.820452e-002
6.556786e+002, 1.780704e-002
6.576071e+002, 1.784996e-002
6.595356e+002, 1.813220e-002
6.614641e+002, 1.852273e-002
6.633925e+002, 1.896497e-002
6.653210e+002, 1.951814e-002
6.672495e+002, 2.003675e-002
6.691779e+002, 2.008932e-002
6.711064e+002, 1.971350e-002
6.730349e+002, 1.915514e-002
6.749633e+002, 1.870633e-002
6.768918e+002, 1.861988e-002
6.788203e+002, 1.869367e-002
6.807487e+002, 1.883292e-002
6.826772e+002, 1.931593e-002
6.846057e+002, 1.973340e-002
6.865341e+002, 2.009846e-002
6.884626e+002, 2.073938e-002
6.903911e+002, 2.159287e-002
6.923195e+002, 2.234534e-002
6.942480e+002, 2.313746e-002
6.961765e+002, 2.408679e-002
6.981049e+002, 2.488034e-002
7.000334e+002, 2.568413e-002
7.019619e+002, 2.656751e-002
7.038903e+002, 2.728260e-002
7.058188e+002, 2.801860e-002
7.077473e+002, 2.884603e-002
7.096757e+002, 2.955624e-002
7.116042e+002, 3.044268e-002
7.135327e+002, 3.138767e-002
7.154611e+002, 3.241925e-002
7.173896e+002, 3.348478e-002
7.193181e+002, 3.453754e-002
7.212465e+002, 3.557496e-002
7.231750e+002, 3.654997e-002
7.251035e+002, 3.751401e-002
7.270319e+002, 3.854088e-002
7.289604e+002, 3.960083e-002
7.308889e+002, 4.082828e-002
7.328173e+002, 4.202657e-002
7.347458e+002, 4.310439e-002
7.366743e+002, 4.407359e-002
7.386027e+002, 4.529607e-002
7.405312e+002, 4.650806e-002
7.424597e+002, 4.747631e-002
7.443881e+002, 4.868119e-002
7.463166e+002, 4.994999e-002
7.482451e+002, 5.097610e-002
7.501735e+002, 5.208076e-002
7.521020e+002, 5.334795e-002
7.540305e+002, 5.471462e-002
7.559589e+002, 5.590504e-002
7.578874e+002, 5.715647e-002
7.598159e+002, 5.861375e-002
7.617443e+002, 5.994504e-002
7.636728e+002, 6.125403e-002
7.656013e+002, 6.271332e-002
7.675297e+002, 6.415799e-002
7.694582e+002, 6.538326e-002
7.713867e+002, 6.654686e-002
7.733151e+002, 6.802564e-002
7.752436e+002, 6.955915e-002
7.771721e+002, 7.088844e-002
7.791005e+002, 7.215644e-002
7.810290e+002, 7.360283e-002
7.829575e+002, 7.509551e-002
7.848859e+002, 7.679453e-002
7.868144e+002, 7.862325e-002
7.887429e+002, 8.039198e-002
7.906713e+002, 8.209427e-002
7.925998e+002, 8.370987e-002
7.945283e+002, 8.539744e-002
7.964567e+002, 8.712048e-002
7.983852e+002, 8.888273e-002
8.003137e+002, 9.074599e-002
8.022421e+002, 9.260824e-002
8.041706e+002, 9.456142e-002
8.060991e+002, 9.646327e-002
8.080275e+002, 9.834062e-002
8.099560e+002, 1.004374e-001
8.118845e+002, 1.025412e-001
8.138129e+002, 1.045880e-001
8.157414e+002, 1.066407e-001
8.176699e+002, 1.087970e-001
8.195983e+002, 1.110096e-001
8.215268e+002, 1.132523e-001
8.234553e+002, 1.156021e-001
8.253837e+002, 1.179900e-001
8.273122e+002, 1.204698e-001
8.292407e+002, 1.230059e-001
8.311691e+002, 1.253678e-001
8.330976e+002, 1.277024e-001
8.350261e+002, 1.302213e-001
8.369545e+002, 1.329104e-001
8.388830e+002, 1.356140e-001
8.408115e+002, 1.385176e-001
8.427399e+002, 1.413703e-001
8.446684e+002, 1.440845e-001
8.465969e+002, 1.469371e-001
8.485253e+002, 1.498527e-001
8.504538e+002, 1.527643e-001
8.523823e+002, 1.558181e-001
8.543107e+002, 1.589805e-001
8.562392e+002, 1.620493e-001
8.581677e+002, 1.652963e-001
8.600961e+002, 1.686688e-001
8.620246e+002, 1.719729e-001
8.639531e+002, 1.754516e-001
8.658815e+002, 1.789968e-001
8.678100e+002, 1.826271e-001
8.697385e+002, 1.863920e-001
8.716669e+002, 1.901876e-001
8.735954e+002, 1.939685e-001
8.755239e+002, 1.980039e-001
8.774523e+002, 2.019622e-001
8.793808e+002, 2.056970e-001
8.813093e+002, 2.096816e-001
8.832377e+002, 2.136843e-001
8.851662e+002, 2.177231e-001
8.870947e+002, 2.218101e-001
8.890231e+002, 2.259585e-001
8.909516e+002, 2.301239e-001
8.928801e+002, 2.343369e-001
8.948085e+002, 2.384306e-001
8.967370e+002, 2.425050e-001
8.986655e+002, 2.465219e-001
9.005939e+002, 2.504124e-001
9.025224e+002, 2.542701e-001
9.044509e+002, 2.581632e-001
9.063793e+002, 2.621688e-001
9.083078e+002, 2.662590e-001
9.102363e+002, 2.703425e-001
9.121647e+002, 2.745820e-001
9.140932e+002, 2.788275e-001
9.160217e+002, 2.830532e-001
9.179501e+002, 2.871318e-001
9.198786e+002, 2.910644e-001
9.218071e+002, 2.951260e-001
9.237355e+002, 2.991320e-001
9.256640e+002, 3.031266e-001
9.275925e+002, 3.074043e-001
9.295209e+002, 3.113286e-001
9.314494e+002, 3.153006e-001
9.333779e+002, 3.196975e-001
9.353063e+002, 3.241237e-001
9.372348e+002, 3.287612e-001
9.391633e+002, 3.338150e-001
9.410917e+002, 3.394418e-001
9.430202e+002, 3.453662e-001
9.449487e+002, 3.512492e-001
9.468771e+002, 3.570931e-001
9.488056e+002, 3.628663e-001
9.507341e+002, 3.686139e-001
9.526625e+002, 3.747452e-001
9.545910e+002, 3.810867e-001
9.565195e+002, 3.871952e-001
9.584479e+002, 3.934748e-001
9.603764e+002, 3.987866e-001
9.623049e+002, 4.018359e-001
9.642333e+002, 4.005073e-001
9.661618e+002, 3.912786e-001
9.680903e+002, 3.727314e-001
9.700187e+002, 3.526526e-001
9.719472e+002, 3.431750e-001
9.738757e+002, 3.479445e-001
9.758041e+002, 3.603375e-001
9.777326e+002, 3.733392e-001
9.796611e+002, 3.848670e-001
9.815895e+002, 3.949235e-001
9.835180e+002, 4.034576e-001
9.854465e+002, 4.104801e-001
9.873749e+002, 4.165468e-001
9.893034e+002, 4.222347e-001
9.912319e+002, 4.270212e-001
9.931603e+002, 4.312137e-001
9.950888e+002, 4.344505e-001
9.970173e+002, 4.369001e-001
9.989457e+002, 4.389015e-001
1.000874e+003, 4.402590e-001
1.002803e+003, 4.412283e-001
1.004731e+003, 4.424427e-001
1.006660e+003, 4.436579e-001
1.008588e+003, 4.456299e-001
1.010517e+003, 4.477256e-001
1.012445e+003, 4.494470e-001
1.014373e+003, 4.509947e-001
1.016302e+003, 4.527321e-001
1.018230e+003, 4.539278e-001
1.020159e+003, 4.546219e-001
1.022087e+003, 4.550939e-001
1.024016e+003, 4.547170e-001
1.025944e+003, 4.531287e-001
1.027873e+003, 4.507168e-001
1.029801e+003, 4.477014e-001
1.031730e+003, 4.448485e-001
1.033658e+003, 4.417523e-001
1.035587e+003, 4.385042e-001
1.037515e+003, 4.345852e-001
1.039443e+003, 4.303765e-001
1.041372e+003, 4.260403e-001
1.043300e+003, 4.211667e-001
1.045229e+003, 4.156455e-001
1.047157e+003, 4.094619e-001
1.049086e+003, 4.030759e-001
1.051014e+003, 3.963616e-001
1.052943e+003, 3.889892e-001
1.054871e+003, 3.814227e-001
1.056800e+003, 3.738928e-001
1.058728e+003, 3.657925e-001
1.060657e+003, 3.577594e-001
1.062585e+003, 3.499835e-001
1.064514e+003, 3.422440e-001
1.066442e+003, 3.347378e-001
1.068370e+003, 3.272908e-001
1.070299e+003, 3.201649e-001
1.072227e+003, 3.133045e-001
1.074156e+003, 3.065080e-001
1.076084e+003, 3.000620e-001
1.078013e+003, 2.942366e-001
1.079941e+003, 2.884920e-001
1.081870e+003, 2.828062e-001
1.083798e+003, 2.774681e-001
1.085727e+003, 2.723618e-001
1.087655e+003, 2.672412e-001
1.089584e+003, 2.623864e-001
1.091512e+003, 2.578265e-001
1.093441e+003, 2.532690e-001
1.095369e+003, 2.487521e-001
1.097297e+003, 2.444384e-001
1.099226e+003, 2.402320e-001
1.101154e+003, 2.361057e-001
1.103083e+003, 2.322067e-001
1.105011e+003, 2.284231e-001
1.106940e+003, 2.245362e-001
1.108868e+003, 2.209409e-001
1.110797e+003, 2.174778e-001
1.112725e+003, 2.139718e-001
1.114654e+003, 2.103789e-001
1.116582e+003, 2.065213e-001
1.118511e+003, 2.028179e-001
1.120439e+003, 1.992031e-001
1.122368e+003, 1.952960e-001
1.124296e+003, 1.912550e-001
1.126224e+003, 1.870945e-001
1.128153e+003, 1.829854e-001
1.130081e+003, 1.788667e-001
1.132010e+003, 1.747946e-001
1.133938e+003, 1.709041e-001
1.135867e+003, 1.675381e-001
1.137795e+003, 1.647204e-001
1.139724e+003, 1.625334e-001
1.141652e+003, 1.609868e-001
1.143581e+003, 1.600493e-001
1.145509e+003, 1.596959e-001
1.147438e+003, 1.600636e-001
1.149366e+003, 1.612365e-001
1.151295e+003, 1.629803e-001
1.153223e+003, 1.647340e-001
1.155151e+003, 1.663964e-001
1.157080e+003, 1.679494e-001
1.159008e+003, 1.689187e-001
1.160937e+003, 1.693885e-001
1.162865e+003, 1.691941e-001
1.164794e+003, 1.684310e-001
1.166722e+003, 1.671918e-001
1.168651e+003, 1.650883e-001
1.170579e+003, 1.622698e-001
1.172508e+003, 1.590841e-001
1.174436e+003, 1.555373e-001
1.176365e+003, 1.514594e-001
1.178293e+003, 1.471851e-001
1.180222e+003, 1.428079e-001
1.182150e+003, 1.382722e-001
1.184078e+003, 1.335717e-001
1.186007e+003, 1.287850e-001
1.187935e+003, 1.238104e-001
1.189864e+003, 1.188070e-001
1.191792e+003, 1.139327e-001
1.193721e+003, 1.090425e-001
1.195649e+003, 1.041891e-001
1.197578e+003, 9.955007e-002
1.199506e+003, 9.512039e-002
1.201435e+003, 9.078550e-002
1.203363e+003, 8.667253e-002
1.205292e+003, 8.282866e-002
1.207220e+003, 7.900119e-002
1.209149e+003, 7.485139e-002
1.211077e+003, 7.014875e-002
1.213005e+003, 6.482286e-002
1.214934e+003, 5.918321e-002
1.216862e+003, 5.351353e-002
1.218791e+003, 4.791342e-002
1.220719e+003, 4.284535e-002
1.222648e+003, 3.818656e-002
1.224576e+003, 3.399051e-002
1.226505e+003, 3.043075e-002
1.228433e+003, 2.720005e-002
1.230362e+003, 2.436506e-002
1.232290e+003, 2.186469e-002
1.234219e+003, 1.965373e-002
1.236147e+003, 1.765801e-002
1.238076e+003, 1.588536e-002
1.240004e+003, 1.441487e-002
1.241932e+003, 1.318512e-002
1.243861e+003, 1.187702e-002
1.245789e+003, 1.065542e-002
1.247718e+003, 9.714998e-003
1.249646e+003, 8.733425e-003
1.251575e+003, 7.940782e-003
1.253503e+003, 7.350909e-003
1.255432e+003, 6.666831e-003
1.257360e+003, 5.940306e-003
1.259289e+003, 5.304669e-003
1.261217e+003, 4.831920e-003
1.263146e+003, 4.347120e-003
1.265074e+003, 3.925691e-003
1.267003e+003, 3.488574e-003
1.268931e+003, 3.021957e-003
1.270859e+003, 2.728762e-003
1.272788e+003, 2.484554e-003
1.274716e+003, 2.166351e-003
1.276645e+003, 1.793678e-003
1.278573e+003, 1.569145e-003
1.280502e+003, 1.543751e-003
1.282430e+003, 1.369569e-003
1.284359e+003, 1.136936e-003
1.286287e+003, 9.845216e-004
1.288216e+003, 8.332659e-004
1.290144e+003, 6.579435e-004
1.292073e+003, 5.317563e-004
1.294001e+003, 5.096775e-004
1.295930e+003, 3.523331e-004
1.297858e+003, 1.694497e-004
1.299786e+003, 1.961947e-004
1.301715e+003, 1.943554e-004
1.303643e+003, 1.351188e-004
1.305572e+003, 1.034241e-004
1.307500e+003, 1.181765e-004
1.309429e+003, 8.768728e-005
1.311357e+003, 8.419948e-005
1.313286e+003, 6.820890e-005
1.315214e+003, 5.642418e-006
1.317143e+003, 6.308965e-005
1.319071e+003, 1.134393e-004
1.321000e+003, 8.077943e-005
1.322928e+003, -8.955435e-005
1.324857e+003, -1.521714e-004
1.326785e+003, -8.096546e-005
1.328714e+003, -2.000877e-004
1.330642e+003, -2.761579e-004
1.332570e+003, -1.490025e-004
1.334499e+003, -1.512002e-004
1.336427e+003, -1.768651e-004
1.338356e+003, -2.362295e-004
1.340284e+003, -2.622770e-004
1.342213e+003, -2.456829e-004
1.344141e+003, -3.592721e-004
1.346070e+003, -4.403577e-004
1.347998e+003, -4.291600e-004
1.349927e+003, -4.438385e-004
1.351855e+003, -5.508205e-004
1.353784e+003, -5.421210e-004
1.355712e+003, -4.839550e-004
1.357641e+003, -5.943191e-004
1.359569e+003, -6.750554e-004
1.361497e+003, -6.384477e-004
1.363426e+003, -5.325289e-004
1.365354e+003, -5.392898e-004
1.367283e+003, -7.085912e-004
1.369211e+003, -8.117971e-004
1.371140e+003, -7.767882e-004
1.373068e+003, -7.600291e-004
1.374997e+003, -7.965188e-004
1.376925e+003, -8.369144e-004
1.378854e+003, -8.842247e-004
1.380782e+003, -9.867139e-004
1.382711e+003, -1.005427e-003
1.384639e+003, -9.431862e-004
1.386568e+003, -8.354797e-004
1.388496e+003, -7.817126e-004
1.390424e+003, -8.327886e-004
1.392353e+003, -8.728923e-004
1.394281e+003, -8.465308e-004
1.396210e+003, -8.217157e-004
1.398138e+003, -8.631283e-004
1.400067e+003, -8.433969e-004
1.401995e+003, -8.482360e-004
1.403924e+003, -8.036052e-004
1.405852e+003, -6.716014e-004
1.407781e+003, -7.559443e-004
1.409709e+003, -7.407907e-004
1.411638e+003, -6.729811e-004
1.413566e+003, -7.223957e-004
1.415495e+003, -7.719011e-004
1.417423e+003, -6.682086e-004
1.419351e+003, -5.104169e-004
1.421280e+003, -5.858061e-004
1.423208e+003, -5.592061e-004
1.425137e+003, -4.244931e-004
1.427065e+003, -4.618601e-004
1.428994e+003, -5.152118e-004
1.430922e+003, -3.692284e-004
1.432851e+003, -3.482341e-004
1.434779e+003, -3.209901e-004
1.436708e+003, -1.907744e-004
1.438636e+003, -1.849197e-004
1.440565e+003, -3.497875e-004
1.442493e+003, -4.588272e-004
1.444422e+003, -3.489824e-004
1.446350e+003, -2.598423e-004
1.448278e+003, -1.931591e-004
1.450207e+003, -1.846035e-004
1.452135e+003, -8.323789e-005
1.454064e+003, 1.084013e-004
1.455992e+003, 5.147406e-004
1.457921e+003, 6.123013e-004
1.459849e+003, 2.347045e-004
1.461778e+003, 1.101983e-004
1.463706e+003, 3.453698e-004
1.465635e+003, 5.611940e-004
1.467563e+003, 4.445761e-004
1.469492e+003, 4.712548e-004
1.471420e+003, 7.244023e-004
1.473349e+003, 8.836435e-004
1.475277e+003, 8.704010e-004
1.477205e+003, 8.531781e-004
1.479134e+003, 8.208258e-004
1.481062e+003, 8.468786e-004
1.482991e+003, 8.400399e-004
1.484919e+003, 8.525671e-004
1.486848e+003, 9.927889e-004
1.488776e+003, 1.118481e-003
1.490705e+003, 1.099933e-003
1.492633e+003, 9.307489e-004
1.494562e+003, 9.450056e-004
1.496490e+003, 1.115333e-003
1.498419e+003, 1.011089e-003
1.500347e+003, 9.205230e-004
1.502276e+003, 9.378036e-004
1.504204e+003, 1.103959e-003
1.506132e+003, 1.471519e-003
1.508061e+003, 1.179902e-003
1.509989e+003, 7.993244e-004
1.511918e+003, 7.923357e-004
1.513846e+003, 7.862095e-004
1.515775e+003, 9.168526e-004
1.517703e+003, 9.462498e-004
1.519632e+003, 9.762542e-004
1.521560e+003, 1.014599e-003
1.523489e+003, 8.007428e-004
1.525417e+003, 7.944675e-004
1.527346e+003, 7.972866e-004
1.529274e+003, 7.131491e-004
1.531203e+003, 7.319208e-004
1.533131e+003, 8.856580e-004
1.535059e+003, 7.688804e-004
1.536988e+003, 8.331649e-004
1.538916e+003, 1.353696e-003
1.540845e+003, 1.382239e-003
1.542773e+003, 1.082597e-003
1.544702e+003, 9.391010e-004
1.546630e+003, 7.725572e-004
1.548559e+003, 6.940076e-004
1.550487e+003, 6.180871e-004
1.552416e+003, 6.921217e-004
1.554344e+003, 9.216703e-004
1.556273e+003, 1.213280e-003
1.558201e+003, 1.912010e-003
1.560130e+003, 1.966438e-003
1.562058e+003, 1.300997e-003
1.563986e+003, 1.065866e-003
1.565915e+003, 1.100134e-003
1.567843e+003, 1.205971e-003
1.569772e+003, 1.388874e-003
1.571700e+003, 1.336136e-003
1.573629e+003, 1.304390e-003
1.575557e+003, 1.662935e-003
1.577486e+003, 1.506139e-003
1.579414e+003, 1.258070e-003
1.581343e+003, 1.277817e-003
1.583271e+003, 1.045403e-003
1.585200e+003, 9.005675e-004
1.587128e+003, 7.060505e-004
1.589057e+003, 7.133894e-004
1.590985e+003, 8.956185e-004
1.592913e+003, 8.540014e-004
1.594842e+003, 8.093761e-004
1.596770e+003, 8.505490e-004
1.598699e+003, 7.966338e-004
1.600627e+003, 8.403203e-004
1.602556e+003, 8.477289e-004
1.604484e+003, 7.578693e-004
1.606413e+003, 6.344086e-004
1.608341e+003, 6.836262e-004
1.610270e+003, 6.910227e-004
1.612198e+003, 6.317394e-004
1.614127e+003, 8.014040e-004
1.616055e+003, 1.130973e-003
1.617984e+003, 8.857390e-004
1.619912e+003, 6.593755e-004
1.621840e+003, 8.610152e-004
1.623769e+003, 9.344006e-004
1.625697e+003, 8.108923e-004
1.627626e+003, 7.075304e-004
1.629554e+003, 6.358800e-004
1.631483e+003, 7.621273e-004
1.633411e+003, 1.016377e-003
1.635340e+003, 1.236905e-003
1.637268e+003, 1.111470e-003
1.639197e+003, 8.476833e-004
1.641125e+003, 8.118041e-004
1.643054e+003, 8.477606e-004
1.644982e+003, 1.149232e-003
1.646911e+003, 1.266138e-003
1.648839e+003, 9.749979e-004
1.650767e+003, 1.232660e-003
1.652696e+003, 1.800954e-003
1.654624e+003, 1.320321e-003
1.656553e+003, 8.446975e-004
1.658481e+003, 8.454695e-004
1.660410e+003, 7.971246e-004
1.662338e+003, 8.722646e-004
1.664267e+003, 7.741852e-004
1.666195e+003, 5.995063e-004
1.668124e+003, 7.598149e-004
1.670052e+003, 8.174246e-004
1.671981e+003, 8.639134e-004
1.673909e+003, 1.110123e-003
1.675838e+003, 1.018969e-003
1.677766e+003, 7.208968e-004
1.679694e+003, 7.426552e-004
1.681623e+003, 9.148251e-004
1.683551e+003, 1.472827e-003
1.685480e+003, 1.391403e-003
1.687408e+003, 9.144656e-004
1.689337e+003, 8.580294e-004
1.691265e+003, 8.261604e-004
1.693194e+003, 9.849109e-004
1.695122e+003, 1.459293e-003
1.697051e+003, 1.461500e-003
1.698979e+003, 1.359724e-003
1.700908e+003, 1.355841e-003
1.702836e+003, 9.720540e-004
1.704765e+003, 8.830065e-004
1.706693e+003, 7.291641e-004
1.708621e+003, 6.594332e-004
1.710550e+003, 6.242516e-004
1.712478e+003, 7.898426e-004
1.714407e+003, 9.771409e-004
1.716335e+003, 1.205714e-003
1.718264e+003, 1.066251e-003
1.720192e+003, 6.553028e-004
1.722121e+003, 5.765883e-004
1.724049e+003, 5.640192e-004
1.725978e+003, 5.010935e-004
1.727906e+003, 4.976559e-004
1.729835e+003, 5.146228e-004
1.731763e+003, 8.035116e-004
1.733692e+003, 1.199666e-003
1.735620e+003, 9.486936e-004
1.737548e+003, 3.991909e-004
1.739477e+003, 2.516508e-004
1.741405e+003, 8.084625e-005
1.743334e+003, -1.394842e-004
1.745262e+003, -2.026986e-004
1.747191e+003, -2.912600e-004
1.749119e+003, -2.390221e-004
1.751048e+003, -1.270156e-004
1.752976e+003, -2.007633e-004
1.754905e+003, -2.151970e-004
1.756833e+003, -3.886223e-005
1.758762e+003, -2.259072e-004
1.760690e+003, -3.436562e-004
1.762619e+003, -2.697818e-004
1.764547e+003, -2.044812e-004
1.766475e+003, -9.360164e-005
1.768404e+003, -8.153170e-005
1.770332e+003, -1.552459e-004
1.772261e+003, 6.925128e-005
1.774189e+003, -2.112426e-005
1.776118e+003, -4.614294e-004
1.778046e+003, -4.844833e-004
1.779975e+003, -2.253260e-004
1.781903e+003, -1.163054e-004
1.783832e+003, 5.887635e-005
1.785760e+003, 8.154102e-005
1.787689e+003, -1.224913e-004
1.789617e+003, -1.352802e-004
1.791546e+003, -1.486782e-004
1.793474e+003, -2.873652e-004
1.795402e+003, -2.983548e-004
1.797331e+003, -2.587475e-004
1.799259e+003, -1.345202e-004
1.801188e+003, -8.334965e-005
1.803116e+003, -2.195761e-004
1.805045e+003, -2.358723e-004
1.806973e+003, -1.492370e-004
1.808902e+003, 1.507066e-005
1.810830e+003, -2.999045e-005
1.812759e+003, -8.821674e-005
1.814687e+003, -2.369713e-004
1.816616e+003, -3.921576e-004
1.818544e+003, -2.781805e-004
1.820473e+003, -2.494510e-004
1.822401e+003, -3.627874e-004
1.824329e+003, -2.880339e-004
1.826258e+003, -5.690381e-005
1.828186e+003, -9.689666e-005
1.830115e+003, -3.287159e-004
1.832043e+003, -2.869889e-004
1.833972e+003, -2.401676e-004
1.835900e+003, -3.420990e-004
1.837829e+003, -4.024170e-004
1.839757e+003, -5.834866e-004
1.841686e+003, -6.040204e-004
1.843614e+003, -4.178658e-004
1.845543e+003, -3.342871e-004
1.847471e+003, -1.865253e-004
1.849400e+003, -1.296457e-004
1.851328e+003, -2.825446e-004
1.853256e+003, -4.207771e-004
1.855185e+003, -7.491373e-004
1.857113e+003, -8.588061e-004
1.859042e+003, -7.136054e-004
1.860970e+003, -4.633982e-004
1.862899e+003, -4.689936e-004
1.864827e+003, -4.521348e-004
1.866756e+003, -2.547111e-004
1.868684e+003, -1.081266e-004
1.870613e+003, -5.098991e-005
1.872541e+003, -7.744133e-005
1.874470e+003, -5.010385e-004
1.876398e+003, -7.428508e-004
1.878327e+003, -3.156140e-004
1.880255e+003, -1.537111e-004
1.882183e+003, -2.258234e-004
1.884112e+003, -2.686623e-004
1.886040e+003, -1.141783e-004
1.887969e+003, -1.445524e-004
1.889897e+003, -1.248699e-004
1.891826e+003, -1.555718e-004
1.893754e+003, -1.417715e-004
1.895683e+003, 1.661479e-006
1.897611e+003, 1.769513e-004
1.899540e+003, -1.975968e-004
1.901468e+003, -3.182795e-004
1.903397e+003, -2.827886e-004
1.905325e+003, -2.723280e-004
1.907254e+003, -3.138594e-004
1.909182e+003, -2.906360e-004
1.911110e+003, -4.287101e-004
1.913039e+003, -3.045984e-004
1.914967e+003, -3.827736e-006
1.916896e+003, 3.692284e-004
1.918824e+003, 7.746872e-004
1.920753e+003, 7.506777e-004
1.922681e+003, -1.765322e-004
1.924610e+003, -7.528160e-004
1.926538e+003, -5.701445e-004
1.928467e+003, -2.801325e-004
1.930395e+003, -1.876075e-004
1.932324e+003, 4.173815e-004
1.934252e+003, 7.132795e-004
1.936181e+003, 4.991014e-004
1.938109e+003, 6.242767e-004
1.940037e+003, 2.292041e-004
1.941966e+003, 1.900028e-004
1.943894e+003, 5.944259e-005
1.945823e+003, -4.577246e-004
1.947751e+003, -3.298745e-004
1.949680e+003, -5.200040e-004
1.951608e+003, -7.434357e-004
1.953537e+003, -3.380310e-004
1.955465e+003, -6.071758e-004
1.957394e+003, -1.383986e-003
1.959322e+003, -1.315603e-003
1.961251e+003, -7.906705e-004
1.963179e+003, -2.571363e-004
1.965108e+003, -6.747562e-004
1.967036e+003, -1.218965e-003
1.968964e+003, -9.585638e-004
1.970893e+003, -1.040246e-003
1.972821e+003, -8.346681e-004
1.974750e+003, -4.940946e-004
1.976678e+003, -3.598444e-005
1.978607e+003, 1.114782e-003
1.980535e+003, 2.862355e-003
1.982464e+003, 2.162570e-003
1.984392e+003, 8.481480e-004
1.986321e+003, 8.809902e-004
1.988249e+003, 8.037109e-004
1.990178e+003, 5.395785e-004
1.992106e+003, 1.527416e-003
1.994035e+003, 2.156055e-003
1.995963e+003, 2.458500e-003
1.997891e+003, 2.433965e-003
1.999820e+003, 1.566108e-003
2.001748e+003, 1.221910e-003
2.003677e+003, 7.679388e-004
2.005605e+003, -3.938023e-004
2.007534e+003, 4.852004e-005
2.009462e+003, 2.052430e-004
2.011391e+003, 2.561323e-004
2.013319e+003, 1.658294e-004
2.015248e+003, 1.128726e-004
2.017176e+003, 1.602136e-004
2.019105e+003, 6.413832e-004
2.021033e+003, 4.325360e-004
2.022962e+003, 3.725439e-004
2.024890e+003, 5.026571e-004
2.026818e+003, 4.294701e-004
2.028747e+003, -7.701926e-004
2.030675e+003, -1.625435e-003
2.032604e+003, -1.914842e-003
2.034532e+003, -1.498504e-003
2.036461e+003, 6.647408e-005
2.038389e+003, 6.800164e-004
2.040318e+003, 2.904199e-004
2.042246e+003, -2.716854e-004
2.044175e+003, -8.382294e-004
2.046103e+003, -1.227461e-003
2.048031e+003, -7.438343e-004
2.049960e+003, 6.714929e-004
2.051888e+003, 3.376864e-004
2.053817e+003, -4.234631e-004
2.055745e+003, -3.155824e-004
2.057674e+003, -7.541627e-004
2.059602e+003, -1.166280e-003
2.061531e+003, -6.838311e-004
2.063459e+003, -6.847456e-005
2.065388e+003, 2.117641e-004
2.067316e+003, 3.995206e-004
2.069245e+003, 4.761294e-004
2.071173e+003, 2.595112e-004
2.073102e+003, 2.507269e-004
2.075030e+003, 8.558948e-004
2.076958e+003, 7.898211e-004
2.078887e+003, 7.550903e-004
2.080815e+003, 9.447075e-004
2.082744e+003, 2.327822e-004
2.084672e+003, 3.799610e-005
2.086601e+003, 4.841760e-004
2.088529e+003, 7.841978e-004
2.090458e+003, 6.356295e-004
2.092386e+003, 2.766512e-004
2.094315e+003, 3.441554e-004
2.096243e+003, 5.559027e-004
2.098172e+003, 8.980259e-004
2.100100e+003, 1.393693e-003
2.102029e+003, 1.595890e-003
2.103957e+003, 1.489501e-003
2.105885e+003, 1.482936e-003
2.107814e+003, 1.663858e-003
2.109742e+003, 1.702799e-003
2.111671e+003, 1.258159e-003
2.113599e+003, 1.435814e-003
2.115528e+003, 1.833159e-003
2.117456e+003, 1.716852e-003
2.119385e+003, 1.341596e-003
2.121313e+003, 1.143645e-003
2.123242e+003, 8.463338e-004
2.125170e+003, 6.349850e-004
2.127099e+003, 1.107976e-004
2.129027e+003, -3.306251e-004
2.130956e+003, -4.123431e-004
2.132884e+003, -9.953566e-004
2.134813e+003, -1.792876e-003
2.136741e+003, -1.512801e-003
2.138669e+003, -1.122553e-003
2.140598e+003, -1.182381e-003
2.142526e+003, -1.784649e-003
2.144455e+003, -2.385627e-003
2.146383e+003, -2.244452e-003
2.148312e+003, -2.100382e-003
2.150240e+003, -2.700182e-003
2.152169e+003, -2.703035e-003
2.154097e+003, -3.082447e-003
2.156026e+003, -4.212430e-003
2.157954e+003, -3.771398e-003
2.159883e+003, -1.921277e-003
2.161811e+003, -9.998251e-004
2.163740e+003, -1.257736e-003
2.165668e+003, -9.236820e-004
2.167596e+003, -6.560385e-004
2.169525e+003, -5.562101e-004
2.171453e+003, -1.082728e-003
2.173382e+003, -1.936080e-003
2.175310e+003, -1.076331e-003
2.177239e+003, 1.023803e-004
2.179167e+003, -1.062052e-003
2.181096e+003, -2.089348e-003
2.183024e+003, -1.250029e-003
2.184953e+003, -8.540265e-004
2.186881e+003, -1.739692e-003
2.188810e+003, -2.115538e-003
2.190738e+003, -8.697361e-004
2.192667e+003, -1.071319e-004
2.194595e+003, -5.428456e-004
2.196523e+003, -9.570718e-004
2.198452e+003, -8.325353e-004
2.200380e+003, -6.189644e-004
2.202309e+003, -5.196836e-004
2.204237e+003, -9.495392e-005
2.206166e+003, 3.048554e-004
2.208094e+003, 7.730648e-004
2.210023e+003, 3.929529e-004
2.211951e+003, 1.974385e-004
2.213880e+003, 5.530491e-004
2.215808e+003, 1.775455e-004
2.217737e+003, -2.971068e-004
2.219665e+003, -5.631465e-004
2.221594e+003, -3.652684e-004
2.223522e+003, -4.608743e-005
2.225450e+003, 5.239062e-005
2.227379e+003, 3.516674e-005
2.229307e+003, 4.218761e-004
2.231236e+003, 6.275102e-004
2.233164e+003, 5.839001e-004
2.235093e+003, 2.157670e-004
2.237021e+003, 2.324264e-004
2.238950e+003, 7.050876e-004
2.240878e+003, 1.091672e-003
2.242807e+003, 9.120181e-004
2.244735e+003, 5.446263e-004
2.246664e+003, 2.792310e-004
2.248592e+003, 2.272651e-004
2.250521e+003, 3.334749e-004
2.252449e+003, 7.724762e-005
2.254377e+003, -1.650471e-004
2.256306e+003, -1.555681e-004
2.258234e+003, 3.852788e-004
2.260163e+003, 3.985222e-004
2.262091e+003, 6.303135e-004
2.264020e+003, 7.502362e-004
2.265948e+003, 3.673341e-004
2.267877e+003, 4.231241e-004
2.269805e+003, 1.748987e-004
2.271734e+003, 3.317818e-004
2.273662e+003, 8.629207e-004
2.275591e+003, 1.316193e-003
2.277519e+003, 1.615055e-003
2.279448e+003, 1.847748e-003
2.281376e+003, 1.920924e-003
2.283304e+003, 1.458615e-003
2.285233e+003, 1.313135e-003
2.287161e+003, 1.192946e-003
2.289090e+003, 1.109250e-003
2.291018e+003, 1.362059e-003
2.292947e+003, 1.597863e-003
2.294875e+003, 1.449063e-003
2.296804e+003, 1.208588e-003
2.298732e+003, 1.423955e-003
2.300661e+003, 1.285341e-003
2.302589e+003, 1.043241e-003
2.304518e+003, 1.130830e-003
2.306446e+003, 1.275323e-003
2.308375e+003, 1.587983e-003
2.310303e+003, 1.739129e-003
2.312231e+003, 1.430366e-003
2.314160e+003, 1.293875e-003
2.316088e+003, 1.651078e-003
2.318017e+003, 2.063815e-003
2.319945e+003, 2.322026e-003
2.321874e+003, 2.618048e-003
2.323802e+003, 2.890326e-003
2.325731e+003, 2.510894e-003
2.327659e+003, 2.021432e-003
2.329588e+003, 2.065405e-003
2.331516e+003, 2.236746e-003
2.333445e+003, 2.247255e-003
2.335373e+003, 2.020698e-003
2.337302e+003, 1.945194e-003
2.339230e+003, 1.716349e-003
2.341158e+003, 1.746878e-003
2.343087e+003, 1.827069e-003
2.345015e+003, 1.367614e-003
2.346944e+003, 8.675754e-004
2.348872e+003, 1.089111e-003
2.350801e+003, 1.404613e-003
2.352729e+003, 1.499388e-003
2.354658e+003, 1.612339e-003
2.356586e+003, 1.786392e-003
2.358515e+003, 2.096634e-003
2.360443e+003, 2.251357e-003
2.362372e+003, 2.080552e-003
2.364300e+003, 1.964740e-003
2.366229e+003, 1.714062e-003
2.368157e+003, 1.195878e-003
2.370085e+003, 9.738654e-004
2.372014e+003, 7.541180e-004
2.373942e+003, 1.260750e-004
2.375871e+003, -1.766942e-004
2.377799e+003, -3.192313e-004
2.379728e+003, -3.818423e-004
2.381656e+003, -7.176921e-004
2.383585e+003, -9.233840e-004
2.385513e+003, -9.379089e-004
2.387442e+003, -4.992522e-004
2.389370e+003, -3.208891e-004
2.391299e+003, -6.224364e-004
2.393227e+003, -8.108653e-004
2.395156e+003, -8.861162e-004
2.397084e+003, -7.651486e-004
2.399012e+003, -6.194785e-004
2.400941e+003, -7.075258e-004
2.402869e+003, -8.111261e-004
2.404798e+003, -4.232004e-004
2.406726e+003, 1.997128e-005
2.408655e+003, -6.522983e-006
2.410583e+003, -4.566461e-004
2.412512e+003, -5.006604e-004
2.414440e+003, -6.315224e-004
2.416369e+003, -9.761937e-004
2.418297e+003, -8.545481e-004
2.420226e+003, -4.849508e-004
2.422154e+003, -4.592910e-004
2.424083e+003, -2.738312e-004
2.426011e+003, 4.968420e-005
2.427939e+003, 3.578924e-004
2.429868e+003, 3.073551e-004
2.431796e+003, 4.584454e-004
2.433725e+003, 2.713539e-004
2.435653e+003, -8.720160e-005
2.437582e+003, -1.605339e-004
2.439510e+003, 4.146993e-005
2.441439e+003, 2.228655e-004
2.443367e+003, 4.582405e-004
2.445296e+003, 4.652292e-004
2.447224e+003, 8.540973e-005
2.449153e+003, -1.875199e-004
2.451081e+003, 2.124012e-004
2.453010e+003, 5.948208e-004
2.454938e+003, 3.808364e-004
2.456866e+003, 4.371330e-004
2.458795e+003, 7.475987e-004
2.460723e+003, 6.445721e-004
2.462652e+003, 6.521642e-004
2.464580e+003, 9.705685e-004
2.466509e+003, 7.149875e-004
2.468437e+003, 3.647469e-004
2.470366e+003, 7.227287e-004
2.472294e+003, 8.478165e-004
2.474223e+003, 1.005139e-003
2.476151e+003, 1.279838e-003
2.478080e+003, 1.073845e-003
2.480008e+003, 8.288249e-004
2.481937e+003, 9.622909e-004
2.483865e+003, 7.204190e-004
2.485793e+003, 5.704984e-004
2.487722e+003, 1.070932e-003
2.489650e+003, 1.295220e-003
2.491579e+003, 1.281004e-003
2.493507e+003, 1.328722e-003
2.495436e+003, 1.141112e-003
2.497364e+003, 8.630566e-004
2.499293e+003, 8.313842e-004
2.501221e+003, 1.120552e-003
2.503150e+003, 1.742009e-003
2.505078e+003, 1.645595e-003
2.507007e+003, 1.249600e-003
2.508935e+003, 1.364101e-003
2.510864e+003, 1.356818e-003
2.512792e+003, 8.753911e-004
2.514720e+003, 7.935278e-004
2.516649e+003, 1.426946e-003
2.518577e+003, 1.604803e-003
2.520506e+003, 1.607988e-003
2.522434e+003, 1.918714e-003
2.524363e+003, 1.946319e-003
2.526291e+003, 1.389656e-003
2.528220e+003, 1.385398e-003
2.530148e+003, 1.579948e-003
2.532077e+003, 1.729302e-003
2.534005e+003, 1.715854e-003
2.535934e+003, 1.723640e-003
2.537862e+003, 1.935583e-003
2.539791e+003, 1.823947e-003
2.541719e+003, 1.745176e-003
2.543647e+003, 1.824841e-003
2.545576e+003, 1.982160e-003
2.547504e+003, 1.998562e-003
2.549433e+003, 1.970783e-003
2.551361e+003, 1.756143e-003
2.553290e+003, 2.012316e-003
2.555218e+003, 2.188720e-003
2.557147e+003, 1.818154e-003
2.559075e+003, 1.313195e-003
2.561004e+003, 1.341291e-003
2.562932e+003, 1.443427e-003
2.564861e+003, 1.656957e-003
2.566789e+003, 1.678389e-003
2.568718e+003, 1.277398e-003
2.570646e+003, 1.031864e-003
2.572574e+003, 1.591492e-003
2.574503e+003, 1.772009e-003
2.576431e+003, 1.925647e-003
2.578360e+003, 1.848903e-003
2.580288e+003, 1.691215e-003
2.582217e+003, 1.917597e-003
2.584145e+003, 1.926366e-003
2.586074e+003, 1.557209e-003
2.588002e+003, 1.316242e-003
2.589931e+003, 1.389008e-003
2.591859e+003, 1.567997e-003
2.593788e+003, 1.509842e-003
2.595716e+003, 1.365464e-003
2.597645e+003, 1.252145e-003
2.599573e+003, 1.218569e-003
2.601501e+003, 1.398139e-003
2.603430e+003, 1.585960e-003
2.605358e+003, 1.630332e-003
2.607287e+003, 1.312662e-003
2.609215e+003, 1.229081e-003
2.611144e+003, 1.336552e-003
2.613072e+003, 1.417149e-003
2.615001e+003, 1.179188e-003
2.616929e+003, 1.015142e-003
2.618858e+003, 1.108054e-003
2.620786e+003, 1.161538e-003
2.622715e+003, 1.202047e-003
2.624643e+003, 1.147717e-003
2.626572e+003, 1.289990e-003
2.628500e+003, 1.356918e-003
2.630428e+003, 1.382031e-003
2.632357e+003, 1.500390e-003
2.634285e+003, 1.171809e-003
2.636214e+003, 6.793439e-004
2.638142e+003, 7.315315e-004
2.640071e+003, 8.706935e-004
2.641999e+003, 1.153778e-003
2.643928e+003, 1.410250e-003
2.645856e+003, 1.079943e-003
2.647785e+003, 6.487742e-004
2.649713e+003, 7.667169e-004
2.651642e+003, 6.564297e-004
2.653570e+003, 5.336031e-004
2.655499e+003, 6.518513e-004
2.657427e+003, 6.979108e-004
2.659355e+003, 6.343313e-004
2.661284e+003, 4.334748e-004
2.663212e+003, 3.873222e-004
2.665141e+003, 2.261326e-004
2.667069e+003, -1.002662e-004
2.668998e+003, -1.350902e-004
2.670926e+003, -4.632771e-005
2.672855e+003, 5.266443e-005
2.674783e+003, -1.386739e-004
2.676712e+003, -2.687536e-004
2.678640e+003, -1.038238e-004
2.680569e+003, 2.325103e-004
2.682497e+003, 1.164675e-004
2.684426e+003, 9.351224e-005
2.686354e+003, 2.771169e-004
2.688282e+003, 2.022795e-004
2.690211e+003, 2.451614e-005
2.692139e+003, 3.916025e-005
2.694068e+003, 1.804531e-005
2.695996e+003, 9.084493e-005
2.697925e+003, 4.250184e-005
2.699853e+003, -1.046434e-004
2.701782e+003, -9.455904e-005
2.703710e+003, 8.930266e-005
2.705639e+003, 7.249787e-005
2.707567e+003, -1.355968e-004
2.709496e+003, -1.683645e-004
2.711424e+003, -6.465986e-005
2.713353e+003, -1.042522e-004
2.715281e+003, -6.574765e-005
2.717209e+003, -1.571700e-004
2.719138e+003, -3.136061e-004
2.721066e+003, -3.331527e-004
2.722995e+003, -2.828054e-004
2.724923e+003, -3.464930e-004
2.726852e+003, -4.422627e-004
2.728780e+003, -4.691184e-004
2.730709e+003, -4.649274e-004
2.732637e+003, -2.709739e-004
2.734566e+003, -1.456402e-004
2.736494e+003, -9.750575e-005
2.738423e+003, 2.871826e-005
2.740351e+003, -4.395843e-007
2.742280e+003, -1.157187e-004
2.744208e+003, -1.535602e-004
2.746136e+003, 3.404170e-005
2.748065e+003, 9.787828e-005
2.749993e+003, -1.923256e-004
2.751922e+003, -4.040413e-004
2.753850e+003, -2.168305e-004
2.755779e+003, -1.027286e-004
2.757707e+003, -2.431720e-004
2.759636e+003, -5.112067e-004
2.761564e+003, -2.162382e-004
2.763493e+003, -8.384883e-005
2.765421e+003, -3.197789e-004
2.767350e+003, -4.534461e-004
2.769278e+003, -3.756583e-004
2.771207e+003, -1.405664e-004
2.773135e+003, -1.201071e-004
2.775063e+003, -3.234446e-004
2.776992e+003, -3.317408e-004
2.778920e+003, -2.532192e-004
2.780849e+003, -3.037788e-004
2.782777e+003, -5.213842e-004
2.784706e+003, -4.534945e-004
2.786634e+003, -2.223328e-004
2.788563e+003, -1.368374e-004
2.790491e+003, -5.329773e-005
2.792420e+003, 5.168468e-005
2.794348e+003, -1.040213e-004
2.796277e+003, -2.216175e-004
2.798205e+003, -2.713092e-004
2.800134e+003, -8.254498e-005
2.802062e+003, -1.911037e-004
2.803990e+003, -4.355088e-004
2.805919e+003, -5.023926e-005
2.807847e+003, 1.919828e-004
2.809776e+003, -1.720488e-004
2.811704e+003, -3.483593e-004
2.813633e+003, -1.556836e-004
2.815561e+003, 1.753606e-004
2.817490e+003, 3.101118e-004
2.819418e+003, 9.498745e-005
2.821347e+003, -3.521889e-005
2.823275e+003, -1.303069e-004
2.825204e+003, -1.635067e-004
2.827132e+003, 1.618974e-004
2.829061e+003, 2.190024e-004
2.830989e+003, -7.110462e-005
2.832917e+003, 2.926961e-005
2.834846e+003, 2.026036e-004
2.836774e+003, 3.305189e-004
2.838703e+003, 4.904978e-004
2.840631e+003, 4.735664e-004
2.842560e+003, 5.378872e-004
2.844488e+003, 6.918870e-004
2.846417e+003, 6.239526e-004
2.848345e+003, 1.922026e-004
2.850274e+003, 9.166077e-005
2.852202e+003, 4.857704e-004
2.854131e+003, 6.108619e-004
2.856059e+003, 6.360710e-004
2.857988e+003, 6.431974e-004
2.859916e+003, 7.430874e-004
2.861844e+003, 7.273331e-004
2.863773e+003, 5.941130e-004
2.865701e+003, 3.517345e-004
2.867630e+003, 5.417988e-004
2.869558e+003, 6.833300e-004
2.871487e+003, 3.415458e-004
2.873415e+003, 1.468956e-004
2.875344e+003, 5.423389e-004
2.877272e+003, 9.547845e-004
2.879201e+003, 1.144536e-003
2.881129e+003, 9.800494e-004
2.883058e+003, 5.220696e-004
2.884986e+003, 4.418455e-004
2.886915e+003, 7.068813e-004
2.888843e+003, 7.982403e-004
2.890771e+003, 1.000211e-003
2.892700e+003, 1.010220e-003
2.894628e+003, 1.013678e-003
2.896557e+003, 9.394139e-004
2.898485e+003, 9.408854e-004
2.900414e+003, 1.053918e-003
2.902342e+003, 1.057737e-003
2.904271e+003, 1.214128e-003
2.906199e+003, 1.046389e-003
2.908128e+003, 8.349717e-004
2.910056e+003, 9.435341e-004
2.911985e+003, 1.042008e-003
2.913913e+003, 1.272388e-003
2.915842e+003, 1.563117e-003
2.917770e+003, 1.707152e-003
2.919698e+003, 1.874439e-003
2.921627e+003, 1.855087e-003
2.923555e+003, 1.853932e-003
2.925484e+003, 2.155837e-003
2.927412e+003, 2.074748e-003
2.929341e+003, 1.706693e-003
2.931269e+003, 1.622543e-003
2.933198e+003, 1.980960e-003
2.935126e+003, 1.821902e-003
2.937055e+003, 1.365136e-003
2.938983e+003, 8.115657e-004
2.940912e+003, 6.523430e-004
2.942840e+003, 1.046274e-003
2.944769e+003, 1.122035e-003
2.946697e+003, 1.228087e-003
2.948625e+003, 1.117494e-003
2.950554e+003, 1.150612e-003
2.952482e+003, 1.389578e-003
2.954411e+003, 1.221035e-003
2.956339e+003, 1.488350e-003
2.958268e+003, 1.831524e-003
2.960196e+003, 1.836918e-003
2.962125e+003, 2.037447e-003
2.964053e+003, 1.967877e-003
2.965982e+003, 1.418341e-003
2.967910e+003, 7.688366e-004
2.969839e+003, 4.452206e-004
2.971767e+003, 4.690811e-004
2.973696e+003, 1.719855e-004
2.975624e+003, -4.686788e-005
2.977552e+003, 1.026914e-004
2.979481e+003, -1.153983e-004
2.981409e+003, -5.364604e-004
2.983338e+003, -3.697835e-004
2.985266e+003, -5.017594e-004
2.987195e+003, -8.209758e-004
2.989123e+003, -5.976483e-004
2.991052e+003, -3.372803e-004
2.992980e+003, -4.890114e-004
2.994909e+003, -6.966330e-004
2.996837e+003, -7.141717e-004
2.998766e+003, -4.294775e-004
3.000694e+003, -5.254745e-004
3.002623e+003, -8.809939e-004
3.004551e+003, -6.766394e-004
3.006479e+003, -1.882985e-004
3.008408e+003, -3.012344e-004
3.010336e+003, -7.519163e-004
3.012265e+003, -1.162648e-003
3.014193e+003, -1.098424e-003
3.016122e+003, -2.098754e-004
3.018050e+003, -2.050996e-004
3.019979e+003, -5.537868e-004
3.021907e+003, -6.164946e-004
3.023836e+003, -9.734631e-004
3.025764e+003, -1.060378e-003
3.027693e+003, -1.021359e-003
3.029621e+003, -1.003399e-003
3.031550e+003, -6.534271e-004
3.033478e+003, -7.563718e-004
3.035406e+003, -9.277761e-004
3.037335e+003, -7.324629e-004
3.039263e+003, -3.723539e-004
3.041192e+003, -6.623194e-004
3.043120e+003, -1.377814e-003
3.045049e+003, -1.329962e-003
3.046977e+003, -1.356196e-003
3.048906e+003, -1.320310e-003
3.050834e+003, -8.080937e-004
3.052763e+003, -5.097874e-004
3.054691e+003, -6.552488e-004
3.056620e+003, -9.326451e-004
3.058548e+003, -1.063872e-003
3.060477e+003, -1.229800e-003
3.062405e+003, -9.063855e-004
3.064333e+003, -4.313029e-004
3.066262e+003, -5.120225e-004
3.068190e+003, -6.168708e-004
3.070119e+003, -7.895119e-004
3.072047e+003, -5.730055e-004
3.073976e+003, -2.340525e-004
3.075904e+003, -4.923232e-004
3.077833e+003, -9.013489e-004
3.079761e+003, -8.524209e-004
3.081690e+003, -7.336326e-004
3.083618e+003, -8.490086e-004
3.085547e+003, -6.874427e-004
3.087475e+003, -6.529465e-004
3.089404e+003, -8.393042e-004
3.091332e+003, -7.258393e-004
3.093260e+003, -5.168952e-004
3.095189e+003, -4.043616e-004
3.097117e+003, -6.258599e-004
3.099046e+003, -7.992536e-004
3.100974e+003, -6.764308e-004
3.102903e+003, -4.039556e-004
3.104831e+003, -7.504001e-004
3.106760e+003, -8.459911e-004
3.108688e+003, -3.233217e-004
3.110617e+003, -4.117377e-004
3.112545e+003, -8.072630e-004
3.114474e+003, -1.281720e-003
3.116402e+003, -1.509354e-003
3.118331e+003, -1.298536e-003
3.120259e+003, -7.766150e-004
3.122188e+003, -5.491227e-004
3.124116e+003, -1.082636e-003
3.126044e+003, -1.364008e-003
3.127973e+003, -8.905455e-004
3.129901e+003, -5.053803e-004
3.131830e+003, -4.356988e-004
3.133758e+003, -2.502352e-004
3.135687e+003, -4.131123e-004
3.137615e+003, -5.794130e-004
3.139544e+003, -2.103858e-004
3.141472e+003, -1.009963e-004
3.143401e+003, -4.829839e-004
3.145329e+003, -5.987994e-004
3.147258e+003, -6.014071e-004
3.149186e+003, -1.017734e-003
3.151115e+003, -1.041576e-003
3.153043e+003, -9.991191e-004
3.154971e+003, -8.016452e-004
3.156900e+003, -9.959452e-004
3.158828e+003, -1.496878e-003
3.160757e+003, -1.335274e-003
3.162685e+003, -5.081035e-004
3.164614e+003, -1.034401e-004
3.166542e+003, -1.966879e-004
3.168471e+003, -6.038807e-004
3.170399e+003, -7.230304e-004
3.172328e+003, -6.113574e-005
3.174256e+003, 7.245317e-005
3.176185e+003, -4.947148e-004
3.178113e+003, -6.541535e-004
3.180042e+003, -6.534792e-004
3.181970e+003, -4.711263e-004
3.183898e+003, -2.561100e-004
3.185827e+003, 7.710233e-005
3.187755e+003, 6.386265e-005
3.189684e+003, -5.043074e-004
3.191612e+003, -5.137995e-004
3.193541e+003, -5.466864e-005
3.195469e+003, -7.393807e-004
3.197398e+003, -1.051713e-003
3.199326e+003, -6.923601e-004
3.201255e+003, -5.429499e-004
3.203183e+003, -6.760694e-004
3.205112e+003, -5.416125e-004
3.207040e+003, -6.341338e-004
3.208969e+003, -6.018281e-004
3.210897e+003, -6.565712e-004
3.212825e+003, -7.766113e-004
3.214754e+003, -6.235875e-004
3.216682e+003, -8.003712e-004
3.218611e+003, -6.525889e-004
3.220539e+003, 9.326264e-005
3.222468e+003, -7.473677e-005
3.224396e+003, -4.827417e-004
3.226325e+003, -8.338355e-004
3.228253e+003, -9.573102e-004
3.230182e+003, -7.329807e-004
3.232110e+003, -5.004890e-004
3.234039e+003, -3.347248e-004
3.235967e+003, -4.706979e-004
3.237896e+003, -6.287843e-004
3.239824e+003, -2.025589e-004
3.241752e+003, -6.231032e-004
3.243681e+003, -1.312442e-003
3.245609e+003, -5.588084e-004
3.247538e+003, -3.446974e-004
3.249466e+003, -4.176907e-004
3.251395e+003, -3.135949e-004
3.253323e+003, -1.168698e-004
3.255252e+003, 2.075322e-004
3.257180e+003, -1.590773e-004
3.259109e+003, -5.025342e-004
3.261037e+003, -5.320907e-004
3.262966e+003, -5.488917e-004
3.264894e+003, -4.740432e-004
3.266823e+003, -9.792559e-004
3.268751e+003, -1.055900e-003
3.270679e+003, -6.970689e-004
3.272608e+003, -9.221062e-004
3.274536e+003, -1.060572e-003
3.276465e+003, -4.795231e-004
3.278393e+003, -1.158491e-004
3.280322e+003, -5.484782e-004
3.282250e+003, -8.836687e-004
3.284179e+003, -6.437935e-004
3.286107e+003, -1.888499e-004
3.288036e+003, -1.370907e-005
3.289964e+003, -3.775656e-004
3.291893e+003, -6.083101e-004
3.293821e+003, -7.498786e-004
3.295750e+003, -3.126413e-004
3.297678e+003, -2.309605e-004
3.299606e+003, -5.038157e-004
3.301535e+003, -9.996593e-004
3.303463e+003, -1.129635e-003
3.305392e+003, -8.533746e-004
3.307320e+003, -6.200001e-004
3.309249e+003, -6.213039e-004
3.311177e+003, -2.476647e-004
3.313106e+003, -1.530051e-004
3.315034e+003, -6.201118e-005
3.316963e+003, 4.082918e-005
3.318891e+003, -1.463369e-004
3.320820e+003, -4.207566e-004
3.322748e+003, -4.532263e-004
3.324677e+003, -6.494299e-004
3.326605e+003, -6.666034e-004
3.328533e+003, -6.397516e-004
3.330462e+003, -6.769672e-004
3.332390e+003, -8.015558e-004
3.334319e+003, -1.243897e-003
3.336247e+003, -1.200750e-003
3.338176e+003, -7.802099e-004
3.340104e+003, -6.007850e-004
3.342033e+003, -5.536303e-004
3.343961e+003, -1.008585e-003
3.345890e+003, -1.015261e-003
3.347818e+003, -7.781908e-004
3.349747e+003, -1.749769e-004
3.351675e+003, 3.443807e-004
3.353604e+003, 4.192367e-004
3.355532e+003, 5.033687e-004
3.357460e+003, -7.028133e-005
3.359389e+003, -5.796775e-004
3.361317e+003, -5.911291e-004
3.363246e+003, -7.812455e-004
3.365174e+003, -1.051486e-003
3.367103e+003, -9.756833e-004
3.369031e+003, -7.447675e-004
3.370960e+003, -3.117844e-004
3.372888e+003, -2.204254e-004
3.374817e+003, -6.277263e-004
3.376745e+003, -6.225333e-004
3.378674e+003, 6.622821e-005
3.380602e+003, 1.151860e-005
3.382531e+003, -9.292290e-004
3.384459e+003, -9.565428e-004
3.386387e+003, -8.157417e-004
3.388316e+003, -3.904551e-004
3.390244e+003, -5.121455e-004
3.392173e+003, -6.485283e-004
3.394101e+003, -5.742013e-004
3.396030e+003, -8.095354e-004
3.397958e+003, -7.200539e-004
3.399887e+003, -3.829524e-004
3.401815e+003, -4.874915e-004
3.403744e+003, -8.665249e-004
3.405672e+003, -7.334650e-004
3.407601e+003, -6.875619e-004
3.409529e+003, -7.279068e-004
3.411458e+003, -6.502941e-004
3.413386e+003, -6.879419e-004
3.415314e+003, -5.179569e-004
3.417243e+003, -9.810850e-004
3.419171e+003, -9.198934e-004
3.421100e+003, -2.438575e-004
3.423028e+003, -5.707815e-004
3.424957e+003, -4.384220e-004
3.426885e+003, -9.698421e-005
3.428814e+003, -2.575517e-004
3.430742e+003, -8.634478e-004
3.432671e+003, -1.102142e-003
3.434599e+003, -1.103997e-003
3.436528e+003, -1.233622e-003
3.438456e+003, -1.425028e-003
3.440385e+003, -6.127208e-004
3.442313e+003, -3.802851e-004
3.444241e+003, -7.903725e-004
3.446170e+003, -7.723644e-004
3.448098e+003, -3.627911e-004
3.450027e+003, -2.332553e-004
3.451955e+003, -6.059781e-004
3.453884e+003, -7.570535e-004
3.455812e+003, -5.978793e-004
3.457741e+003, -7.189512e-004
3.459669e+003, -4.258603e-004
3.461598e+003, -4.577935e-004
3.463526e+003, -5.813986e-004
3.465455e+003, -4.170984e-004
3.467383e+003, -3.253743e-004
3.469312e+003, -7.060021e-004
3.471240e+003, -9.323955e-004
3.473168e+003, -9.969696e-004
3.475097e+003, -1.197092e-003
3.477025e+003, -6.152913e-004
3.478954e+003, -2.129748e-004
3.480882e+003, -2.635047e-004
3.482811e+003, -3.406629e-004
3.484739e+003, -8.783489e-004
3.486668e+003, -1.264773e-003
3.488596e+003, -7.729754e-004
3.490525e+003, -8.062422e-004
3.492453e+003, -8.948222e-004
3.494382e+003, -4.382133e-004
3.496310e+003, -6.070733e-005
3.498239e+003, -5.010515e-005
3.500167e+003, -7.376075e-007
3.502095e+003, -5.315915e-004
3.504024e+003, -2.793223e-004
3.505952e+003, -4.130527e-004
3.507881e+003, -7.866248e-004
3.509809e+003, -5.241707e-004
3.511738e+003, -6.348863e-004
3.513666e+003, -5.973727e-004
3.515595e+003, -1.296699e-004
3.517523e+003, 2.255961e-004
3.519452e+003, -2.644658e-004
3.521380e+003, -9.480566e-004
3.523309e+003, -5.361512e-004
3.525237e+003, 2.549812e-004
3.527166e+003, 3.993362e-004
3.529094e+003, 3.695562e-004
3.531022e+003, -8.150935e-006
3.532951e+003, -1.036897e-003
3.534879e+003, -3.748983e-004
3.536808e+003, -2.430230e-004
3.538736e+003, -5.209297e-004
3.540665e+003, -6.368831e-004
3.542593e+003, -7.417947e-004
3.544522e+003, -5.677715e-004
3.546450e+003, 8.559972e-005
3.548379e+003, 6.405562e-004
3.550307e+003, 1.113422e-003
3.552236e+003, 8.781478e-004
3.554164e+003, 2.629757e-004
3.556093e+003, 2.586022e-004
3.558021e+003, 7.510930e-005
3.559949e+003, -5.748123e-004
3.561878e+003, -6.569251e-004
3.563806e+003, -3.629476e-004
3.565735e+003, -2.937242e-004
3.567663e+003, -4.886761e-004
3.569592e+003, 1.666620e-004
3.571520e+003, 5.150884e-004
3.573449e+003, 6.999075e-005
3.575377e+003, -5.202442e-004
3.577306e+003, -4.582852e-004
3.579234e+003, -4.197955e-004
3.581163e+003, -8.600056e-004
3.583091e+003, -7.269606e-004
3.585020e+003, -4.731566e-004
3.586948e+003, -5.067065e-004
3.588876e+003, -5.836189e-004
3.590805e+003, -4.108176e-004
3.592733e+003, -5.293041e-004
3.594662e+003, -7.481575e-004
3.596590e+003, -9.087175e-004
3.598519e+003, -5.196705e-004
3.600447e+003, -8.017868e-004
3.602376e+003, -1.217246e-003
3.604304e+003, -1.084462e-003
3.606233e+003, -3.461987e-004
3.608161e+003, -1.378879e-004
3.610090e+003, -5.244315e-004
3.612018e+003, -8.686781e-004
3.613947e+003, -9.945184e-004
3.615875e+003, -1.008645e-003
3.617803e+003, -3.518090e-004
3.619732e+003, 1.652464e-004
3.621660e+003, 1.997650e-004
3.623589e+003, 6.785765e-004
3.625517e+003, 3.550425e-004
3.627446e+003, 3.478974e-004
3.629374e+003, 5.932748e-004
3.631303e+003, -1.067296e-004
3.633231e+003, -9.689778e-004
3.635160e+003, -7.924139e-004
3.637088e+003, -4.270524e-004
3.639017e+003, 4.538149e-005
3.640945e+003, -4.561469e-004
3.642874e+003, -1.209386e-003
3.644802e+003, -1.316085e-003
3.646730e+003, -3.084540e-004
3.648659e+003, 3.616959e-004
3.650587e+003, 2.482384e-004
3.652516e+003, -2.538189e-004
3.654444e+003, -3.452823e-004
3.656373e+003, -7.296726e-004
3.658301e+003, -1.310050e-003
3.660230e+003, -1.442276e-003
3.662158e+003, -1.646839e-003
3.664087e+003, -1.669854e-003
3.666015e+003, -1.856714e-003
3.667944e+003, -1.226805e-003
3.669872e+003, 1.602247e-004
3.671801e+003, 1.479015e-004
3.673729e+003, -3.819168e-005
3.675657e+003, 3.304556e-004
3.677586e+003, -5.662069e-004
3.679514e+003, -8.026734e-004
3.681443e+003, -4.649758e-004
3.683371e+003, -8.408502e-004
3.685300e+003, -1.428679e-003
3.687228e+003, -9.171143e-004
3.689157e+003, 1.823381e-004
3.691085e+003, 8.130744e-004
3.693014e+003, -1.024455e-004
3.694942e+003, -8.671209e-004
3.696871e+003, -9.876043e-004
3.698799e+003, -1.098596e-003
3.700728e+003, -1.008265e-003
3.702656e+003, -4.466027e-004
3.704584e+003, -1.917556e-004
3.706513e+003, 4.282221e-004
3.708441e+003, 9.920374e-004
3.710370e+003, 1.220770e-003
3.712298e+003, 1.284197e-003
3.714227e+003, 1.815259e-004
3.716155e+003, -2.714321e-004
3.718084e+003, -6.083846e-004
3.720012e+003, -1.227528e-003
3.721941e+003, -6.268695e-004
3.723869e+003, -2.393797e-004
3.725798e+003, -5.349666e-004
3.727726e+003, -7.521063e-004
3.729655e+003, 1.422539e-004
3.731583e+003, 1.679368e-003
3.733511e+003, 1.750983e-003
3.735440e+003, 1.349062e-003
3.737368e+003, 7.687882e-004
3.739297e+003, 1.229718e-004
3.741225e+003, 1.545921e-004
3.743154e+003, 8.011758e-004
3.745082e+003, 3.656521e-004
3.747011e+003, -1.812726e-004
3.748939e+003, 8.585677e-004
3.750868e+003, 1.805738e-003
3.752796e+003, 8.578375e-004
3.754725e+003, -3.920645e-004
3.756653e+003, -3.503636e-004
3.758582e+003, 3.331229e-004
3.760510e+003, 3.736839e-004
3.762438e+003, -1.377463e-004
3.764367e+003, -3.065839e-004
3.766295e+003, -5.698428e-004
3.768224e+003, -4.331842e-004
3.770152e+003, -4.164577e-004
3.772081e+003, 2.158433e-005
3.774009e+003, 1.876652e-004
3.775938e+003, -1.086660e-003
3.777866e+003, -1.076519e-003
3.779795e+003, -3.968850e-004
3.781723e+003, -6.474108e-004
3.783652e+003, -6.221384e-004
3.785580e+003, -1.145996e-003
3.787509e+003, -1.313716e-003
3.789437e+003, -1.120426e-003
3.791365e+003, -5.463958e-004
3.793294e+003, 8.777529e-005
3.795222e+003, -1.745448e-004
3.797151e+003, -9.996891e-004
3.799079e+003, -5.243495e-004
3.801008e+003, 5.299374e-004
3.802936e+003, 4.611909e-005
3.804865e+003, 1.848787e-004
3.806793e+003, 1.075096e-003
3.808722e+003, -6.379187e-005
3.810650e+003, -5.766973e-004
3.812579e+003, -4.639179e-004
3.814507e+003, -1.413226e-004
3.816436e+003, 2.700537e-004
3.818364e+003, -4.732907e-004
3.820292e+003, -3.895983e-004
3.822221e+003, 2.868846e-004
3.824149e+003, -5.371869e-005
3.826078e+003, -6.342754e-004
3.828006e+003, -7.321537e-004
3.829935e+003, 2.754033e-004
3.831863e+003, 6.508753e-004
3.833792e+003, -1.327768e-004
3.835720e+003, 1.924187e-004
3.837649e+003, 1.049452e-003
3.839577e+003, 4.175082e-004
3.841506e+003, -6.103814e-004
3.843434e+003, -5.752891e-004
3.845363e+003, -7.127523e-004
3.847291e+003, -1.213491e-003
3.849219e+003, -1.330346e-003
3.851148e+003, -3.771409e-004
3.853076e+003, 7.103235e-004
3.855005e+003, 3.243089e-004
3.856933e+003, -6.520599e-004
3.858862e+003, -1.098886e-004
3.860790e+003, 7.641837e-004
3.862719e+003, 3.375486e-004
3.864647e+003, -5.758554e-005
3.866576e+003, 2.100617e-004
3.868504e+003, 9.942427e-004
3.870433e+003, 6.641001e-004
3.872361e+003, -1.221895e-005
3.874290e+003, 4.228204e-005
3.876218e+003, -5.427524e-004
3.878146e+003, -7.154197e-004
3.880075e+003, -1.588464e-004
3.882003e+003, 2.289712e-004
3.883932e+003, 6.063432e-004
3.885860e+003, 8.721948e-004
3.887789e+003, -4.090592e-004
3.889717e+003, -9.862557e-004
3.891646e+003, -1.999885e-004
3.893574e+003, 6.513298e-004
3.895503e+003, 5.044788e-004
3.897431e+003, -3.760532e-004
3.899360e+003, -6.597713e-004
3.901288e+003, -6.161109e-004
3.903217e+003, -7.818863e-004
3.905145e+003, -4.910827e-004
3.907073e+003, 8.255988e-005
3.909002e+003, 1.837909e-004
3.910930e+003, -1.225471e-004
3.912859e+003, -2.235547e-004
3.914787e+003, -1.071587e-003
3.916716e+003, -1.028143e-003
3.918644e+003, -6.985888e-004
3.920573e+003, -4.284754e-004
3.922501e+003, 1.215041e-004
3.924430e+003, 9.674579e-005
3.926358e+003, 1.093373e-004
3.928287e+003, -2.099797e-004
3.930215e+003, 5.087256e-005
3.932144e+003, 2.055541e-004
3.934072e+003, -6.635636e-004
3.936000e+003, -1.370557e-003
3.937929e+003, -1.193047e-003
3.939857e+003, -1.116492e-003
3.941786e+003, -1.118258e-003
3.943714e+003, -8.665621e-004
3.945643e+003, -4.108623e-004
3.947571e+003, -3.789738e-004
3.949500e+003, -6.183609e-004
3.951428e+003, -9.022281e-004
3.953357e+003, -1.175947e-003
3.955285e+003, -1.607321e-003
3.957214e+003, -9.098276e-004
3.959142e+003, -8.753911e-004
3.961071e+003, -8.009151e-004
3.962999e+003, 9.873137e-004
3.964927e+003, 6.785169e-004
3.966856e+003, -4.625842e-004
3.968784e+003, 1.747310e-004
3.970713e+003, 2.130866e-004
3.972641e+003, -7.419884e-004
3.974570e+003, -1.293227e-003
3.976498e+003, -7.021874e-004
3.978427e+003, -1.318529e-004
3.980355e+003, -2.310798e-004
3.982284e+003, -4.669577e-004
3.984212e+003, -4.802719e-004
3.986141e+003, -4.468337e-004
3.988069e+003, -5.701184e-005
3.989998e+003, 3.168136e-004
3.991926e+003, -4.368275e-005
3.993854e+003, -8.221865e-004
3.995783e+003, -5.976781e-004
3.997711e+003, 2.542511e-004
3.999640e+003, 1.884475e-004
##END=



