##NAMES=Annabergite
##RRUFFID=R050462
##IDEAL CHEMISTRY=Ni^2+^_3_(As^5+^O_4_)_2_&#183;8H_2_O
##LOCALITY=Plaka mine, Laurium, Attica, Greece
##OWNER=RRUFF
##SOURCE=University of Arizona Mineral Museum
##DESCRIPTION=Green bladed crystals
##STATUS=The identification of this mineral has been confirmed by X-ray diffraction and chemical analysis
##URL=rruff.info/R050462
##MEASURED CHEMISTRY=(Ni_2.97_Zn_0.03_)_Σ=3_(As_1.00_O_4_)_2_·8H_2_O; lighter vein: (Ni_2.95_Zn_0.05_)_Σ=3_(As_1.00_O_4_)_2_·8H_2_O
3.741225e+002, 2.863445e-001
3.760510e+002, 2.763391e-001
3.779795e+002, 2.697730e-001
3.799079e+002, 2.480942e-001
3.818364e+002, 2.344855e-001
3.837649e+002, 2.270886e-001
3.856933e+002, 2.141829e-001
3.876218e+002, 2.094439e-001
3.895503e+002, 2.084527e-001
3.914787e+002, 2.123717e-001
3.934072e+002, 2.212327e-001
3.953357e+002, 2.225255e-001
3.972641e+002, 2.299605e-001
3.991926e+002, 2.330202e-001
4.011211e+002, 2.284755e-001
4.030495e+002, 2.395611e-001
4.049780e+002, 2.530737e-001
4.069065e+002, 2.578870e-001
4.088349e+002, 2.638232e-001
4.107634e+002, 2.664096e-001
4.126919e+002, 2.718566e-001
4.146203e+002, 2.703917e-001
4.165488e+002, 2.621934e-001
4.184773e+002, 2.539221e-001
4.204057e+002, 2.450145e-001
4.223342e+002, 2.330794e-001
4.242627e+002, 2.202002e-001
4.261911e+002, 2.056161e-001
4.281196e+002, 1.925509e-001
4.300481e+002, 1.812398e-001
4.319765e+002, 1.706246e-001
4.339050e+002, 1.622919e-001
4.358335e+002, 1.562348e-001
4.377619e+002, 1.510312e-001
4.396904e+002, 1.507293e-001
4.416189e+002, 1.543757e-001
4.435473e+002, 1.612560e-001
4.454758e+002, 1.705238e-001
4.474043e+002, 1.811649e-001
4.493327e+002, 1.928404e-001
4.512612e+002, 2.052508e-001
4.531897e+002, 2.154265e-001
4.551181e+002, 2.224610e-001
4.570466e+002, 2.258699e-001
4.589751e+002, 2.245187e-001
4.609035e+002, 2.194122e-001
4.628320e+002, 2.133457e-001
4.647605e+002, 2.057815e-001
4.666889e+002, 1.967949e-001
4.686174e+002, 1.889304e-001
4.705459e+002, 1.832933e-001
4.724743e+002, 1.790808e-001
4.744028e+002, 1.768309e-001
4.763313e+002, 1.763499e-001
4.782597e+002, 1.766742e-001
4.801882e+002, 1.780643e-001
4.821167e+002, 1.803186e-001
4.840451e+002, 1.825764e-001
4.859736e+002, 1.857140e-001
4.879021e+002, 1.884076e-001
4.898305e+002, 1.911598e-001
4.917590e+002, 1.931551e-001
4.936875e+002, 1.945722e-001
4.956159e+002, 1.956855e-001
4.975444e+002, 1.959131e-001
4.994729e+002, 1.939380e-001
5.014013e+002, 1.906915e-001
5.033298e+002, 1.866920e-001
5.052583e+002, 1.813133e-001
5.071867e+002, 1.744108e-001
5.091152e+002, 1.670008e-001
5.110437e+002, 1.594728e-001
5.129721e+002, 1.524016e-001
5.149006e+002, 1.467179e-001
5.168290e+002, 1.430584e-001
5.187575e+002, 1.409439e-001
5.206860e+002, 1.402881e-001
5.226144e+002, 1.414980e-001
5.245429e+002, 1.434427e-001
5.264714e+002, 1.456632e-001
5.283998e+002, 1.482792e-001
5.303283e+002, 1.519859e-001
5.322568e+002, 1.561951e-001
5.341852e+002, 1.603715e-001
5.361137e+002, 1.633786e-001
5.380422e+002, 1.660587e-001
5.399706e+002, 1.688834e-001
5.418991e+002, 1.717769e-001
5.438276e+002, 1.746444e-001
5.457560e+002, 1.768727e-001
5.476845e+002, 1.787150e-001
5.496130e+002, 1.806311e-001
5.515414e+002, 1.814883e-001
5.534699e+002, 1.822173e-001
5.553984e+002, 1.831712e-001
5.573268e+002, 1.834077e-001
5.592553e+002, 1.835445e-001
5.611838e+002, 1.835447e-001
5.631122e+002, 1.831399e-001
5.650407e+002, 1.826490e-001
5.669692e+002, 1.820413e-001
5.688976e+002, 1.812434e-001
5.708261e+002, 1.798559e-001
5.727546e+002, 1.781466e-001
5.746830e+002, 1.761941e-001
5.766115e+002, 1.740973e-001
5.785400e+002, 1.715057e-001
5.804684e+002, 1.682194e-001
5.823969e+002, 1.646768e-001
5.843254e+002, 1.607398e-001
5.862538e+002, 1.565530e-001
5.881823e+002, 1.520522e-001
5.901108e+002, 1.473821e-001
5.920392e+002, 1.425655e-001
5.939677e+002, 1.378778e-001
5.958962e+002, 1.329926e-001
5.978246e+002, 1.279621e-001
5.997531e+002, 1.236338e-001
6.016816e+002, 1.196302e-001
6.036100e+002, 1.155064e-001
6.055385e+002, 1.118671e-001
6.074670e+002, 1.084569e-001
6.093954e+002, 1.051652e-001
6.113239e+002, 1.024052e-001
6.132524e+002, 9.979425e-002
6.151808e+002, 9.715613e-002
6.171093e+002, 9.518988e-002
6.190378e+002, 9.360292e-002
6.209662e+002, 9.246555e-002
6.228947e+002, 9.139416e-002
6.248232e+002, 9.043597e-002
6.267516e+002, 8.999700e-002
6.286801e+002, 8.954562e-002
6.306086e+002, 8.919854e-002
6.325370e+002, 8.899365e-002
6.344655e+002, 8.908667e-002
6.363940e+002, 8.940792e-002
6.383224e+002, 8.965711e-002
6.402509e+002, 9.010489e-002
6.421794e+002, 9.070956e-002
6.441078e+002, 9.135462e-002
6.460363e+002, 9.203350e-002
6.479648e+002, 9.302057e-002
6.498932e+002, 9.440771e-002
6.518217e+002, 9.596483e-002
6.537502e+002, 9.734154e-002
6.556786e+002, 9.869600e-002
6.576071e+002, 1.005900e-001
6.595356e+002, 1.028353e-001
6.614641e+002, 1.053012e-001
6.633925e+002, 1.078182e-001
6.653210e+002, 1.103884e-001
6.672495e+002, 1.131010e-001
6.691779e+002, 1.161399e-001
6.711064e+002, 1.192281e-001
6.730349e+002, 1.225279e-001
6.749633e+002, 1.256901e-001
6.768918e+002, 1.288749e-001
6.788203e+002, 1.323494e-001
6.807487e+002, 1.361418e-001
6.826772e+002, 1.396214e-001
6.846057e+002, 1.431343e-001
6.865341e+002, 1.468797e-001
6.884626e+002, 1.503641e-001
6.903911e+002, 1.535229e-001
6.923195e+002, 1.566564e-001
6.942480e+002, 1.595566e-001
6.961765e+002, 1.622260e-001
6.981049e+002, 1.647594e-001
7.000334e+002, 1.668921e-001
7.019619e+002, 1.686942e-001
7.038903e+002, 1.703422e-001
7.058188e+002, 1.715927e-001
7.077473e+002, 1.726884e-001
7.096757e+002, 1.736253e-001
7.116042e+002, 1.744430e-001
7.135327e+002, 1.743507e-001
7.154611e+002, 1.734959e-001
7.173896e+002, 1.730576e-001
7.193181e+002, 1.732119e-001
7.212465e+002, 1.735758e-001
7.231750e+002, 1.737833e-001
7.251035e+002, 1.737369e-001
7.270319e+002, 1.739181e-001
7.289604e+002, 1.745460e-001
7.308889e+002, 1.753820e-001
7.328173e+002, 1.763058e-001
7.347458e+002, 1.776153e-001
7.366743e+002, 1.791225e-001
7.386027e+002, 1.807380e-001
7.405312e+002, 1.826793e-001
7.424597e+002, 1.851969e-001
7.443881e+002, 1.881063e-001
7.463166e+002, 1.914099e-001
7.482451e+002, 1.952160e-001
7.501735e+002, 1.994917e-001
7.521020e+002, 2.045412e-001
7.540305e+002, 2.102732e-001
7.559589e+002, 2.166246e-001
7.578874e+002, 2.236412e-001
7.598159e+002, 2.316519e-001
7.617443e+002, 2.409545e-001
7.636728e+002, 2.514976e-001
7.656013e+002, 2.632067e-001
7.675297e+002, 2.762554e-001
7.694582e+002, 2.908549e-001
7.713867e+002, 3.072586e-001
7.733151e+002, 3.245399e-001
7.752436e+002, 3.417283e-001
7.771721e+002, 3.582970e-001
7.791005e+002, 3.725597e-001
7.810290e+002, 3.826647e-001
7.829575e+002, 3.872522e-001
7.848859e+002, 3.863646e-001
7.868144e+002, 3.806572e-001
7.887429e+002, 3.718411e-001
7.906713e+002, 3.610860e-001
7.925998e+002, 3.490016e-001
7.945283e+002, 3.354895e-001
7.964567e+002, 3.191205e-001
7.983852e+002, 2.985994e-001
8.003137e+002, 2.750286e-001
8.022421e+002, 2.511972e-001
8.041706e+002, 2.302086e-001
8.060991e+002, 2.139913e-001
8.080275e+002, 2.032116e-001
8.099560e+002, 1.970155e-001
8.118845e+002, 1.950310e-001
8.138129e+002, 1.973739e-001
8.157414e+002, 2.039254e-001
8.176699e+002, 2.140557e-001
8.195983e+002, 2.273621e-001
8.215268e+002, 2.430213e-001
8.234553e+002, 2.596509e-001
8.253837e+002, 2.750014e-001
8.273122e+002, 2.867204e-001
8.292407e+002, 2.934682e-001
8.311691e+002, 2.953668e-001
8.330976e+002, 2.935266e-001
8.350261e+002, 2.893058e-001
8.369545e+002, 2.824999e-001
8.388830e+002, 2.721044e-001
8.408115e+002, 2.579837e-001
8.427399e+002, 2.409930e-001
8.446684e+002, 2.229169e-001
8.465969e+002, 2.052766e-001
8.485253e+002, 1.888864e-001
8.504538e+002, 1.740262e-001
8.523823e+002, 1.605840e-001
8.543107e+002, 1.482901e-001
8.562392e+002, 1.369736e-001
8.581677e+002, 1.270886e-001
8.600961e+002, 1.188473e-001
8.620246e+002, 1.123649e-001
8.639531e+002, 1.078263e-001
8.658815e+002, 1.050484e-001
8.678100e+002, 1.037809e-001
8.697385e+002, 1.039301e-001
8.716669e+002, 1.049650e-001
8.735954e+002, 1.064453e-001
8.755239e+002, 1.080248e-001
8.774523e+002, 1.094678e-001
8.793808e+002, 1.105391e-001
8.813093e+002, 1.114669e-001
8.832377e+002, 1.121989e-001
8.851662e+002, 1.128246e-001
8.870947e+002, 1.131640e-001
8.890231e+002, 1.133668e-001
8.909516e+002, 1.135359e-001
8.928801e+002, 1.136341e-001
8.948085e+002, 1.136519e-001
8.967370e+002, 1.137052e-001
8.986655e+002, 1.138563e-001
9.005939e+002, 1.144500e-001
9.025224e+002, 1.154245e-001
9.044509e+002, 1.166689e-001
9.063793e+002, 1.183803e-001
9.083078e+002, 1.203088e-001
9.102363e+002, 1.218136e-001
9.121647e+002, 1.229302e-001
9.140932e+002, 1.239709e-001
9.160217e+002, 1.247172e-001
9.179501e+002, 1.247705e-001
9.198786e+002, 1.241661e-001
9.218071e+002, 1.227842e-001
9.237355e+002, 1.209274e-001
9.256640e+002, 1.185140e-001
9.275925e+002, 1.152728e-001
9.295209e+002, 1.113113e-001
9.314494e+002, 1.066995e-001
9.333779e+002, 1.014335e-001
9.353063e+002, 9.582316e-002
9.372348e+002, 9.017059e-002
9.391633e+002, 8.465194e-002
9.410917e+002, 7.911331e-002
9.430202e+002, 7.376952e-002
9.449487e+002, 6.882060e-002
9.468771e+002, 6.431876e-002
9.488056e+002, 6.007499e-002
9.507341e+002, 5.620527e-002
9.526625e+002, 5.267601e-002
9.545910e+002, 4.964541e-002
9.565195e+002, 4.702912e-002
9.584479e+002, 4.467596e-002
9.603764e+002, 4.268647e-002
9.623049e+002, 4.093185e-002
9.642333e+002, 3.942253e-002
9.661618e+002, 3.802187e-002
9.680903e+002, 3.672999e-002
9.700187e+002, 3.566375e-002
9.719472e+002, 3.474357e-002
9.738757e+002, 3.401861e-002
9.758041e+002, 3.322024e-002
9.777326e+002, 3.263885e-002
9.796611e+002, 3.220362e-002
9.815895e+002, 3.160432e-002
9.835180e+002, 3.107139e-002
9.854465e+002, 3.044145e-002
9.873749e+002, 2.973066e-002
9.893034e+002, 2.902162e-002
9.912319e+002, 2.833126e-002
9.931603e+002, 2.765909e-002
9.950888e+002, 2.677307e-002
9.970173e+002, 2.586982e-002
9.989457e+002, 2.514851e-002
1.000874e+003, 2.432869e-002
1.002803e+003, 2.356365e-002
1.004731e+003, 2.306415e-002
1.006660e+003, 2.242685e-002
1.008588e+003, 2.168504e-002
1.010517e+003, 2.111480e-002
1.012445e+003, 2.063666e-002
1.014373e+003, 2.015709e-002
1.016302e+003, 1.982607e-002
1.018230e+003, 1.965705e-002
1.020159e+003, 1.947835e-002
1.022087e+003, 1.891716e-002
1.024016e+003, 1.845785e-002
1.025944e+003, 1.827843e-002
1.027873e+003, 1.807635e-002
1.029801e+003, 1.788398e-002
1.031730e+003, 1.762489e-002
1.033658e+003, 1.740380e-002
1.035587e+003, 1.741255e-002
1.037515e+003, 1.734376e-002
1.039443e+003, 1.713868e-002
1.041372e+003, 1.702499e-002
1.043300e+003, 1.711471e-002
1.045229e+003, 1.703648e-002
1.047157e+003, 1.685867e-002
1.049086e+003, 1.680138e-002
1.051014e+003, 1.679382e-002
1.052943e+003, 1.670756e-002
1.054871e+003, 1.678852e-002
1.056800e+003, 1.686222e-002
1.058728e+003, 1.680267e-002
1.060657e+003, 1.662562e-002
1.062585e+003, 1.648118e-002
1.064514e+003, 1.648715e-002
1.066442e+003, 1.650731e-002
1.068370e+003, 1.649949e-002
1.070299e+003, 1.663611e-002
1.072227e+003, 1.664403e-002
1.074156e+003, 1.649536e-002
1.076084e+003, 1.638762e-002
1.078013e+003, 1.641518e-002
1.079941e+003, 1.632174e-002
1.081870e+003, 1.625888e-002
1.083798e+003, 1.621746e-002
1.085727e+003, 1.620964e-002
1.087655e+003, 1.606227e-002
1.089584e+003, 1.594712e-002
1.091512e+003, 1.587369e-002
1.093441e+003, 1.593755e-002
1.095369e+003, 1.598555e-002
1.097297e+003, 1.596068e-002
1.099226e+003, 1.599193e-002
1.101154e+003, 1.607111e-002
1.103083e+003, 1.600345e-002
1.105011e+003, 1.608174e-002
1.106940e+003, 1.614470e-002
1.108868e+003, 1.620554e-002
1.110797e+003, 1.611855e-002
1.112725e+003, 1.609996e-002
1.114654e+003, 1.617761e-002
1.116582e+003, 1.624944e-002
1.118511e+003, 1.644670e-002
1.120439e+003, 1.644625e-002
1.122368e+003, 1.647841e-002
1.124296e+003, 1.646765e-002
1.126224e+003, 1.629454e-002
1.128153e+003, 1.622086e-002
1.130081e+003, 1.626650e-002
1.132010e+003, 1.617083e-002
1.133938e+003, 1.602954e-002
1.135867e+003, 1.601007e-002
1.137795e+003, 1.604601e-002
1.139724e+003, 1.599855e-002
1.141652e+003, 1.606129e-002
1.143581e+003, 1.613684e-002
1.145509e+003, 1.607427e-002
1.147438e+003, 1.609415e-002
1.149366e+003, 1.611168e-002
1.151295e+003, 1.612992e-002
1.153223e+003, 1.616144e-002
1.155151e+003, 1.623156e-002
1.157080e+003, 1.625865e-002
1.159008e+003, 1.627849e-002
1.160937e+003, 1.633593e-002
1.162865e+003, 1.645295e-002
1.164794e+003, 1.646440e-002
1.166722e+003, 1.642625e-002
1.168651e+003, 1.655740e-002
1.170579e+003, 1.666496e-002
1.172508e+003, 1.661406e-002
1.174436e+003, 1.646837e-002
1.176365e+003, 1.641623e-002
1.178293e+003, 1.647540e-002
1.180222e+003, 1.649707e-002
1.182150e+003, 1.645984e-002
1.184078e+003, 1.655937e-002
1.186007e+003, 1.664913e-002
1.187935e+003, 1.664266e-002
1.189864e+003, 1.664374e-002
1.191792e+003, 1.666558e-002
1.193721e+003, 1.664990e-002
1.195649e+003, 1.666702e-002
1.197578e+003, 1.672017e-002
1.199506e+003, 1.661344e-002
1.201435e+003, 1.653934e-002
1.203363e+003, 1.636620e-002
1.205292e+003, 1.622573e-002
1.207220e+003, 1.625796e-002
1.209149e+003, 1.635576e-002
1.211077e+003, 1.629041e-002
1.213005e+003, 1.618831e-002
1.214934e+003, 1.610853e-002
1.216862e+003, 1.614803e-002
1.218791e+003, 1.614772e-002
1.220719e+003, 1.604122e-002
1.222648e+003, 1.595024e-002
1.224576e+003, 1.600751e-002
1.226505e+003, 1.608378e-002
1.228433e+003, 1.595551e-002
1.230362e+003, 1.589596e-002
1.232290e+003, 1.595028e-002
1.234219e+003, 1.586521e-002
1.236147e+003, 1.581217e-002
1.238076e+003, 1.586087e-002
1.240004e+003, 1.597970e-002
1.241932e+003, 1.599790e-002
1.243861e+003, 1.583177e-002
1.245789e+003, 1.576081e-002
1.247718e+003, 1.585812e-002
1.249646e+003, 1.595836e-002
1.251575e+003, 1.602847e-002
1.253503e+003, 1.594958e-002
1.255432e+003, 1.582875e-002
1.257360e+003, 1.586576e-002
1.259289e+003, 1.593417e-002
1.261217e+003, 1.602135e-002
1.263146e+003, 1.616752e-002
1.265074e+003, 1.619902e-002
1.267003e+003, 1.613677e-002
1.268931e+003, 1.631999e-002
1.270859e+003, 1.663027e-002
1.272788e+003, 1.688965e-002
1.274716e+003, 1.709050e-002
1.276645e+003, 1.723176e-002
1.278573e+003, 1.748417e-002
1.280502e+003, 1.774935e-002
1.282430e+003, 1.783079e-002
1.284359e+003, 1.797467e-002
1.286287e+003, 1.811647e-002
1.288216e+003, 1.809817e-002
1.290144e+003, 1.808924e-002
1.292073e+003, 1.804063e-002
1.294001e+003, 1.782528e-002
1.295930e+003, 1.755093e-002
1.297858e+003, 1.749209e-002
1.299786e+003, 1.735502e-002
1.301715e+003, 1.711766e-002
1.303643e+003, 1.704192e-002
1.305572e+003, 1.704903e-002
1.307500e+003, 1.707216e-002
1.309429e+003, 1.710686e-002
1.311357e+003, 1.704564e-002
1.313286e+003, 1.697275e-002
1.315214e+003, 1.690686e-002
1.317143e+003, 1.690495e-002
1.319071e+003, 1.678706e-002
1.321000e+003, 1.669690e-002
1.322928e+003, 1.667575e-002
1.324857e+003, 1.672025e-002
1.326785e+003, 1.666069e-002
1.328714e+003, 1.668133e-002
1.330642e+003, 1.677920e-002
1.332570e+003, 1.686893e-002
1.334499e+003, 1.694451e-002
1.336427e+003, 1.695600e-002
1.338356e+003, 1.701211e-002
1.340284e+003, 1.702305e-002
1.342213e+003, 1.696338e-002
1.344141e+003, 1.715999e-002
1.346070e+003, 1.725875e-002
1.347998e+003, 1.726347e-002
1.349927e+003, 1.741832e-002
1.351855e+003, 1.750453e-002
1.353784e+003, 1.742036e-002
1.355712e+003, 1.748839e-002
1.357641e+003, 1.771720e-002
1.359569e+003, 1.786354e-002
1.361497e+003, 1.801472e-002
1.363426e+003, 1.825674e-002
1.365354e+003, 1.838424e-002
1.367283e+003, 1.863974e-002
1.369211e+003, 1.883913e-002
1.371140e+003, 1.901851e-002
1.373068e+003, 1.917708e-002
1.374997e+003, 1.936414e-002
1.376925e+003, 1.948141e-002
1.378854e+003, 1.976561e-002
1.380782e+003, 2.009028e-002
1.382711e+003, 2.034176e-002
1.384639e+003, 2.051789e-002
1.386568e+003, 2.087966e-002
1.388496e+003, 2.123691e-002
1.390424e+003, 2.153012e-002
1.392353e+003, 2.190416e-002
1.394281e+003, 2.236860e-002
1.396210e+003, 2.260114e-002
1.398138e+003, 2.287312e-002
1.400067e+003, 2.300665e-002
1.401995e+003, 2.294620e-002
1.403924e+003, 2.323533e-002
1.405852e+003, 2.363450e-002
1.407781e+003, 2.400710e-002
1.409709e+003, 2.438971e-002
1.411638e+003, 2.467706e-002
1.413566e+003, 2.490473e-002
1.415495e+003, 2.513821e-002
1.417423e+003, 2.562508e-002
1.419351e+003, 2.603920e-002
1.421280e+003, 2.618492e-002
1.423208e+003, 2.649126e-002
1.425137e+003, 2.667824e-002
1.427065e+003, 2.667174e-002
1.428994e+003, 2.693877e-002
1.430922e+003, 2.718981e-002
1.432851e+003, 2.739794e-002
1.434779e+003, 2.779316e-002
1.436708e+003, 2.818591e-002
1.438636e+003, 2.797988e-002
1.440565e+003, 2.790219e-002
1.442493e+003, 2.801516e-002
1.444422e+003, 2.798775e-002
1.446350e+003, 2.790471e-002
1.448278e+003, 2.790469e-002
1.450207e+003, 2.791317e-002
1.452135e+003, 2.785162e-002
1.454064e+003, 2.786423e-002
1.455992e+003, 2.823157e-002
1.457921e+003, 2.806563e-002
1.459849e+003, 2.757222e-002
1.461778e+003, 2.733442e-002
1.463706e+003, 2.739458e-002
1.465635e+003, 2.742520e-002
1.467563e+003, 2.729611e-002
1.469492e+003, 2.727384e-002
1.471420e+003, 2.749991e-002
1.473349e+003, 2.760690e-002
1.475277e+003, 2.743759e-002
1.477205e+003, 2.730142e-002
1.479134e+003, 2.717809e-002
1.481062e+003, 2.721076e-002
1.482991e+003, 2.723999e-002
1.484919e+003, 2.735179e-002
1.486848e+003, 2.754009e-002
1.488776e+003, 2.762543e-002
1.490705e+003, 2.765859e-002
1.492633e+003, 2.748825e-002
1.494562e+003, 2.771712e-002
1.496490e+003, 2.817415e-002
1.498419e+003, 2.817635e-002
1.500347e+003, 2.814103e-002
1.502276e+003, 2.845906e-002
1.504204e+003, 2.921330e-002
1.506132e+003, 2.997028e-002
1.508061e+003, 2.987627e-002
1.509989e+003, 2.956910e-002
1.511918e+003, 2.975257e-002
1.513846e+003, 3.011532e-002
1.515775e+003, 3.074187e-002
1.517703e+003, 3.139634e-002
1.519632e+003, 3.220689e-002
1.521560e+003, 3.300196e-002
1.523489e+003, 3.342145e-002
1.525417e+003, 3.409210e-002
1.527346e+003, 3.480479e-002
1.529274e+003, 3.569594e-002
1.531203e+003, 3.657745e-002
1.533131e+003, 3.762196e-002
1.535059e+003, 3.863093e-002
1.536988e+003, 3.989666e-002
1.538916e+003, 4.164850e-002
1.540845e+003, 4.309709e-002
1.542773e+003, 4.420046e-002
1.544702e+003, 4.542941e-002
1.546630e+003, 4.677926e-002
1.548559e+003, 4.843259e-002
1.550487e+003, 5.021590e-002
1.552416e+003, 5.212605e-002
1.554344e+003, 5.439089e-002
1.556273e+003, 5.682200e-002
1.558201e+003, 5.970484e-002
1.560130e+003, 6.201230e-002
1.562058e+003, 6.395254e-002
1.563986e+003, 6.673418e-002
1.565915e+003, 6.965234e-002
1.567843e+003, 7.288436e-002
1.569772e+003, 7.636791e-002
1.571700e+003, 7.962362e-002
1.573629e+003, 8.315068e-002
1.575557e+003, 8.693039e-002
1.577486e+003, 8.990549e-002
1.579414e+003, 9.235557e-002
1.581343e+003, 9.481072e-002
1.583271e+003, 9.681600e-002
1.585200e+003, 9.787299e-002
1.587128e+003, 9.812944e-002
1.589057e+003, 9.774899e-002
1.590985e+003, 9.653645e-002
1.592913e+003, 9.430072e-002
1.594842e+003, 9.117118e-002
1.596770e+003, 8.768420e-002
1.598699e+003, 8.379694e-002
1.600627e+003, 7.978269e-002
1.602556e+003, 7.580408e-002
1.604484e+003, 7.185045e-002
1.606413e+003, 6.833240e-002
1.608341e+003, 6.529280e-002
1.610270e+003, 6.240158e-002
1.612198e+003, 5.980742e-002
1.614127e+003, 5.771058e-002
1.616055e+003, 5.627279e-002
1.617984e+003, 5.466593e-002
1.619912e+003, 5.315330e-002
1.621840e+003, 5.205910e-002
1.623769e+003, 5.101265e-002
1.625697e+003, 5.004099e-002
1.627626e+003, 4.943098e-002
1.629554e+003, 4.881413e-002
1.631483e+003, 4.823647e-002
1.633411e+003, 4.778218e-002
1.635340e+003, 4.738183e-002
1.637268e+003, 4.652966e-002
1.639197e+003, 4.571683e-002
1.641125e+003, 4.502336e-002
1.643054e+003, 4.450656e-002
1.644982e+003, 4.429756e-002
1.646911e+003, 4.374599e-002
1.648839e+003, 4.278973e-002
1.650767e+003, 4.270834e-002
1.652696e+003, 4.320806e-002
1.654624e+003, 4.226176e-002
1.656553e+003, 4.137020e-002
1.658481e+003, 4.094316e-002
1.660410e+003, 4.066159e-002
1.662338e+003, 4.075952e-002
1.664267e+003, 4.064532e-002
1.666195e+003, 4.061194e-002
1.668124e+003, 4.112270e-002
1.670052e+003, 4.138896e-002
1.671981e+003, 4.137459e-002
1.673909e+003, 4.173721e-002
1.675838e+003, 4.226427e-002
1.677766e+003, 4.230260e-002
1.679694e+003, 4.246925e-002
1.681623e+003, 4.263862e-002
1.683551e+003, 4.323261e-002
1.685480e+003, 4.317910e-002
1.687408e+003, 4.255650e-002
1.689337e+003, 4.210132e-002
1.691265e+003, 4.158418e-002
1.693194e+003, 4.135434e-002
1.695122e+003, 4.137167e-002
1.697051e+003, 4.063056e-002
1.698979e+003, 4.014091e-002
1.700908e+003, 3.948835e-002
1.702836e+003, 3.815901e-002
1.704765e+003, 3.743448e-002
1.706693e+003, 3.649619e-002
1.708621e+003, 3.542063e-002
1.710550e+003, 3.457607e-002
1.712478e+003, 3.387931e-002
1.714407e+003, 3.324263e-002
1.716335e+003, 3.278632e-002
1.718264e+003, 3.208301e-002
1.720192e+003, 3.108448e-002
1.722121e+003, 3.017002e-002
1.724049e+003, 2.940897e-002
1.725978e+003, 2.872019e-002
1.727906e+003, 2.825018e-002
1.729835e+003, 2.775792e-002
1.731763e+003, 2.738476e-002
1.733692e+003, 2.720904e-002
1.735620e+003, 2.647781e-002
1.737548e+003, 2.581113e-002
1.739477e+003, 2.533228e-002
1.741405e+003, 2.451749e-002
1.743334e+003, 2.409411e-002
1.745262e+003, 2.385665e-002
1.747191e+003, 2.360974e-002
1.749119e+003, 2.359664e-002
1.751048e+003, 2.362014e-002
1.752976e+003, 2.317446e-002
1.754905e+003, 2.275296e-002
1.756833e+003, 2.274642e-002
1.758762e+003, 2.253500e-002
1.760690e+003, 2.248755e-002
1.762619e+003, 2.243977e-002
1.764547e+003, 2.209564e-002
1.766475e+003, 2.204239e-002
1.768404e+003, 2.197914e-002
1.770332e+003, 2.181860e-002
1.772261e+003, 2.183530e-002
1.774189e+003, 2.148685e-002
1.776118e+003, 2.108321e-002
1.778046e+003, 2.084780e-002
1.779975e+003, 2.094688e-002
1.781903e+003, 2.087658e-002
1.783832e+003, 2.072729e-002
1.785760e+003, 2.063989e-002
1.787689e+003, 2.026159e-002
1.789617e+003, 2.007635e-002
1.791546e+003, 2.009122e-002
1.793474e+003, 1.988933e-002
1.795402e+003, 1.956233e-002
1.797331e+003, 1.933863e-002
1.799259e+003, 1.912242e-002
1.801188e+003, 1.875673e-002
1.803116e+003, 1.847512e-002
1.805045e+003, 1.822922e-002
1.806973e+003, 1.796888e-002
1.808902e+003, 1.810127e-002
1.810830e+003, 1.785580e-002
1.812759e+003, 1.724085e-002
1.814687e+003, 1.695011e-002
1.816616e+003, 1.684421e-002
1.818544e+003, 1.676859e-002
1.820473e+003, 1.673863e-002
1.822401e+003, 1.660243e-002
1.824329e+003, 1.663234e-002
1.826258e+003, 1.663738e-002
1.828186e+003, 1.662922e-002
1.830115e+003, 1.646702e-002
1.832043e+003, 1.630609e-002
1.833972e+003, 1.627699e-002
1.835900e+003, 1.616988e-002
1.837829e+003, 1.626200e-002
1.839757e+003, 1.640188e-002
1.841686e+003, 1.649961e-002
1.843614e+003, 1.669707e-002
1.845543e+003, 1.655302e-002
1.847471e+003, 1.627710e-002
1.849400e+003, 1.623193e-002
1.851328e+003, 1.616930e-002
1.853256e+003, 1.613202e-002
1.855185e+003, 1.621302e-002
1.857113e+003, 1.653017e-002
1.859042e+003, 1.665127e-002
1.860970e+003, 1.667264e-002
1.862899e+003, 1.665148e-002
1.864827e+003, 1.679437e-002
1.866756e+003, 1.677580e-002
1.868684e+003, 1.718634e-002
1.870613e+003, 1.755640e-002
1.872541e+003, 1.707309e-002
1.874470e+003, 1.707825e-002
1.876398e+003, 1.715912e-002
1.878327e+003, 1.682045e-002
1.880255e+003, 1.700595e-002
1.882183e+003, 1.720298e-002
1.884112e+003, 1.724528e-002
1.886040e+003, 1.733550e-002
1.887969e+003, 1.755515e-002
1.889897e+003, 1.793367e-002
1.891826e+003, 1.802956e-002
1.893754e+003, 1.791389e-002
1.895683e+003, 1.775780e-002
1.897611e+003, 1.766775e-002
1.899540e+003, 1.788301e-002
1.901468e+003, 1.805248e-002
1.903397e+003, 1.815562e-002
1.905325e+003, 1.836073e-002
1.907254e+003, 1.854953e-002
1.909182e+003, 1.831667e-002
1.911110e+003, 1.840768e-002
1.913039e+003, 1.868430e-002
1.914967e+003, 1.861624e-002
1.916896e+003, 1.889133e-002
1.918824e+003, 1.929174e-002
1.920753e+003, 1.891769e-002
1.922681e+003, 1.891055e-002
1.924610e+003, 1.922578e-002
1.926538e+003, 1.939255e-002
1.928467e+003, 1.961688e-002
1.930395e+003, 1.972398e-002
1.932324e+003, 1.977868e-002
1.934252e+003, 1.981752e-002
1.936181e+003, 1.993916e-002
1.938109e+003, 1.995678e-002
1.940037e+003, 1.967878e-002
1.941966e+003, 1.978133e-002
1.943894e+003, 1.937717e-002
1.945823e+003, 1.885120e-002
1.947751e+003, 1.984859e-002
1.949680e+003, 2.034944e-002
1.951608e+003, 2.021605e-002
1.953537e+003, 2.043684e-002
1.955465e+003, 2.022640e-002
1.957394e+003, 1.985536e-002
1.959322e+003, 1.979299e-002
1.961251e+003, 2.059163e-002
1.963179e+003, 2.116837e-002
1.965108e+003, 2.080451e-002
1.967036e+003, 2.051724e-002
1.968964e+003, 2.059757e-002
1.970893e+003, 2.019901e-002
1.972821e+003, 1.952160e-002
1.974750e+003, 1.961451e-002
1.976678e+003, 2.031121e-002
1.978607e+003, 2.211939e-002
1.980535e+003, 2.287183e-002
1.982464e+003, 2.218381e-002
1.984392e+003, 2.201292e-002
1.986321e+003, 2.239723e-002
1.988249e+003, 2.272355e-002
1.990178e+003, 2.303953e-002
1.992106e+003, 2.275909e-002
1.994035e+003, 2.241953e-002
1.995963e+003, 2.315331e-002
1.997891e+003, 2.298540e-002
1.999820e+003, 2.146184e-002
2.001748e+003, 2.096974e-002
2.003677e+003, 2.134340e-002
2.005605e+003, 2.121862e-002
2.007534e+003, 2.164670e-002
2.009462e+003, 2.139035e-002
2.011391e+003, 2.129485e-002
2.013319e+003, 2.045878e-002
2.015248e+003, 2.036396e-002
2.017176e+003, 2.076074e-002
2.019105e+003, 2.022033e-002
2.021033e+003, 2.096413e-002
2.022962e+003, 2.131124e-002
2.024890e+003, 2.106365e-002
2.026818e+003, 2.073862e-002
2.028747e+003, 2.047023e-002
2.030675e+003, 1.997156e-002
2.032604e+003, 1.892198e-002
2.034532e+003, 1.893126e-002
2.036461e+003, 2.066230e-002
2.038389e+003, 2.216208e-002
2.040318e+003, 2.079798e-002
2.042246e+003, 1.938480e-002
2.044175e+003, 2.050078e-002
2.046103e+003, 2.096808e-002
2.048031e+003, 2.162902e-002
2.049960e+003, 2.232960e-002
2.051888e+003, 2.188176e-002
2.053817e+003, 2.169633e-002
2.055745e+003, 2.244535e-002
2.057674e+003, 2.282808e-002
2.059602e+003, 2.254478e-002
2.061531e+003, 2.218895e-002
2.063459e+003, 2.197166e-002
2.065388e+003, 2.142471e-002
2.067316e+003, 2.141665e-002
2.069245e+003, 2.238219e-002
2.071173e+003, 2.299318e-002
2.073102e+003, 2.336926e-002
2.075030e+003, 2.326894e-002
2.076958e+003, 2.298773e-002
2.078887e+003, 2.352957e-002
2.080815e+003, 2.419029e-002
2.082744e+003, 2.376740e-002
2.084672e+003, 2.321902e-002
2.086601e+003, 2.400548e-002
2.088529e+003, 2.503492e-002
2.090458e+003, 2.515339e-002
2.092386e+003, 2.499770e-002
2.094315e+003, 2.435435e-002
2.096243e+003, 2.457570e-002
2.098172e+003, 2.555802e-002
2.100100e+003, 2.577512e-002
2.102029e+003, 2.577199e-002
2.103957e+003, 2.632708e-002
2.105885e+003, 2.673601e-002
2.107814e+003, 2.701574e-002
2.109742e+003, 2.725483e-002
2.111671e+003, 2.758505e-002
2.113599e+003, 2.790005e-002
2.115528e+003, 2.812381e-002
2.117456e+003, 2.807046e-002
2.119385e+003, 2.750549e-002
2.121313e+003, 2.768030e-002
2.123242e+003, 2.806215e-002
2.125170e+003, 2.853578e-002
2.127099e+003, 2.765201e-002
2.129027e+003, 2.686030e-002
2.130956e+003, 2.662887e-002
2.132884e+003, 2.695697e-002
2.134813e+003, 2.866503e-002
2.136741e+003, 2.911477e-002
2.138669e+003, 2.853171e-002
2.140598e+003, 2.813522e-002
2.142526e+003, 2.847651e-002
2.144455e+003, 2.855950e-002
2.146383e+003, 2.901458e-002
2.148312e+003, 2.929740e-002
2.150240e+003, 2.914676e-002
2.152169e+003, 2.905784e-002
2.154097e+003, 2.843486e-002
2.156026e+003, 2.829522e-002
2.157954e+003, 2.844862e-002
2.159883e+003, 3.094354e-002
2.161811e+003, 3.223753e-002
2.163740e+003, 3.205707e-002
2.165668e+003, 3.366851e-002
2.167596e+003, 3.507566e-002
2.169525e+003, 3.399204e-002
2.171453e+003, 3.333708e-002
2.173382e+003, 3.256354e-002
2.175310e+003, 3.285979e-002
2.177239e+003, 3.392325e-002
2.179167e+003, 3.410434e-002
2.181096e+003, 3.551653e-002
2.183024e+003, 3.652408e-002
2.184953e+003, 3.597582e-002
2.186881e+003, 3.591810e-002
2.188810e+003, 3.654303e-002
2.190738e+003, 3.622746e-002
2.192667e+003, 3.625883e-002
2.194595e+003, 3.663138e-002
2.196523e+003, 3.723763e-002
2.198452e+003, 3.833807e-002
2.200380e+003, 3.898998e-002
2.202309e+003, 3.857192e-002
2.204237e+003, 3.934662e-002
2.206166e+003, 3.961948e-002
2.208094e+003, 3.866259e-002
2.210023e+003, 3.911652e-002
2.211951e+003, 4.007275e-002
2.213880e+003, 4.013552e-002
2.215808e+003, 3.979142e-002
2.217737e+003, 3.994453e-002
2.219665e+003, 4.031418e-002
2.221594e+003, 4.042212e-002
2.223522e+003, 4.129529e-002
2.225450e+003, 4.159380e-002
2.227379e+003, 4.143278e-002
2.229307e+003, 4.178866e-002
2.231236e+003, 4.199087e-002
2.233164e+003, 4.180920e-002
2.235093e+003, 4.174936e-002
2.237021e+003, 4.163543e-002
2.238950e+003, 4.189049e-002
2.240878e+003, 4.171691e-002
2.242807e+003, 4.144134e-002
2.244735e+003, 4.134815e-002
2.246664e+003, 4.132341e-002
2.248592e+003, 4.166860e-002
2.250521e+003, 4.225311e-002
2.252449e+003, 4.221864e-002
2.254377e+003, 4.211418e-002
2.256306e+003, 4.187638e-002
2.258234e+003, 4.159377e-002
2.260163e+003, 4.145889e-002
2.262091e+003, 4.148098e-002
2.264020e+003, 4.188544e-002
2.265948e+003, 4.227461e-002
2.267877e+003, 4.240260e-002
2.269805e+003, 4.217606e-002
2.271734e+003, 4.217064e-002
2.273662e+003, 4.202735e-002
2.275591e+003, 4.192965e-002
2.277519e+003, 4.204376e-002
2.279448e+003, 4.214974e-002
2.281376e+003, 4.191929e-002
2.283304e+003, 4.189641e-002
2.285233e+003, 4.235509e-002
2.287161e+003, 4.280305e-002
2.289090e+003, 4.273319e-002
2.291018e+003, 4.269811e-002
2.292947e+003, 4.239650e-002
2.294875e+003, 4.232227e-002
2.296804e+003, 4.249998e-002
2.298732e+003, 4.273041e-002
2.300661e+003, 4.265782e-002
2.302589e+003, 4.252734e-002
2.304518e+003, 4.250463e-002
2.306446e+003, 4.232095e-002
2.308375e+003, 4.273508e-002
2.310303e+003, 4.312720e-002
2.312231e+003, 4.304820e-002
2.314160e+003, 4.312900e-002
2.316088e+003, 4.321982e-002
2.318017e+003, 4.325140e-002
2.319945e+003, 4.375747e-002
2.321874e+003, 4.459009e-002
2.323802e+003, 4.473851e-002
2.325731e+003, 4.386121e-002
2.327659e+003, 4.320623e-002
2.329588e+003, 4.327216e-002
2.331516e+003, 4.360933e-002
2.333445e+003, 4.366437e-002
2.335373e+003, 4.373487e-002
2.337302e+003, 4.397314e-002
2.339230e+003, 4.383057e-002
2.341158e+003, 4.354205e-002
2.343087e+003, 4.349673e-002
2.345015e+003, 4.336298e-002
2.346944e+003, 4.329932e-002
2.348872e+003, 4.307914e-002
2.350801e+003, 4.308534e-002
2.352729e+003, 4.345779e-002
2.354658e+003, 4.382871e-002
2.356586e+003, 4.396763e-002
2.358515e+003, 4.409058e-002
2.360443e+003, 4.416705e-002
2.362372e+003, 4.429768e-002
2.364300e+003, 4.426391e-002
2.366229e+003, 4.430067e-002
2.368157e+003, 4.428123e-002
2.370085e+003, 4.395768e-002
2.372014e+003, 4.386346e-002
2.373942e+003, 4.386661e-002
2.375871e+003, 4.379489e-002
2.377799e+003, 4.381515e-002
2.379728e+003, 4.410056e-002
2.381656e+003, 4.424888e-002
2.383585e+003, 4.430854e-002
2.385513e+003, 4.441113e-002
2.387442e+003, 4.442944e-002
2.389370e+003, 4.481767e-002
2.391299e+003, 4.495940e-002
2.393227e+003, 4.482916e-002
2.395156e+003, 4.499198e-002
2.397084e+003, 4.542529e-002
2.399012e+003, 4.570673e-002
2.400941e+003, 4.562828e-002
2.402869e+003, 4.562293e-002
2.404798e+003, 4.578425e-002
2.406726e+003, 4.596461e-002
2.408655e+003, 4.604222e-002
2.410583e+003, 4.603568e-002
2.412512e+003, 4.596318e-002
2.414440e+003, 4.593196e-002
2.416369e+003, 4.620808e-002
2.418297e+003, 4.636563e-002
2.420226e+003, 4.635014e-002
2.422154e+003, 4.654761e-002
2.424083e+003, 4.638547e-002
2.426011e+003, 4.613445e-002
2.427939e+003, 4.639387e-002
2.429868e+003, 4.650653e-002
2.431796e+003, 4.609943e-002
2.433725e+003, 4.628223e-002
2.435653e+003, 4.663548e-002
2.437582e+003, 4.713665e-002
2.439510e+003, 4.732025e-002
2.441439e+003, 4.715382e-002
2.443367e+003, 4.692405e-002
2.445296e+003, 4.710989e-002
2.447224e+003, 4.749107e-002
2.449153e+003, 4.733682e-002
2.451081e+003, 4.708145e-002
2.453010e+003, 4.667903e-002
2.454938e+003, 4.675134e-002
2.456866e+003, 4.709413e-002
2.458795e+003, 4.675729e-002
2.460723e+003, 4.657703e-002
2.462652e+003, 4.704762e-002
2.464580e+003, 4.703181e-002
2.466509e+003, 4.689433e-002
2.468437e+003, 4.689280e-002
2.470366e+003, 4.684094e-002
2.472294e+003, 4.715300e-002
2.474223e+003, 4.732949e-002
2.476151e+003, 4.740883e-002
2.478080e+003, 4.710806e-002
2.480008e+003, 4.704085e-002
2.481937e+003, 4.752329e-002
2.483865e+003, 4.770593e-002
2.485793e+003, 4.747880e-002
2.487722e+003, 4.754319e-002
2.489650e+003, 4.772824e-002
2.491579e+003, 4.800113e-002
2.493507e+003, 4.814262e-002
2.495436e+003, 4.827615e-002
2.497364e+003, 4.828604e-002
2.499293e+003, 4.806084e-002
2.501221e+003, 4.837881e-002
2.503150e+003, 4.882046e-002
2.505078e+003, 4.905585e-002
2.507007e+003, 4.886171e-002
2.508935e+003, 4.898807e-002
2.510864e+003, 4.951141e-002
2.512792e+003, 4.986035e-002
2.514720e+003, 4.969602e-002
2.516649e+003, 4.992588e-002
2.518577e+003, 5.034244e-002
2.520506e+003, 5.054601e-002
2.522434e+003, 5.057681e-002
2.524363e+003, 5.085121e-002
2.526291e+003, 5.129198e-002
2.528220e+003, 5.128127e-002
2.530148e+003, 5.139980e-002
2.532077e+003, 5.183510e-002
2.534005e+003, 5.230885e-002
2.535934e+003, 5.259585e-002
2.537862e+003, 5.293789e-002
2.539791e+003, 5.298651e-002
2.541719e+003, 5.317873e-002
2.543647e+003, 5.309209e-002
2.545576e+003, 5.321517e-002
2.547504e+003, 5.382365e-002
2.549433e+003, 5.438713e-002
2.551361e+003, 5.485794e-002
2.553290e+003, 5.495567e-002
2.555218e+003, 5.499950e-002
2.557147e+003, 5.525880e-002
2.559075e+003, 5.547302e-002
2.561004e+003, 5.565005e-002
2.562932e+003, 5.594393e-002
2.564861e+003, 5.620848e-002
2.566789e+003, 5.647251e-002
2.568718e+003, 5.674757e-002
2.570646e+003, 5.711474e-002
2.572574e+003, 5.753696e-002
2.574503e+003, 5.801415e-002
2.576431e+003, 5.829437e-002
2.578360e+003, 5.834763e-002
2.580288e+003, 5.853800e-002
2.582217e+003, 5.945265e-002
2.584145e+003, 6.010456e-002
2.586074e+003, 5.990662e-002
2.588002e+003, 5.967835e-002
2.589931e+003, 6.009826e-002
2.591859e+003, 6.095256e-002
2.593788e+003, 6.164714e-002
2.595716e+003, 6.154555e-002
2.597645e+003, 6.159608e-002
2.599573e+003, 6.198282e-002
2.601501e+003, 6.213079e-002
2.603430e+003, 6.251730e-002
2.605358e+003, 6.319476e-002
2.607287e+003, 6.380724e-002
2.609215e+003, 6.413893e-002
2.611144e+003, 6.430930e-002
2.613072e+003, 6.488582e-002
2.615001e+003, 6.525055e-002
2.616929e+003, 6.541669e-002
2.618858e+003, 6.596446e-002
2.620786e+003, 6.647702e-002
2.622715e+003, 6.677876e-002
2.624643e+003, 6.722142e-002
2.626572e+003, 6.740513e-002
2.628500e+003, 6.785449e-002
2.630428e+003, 6.846326e-002
2.632357e+003, 6.902152e-002
2.634285e+003, 6.933311e-002
2.636214e+003, 6.974113e-002
2.638142e+003, 7.048067e-002
2.640071e+003, 7.099918e-002
2.641999e+003, 7.156078e-002
2.643928e+003, 7.218874e-002
2.645856e+003, 7.255763e-002
2.647785e+003, 7.280164e-002
2.649713e+003, 7.311697e-002
2.651642e+003, 7.365703e-002
2.653570e+003, 7.447063e-002
2.655499e+003, 7.521614e-002
2.657427e+003, 7.554985e-002
2.659355e+003, 7.583641e-002
2.661284e+003, 7.628310e-002
2.663212e+003, 7.681016e-002
2.665141e+003, 7.737210e-002
2.667069e+003, 7.792326e-002
2.668998e+003, 7.864381e-002
2.670926e+003, 7.890134e-002
2.672855e+003, 7.926512e-002
2.674783e+003, 7.992595e-002
2.676712e+003, 8.048742e-002
2.678640e+003, 8.092803e-002
2.680569e+003, 8.115370e-002
2.682497e+003, 8.190110e-002
2.684426e+003, 8.265068e-002
2.686354e+003, 8.322604e-002
2.688282e+003, 8.388726e-002
2.690211e+003, 8.445604e-002
2.692139e+003, 8.507209e-002
2.694068e+003, 8.575482e-002
2.695996e+003, 8.639557e-002
2.697925e+003, 8.703061e-002
2.699853e+003, 8.753296e-002
2.701782e+003, 8.811533e-002
2.703710e+003, 8.906353e-002
2.705639e+003, 8.999141e-002
2.707567e+003, 9.035216e-002
2.709496e+003, 9.088282e-002
2.711424e+003, 9.186463e-002
2.713353e+003, 9.275071e-002
2.715281e+003, 9.307528e-002
2.717209e+003, 9.366985e-002
2.719138e+003, 9.469162e-002
2.721066e+003, 9.522171e-002
2.722995e+003, 9.583081e-002
2.724923e+003, 9.652918e-002
2.726852e+003, 9.742291e-002
2.728780e+003, 9.800465e-002
2.730709e+003, 9.855273e-002
2.732637e+003, 9.929185e-002
2.734566e+003, 9.999692e-002
2.736494e+003, 1.008106e-001
2.738423e+003, 1.016916e-001
2.740351e+003, 1.026687e-001
2.742280e+003, 1.034738e-001
2.744208e+003, 1.041992e-001
2.746136e+003, 1.049085e-001
2.748065e+003, 1.054645e-001
2.749993e+003, 1.064243e-001
2.751922e+003, 1.074285e-001
2.753850e+003, 1.078536e-001
2.755779e+003, 1.084470e-001
2.757707e+003, 1.094663e-001
2.759636e+003, 1.104461e-001
2.761564e+003, 1.112310e-001
2.763493e+003, 1.123845e-001
2.765421e+003, 1.130859e-001
2.767350e+003, 1.136786e-001
2.769278e+003, 1.148498e-001
2.771207e+003, 1.157282e-001
2.773135e+003, 1.162608e-001
2.775063e+003, 1.174970e-001
2.776992e+003, 1.187552e-001
2.778920e+003, 1.197508e-001
2.780849e+003, 1.206537e-001
2.782777e+003, 1.213732e-001
2.784706e+003, 1.224566e-001
2.786634e+003, 1.239834e-001
2.788563e+003, 1.248146e-001
2.790491e+003, 1.251844e-001
2.792420e+003, 1.261876e-001
2.794348e+003, 1.274543e-001
2.796277e+003, 1.284897e-001
2.798205e+003, 1.298557e-001
2.800134e+003, 1.314099e-001
2.802062e+003, 1.324193e-001
2.803990e+003, 1.333369e-001
2.805919e+003, 1.343556e-001
2.807847e+003, 1.355787e-001
2.809776e+003, 1.366919e-001
2.811704e+003, 1.378816e-001
2.813633e+003, 1.391577e-001
2.815561e+003, 1.405822e-001
2.817490e+003, 1.419660e-001
2.819418e+003, 1.430413e-001
2.821347e+003, 1.442569e-001
2.823275e+003, 1.451990e-001
2.825204e+003, 1.462217e-001
2.827132e+003, 1.478201e-001
2.829061e+003, 1.496472e-001
2.830989e+003, 1.510854e-001
2.832917e+003, 1.524602e-001
2.834846e+003, 1.538458e-001
2.836774e+003, 1.553838e-001
2.838703e+003, 1.567750e-001
2.840631e+003, 1.579581e-001
2.842560e+003, 1.596891e-001
2.844488e+003, 1.612004e-001
2.846417e+003, 1.621355e-001
2.848345e+003, 1.633828e-001
2.850274e+003, 1.649806e-001
2.852202e+003, 1.666944e-001
2.854131e+003, 1.685227e-001
2.856059e+003, 1.705710e-001
2.857988e+003, 1.724747e-001
2.859916e+003, 1.742096e-001
2.861844e+003, 1.759211e-001
2.863773e+003, 1.783099e-001
2.865701e+003, 1.805128e-001
2.867630e+003, 1.822711e-001
2.869558e+003, 1.842203e-001
2.871487e+003, 1.863044e-001
2.873415e+003, 1.883323e-001
2.875344e+003, 1.907402e-001
2.877272e+003, 1.927969e-001
2.879201e+003, 1.946549e-001
2.881129e+003, 1.969109e-001
2.883058e+003, 1.995968e-001
2.884986e+003, 2.017472e-001
2.886915e+003, 2.034598e-001
2.888843e+003, 2.056774e-001
2.890771e+003, 2.081465e-001
2.892700e+003, 2.100833e-001
2.894628e+003, 2.123675e-001
2.896557e+003, 2.148580e-001
2.898485e+003, 2.170828e-001
2.900414e+003, 2.191840e-001
2.902342e+003, 2.218904e-001
2.904271e+003, 2.244623e-001
2.906199e+003, 2.267189e-001
2.908128e+003, 2.290252e-001
2.910056e+003, 2.314050e-001
2.911985e+003, 2.337694e-001
2.913913e+003, 2.356841e-001
2.915842e+003, 2.373756e-001
2.917770e+003, 2.395380e-001
2.919698e+003, 2.417991e-001
2.921627e+003, 2.445012e-001
2.923555e+003, 2.469469e-001
2.925484e+003, 2.491294e-001
2.927412e+003, 2.516952e-001
2.929341e+003, 2.547621e-001
2.931269e+003, 2.573870e-001
2.933198e+003, 2.599719e-001
2.935126e+003, 2.624940e-001
2.937055e+003, 2.648555e-001
2.938983e+003, 2.673533e-001
2.940912e+003, 2.699061e-001
2.942840e+003, 2.722768e-001
2.944769e+003, 2.746166e-001
2.946697e+003, 2.764909e-001
2.948625e+003, 2.787593e-001
2.950554e+003, 2.810425e-001
2.952482e+003, 2.830051e-001
2.954411e+003, 2.853031e-001
2.956339e+003, 2.873111e-001
2.958268e+003, 2.890536e-001
2.960196e+003, 2.909635e-001
2.962125e+003, 2.925401e-001
2.964053e+003, 2.940772e-001
2.965982e+003, 2.954563e-001
2.967910e+003, 2.963005e-001
2.969839e+003, 2.972014e-001
2.971767e+003, 2.986068e-001
2.973696e+003, 2.998581e-001
2.975624e+003, 3.006517e-001
2.977552e+003, 3.012533e-001
2.979481e+003, 3.020559e-001
2.981409e+003, 3.030263e-001
2.983338e+003, 3.036628e-001
2.985266e+003, 3.036086e-001
2.987195e+003, 3.036265e-001
2.989123e+003, 3.036814e-001
2.991052e+003, 3.037328e-001
2.992980e+003, 3.040640e-001
2.994909e+003, 3.043417e-001
2.996837e+003, 3.036489e-001
2.998766e+003, 3.028885e-001
3.000694e+003, 3.024873e-001
3.002623e+003, 3.023629e-001
3.004551e+003, 3.017571e-001
3.006479e+003, 3.008959e-001
3.008408e+003, 2.998246e-001
3.010336e+003, 2.988568e-001
3.012265e+003, 2.977369e-001
3.014193e+003, 2.964519e-001
3.016122e+003, 2.952229e-001
3.018050e+003, 2.943710e-001
3.019979e+003, 2.937093e-001
3.021907e+003, 2.925221e-001
3.023836e+003, 2.910668e-001
3.025764e+003, 2.899034e-001
3.027693e+003, 2.885658e-001
3.029621e+003, 2.870052e-001
3.031550e+003, 2.856719e-001
3.033478e+003, 2.843642e-001
3.035406e+003, 2.826685e-001
3.037335e+003, 2.811428e-001
3.039263e+003, 2.795684e-001
3.041192e+003, 2.778388e-001
3.043120e+003, 2.760798e-001
3.045049e+003, 2.746444e-001
3.046977e+003, 2.734449e-001
3.048906e+003, 2.720931e-001
3.050834e+003, 2.702622e-001
3.052763e+003, 2.690091e-001
3.054691e+003, 2.676867e-001
3.056620e+003, 2.656032e-001
3.058548e+003, 2.638772e-001
3.060477e+003, 2.625266e-001
3.062405e+003, 2.612559e-001
3.064333e+003, 2.598563e-001
3.066262e+003, 2.583012e-001
3.068190e+003, 2.574219e-001
3.070119e+003, 2.564280e-001
3.072047e+003, 2.545819e-001
3.073976e+003, 2.527573e-001
3.075904e+003, 2.516644e-001
3.077833e+003, 2.504628e-001
3.079761e+003, 2.492776e-001
3.081690e+003, 2.484153e-001
3.083618e+003, 2.473912e-001
3.085547e+003, 2.462488e-001
3.087475e+003, 2.455205e-001
3.089404e+003, 2.447878e-001
3.091332e+003, 2.437175e-001
3.093260e+003, 2.425553e-001
3.095189e+003, 2.418636e-001
3.097117e+003, 2.415023e-001
3.099046e+003, 2.407037e-001
3.100974e+003, 2.395911e-001
3.102903e+003, 2.389633e-001
3.104831e+003, 2.380207e-001
3.106760e+003, 2.377309e-001
3.108688e+003, 2.377822e-001
3.110617e+003, 2.375777e-001
3.112545e+003, 2.375345e-001
3.114474e+003, 2.375991e-001
3.116402e+003, 2.376771e-001
3.118331e+003, 2.375339e-001
3.120259e+003, 2.375016e-001
3.122188e+003, 2.379048e-001
3.124116e+003, 2.385554e-001
3.126044e+003, 2.389738e-001
3.127973e+003, 2.388606e-001
3.129901e+003, 2.385833e-001
3.131830e+003, 2.388983e-001
3.133758e+003, 2.393431e-001
3.135687e+003, 2.391683e-001
3.137615e+003, 2.390454e-001
3.139544e+003, 2.391472e-001
3.141472e+003, 2.391980e-001
3.143401e+003, 2.384959e-001
3.145329e+003, 2.380036e-001
3.147258e+003, 2.377660e-001
3.149186e+003, 2.377465e-001
3.151115e+003, 2.373966e-001
3.153043e+003, 2.363360e-001
3.154971e+003, 2.350115e-001
3.156900e+003, 2.341142e-001
3.158828e+003, 2.330569e-001
3.160757e+003, 2.316453e-001
3.162685e+003, 2.303551e-001
3.164614e+003, 2.293111e-001
3.166542e+003, 2.279361e-001
3.168471e+003, 2.262154e-001
3.170399e+003, 2.244843e-001
3.172328e+003, 2.225815e-001
3.174256e+003, 2.210325e-001
3.176185e+003, 2.199994e-001
3.178113e+003, 2.185448e-001
3.180042e+003, 2.166498e-001
3.181970e+003, 2.145398e-001
3.183898e+003, 2.127524e-001
3.185827e+003, 2.112478e-001
3.187755e+003, 2.095314e-001
3.189684e+003, 2.078847e-001
3.191612e+003, 2.061865e-001
3.193541e+003, 2.043747e-001
3.195469e+003, 2.025143e-001
3.197398e+003, 2.005706e-001
3.199326e+003, 1.991879e-001
3.201255e+003, 1.970630e-001
3.203183e+003, 1.948724e-001
3.205112e+003, 1.934361e-001
3.207040e+003, 1.920120e-001
3.208969e+003, 1.899076e-001
3.210897e+003, 1.877490e-001
3.212825e+003, 1.861909e-001
3.214754e+003, 1.849479e-001
3.216682e+003, 1.827405e-001
3.218611e+003, 1.806311e-001
3.220539e+003, 1.791161e-001
3.222468e+003, 1.773271e-001
3.224396e+003, 1.753271e-001
3.226325e+003, 1.737662e-001
3.228253e+003, 1.720775e-001
3.230182e+003, 1.701394e-001
3.232110e+003, 1.685365e-001
3.234039e+003, 1.669804e-001
3.235967e+003, 1.653089e-001
3.237896e+003, 1.634062e-001
3.239824e+003, 1.616212e-001
3.241752e+003, 1.601360e-001
3.243681e+003, 1.586078e-001
3.245609e+003, 1.578914e-001
3.247538e+003, 1.568928e-001
3.249466e+003, 1.555565e-001
3.251395e+003, 1.540140e-001
3.253323e+003, 1.521801e-001
3.255252e+003, 1.503477e-001
3.257180e+003, 1.490264e-001
3.259109e+003, 1.477525e-001
3.261037e+003, 1.464168e-001
3.262966e+003, 1.449845e-001
3.264894e+003, 1.439970e-001
3.266823e+003, 1.431804e-001
3.268751e+003, 1.419335e-001
3.270679e+003, 1.405518e-001
3.272608e+003, 1.397547e-001
3.274536e+003, 1.384734e-001
3.276465e+003, 1.368291e-001
3.278393e+003, 1.356656e-001
3.280322e+003, 1.342814e-001
3.282250e+003, 1.331106e-001
3.284179e+003, 1.324052e-001
3.286107e+003, 1.315961e-001
3.288036e+003, 1.309125e-001
3.289964e+003, 1.300394e-001
3.291893e+003, 1.287004e-001
3.293821e+003, 1.276690e-001
3.295750e+003, 1.268199e-001
3.297678e+003, 1.259838e-001
3.299606e+003, 1.254487e-001
3.301535e+003, 1.250262e-001
3.303463e+003, 1.245084e-001
3.305392e+003, 1.233528e-001
3.307320e+003, 1.225799e-001
3.309249e+003, 1.221970e-001
3.311177e+003, 1.218160e-001
3.313106e+003, 1.208965e-001
3.315034e+003, 1.200373e-001
3.316963e+003, 1.196806e-001
3.318891e+003, 1.196184e-001
3.320820e+003, 1.194940e-001
3.322748e+003, 1.192236e-001
3.324677e+003, 1.183342e-001
3.326605e+003, 1.180511e-001
3.328533e+003, 1.178426e-001
3.330462e+003, 1.179726e-001
3.332390e+003, 1.181778e-001
3.334319e+003, 1.180916e-001
3.336247e+003, 1.180784e-001
3.338176e+003, 1.181343e-001
3.340104e+003, 1.183913e-001
3.342033e+003, 1.189558e-001
3.343961e+003, 1.191110e-001
3.345890e+003, 1.187527e-001
3.347818e+003, 1.181929e-001
3.349747e+003, 1.186032e-001
3.351675e+003, 1.198849e-001
3.353604e+003, 1.208417e-001
3.355532e+003, 1.208971e-001
3.357460e+003, 1.210109e-001
3.359389e+003, 1.217177e-001
3.361317e+003, 1.223177e-001
3.363246e+003, 1.225997e-001
3.365174e+003, 1.230581e-001
3.367103e+003, 1.241973e-001
3.369031e+003, 1.260591e-001
3.370960e+003, 1.272439e-001
3.372888e+003, 1.278956e-001
3.374817e+003, 1.291130e-001
3.376745e+003, 1.306067e-001
3.378674e+003, 1.319896e-001
3.380602e+003, 1.330951e-001
3.382531e+003, 1.345838e-001
3.384459e+003, 1.369399e-001
3.386387e+003, 1.386033e-001
3.388316e+003, 1.407303e-001
3.390244e+003, 1.427826e-001
3.392173e+003, 1.454711e-001
3.394101e+003, 1.484934e-001
3.396030e+003, 1.513454e-001
3.397958e+003, 1.543271e-001
3.399887e+003, 1.576840e-001
3.401815e+003, 1.612171e-001
3.403744e+003, 1.651273e-001
3.405672e+003, 1.695512e-001
3.407601e+003, 1.737273e-001
3.409529e+003, 1.769124e-001
3.411458e+003, 1.797700e-001
3.413386e+003, 1.835609e-001
3.415314e+003, 1.871250e-001
3.417243e+003, 1.901061e-001
3.419171e+003, 1.927226e-001
3.421100e+003, 1.948899e-001
3.423028e+003, 1.963188e-001
3.424957e+003, 1.971916e-001
3.426885e+003, 1.974853e-001
3.428814e+003, 1.978508e-001
3.430742e+003, 1.973136e-001
3.432671e+003, 1.953557e-001
3.434599e+003, 1.932161e-001
3.436528e+003, 1.912672e-001
3.438456e+003, 1.878930e-001
3.440385e+003, 1.839064e-001
3.442313e+003, 1.802626e-001
3.444241e+003, 1.766481e-001
3.446170e+003, 1.729215e-001
3.448098e+003, 1.684299e-001
3.450027e+003, 1.635713e-001
3.451955e+003, 1.587937e-001
3.453884e+003, 1.536298e-001
3.455812e+003, 1.484070e-001
3.457741e+003, 1.429611e-001
3.459669e+003, 1.375636e-001
3.461598e+003, 1.327417e-001
3.463526e+003, 1.276287e-001
3.465455e+003, 1.226843e-001
3.467383e+003, 1.170341e-001
3.469312e+003, 1.114767e-001
3.471240e+003, 1.073787e-001
3.473168e+003, 1.034465e-001
3.475097e+003, 9.931605e-002
3.477025e+003, 9.554872e-002
3.478954e+003, 9.184008e-002
3.480882e+003, 8.797391e-002
3.482811e+003, 8.481883e-002
3.484739e+003, 8.222719e-002
3.486668e+003, 7.899710e-002
3.488596e+003, 7.606798e-002
3.490525e+003, 7.424701e-002
3.492453e+003, 7.154338e-002
3.494382e+003, 6.783000e-002
3.496310e+003, 6.531034e-002
3.498239e+003, 6.273103e-002
3.500167e+003, 5.994570e-002
3.502095e+003, 5.861198e-002
3.504024e+003, 5.751598e-002
3.505952e+003, 5.607918e-002
3.507881e+003, 5.405907e-002
3.509809e+003, 5.180664e-002
3.511738e+003, 4.979794e-002
3.513666e+003, 4.857447e-002
3.515595e+003, 4.765058e-002
3.517523e+003, 4.660307e-002
3.519452e+003, 4.511260e-002
3.521380e+003, 4.347827e-002
3.523309e+003, 4.174051e-002
3.525237e+003, 4.072145e-002
3.527166e+003, 3.998299e-002
3.529094e+003, 3.864557e-002
3.531022e+003, 3.790833e-002
3.532951e+003, 3.741568e-002
3.534879e+003, 3.595450e-002
3.536808e+003, 3.457439e-002
3.538736e+003, 3.375402e-002
3.540665e+003, 3.330790e-002
3.542593e+003, 3.298170e-002
3.544522e+003, 3.224044e-002
3.546450e+003, 3.184093e-002
3.548379e+003, 3.095278e-002
3.550307e+003, 2.980426e-002
3.552236e+003, 2.966818e-002
3.554164e+003, 2.891820e-002
3.556093e+003, 2.735536e-002
3.558021e+003, 2.714857e-002
3.559949e+003, 2.660133e-002
3.561878e+003, 2.558602e-002
3.563806e+003, 2.474678e-002
3.565735e+003, 2.462788e-002
3.567663e+003, 2.489260e-002
3.569592e+003, 2.427290e-002
3.571520e+003, 2.372595e-002
3.573449e+003, 2.311683e-002
3.575377e+003, 2.223651e-002
3.577306e+003, 2.171437e-002
3.579234e+003, 2.141402e-002
3.581163e+003, 2.100539e-002
3.583091e+003, 2.023363e-002
3.585020e+003, 1.958351e-002
3.586948e+003, 1.950474e-002
3.588876e+003, 1.911972e-002
3.590805e+003, 1.870753e-002
3.592733e+003, 1.910785e-002
3.594662e+003, 1.917985e-002
3.596590e+003, 1.823228e-002
3.598519e+003, 1.695254e-002
3.600447e+003, 1.660867e-002
3.602376e+003, 1.633675e-002
3.604304e+003, 1.602416e-002
3.606233e+003, 1.594015e-002
3.608161e+003, 1.583792e-002
3.610090e+003, 1.529767e-002
3.612018e+003, 1.424872e-002
3.613947e+003, 1.416208e-002
3.615875e+003, 1.428401e-002
3.617803e+003, 1.389260e-002
3.619732e+003, 1.358386e-002
3.621660e+003, 1.307446e-002
3.623589e+003, 1.270930e-002
3.625517e+003, 1.257402e-002
3.627446e+003, 1.262869e-002
3.629374e+003, 1.149801e-002
3.631303e+003, 9.771173e-003
3.633231e+003, 9.973819e-003
3.635160e+003, 1.062288e-002
3.637088e+003, 1.037448e-002
3.639017e+003, 9.761356e-003
3.640945e+003, 9.075383e-003
3.642874e+003, 9.209241e-003
3.644802e+003, 9.493769e-003
3.646730e+003, 9.804540e-003
3.648659e+003, 9.545046e-003
3.650587e+003, 8.923150e-003
3.652516e+003, 8.440994e-003
3.654444e+003, 8.435833e-003
3.656373e+003, 8.507517e-003
3.658301e+003, 8.443884e-003
3.660230e+003, 7.732556e-003
3.662158e+003, 6.816417e-003
3.664087e+003, 6.773431e-003
3.666015e+003, 7.213407e-003
3.667944e+003, 7.553583e-003
3.669872e+003, 8.249342e-003
3.671801e+003, 7.579006e-003
3.673729e+003, 7.387311e-003
3.675657e+003, 7.929639e-003
3.677586e+003, 6.647997e-003
3.679514e+003, 5.010841e-003
3.681443e+003, 4.652290e-003
3.683371e+003, 5.511515e-003
3.685300e+003, 5.707275e-003
3.687228e+003, 5.601879e-003
3.689157e+003, 5.538448e-003
3.691085e+003, 5.393222e-003
3.693014e+003, 5.044323e-003
3.694942e+003, 5.320610e-003
3.696871e+003, 5.373408e-003
3.698799e+003, 5.206525e-003
3.700728e+003, 5.861615e-003
3.702656e+003, 6.119450e-003
3.704584e+003, 5.296687e-003
3.706513e+003, 5.273446e-003
3.708441e+003, 5.204689e-003
3.710370e+003, 5.273752e-003
3.712298e+003, 5.694279e-003
3.714227e+003, 4.721367e-003
3.716155e+003, 3.969334e-003
3.718084e+003, 3.920019e-003
3.720012e+003, 4.038943e-003
3.721941e+003, 4.619365e-003
3.723869e+003, 5.061219e-003
3.725798e+003, 4.546033e-003
3.727726e+003, 4.334491e-003
3.729655e+003, 4.540206e-003
3.731583e+003, 5.075176e-003
3.733511e+003, 5.060922e-003
3.735440e+003, 5.301439e-003
3.737368e+003, 4.698994e-003
3.739297e+003, 3.706175e-003
3.741225e+003, 3.902293e-003
3.743154e+003, 5.970764e-003
3.745082e+003, 6.417161e-003
3.747011e+003, 5.670154e-003
3.748939e+003, 6.758522e-003
3.750868e+003, 6.757381e-003
3.752796e+003, 6.010232e-003
3.754725e+003, 4.746643e-003
3.756653e+003, 4.501051e-003
3.758582e+003, 5.075542e-003
3.760510e+003, 5.722967e-003
3.762438e+003, 5.337754e-003
3.764367e+003, 5.619444e-003
3.766295e+003, 5.308671e-003
3.768224e+003, 4.810041e-003
3.770152e+003, 5.077132e-003
3.772081e+003, 4.800424e-003
3.774009e+003, 4.659660e-003
3.775938e+003, 5.398705e-003
3.777866e+003, 5.933166e-003
3.779795e+003, 5.329834e-003
3.781723e+003, 4.644303e-003
3.783652e+003, 4.963775e-003
3.785580e+003, 4.795588e-003
3.787509e+003, 4.537895e-003
3.789437e+003, 5.026275e-003
3.791365e+003, 4.937858e-003
3.793294e+003, 4.666202e-003
3.795222e+003, 4.667691e-003
3.797151e+003, 4.949179e-003
3.799079e+003, 6.049864e-003
3.801008e+003, 6.230165e-003
3.802936e+003, 5.134554e-003
3.804865e+003, 4.424691e-003
3.806793e+003, 4.720376e-003
3.808722e+003, 4.513958e-003
3.810650e+003, 4.383311e-003
3.812579e+003, 4.194789e-003
3.814507e+003, 4.702690e-003
3.816436e+003, 5.408524e-003
3.818364e+003, 5.130382e-003
3.820292e+003, 5.887623e-003
3.822221e+003, 5.967618e-003
3.824149e+003, 5.140443e-003
3.826078e+003, 5.345369e-003
3.828006e+003, 5.321851e-003
3.829935e+003, 5.117415e-003
3.831863e+003, 5.173864e-003
3.833792e+003, 4.793346e-003
3.835720e+003, 5.309370e-003
3.837649e+003, 6.025523e-003
3.839577e+003, 5.162585e-003
3.841506e+003, 4.674451e-003
3.843434e+003, 5.091637e-003
3.845363e+003, 5.339206e-003
3.847291e+003, 5.896355e-003
3.849219e+003, 6.635165e-003
3.851148e+003, 7.449760e-003
3.853076e+003, 8.458023e-003
3.855005e+003, 6.952301e-003
3.856933e+003, 4.789342e-003
3.858862e+003, 4.630821e-003
3.860790e+003, 4.713695e-003
3.862719e+003, 5.698969e-003
3.864647e+003, 6.490525e-003
3.866576e+003, 6.250576e-003
3.868504e+003, 6.251121e-003
3.870433e+003, 5.992181e-003
3.872361e+003, 5.889969e-003
3.874290e+003, 5.886075e-003
3.876218e+003, 5.211207e-003
3.878146e+003, 5.087743e-003
3.880075e+003, 4.656922e-003
3.882003e+003, 5.147764e-003
3.883932e+003, 6.311573e-003
3.885860e+003, 6.378938e-003
3.887789e+003, 5.161251e-003
3.889717e+003, 5.459234e-003
3.891646e+003, 5.763125e-003
3.893574e+003, 5.275564e-003
3.895503e+003, 5.575223e-003
3.897431e+003, 6.095670e-003
3.899360e+003, 6.480212e-003
3.901288e+003, 6.766579e-003
3.903217e+003, 6.559195e-003
3.905145e+003, 5.816614e-003
3.907073e+003, 5.365280e-003
3.909002e+003, 5.197597e-003
3.910930e+003, 4.637431e-003
3.912859e+003, 4.752045e-003
3.914787e+003, 6.078686e-003
3.916716e+003, 6.051724e-003
3.918644e+003, 5.248318e-003
3.920573e+003, 4.721812e-003
3.922501e+003, 5.486730e-003
3.924430e+003, 6.109970e-003
3.926358e+003, 5.122023e-003
3.928287e+003, 4.890607e-003
3.930215e+003, 5.898907e-003
3.932144e+003, 5.823882e-003
3.934072e+003, 5.860223e-003
3.936000e+003, 6.117906e-003
3.937929e+003, 5.643275e-003
3.939857e+003, 5.323871e-003
3.941786e+003, 6.306089e-003
3.943714e+003, 6.631579e-003
3.945643e+003, 6.181833e-003
3.947571e+003, 6.022348e-003
3.949500e+003, 5.561256e-003
3.951428e+003, 4.947385e-003
3.953357e+003, 5.054110e-003
3.955285e+003, 4.955631e-003
3.957214e+003, 4.943057e-003
3.959142e+003, 5.096898e-003
3.961071e+003, 4.825205e-003
3.962999e+003, 5.177461e-003
3.964927e+003, 5.041891e-003
3.966856e+003, 5.562751e-003
3.968784e+003, 6.275634e-003
3.970713e+003, 6.085775e-003
3.972641e+003, 5.658683e-003
3.974570e+003, 5.639365e-003
3.976498e+003, 5.259458e-003
3.978427e+003, 5.072542e-003
3.980355e+003, 4.799234e-003
3.982284e+003, 4.765967e-003
3.984212e+003, 5.059000e-003
3.986141e+003, 5.227433e-003
3.988069e+003, 5.658254e-003
3.989998e+003, 6.032282e-003
3.991926e+003, 6.041568e-003
3.993854e+003, 6.389521e-003
3.995783e+003, 6.665042e-003
3.997711e+003, 6.320178e-003
3.999640e+003, 6.056700e-003
##END=



