##NAMES=Anorthite
##RRUFFID=R050104
##IDEAL CHEMISTRY=CaAl_2_Si_2_O_8_
##LOCALITY=unknown
##OWNER=RRUFF
##SOURCE=Rock Currier
##DESCRIPTION=Iridescent slab, labradorite/andesine
##STATUS=The identification of this mineral has been confirmed by X-ray diffraction and chemical analysis
##URL=rruff.info/R050104
##MEASURED CHEMISTRY=Ca_0.50_Na_0.47_K_0.03_Al_1.50_Si_2.50_O_8_
3.741225e+002, 1.231778e-001
3.760510e+002, 1.032412e-001
3.779795e+002, 1.036742e-001
3.799079e+002, 1.101956e-001
3.818364e+002, 1.172109e-001
3.837649e+002, 1.169817e-001
3.856933e+002, 1.207279e-001
3.876218e+002, 1.165170e-001
3.895503e+002, 1.104180e-001
3.914787e+002, 1.133586e-001
3.934072e+002, 1.119339e-001
3.953357e+002, 1.127140e-001
3.972641e+002, 1.087538e-001
3.991926e+002, 1.018679e-001
4.011211e+002, 1.016977e-001
4.030495e+002, 9.522206e-002
4.049780e+002, 9.079882e-002
4.069065e+002, 8.740724e-002
4.088349e+002, 8.837862e-002
4.107634e+002, 8.215024e-002
4.126919e+002, 7.957280e-002
4.146203e+002, 8.203750e-002
4.165488e+002, 8.180413e-002
4.184773e+002, 7.823735e-002
4.204057e+002, 7.463270e-002
4.223342e+002, 7.380709e-002
4.242627e+002, 7.386942e-002
4.261911e+002, 7.234335e-002
4.281196e+002, 7.199819e-002
4.300481e+002, 7.153158e-002
4.319765e+002, 6.873814e-002
4.339050e+002, 6.482419e-002
4.358335e+002, 6.291518e-002
4.377619e+002, 6.099940e-002
4.396904e+002, 5.901485e-002
4.416189e+002, 5.594191e-002
4.435473e+002, 5.403054e-002
4.454758e+002, 5.214060e-002
4.474043e+002, 4.944253e-002
4.493327e+002, 4.756235e-002
4.512612e+002, 4.656241e-002
4.531897e+002, 4.580045e-002
4.551181e+002, 4.645741e-002
4.570466e+002, 4.683349e-002
4.589751e+002, 4.838787e-002
4.609035e+002, 4.922334e-002
4.628320e+002, 5.031085e-002
4.647605e+002, 5.183499e-002
4.666889e+002, 5.229655e-002
4.686174e+002, 5.202467e-002
4.705459e+002, 5.120638e-002
4.724743e+002, 4.975864e-002
4.744028e+002, 4.773080e-002
4.763313e+002, 4.593700e-002
4.782597e+002, 4.404124e-002
4.801882e+002, 4.227480e-002
4.821167e+002, 4.100799e-002
4.840451e+002, 3.931098e-002
4.859736e+002, 3.826918e-002
4.879021e+002, 3.742654e-002
4.898305e+002, 3.702226e-002
4.917590e+002, 3.716381e-002
4.936875e+002, 3.734385e-002
4.956159e+002, 3.789585e-002
4.975444e+002, 3.899103e-002
4.994729e+002, 4.055781e-002
5.014013e+002, 4.230898e-002
5.033298e+002, 4.396808e-002
5.052583e+002, 4.539404e-002
5.071867e+002, 4.702260e-002
5.091152e+002, 4.905498e-002
5.110437e+002, 5.119473e-002
5.129721e+002, 5.272086e-002
5.149006e+002, 5.411290e-002
5.168290e+002, 5.624463e-002
5.187575e+002, 5.861274e-002
5.206860e+002, 6.101283e-002
5.226144e+002, 6.386498e-002
5.245429e+002, 6.613971e-002
5.264714e+002, 6.851020e-002
5.283998e+002, 7.128414e-002
5.303283e+002, 7.427629e-002
5.322568e+002, 7.804342e-002
5.341852e+002, 8.123429e-002
5.361137e+002, 8.391234e-002
5.380422e+002, 8.561284e-002
5.399706e+002, 8.538380e-002
5.418991e+002, 8.376861e-002
5.438276e+002, 8.054679e-002
5.457560e+002, 7.722529e-002
5.476845e+002, 7.458372e-002
5.496130e+002, 7.284106e-002
5.515414e+002, 7.181549e-002
5.534699e+002, 7.215108e-002
5.553984e+002, 7.281454e-002
5.573268e+002, 7.364871e-002
5.592553e+002, 7.463241e-002
5.611838e+002, 7.592289e-002
5.631122e+002, 7.761707e-002
5.650407e+002, 7.980310e-002
5.669692e+002, 8.212649e-002
5.688976e+002, 8.431702e-002
5.708261e+002, 8.602951e-002
5.727546e+002, 8.698338e-002
5.746830e+002, 8.749183e-002
5.766115e+002, 8.787040e-002
5.785400e+002, 8.753020e-002
5.804684e+002, 8.634619e-002
5.823969e+002, 8.464345e-002
5.843254e+002, 8.286083e-002
5.862538e+002, 8.120634e-002
5.881823e+002, 7.993479e-002
5.901108e+002, 7.869285e-002
5.920392e+002, 7.662079e-002
5.939677e+002, 7.475766e-002
5.958962e+002, 7.327618e-002
5.978246e+002, 7.165907e-002
5.997531e+002, 7.011395e-002
6.016816e+002, 6.899906e-002
6.036100e+002, 6.798665e-002
6.055385e+002, 6.697922e-002
6.074670e+002, 6.565262e-002
6.093954e+002, 6.386399e-002
6.113239e+002, 6.259888e-002
6.132524e+002, 6.182701e-002
6.151808e+002, 6.119872e-002
6.171093e+002, 6.063290e-002
6.190378e+002, 6.050818e-002
6.209662e+002, 6.091410e-002
6.228947e+002, 6.142082e-002
6.248232e+002, 6.141093e-002
6.267516e+002, 6.113292e-002
6.286801e+002, 6.028787e-002
6.306086e+002, 5.925873e-002
6.325370e+002, 5.749488e-002
6.344655e+002, 5.522110e-002
6.363940e+002, 5.289351e-002
6.383224e+002, 5.024602e-002
6.402509e+002, 4.749751e-002
6.421794e+002, 4.492710e-002
6.441078e+002, 4.221763e-002
6.460363e+002, 3.986244e-002
6.479648e+002, 3.767333e-002
6.498932e+002, 3.570798e-002
6.518217e+002, 3.420340e-002
6.537502e+002, 3.322481e-002
6.556786e+002, 3.233078e-002
6.576071e+002, 3.205048e-002
6.595356e+002, 3.169305e-002
6.614641e+002, 3.144925e-002
6.633925e+002, 3.131607e-002
6.653210e+002, 3.109835e-002
6.672495e+002, 3.101831e-002
6.691779e+002, 3.115917e-002
6.711064e+002, 3.164425e-002
6.730349e+002, 3.214848e-002
6.749633e+002, 3.247488e-002
6.768918e+002, 3.295014e-002
6.788203e+002, 3.324408e-002
6.807487e+002, 3.326844e-002
6.826772e+002, 3.334800e-002
6.846057e+002, 3.338360e-002
6.865341e+002, 3.302849e-002
6.884626e+002, 3.299011e-002
6.903911e+002, 3.279557e-002
6.923195e+002, 3.266390e-002
6.942480e+002, 3.282713e-002
6.961765e+002, 3.307682e-002
6.981049e+002, 3.331513e-002
7.000334e+002, 3.384202e-002
7.019619e+002, 3.425702e-002
7.038903e+002, 3.450942e-002
7.058188e+002, 3.487042e-002
7.077473e+002, 3.546132e-002
7.096757e+002, 3.600169e-002
7.116042e+002, 3.653310e-002
7.135327e+002, 3.699198e-002
7.154611e+002, 3.746615e-002
7.173896e+002, 3.799818e-002
7.193181e+002, 3.872430e-002
7.212465e+002, 3.931242e-002
7.231750e+002, 3.962216e-002
7.251035e+002, 3.985031e-002
7.270319e+002, 4.026967e-002
7.289604e+002, 4.054479e-002
7.308889e+002, 4.100342e-002
7.328173e+002, 4.129556e-002
7.347458e+002, 4.134792e-002
7.366743e+002, 4.145227e-002
7.386027e+002, 4.189364e-002
7.405312e+002, 4.227433e-002
7.424597e+002, 4.241414e-002
7.443881e+002, 4.251114e-002
7.463166e+002, 4.270248e-002
7.482451e+002, 4.257340e-002
7.501735e+002, 4.234217e-002
7.521020e+002, 4.183527e-002
7.540305e+002, 4.118924e-002
7.559589e+002, 4.070519e-002
7.578874e+002, 4.035585e-002
7.598159e+002, 3.964463e-002
7.617443e+002, 3.898887e-002
7.636728e+002, 3.832163e-002
7.656013e+002, 3.773807e-002
7.675297e+002, 3.742039e-002
7.694582e+002, 3.704110e-002
7.713867e+002, 3.666122e-002
7.733151e+002, 3.633392e-002
7.752436e+002, 3.598784e-002
7.771721e+002, 3.582243e-002
7.791005e+002, 3.519468e-002
7.810290e+002, 3.447783e-002
7.829575e+002, 3.377776e-002
7.848859e+002, 3.292720e-002
7.868144e+002, 3.159513e-002
7.887429e+002, 3.049154e-002
7.906713e+002, 2.941055e-002
7.925998e+002, 2.854714e-002
7.945283e+002, 2.766268e-002
7.964567e+002, 2.682579e-002
7.983852e+002, 2.637379e-002
8.003137e+002, 2.603060e-002
8.022421e+002, 2.537701e-002
8.041706e+002, 2.498642e-002
8.060991e+002, 2.492018e-002
8.080275e+002, 2.500596e-002
8.099560e+002, 2.487920e-002
8.118845e+002, 2.484120e-002
8.138129e+002, 2.508161e-002
8.157414e+002, 2.564226e-002
8.176699e+002, 2.623081e-002
8.195983e+002, 2.703658e-002
8.215268e+002, 2.789223e-002
8.234553e+002, 2.896077e-002
8.253837e+002, 3.004055e-002
8.273122e+002, 3.112688e-002
8.292407e+002, 3.214342e-002
8.311691e+002, 3.352113e-002
8.330976e+002, 3.495864e-002
8.350261e+002, 3.643425e-002
8.369545e+002, 3.788840e-002
8.388830e+002, 3.935053e-002
8.408115e+002, 4.075053e-002
8.427399e+002, 4.243257e-002
8.446684e+002, 4.385772e-002
8.465969e+002, 4.534111e-002
8.485253e+002, 4.710849e-002
8.504538e+002, 4.868625e-002
8.523823e+002, 5.005525e-002
8.543107e+002, 5.202072e-002
8.562392e+002, 5.414211e-002
8.581677e+002, 5.603826e-002
8.600961e+002, 5.763666e-002
8.620246e+002, 5.941749e-002
8.639531e+002, 6.146185e-002
8.658815e+002, 6.362251e-002
8.678100e+002, 6.581253e-002
8.697385e+002, 6.829231e-002
8.716669e+002, 7.091573e-002
8.735954e+002, 7.357857e-002
8.755239e+002, 7.619537e-002
8.774523e+002, 7.908468e-002
8.793808e+002, 8.194498e-002
8.813093e+002, 8.500317e-002
8.832377e+002, 8.815756e-002
8.851662e+002, 9.143934e-002
8.870947e+002, 9.463368e-002
8.890231e+002, 9.792134e-002
8.909516e+002, 1.010467e-001
8.928801e+002, 1.042036e-001
8.948085e+002, 1.073080e-001
8.967370e+002, 1.099198e-001
8.986655e+002, 1.119820e-001
9.005939e+002, 1.141272e-001
9.025224e+002, 1.160554e-001
9.044509e+002, 1.178687e-001
9.063793e+002, 1.193456e-001
9.083078e+002, 1.208806e-001
9.102363e+002, 1.221237e-001
9.121647e+002, 1.230302e-001
9.140932e+002, 1.237907e-001
9.160217e+002, 1.244478e-001
9.179501e+002, 1.251625e-001
9.198786e+002, 1.258887e-001
9.218071e+002, 1.262944e-001
9.237355e+002, 1.262792e-001
9.256640e+002, 1.261363e-001
9.275925e+002, 1.264617e-001
9.295209e+002, 1.266962e-001
9.314494e+002, 1.268931e-001
9.333779e+002, 1.269120e-001
9.353063e+002, 1.269580e-001
9.372348e+002, 1.267441e-001
9.391633e+002, 1.265064e-001
9.410917e+002, 1.263262e-001
9.430202e+002, 1.262842e-001
9.449487e+002, 1.261539e-001
9.468771e+002, 1.257013e-001
9.488056e+002, 1.250603e-001
9.507341e+002, 1.245261e-001
9.526625e+002, 1.237999e-001
9.545910e+002, 1.232406e-001
9.565195e+002, 1.227844e-001
9.584479e+002, 1.224481e-001
9.603764e+002, 1.221849e-001
9.623049e+002, 1.219818e-001
9.642333e+002, 1.215639e-001
9.661618e+002, 1.215351e-001
9.680903e+002, 1.217657e-001
9.700187e+002, 1.218040e-001
9.719472e+002, 1.215030e-001
9.738757e+002, 1.211978e-001
9.758041e+002, 1.210679e-001
9.777326e+002, 1.211047e-001
9.796611e+002, 1.210089e-001
9.815895e+002, 1.210209e-001
9.835180e+002, 1.208096e-001
9.854465e+002, 1.205701e-001
9.873749e+002, 1.201529e-001
9.893034e+002, 1.197853e-001
9.912319e+002, 1.192102e-001
9.931603e+002, 1.187196e-001
9.950888e+002, 1.180600e-001
9.970173e+002, 1.170459e-001
9.989457e+002, 1.159748e-001
1.000874e+003, 1.151154e-001
1.002803e+003, 1.137240e-001
1.004731e+003, 1.122528e-001
1.006660e+003, 1.109044e-001
1.008588e+003, 1.094864e-001
1.010517e+003, 1.077582e-001
1.012445e+003, 1.061487e-001
1.014373e+003, 1.045502e-001
1.016302e+003, 1.028897e-001
1.018230e+003, 1.016180e-001
1.020159e+003, 1.004459e-001
1.022087e+003, 9.891222e-002
1.024016e+003, 9.744776e-002
1.025944e+003, 9.594420e-002
1.027873e+003, 9.488977e-002
1.029801e+003, 9.386452e-002
1.031730e+003, 9.232820e-002
1.033658e+003, 9.073436e-002
1.035587e+003, 8.941308e-002
1.037515e+003, 8.809450e-002
1.039443e+003, 8.678683e-002
1.041372e+003, 8.540006e-002
1.043300e+003, 8.407643e-002
1.045229e+003, 8.262136e-002
1.047157e+003, 8.156708e-002
1.049086e+003, 8.052688e-002
1.051014e+003, 7.933787e-002
1.052943e+003, 7.827863e-002
1.054871e+003, 7.724106e-002
1.056800e+003, 7.625903e-002
1.058728e+003, 7.551557e-002
1.060657e+003, 7.475554e-002
1.062585e+003, 7.412719e-002
1.064514e+003, 7.346032e-002
1.066442e+003, 7.294251e-002
1.068370e+003, 7.255752e-002
1.070299e+003, 7.228424e-002
1.072227e+003, 7.205614e-002
1.074156e+003, 7.187154e-002
1.076084e+003, 7.180204e-002
1.078013e+003, 7.209061e-002
1.079941e+003, 7.227634e-002
1.081870e+003, 7.266299e-002
1.083798e+003, 7.320005e-002
1.085727e+003, 7.372901e-002
1.087655e+003, 7.401178e-002
1.089584e+003, 7.436572e-002
1.091512e+003, 7.448317e-002
1.093441e+003, 7.468010e-002
1.095369e+003, 7.472202e-002
1.097297e+003, 7.449733e-002
1.099226e+003, 7.380365e-002
1.101154e+003, 7.321469e-002
1.103083e+003, 7.285768e-002
1.105011e+003, 7.261208e-002
1.106940e+003, 7.195847e-002
1.108868e+003, 7.113332e-002
1.110797e+003, 7.026424e-002
1.112725e+003, 6.951214e-002
1.114654e+003, 6.885123e-002
1.116582e+003, 6.831967e-002
1.118511e+003, 6.749370e-002
1.120439e+003, 6.683490e-002
1.122368e+003, 6.630252e-002
1.124296e+003, 6.592054e-002
1.126224e+003, 6.542050e-002
1.128153e+003, 6.492503e-002
1.130081e+003, 6.420041e-002
1.132010e+003, 6.364809e-002
1.133938e+003, 6.314839e-002
1.135867e+003, 6.275810e-002
1.137795e+003, 6.218052e-002
1.139724e+003, 6.150223e-002
1.141652e+003, 6.070250e-002
1.143581e+003, 6.007278e-002
1.145509e+003, 5.914183e-002
1.147438e+003, 5.821566e-002
1.149366e+003, 5.715490e-002
1.151295e+003, 5.611701e-002
1.153223e+003, 5.477387e-002
1.155151e+003, 5.340195e-002
1.157080e+003, 5.197506e-002
1.159008e+003, 5.035130e-002
1.160937e+003, 4.861663e-002
1.162865e+003, 4.689602e-002
1.164794e+003, 4.526410e-002
1.166722e+003, 4.355149e-002
1.168651e+003, 4.184463e-002
1.170579e+003, 4.031587e-002
1.172508e+003, 3.857104e-002
1.174436e+003, 3.679965e-002
1.176365e+003, 3.503840e-002
1.178293e+003, 3.333881e-002
1.180222e+003, 3.163909e-002
1.182150e+003, 3.010453e-002
1.184078e+003, 2.860876e-002
1.186007e+003, 2.697985e-002
1.187935e+003, 2.518932e-002
1.189864e+003, 2.339558e-002
1.191792e+003, 2.171855e-002
1.193721e+003, 2.017635e-002
1.195649e+003, 1.844933e-002
1.197578e+003, 1.693252e-002
1.199506e+003, 1.541962e-002
1.201435e+003, 1.384114e-002
1.203363e+003, 1.230498e-002
1.205292e+003, 1.115723e-002
1.207220e+003, 9.994276e-003
1.209149e+003, 8.877475e-003
1.211077e+003, 7.935217e-003
1.213005e+003, 7.094787e-003
1.214934e+003, 6.247079e-003
1.216862e+003, 5.502289e-003
1.218791e+003, 4.842781e-003
1.220719e+003, 4.475041e-003
1.222648e+003, 4.183261e-003
1.224576e+003, 3.774804e-003
1.226505e+003, 3.230094e-003
1.228433e+003, 2.827256e-003
1.230362e+003, 2.593962e-003
1.232290e+003, 2.402312e-003
1.234219e+003, 2.116586e-003
1.236147e+003, 1.965631e-003
1.238076e+003, 1.775590e-003
1.240004e+003, 1.603066e-003
1.241932e+003, 1.393335e-003
1.243861e+003, 1.303609e-003
1.245789e+003, 1.026733e-003
1.247718e+003, 7.080710e-004
1.249646e+003, 6.506270e-004
1.251575e+003, 7.161562e-004
1.253503e+003, 6.777938e-004
1.255432e+003, 5.521122e-004
1.257360e+003, 4.030147e-004
1.259289e+003, 4.426761e-004
1.261217e+003, 2.402571e-004
1.263146e+003, -3.461143e-005
1.265074e+003, -9.489193e-005
1.267003e+003, -6.363938e-005
1.268931e+003, -1.482721e-004
1.270859e+003, -2.070939e-004
1.272788e+003, -2.238069e-004
1.274716e+003, -1.263572e-004
1.276645e+003, -2.329417e-004
1.278573e+003, -3.010438e-004
1.280502e+003, -3.299935e-004
1.282430e+003, -2.503072e-004
1.284359e+003, -2.068689e-004
1.286287e+003, -2.059440e-004
1.288216e+003, -3.655526e-004
1.290144e+003, -3.543090e-004
1.292073e+003, -3.177004e-004
1.294001e+003, -2.859067e-004
1.295930e+003, -4.210349e-004
1.297858e+003, -4.155595e-004
1.299786e+003, -4.064509e-004
1.301715e+003, -5.410360e-004
1.303643e+003, -6.954868e-004
1.305572e+003, -6.283761e-004
1.307500e+003, -4.344911e-004
1.309429e+003, -2.513268e-004
1.311357e+003, -2.630324e-004
1.313286e+003, -2.856879e-004
1.315214e+003, -4.002577e-004
1.317143e+003, -4.338577e-004
1.319071e+003, -4.260640e-004
1.321000e+003, -5.145488e-004
1.322928e+003, -4.734308e-004
1.324857e+003, -3.647633e-004
1.326785e+003, -4.425248e-004
1.328714e+003, -5.433728e-004
1.330642e+003, -6.884008e-004
1.332570e+003, -6.774911e-004
1.334499e+003, -5.533369e-004
1.336427e+003, -3.893229e-004
1.338356e+003, -3.050145e-004
1.340284e+003, -2.493921e-004
1.342213e+003, -3.194949e-004
1.344141e+003, -2.398261e-004
1.346070e+003, -2.008025e-004
1.347998e+003, -2.560063e-004
1.349927e+003, -3.674191e-004
1.351855e+003, -3.614531e-004
1.353784e+003, -4.760468e-004
1.355712e+003, -5.808014e-004
1.357641e+003, -5.636513e-004
1.359569e+003, -3.916526e-004
1.361497e+003, -1.359517e-004
1.363426e+003, -7.977511e-005
1.365354e+003, -1.580465e-004
1.367283e+003, -2.057333e-004
1.369211e+003, -3.325869e-004
1.371140e+003, -2.300202e-004
1.373068e+003, -1.739941e-004
1.374997e+003, -1.972843e-004
1.376925e+003, -3.915916e-004
1.378854e+003, -2.635102e-004
1.380782e+003, -1.843477e-004
1.382711e+003, -1.904677e-004
1.384639e+003, -2.495741e-004
1.386568e+003, -3.459377e-005
1.388496e+003, 8.143203e-006
1.390424e+003, 4.625643e-005
1.392353e+003, -6.043560e-006
1.394281e+003, 8.413272e-005
1.396210e+003, 1.644840e-004
1.398138e+003, 2.971148e-004
1.400067e+003, 1.856342e-004
1.401995e+003, 8.864023e-005
1.403924e+003, 1.943818e-004
1.405852e+003, 2.690212e-004
1.407781e+003, 2.648636e-004
1.409709e+003, 3.669653e-004
1.411638e+003, 3.631616e-004
1.413566e+003, 3.069069e-004
1.415495e+003, 3.674857e-004
1.417423e+003, 5.288175e-004
1.419351e+003, 5.337262e-004
1.421280e+003, 3.939152e-004
1.423208e+003, 4.674519e-004
1.425137e+003, 5.492296e-004
1.427065e+003, 4.705642e-004
1.428994e+003, 5.411907e-004
1.430922e+003, 5.192386e-004
1.432851e+003, 6.492899e-004
1.434779e+003, 7.173640e-004
1.436708e+003, 8.331487e-004
1.438636e+003, 6.921387e-004
1.440565e+003, 4.724360e-004
1.442493e+003, 3.750211e-004
1.444422e+003, 4.623018e-004
1.446350e+003, 4.475724e-004
1.448278e+003, 4.475449e-004
1.450207e+003, 4.646344e-004
1.452135e+003, 5.518812e-004
1.454064e+003, 6.410097e-004
1.455992e+003, 1.077603e-003
1.457921e+003, 1.019030e-003
1.459849e+003, 5.430002e-004
1.461778e+003, 2.954229e-004
1.463706e+003, 2.896020e-004
1.465635e+003, 1.431781e-004
1.467563e+003, -7.731534e-006
1.469492e+003, 5.068850e-005
1.471420e+003, 4.522079e-004
1.473349e+003, 5.539822e-004
1.475277e+003, 4.854832e-004
1.477205e+003, 4.229821e-004
1.479134e+003, 4.427100e-004
1.481062e+003, 3.692865e-004
1.482991e+003, 2.305943e-004
1.484919e+003, 1.040693e-004
1.486848e+003, 2.721494e-004
1.488776e+003, 4.153864e-004
1.490705e+003, 4.323831e-004
1.492633e+003, 3.200656e-004
1.494562e+003, 5.673608e-004
1.496490e+003, 6.441277e-004
1.498419e+003, 4.767024e-004
1.500347e+003, 2.994378e-004
1.502276e+003, 2.911577e-004
1.504204e+003, 5.845898e-004
1.506132e+003, 1.104265e-003
1.508061e+003, 8.472581e-004
1.509989e+003, 3.933699e-004
1.511918e+003, 2.395023e-004
1.513846e+003, 1.667023e-004
1.515775e+003, 2.431780e-004
1.517703e+003, 3.204102e-004
1.519632e+003, 4.823929e-004
1.521560e+003, 6.953930e-004
1.523489e+003, 4.464889e-004
1.525417e+003, 4.507968e-004
1.527346e+003, 3.719148e-004
1.529274e+003, 3.661991e-004
1.531203e+003, 2.863588e-004
1.533131e+003, 3.728153e-004
1.535059e+003, 2.719676e-004
1.536988e+003, 4.157416e-004
1.538916e+003, 9.578802e-004
1.540845e+003, 1.047691e-003
1.542773e+003, 6.794512e-004
1.544702e+003, 5.219032e-004
1.546630e+003, 2.319287e-004
1.548559e+003, 1.288004e-004
1.550487e+003, 3.006044e-004
1.552416e+003, 5.497340e-004
1.554344e+003, 7.031067e-004
1.556273e+003, 9.737439e-004
1.558201e+003, 1.408265e-003
1.560130e+003, 1.221478e-003
1.562058e+003, 4.923387e-004
1.563986e+003, 3.167013e-004
1.565915e+003, 3.961023e-004
1.567843e+003, 5.359607e-004
1.569772e+003, 6.654654e-004
1.571700e+003, 5.336310e-004
1.573629e+003, 5.223886e-004
1.575557e+003, 9.719562e-004
1.577486e+003, 8.216303e-004
1.579414e+003, 4.974426e-004
1.581343e+003, 3.649322e-004
1.583271e+003, 3.916217e-004
1.585200e+003, 4.367185e-004
1.587128e+003, 3.821049e-004
1.589057e+003, 4.903103e-004
1.590985e+003, 7.754621e-004
1.592913e+003, 8.208410e-004
1.594842e+003, 8.135286e-004
1.596770e+003, 5.345712e-004
1.598699e+003, 4.262324e-004
1.600627e+003, 5.811380e-004
1.602556e+003, 6.755365e-004
1.604484e+003, 6.637908e-004
1.606413e+003, 6.921870e-004
1.608341e+003, 6.996861e-004
1.610270e+003, 7.331048e-004
1.612198e+003, 8.369826e-004
1.614127e+003, 1.043793e-003
1.616055e+003, 1.357268e-003
1.617984e+003, 1.284659e-003
1.619912e+003, 9.937284e-004
1.621840e+003, 1.126069e-003
1.623769e+003, 9.907605e-004
1.625697e+003, 8.126039e-004
1.627626e+003, 6.930681e-004
1.629554e+003, 7.562620e-004
1.631483e+003, 8.630687e-004
1.633411e+003, 1.293492e-003
1.635340e+003, 1.499700e-003
1.637268e+003, 1.207964e-003
1.639197e+003, 9.184854e-004
1.641125e+003, 8.267938e-004
1.643054e+003, 7.937011e-004
1.644982e+003, 1.150707e-003
1.646911e+003, 1.063518e-003
1.648839e+003, 6.905077e-004
1.650767e+003, 9.331293e-004
1.652696e+003, 1.702550e-003
1.654624e+003, 1.343740e-003
1.656553e+003, 8.189051e-004
1.658481e+003, 6.505429e-004
1.660410e+003, 7.153437e-004
1.662338e+003, 7.720832e-004
1.664267e+003, 7.500701e-004
1.666195e+003, 6.793192e-004
1.668124e+003, 8.724357e-004
1.670052e+003, 6.551369e-004
1.671981e+003, 4.351270e-004
1.673909e+003, 4.957342e-004
1.675838e+003, 6.715233e-004
1.677766e+003, 3.882409e-004
1.679694e+003, 3.446419e-004
1.681623e+003, 5.950980e-004
1.683551e+003, 1.234121e-003
1.685480e+003, 1.043179e-003
1.687408e+003, 5.527175e-004
1.689337e+003, 4.336511e-004
1.691265e+003, 4.284268e-004
1.693194e+003, 4.382338e-004
1.695122e+003, 8.850379e-004
1.697051e+003, 9.720727e-004
1.698979e+003, 9.786452e-004
1.700908e+003, 7.073489e-004
1.702836e+003, 2.064763e-004
1.704765e+003, 2.317407e-004
1.706693e+003, 1.697814e-004
1.708621e+003, 1.092649e-005
1.710550e+003, -2.010643e-004
1.712478e+003, -4.145501e-004
1.714407e+003, 4.061684e-005
1.716335e+003, 5.011285e-004
1.718264e+003, 2.834094e-004
1.720192e+003, -2.362149e-004
1.722121e+003, -4.366731e-004
1.724049e+003, -3.410711e-004
1.725978e+003, -4.019853e-004
1.727906e+003, -5.894693e-004
1.729835e+003, -3.154606e-004
1.731763e+003, -6.328782e-005
1.733692e+003, 7.835797e-005
1.735620e+003, -4.186002e-004
1.737548e+003, -6.565533e-004
1.739477e+003, -6.305041e-004
1.741405e+003, -8.107667e-004
1.743334e+003, -9.555015e-004
1.745262e+003, -9.647595e-004
1.747191e+003, -8.789203e-004
1.749119e+003, -7.429144e-004
1.751048e+003, -6.136544e-004
1.752976e+003, -6.734669e-004
1.754905e+003, -7.074378e-004
1.756833e+003, -8.167865e-004
1.758762e+003, -9.142518e-004
1.760690e+003, -8.111786e-004
1.762619e+003, -7.270599e-004
1.764547e+003, -6.162822e-004
1.766475e+003, -6.305237e-004
1.768404e+003, -6.740667e-004
1.770332e+003, -5.475559e-004
1.772261e+003, -6.194939e-005
1.774189e+003, -5.187299e-004
1.776118e+003, -1.118926e-003
1.778046e+003, -1.276550e-003
1.779975e+003, -1.123417e-003
1.781903e+003, -9.289939e-004
1.783832e+003, -6.829000e-004
1.785760e+003, -6.340372e-004
1.787689e+003, -6.759727e-004
1.789617e+003, -8.909639e-004
1.791546e+003, -7.591553e-004
1.793474e+003, -5.499628e-004
1.795402e+003, -6.766904e-004
1.797331e+003, -9.616621e-004
1.799259e+003, -1.043966e-003
1.801188e+003, -1.008609e-003
1.803116e+003, -9.925042e-004
1.805045e+003, -9.552164e-004
1.806973e+003, -8.058867e-004
1.808902e+003, -9.713251e-004
1.810830e+003, -1.125037e-003
1.812759e+003, -1.320840e-003
1.814687e+003, -1.480581e-003
1.816616e+003, -1.529255e-003
1.818544e+003, -1.211054e-003
1.820473e+003, -1.289968e-003
1.822401e+003, -1.484765e-003
1.824329e+003, -1.377004e-003
1.826258e+003, -1.412829e-003
1.828186e+003, -1.390315e-003
1.830115e+003, -1.131932e-003
1.832043e+003, -1.336892e-003
1.833972e+003, -1.464775e-003
1.835900e+003, -1.311649e-003
1.837829e+003, -1.245056e-003
1.839757e+003, -1.699910e-003
1.841686e+003, -1.322728e-003
1.843614e+003, -8.847138e-004
1.845543e+003, -8.500884e-004
1.847471e+003, -1.361716e-003
1.849400e+003, -1.504132e-003
1.851328e+003, -1.682076e-003
1.853256e+003, -1.513398e-003
1.855185e+003, -1.432876e-003
1.857113e+003, -1.274770e-003
1.859042e+003, -1.359852e-003
1.860970e+003, -1.651394e-003
1.862899e+003, -2.063314e-003
1.864827e+003, -1.988592e-003
1.866756e+003, -1.805955e-003
1.868684e+003, -1.555413e-003
1.870613e+003, -1.781856e-003
1.872541e+003, -2.383122e-003
1.874470e+003, -2.491960e-003
1.876398e+003, -2.114420e-003
1.878327e+003, -2.054329e-003
1.880255e+003, -1.900007e-003
1.882183e+003, -1.856535e-003
1.884112e+003, -1.685012e-003
1.886040e+003, -2.320542e-003
1.887969e+003, -2.431946e-003
1.889897e+003, -2.171289e-003
1.891826e+003, -2.408790e-003
1.893754e+003, -2.602919e-003
1.895683e+003, -2.350632e-003
1.897611e+003, -2.624203e-003
1.899540e+003, -2.704098e-003
1.901468e+003, -2.587144e-003
1.903397e+003, -2.277748e-003
1.905325e+003, -2.436805e-003
1.907254e+003, -2.615867e-003
1.909182e+003, -2.368633e-003
1.911110e+003, -2.331182e-003
1.913039e+003, -2.615209e-003
1.914967e+003, -2.555920e-003
1.916896e+003, -2.656000e-003
1.918824e+003, -2.873552e-003
1.920753e+003, -3.632229e-003
1.922681e+003, -3.333707e-003
1.924610e+003, -2.979125e-003
1.926538e+003, -2.994704e-003
1.928467e+003, -3.252787e-003
1.930395e+003, -3.496907e-003
1.932324e+003, -4.447392e-003
1.934252e+003, -3.876983e-003
1.936181e+003, -3.589605e-003
1.938109e+003, -3.896603e-003
1.940037e+003, -4.394295e-003
1.941966e+003, -4.187339e-003
1.943894e+003, -3.378122e-003
1.945823e+003, -3.517407e-003
1.947751e+003, -4.797465e-003
1.949680e+003, -4.371664e-003
1.951608e+003, -4.052724e-003
1.953537e+003, -5.145176e-003
1.955465e+003, -6.070365e-003
1.957394e+003, -6.309427e-003
1.959322e+003, -5.252554e-003
1.961251e+003, -4.358817e-003
1.963179e+003, -4.963133e-003
1.965108e+003, -4.841121e-003
1.967036e+003, -5.734822e-003
1.968964e+003, -7.374840e-003
1.970893e+003, -8.195753e-003
1.972821e+003, -7.328366e-003
1.974750e+003, -6.237091e-003
1.976678e+003, -4.890530e-003
1.978607e+003, -3.891947e-003
1.980535e+003, -3.561073e-003
1.982464e+003, -4.370411e-003
1.984392e+003, -4.382055e-003
1.986321e+003, -5.005999e-003
1.988249e+003, -3.899634e-003
1.990178e+003, -3.369094e-003
1.992106e+003, -4.371966e-003
1.994035e+003, -5.764904e-003
1.995963e+003, -5.398234e-003
1.997891e+003, -5.085450e-003
1.999820e+003, -6.449490e-003
2.001748e+003, -7.007442e-003
2.003677e+003, -6.673987e-003
2.005605e+003, -5.712604e-003
2.007534e+003, -3.727620e-003
2.009462e+003, -4.872903e-003
2.011391e+003, -6.719188e-003
2.013319e+003, -6.842331e-003
2.015248e+003, -5.614425e-003
2.017176e+003, -5.447444e-003
2.019105e+003, -5.949375e-003
2.021033e+003, -6.459486e-003
2.022962e+003, -5.730512e-003
2.024890e+003, -5.492419e-003
2.026818e+003, -5.201862e-003
2.028747e+003, -5.617673e-003
2.030675e+003, -4.556132e-003
2.032604e+003, -5.372915e-003
2.034532e+003, -6.181880e-003
2.036461e+003, -5.541713e-003
2.038389e+003, -4.036594e-003
2.040318e+003, -4.149732e-003
2.042246e+003, -4.262373e-003
2.044175e+003, -3.684834e-003
2.046103e+003, -2.786513e-003
2.048031e+003, -1.867421e-003
2.049960e+003, -1.287008e-003
2.051888e+003, -2.868988e-003
2.053817e+003, -4.542415e-003
2.055745e+003, -3.935116e-003
2.057674e+003, -3.227496e-003
2.059602e+003, -3.177773e-003
2.061531e+003, -2.903091e-003
2.063459e+003, -3.194439e-003
2.065388e+003, -2.805440e-003
2.067316e+003, -2.286550e-003
2.069245e+003, -2.427628e-003
2.071173e+003, -2.142668e-003
2.073102e+003, -1.291775e-003
2.075030e+003, -2.044617e-003
2.076958e+003, -2.184973e-003
2.078887e+003, -2.010434e-003
2.080815e+003, -1.583681e-003
2.082744e+003, -1.261167e-003
2.084672e+003, -1.361674e-003
2.086601e+003, -2.287824e-003
2.088529e+003, -2.631072e-003
2.090458e+003, -2.742976e-003
2.092386e+003, -2.437385e-003
2.094315e+003, -2.390846e-003
2.096243e+003, -2.929526e-003
2.098172e+003, -3.190152e-003
2.100100e+003, -2.967999e-003
2.102029e+003, -2.751954e-003
2.103957e+003, -2.220473e-003
2.105885e+003, -2.390552e-003
2.107814e+003, -2.391641e-003
2.109742e+003, -2.021686e-003
2.111671e+003, -1.704448e-003
2.113599e+003, -2.381627e-003
2.115528e+003, -2.515114e-003
2.117456e+003, -2.566412e-003
2.119385e+003, -2.680029e-003
2.121313e+003, -2.690865e-003
2.123242e+003, -2.625657e-003
2.125170e+003, -2.886847e-003
2.127099e+003, -3.304617e-003
2.129027e+003, -4.666630e-003
2.130956e+003, -5.438954e-003
2.132884e+003, -5.778125e-003
2.134813e+003, -5.025686e-003
2.136741e+003, -4.907573e-003
2.138669e+003, -4.396927e-003
2.140598e+003, -4.422164e-003
2.142526e+003, -4.773569e-003
2.144455e+003, -5.711775e-003
2.146383e+003, -5.638785e-003
2.148312e+003, -5.168695e-003
2.150240e+003, -5.786893e-003
2.152169e+003, -6.868651e-003
2.154097e+003, -7.048467e-003
2.156026e+003, -7.794032e-003
2.157954e+003, -7.842606e-003
2.159883e+003, -4.958794e-003
2.161811e+003, -2.058900e-003
2.163740e+003, -1.881586e-003
2.165668e+003, -1.963479e-003
2.167596e+003, -2.672367e-003
2.169525e+003, -3.401699e-003
2.171453e+003, -4.089416e-003
2.173382e+003, -3.346977e-003
2.175310e+003, -3.637332e-003
2.177239e+003, -3.918077e-003
2.179167e+003, -4.950499e-003
2.181096e+003, -4.212998e-003
2.183024e+003, -3.306888e-003
2.184953e+003, -3.129189e-003
2.186881e+003, -3.073562e-003
2.188810e+003, -3.383880e-003
2.190738e+003, -3.742567e-003
2.192667e+003, -2.865210e-003
2.194595e+003, -2.924077e-003
2.196523e+003, -2.272957e-003
2.198452e+003, -2.260564e-003
2.200380e+003, -2.942344e-003
2.202309e+003, -3.191835e-003
2.204237e+003, -3.123276e-003
2.206166e+003, -3.032430e-003
2.208094e+003, -1.592730e-003
2.210023e+003, -2.337833e-003
2.211951e+003, -3.544695e-003
2.213880e+003, -4.749636e-003
2.215808e+003, -5.221421e-003
2.217737e+003, -5.322864e-003
2.219665e+003, -3.386342e-003
2.221594e+003, -1.699138e-003
2.223522e+003, -1.866763e-003
2.225450e+003, -3.309953e-003
2.227379e+003, -3.017909e-003
2.229307e+003, -2.441039e-003
2.231236e+003, -2.534573e-003
2.233164e+003, -2.506873e-003
2.235093e+003, -1.792404e-003
2.237021e+003, -1.414253e-003
2.238950e+003, -2.123109e-003
2.240878e+003, -2.720722e-003
2.242807e+003, -2.406055e-003
2.244735e+003, -2.726736e-003
2.246664e+003, -2.419249e-003
2.248592e+003, -3.191363e-003
2.250521e+003, -2.941132e-003
2.252449e+003, -2.641576e-003
2.254377e+003, -2.102546e-003
2.256306e+003, -1.850815e-003
2.258234e+003, -1.958442e-003
2.260163e+003, -1.915118e-003
2.262091e+003, -1.524907e-003
2.264020e+003, -1.629638e-003
2.265948e+003, -1.376289e-003
2.267877e+003, -1.015850e-003
2.269805e+003, -5.277861e-004
2.271734e+003, -1.239075e-003
2.273662e+003, -1.461914e-003
2.275591e+003, -1.646992e-003
2.277519e+003, -1.789787e-003
2.279448e+003, -1.610419e-003
2.281376e+003, -1.114161e-003
2.283304e+003, -1.089029e-003
2.285233e+003, -1.003339e-003
2.287161e+003, -7.512136e-004
2.289090e+003, -2.262508e-004
2.291018e+003, -3.304101e-004
2.292947e+003, -9.073030e-005
2.294875e+003, -2.158711e-004
2.296804e+003, -4.575221e-004
2.298732e+003, -6.511864e-004
2.300661e+003, -6.900499e-004
2.302589e+003, -4.199294e-004
2.304518e+003, 2.343138e-005
2.306446e+003, -3.768570e-004
2.308375e+003, -2.256193e-004
2.310303e+003, 5.012963e-004
2.312231e+003, 7.211209e-004
2.314160e+003, 3.741802e-004
2.316088e+003, 6.847731e-004
2.318017e+003, 6.589825e-004
2.319945e+003, 1.108772e-003
2.321874e+003, 1.798864e-003
2.323802e+003, 1.771280e-003
2.325731e+003, 7.838744e-004
2.327659e+003, 3.972818e-004
2.329588e+003, 3.536751e-004
2.331516e+003, 5.215276e-004
2.333445e+003, 5.989339e-004
2.335373e+003, 7.608015e-004
2.337302e+003, 6.609915e-004
2.339230e+003, 8.760308e-005
2.341158e+003, -2.916956e-004
2.343087e+003, -2.433465e-004
2.345015e+003, -3.374591e-004
2.346944e+003, -1.913420e-004
2.348872e+003, -1.027859e-004
2.350801e+003, 2.557127e-005
2.352729e+003, 7.962029e-005
2.354658e+003, 4.453066e-004
2.356586e+003, 1.116851e-003
2.358515e+003, 1.186380e-003
2.360443e+003, 6.418825e-004
2.362372e+003, 3.509238e-004
2.364300e+003, 2.165863e-004
2.366229e+003, 8.141968e-005
2.368157e+003, -1.647345e-004
2.370085e+003, -6.443645e-005
2.372014e+003, -3.753451e-004
2.373942e+003, -6.542788e-004
2.375871e+003, -8.288199e-004
2.377799e+003, -1.301727e-003
2.379728e+003, -1.640021e-003
2.381656e+003, -1.599746e-003
2.383585e+003, -1.188694e-003
2.385513e+003, -6.346306e-004
2.387442e+003, -1.154504e-003
2.389370e+003, -1.527847e-003
2.391299e+003, -1.208127e-003
2.393227e+003, -8.862844e-004
2.395156e+003, -7.816093e-004
2.397084e+003, -2.212025e-004
2.399012e+003, -2.264654e-004
2.400941e+003, -5.354416e-004
2.402869e+003, -7.941454e-004
2.404798e+003, -1.071508e-003
2.406726e+003, -1.060655e-003
2.408655e+003, -6.160448e-004
2.410583e+003, -4.360333e-004
2.412512e+003, -6.572126e-004
2.414440e+003, -7.033877e-004
2.416369e+003, -8.526791e-004
2.418297e+003, -1.027243e-003
2.420226e+003, -9.243072e-004
2.422154e+003, -1.036415e-003
2.424083e+003, -6.641293e-004
2.426011e+003, -2.005449e-004
2.427939e+003, -3.850404e-004
2.429868e+003, -4.129893e-004
2.431796e+003, -7.026331e-006
2.433725e+003, -9.943675e-006
2.435653e+003, -2.608222e-005
2.437582e+003, -7.810238e-005
2.439510e+003, 9.849951e-005
2.441439e+003, -2.254454e-004
2.443367e+003, -2.613799e-004
2.445296e+003, -1.087621e-005
2.447224e+003, -4.974281e-005
2.449153e+003, -1.423466e-004
2.451081e+003, 2.486783e-004
2.453010e+003, 2.994843e-004
2.454938e+003, 9.915100e-006
2.456866e+003, -5.124546e-004
2.458795e+003, -2.381129e-004
2.460723e+003, -1.934665e-005
2.462652e+003, -1.215572e-005
2.464580e+003, -1.493243e-004
2.466509e+003, -6.076688e-005
2.468437e+003, -5.335530e-004
2.470366e+003, -6.832845e-004
2.472294e+003, -1.066804e-004
2.474223e+003, 5.355059e-004
2.476151e+003, 2.305716e-004
2.478080e+003, 2.438768e-004
2.480008e+003, 1.864815e-004
2.481937e+003, 5.245574e-005
2.483865e+003, -2.400364e-004
2.485793e+003, -5.451445e-005
2.487722e+003, 2.764781e-004
2.489650e+003, 7.407006e-004
2.491579e+003, 5.803717e-004
2.493507e+003, 2.496293e-004
2.495436e+003, -3.065615e-005
2.497364e+003, 2.142788e-004
2.499293e+003, 2.127969e-004
2.501221e+003, 6.475929e-004
2.503150e+003, 5.590216e-004
2.505078e+003, 2.235842e-004
2.507007e+003, 4.109940e-004
2.508935e+003, 4.619849e-004
2.510864e+003, -2.784097e-004
2.512792e+003, -2.780093e-005
2.514720e+003, 7.788783e-005
2.516649e+003, -1.377082e-004
2.518577e+003, -3.219484e-004
2.520506e+003, -8.526409e-005
2.522434e+003, 1.685522e-004
2.524363e+003, 4.037905e-004
2.526291e+003, 3.927796e-004
2.528220e+003, 4.457644e-004
2.530148e+003, 7.733740e-004
2.532077e+003, 1.190687e-003
2.534005e+003, 6.324311e-004
2.535934e+003, 6.842310e-004
2.537862e+003, 8.873331e-004
2.539791e+003, 9.833660e-004
2.541719e+003, 7.114503e-004
2.543647e+003, 4.278887e-004
2.545576e+003, 4.300278e-004
2.547504e+003, 5.887831e-004
2.549433e+003, 1.030751e-003
2.551361e+003, 1.275619e-003
2.553290e+003, 4.670800e-004
2.555218e+003, 9.021360e-005
2.557147e+003, -1.363461e-004
2.559075e+003, -1.884122e-004
2.561004e+003, 2.764286e-005
2.562932e+003, 9.427584e-004
2.564861e+003, 1.095628e-003
2.566789e+003, 6.748795e-004
2.568718e+003, 2.464841e-004
2.570646e+003, 6.640691e-004
2.572574e+003, 6.454832e-004
2.574503e+003, 2.267387e-004
2.576431e+003, -4.273644e-005
2.578360e+003, 3.394214e-004
2.580288e+003, 2.802151e-004
2.582217e+003, 6.363105e-004
2.584145e+003, 7.460163e-004
2.586074e+003, 6.100468e-004
2.588002e+003, 6.497383e-004
2.589931e+003, 6.140870e-004
2.591859e+003, 4.544205e-004
2.593788e+003, 1.008235e-003
2.595716e+003, 1.247931e-003
2.597645e+003, 1.377103e-003
2.599573e+003, 1.251053e-003
2.601501e+003, 1.103052e-003
2.603430e+003, 1.177380e-003
2.605358e+003, 1.168239e-003
2.607287e+003, 1.171426e-003
2.609215e+003, 9.895412e-004
2.611144e+003, 8.391119e-004
2.613072e+003, 1.103315e-003
2.615001e+003, 9.420672e-004
2.616929e+003, 9.779216e-004
2.618858e+003, 1.330056e-003
2.620786e+003, 1.490344e-003
2.622715e+003, 1.193536e-003
2.624643e+003, 1.373470e-003
2.626572e+003, 1.286087e-003
2.628500e+003, 9.733004e-004
2.630428e+003, 7.919113e-004
2.632357e+003, 6.556027e-004
2.634285e+003, 4.772233e-004
2.636214e+003, 4.462712e-004
2.638142e+003, 4.033608e-004
2.640071e+003, 6.107658e-004
2.641999e+003, 9.704406e-004
2.643928e+003, 1.312522e-003
2.645856e+003, 1.046689e-003
2.647785e+003, 9.955016e-004
2.649713e+003, 8.975386e-004
2.651642e+003, 9.121345e-004
2.653570e+003, 8.002630e-004
2.655499e+003, 7.842818e-004
2.657427e+003, 5.309669e-004
2.659355e+003, 5.420592e-004
2.661284e+003, 4.439034e-004
2.663212e+003, 9.254493e-005
2.665141e+003, 1.428738e-004
2.667069e+003, 5.647847e-004
2.668998e+003, 5.937505e-004
2.670926e+003, 5.450153e-004
2.672855e+003, 5.915795e-004
2.674783e+003, 5.438836e-004
2.676712e+003, 9.232152e-005
2.678640e+003, 1.629346e-004
2.680569e+003, 3.560407e-004
2.682497e+003, 3.898226e-004
2.684426e+003, -3.885476e-005
2.686354e+003, -4.378782e-005
2.688282e+003, -9.494885e-006
2.690211e+003, 1.492947e-004
2.692139e+003, 1.177465e-005
2.694068e+003, 9.995200e-005
2.695996e+003, 3.346790e-004
2.697925e+003, 4.184809e-004
2.699853e+003, 4.227870e-004
2.701782e+003, 2.920461e-004
2.703710e+003, 1.079129e-004
2.705639e+003, 2.964167e-004
2.707567e+003, 2.261533e-004
2.709496e+003, 1.132793e-004
2.711424e+003, -1.370317e-005
2.713353e+003, 4.316589e-006
2.715281e+003, -5.957999e-005
2.717209e+003, -1.319530e-004
2.719138e+003, -1.280611e-004
2.721066e+003, -1.892896e-004
2.722995e+003, 1.401709e-005
2.724923e+003, 8.869379e-005
2.726852e+003, -2.527950e-004
2.728780e+003, -1.056222e-004
2.730709e+003, -2.967219e-005
2.732637e+003, -6.501668e-005
2.734566e+003, -1.693619e-005
2.736494e+003, 1.508183e-004
2.738423e+003, 3.453015e-004
2.740351e+003, 1.649116e-004
2.742280e+003, -9.056367e-005
2.744208e+003, 3.888674e-005
2.746136e+003, -8.446323e-006
2.748065e+003, 1.975343e-004
2.749993e+003, 1.355744e-004
2.751922e+003, -8.141550e-005
2.753850e+003, -2.770816e-004
2.755779e+003, -3.983277e-004
2.757707e+003, -4.397715e-004
2.759636e+003, 7.431935e-005
2.761564e+003, 3.816419e-004
2.763493e+003, 6.604139e-004
2.765421e+003, 3.979011e-004
2.767350e+003, 2.787937e-005
2.769278e+003, -3.734402e-005
2.771207e+003, 2.132845e-004
2.773135e+003, 2.815473e-004
2.775063e+003, 2.813358e-004
2.776992e+003, 1.775740e-004
2.778920e+003, 1.232893e-004
2.780849e+003, -1.070579e-004
2.782777e+003, -2.643180e-004
2.784706e+003, -4.786220e-004
2.786634e+003, 2.221524e-004
2.788563e+003, 5.410991e-004
2.790491e+003, 1.943729e-004
2.792420e+003, -2.951642e-004
2.794348e+003, -4.116133e-005
2.796277e+003, 1.567296e-004
2.798205e+003, 1.664340e-004
2.800134e+003, -4.145354e-005
2.802062e+003, -9.308249e-005
2.803990e+003, -3.029190e-004
2.805919e+003, -4.782103e-004
2.807847e+003, -6.529723e-004
2.809776e+003, -2.914666e-005
2.811704e+003, 5.789119e-005
2.813633e+003, 1.237525e-004
2.815561e+003, 3.668194e-004
2.817490e+003, 1.722020e-004
2.819418e+003, -1.352418e-004
2.821347e+003, -1.632988e-004
2.823275e+003, -5.370465e-004
2.825204e+003, -7.844481e-005
2.827132e+003, 1.103701e-004
2.829061e+003, 4.999357e-005
2.830989e+003, -2.251237e-004
2.832917e+003, -4.521143e-005
2.834846e+003, -1.713743e-004
2.836774e+003, -2.494380e-004
2.838703e+003, -2.460018e-004
2.840631e+003, 3.476842e-005
2.842560e+003, 1.579297e-004
2.844488e+003, 2.087343e-004
2.846417e+003, 1.911801e-004
2.848345e+003, 3.191322e-004
2.850274e+003, -3.261842e-005
2.852202e+003, -4.680707e-004
2.854131e+003, -8.054891e-004
2.856059e+003, -5.832977e-004
2.857988e+003, -4.760531e-004
2.859916e+003, -7.494074e-004
2.861844e+003, -1.128005e-003
2.863773e+003, -9.676357e-004
2.865701e+003, -5.722952e-004
2.867630e+003, -6.227288e-004
2.869558e+003, -4.094119e-004
2.871487e+003, -4.175078e-004
2.873415e+003, -7.138615e-004
2.875344e+003, -8.172625e-004
2.877272e+003, -5.261460e-004
2.879201e+003, -2.743869e-004
2.881129e+003, -1.626638e-004
2.883058e+003, -5.996710e-005
2.884986e+003, -3.295267e-004
2.886915e+003, -7.030511e-004
2.888843e+003, -8.215532e-004
2.890771e+003, -5.713154e-004
2.892700e+003, -1.018595e-003
2.894628e+003, -8.416630e-004
2.896557e+003, -4.639905e-004
2.898485e+003, -6.587868e-004
2.900414e+003, -6.400225e-004
2.902342e+003, -3.814345e-004
2.904271e+003, -4.914516e-004
2.906199e+003, -7.994052e-004
2.908128e+003, -5.672381e-004
2.910056e+003, -4.255711e-004
2.911985e+003, -1.176465e-003
2.913913e+003, -1.363489e-003
2.915842e+003, -1.398014e-003
2.917770e+003, -1.497236e-003
2.919698e+003, -1.638731e-003
2.921627e+003, -1.312973e-003
2.923555e+003, -8.965270e-004
2.925484e+003, -1.140125e-003
2.927412e+003, -1.729253e-003
2.929341e+003, -1.306402e-003
2.931269e+003, -1.152072e-003
2.933198e+003, -1.143862e-003
2.935126e+003, -1.862391e-003
2.937055e+003, -2.055014e-003
2.938983e+003, -1.765148e-003
2.940912e+003, -1.477766e-003
2.942840e+003, -1.392777e-003
2.944769e+003, -1.714369e-003
2.946697e+003, -2.218268e-003
2.948625e+003, -1.895188e-003
2.950554e+003, -1.616943e-003
2.952482e+003, -1.578857e-003
2.954411e+003, -1.694262e-003
2.956339e+003, -1.642327e-003
2.958268e+003, -1.585199e-003
2.960196e+003, -1.567078e-003
2.962125e+003, -1.637821e-003
2.964053e+003, -1.607412e-003
2.965982e+003, -1.235654e-003
2.967910e+003, -5.597709e-004
2.969839e+003, -1.451156e-004
2.971767e+003, -4.070022e-004
2.973696e+003, -8.631265e-004
2.975624e+003, -9.256185e-004
2.977552e+003, -9.206110e-004
2.979481e+003, -9.472551e-004
2.981409e+003, -1.435740e-003
2.983338e+003, -1.869954e-003
2.985266e+003, -1.527222e-003
2.987195e+003, -1.024246e-003
2.989123e+003, -9.914800e-004
2.991052e+003, -5.575736e-004
2.992980e+003, -3.362238e-004
2.994909e+003, -5.662706e-004
2.996837e+003, -7.269010e-004
2.998766e+003, -4.194511e-004
3.000694e+003, -2.005454e-004
3.002623e+003, -9.848297e-005
3.004551e+003, 1.094416e-004
3.006479e+003, -1.975866e-004
3.008408e+003, -1.042165e-003
3.010336e+003, -1.345954e-003
3.012265e+003, -1.798506e-003
3.014193e+003, -2.202871e-003
3.016122e+003, -2.034294e-003
3.018050e+003, -1.731497e-003
3.019979e+003, -1.205902e-003
3.021907e+003, -8.334857e-004
3.023836e+003, -8.764238e-004
3.025764e+003, -1.338207e-003
3.027693e+003, -1.525271e-003
3.029621e+003, -7.856989e-004
3.031550e+003, -2.732955e-004
3.033478e+003, -2.686519e-004
3.035406e+003, -8.344913e-004
3.037335e+003, -1.197905e-003
3.039263e+003, -1.132758e-003
3.041192e+003, -7.908989e-004
3.043120e+003, -7.379128e-004
3.045049e+003, -7.691917e-004
3.046977e+003, -7.214859e-004
3.048906e+003, -4.281942e-004
3.050834e+003, -6.160381e-004
3.052763e+003, -7.276674e-004
3.054691e+003, -7.455921e-004
3.056620e+003, -1.004383e-003
3.058548e+003, -8.649457e-004
3.060477e+003, -5.635677e-004
3.062405e+003, -8.635475e-004
3.064333e+003, -6.888316e-004
3.066262e+003, -6.553141e-004
3.068190e+003, -5.504076e-004
3.070119e+003, -7.572323e-004
3.072047e+003, -8.476627e-004
3.073976e+003, -7.891657e-004
3.075904e+003, -9.303618e-004
3.077833e+003, -1.155391e-003
3.079761e+003, -1.058825e-003
3.081690e+003, -8.542481e-004
3.083618e+003, -4.082436e-004
3.085547e+003, -5.107558e-004
3.087475e+003, 9.335078e-005
3.089404e+003, -4.082682e-006
3.091332e+003, -6.393989e-004
3.093260e+003, -1.162202e-003
3.095189e+003, -1.227469e-003
3.097117e+003, -9.572729e-004
3.099046e+003, -5.460293e-004
3.100974e+003, -4.975272e-004
3.102903e+003, -3.332011e-004
3.104831e+003, -2.014645e-005
3.106760e+003, 4.200861e-004
3.108688e+003, -1.484351e-004
3.110617e+003, -7.174002e-004
3.112545e+003, -9.967086e-004
3.114474e+003, -9.385914e-004
3.116402e+003, -4.233558e-004
3.118331e+003, -1.606422e-004
3.120259e+003, -6.226284e-004
3.122188e+003, -8.983289e-004
3.124116e+003, -6.667979e-004
3.126044e+003, -6.640133e-004
3.127973e+003, -1.461130e-003
3.129901e+003, -1.023024e-003
3.131830e+003, 2.414741e-005
3.133758e+003, -4.203410e-004
3.135687e+003, -1.069888e-003
3.137615e+003, -1.439808e-003
3.139544e+003, -1.646397e-003
3.141472e+003, -1.217092e-003
3.143401e+003, -1.131295e-003
3.145329e+003, -7.825581e-004
3.147258e+003, 3.396091e-004
3.149186e+003, 1.498694e-004
3.151115e+003, -4.218813e-004
3.153043e+003, -6.370349e-004
3.154971e+003, -1.008426e-003
3.156900e+003, -9.530255e-004
3.158828e+003, -5.315440e-004
3.160757e+003, -1.296626e-004
3.162685e+003, 1.650611e-004
3.164614e+003, 1.366371e-004
3.166542e+003, -2.601233e-004
3.168471e+003, -8.075879e-005
3.170399e+003, -6.939915e-005
3.172328e+003, -6.665349e-004
3.174256e+003, -1.376394e-003
3.176185e+003, -7.748736e-004
3.178113e+003, -1.196343e-004
3.180042e+003, 5.722641e-005
3.181970e+003, -4.605906e-004
3.183898e+003, -9.090151e-004
3.185827e+003, -6.547362e-004
3.187755e+003, -4.587909e-004
3.189684e+003, -3.422745e-004
3.191612e+003, 7.469016e-005
3.193541e+003, -4.199329e-004
3.195469e+003, -1.063367e-003
3.197398e+003, -8.281762e-004
3.199326e+003, 4.368503e-005
3.201255e+003, -9.893259e-005
3.203183e+003, -7.730176e-004
3.205112e+003, -1.487514e-003
3.207040e+003, -1.414433e-003
3.208969e+003, -8.425305e-004
3.210897e+003, -1.888784e-004
3.212825e+003, -7.024426e-004
3.214754e+003, -8.806642e-004
3.216682e+003, -5.460402e-004
3.218611e+003, -7.557708e-004
3.220539e+003, -9.544085e-004
3.222468e+003, -1.283905e-004
3.224396e+003, 7.206262e-004
3.226325e+003, 5.453849e-004
3.228253e+003, 5.791877e-005
3.230182e+003, -5.228382e-004
3.232110e+003, -9.665051e-004
3.234039e+003, -2.387784e-004
3.235967e+003, -4.831982e-004
3.237896e+003, -7.776970e-004
3.239824e+003, -8.690477e-004
3.241752e+003, -2.674300e-004
3.243681e+003, -1.870468e-004
3.245609e+003, 5.167312e-006
3.247538e+003, 7.661186e-005
3.249466e+003, -4.246066e-004
3.251395e+003, -5.210485e-004
3.253323e+003, -2.021147e-004
3.255252e+003, -3.999504e-004
3.257180e+003, 2.044877e-006
3.259109e+003, 1.311755e-004
3.261037e+003, -7.485158e-004
3.262966e+003, -1.660413e-003
3.264894e+003, -1.216539e-003
3.266823e+003, -8.495292e-004
3.268751e+003, -8.880026e-004
3.270679e+003, -5.009713e-004
3.272608e+003, -2.243541e-004
3.274536e+003, -4.513091e-004
3.276465e+003, -5.413088e-004
3.278393e+003, -4.835429e-004
3.280322e+003, -3.556433e-004
3.282250e+003, -2.025198e-004
3.284179e+003, -5.838388e-004
3.286107e+003, -6.131624e-004
3.288036e+003, -1.345576e-004
3.289964e+003, 2.823064e-004
3.291893e+003, 3.989375e-004
3.293821e+003, -3.806734e-004
3.295750e+003, -8.469807e-004
3.297678e+003, -4.865300e-004
3.299606e+003, 2.173798e-004
3.301535e+003, -4.027763e-004
3.303463e+003, -7.830622e-004
3.305392e+003, -9.013321e-004
3.307320e+003, -6.923714e-004
3.309249e+003, -4.324173e-004
3.311177e+003, -8.978747e-004
3.313106e+003, -1.681373e-003
3.315034e+003, -1.521472e-003
3.316963e+003, -1.394685e-003
3.318891e+003, -1.526417e-003
3.320820e+003, -1.149804e-003
3.322748e+003, 2.070819e-004
3.324677e+003, -1.958616e-004
3.326605e+003, -4.507798e-004
3.328533e+003, -7.300032e-004
3.330462e+003, -1.047922e-003
3.332390e+003, -7.833539e-004
3.334319e+003, -3.065153e-004
3.336247e+003, -4.526551e-004
3.338176e+003, -2.905374e-004
3.340104e+003, -5.720277e-004
3.342033e+003, -5.978514e-004
3.343961e+003, 3.887647e-005
3.345890e+003, -1.311650e-004
3.347818e+003, -3.443187e-004
3.349747e+003, 1.263756e-004
3.351675e+003, -2.137182e-004
3.353604e+003, -2.995187e-004
3.355532e+003, -3.571059e-004
3.357460e+003, -1.678660e-004
3.359389e+003, 1.566751e-004
3.361317e+003, -6.194033e-005
3.363246e+003, -8.986971e-004
3.365174e+003, -5.340731e-004
3.367103e+003, -4.192706e-004
3.369031e+003, -9.856898e-004
3.370960e+003, -8.644853e-004
3.372888e+003, -8.546216e-004
3.374817e+003, -3.331081e-004
3.376745e+003, -3.370825e-004
3.378674e+003, -5.115352e-004
3.380602e+003, -6.592749e-004
3.382531e+003, -7.321588e-004
3.384459e+003, -1.160645e-003
3.386387e+003, -1.344589e-003
3.388316e+003, -9.795404e-004
3.390244e+003, -8.474849e-004
3.392173e+003, -3.612469e-004
3.394101e+003, 2.039240e-004
3.396030e+003, -2.964838e-004
3.397958e+003, -1.007039e-003
3.399887e+003, -5.294679e-004
3.401815e+003, -5.212321e-004
3.403744e+003, -4.329861e-004
3.405672e+003, -4.784333e-004
3.407601e+003, -5.872754e-004
3.409529e+003, -8.542315e-004
3.411458e+003, -6.714545e-004
3.413386e+003, -3.316029e-004
3.415314e+003, 2.525470e-004
3.417243e+003, 3.035645e-004
3.419171e+003, -7.820586e-005
3.421100e+003, -9.252647e-004
3.423028e+003, -1.449568e-003
3.424957e+003, -1.220903e-003
3.426885e+003, -2.704644e-004
3.428814e+003, -4.366128e-004
3.430742e+003, -1.278909e-003
3.432671e+003, -2.069694e-003
3.434599e+003, -1.407699e-003
3.436528e+003, -2.571404e-004
3.438456e+003, -1.664775e-004
3.440385e+003, -4.675935e-004
3.442313e+003, -9.032818e-004
3.444241e+003, -1.740804e-003
3.446170e+003, -1.155098e-003
3.448098e+003, -2.415312e-005
3.450027e+003, -3.046123e-004
3.451955e+003, -2.018872e-003
3.453884e+003, -2.650816e-003
3.455812e+003, -2.393673e-003
3.457741e+003, -1.142812e-003
3.459669e+003, -1.697910e-004
3.461598e+003, 1.283335e-004
3.463526e+003, -8.645937e-004
3.465455e+003, -1.058298e-003
3.467383e+003, -1.221237e-003
3.469312e+003, -1.913682e-003
3.471240e+003, -2.285934e-003
3.473168e+003, -1.777339e-003
3.475097e+003, -2.278618e-003
3.477025e+003, -2.282464e-003
3.478954e+003, -1.392929e-003
3.480882e+003, -9.456929e-004
3.482811e+003, -1.312057e-003
3.484739e+003, -1.254321e-003
3.486668e+003, -1.403093e-003
3.488596e+003, -1.349830e-003
3.490525e+003, -1.676776e-003
3.492453e+003, -1.728570e-003
3.494382e+003, -2.069838e-003
3.496310e+003, -2.038192e-003
3.498239e+003, -2.092701e-003
3.500167e+003, -1.881210e-003
3.502095e+003, -1.368467e-003
3.504024e+003, -1.406723e-003
3.505952e+003, -1.862703e-003
3.507881e+003, -1.873938e-003
3.509809e+003, -1.825064e-003
3.511738e+003, -1.918927e-003
3.513666e+003, -1.755803e-003
3.515595e+003, -1.149471e-003
3.517523e+003, -1.287445e-003
3.519452e+003, -2.113640e-003
3.521380e+003, -1.671251e-003
3.523309e+003, -1.326020e-003
3.525237e+003, -7.861402e-004
3.527166e+003, -1.781357e-004
3.529094e+003, -1.368836e-004
3.531022e+003, -5.078267e-004
3.532951e+003, -1.476748e-003
3.534879e+003, -1.705025e-003
3.536808e+003, -2.231598e-003
3.538736e+003, -1.818442e-003
3.540665e+003, -2.272696e-003
3.542593e+003, -3.140723e-003
3.544522e+003, -2.539091e-003
3.546450e+003, -1.630542e-003
3.548379e+003, -1.787777e-003
3.550307e+003, -1.302274e-003
3.552236e+003, -1.448793e-003
3.554164e+003, -2.454442e-003
3.556093e+003, -2.819004e-003
3.558021e+003, -1.936909e-003
3.559949e+003, -1.570117e-003
3.561878e+003, -1.467206e-003
3.563806e+003, -1.246119e-003
3.565735e+003, -2.430242e-003
3.567663e+003, -3.078777e-003
3.569592e+003, -2.205425e-003
3.571520e+003, -1.852883e-003
3.573449e+003, -2.311509e-003
3.575377e+003, -2.713251e-003
3.577306e+003, -2.929128e-003
3.579234e+003, -2.653962e-003
3.581163e+003, -2.629856e-003
3.583091e+003, -3.335675e-003
3.585020e+003, -3.210518e-003
3.586948e+003, -2.242165e-003
3.588876e+003, -1.652334e-003
3.590805e+003, -2.387508e-003
3.592733e+003, -1.535130e-003
3.594662e+003, -1.355496e-003
3.596590e+003, -1.947497e-003
3.598519e+003, -2.334052e-003
3.600447e+003, -2.285684e-003
3.602376e+003, -3.090558e-003
3.604304e+003, -3.676722e-003
3.606233e+003, -3.665430e-003
3.608161e+003, -2.323967e-003
3.610090e+003, -1.896620e-003
3.612018e+003, -2.756052e-003
3.613947e+003, -2.558955e-003
3.615875e+003, -2.824966e-003
3.617803e+003, -3.124950e-003
3.619732e+003, -2.322496e-003
3.621660e+003, -2.266635e-003
3.623589e+003, -1.630019e-003
3.625517e+003, -1.935243e-003
3.627446e+003, -2.362960e-003
3.629374e+003, -2.194468e-003
3.631303e+003, -1.613823e-003
3.633231e+003, -1.885127e-003
3.635160e+003, -1.634177e-003
3.637088e+003, -1.934804e-003
3.639017e+003, -2.604561e-003
3.640945e+003, -2.830211e-003
3.642874e+003, -3.188950e-003
3.644802e+003, -3.160759e-003
3.646730e+003, -2.245483e-003
3.648659e+003, -1.313000e-003
3.650587e+003, -1.756373e-003
3.652516e+003, -3.112459e-003
3.654444e+003, -2.779069e-003
3.656373e+003, -2.182075e-003
3.658301e+003, -2.979615e-003
3.660230e+003, -2.813030e-003
3.662158e+003, -2.434716e-003
3.664087e+003, -2.910242e-003
3.666015e+003, -2.723134e-003
3.667944e+003, -2.489951e-003
3.669872e+003, -2.446932e-003
3.671801e+003, -2.533519e-003
3.673729e+003, -2.421776e-003
3.675657e+003, -1.659260e-003
3.677586e+003, -2.265413e-003
3.679514e+003, -3.716413e-003
3.681443e+003, -3.934863e-003
3.683371e+003, -3.831547e-003
3.685300e+003, -3.670621e-003
3.687228e+003, -2.352221e-003
3.689157e+003, -7.315194e-004
3.691085e+003, -1.720437e-003
3.693014e+003, -2.902307e-003
3.694942e+003, -4.151911e-003
3.696871e+003, -4.323679e-003
3.698799e+003, -3.703249e-003
3.700728e+003, -2.755305e-003
3.702656e+003, -2.424984e-003
3.704584e+003, -2.765481e-003
3.706513e+003, -3.054386e-003
3.708441e+003, -1.496519e-003
3.710370e+003, -1.164149e-003
3.712298e+003, -1.815491e-003
3.714227e+003, -2.798492e-003
3.716155e+003, -3.013902e-003
3.718084e+003, -2.563180e-003
3.720012e+003, -1.886243e-003
3.721941e+003, -1.410691e-003
3.723869e+003, -1.637851e-003
3.725798e+003, -2.155422e-003
3.727726e+003, -2.710697e-003
3.729655e+003, -3.169105e-003
3.731583e+003, -2.779890e-003
3.733511e+003, -3.165196e-003
3.735440e+003, -3.408726e-003
3.737368e+003, -2.721811e-003
3.739297e+003, -1.914866e-003
3.741225e+003, -2.521829e-003
3.743154e+003, -2.510213e-003
3.745082e+003, -1.755935e-003
3.747011e+003, -2.007094e-003
3.748939e+003, -2.632525e-003
3.750868e+003, -2.903524e-003
3.752796e+003, -2.737840e-003
3.754725e+003, -3.396387e-003
3.756653e+003, -3.003531e-003
3.758582e+003, -2.654353e-003
3.760510e+003, -2.573581e-003
3.762438e+003, -1.964668e-003
3.764367e+003, -1.435900e-003
3.766295e+003, -2.501219e-003
3.768224e+003, -2.822349e-003
3.770152e+003, -1.949532e-003
3.772081e+003, -1.829503e-003
3.774009e+003, -1.027149e-003
3.775938e+003, -1.188511e-003
3.777866e+003, -2.890043e-003
3.779795e+003, -2.877769e-003
3.781723e+003, -2.499612e-003
3.783652e+003, -2.771897e-003
3.785580e+003, -2.419267e-003
3.787509e+003, -2.573512e-003
3.789437e+003, -2.621042e-003
3.791365e+003, -2.446305e-003
3.793294e+003, -1.423270e-003
3.795222e+003, -2.108038e-003
3.797151e+003, -2.579523e-003
3.799079e+003, -1.977418e-003
3.801008e+003, -1.650206e-003
3.802936e+003, -2.598353e-003
3.804865e+003, -2.365999e-003
3.806793e+003, -1.275375e-003
3.808722e+003, -1.108727e-003
3.810650e+003, -1.427138e-003
3.812579e+003, -2.509306e-003
3.814507e+003, -3.718418e-003
3.816436e+003, -3.490187e-003
3.818364e+003, -3.049361e-003
3.820292e+003, -2.341269e-003
3.822221e+003, -2.087771e-003
3.824149e+003, -3.017141e-003
3.826078e+003, -3.273475e-003
3.828006e+003, -2.303949e-003
3.829935e+003, -2.613489e-003
3.831863e+003, -1.876291e-003
3.833792e+003, -1.617030e-003
3.835720e+003, -2.672974e-003
3.837649e+003, -2.584609e-003
3.839577e+003, -2.452848e-003
3.841506e+003, -2.482674e-003
3.843434e+003, -1.878256e-003
3.845363e+003, -3.220560e-003
3.847291e+003, -3.419479e-003
3.849219e+003, -3.799737e-003
3.851148e+003, -3.092794e-003
3.853076e+003, -1.751360e-003
3.855005e+003, -2.275600e-003
3.856933e+003, -3.440602e-003
3.858862e+003, -3.519626e-003
3.860790e+003, -3.440037e-003
3.862719e+003, -2.753124e-003
3.864647e+003, -2.183446e-003
3.866576e+003, -1.761303e-003
3.868504e+003, -1.447670e-003
3.870433e+003, -2.181428e-003
3.872361e+003, -3.178823e-003
3.874290e+003, -2.090082e-003
3.876218e+003, -1.564186e-003
3.878146e+003, -2.657154e-003
3.880075e+003, -3.902539e-003
3.882003e+003, -4.028111e-003
3.883932e+003, -2.676285e-003
3.885860e+003, -1.679322e-003
3.887789e+003, -1.158543e-003
3.889717e+003, -9.718883e-004
3.891646e+003, -1.683907e-003
3.893574e+003, -1.811608e-003
3.895503e+003, -1.966630e-003
3.897431e+003, -2.336060e-003
3.899360e+003, -2.187891e-003
3.901288e+003, -1.910284e-003
3.903217e+003, -2.522260e-003
3.905145e+003, -2.462652e-003
3.907073e+003, -2.865831e-003
3.909002e+003, -3.344450e-003
3.910930e+003, -3.513217e-003
3.912859e+003, -3.180212e-003
3.914787e+003, -2.044525e-003
3.916716e+003, -2.352913e-003
3.918644e+003, -3.311567e-003
3.920573e+003, -3.270683e-003
3.922501e+003, -2.596167e-003
3.924430e+003, -1.064172e-003
3.926358e+003, -9.399738e-004
3.928287e+003, -2.474484e-003
3.930215e+003, -3.280115e-003
3.932144e+003, -2.915274e-003
3.934072e+003, -1.987193e-003
3.936000e+003, -2.275706e-003
3.937929e+003, -2.831514e-003
3.939857e+003, -2.642374e-003
3.941786e+003, -2.573049e-003
3.943714e+003, -3.075497e-003
3.945643e+003, -2.750318e-003
3.947571e+003, -2.331025e-003
3.949500e+003, -3.366454e-003
3.951428e+003, -3.047319e-003
3.953357e+003, -1.774964e-003
3.955285e+003, -1.610758e-003
3.957214e+003, -1.756092e-003
3.959142e+003, -1.701128e-003
3.961071e+003, -2.429551e-003
3.962999e+003, -2.631619e-003
3.964927e+003, -2.778092e-003
3.966856e+003, -3.040397e-003
3.968784e+003, -2.580312e-003
3.970713e+003, -2.078102e-003
3.972641e+003, -1.965397e-003
3.974570e+003, -2.018871e-003
3.976498e+003, -2.383874e-003
3.978427e+003, -2.595108e-003
3.980355e+003, -3.339650e-003
3.982284e+003, -3.309945e-003
3.984212e+003, -3.620786e-003
3.986141e+003, -2.976933e-003
3.988069e+003, -2.389197e-003
3.989998e+003, -2.414482e-003
3.991926e+003, -2.168592e-003
3.993854e+003, -1.676085e-003
3.995783e+003, -2.591401e-003
3.997711e+003, -4.026219e-003
3.999640e+003, -3.572715e-003
##END=



