##NAMES=Antimony
##RRUFFID=R050654
##IDEAL CHEMISTRY=Sb
##LOCALITY=Sarawak, Borneo
##OWNER=RRUFF
##SOURCE=University of Arizona Mineral Museum
##DESCRIPTION=Silver metallic crystals
##STATUS=The identification of this mineral has been confirmed by X-ray diffraction and chemical analysis
##URL=rruff.info/R050654
##MEASURED CHEMISTRY=Sb
3.991926e+002, 2.988316e-001
4.011211e+002, 3.215584e-001
4.030495e+002, 3.371138e-001
4.049780e+002, 3.240404e-001
4.069065e+002, 3.379597e-001
4.088349e+002, 3.580918e-001
4.107634e+002, 3.464919e-001
4.126919e+002, 3.391202e-001
4.146203e+002, 3.419623e-001
4.165488e+002, 3.427095e-001
4.184773e+002, 3.504137e-001
4.204057e+002, 3.512237e-001
4.223342e+002, 3.438991e-001
4.242627e+002, 3.393785e-001
4.261911e+002, 3.406224e-001
4.281196e+002, 3.417384e-001
4.300481e+002, 3.449828e-001
4.319765e+002, 3.462407e-001
4.339050e+002, 3.460328e-001
4.358335e+002, 3.518637e-001
4.377619e+002, 3.512020e-001
4.396904e+002, 3.521622e-001
4.416189e+002, 3.517556e-001
4.435473e+002, 3.490543e-001
4.454758e+002, 3.453118e-001
4.474043e+002, 3.462501e-001
4.493327e+002, 3.465612e-001
4.512612e+002, 3.471657e-001
4.531897e+002, 3.526695e-001
4.551181e+002, 3.529026e-001
4.570466e+002, 3.542770e-001
4.589751e+002, 3.567732e-001
4.609035e+002, 3.550623e-001
4.628320e+002, 3.567633e-001
4.647605e+002, 3.625642e-001
4.666889e+002, 3.653375e-001
4.686174e+002, 3.658129e-001
4.705459e+002, 3.697169e-001
4.724743e+002, 3.691775e-001
4.744028e+002, 3.686410e-001
4.763313e+002, 3.763894e-001
4.782597e+002, 3.838491e-001
4.801882e+002, 3.848548e-001
4.821167e+002, 3.845953e-001
4.840451e+002, 3.885927e-001
4.859736e+002, 3.900487e-001
4.879021e+002, 3.877677e-001
4.898305e+002, 3.892231e-001
4.917590e+002, 3.923767e-001
4.936875e+002, 3.948402e-001
4.956159e+002, 3.963065e-001
4.975444e+002, 3.997896e-001
4.994729e+002, 4.027340e-001
5.014013e+002, 4.033674e-001
5.033298e+002, 4.041209e-001
5.052583e+002, 4.054154e-001
5.071867e+002, 4.069421e-001
5.091152e+002, 4.087155e-001
5.110437e+002, 4.094272e-001
5.129721e+002, 4.104151e-001
5.149006e+002, 4.121956e-001
5.168290e+002, 4.144251e-001
5.187575e+002, 4.167901e-001
5.206860e+002, 4.194314e-001
5.226144e+002, 4.197429e-001
5.245429e+002, 4.191181e-001
5.264714e+002, 4.212554e-001
5.283998e+002, 4.242347e-001
5.303283e+002, 4.251086e-001
5.322568e+002, 4.258938e-001
5.341852e+002, 4.284928e-001
5.361137e+002, 4.344855e-001
5.380422e+002, 4.381572e-001
5.399706e+002, 4.361951e-001
5.418991e+002, 4.359867e-001
5.438276e+002, 4.387481e-001
5.457560e+002, 4.432852e-001
5.476845e+002, 4.443288e-001
5.496130e+002, 4.442264e-001
5.515414e+002, 4.470813e-001
5.534699e+002, 4.512732e-001
5.553984e+002, 4.534282e-001
5.573268e+002, 4.549918e-001
5.592553e+002, 4.574569e-001
5.611838e+002, 4.598976e-001
5.631122e+002, 4.616033e-001
5.650407e+002, 4.604577e-001
5.669692e+002, 4.622229e-001
5.688976e+002, 4.682500e-001
5.708261e+002, 4.688126e-001
5.727546e+002, 4.677787e-001
5.746830e+002, 4.702603e-001
5.766115e+002, 4.719347e-001
5.785400e+002, 4.721186e-001
5.804684e+002, 4.740264e-001
5.823969e+002, 4.769430e-001
5.843254e+002, 4.775311e-001
5.862538e+002, 4.798622e-001
5.881823e+002, 4.815824e-001
5.901108e+002, 4.805526e-001
5.920392e+002, 4.824534e-001
5.939677e+002, 4.846836e-001
5.958962e+002, 4.824645e-001
5.978246e+002, 4.837686e-001
5.997531e+002, 4.892745e-001
6.016816e+002, 4.917674e-001
6.036100e+002, 4.939547e-001
6.055385e+002, 4.968737e-001
6.074670e+002, 4.990159e-001
6.093954e+002, 4.990533e-001
6.113239e+002, 4.993117e-001
6.132524e+002, 5.023600e-001
6.151808e+002, 5.040107e-001
6.171093e+002, 5.044313e-001
6.190378e+002, 5.069440e-001
6.209662e+002, 5.101693e-001
6.228947e+002, 5.117403e-001
6.248232e+002, 5.141349e-001
6.267516e+002, 5.163713e-001
6.286801e+002, 5.172862e-001
6.306086e+002, 5.182846e-001
6.325370e+002, 5.210244e-001
6.344655e+002, 5.223947e-001
6.363940e+002, 5.238370e-001
6.383224e+002, 5.265128e-001
6.402509e+002, 5.278329e-001
6.421794e+002, 5.293434e-001
6.441078e+002, 5.320277e-001
6.460363e+002, 5.329500e-001
6.479648e+002, 5.350488e-001
6.498932e+002, 5.372248e-001
6.518217e+002, 5.374187e-001
6.537502e+002, 5.385677e-001
6.556786e+002, 5.413849e-001
6.576071e+002, 5.434546e-001
6.595356e+002, 5.463947e-001
6.614641e+002, 5.478951e-001
6.633925e+002, 5.479079e-001
6.653210e+002, 5.517774e-001
6.672495e+002, 5.547394e-001
6.691779e+002, 5.552833e-001
6.711064e+002, 5.566275e-001
6.730349e+002, 5.580085e-001
6.749633e+002, 5.582183e-001
6.768918e+002, 5.588950e-001
6.788203e+002, 5.616186e-001
6.807487e+002, 5.650622e-001
6.826772e+002, 5.660782e-001
6.846057e+002, 5.663573e-001
6.865341e+002, 5.676570e-001
6.884626e+002, 5.678489e-001
6.903911e+002, 5.683877e-001
6.923195e+002, 5.688142e-001
6.942480e+002, 5.689760e-001
6.961765e+002, 5.701927e-001
6.981049e+002, 5.711088e-001
7.000334e+002, 5.723853e-001
7.019619e+002, 5.746505e-001
7.038903e+002, 5.764558e-001
7.058188e+002, 5.789484e-001
7.077473e+002, 5.829416e-001
7.096757e+002, 5.848633e-001
7.116042e+002, 5.862210e-001
7.135327e+002, 5.887800e-001
7.154611e+002, 5.896298e-001
7.173896e+002, 5.901024e-001
7.193181e+002, 5.909191e-001
7.212465e+002, 5.938679e-001
7.231750e+002, 5.966910e-001
7.251035e+002, 5.983371e-001
7.270319e+002, 5.989264e-001
7.289604e+002, 6.015722e-001
7.308889e+002, 6.047017e-001
7.328173e+002, 6.068313e-001
7.347458e+002, 6.063924e-001
7.366743e+002, 6.083794e-001
7.386027e+002, 6.114253e-001
7.405312e+002, 6.132425e-001
7.424597e+002, 6.144824e-001
7.443881e+002, 6.152188e-001
7.463166e+002, 6.157139e-001
7.482451e+002, 6.170624e-001
7.501735e+002, 6.200039e-001
7.521020e+002, 6.235005e-001
7.540305e+002, 6.265195e-001
7.559589e+002, 6.283472e-001
7.578874e+002, 6.303074e-001
7.598159e+002, 6.322594e-001
7.617443e+002, 6.340582e-001
7.636728e+002, 6.372862e-001
7.656013e+002, 6.398463e-001
7.675297e+002, 6.413364e-001
7.694582e+002, 6.425595e-001
7.713867e+002, 6.444715e-001
7.733151e+002, 6.451994e-001
7.752436e+002, 6.440151e-001
7.771721e+002, 6.423214e-001
7.791005e+002, 6.415383e-001
7.810290e+002, 6.427698e-001
7.829575e+002, 6.456986e-001
7.848859e+002, 6.483210e-001
7.868144e+002, 6.506997e-001
7.887429e+002, 6.537060e-001
7.906713e+002, 6.552233e-001
7.925998e+002, 6.549693e-001
7.945283e+002, 6.542811e-001
7.964567e+002, 6.531196e-001
7.983852e+002, 6.515434e-001
8.003137e+002, 6.508410e-001
8.022421e+002, 6.514977e-001
8.041706e+002, 6.536118e-001
8.060991e+002, 6.565658e-001
8.080275e+002, 6.593149e-001
8.099560e+002, 6.633686e-001
8.118845e+002, 6.670901e-001
8.138129e+002, 6.710033e-001
8.157414e+002, 6.743344e-001
8.176699e+002, 6.770079e-001
8.195983e+002, 6.804014e-001
8.215268e+002, 6.833761e-001
8.234553e+002, 6.860570e-001
8.253837e+002, 6.888008e-001
8.273122e+002, 6.921617e-001
8.292407e+002, 6.959481e-001
8.311691e+002, 6.981219e-001
8.330976e+002, 6.998935e-001
8.350261e+002, 7.031802e-001
8.369545e+002, 7.064250e-001
8.388830e+002, 7.069981e-001
8.408115e+002, 7.073360e-001
8.427399e+002, 7.108926e-001
8.446684e+002, 7.142899e-001
8.465969e+002, 7.155153e-001
8.485253e+002, 7.167274e-001
8.504538e+002, 7.190645e-001
8.523823e+002, 7.213246e-001
8.543107e+002, 7.243289e-001
8.562392e+002, 7.271402e-001
8.581677e+002, 7.286850e-001
8.600961e+002, 7.297611e-001
8.620246e+002, 7.306464e-001
8.639531e+002, 7.317996e-001
8.658815e+002, 7.336811e-001
8.678100e+002, 7.356666e-001
8.697385e+002, 7.382954e-001
8.716669e+002, 7.393737e-001
8.735954e+002, 7.416589e-001
8.755239e+002, 7.459074e-001
8.774523e+002, 7.476783e-001
8.793808e+002, 7.475949e-001
8.813093e+002, 7.488006e-001
8.832377e+002, 7.518448e-001
8.851662e+002, 7.520722e-001
8.870947e+002, 7.526073e-001
8.890231e+002, 7.542610e-001
8.909516e+002, 7.572412e-001
8.928801e+002, 7.602710e-001
8.948085e+002, 7.613780e-001
8.967370e+002, 7.631242e-001
8.986655e+002, 7.647709e-001
9.005939e+002, 7.665774e-001
9.025224e+002, 7.684882e-001
9.044509e+002, 7.697934e-001
9.063793e+002, 7.700277e-001
9.083078e+002, 7.701678e-001
9.102363e+002, 7.716029e-001
9.121647e+002, 7.745112e-001
9.140932e+002, 7.777129e-001
9.160217e+002, 7.783902e-001
9.179501e+002, 7.796494e-001
9.198786e+002, 7.823717e-001
9.218071e+002, 7.834157e-001
9.237355e+002, 7.845965e-001
9.256640e+002, 7.864933e-001
9.275925e+002, 7.880352e-001
9.295209e+002, 7.895333e-001
9.314494e+002, 7.908466e-001
9.333779e+002, 7.923156e-001
9.353063e+002, 7.937839e-001
9.372348e+002, 7.954286e-001
9.391633e+002, 7.975706e-001
9.410917e+002, 7.988585e-001
9.430202e+002, 7.997240e-001
9.449487e+002, 8.023139e-001
9.468771e+002, 8.044391e-001
9.488056e+002, 8.044897e-001
9.507341e+002, 8.047102e-001
9.526625e+002, 8.062603e-001
9.545910e+002, 8.085658e-001
9.565195e+002, 8.099291e-001
9.584479e+002, 8.119467e-001
9.603764e+002, 8.131713e-001
9.623049e+002, 8.140803e-001
9.642333e+002, 8.165653e-001
9.661618e+002, 8.181977e-001
9.680903e+002, 8.185348e-001
9.700187e+002, 8.190202e-001
9.719472e+002, 8.206388e-001
9.738757e+002, 8.216699e-001
9.758041e+002, 8.223994e-001
9.777326e+002, 8.243077e-001
9.796611e+002, 8.260754e-001
9.815895e+002, 8.271264e-001
9.835180e+002, 8.293161e-001
9.854465e+002, 8.292118e-001
9.873749e+002, 8.288054e-001
9.893034e+002, 8.298365e-001
9.912319e+002, 8.326354e-001
9.931603e+002, 8.356373e-001
9.950888e+002, 8.367674e-001
9.970173e+002, 8.374174e-001
9.989457e+002, 8.384889e-001
1.000874e+003, 8.393169e-001
1.002803e+003, 8.398156e-001
1.004731e+003, 8.407890e-001
1.006660e+003, 8.402155e-001
1.008588e+003, 8.412756e-001
1.010517e+003, 8.430597e-001
1.012445e+003, 8.435388e-001
1.014373e+003, 8.445339e-001
1.016302e+003, 8.464243e-001
1.018230e+003, 8.476688e-001
1.020159e+003, 8.474753e-001
1.022087e+003, 8.469282e-001
1.024016e+003, 8.481166e-001
1.025944e+003, 8.486333e-001
1.027873e+003, 8.500423e-001
1.029801e+003, 8.518988e-001
1.031730e+003, 8.516194e-001
1.033658e+003, 8.503985e-001
1.035587e+003, 8.506919e-001
1.037515e+003, 8.509021e-001
1.039443e+003, 8.495065e-001
1.041372e+003, 8.485805e-001
1.043300e+003, 8.504050e-001
1.045229e+003, 8.516750e-001
1.047157e+003, 8.511329e-001
1.049086e+003, 8.498915e-001
1.051014e+003, 8.473919e-001
1.052943e+003, 8.461820e-001
1.054871e+003, 8.450245e-001
1.056800e+003, 8.420687e-001
1.058728e+003, 8.398016e-001
1.060657e+003, 8.389590e-001
1.062585e+003, 8.362843e-001
1.064514e+003, 8.327237e-001
1.066442e+003, 8.297337e-001
1.068370e+003, 8.273821e-001
1.070299e+003, 8.250139e-001
1.072227e+003, 8.239192e-001
1.074156e+003, 8.229779e-001
1.076084e+003, 8.226512e-001
1.078013e+003, 8.222468e-001
1.079941e+003, 8.221080e-001
1.081870e+003, 8.229569e-001
1.083798e+003, 8.239161e-001
1.085727e+003, 8.235678e-001
1.087655e+003, 8.242580e-001
1.089584e+003, 8.248854e-001
1.091512e+003, 8.242134e-001
1.093441e+003, 8.241748e-001
1.095369e+003, 8.239058e-001
1.097297e+003, 8.249034e-001
1.099226e+003, 8.266761e-001
1.101154e+003, 8.275169e-001
1.103083e+003, 8.275481e-001
1.105011e+003, 8.285319e-001
1.106940e+003, 8.292837e-001
1.108868e+003, 8.299719e-001
1.110797e+003, 8.302219e-001
1.112725e+003, 8.304827e-001
1.114654e+003, 8.315198e-001
1.116582e+003, 8.332126e-001
1.118511e+003, 8.342335e-001
1.120439e+003, 8.361648e-001
1.122368e+003, 8.367580e-001
1.124296e+003, 8.365418e-001
1.126224e+003, 8.390167e-001
1.128153e+003, 8.423091e-001
1.130081e+003, 8.432422e-001
1.132010e+003, 8.434126e-001
1.133938e+003, 8.450999e-001
1.135867e+003, 8.468479e-001
1.137795e+003, 8.486142e-001
1.139724e+003, 8.511351e-001
1.141652e+003, 8.522402e-001
1.143581e+003, 8.532485e-001
1.145509e+003, 8.550907e-001
1.147438e+003, 8.558833e-001
1.149366e+003, 8.571523e-001
1.151295e+003, 8.583059e-001
1.153223e+003, 8.590369e-001
1.155151e+003, 8.614219e-001
1.157080e+003, 8.629381e-001
1.159008e+003, 8.639001e-001
1.160937e+003, 8.653244e-001
1.162865e+003, 8.649300e-001
1.164794e+003, 8.635732e-001
1.166722e+003, 8.637179e-001
1.168651e+003, 8.631113e-001
1.170579e+003, 8.622547e-001
1.172508e+003, 8.616702e-001
1.174436e+003, 8.626384e-001
1.176365e+003, 8.625638e-001
1.178293e+003, 8.625178e-001
1.180222e+003, 8.628953e-001
1.182150e+003, 8.632383e-001
1.184078e+003, 8.638134e-001
1.186007e+003, 8.651558e-001
1.187935e+003, 8.655725e-001
1.189864e+003, 8.667579e-001
1.191792e+003, 8.682188e-001
1.193721e+003, 8.698530e-001
1.195649e+003, 8.711601e-001
1.197578e+003, 8.721753e-001
1.199506e+003, 8.718994e-001
1.201435e+003, 8.736417e-001
1.203363e+003, 8.763084e-001
1.205292e+003, 8.777129e-001
1.207220e+003, 8.784064e-001
1.209149e+003, 8.789542e-001
1.211077e+003, 8.802633e-001
1.213005e+003, 8.818663e-001
1.214934e+003, 8.835273e-001
1.216862e+003, 8.839285e-001
1.218791e+003, 8.850102e-001
1.220719e+003, 8.861985e-001
1.222648e+003, 8.869994e-001
1.224576e+003, 8.889697e-001
1.226505e+003, 8.898154e-001
1.228433e+003, 8.909257e-001
1.230362e+003, 8.927281e-001
1.232290e+003, 8.943196e-001
1.234219e+003, 8.956475e-001
1.236147e+003, 8.970455e-001
1.238076e+003, 8.985594e-001
1.240004e+003, 8.996691e-001
1.241932e+003, 9.004502e-001
1.243861e+003, 9.017200e-001
1.245789e+003, 9.027799e-001
1.247718e+003, 9.037853e-001
1.249646e+003, 9.051019e-001
1.251575e+003, 9.063393e-001
1.253503e+003, 9.073177e-001
1.255432e+003, 9.081003e-001
1.257360e+003, 9.094527e-001
1.259289e+003, 9.108644e-001
1.261217e+003, 9.128458e-001
1.263146e+003, 9.147817e-001
1.265074e+003, 9.150738e-001
1.267003e+003, 9.160291e-001
1.268931e+003, 9.169180e-001
1.270859e+003, 9.179190e-001
1.272788e+003, 9.191279e-001
1.274716e+003, 9.204934e-001
1.276645e+003, 9.206790e-001
1.278573e+003, 9.216494e-001
1.280502e+003, 9.243838e-001
1.282430e+003, 9.262238e-001
1.284359e+003, 9.269356e-001
1.286287e+003, 9.284033e-001
1.288216e+003, 9.301300e-001
1.290144e+003, 9.309697e-001
1.292073e+003, 9.320296e-001
1.294001e+003, 9.329903e-001
1.295930e+003, 9.333514e-001
1.297858e+003, 9.341535e-001
1.299786e+003, 9.364429e-001
1.301715e+003, 9.386557e-001
1.303643e+003, 9.391050e-001
1.305572e+003, 9.389524e-001
1.307500e+003, 9.410592e-001
1.309429e+003, 9.421774e-001
1.311357e+003, 9.429467e-001
1.313286e+003, 9.438148e-001
1.315214e+003, 9.446180e-001
1.317143e+003, 9.462312e-001
1.319071e+003, 9.476467e-001
1.321000e+003, 9.483328e-001
1.322928e+003, 9.490696e-001
1.324857e+003, 9.500576e-001
1.326785e+003, 9.514866e-001
1.328714e+003, 9.534633e-001
1.330642e+003, 9.545342e-001
1.332570e+003, 9.552374e-001
1.334499e+003, 9.566152e-001
1.336427e+003, 9.572377e-001
1.338356e+003, 9.589794e-001
1.340284e+003, 9.601237e-001
1.342213e+003, 9.606304e-001
1.344141e+003, 9.614725e-001
1.346070e+003, 9.630151e-001
1.347998e+003, 9.641758e-001
1.349927e+003, 9.645007e-001
1.351855e+003, 9.654401e-001
1.353784e+003, 9.666153e-001
1.355712e+003, 9.668679e-001
1.357641e+003, 9.672540e-001
1.359569e+003, 9.683444e-001
1.361497e+003, 9.694144e-001
1.363426e+003, 9.711518e-001
1.365354e+003, 9.714962e-001
1.367283e+003, 9.718950e-001
1.369211e+003, 9.745029e-001
1.371140e+003, 9.764901e-001
1.373068e+003, 9.764163e-001
1.374997e+003, 9.760981e-001
1.376925e+003, 9.771285e-001
1.378854e+003, 9.787943e-001
1.380782e+003, 9.806187e-001
1.382711e+003, 9.818259e-001
1.384639e+003, 9.824638e-001
1.386568e+003, 9.830868e-001
1.388496e+003, 9.839922e-001
1.390424e+003, 9.849507e-001
1.392353e+003, 9.861028e-001
1.394281e+003, 9.876783e-001
1.396210e+003, 9.890667e-001
1.398138e+003, 9.897480e-001
1.400067e+003, 9.902614e-001
1.401995e+003, 9.916220e-001
1.403924e+003, 9.914918e-001
1.405852e+003, 9.917822e-001
1.407781e+003, 9.938077e-001
1.409709e+003, 9.959607e-001
1.411638e+003, 9.975039e-001
1.413566e+003, 9.986296e-001
1.415495e+003, 9.997841e-001
1.417423e+003, 9.993516e-001
1.419351e+003, 9.995786e-001
1.421280e+003, 1.001519e+000
1.423208e+003, 1.002774e+000
1.425137e+003, 1.003755e+000
1.427065e+003, 1.004396e+000
1.428994e+003, 1.005571e+000
1.430922e+003, 1.006516e+000
1.432851e+003, 1.008140e+000
1.434779e+003, 1.009189e+000
1.436708e+003, 1.009367e+000
1.438636e+003, 1.010020e+000
1.440565e+003, 1.010591e+000
1.442493e+003, 1.011162e+000
1.444422e+003, 1.012099e+000
1.446350e+003, 1.012805e+000
1.448278e+003, 1.014048e+000
1.450207e+003, 1.014912e+000
1.452135e+003, 1.016417e+000
1.454064e+003, 1.018054e+000
1.455992e+003, 1.019180e+000
1.457921e+003, 1.020552e+000
1.459849e+003, 1.021434e+000
1.461778e+003, 1.020946e+000
1.463706e+003, 1.021293e+000
1.465635e+003, 1.022172e+000
1.467563e+003, 1.023231e+000
1.469492e+003, 1.024039e+000
1.471420e+003, 1.024640e+000
1.473349e+003, 1.025979e+000
1.475277e+003, 1.027854e+000
1.477205e+003, 1.029310e+000
1.479134e+003, 1.030599e+000
1.481062e+003, 1.031748e+000
1.482991e+003, 1.033090e+000
1.484919e+003, 1.033631e+000
1.486848e+003, 1.034284e+000
1.488776e+003, 1.035486e+000
1.490705e+003, 1.036444e+000
1.492633e+003, 1.037498e+000
1.494562e+003, 1.038741e+000
1.496490e+003, 1.039680e+000
1.498419e+003, 1.040597e+000
1.500347e+003, 1.041325e+000
1.502276e+003, 1.042104e+000
1.504204e+003, 1.042669e+000
1.506132e+003, 1.043494e+000
1.508061e+003, 1.044576e+000
1.509989e+003, 1.045471e+000
1.511918e+003, 1.046931e+000
1.513846e+003, 1.048485e+000
1.515775e+003, 1.049668e+000
1.517703e+003, 1.050709e+000
1.519632e+003, 1.051643e+000
1.521560e+003, 1.052746e+000
1.523489e+003, 1.052369e+000
1.525417e+003, 1.052271e+000
1.527346e+003, 1.052667e+000
1.529274e+003, 1.054032e+000
1.531203e+003, 1.054473e+000
1.533131e+003, 1.055240e+000
1.535059e+003, 1.055732e+000
1.536988e+003, 1.057686e+000
1.538916e+003, 1.059056e+000
1.540845e+003, 1.058054e+000
1.542773e+003, 1.058700e+000
1.544702e+003, 1.059996e+000
1.546630e+003, 1.061471e+000
1.548559e+003, 1.062481e+000
1.550487e+003, 1.063696e+000
1.552416e+003, 1.063866e+000
1.554344e+003, 1.063170e+000
1.556273e+003, 1.063636e+000
1.558201e+003, 1.065217e+000
1.560130e+003, 1.066414e+000
1.562058e+003, 1.067002e+000
1.563986e+003, 1.067822e+000
1.565915e+003, 1.069017e+000
1.567843e+003, 1.070741e+000
1.569772e+003, 1.070960e+000
1.571700e+003, 1.071273e+000
1.573629e+003, 1.072821e+000
1.575557e+003, 1.073132e+000
1.577486e+003, 1.073143e+000
1.579414e+003, 1.075174e+000
1.581343e+003, 1.076688e+000
1.583271e+003, 1.076756e+000
1.585200e+003, 1.076867e+000
1.587128e+003, 1.077567e+000
1.589057e+003, 1.078806e+000
1.590985e+003, 1.079327e+000
1.592913e+003, 1.080329e+000
1.594842e+003, 1.082240e+000
1.596770e+003, 1.082776e+000
1.598699e+003, 1.082728e+000
1.600627e+003, 1.082496e+000
1.602556e+003, 1.082274e+000
1.604484e+003, 1.083991e+000
1.606413e+003, 1.085768e+000
1.608341e+003, 1.085629e+000
1.610270e+003, 1.086179e+000
1.612198e+003, 1.088754e+000
1.614127e+003, 1.090451e+000
1.616055e+003, 1.089504e+000
1.617984e+003, 1.089093e+000
1.619912e+003, 1.089255e+000
1.621840e+003, 1.090357e+000
1.623769e+003, 1.091498e+000
1.625697e+003, 1.092031e+000
1.627626e+003, 1.092159e+000
1.629554e+003, 1.093943e+000
1.631483e+003, 1.094747e+000
1.633411e+003, 1.093717e+000
1.635340e+003, 1.094561e+000
1.637268e+003, 1.096536e+000
1.639197e+003, 1.097545e+000
1.641125e+003, 1.098298e+000
1.643054e+003, 1.098069e+000
1.644982e+003, 1.098145e+000
1.646911e+003, 1.098913e+000
1.648839e+003, 1.100177e+000
1.650767e+003, 1.100574e+000
1.652696e+003, 1.100804e+000
1.654624e+003, 1.101316e+000
1.656553e+003, 1.102472e+000
1.658481e+003, 1.103718e+000
1.660410e+003, 1.105127e+000
1.662338e+003, 1.106746e+000
1.664267e+003, 1.107145e+000
1.666195e+003, 1.106618e+000
1.668124e+003, 1.107631e+000
1.670052e+003, 1.109005e+000
1.671981e+003, 1.110010e+000
1.673909e+003, 1.111259e+000
1.675838e+003, 1.111432e+000
1.677766e+003, 1.111768e+000
1.679694e+003, 1.111958e+000
1.681623e+003, 1.111800e+000
1.683551e+003, 1.112220e+000
1.685480e+003, 1.113009e+000
1.687408e+003, 1.113124e+000
1.689337e+003, 1.114084e+000
1.691265e+003, 1.115885e+000
1.693194e+003, 1.117510e+000
1.695122e+003, 1.118370e+000
1.697051e+003, 1.118978e+000
1.698979e+003, 1.118511e+000
1.700908e+003, 1.117487e+000
1.702836e+003, 1.117874e+000
1.704765e+003, 1.118576e+000
1.706693e+003, 1.120145e+000
1.708621e+003, 1.121369e+000
1.710550e+003, 1.121902e+000
1.712478e+003, 1.122260e+000
1.714407e+003, 1.123830e+000
1.716335e+003, 1.125110e+000
1.718264e+003, 1.124802e+000
1.720192e+003, 1.124730e+000
1.722121e+003, 1.125328e+000
1.724049e+003, 1.124665e+000
1.725978e+003, 1.125450e+000
1.727906e+003, 1.127585e+000
1.729835e+003, 1.128596e+000
1.731763e+003, 1.127551e+000
1.733692e+003, 1.126468e+000
1.735620e+003, 1.128070e+000
1.737548e+003, 1.128934e+000
1.739477e+003, 1.128040e+000
1.741405e+003, 1.129526e+000
1.743334e+003, 1.131212e+000
1.745262e+003, 1.130846e+000
1.747191e+003, 1.131206e+000
1.749119e+003, 1.131773e+000
1.751048e+003, 1.133302e+000
1.752976e+003, 1.136019e+000
1.754905e+003, 1.137442e+000
1.756833e+003, 1.137625e+000
1.758762e+003, 1.138612e+000
1.760690e+003, 1.138359e+000
1.762619e+003, 1.138145e+000
1.764547e+003, 1.139493e+000
1.766475e+003, 1.141141e+000
1.768404e+003, 1.142732e+000
1.770332e+003, 1.144338e+000
1.772261e+003, 1.143562e+000
1.774189e+003, 1.143313e+000
1.776118e+003, 1.146270e+000
1.778046e+003, 1.147854e+000
1.779975e+003, 1.147547e+000
1.781903e+003, 1.147468e+000
1.783832e+003, 1.147919e+000
1.785760e+003, 1.149180e+000
1.787689e+003, 1.150180e+000
1.789617e+003, 1.151489e+000
1.791546e+003, 1.152357e+000
1.793474e+003, 1.151833e+000
1.795402e+003, 1.151770e+000
1.797331e+003, 1.152782e+000
1.799259e+003, 1.153056e+000
1.801188e+003, 1.152295e+000
1.803116e+003, 1.153504e+000
1.805045e+003, 1.155037e+000
1.806973e+003, 1.156341e+000
1.808902e+003, 1.156031e+000
1.810830e+003, 1.154445e+000
1.812759e+003, 1.153419e+000
1.814687e+003, 1.154449e+000
1.816616e+003, 1.157587e+000
1.818544e+003, 1.158952e+000
1.820473e+003, 1.159321e+000
1.822401e+003, 1.159525e+000
1.824329e+003, 1.160413e+000
1.826258e+003, 1.161037e+000
1.828186e+003, 1.161951e+000
1.830115e+003, 1.162366e+000
1.832043e+003, 1.163878e+000
1.833972e+003, 1.164462e+000
1.835900e+003, 1.165745e+000
1.837829e+003, 1.166705e+000
1.839757e+003, 1.166131e+000
1.841686e+003, 1.166105e+000
1.843614e+003, 1.167313e+000
1.845543e+003, 1.167952e+000
1.847471e+003, 1.169068e+000
1.849400e+003, 1.170541e+000
1.851328e+003, 1.169698e+000
1.853256e+003, 1.170094e+000
1.855185e+003, 1.172174e+000
1.857113e+003, 1.170677e+000
1.859042e+003, 1.169413e+000
1.860970e+003, 1.168370e+000
1.862899e+003, 1.169702e+000
1.864827e+003, 1.171874e+000
1.866756e+003, 1.172740e+000
1.868684e+003, 1.174891e+000
1.870613e+003, 1.176109e+000
1.872541e+003, 1.175906e+000
1.874470e+003, 1.177253e+000
1.876398e+003, 1.177821e+000
1.878327e+003, 1.174849e+000
1.880255e+003, 1.173883e+000
1.882183e+003, 1.177031e+000
1.884112e+003, 1.176753e+000
1.886040e+003, 1.174548e+000
1.887969e+003, 1.174727e+000
1.889897e+003, 1.177599e+000
1.891826e+003, 1.179389e+000
1.893754e+003, 1.180292e+000
1.895683e+003, 1.179684e+000
1.897611e+003, 1.179424e+000
1.899540e+003, 1.182269e+000
1.901468e+003, 1.184990e+000
1.903397e+003, 1.183367e+000
1.905325e+003, 1.179111e+000
1.907254e+003, 1.177935e+000
1.909182e+003, 1.177530e+000
1.911110e+003, 1.176570e+000
1.913039e+003, 1.178713e+000
1.914967e+003, 1.181375e+000
1.916896e+003, 1.181248e+000
1.918824e+003, 1.180883e+000
1.920753e+003, 1.180339e+000
1.922681e+003, 1.181628e+000
1.924610e+003, 1.183000e+000
1.926538e+003, 1.183958e+000
1.928467e+003, 1.186770e+000
1.930395e+003, 1.183532e+000
1.932324e+003, 1.179866e+000
1.934252e+003, 1.182180e+000
1.936181e+003, 1.185020e+000
1.938109e+003, 1.187510e+000
1.940037e+003, 1.185181e+000
1.941966e+003, 1.181269e+000
1.943894e+003, 1.182447e+000
1.945823e+003, 1.184883e+000
1.947751e+003, 1.185039e+000
1.949680e+003, 1.188497e+000
1.951608e+003, 1.188866e+000
1.953537e+003, 1.187703e+000
1.955465e+003, 1.185394e+000
1.957394e+003, 1.180209e+000
1.959322e+003, 1.180877e+000
1.961251e+003, 1.180269e+000
1.963179e+003, 1.176108e+000
1.965108e+003, 1.176744e+000
1.967036e+003, 1.179104e+000
1.968964e+003, 1.177045e+000
1.970893e+003, 1.176635e+000
1.972821e+003, 1.181281e+000
1.974750e+003, 1.183423e+000
1.976678e+003, 1.183432e+000
1.978607e+003, 1.186485e+000
1.980535e+003, 1.184025e+000
1.982464e+003, 1.185348e+000
1.984392e+003, 1.193048e+000
1.986321e+003, 1.193976e+000
1.988249e+003, 1.193279e+000
1.990178e+003, 1.197225e+000
1.992106e+003, 1.195832e+000
1.994035e+003, 1.190981e+000
1.995963e+003, 1.192515e+000
1.997891e+003, 1.190046e+000
1.999820e+003, 1.192077e+000
2.001748e+003, 1.197033e+000
2.003677e+003, 1.190771e+000
2.005605e+003, 1.181382e+000
2.007534e+003, 1.183315e+000
2.009462e+003, 1.187228e+000
2.011391e+003, 1.187166e+000
2.013319e+003, 1.195476e+000
2.015248e+003, 1.195206e+000
2.017176e+003, 1.194863e+000
2.019105e+003, 1.198894e+000
2.021033e+003, 1.200043e+000
2.022962e+003, 1.192756e+000
2.024890e+003, 1.190516e+000
2.026818e+003, 1.190853e+000
2.028747e+003, 1.188804e+000
2.030675e+003, 1.192921e+000
2.032604e+003, 1.205394e+000
2.034532e+003, 1.212073e+000
2.036461e+003, 1.207284e+000
2.038389e+003, 1.204946e+000
2.040318e+003, 1.200006e+000
2.042246e+003, 1.194901e+000
2.044175e+003, 1.202210e+000
2.046103e+003, 1.210253e+000
2.048031e+003, 1.211411e+000
2.049960e+003, 1.212456e+000
2.051888e+003, 1.217053e+000
2.053817e+003, 1.217278e+000
2.055745e+003, 1.214227e+000
2.057674e+003, 1.217630e+000
2.059602e+003, 1.220403e+000
2.061531e+003, 1.219229e+000
2.063459e+003, 1.220115e+000
2.065388e+003, 1.222998e+000
2.067316e+003, 1.226175e+000
2.069245e+003, 1.224775e+000
2.071173e+003, 1.226188e+000
2.073102e+003, 1.229667e+000
2.075030e+003, 1.227988e+000
2.076958e+003, 1.224898e+000
2.078887e+003, 1.228569e+000
2.080815e+003, 1.232194e+000
2.082744e+003, 1.232161e+000
2.084672e+003, 1.232945e+000
2.086601e+003, 1.228373e+000
2.088529e+003, 1.227884e+000
2.090458e+003, 1.229739e+000
2.092386e+003, 1.231131e+000
2.094315e+003, 1.228611e+000
2.096243e+003, 1.232053e+000
2.098172e+003, 1.238070e+000
2.100100e+003, 1.239769e+000
2.102029e+003, 1.238390e+000
2.103957e+003, 1.237605e+000
2.105885e+003, 1.240005e+000
2.107814e+003, 1.239386e+000
2.109742e+003, 1.237402e+000
2.111671e+003, 1.237985e+000
2.113599e+003, 1.239624e+000
2.115528e+003, 1.246283e+000
2.117456e+003, 1.247648e+000
2.119385e+003, 1.243690e+000
2.121313e+003, 1.242573e+000
2.123242e+003, 1.241364e+000
2.125170e+003, 1.242613e+000
2.127099e+003, 1.245269e+000
2.129027e+003, 1.246244e+000
2.130956e+003, 1.247397e+000
2.132884e+003, 1.243935e+000
2.134813e+003, 1.244364e+000
2.136741e+003, 1.246449e+000
2.138669e+003, 1.242718e+000
2.140598e+003, 1.236437e+000
2.142526e+003, 1.232544e+000
2.144455e+003, 1.230611e+000
2.146383e+003, 1.232661e+000
2.148312e+003, 1.236561e+000
2.150240e+003, 1.234316e+000
2.152169e+003, 1.231329e+000
2.154097e+003, 1.226291e+000
2.156026e+003, 1.215807e+000
2.157954e+003, 1.220299e+000
2.159883e+003, 1.230119e+000
2.161811e+003, 1.234185e+000
2.163740e+003, 1.237418e+000
2.165668e+003, 1.242616e+000
2.167596e+003, 1.242026e+000
2.169525e+003, 1.238969e+000
2.171453e+003, 1.234499e+000
2.173382e+003, 1.237226e+000
2.175310e+003, 1.249225e+000
2.177239e+003, 1.257967e+000
2.179167e+003, 1.254386e+000
2.181096e+003, 1.250969e+000
2.183024e+003, 1.258600e+000
2.184953e+003, 1.261698e+000
2.186881e+003, 1.255928e+000
2.188810e+003, 1.252359e+000
2.190738e+003, 1.254236e+000
2.192667e+003, 1.256769e+000
2.194595e+003, 1.260032e+000
2.196523e+003, 1.257576e+000
2.198452e+003, 1.257549e+000
2.200380e+003, 1.257279e+000
2.202309e+003, 1.253324e+000
2.204237e+003, 1.249709e+000
2.206166e+003, 1.255462e+000
2.208094e+003, 1.259968e+000
2.210023e+003, 1.261053e+000
2.211951e+003, 1.262470e+000
2.213880e+003, 1.263372e+000
2.215808e+003, 1.263405e+000
2.217737e+003, 1.260418e+000
2.219665e+003, 1.261753e+000
2.221594e+003, 1.264035e+000
2.223522e+003, 1.264743e+000
2.225450e+003, 1.264577e+000
2.227379e+003, 1.263603e+000
2.229307e+003, 1.262777e+000
2.231236e+003, 1.267139e+000
2.233164e+003, 1.269637e+000
2.235093e+003, 1.271668e+000
2.237021e+003, 1.269502e+000
2.238950e+003, 1.264627e+000
2.240878e+003, 1.268960e+000
2.242807e+003, 1.273312e+000
2.244735e+003, 1.275069e+000
2.246664e+003, 1.273470e+000
2.248592e+003, 1.271204e+000
2.250521e+003, 1.272633e+000
2.252449e+003, 1.277690e+000
2.254377e+003, 1.278913e+000
2.256306e+003, 1.273908e+000
2.258234e+003, 1.276747e+000
2.260163e+003, 1.280484e+000
2.262091e+003, 1.280230e+000
2.264020e+003, 1.282971e+000
2.265948e+003, 1.281758e+000
2.267877e+003, 1.280793e+000
2.269805e+003, 1.280835e+000
2.271734e+003, 1.279270e+000
2.273662e+003, 1.281248e+000
2.275591e+003, 1.286597e+000
2.277519e+003, 1.288923e+000
2.279448e+003, 1.287122e+000
2.281376e+003, 1.285239e+000
2.283304e+003, 1.287722e+000
2.285233e+003, 1.286885e+000
2.287161e+003, 1.285947e+000
2.289090e+003, 1.287398e+000
2.291018e+003, 1.290300e+000
2.292947e+003, 1.295365e+000
2.294875e+003, 1.294749e+000
2.296804e+003, 1.292219e+000
2.298732e+003, 1.292877e+000
2.300661e+003, 1.294718e+000
2.302589e+003, 1.295760e+000
2.304518e+003, 1.295913e+000
2.306446e+003, 1.296507e+000
2.308375e+003, 1.296608e+000
2.310303e+003, 1.297297e+000
2.312231e+003, 1.297304e+000
2.314160e+003, 1.298041e+000
2.316088e+003, 1.300359e+000
2.318017e+003, 1.302136e+000
2.319945e+003, 1.302910e+000
2.321874e+003, 1.303485e+000
2.323802e+003, 1.303434e+000
2.325731e+003, 1.302565e+000
2.327659e+003, 1.301656e+000
2.329588e+003, 1.303792e+000
2.331516e+003, 1.305199e+000
2.333445e+003, 1.305081e+000
2.335373e+003, 1.306848e+000
2.337302e+003, 1.307636e+000
2.339230e+003, 1.306466e+000
2.341158e+003, 1.306690e+000
2.343087e+003, 1.306746e+000
2.345015e+003, 1.308366e+000
2.346944e+003, 1.309800e+000
2.348872e+003, 1.310836e+000
2.350801e+003, 1.310934e+000
2.352729e+003, 1.310714e+000
2.354658e+003, 1.311033e+000
2.356586e+003, 1.311318e+000
2.358515e+003, 1.310553e+000
2.360443e+003, 1.310025e+000
2.362372e+003, 1.310495e+000
2.364300e+003, 1.311759e+000
2.366229e+003, 1.311172e+000
2.368157e+003, 1.311406e+000
2.370085e+003, 1.311323e+000
2.372014e+003, 1.312086e+000
2.373942e+003, 1.313164e+000
2.375871e+003, 1.313865e+000
2.377799e+003, 1.314340e+000
2.379728e+003, 1.314872e+000
2.381656e+003, 1.314609e+000
2.383585e+003, 1.314845e+000
2.385513e+003, 1.313686e+000
2.387442e+003, 1.314927e+000
2.389370e+003, 1.315817e+000
2.391299e+003, 1.315579e+000
2.393227e+003, 1.316704e+000
2.395156e+003, 1.314005e+000
2.397084e+003, 1.314710e+000
2.399012e+003, 1.317033e+000
2.400941e+003, 1.317764e+000
2.402869e+003, 1.318932e+000
2.404798e+003, 1.318416e+000
2.406726e+003, 1.318329e+000
2.408655e+003, 1.320776e+000
2.410583e+003, 1.321272e+000
2.412512e+003, 1.318581e+000
2.414440e+003, 1.319597e+000
2.416369e+003, 1.320194e+000
2.418297e+003, 1.319574e+000
2.420226e+003, 1.321856e+000
2.422154e+003, 1.323181e+000
2.424083e+003, 1.322830e+000
2.426011e+003, 1.322452e+000
2.427939e+003, 1.322900e+000
2.429868e+003, 1.323705e+000
2.431796e+003, 1.323043e+000
2.433725e+003, 1.322246e+000
2.435653e+003, 1.324639e+000
2.437582e+003, 1.323624e+000
2.439510e+003, 1.323949e+000
2.441439e+003, 1.326429e+000
2.443367e+003, 1.327606e+000
2.445296e+003, 1.325491e+000
2.447224e+003, 1.324959e+000
2.449153e+003, 1.327987e+000
2.451081e+003, 1.328023e+000
2.453010e+003, 1.326232e+000
2.454938e+003, 1.327981e+000
2.456866e+003, 1.330914e+000
2.458795e+003, 1.330936e+000
2.460723e+003, 1.328821e+000
2.462652e+003, 1.329225e+000
2.464580e+003, 1.330354e+000
2.466509e+003, 1.331232e+000
2.468437e+003, 1.331716e+000
2.470366e+003, 1.331110e+000
2.472294e+003, 1.332353e+000
2.474223e+003, 1.331424e+000
2.476151e+003, 1.329200e+000
2.478080e+003, 1.330043e+000
2.480008e+003, 1.333514e+000
2.481937e+003, 1.334185e+000
2.483865e+003, 1.333250e+000
2.485793e+003, 1.335830e+000
2.487722e+003, 1.335929e+000
2.489650e+003, 1.334313e+000
2.491579e+003, 1.335981e+000
2.493507e+003, 1.336581e+000
2.495436e+003, 1.338068e+000
2.497364e+003, 1.338881e+000
2.499293e+003, 1.333860e+000
2.501221e+003, 1.332947e+000
2.503150e+003, 1.334001e+000
2.505078e+003, 1.332959e+000
2.507007e+003, 1.336087e+000
2.508935e+003, 1.340230e+000
2.510864e+003, 1.340490e+000
2.512792e+003, 1.339929e+000
2.514720e+003, 1.338090e+000
2.516649e+003, 1.338151e+000
2.518577e+003, 1.340992e+000
2.520506e+003, 1.345428e+000
2.522434e+003, 1.343678e+000
2.524363e+003, 1.342528e+000
2.526291e+003, 1.341272e+000
2.528220e+003, 1.340493e+000
2.530148e+003, 1.339684e+000
2.532077e+003, 1.341723e+000
2.534005e+003, 1.342330e+000
2.535934e+003, 1.342472e+000
2.537862e+003, 1.343901e+000
2.539791e+003, 1.347171e+000
2.541719e+003, 1.346285e+000
2.543647e+003, 1.345442e+000
2.545576e+003, 1.345142e+000
2.547504e+003, 1.342165e+000
2.549433e+003, 1.343012e+000
2.551361e+003, 1.346430e+000
2.553290e+003, 1.348820e+000
2.555218e+003, 1.348845e+000
2.557147e+003, 1.347303e+000
2.559075e+003, 1.348785e+000
2.561004e+003, 1.350344e+000
2.562932e+003, 1.348917e+000
2.564861e+003, 1.346889e+000
2.566789e+003, 1.346357e+000
2.568718e+003, 1.349215e+000
2.570646e+003, 1.352701e+000
2.572574e+003, 1.352413e+000
2.574503e+003, 1.350073e+000
2.576431e+003, 1.351762e+000
2.578360e+003, 1.352015e+000
2.580288e+003, 1.350847e+000
2.582217e+003, 1.353867e+000
2.584145e+003, 1.357193e+000
2.586074e+003, 1.354470e+000
2.588002e+003, 1.354271e+000
2.589931e+003, 1.356581e+000
2.591859e+003, 1.357288e+000
2.593788e+003, 1.356154e+000
2.595716e+003, 1.354051e+000
2.597645e+003, 1.353558e+000
2.599573e+003, 1.355768e+000
2.601501e+003, 1.356589e+000
2.603430e+003, 1.359375e+000
2.605358e+003, 1.360712e+000
2.607287e+003, 1.357004e+000
2.609215e+003, 1.357384e+000
2.611144e+003, 1.359360e+000
2.613072e+003, 1.359500e+000
2.615001e+003, 1.360106e+000
2.616929e+003, 1.361213e+000
2.618858e+003, 1.361975e+000
2.620786e+003, 1.363923e+000
2.622715e+003, 1.364749e+000
2.624643e+003, 1.362431e+000
2.626572e+003, 1.362605e+000
2.628500e+003, 1.363150e+000
2.630428e+003, 1.363680e+000
2.632357e+003, 1.364361e+000
2.634285e+003, 1.364651e+000
2.636214e+003, 1.365746e+000
2.638142e+003, 1.366885e+000
2.640071e+003, 1.367763e+000
2.641999e+003, 1.368269e+000
2.643928e+003, 1.369813e+000
2.645856e+003, 1.369544e+000
2.647785e+003, 1.368547e+000
2.649713e+003, 1.369565e+000
2.651642e+003, 1.371053e+000
2.653570e+003, 1.371983e+000
2.655499e+003, 1.372835e+000
2.657427e+003, 1.372843e+000
2.659355e+003, 1.373110e+000
2.661284e+003, 1.372778e+000
2.663212e+003, 1.373458e+000
2.665141e+003, 1.373127e+000
2.667069e+003, 1.374097e+000
2.668998e+003, 1.374442e+000
2.670926e+003, 1.373869e+000
2.672855e+003, 1.374997e+000
2.674783e+003, 1.376745e+000
2.676712e+003, 1.376083e+000
2.678640e+003, 1.375719e+000
2.680569e+003, 1.378037e+000
2.682497e+003, 1.379223e+000
2.684426e+003, 1.378763e+000
2.686354e+003, 1.378849e+000
2.688282e+003, 1.378471e+000
2.690211e+003, 1.378282e+000
2.692139e+003, 1.379571e+000
2.694068e+003, 1.379361e+000
2.695996e+003, 1.380413e+000
2.697925e+003, 1.381838e+000
2.699853e+003, 1.381816e+000
2.701782e+003, 1.383310e+000
2.703710e+003, 1.384720e+000
2.705639e+003, 1.382623e+000
2.707567e+003, 1.381878e+000
2.709496e+003, 1.384503e+000
2.711424e+003, 1.386517e+000
2.713353e+003, 1.385366e+000
2.715281e+003, 1.383860e+000
2.717209e+003, 1.383260e+000
2.719138e+003, 1.383421e+000
2.721066e+003, 1.385274e+000
2.722995e+003, 1.387875e+000
2.724923e+003, 1.387168e+000
2.726852e+003, 1.385341e+000
2.728780e+003, 1.385150e+000
2.730709e+003, 1.385825e+000
2.732637e+003, 1.388503e+000
2.734566e+003, 1.390683e+000
2.736494e+003, 1.390552e+000
2.738423e+003, 1.390073e+000
2.740351e+003, 1.388299e+000
2.742280e+003, 1.388305e+000
2.744208e+003, 1.388739e+000
2.746136e+003, 1.388166e+000
2.748065e+003, 1.388333e+000
2.749993e+003, 1.389670e+000
2.751922e+003, 1.391254e+000
2.753850e+003, 1.391847e+000
2.755779e+003, 1.391030e+000
2.757707e+003, 1.391010e+000
2.759636e+003, 1.392534e+000
2.761564e+003, 1.392533e+000
2.763493e+003, 1.391349e+000
2.765421e+003, 1.391719e+000
2.767350e+003, 1.393015e+000
2.769278e+003, 1.392945e+000
2.771207e+003, 1.395027e+000
2.773135e+003, 1.396760e+000
2.775063e+003, 1.397017e+000
2.776992e+003, 1.395562e+000
2.778920e+003, 1.393992e+000
2.780849e+003, 1.394712e+000
2.782777e+003, 1.395883e+000
2.784706e+003, 1.396303e+000
2.786634e+003, 1.397316e+000
2.788563e+003, 1.396793e+000
2.790491e+003, 1.395776e+000
2.792420e+003, 1.396399e+000
2.794348e+003, 1.397028e+000
2.796277e+003, 1.396683e+000
2.798205e+003, 1.398214e+000
2.800134e+003, 1.400930e+000
2.802062e+003, 1.401684e+000
2.803990e+003, 1.400153e+000
2.805919e+003, 1.398665e+000
2.807847e+003, 1.399407e+000
2.809776e+003, 1.401583e+000
2.811704e+003, 1.403858e+000
2.813633e+003, 1.403481e+000
2.815561e+003, 1.403281e+000
2.817490e+003, 1.402870e+000
2.819418e+003, 1.403136e+000
2.821347e+003, 1.404262e+000
2.823275e+003, 1.404824e+000
2.825204e+003, 1.404280e+000
2.827132e+003, 1.405264e+000
2.829061e+003, 1.407544e+000
2.830989e+003, 1.408539e+000
2.832917e+003, 1.407647e+000
2.834846e+003, 1.405815e+000
2.836774e+003, 1.409208e+000
2.838703e+003, 1.411699e+000
2.840631e+003, 1.409525e+000
2.842560e+003, 1.408306e+000
2.844488e+003, 1.409009e+000
2.846417e+003, 1.409345e+000
2.848345e+003, 1.409932e+000
2.850274e+003, 1.407428e+000
2.852202e+003, 1.403816e+000
2.854131e+003, 1.403714e+000
2.856059e+003, 1.403926e+000
2.857988e+003, 1.405224e+000
2.859916e+003, 1.406406e+000
2.861844e+003, 1.407451e+000
2.863773e+003, 1.407053e+000
2.865701e+003, 1.406163e+000
2.867630e+003, 1.406626e+000
2.869558e+003, 1.408622e+000
2.871487e+003, 1.410672e+000
2.873415e+003, 1.409142e+000
2.875344e+003, 1.405877e+000
2.877272e+003, 1.408766e+000
2.879201e+003, 1.411490e+000
2.881129e+003, 1.411384e+000
2.883058e+003, 1.410098e+000
2.884986e+003, 1.409760e+000
2.886915e+003, 1.412618e+000
2.888843e+003, 1.414605e+000
2.890771e+003, 1.414276e+000
2.892700e+003, 1.414194e+000
2.894628e+003, 1.415347e+000
2.896557e+003, 1.414324e+000
2.898485e+003, 1.414638e+000
2.900414e+003, 1.415859e+000
2.902342e+003, 1.415696e+000
2.904271e+003, 1.414756e+000
2.906199e+003, 1.416005e+000
2.908128e+003, 1.418254e+000
2.910056e+003, 1.419786e+000
2.911985e+003, 1.417222e+000
2.913913e+003, 1.417199e+000
2.915842e+003, 1.418763e+000
2.917770e+003, 1.418518e+000
2.919698e+003, 1.416343e+000
2.921627e+003, 1.412722e+000
2.923555e+003, 1.412496e+000
2.925484e+003, 1.409038e+000
2.927412e+003, 1.407276e+000
2.929341e+003, 1.409094e+000
2.931269e+003, 1.408246e+000
2.933198e+003, 1.403021e+000
2.935126e+003, 1.400913e+000
2.937055e+003, 1.404285e+000
2.938983e+003, 1.406067e+000
2.940912e+003, 1.408423e+000
2.942840e+003, 1.410297e+000
2.944769e+003, 1.412105e+000
2.946697e+003, 1.410477e+000
2.948625e+003, 1.409717e+000
2.950554e+003, 1.411658e+000
2.952482e+003, 1.413386e+000
2.954411e+003, 1.411805e+000
2.956339e+003, 1.410108e+000
2.958268e+003, 1.410258e+000
2.960196e+003, 1.409536e+000
2.962125e+003, 1.408007e+000
2.964053e+003, 1.407605e+000
2.965982e+003, 1.410870e+000
2.967910e+003, 1.409932e+000
2.969839e+003, 1.407282e+000
2.971767e+003, 1.408646e+000
2.973696e+003, 1.409280e+000
2.975624e+003, 1.408037e+000
2.977552e+003, 1.409867e+000
2.979481e+003, 1.411550e+000
2.981409e+003, 1.411839e+000
2.983338e+003, 1.413368e+000
2.985266e+003, 1.413408e+000
2.987195e+003, 1.412589e+000
2.989123e+003, 1.412479e+000
2.991052e+003, 1.414536e+000
2.992980e+003, 1.414779e+000
2.994909e+003, 1.416701e+000
2.996837e+003, 1.418961e+000
2.998766e+003, 1.420518e+000
3.000694e+003, 1.421269e+000
3.002623e+003, 1.419688e+000
3.004551e+003, 1.418279e+000
3.006479e+003, 1.418043e+000
3.008408e+003, 1.416512e+000
3.010336e+003, 1.414748e+000
3.012265e+003, 1.415701e+000
3.014193e+003, 1.415612e+000
3.016122e+003, 1.416728e+000
3.018050e+003, 1.418724e+000
3.019979e+003, 1.423069e+000
3.021907e+003, 1.421339e+000
3.023836e+003, 1.419188e+000
3.025764e+003, 1.422053e+000
3.027693e+003, 1.423274e+000
3.029621e+003, 1.425050e+000
3.031550e+003, 1.426857e+000
3.033478e+003, 1.426651e+000
3.035406e+003, 1.424757e+000
3.037335e+003, 1.423424e+000
3.039263e+003, 1.425339e+000
3.041192e+003, 1.425426e+000
3.043120e+003, 1.422677e+000
3.045049e+003, 1.422885e+000
3.046977e+003, 1.425335e+000
3.048906e+003, 1.425891e+000
3.050834e+003, 1.425541e+000
3.052763e+003, 1.426389e+000
3.054691e+003, 1.427530e+000
3.056620e+003, 1.426762e+000
3.058548e+003, 1.425430e+000
3.060477e+003, 1.423894e+000
3.062405e+003, 1.423402e+000
3.064333e+003, 1.426767e+000
3.066262e+003, 1.427409e+000
3.068190e+003, 1.428323e+000
3.070119e+003, 1.431226e+000
3.072047e+003, 1.430305e+000
3.073976e+003, 1.427387e+000
3.075904e+003, 1.428720e+000
3.077833e+003, 1.429452e+000
3.079761e+003, 1.430522e+000
3.081690e+003, 1.430032e+000
3.083618e+003, 1.428685e+000
3.085547e+003, 1.428639e+000
3.087475e+003, 1.429087e+000
3.089404e+003, 1.430025e+000
3.091332e+003, 1.428509e+000
3.093260e+003, 1.427828e+000
3.095189e+003, 1.430229e+000
3.097117e+003, 1.432467e+000
3.099046e+003, 1.432966e+000
3.100974e+003, 1.432589e+000
3.102903e+003, 1.430306e+000
3.104831e+003, 1.428508e+000
3.106760e+003, 1.430527e+000
3.108688e+003, 1.436845e+000
3.110617e+003, 1.436410e+000
3.112545e+003, 1.432675e+000
3.114474e+003, 1.430315e+000
3.116402e+003, 1.429337e+000
3.118331e+003, 1.431946e+000
3.120259e+003, 1.432507e+000
3.122188e+003, 1.433581e+000
3.124116e+003, 1.435808e+000
3.126044e+003, 1.435841e+000
3.127973e+003, 1.433423e+000
3.129901e+003, 1.436214e+000
3.131830e+003, 1.437005e+000
3.133758e+003, 1.437534e+000
3.135687e+003, 1.438255e+000
3.137615e+003, 1.437933e+000
3.139544e+003, 1.439323e+000
3.141472e+003, 1.437870e+000
3.143401e+003, 1.433646e+000
3.145329e+003, 1.431317e+000
3.147258e+003, 1.435214e+000
3.149186e+003, 1.436831e+000
3.151115e+003, 1.435873e+000
3.153043e+003, 1.435295e+000
3.154971e+003, 1.436060e+000
3.156900e+003, 1.434973e+000
3.158828e+003, 1.432799e+000
3.160757e+003, 1.435766e+000
3.162685e+003, 1.438848e+000
3.164614e+003, 1.439931e+000
3.166542e+003, 1.441568e+000
3.168471e+003, 1.441765e+000
3.170399e+003, 1.439453e+000
3.172328e+003, 1.435390e+000
3.174256e+003, 1.435924e+000
3.176185e+003, 1.437754e+000
3.178113e+003, 1.437397e+000
3.180042e+003, 1.438138e+000
3.181970e+003, 1.439821e+000
3.183898e+003, 1.443669e+000
3.185827e+003, 1.445838e+000
3.187755e+003, 1.444544e+000
3.189684e+003, 1.443473e+000
3.191612e+003, 1.439079e+000
3.193541e+003, 1.440281e+000
3.195469e+003, 1.444378e+000
3.197398e+003, 1.448544e+000
3.199326e+003, 1.448594e+000
3.201255e+003, 1.447574e+000
3.203183e+003, 1.447242e+000
3.205112e+003, 1.446562e+000
3.207040e+003, 1.443133e+000
3.208969e+003, 1.442236e+000
3.210897e+003, 1.443899e+000
3.212825e+003, 1.443325e+000
3.214754e+003, 1.441082e+000
3.216682e+003, 1.441544e+000
3.218611e+003, 1.445202e+000
3.220539e+003, 1.445643e+000
3.222468e+003, 1.442851e+000
3.224396e+003, 1.443207e+000
3.226325e+003, 1.443144e+000
3.228253e+003, 1.443857e+000
3.230182e+003, 1.448636e+000
3.232110e+003, 1.449214e+000
3.234039e+003, 1.446983e+000
3.235967e+003, 1.446328e+000
3.237896e+003, 1.448335e+000
3.239824e+003, 1.448149e+000
3.241752e+003, 1.446243e+000
3.243681e+003, 1.448952e+000
3.245609e+003, 1.452191e+000
3.247538e+003, 1.452396e+000
3.249466e+003, 1.453625e+000
3.251395e+003, 1.453958e+000
3.253323e+003, 1.451457e+000
3.255252e+003, 1.449732e+000
3.257180e+003, 1.447454e+000
3.259109e+003, 1.447533e+000
3.261037e+003, 1.449752e+000
3.262966e+003, 1.447435e+000
3.264894e+003, 1.446597e+000
3.266823e+003, 1.449450e+000
3.268751e+003, 1.450714e+000
3.270679e+003, 1.449110e+000
3.272608e+003, 1.448781e+000
3.274536e+003, 1.451038e+000
3.276465e+003, 1.453982e+000
3.278393e+003, 1.453991e+000
3.280322e+003, 1.454232e+000
3.282250e+003, 1.457755e+000
3.284179e+003, 1.458660e+000
3.286107e+003, 1.457435e+000
3.288036e+003, 1.455552e+000
3.289964e+003, 1.455620e+000
3.291893e+003, 1.455657e+000
3.293821e+003, 1.455443e+000
3.295750e+003, 1.454697e+000
3.297678e+003, 1.455594e+000
3.299606e+003, 1.457092e+000
3.301535e+003, 1.456140e+000
3.303463e+003, 1.455416e+000
3.305392e+003, 1.455486e+000
3.307320e+003, 1.456782e+000
3.309249e+003, 1.458730e+000
3.311177e+003, 1.459471e+000
3.313106e+003, 1.456535e+000
3.315034e+003, 1.456971e+000
3.316963e+003, 1.458293e+000
3.318891e+003, 1.458453e+000
3.320820e+003, 1.457888e+000
3.322748e+003, 1.457679e+000
3.324677e+003, 1.456963e+000
3.326605e+003, 1.456756e+000
3.328533e+003, 1.457896e+000
3.330462e+003, 1.453718e+000
3.332390e+003, 1.449213e+000
3.334319e+003, 1.451856e+000
3.336247e+003, 1.456907e+000
3.338176e+003, 1.458998e+000
3.340104e+003, 1.461975e+000
3.342033e+003, 1.464279e+000
3.343961e+003, 1.462465e+000
3.345890e+003, 1.458750e+000
3.347818e+003, 1.459110e+000
3.349747e+003, 1.463853e+000
3.351675e+003, 1.467317e+000
3.353604e+003, 1.465526e+000
3.355532e+003, 1.461729e+000
3.357460e+003, 1.460417e+000
3.359389e+003, 1.460231e+000
3.361317e+003, 1.461661e+000
3.363246e+003, 1.459759e+000
3.365174e+003, 1.455544e+000
3.367103e+003, 1.457351e+000
3.369031e+003, 1.458838e+000
3.370960e+003, 1.458758e+000
3.372888e+003, 1.458063e+000
3.374817e+003, 1.456157e+000
3.376745e+003, 1.456617e+000
3.378674e+003, 1.456030e+000
3.380602e+003, 1.455701e+000
3.382531e+003, 1.460801e+000
3.384459e+003, 1.463010e+000
3.386387e+003, 1.461054e+000
3.388316e+003, 1.456997e+000
3.390244e+003, 1.456457e+000
3.392173e+003, 1.459018e+000
3.394101e+003, 1.463208e+000
3.396030e+003, 1.466478e+000
3.397958e+003, 1.462376e+000
3.399887e+003, 1.460099e+000
3.401815e+003, 1.460664e+000
3.403744e+003, 1.461551e+000
3.405672e+003, 1.465781e+000
3.407601e+003, 1.466592e+000
3.409529e+003, 1.463761e+000
3.411458e+003, 1.462767e+000
3.413386e+003, 1.463072e+000
3.415314e+003, 1.464583e+000
3.417243e+003, 1.464858e+000
3.419171e+003, 1.464830e+000
3.421100e+003, 1.463154e+000
3.423028e+003, 1.461249e+000
3.424957e+003, 1.464383e+000
3.426885e+003, 1.467679e+000
3.428814e+003, 1.465420e+000
3.430742e+003, 1.461813e+000
3.432671e+003, 1.461135e+000
3.434599e+003, 1.459704e+000
3.436528e+003, 1.460698e+000
3.438456e+003, 1.463395e+000
3.440385e+003, 1.464915e+000
3.442313e+003, 1.466938e+000
3.444241e+003, 1.470601e+000
3.446170e+003, 1.465748e+000
3.448098e+003, 1.462757e+000
3.450027e+003, 1.465950e+000
3.451955e+003, 1.467219e+000
3.453884e+003, 1.466564e+000
3.455812e+003, 1.466981e+000
3.457741e+003, 1.465007e+000
3.459669e+003, 1.464058e+000
3.461598e+003, 1.463869e+000
3.463526e+003, 1.463289e+000
3.465455e+003, 1.467125e+000
3.467383e+003, 1.469402e+000
3.469312e+003, 1.468501e+000
3.471240e+003, 1.466948e+000
3.473168e+003, 1.465994e+000
3.475097e+003, 1.467580e+000
3.477025e+003, 1.470275e+000
3.478954e+003, 1.469844e+000
3.480882e+003, 1.467115e+000
3.482811e+003, 1.463362e+000
3.484739e+003, 1.460180e+000
3.486668e+003, 1.460472e+000
3.488596e+003, 1.464098e+000
3.490525e+003, 1.468451e+000
3.492453e+003, 1.468861e+000
3.494382e+003, 1.469334e+000
3.496310e+003, 1.466422e+000
3.498239e+003, 1.466987e+000
3.500167e+003, 1.472517e+000
3.502095e+003, 1.473544e+000
3.504024e+003, 1.471963e+000
3.505952e+003, 1.468092e+000
3.507881e+003, 1.469457e+000
3.509809e+003, 1.470295e+000
3.511738e+003, 1.467368e+000
3.513666e+003, 1.471871e+000
3.515595e+003, 1.478778e+000
3.517523e+003, 1.478160e+000
3.519452e+003, 1.473789e+000
3.521380e+003, 1.474581e+000
3.523309e+003, 1.475704e+000
3.525237e+003, 1.473462e+000
3.527166e+003, 1.469855e+000
3.529094e+003, 1.467391e+000
3.531022e+003, 1.469103e+000
3.532951e+003, 1.472276e+000
3.534879e+003, 1.475298e+000
3.536808e+003, 1.475899e+000
3.538736e+003, 1.475082e+000
3.540665e+003, 1.473141e+000
3.542593e+003, 1.473122e+000
3.544522e+003, 1.473858e+000
3.546450e+003, 1.475299e+000
3.548379e+003, 1.470452e+000
3.550307e+003, 1.468556e+000
3.552236e+003, 1.471245e+000
3.554164e+003, 1.475359e+000
3.556093e+003, 1.478413e+000
3.558021e+003, 1.479607e+000
3.559949e+003, 1.477620e+000
3.561878e+003, 1.473612e+000
3.563806e+003, 1.473046e+000
3.565735e+003, 1.472815e+000
3.567663e+003, 1.474227e+000
3.569592e+003, 1.474618e+000
3.571520e+003, 1.475810e+000
3.573449e+003, 1.475171e+000
3.575377e+003, 1.471873e+000
3.577306e+003, 1.472848e+000
3.579234e+003, 1.471981e+000
3.581163e+003, 1.473791e+000
3.583091e+003, 1.479213e+000
3.585020e+003, 1.478866e+000
3.586948e+003, 1.476630e+000
3.588876e+003, 1.474934e+000
3.590805e+003, 1.472836e+000
3.592733e+003, 1.470955e+000
3.594662e+003, 1.472056e+000
3.596590e+003, 1.472560e+000
3.598519e+003, 1.471792e+000
3.600447e+003, 1.471554e+000
3.602376e+003, 1.476020e+000
3.604304e+003, 1.475224e+000
3.606233e+003, 1.474811e+000
3.608161e+003, 1.477073e+000
3.610090e+003, 1.475102e+000
3.612018e+003, 1.475410e+000
3.613947e+003, 1.479996e+000
3.615875e+003, 1.477612e+000
3.617803e+003, 1.476793e+000
3.619732e+003, 1.484564e+000
3.621660e+003, 1.486116e+000
3.623589e+003, 1.478109e+000
3.625517e+003, 1.477764e+000
3.627446e+003, 1.479970e+000
3.629374e+003, 1.474414e+000
3.631303e+003, 1.474997e+000
3.633231e+003, 1.478297e+000
3.635160e+003, 1.473775e+000
3.637088e+003, 1.471805e+000
3.639017e+003, 1.474829e+000
3.640945e+003, 1.480479e+000
3.642874e+003, 1.483095e+000
3.644802e+003, 1.481362e+000
3.646730e+003, 1.478379e+000
3.648659e+003, 1.478557e+000
3.650587e+003, 1.478516e+000
3.652516e+003, 1.478536e+000
3.654444e+003, 1.478662e+000
3.656373e+003, 1.478346e+000
3.658301e+003, 1.479776e+000
3.660230e+003, 1.485526e+000
3.662158e+003, 1.487311e+000
3.664087e+003, 1.481666e+000
3.666015e+003, 1.477107e+000
3.667944e+003, 1.478823e+000
3.669872e+003, 1.480268e+000
3.671801e+003, 1.482416e+000
3.673729e+003, 1.482840e+000
3.675657e+003, 1.479785e+000
3.677586e+003, 1.480105e+000
3.679514e+003, 1.481222e+000
3.681443e+003, 1.483758e+000
3.683371e+003, 1.483692e+000
3.685300e+003, 1.481328e+000
3.687228e+003, 1.477371e+000
3.689157e+003, 1.479186e+000
3.691085e+003, 1.482172e+000
3.693014e+003, 1.488593e+000
3.694942e+003, 1.493002e+000
3.696871e+003, 1.488567e+000
3.698799e+003, 1.485790e+000
3.700728e+003, 1.489562e+000
3.702656e+003, 1.489115e+000
3.704584e+003, 1.484216e+000
3.706513e+003, 1.480866e+000
3.708441e+003, 1.481656e+000
3.710370e+003, 1.484070e+000
3.712298e+003, 1.486958e+000
3.714227e+003, 1.487722e+000
3.716155e+003, 1.486054e+000
3.718084e+003, 1.486321e+000
3.720012e+003, 1.488203e+000
3.721941e+003, 1.488565e+000
3.723869e+003, 1.488652e+000
3.725798e+003, 1.489380e+000
3.727726e+003, 1.490268e+000
3.729655e+003, 1.490232e+000
3.731583e+003, 1.487236e+000
3.733511e+003, 1.483526e+000
3.735440e+003, 1.480864e+000
3.737368e+003, 1.485663e+000
3.739297e+003, 1.490407e+000
3.741225e+003, 1.493268e+000
3.743154e+003, 1.493592e+000
3.745082e+003, 1.490172e+000
3.747011e+003, 1.489732e+000
3.748939e+003, 1.492826e+000
3.750868e+003, 1.493650e+000
3.752796e+003, 1.491299e+000
3.754725e+003, 1.490249e+000
3.756653e+003, 1.491937e+000
3.758582e+003, 1.495878e+000
3.760510e+003, 1.498442e+000
3.762438e+003, 1.498919e+000
3.764367e+003, 1.495079e+000
3.766295e+003, 1.492810e+000
3.768224e+003, 1.493261e+000
3.770152e+003, 1.490752e+000
3.772081e+003, 1.492769e+000
3.774009e+003, 1.495778e+000
3.775938e+003, 1.496189e+000
3.777866e+003, 1.497361e+000
3.779795e+003, 1.498634e+000
3.781723e+003, 1.499630e+000
3.783652e+003, 1.500505e+000
3.785580e+003, 1.499540e+000
3.787509e+003, 1.500153e+000
3.789437e+003, 1.501425e+000
3.791365e+003, 1.501332e+000
3.793294e+003, 1.501145e+000
3.795222e+003, 1.506232e+000
3.797151e+003, 1.507706e+000
3.799079e+003, 1.505851e+000
3.801008e+003, 1.505099e+000
3.802936e+003, 1.504793e+000
3.804865e+003, 1.504151e+000
3.806793e+003, 1.501401e+000
3.808722e+003, 1.500694e+000
3.810650e+003, 1.497795e+000
3.812579e+003, 1.493708e+000
3.814507e+003, 1.496239e+000
3.816436e+003, 1.499768e+000
3.818364e+003, 1.501280e+000
3.820292e+003, 1.498699e+000
3.822221e+003, 1.499674e+000
3.824149e+003, 1.502255e+000
3.826078e+003, 1.500614e+000
3.828006e+003, 1.498574e+000
3.829935e+003, 1.495682e+000
3.831863e+003, 1.494645e+000
3.833792e+003, 1.496746e+000
3.835720e+003, 1.497854e+000
3.837649e+003, 1.499907e+000
3.839577e+003, 1.503719e+000
3.841506e+003, 1.502122e+000
3.843434e+003, 1.504314e+000
3.845363e+003, 1.505985e+000
3.847291e+003, 1.508204e+000
3.849219e+003, 1.511717e+000
3.851148e+003, 1.508884e+000
3.853076e+003, 1.504659e+000
3.855005e+003, 1.503605e+000
3.856933e+003, 1.505264e+000
3.858862e+003, 1.504122e+000
3.860790e+003, 1.501560e+000
3.862719e+003, 1.503975e+000
3.864647e+003, 1.505516e+000
3.866576e+003, 1.503986e+000
3.868504e+003, 1.504960e+000
3.870433e+003, 1.504992e+000
3.872361e+003, 1.506413e+000
3.874290e+003, 1.507828e+000
3.876218e+003, 1.508432e+000
3.878146e+003, 1.507553e+000
3.880075e+003, 1.505768e+000
3.882003e+003, 1.505514e+000
3.883932e+003, 1.505005e+000
3.885860e+003, 1.507922e+000
3.887789e+003, 1.510534e+000
3.889717e+003, 1.510111e+000
3.891646e+003, 1.508450e+000
3.893574e+003, 1.506800e+000
3.895503e+003, 1.504471e+000
3.897431e+003, 1.499936e+000
3.899360e+003, 1.499458e+000
3.901288e+003, 1.500495e+000
3.903217e+003, 1.497066e+000
3.905145e+003, 1.500551e+000
3.907073e+003, 1.505618e+000
3.909002e+003, 1.508261e+000
3.910930e+003, 1.506498e+000
3.912859e+003, 1.500823e+000
3.914787e+003, 1.499090e+000
3.916716e+003, 1.505965e+000
3.918644e+003, 1.508672e+000
3.920573e+003, 1.507654e+000
3.922501e+003, 1.507471e+000
3.924430e+003, 1.508266e+000
3.926358e+003, 1.509634e+000
3.928287e+003, 1.505891e+000
3.930215e+003, 1.504335e+000
3.932144e+003, 1.506787e+000
3.934072e+003, 1.505610e+000
3.936000e+003, 1.504585e+000
3.937929e+003, 1.506939e+000
3.939857e+003, 1.510548e+000
3.941786e+003, 1.510427e+000
3.943714e+003, 1.508319e+000
3.945643e+003, 1.511912e+000
3.947571e+003, 1.513736e+000
3.949500e+003, 1.509284e+000
3.951428e+003, 1.508347e+000
3.953357e+003, 1.510728e+000
3.955285e+003, 1.506982e+000
3.957214e+003, 1.506803e+000
3.959142e+003, 1.509351e+000
3.961071e+003, 1.509781e+000
3.962999e+003, 1.508281e+000
3.964927e+003, 1.506552e+000
3.966856e+003, 1.507926e+000
3.968784e+003, 1.512828e+000
3.970713e+003, 1.509487e+000
3.972641e+003, 1.507495e+000
3.974570e+003, 1.509866e+000
3.976498e+003, 1.512247e+000
3.978427e+003, 1.517551e+000
3.980355e+003, 1.516811e+000
3.982284e+003, 1.515413e+000
3.984212e+003, 1.516907e+000
3.986141e+003, 1.513831e+000
3.988069e+003, 1.510910e+000
3.989998e+003, 1.507981e+000
3.991926e+003, 1.510303e+000
3.993854e+003, 1.513542e+000
3.995783e+003, 1.510099e+000
3.997711e+003, 1.508997e+000
3.999640e+003, 1.514271e+000
4.001568e+003, 0.000000e+000
##END=



