##NAMES=Antimony
##RRUFFID=R050654
##IDEAL CHEMISTRY=Sb
##LOCALITY=Sarawak, Borneo
##OWNER=RRUFF
##SOURCE=University of Arizona Mineral Museum
##DESCRIPTION=Silver metallic crystals
##STATUS=The identification of this mineral has been confirmed by X-ray diffraction and chemical analysis
##URL=rruff.info/R050654
##MEASURED CHEMISTRY=Sb
3.953357e+002, 1.359759e-001
3.972641e+002, 1.381195e-001
3.991926e+002, 1.398358e-001
4.011211e+002, 1.367377e-001
4.030495e+002, 1.349108e-001
4.049780e+002, 1.367470e-001
4.069065e+002, 1.386018e-001
4.088349e+002, 1.394820e-001
4.107634e+002, 1.405725e-001
4.126919e+002, 1.411681e-001
4.146203e+002, 1.404630e-001
4.165488e+002, 1.402317e-001
4.184773e+002, 1.409024e-001
4.204057e+002, 1.419305e-001
4.223342e+002, 1.426528e-001
4.242627e+002, 1.427715e-001
4.261911e+002, 1.426335e-001
4.281196e+002, 1.427469e-001
4.300481e+002, 1.440875e-001
4.319765e+002, 1.456545e-001
4.339050e+002, 1.466369e-001
4.358335e+002, 1.471776e-001
4.377619e+002, 1.467716e-001
4.396904e+002, 1.461573e-001
4.416189e+002, 1.459197e-001
4.435473e+002, 1.477145e-001
4.454758e+002, 1.484860e-001
4.474043e+002, 1.486794e-001
4.493327e+002, 1.484478e-001
4.512612e+002, 1.486429e-001
4.531897e+002, 1.489735e-001
4.551181e+002, 1.496257e-001
4.570466e+002, 1.509435e-001
4.589751e+002, 1.516776e-001
4.609035e+002, 1.511848e-001
4.628320e+002, 1.510840e-001
4.647605e+002, 1.507871e-001
4.666889e+002, 1.514921e-001
4.686174e+002, 1.525183e-001
4.705459e+002, 1.533235e-001
4.724743e+002, 1.534551e-001
4.744028e+002, 1.534022e-001
4.763313e+002, 1.536782e-001
4.782597e+002, 1.538385e-001
4.801882e+002, 1.537092e-001
4.821167e+002, 1.540000e-001
4.840451e+002, 1.548491e-001
4.859736e+002, 1.552220e-001
4.879021e+002, 1.555191e-001
4.898305e+002, 1.563193e-001
4.917590e+002, 1.566155e-001
4.936875e+002, 1.568116e-001
4.956159e+002, 1.566819e-001
4.975444e+002, 1.578589e-001
4.994729e+002, 1.584313e-001
5.014013e+002, 1.583454e-001
5.033298e+002, 1.587590e-001
5.052583e+002, 1.594702e-001
5.071867e+002, 1.602260e-001
5.091152e+002, 1.598758e-001
5.110437e+002, 1.605078e-001
5.129721e+002, 1.615149e-001
5.149006e+002, 1.617272e-001
5.168290e+002, 1.622274e-001
5.187575e+002, 1.625516e-001
5.206860e+002, 1.622793e-001
5.226144e+002, 1.623224e-001
5.245429e+002, 1.636903e-001
5.264714e+002, 1.643618e-001
5.283998e+002, 1.641047e-001
5.303283e+002, 1.652191e-001
5.322568e+002, 1.650247e-001
5.341852e+002, 1.649650e-001
5.361137e+002, 1.661997e-001
5.380422e+002, 1.665743e-001
5.399706e+002, 1.666071e-001
5.418991e+002, 1.678135e-001
5.438276e+002, 1.686952e-001
5.457560e+002, 1.683588e-001
5.476845e+002, 1.687328e-001
5.496130e+002, 1.696277e-001
5.515414e+002, 1.705407e-001
5.534699e+002, 1.714083e-001
5.553984e+002, 1.716947e-001
5.573268e+002, 1.720239e-001
5.592553e+002, 1.724342e-001
5.611838e+002, 1.728854e-001
5.631122e+002, 1.733790e-001
5.650407e+002, 1.739631e-001
5.669692e+002, 1.743868e-001
5.688976e+002, 1.743911e-001
5.708261e+002, 1.748545e-001
5.727546e+002, 1.750852e-001
5.746830e+002, 1.758367e-001
5.766115e+002, 1.759256e-001
5.785400e+002, 1.766032e-001
5.804684e+002, 1.773992e-001
5.823969e+002, 1.779727e-001
5.843254e+002, 1.778775e-001
5.862538e+002, 1.786044e-001
5.881823e+002, 1.790837e-001
5.901108e+002, 1.789601e-001
5.920392e+002, 1.794877e-001
5.939677e+002, 1.802093e-001
5.958962e+002, 1.806411e-001
5.978246e+002, 1.807904e-001
5.997531e+002, 1.809364e-001
6.016816e+002, 1.815381e-001
6.036100e+002, 1.820473e-001
6.055385e+002, 1.827121e-001
6.074670e+002, 1.835423e-001
6.093954e+002, 1.837563e-001
6.113239e+002, 1.840148e-001
6.132524e+002, 1.844930e-001
6.151808e+002, 1.852848e-001
6.171093e+002, 1.855353e-001
6.190378e+002, 1.856651e-001
6.209662e+002, 1.858193e-001
6.228947e+002, 1.860004e-001
6.248232e+002, 1.866814e-001
6.267516e+002, 1.873002e-001
6.286801e+002, 1.877355e-001
6.306086e+002, 1.882543e-001
6.325370e+002, 1.884945e-001
6.344655e+002, 1.889334e-001
6.363940e+002, 1.894677e-001
6.383224e+002, 1.897821e-001
6.402509e+002, 1.901598e-001
6.421794e+002, 1.904065e-001
6.441078e+002, 1.911358e-001
6.460363e+002, 1.918187e-001
6.479648e+002, 1.917606e-001
6.498932e+002, 1.919427e-001
6.518217e+002, 1.924724e-001
6.537502e+002, 1.924406e-001
6.556786e+002, 1.930754e-001
6.576071e+002, 1.935558e-001
6.595356e+002, 1.939132e-001
6.614641e+002, 1.946171e-001
6.633925e+002, 1.950804e-001
6.653210e+002, 1.956304e-001
6.672495e+002, 1.963643e-001
6.691779e+002, 1.963214e-001
6.711064e+002, 1.962118e-001
6.730349e+002, 1.968700e-001
6.749633e+002, 1.975312e-001
6.768918e+002, 1.978425e-001
6.788203e+002, 1.979566e-001
6.807487e+002, 1.985442e-001
6.826772e+002, 1.990069e-001
6.846057e+002, 1.993456e-001
6.865341e+002, 1.998873e-001
6.884626e+002, 2.002499e-001
6.903911e+002, 2.004917e-001
6.923195e+002, 2.009312e-001
6.942480e+002, 2.008254e-001
6.961765e+002, 2.005858e-001
6.981049e+002, 2.004160e-001
7.000334e+002, 2.006533e-001
7.019619e+002, 2.005593e-001
7.038903e+002, 2.012429e-001
7.058188e+002, 2.018374e-001
7.077473e+002, 2.021504e-001
7.096757e+002, 2.024096e-001
7.116042e+002, 2.029183e-001
7.135327e+002, 2.033972e-001
7.154611e+002, 2.037691e-001
7.173896e+002, 2.041446e-001
7.193181e+002, 2.043637e-001
7.212465e+002, 2.045629e-001
7.231750e+002, 2.051646e-001
7.251035e+002, 2.060110e-001
7.270319e+002, 2.059400e-001
7.289604e+002, 2.060467e-001
7.308889e+002, 2.063631e-001
7.328173e+002, 2.065887e-001
7.347458e+002, 2.069706e-001
7.366743e+002, 2.073264e-001
7.386027e+002, 2.076795e-001
7.405312e+002, 2.080162e-001
7.424597e+002, 2.081025e-001
7.443881e+002, 2.083155e-001
7.463166e+002, 2.087200e-001
7.482451e+002, 2.088372e-001
7.501735e+002, 2.093903e-001
7.521020e+002, 2.098963e-001
7.540305e+002, 2.100630e-001
7.559589e+002, 2.102326e-001
7.578874e+002, 2.101074e-001
7.598159e+002, 2.105331e-001
7.617443e+002, 2.110583e-001
7.636728e+002, 2.110700e-001
7.656013e+002, 2.114039e-001
7.675297e+002, 2.121844e-001
7.694582e+002, 2.124278e-001
7.713867e+002, 2.126674e-001
7.733151e+002, 2.126144e-001
7.752436e+002, 2.126620e-001
7.771721e+002, 2.128538e-001
7.791005e+002, 2.126598e-001
7.810290e+002, 2.122095e-001
7.829575e+002, 2.123490e-001
7.848859e+002, 2.124750e-001
7.868144e+002, 2.126654e-001
7.887429e+002, 2.131890e-001
7.906713e+002, 2.140317e-001
7.925998e+002, 2.145081e-001
7.945283e+002, 2.144233e-001
7.964567e+002, 2.144454e-001
7.983852e+002, 2.139603e-001
8.003137e+002, 2.131520e-001
8.022421e+002, 2.125217e-001
8.041706e+002, 2.123539e-001
8.060991e+002, 2.120938e-001
8.080275e+002, 2.119753e-001
8.099560e+002, 2.126823e-001
8.118845e+002, 2.135583e-001
8.138129e+002, 2.139193e-001
8.157414e+002, 2.144874e-001
8.176699e+002, 2.153286e-001
8.195983e+002, 2.160789e-001
8.215268e+002, 2.168356e-001
8.234553e+002, 2.175493e-001
8.253837e+002, 2.179229e-001
8.273122e+002, 2.185821e-001
8.292407e+002, 2.193584e-001
8.311691e+002, 2.198770e-001
8.330976e+002, 2.199996e-001
8.350261e+002, 2.207508e-001
8.369545e+002, 2.213168e-001
8.388830e+002, 2.218697e-001
8.408115e+002, 2.224416e-001
8.427399e+002, 2.231349e-001
8.446684e+002, 2.238799e-001
8.465969e+002, 2.243358e-001
8.485253e+002, 2.245132e-001
8.504538e+002, 2.250231e-001
8.523823e+002, 2.257343e-001
8.543107e+002, 2.263397e-001
8.562392e+002, 2.268925e-001
8.581677e+002, 2.279539e-001
8.600961e+002, 2.285047e-001
8.620246e+002, 2.287710e-001
8.639531e+002, 2.289891e-001
8.658815e+002, 2.295734e-001
8.678100e+002, 2.302285e-001
8.697385e+002, 2.307834e-001
8.716669e+002, 2.313867e-001
8.735954e+002, 2.319016e-001
8.755239e+002, 2.325068e-001
8.774523e+002, 2.331336e-001
8.793808e+002, 2.335941e-001
8.813093e+002, 2.341399e-001
8.832377e+002, 2.344618e-001
8.851662e+002, 2.348095e-001
8.870947e+002, 2.354274e-001
8.890231e+002, 2.360147e-001
8.909516e+002, 2.366243e-001
8.928801e+002, 2.371456e-001
8.948085e+002, 2.375113e-001
8.967370e+002, 2.377699e-001
8.986655e+002, 2.383920e-001
9.005939e+002, 2.389824e-001
9.025224e+002, 2.394096e-001
9.044509e+002, 2.399081e-001
9.063793e+002, 2.403261e-001
9.083078e+002, 2.406855e-001
9.102363e+002, 2.413170e-001
9.121647e+002, 2.419580e-001
9.140932e+002, 2.422799e-001
9.160217e+002, 2.427281e-001
9.179501e+002, 2.431998e-001
9.198786e+002, 2.435112e-001
9.218071e+002, 2.440076e-001
9.237355e+002, 2.445796e-001
9.256640e+002, 2.450978e-001
9.275925e+002, 2.455645e-001
9.295209e+002, 2.459307e-001
9.314494e+002, 2.461088e-001
9.333779e+002, 2.465197e-001
9.353063e+002, 2.470566e-001
9.372348e+002, 2.476364e-001
9.391633e+002, 2.481587e-001
9.410917e+002, 2.483927e-001
9.430202e+002, 2.486996e-001
9.449487e+002, 2.490411e-001
9.468771e+002, 2.492798e-001
9.488056e+002, 2.496562e-001
9.507341e+002, 2.504141e-001
9.526625e+002, 2.509319e-001
9.545910e+002, 2.511138e-001
9.565195e+002, 2.516481e-001
9.584479e+002, 2.522502e-001
9.603764e+002, 2.525631e-001
9.623049e+002, 2.529206e-001
9.642333e+002, 2.534297e-001
9.661618e+002, 2.539152e-001
9.680903e+002, 2.541567e-001
9.700187e+002, 2.546271e-001
9.719472e+002, 2.551341e-001
9.738757e+002, 2.553872e-001
9.758041e+002, 2.556212e-001
9.777326e+002, 2.560715e-001
9.796611e+002, 2.564241e-001
9.815895e+002, 2.569364e-001
9.835180e+002, 2.575088e-001
9.854465e+002, 2.578661e-001
9.873749e+002, 2.582261e-001
9.893034e+002, 2.587667e-001
9.912319e+002, 2.591192e-001
9.931603e+002, 2.593753e-001
9.950888e+002, 2.598415e-001
9.970173e+002, 2.603081e-001
9.989457e+002, 2.607827e-001
1.000874e+003, 2.610811e-001
1.002803e+003, 2.612742e-001
1.004731e+003, 2.616526e-001
1.006660e+003, 2.621397e-001
1.008588e+003, 2.624935e-001
1.010517e+003, 2.627798e-001
1.012445e+003, 2.632995e-001
1.014373e+003, 2.638633e-001
1.016302e+003, 2.641674e-001
1.018230e+003, 2.644960e-001
1.020159e+003, 2.649351e-001
1.022087e+003, 2.652270e-001
1.024016e+003, 2.655088e-001
1.025944e+003, 2.658779e-001
1.027873e+003, 2.661445e-001
1.029801e+003, 2.666693e-001
1.031730e+003, 2.672213e-001
1.033658e+003, 2.674241e-001
1.035587e+003, 2.674202e-001
1.037515e+003, 2.676986e-001
1.039443e+003, 2.680084e-001
1.041372e+003, 2.683202e-001
1.043300e+003, 2.686157e-001
1.045229e+003, 2.688109e-001
1.047157e+003, 2.688608e-001
1.049086e+003, 2.688690e-001
1.051014e+003, 2.690274e-001
1.052943e+003, 2.692636e-001
1.054871e+003, 2.694460e-001
1.056800e+003, 2.694953e-001
1.058728e+003, 2.693557e-001
1.060657e+003, 2.691807e-001
1.062585e+003, 2.690332e-001
1.064514e+003, 2.688523e-001
1.066442e+003, 2.687336e-001
1.068370e+003, 2.688459e-001
1.070299e+003, 2.690607e-001
1.072227e+003, 2.692111e-001
1.074156e+003, 2.693512e-001
1.076084e+003, 2.695430e-001
1.078013e+003, 2.699063e-001
1.079941e+003, 2.702841e-001
1.081870e+003, 2.703329e-001
1.083798e+003, 2.701956e-001
1.085727e+003, 2.700826e-001
1.087655e+003, 2.700318e-001
1.089584e+003, 2.701213e-001
1.091512e+003, 2.700499e-001
1.093441e+003, 2.698339e-001
1.095369e+003, 2.696257e-001
1.097297e+003, 2.695973e-001
1.099226e+003, 2.696679e-001
1.101154e+003, 2.695681e-001
1.103083e+003, 2.692209e-001
1.105011e+003, 2.690886e-001
1.106940e+003, 2.690847e-001
1.108868e+003, 2.691281e-001
1.110797e+003, 2.689586e-001
1.112725e+003, 2.687695e-001
1.114654e+003, 2.687219e-001
1.116582e+003, 2.688868e-001
1.118511e+003, 2.688746e-001
1.120439e+003, 2.688302e-001
1.122368e+003, 2.690098e-001
1.124296e+003, 2.691536e-001
1.126224e+003, 2.691191e-001
1.128153e+003, 2.690957e-001
1.130081e+003, 2.693116e-001
1.132010e+003, 2.695991e-001
1.133938e+003, 2.697154e-001
1.135867e+003, 2.699898e-001
1.137795e+003, 2.703831e-001
1.139724e+003, 2.706994e-001
1.141652e+003, 2.710110e-001
1.143581e+003, 2.713114e-001
1.145509e+003, 2.714677e-001
1.147438e+003, 2.712835e-001
1.149366e+003, 2.710274e-001
1.151295e+003, 2.710623e-001
1.153223e+003, 2.709799e-001
1.155151e+003, 2.709352e-001
1.157080e+003, 2.712494e-001
1.159008e+003, 2.718656e-001
1.160937e+003, 2.723983e-001
1.162865e+003, 2.725621e-001
1.164794e+003, 2.723392e-001
1.166722e+003, 2.720854e-001
1.168651e+003, 2.719525e-001
1.170579e+003, 2.716788e-001
1.172508e+003, 2.715997e-001
1.174436e+003, 2.715147e-001
1.176365e+003, 2.711743e-001
1.178293e+003, 2.710792e-001
1.180222e+003, 2.710579e-001
1.182150e+003, 2.711549e-001
1.184078e+003, 2.710776e-001
1.186007e+003, 2.710815e-001
1.187935e+003, 2.710864e-001
1.189864e+003, 2.709585e-001
1.191792e+003, 2.709705e-001
1.193721e+003, 2.710097e-001
1.195649e+003, 2.709365e-001
1.197578e+003, 2.711404e-001
1.199506e+003, 2.714252e-001
1.201435e+003, 2.714438e-001
1.203363e+003, 2.713949e-001
1.205292e+003, 2.714420e-001
1.207220e+003, 2.715945e-001
1.209149e+003, 2.717222e-001
1.211077e+003, 2.717971e-001
1.213005e+003, 2.718544e-001
1.214934e+003, 2.720267e-001
1.216862e+003, 2.722655e-001
1.218791e+003, 2.725686e-001
1.220719e+003, 2.727714e-001
1.222648e+003, 2.729841e-001
1.224576e+003, 2.734969e-001
1.226505e+003, 2.738553e-001
1.228433e+003, 2.740624e-001
1.230362e+003, 2.743329e-001
1.232290e+003, 2.746101e-001
1.234219e+003, 2.748815e-001
1.236147e+003, 2.753334e-001
1.238076e+003, 2.756473e-001
1.240004e+003, 2.758459e-001
1.241932e+003, 2.762848e-001
1.243861e+003, 2.766982e-001
1.245789e+003, 2.769436e-001
1.247718e+003, 2.771842e-001
1.249646e+003, 2.773539e-001
1.251575e+003, 2.775837e-001
1.253503e+003, 2.778395e-001
1.255432e+003, 2.782193e-001
1.257360e+003, 2.785534e-001
1.259289e+003, 2.787699e-001
1.261217e+003, 2.790816e-001
1.263146e+003, 2.793486e-001
1.265074e+003, 2.796637e-001
1.267003e+003, 2.800865e-001
1.268931e+003, 2.805187e-001
1.270859e+003, 2.807780e-001
1.272788e+003, 2.811663e-001
1.274716e+003, 2.813639e-001
1.276645e+003, 2.815832e-001
1.278573e+003, 2.820184e-001
1.280502e+003, 2.824630e-001
1.282430e+003, 2.827545e-001
1.284359e+003, 2.830105e-001
1.286287e+003, 2.832205e-001
1.288216e+003, 2.834843e-001
1.290144e+003, 2.837061e-001
1.292073e+003, 2.839573e-001
1.294001e+003, 2.843599e-001
1.295930e+003, 2.846599e-001
1.297858e+003, 2.848989e-001
1.299786e+003, 2.852260e-001
1.301715e+003, 2.855090e-001
1.303643e+003, 2.857605e-001
1.305572e+003, 2.859508e-001
1.307500e+003, 2.861333e-001
1.309429e+003, 2.865902e-001
1.311357e+003, 2.869359e-001
1.313286e+003, 2.871319e-001
1.315214e+003, 2.873396e-001
1.317143e+003, 2.875447e-001
1.319071e+003, 2.879271e-001
1.321000e+003, 2.882934e-001
1.322928e+003, 2.884515e-001
1.324857e+003, 2.885927e-001
1.326785e+003, 2.888047e-001
1.328714e+003, 2.889793e-001
1.330642e+003, 2.891026e-001
1.332570e+003, 2.894168e-001
1.334499e+003, 2.895909e-001
1.336427e+003, 2.897942e-001
1.338356e+003, 2.901023e-001
1.340284e+003, 2.903394e-001
1.342213e+003, 2.905534e-001
1.344141e+003, 2.909316e-001
1.346070e+003, 2.912421e-001
1.347998e+003, 2.914749e-001
1.349927e+003, 2.917483e-001
1.351855e+003, 2.919284e-001
1.353784e+003, 2.920839e-001
1.355712e+003, 2.924159e-001
1.357641e+003, 2.927266e-001
1.359569e+003, 2.930843e-001
1.361497e+003, 2.934204e-001
1.363426e+003, 2.935269e-001
1.365354e+003, 2.935372e-001
1.367283e+003, 2.937171e-001
1.369211e+003, 2.940093e-001
1.371140e+003, 2.943268e-001
1.373068e+003, 2.946645e-001
1.374997e+003, 2.948132e-001
1.376925e+003, 2.946541e-001
1.378854e+003, 2.947264e-001
1.380782e+003, 2.949650e-001
1.382711e+003, 2.953640e-001
1.384639e+003, 2.957371e-001
1.386568e+003, 2.959987e-001
1.388496e+003, 2.961798e-001
1.390424e+003, 2.963385e-001
1.392353e+003, 2.964442e-001
1.394281e+003, 2.966182e-001
1.396210e+003, 2.969109e-001
1.398138e+003, 2.972012e-001
1.400067e+003, 2.973677e-001
1.401995e+003, 2.974429e-001
1.403924e+003, 2.976949e-001
1.405852e+003, 2.980842e-001
1.407781e+003, 2.983591e-001
1.409709e+003, 2.984591e-001
1.411638e+003, 2.986290e-001
1.413566e+003, 2.990499e-001
1.415495e+003, 2.994480e-001
1.417423e+003, 2.997543e-001
1.419351e+003, 2.999159e-001
1.421280e+003, 2.999593e-001
1.423208e+003, 3.001997e-001
1.425137e+003, 3.005618e-001
1.427065e+003, 3.007173e-001
1.428994e+003, 3.008841e-001
1.430922e+003, 3.011714e-001
1.432851e+003, 3.014812e-001
1.434779e+003, 3.017626e-001
1.436708e+003, 3.020585e-001
1.438636e+003, 3.023705e-001
1.440565e+003, 3.026143e-001
1.442493e+003, 3.028844e-001
1.444422e+003, 3.031689e-001
1.446350e+003, 3.035853e-001
1.448278e+003, 3.039443e-001
1.450207e+003, 3.041983e-001
1.452135e+003, 3.042876e-001
1.454064e+003, 3.044478e-001
1.455992e+003, 3.051109e-001
1.457921e+003, 3.054988e-001
1.459849e+003, 3.054907e-001
1.461778e+003, 3.056024e-001
1.463706e+003, 3.059421e-001
1.465635e+003, 3.061656e-001
1.467563e+003, 3.063225e-001
1.469492e+003, 3.066232e-001
1.471420e+003, 3.068843e-001
1.473349e+003, 3.070556e-001
1.475277e+003, 3.072528e-001
1.477205e+003, 3.075059e-001
1.479134e+003, 3.078556e-001
1.481062e+003, 3.083302e-001
1.482991e+003, 3.086927e-001
1.484919e+003, 3.089037e-001
1.486848e+003, 3.092610e-001
1.488776e+003, 3.094942e-001
1.490705e+003, 3.096310e-001
1.492633e+003, 3.099782e-001
1.494562e+003, 3.103285e-001
1.496490e+003, 3.106970e-001
1.498419e+003, 3.109933e-001
1.500347e+003, 3.111256e-001
1.502276e+003, 3.113810e-001
1.504204e+003, 3.117505e-001
1.506132e+003, 3.121077e-001
1.508061e+003, 3.122129e-001
1.509989e+003, 3.125436e-001
1.511918e+003, 3.128912e-001
1.513846e+003, 3.131101e-001
1.515775e+003, 3.131934e-001
1.517703e+003, 3.133745e-001
1.519632e+003, 3.138430e-001
1.521560e+003, 3.141697e-001
1.523489e+003, 3.141989e-001
1.525417e+003, 3.143544e-001
1.527346e+003, 3.147042e-001
1.529274e+003, 3.150058e-001
1.531203e+003, 3.151261e-001
1.533131e+003, 3.153840e-001
1.535059e+003, 3.157008e-001
1.536988e+003, 3.158575e-001
1.538916e+003, 3.159932e-001
1.540845e+003, 3.162527e-001
1.542773e+003, 3.165461e-001
1.544702e+003, 3.168501e-001
1.546630e+003, 3.170155e-001
1.548559e+003, 3.172933e-001
1.550487e+003, 3.176271e-001
1.552416e+003, 3.176554e-001
1.554344e+003, 3.179332e-001
1.556273e+003, 3.184202e-001
1.558201e+003, 3.186755e-001
1.560130e+003, 3.188219e-001
1.562058e+003, 3.188644e-001
1.563986e+003, 3.191099e-001
1.565915e+003, 3.194185e-001
1.567843e+003, 3.195828e-001
1.569772e+003, 3.198876e-001
1.571700e+003, 3.202166e-001
1.573629e+003, 3.203772e-001
1.575557e+003, 3.205824e-001
1.577486e+003, 3.208951e-001
1.579414e+003, 3.211788e-001
1.581343e+003, 3.214898e-001
1.583271e+003, 3.215816e-001
1.585200e+003, 3.215699e-001
1.587128e+003, 3.217912e-001
1.589057e+003, 3.220803e-001
1.590985e+003, 3.224248e-001
1.592913e+003, 3.226143e-001
1.594842e+003, 3.226334e-001
1.596770e+003, 3.226989e-001
1.598699e+003, 3.230115e-001
1.600627e+003, 3.232355e-001
1.602556e+003, 3.234373e-001
1.604484e+003, 3.236373e-001
1.606413e+003, 3.238696e-001
1.608341e+003, 3.239981e-001
1.610270e+003, 3.240800e-001
1.612198e+003, 3.243291e-001
1.614127e+003, 3.246731e-001
1.616055e+003, 3.248878e-001
1.617984e+003, 3.250375e-001
1.619912e+003, 3.251956e-001
1.621840e+003, 3.252331e-001
1.623769e+003, 3.252223e-001
1.625697e+003, 3.253373e-001
1.627626e+003, 3.255562e-001
1.629554e+003, 3.258594e-001
1.631483e+003, 3.259680e-001
1.633411e+003, 3.261525e-001
1.635340e+003, 3.263022e-001
1.637268e+003, 3.263548e-001
1.639197e+003, 3.265013e-001
1.641125e+003, 3.266769e-001
1.643054e+003, 3.271315e-001
1.644982e+003, 3.275817e-001
1.646911e+003, 3.277549e-001
1.648839e+003, 3.278889e-001
1.650767e+003, 3.280914e-001
1.652696e+003, 3.283892e-001
1.654624e+003, 3.285008e-001
1.656553e+003, 3.285216e-001
1.658481e+003, 3.286456e-001
1.660410e+003, 3.288797e-001
1.662338e+003, 3.289825e-001
1.664267e+003, 3.290541e-001
1.666195e+003, 3.292629e-001
1.668124e+003, 3.296774e-001
1.670052e+003, 3.299130e-001
1.671981e+003, 3.301184e-001
1.673909e+003, 3.304166e-001
1.675838e+003, 3.306308e-001
1.677766e+003, 3.306307e-001
1.679694e+003, 3.308001e-001
1.681623e+003, 3.309954e-001
1.683551e+003, 3.312127e-001
1.685480e+003, 3.313969e-001
1.687408e+003, 3.315378e-001
1.689337e+003, 3.319418e-001
1.691265e+003, 3.323175e-001
1.693194e+003, 3.323166e-001
1.695122e+003, 3.323210e-001
1.697051e+003, 3.324323e-001
1.698979e+003, 3.328268e-001
1.700908e+003, 3.332710e-001
1.702836e+003, 3.333862e-001
1.704765e+003, 3.335315e-001
1.706693e+003, 3.336777e-001
1.708621e+003, 3.337361e-001
1.710550e+003, 3.340996e-001
1.712478e+003, 3.345831e-001
1.714407e+003, 3.347808e-001
1.716335e+003, 3.351726e-001
1.718264e+003, 3.352972e-001
1.720192e+003, 3.352380e-001
1.722121e+003, 3.355195e-001
1.724049e+003, 3.360701e-001
1.725978e+003, 3.363582e-001
1.727906e+003, 3.365499e-001
1.729835e+003, 3.366524e-001
1.731763e+003, 3.367390e-001
1.733692e+003, 3.372107e-001
1.735620e+003, 3.374614e-001
1.737548e+003, 3.376958e-001
1.739477e+003, 3.379856e-001
1.741405e+003, 3.382824e-001
1.743334e+003, 3.385809e-001
1.745262e+003, 3.387089e-001
1.747191e+003, 3.388507e-001
1.749119e+003, 3.391975e-001
1.751048e+003, 3.393220e-001
1.752976e+003, 3.394067e-001
1.754905e+003, 3.396254e-001
1.756833e+003, 3.398941e-001
1.758762e+003, 3.399506e-001
1.760690e+003, 3.400875e-001
1.762619e+003, 3.404810e-001
1.764547e+003, 3.405789e-001
1.766475e+003, 3.404652e-001
1.768404e+003, 3.406338e-001
1.770332e+003, 3.408413e-001
1.772261e+003, 3.410196e-001
1.774189e+003, 3.411116e-001
1.776118e+003, 3.413607e-001
1.778046e+003, 3.415834e-001
1.779975e+003, 3.416960e-001
1.781903e+003, 3.416941e-001
1.783832e+003, 3.418281e-001
1.785760e+003, 3.418675e-001
1.787689e+003, 3.419845e-001
1.789617e+003, 3.423321e-001
1.791546e+003, 3.426731e-001
1.793474e+003, 3.430006e-001
1.795402e+003, 3.430620e-001
1.797331e+003, 3.428616e-001
1.799259e+003, 3.428938e-001
1.801188e+003, 3.431504e-001
1.803116e+003, 3.432409e-001
1.805045e+003, 3.433914e-001
1.806973e+003, 3.436315e-001
1.808902e+003, 3.437091e-001
1.810830e+003, 3.439545e-001
1.812759e+003, 3.440168e-001
1.814687e+003, 3.439060e-001
1.816616e+003, 3.439685e-001
1.818544e+003, 3.440809e-001
1.820473e+003, 3.443448e-001
1.822401e+003, 3.444761e-001
1.824329e+003, 3.445911e-001
1.826258e+003, 3.448775e-001
1.828186e+003, 3.450154e-001
1.830115e+003, 3.452351e-001
1.832043e+003, 3.457327e-001
1.833972e+003, 3.458042e-001
1.835900e+003, 3.454599e-001
1.837829e+003, 3.455020e-001
1.839757e+003, 3.458671e-001
1.841686e+003, 3.460913e-001
1.843614e+003, 3.461712e-001
1.845543e+003, 3.464115e-001
1.847471e+003, 3.464427e-001
1.849400e+003, 3.469167e-001
1.851328e+003, 3.472590e-001
1.853256e+003, 3.474118e-001
1.855185e+003, 3.475313e-001
1.857113e+003, 3.474445e-001
1.859042e+003, 3.473509e-001
1.860970e+003, 3.473262e-001
1.862899e+003, 3.472878e-001
1.864827e+003, 3.474513e-001
1.866756e+003, 3.476864e-001
1.868684e+003, 3.478869e-001
1.870613e+003, 3.480834e-001
1.872541e+003, 3.482113e-001
1.874470e+003, 3.483192e-001
1.876398e+003, 3.484708e-001
1.878327e+003, 3.482446e-001
1.880255e+003, 3.479933e-001
1.882183e+003, 3.477772e-001
1.884112e+003, 3.478383e-001
1.886040e+003, 3.483943e-001
1.887969e+003, 3.488359e-001
1.889897e+003, 3.494789e-001
1.891826e+003, 3.497841e-001
1.893754e+003, 3.498774e-001
1.895683e+003, 3.498531e-001
1.897611e+003, 3.497064e-001
1.899540e+003, 3.501167e-001
1.901468e+003, 3.501187e-001
1.903397e+003, 3.499277e-001
1.905325e+003, 3.506985e-001
1.907254e+003, 3.514672e-001
1.909182e+003, 3.510243e-001
1.911110e+003, 3.504839e-001
1.913039e+003, 3.510138e-001
1.914967e+003, 3.516066e-001
1.916896e+003, 3.520473e-001
1.918824e+003, 3.517314e-001
1.920753e+003, 3.515362e-001
1.922681e+003, 3.517390e-001
1.924610e+003, 3.512520e-001
1.926538e+003, 3.513585e-001
1.928467e+003, 3.521393e-001
1.930395e+003, 3.526291e-001
1.932324e+003, 3.528336e-001
1.934252e+003, 3.531058e-001
1.936181e+003, 3.526779e-001
1.938109e+003, 3.527889e-001
1.940037e+003, 3.533479e-001
1.941966e+003, 3.533838e-001
1.943894e+003, 3.533314e-001
1.945823e+003, 3.533317e-001
1.947751e+003, 3.535831e-001
1.949680e+003, 3.542823e-001
1.951608e+003, 3.541296e-001
1.953537e+003, 3.541569e-001
1.955465e+003, 3.538050e-001
1.957394e+003, 3.544156e-001
1.959322e+003, 3.559750e-001
1.961251e+003, 3.564142e-001
1.963179e+003, 3.547590e-001
1.965108e+003, 3.535514e-001
1.967036e+003, 3.525765e-001
1.968964e+003, 3.524859e-001
1.970893e+003, 3.545966e-001
1.972821e+003, 3.557239e-001
1.974750e+003, 3.562156e-001
1.976678e+003, 3.559924e-001
1.978607e+003, 3.556834e-001
1.980535e+003, 3.566458e-001
1.982464e+003, 3.568733e-001
1.984392e+003, 3.571027e-001
1.986321e+003, 3.565730e-001
1.988249e+003, 3.553833e-001
1.990178e+003, 3.559351e-001
1.992106e+003, 3.581375e-001
1.994035e+003, 3.580586e-001
1.995963e+003, 3.577075e-001
1.997891e+003, 3.579848e-001
1.999820e+003, 3.584173e-001
2.001748e+003, 3.579078e-001
2.003677e+003, 3.563116e-001
2.005605e+003, 3.565249e-001
2.007534e+003, 3.587868e-001
2.009462e+003, 3.588066e-001
2.011391e+003, 3.582072e-001
2.013319e+003, 3.587722e-001
2.015248e+003, 3.590101e-001
2.017176e+003, 3.589370e-001
2.019105e+003, 3.587583e-001
2.021033e+003, 3.587915e-001
2.022962e+003, 3.596734e-001
2.024890e+003, 3.599264e-001
2.026818e+003, 3.598261e-001
2.028747e+003, 3.623334e-001
2.030675e+003, 3.625314e-001
2.032604e+003, 3.617081e-001
2.034532e+003, 3.599758e-001
2.036461e+003, 3.578668e-001
2.038389e+003, 3.588054e-001
2.040318e+003, 3.605144e-001
2.042246e+003, 3.619970e-001
2.044175e+003, 3.620655e-001
2.046103e+003, 3.611139e-001
2.048031e+003, 3.609123e-001
2.049960e+003, 3.613375e-001
2.051888e+003, 3.626845e-001
2.053817e+003, 3.636024e-001
2.055745e+003, 3.642785e-001
2.057674e+003, 3.650038e-001
2.059602e+003, 3.633294e-001
2.061531e+003, 3.620063e-001
2.063459e+003, 3.625842e-001
2.065388e+003, 3.630228e-001
2.067316e+003, 3.624521e-001
2.069245e+003, 3.633919e-001
2.071173e+003, 3.643644e-001
2.073102e+003, 3.645532e-001
2.075030e+003, 3.656619e-001
2.076958e+003, 3.656453e-001
2.078887e+003, 3.656561e-001
2.080815e+003, 3.659847e-001
2.082744e+003, 3.657234e-001
2.084672e+003, 3.666283e-001
2.086601e+003, 3.668919e-001
2.088529e+003, 3.672326e-001
2.090458e+003, 3.676541e-001
2.092386e+003, 3.681922e-001
2.094315e+003, 3.681083e-001
2.096243e+003, 3.679062e-001
2.098172e+003, 3.682293e-001
2.100100e+003, 3.687605e-001
2.102029e+003, 3.684250e-001
2.103957e+003, 3.687647e-001
2.105885e+003, 3.694815e-001
2.107814e+003, 3.692329e-001
2.109742e+003, 3.683451e-001
2.111671e+003, 3.684803e-001
2.113599e+003, 3.697589e-001
2.115528e+003, 3.706164e-001
2.117456e+003, 3.703628e-001
2.119385e+003, 3.704604e-001
2.121313e+003, 3.705080e-001
2.123242e+003, 3.714199e-001
2.125170e+003, 3.715647e-001
2.127099e+003, 3.712312e-001
2.129027e+003, 3.730214e-001
2.130956e+003, 3.752430e-001
2.132884e+003, 3.751444e-001
2.134813e+003, 3.734400e-001
2.136741e+003, 3.725179e-001
2.138669e+003, 3.724806e-001
2.140598e+003, 3.734759e-001
2.142526e+003, 3.749579e-001
2.144455e+003, 3.743837e-001
2.146383e+003, 3.736216e-001
2.148312e+003, 3.736355e-001
2.150240e+003, 3.733057e-001
2.152169e+003, 3.735853e-001
2.154097e+003, 3.756928e-001
2.156026e+003, 3.771819e-001
2.157954e+003, 3.769746e-001
2.159883e+003, 3.737178e-001
2.161811e+003, 3.710838e-001
2.163740e+003, 3.715805e-001
2.165668e+003, 3.741403e-001
2.167596e+003, 3.749407e-001
2.169525e+003, 3.748187e-001
2.171453e+003, 3.747723e-001
2.173382e+003, 3.766259e-001
2.175310e+003, 3.762093e-001
2.177239e+003, 3.750188e-001
2.179167e+003, 3.752972e-001
2.181096e+003, 3.755101e-001
2.183024e+003, 3.760035e-001
2.184953e+003, 3.753006e-001
2.186881e+003, 3.742701e-001
2.188810e+003, 3.744626e-001
2.190738e+003, 3.741506e-001
2.192667e+003, 3.739555e-001
2.194595e+003, 3.752194e-001
2.196523e+003, 3.773151e-001
2.198452e+003, 3.776612e-001
2.200380e+003, 3.770829e-001
2.202309e+003, 3.774556e-001
2.204237e+003, 3.778057e-001
2.206166e+003, 3.771262e-001
2.208094e+003, 3.769945e-001
2.210023e+003, 3.781985e-001
2.211951e+003, 3.774471e-001
2.213880e+003, 3.761039e-001
2.215808e+003, 3.766203e-001
2.217737e+003, 3.781724e-001
2.219665e+003, 3.801965e-001
2.221594e+003, 3.800788e-001
2.223522e+003, 3.786986e-001
2.225450e+003, 3.782014e-001
2.227379e+003, 3.789833e-001
2.229307e+003, 3.794145e-001
2.231236e+003, 3.787153e-001
2.233164e+003, 3.792702e-001
2.235093e+003, 3.805133e-001
2.237021e+003, 3.812722e-001
2.238950e+003, 3.817507e-001
2.240878e+003, 3.808666e-001
2.242807e+003, 3.801837e-001
2.244735e+003, 3.805459e-001
2.246664e+003, 3.812650e-001
2.248592e+003, 3.821355e-001
2.250521e+003, 3.821533e-001
2.252449e+003, 3.813267e-001
2.254377e+003, 3.808060e-001
2.256306e+003, 3.811807e-001
2.258234e+003, 3.813515e-001
2.260163e+003, 3.815371e-001
2.262091e+003, 3.823564e-001
2.264020e+003, 3.823511e-001
2.265948e+003, 3.814517e-001
2.267877e+003, 3.814751e-001
2.269805e+003, 3.826369e-001
2.271734e+003, 3.830643e-001
2.273662e+003, 3.837514e-001
2.275591e+003, 3.844776e-001
2.277519e+003, 3.842864e-001
2.279448e+003, 3.837491e-001
2.281376e+003, 3.833735e-001
2.283304e+003, 3.831202e-001
2.285233e+003, 3.838572e-001
2.287161e+003, 3.839812e-001
2.289090e+003, 3.834857e-001
2.291018e+003, 3.837447e-001
2.292947e+003, 3.846426e-001
2.294875e+003, 3.849772e-001
2.296804e+003, 3.847845e-001
2.298732e+003, 3.849143e-001
2.300661e+003, 3.855398e-001
2.302589e+003, 3.861616e-001
2.304518e+003, 3.863774e-001
2.306446e+003, 3.862752e-001
2.308375e+003, 3.858979e-001
2.310303e+003, 3.857583e-001
2.312231e+003, 3.860539e-001
2.314160e+003, 3.863949e-001
2.316088e+003, 3.866682e-001
2.318017e+003, 3.871347e-001
2.319945e+003, 3.875538e-001
2.321874e+003, 3.875619e-001
2.323802e+003, 3.876399e-001
2.325731e+003, 3.884728e-001
2.327659e+003, 3.894052e-001
2.329588e+003, 3.897268e-001
2.331516e+003, 3.897604e-001
2.333445e+003, 3.895028e-001
2.335373e+003, 3.897462e-001
2.337302e+003, 3.902934e-001
2.339230e+003, 3.902678e-001
2.341158e+003, 3.903607e-001
2.343087e+003, 3.907841e-001
2.345015e+003, 3.908078e-001
2.346944e+003, 3.908644e-001
2.348872e+003, 3.903864e-001
2.350801e+003, 3.905954e-001
2.352729e+003, 3.907903e-001
2.354658e+003, 3.909896e-001
2.356586e+003, 3.910930e-001
2.358515e+003, 3.910236e-001
2.360443e+003, 3.916514e-001
2.362372e+003, 3.922403e-001
2.364300e+003, 3.929304e-001
2.366229e+003, 3.932328e-001
2.368157e+003, 3.929147e-001
2.370085e+003, 3.928135e-001
2.372014e+003, 3.925393e-001
2.373942e+003, 3.924969e-001
2.375871e+003, 3.927811e-001
2.377799e+003, 3.924305e-001
2.379728e+003, 3.921117e-001
2.381656e+003, 3.920305e-001
2.383585e+003, 3.919906e-001
2.385513e+003, 3.925162e-001
2.387442e+003, 3.928277e-001
2.389370e+003, 3.930927e-001
2.391299e+003, 3.933296e-001
2.393227e+003, 3.934990e-001
2.395156e+003, 3.934767e-001
2.397084e+003, 3.930854e-001
2.399012e+003, 3.929564e-001
2.400941e+003, 3.934724e-001
2.402869e+003, 3.929774e-001
2.404798e+003, 3.928586e-001
2.406726e+003, 3.931149e-001
2.408655e+003, 3.933175e-001
2.410583e+003, 3.940732e-001
2.412512e+003, 3.945046e-001
2.414440e+003, 3.946405e-001
2.416369e+003, 3.945740e-001
2.418297e+003, 3.943104e-001
2.420226e+003, 3.940718e-001
2.422154e+003, 3.940056e-001
2.424083e+003, 3.946522e-001
2.426011e+003, 3.942493e-001
2.427939e+003, 3.944920e-001
2.429868e+003, 3.955303e-001
2.431796e+003, 3.958703e-001
2.433725e+003, 3.949907e-001
2.435653e+003, 3.946974e-001
2.437582e+003, 3.947619e-001
2.439510e+003, 3.950624e-001
2.441439e+003, 3.952448e-001
2.443367e+003, 3.952056e-001
2.445296e+003, 3.955647e-001
2.447224e+003, 3.957930e-001
2.449153e+003, 3.954854e-001
2.451081e+003, 3.958634e-001
2.453010e+003, 3.961267e-001
2.454938e+003, 3.958554e-001
2.456866e+003, 3.964032e-001
2.458795e+003, 3.970253e-001
2.460723e+003, 3.972268e-001
2.462652e+003, 3.971801e-001
2.464580e+003, 3.967530e-001
2.466509e+003, 3.970910e-001
2.468437e+003, 3.979643e-001
2.470366e+003, 3.982319e-001
2.472294e+003, 3.980127e-001
2.474223e+003, 3.975328e-001
2.476151e+003, 3.976228e-001
2.478080e+003, 3.982649e-001
2.480008e+003, 3.988761e-001
2.481937e+003, 3.988682e-001
2.483865e+003, 3.987365e-001
2.485793e+003, 3.985155e-001
2.487722e+003, 3.986393e-001
2.489650e+003, 3.994407e-001
2.491579e+003, 3.995441e-001
2.493507e+003, 3.993544e-001
2.495436e+003, 3.995866e-001
2.497364e+003, 3.997778e-001
2.499293e+003, 3.996033e-001
2.501221e+003, 3.994927e-001
2.503150e+003, 4.001308e-001
2.505078e+003, 4.005832e-001
2.507007e+003, 4.001905e-001
2.508935e+003, 4.001907e-001
2.510864e+003, 4.009380e-001
2.512792e+003, 4.009646e-001
2.514720e+003, 4.005222e-001
2.516649e+003, 4.008092e-001
2.518577e+003, 4.009569e-001
2.520506e+003, 4.012545e-001
2.522434e+003, 4.015427e-001
2.524363e+003, 4.017273e-001
2.526291e+003, 4.017187e-001
2.528220e+003, 4.014875e-001
2.530148e+003, 4.015605e-001
2.532077e+003, 4.016190e-001
2.534005e+003, 4.015234e-001
2.535934e+003, 4.016674e-001
2.537862e+003, 4.018829e-001
2.539791e+003, 4.025172e-001
2.541719e+003, 4.031090e-001
2.543647e+003, 4.025509e-001
2.545576e+003, 4.024142e-001
2.547504e+003, 4.031790e-001
2.549433e+003, 4.032813e-001
2.551361e+003, 4.031866e-001
2.553290e+003, 4.031986e-001
2.555218e+003, 4.031545e-001
2.557147e+003, 4.028091e-001
2.559075e+003, 4.029330e-001
2.561004e+003, 4.034965e-001
2.562932e+003, 4.037197e-001
2.564861e+003, 4.035522e-001
2.566789e+003, 4.035320e-001
2.568718e+003, 4.037731e-001
2.570646e+003, 4.038672e-001
2.572574e+003, 4.041365e-001
2.574503e+003, 4.046650e-001
2.576431e+003, 4.048203e-001
2.578360e+003, 4.047365e-001
2.580288e+003, 4.049907e-001
2.582217e+003, 4.052009e-001
2.584145e+003, 4.050796e-001
2.586074e+003, 4.052831e-001
2.588002e+003, 4.058495e-001
2.589931e+003, 4.061811e-001
2.591859e+003, 4.061667e-001
2.593788e+003, 4.060090e-001
2.595716e+003, 4.061037e-001
2.597645e+003, 4.065947e-001
2.599573e+003, 4.065810e-001
2.601501e+003, 4.065759e-001
2.603430e+003, 4.067862e-001
2.605358e+003, 4.069260e-001
2.607287e+003, 4.068459e-001
2.609215e+003, 4.071389e-001
2.611144e+003, 4.079404e-001
2.613072e+003, 4.082122e-001
2.615001e+003, 4.080885e-001
2.616929e+003, 4.083268e-001
2.618858e+003, 4.084588e-001
2.620786e+003, 4.085904e-001
2.622715e+003, 4.089923e-001
2.624643e+003, 4.093038e-001
2.626572e+003, 4.093493e-001
2.628500e+003, 4.093852e-001
2.630428e+003, 4.099924e-001
2.632357e+003, 4.105127e-001
2.634285e+003, 4.109789e-001
2.636214e+003, 4.111907e-001
2.638142e+003, 4.109907e-001
2.640071e+003, 4.110621e-001
2.641999e+003, 4.110289e-001
2.643928e+003, 4.112003e-001
2.645856e+003, 4.116134e-001
2.647785e+003, 4.117967e-001
2.649713e+003, 4.121578e-001
2.651642e+003, 4.129070e-001
2.653570e+003, 4.130558e-001
2.655499e+003, 4.130754e-001
2.657427e+003, 4.134865e-001
2.659355e+003, 4.137262e-001
2.661284e+003, 4.138435e-001
2.663212e+003, 4.143137e-001
2.665141e+003, 4.145746e-001
2.667069e+003, 4.146253e-001
2.668998e+003, 4.146251e-001
2.670926e+003, 4.146245e-001
2.672855e+003, 4.149287e-001
2.674783e+003, 4.151478e-001
2.676712e+003, 4.153950e-001
2.678640e+003, 4.156649e-001
2.680569e+003, 4.155501e-001
2.682497e+003, 4.155322e-001
2.684426e+003, 4.156782e-001
2.686354e+003, 4.159305e-001
2.688282e+003, 4.163395e-001
2.690211e+003, 4.165673e-001
2.692139e+003, 4.163564e-001
2.694068e+003, 4.163748e-001
2.695996e+003, 4.167471e-001
2.697925e+003, 4.171140e-001
2.699853e+003, 4.171238e-001
2.701782e+003, 4.172598e-001
2.703710e+003, 4.174359e-001
2.705639e+003, 4.176030e-001
2.707567e+003, 4.176199e-001
2.709496e+003, 4.177219e-001
2.711424e+003, 4.178474e-001
2.713353e+003, 4.179223e-001
2.715281e+003, 4.179755e-001
2.717209e+003, 4.179941e-001
2.719138e+003, 4.177692e-001
2.721066e+003, 4.178667e-001
2.722995e+003, 4.184394e-001
2.724923e+003, 4.187705e-001
2.726852e+003, 4.189373e-001
2.728780e+003, 4.190758e-001
2.730709e+003, 4.193282e-001
2.732637e+003, 4.195894e-001
2.734566e+003, 4.193539e-001
2.736494e+003, 4.193325e-001
2.738423e+003, 4.196939e-001
2.740351e+003, 4.195277e-001
2.742280e+003, 4.194666e-001
2.744208e+003, 4.198999e-001
2.746136e+003, 4.200157e-001
2.748065e+003, 4.199672e-001
2.749993e+003, 4.200566e-001
2.751922e+003, 4.204240e-001
2.753850e+003, 4.204918e-001
2.755779e+003, 4.202529e-001
2.757707e+003, 4.198493e-001
2.759636e+003, 4.199789e-001
2.761564e+003, 4.204547e-001
2.763493e+003, 4.206977e-001
2.765421e+003, 4.208972e-001
2.767350e+003, 4.207408e-001
2.769278e+003, 4.206150e-001
2.771207e+003, 4.210819e-001
2.773135e+003, 4.213358e-001
2.775063e+003, 4.213385e-001
2.776992e+003, 4.215451e-001
2.778920e+003, 4.216557e-001
2.780849e+003, 4.214822e-001
2.782777e+003, 4.215217e-001
2.784706e+003, 4.214691e-001
2.786634e+003, 4.216954e-001
2.788563e+003, 4.218371e-001
2.790491e+003, 4.219421e-001
2.792420e+003, 4.223354e-001
2.794348e+003, 4.227287e-001
2.796277e+003, 4.229281e-001
2.798205e+003, 4.230329e-001
2.800134e+003, 4.230841e-001
2.802062e+003, 4.227488e-001
2.803990e+003, 4.227865e-001
2.805919e+003, 4.230792e-001
2.807847e+003, 4.231840e-001
2.809776e+003, 4.234182e-001
2.811704e+003, 4.238112e-001
2.813633e+003, 4.236783e-001
2.815561e+003, 4.238457e-001
2.817490e+003, 4.241709e-001
2.819418e+003, 4.241678e-001
2.821347e+003, 4.241359e-001
2.823275e+003, 4.241389e-001
2.825204e+003, 4.241954e-001
2.827132e+003, 4.243248e-001
2.829061e+003, 4.247987e-001
2.830989e+003, 4.248001e-001
2.832917e+003, 4.245113e-001
2.834846e+003, 4.247861e-001
2.836774e+003, 4.252140e-001
2.838703e+003, 4.254186e-001
2.840631e+003, 4.256447e-001
2.842560e+003, 4.259298e-001
2.844488e+003, 4.257219e-001
2.846417e+003, 4.255715e-001
2.848345e+003, 4.259915e-001
2.850274e+003, 4.261501e-001
2.852202e+003, 4.258029e-001
2.854131e+003, 4.255101e-001
2.856059e+003, 4.252526e-001
2.857988e+003, 4.253437e-001
2.859916e+003, 4.258552e-001
2.861844e+003, 4.264143e-001
2.863773e+003, 4.262728e-001
2.865701e+003, 4.258641e-001
2.867630e+003, 4.256957e-001
2.869558e+003, 4.259553e-001
2.871487e+003, 4.264728e-001
2.873415e+003, 4.269280e-001
2.875344e+003, 4.270095e-001
2.877272e+003, 4.270226e-001
2.879201e+003, 4.269462e-001
2.881129e+003, 4.271322e-001
2.883058e+003, 4.274329e-001
2.884986e+003, 4.273548e-001
2.886915e+003, 4.274292e-001
2.888843e+003, 4.277011e-001
2.890771e+003, 4.278288e-001
2.892700e+003, 4.277921e-001
2.894628e+003, 4.277717e-001
2.896557e+003, 4.277863e-001
2.898485e+003, 4.280294e-001
2.900414e+003, 4.282475e-001
2.902342e+003, 4.283435e-001
2.904271e+003, 4.286663e-001
2.906199e+003, 4.290055e-001
2.908128e+003, 4.289655e-001
2.910056e+003, 4.290352e-001
2.911985e+003, 4.291010e-001
2.913913e+003, 4.292490e-001
2.915842e+003, 4.293706e-001
2.917770e+003, 4.294692e-001
2.919698e+003, 4.293706e-001
2.921627e+003, 4.289187e-001
2.923555e+003, 4.284958e-001
2.925484e+003, 4.283482e-001
2.927412e+003, 4.282106e-001
2.929341e+003, 4.284124e-001
2.931269e+003, 4.285425e-001
2.933198e+003, 4.286958e-001
2.935126e+003, 4.286770e-001
2.937055e+003, 4.286910e-001
2.938983e+003, 4.287384e-001
2.940912e+003, 4.289137e-001
2.942840e+003, 4.289464e-001
2.944769e+003, 4.289798e-001
2.946697e+003, 4.291504e-001
2.948625e+003, 4.297624e-001
2.950554e+003, 4.302747e-001
2.952482e+003, 4.301080e-001
2.954411e+003, 4.290688e-001
2.956339e+003, 4.282617e-001
2.958268e+003, 4.283849e-001
2.960196e+003, 4.286154e-001
2.962125e+003, 4.287384e-001
2.964053e+003, 4.286616e-001
2.965982e+003, 4.288149e-001
2.967910e+003, 4.287839e-001
2.969839e+003, 4.283279e-001
2.971767e+003, 4.283551e-001
2.973696e+003, 4.288339e-001
2.975624e+003, 4.286614e-001
2.977552e+003, 4.289069e-001
2.979481e+003, 4.289810e-001
2.981409e+003, 4.288567e-001
2.983338e+003, 4.289113e-001
2.985266e+003, 4.290624e-001
2.987195e+003, 4.292613e-001
2.989123e+003, 4.298118e-001
2.991052e+003, 4.298976e-001
2.992980e+003, 4.299692e-001
2.994909e+003, 4.303515e-001
2.996837e+003, 4.305491e-001
2.998766e+003, 4.307659e-001
3.000694e+003, 4.305237e-001
3.002623e+003, 4.307021e-001
3.004551e+003, 4.309700e-001
3.006479e+003, 4.307368e-001
3.008408e+003, 4.305849e-001
3.010336e+003, 4.307531e-001
3.012265e+003, 4.310839e-001
3.014193e+003, 4.317761e-001
3.016122e+003, 4.324083e-001
3.018050e+003, 4.319601e-001
3.019979e+003, 4.309256e-001
3.021907e+003, 4.308148e-001
3.023836e+003, 4.309042e-001
3.025764e+003, 4.310756e-001
3.027693e+003, 4.315565e-001
3.029621e+003, 4.318472e-001
3.031550e+003, 4.319331e-001
3.033478e+003, 4.320821e-001
3.035406e+003, 4.321661e-001
3.037335e+003, 4.318040e-001
3.039263e+003, 4.316571e-001
3.041192e+003, 4.317930e-001
3.043120e+003, 4.318585e-001
3.045049e+003, 4.323523e-001
3.046977e+003, 4.324803e-001
3.048906e+003, 4.326411e-001
3.050834e+003, 4.330154e-001
3.052763e+003, 4.329321e-001
3.054691e+003, 4.326690e-001
3.056620e+003, 4.324875e-001
3.058548e+003, 4.322381e-001
3.060477e+003, 4.325391e-001
3.062405e+003, 4.329912e-001
3.064333e+003, 4.330999e-001
3.066262e+003, 4.332944e-001
3.068190e+003, 4.334789e-001
3.070119e+003, 4.333386e-001
3.072047e+003, 4.333356e-001
3.073976e+003, 4.332211e-001
3.075904e+003, 4.333667e-001
3.077833e+003, 4.338484e-001
3.079761e+003, 4.342556e-001
3.081690e+003, 4.338253e-001
3.083618e+003, 4.335441e-001
3.085547e+003, 4.338859e-001
3.087475e+003, 4.337396e-001
3.089404e+003, 4.336811e-001
3.091332e+003, 4.343734e-001
3.093260e+003, 4.348289e-001
3.095189e+003, 4.347053e-001
3.097117e+003, 4.342773e-001
3.099046e+003, 4.343120e-001
3.100974e+003, 4.339580e-001
3.102903e+003, 4.339887e-001
3.104831e+003, 4.343417e-001
3.106760e+003, 4.345839e-001
3.108688e+003, 4.349469e-001
3.110617e+003, 4.352723e-001
3.112545e+003, 4.350454e-001
3.114474e+003, 4.347377e-001
3.116402e+003, 4.350499e-001
3.118331e+003, 4.354205e-001
3.120259e+003, 4.357511e-001
3.122188e+003, 4.359378e-001
3.124116e+003, 4.359832e-001
3.126044e+003, 4.359767e-001
3.127973e+003, 4.353807e-001
3.129901e+003, 4.355339e-001
3.131830e+003, 4.361912e-001
3.133758e+003, 4.359968e-001
3.135687e+003, 4.354872e-001
3.137615e+003, 4.359083e-001
3.139544e+003, 4.363586e-001
3.141472e+003, 4.364189e-001
3.143401e+003, 4.363884e-001
3.145329e+003, 4.370509e-001
3.147258e+003, 4.372097e-001
3.149186e+003, 4.369268e-001
3.151115e+003, 4.369486e-001
3.153043e+003, 4.363845e-001
3.154971e+003, 4.362179e-001
3.156900e+003, 4.367227e-001
3.158828e+003, 4.365878e-001
3.160757e+003, 4.376936e-001
3.162685e+003, 4.377508e-001
3.164614e+003, 4.372429e-001
3.166542e+003, 4.376283e-001
3.168471e+003, 4.375327e-001
3.170399e+003, 4.374565e-001
3.172328e+003, 4.372722e-001
3.174256e+003, 4.378199e-001
3.176185e+003, 4.384177e-001
3.178113e+003, 4.383157e-001
3.180042e+003, 4.378890e-001
3.181970e+003, 4.381651e-001
3.183898e+003, 4.384483e-001
3.185827e+003, 4.386651e-001
3.187755e+003, 4.388666e-001
3.189684e+003, 4.385060e-001
3.191612e+003, 4.381579e-001
3.193541e+003, 4.379956e-001
3.195469e+003, 4.381556e-001
3.197398e+003, 4.386123e-001
3.199326e+003, 4.388388e-001
3.201255e+003, 4.387569e-001
3.203183e+003, 4.386779e-001
3.205112e+003, 4.391269e-001
3.207040e+003, 4.395966e-001
3.208969e+003, 4.397434e-001
3.210897e+003, 4.397480e-001
3.212825e+003, 4.397013e-001
3.214754e+003, 4.397569e-001
3.216682e+003, 4.401424e-001
3.218611e+003, 4.402308e-001
3.220539e+003, 4.397096e-001
3.222468e+003, 4.393158e-001
3.224396e+003, 4.396756e-001
3.226325e+003, 4.395075e-001
3.228253e+003, 4.395305e-001
3.230182e+003, 4.395297e-001
3.232110e+003, 4.396457e-001
3.234039e+003, 4.399477e-001
3.235967e+003, 4.406518e-001
3.237896e+003, 4.404504e-001
3.239824e+003, 4.405125e-001
3.241752e+003, 4.408916e-001
3.243681e+003, 4.412289e-001
3.245609e+003, 4.414701e-001
3.247538e+003, 4.415087e-001
3.249466e+003, 4.415213e-001
3.251395e+003, 4.418667e-001
3.253323e+003, 4.421175e-001
3.255252e+003, 4.418213e-001
3.257180e+003, 4.418537e-001
3.259109e+003, 4.421236e-001
3.261037e+003, 4.420939e-001
3.262966e+003, 4.421554e-001
3.264894e+003, 4.422104e-001
3.266823e+003, 4.423475e-001
3.268751e+003, 4.421857e-001
3.270679e+003, 4.423275e-001
3.272608e+003, 4.426857e-001
3.274536e+003, 4.424525e-001
3.276465e+003, 4.424978e-001
3.278393e+003, 4.429000e-001
3.280322e+003, 4.427698e-001
3.282250e+003, 4.427644e-001
3.284179e+003, 4.426276e-001
3.286107e+003, 4.425640e-001
3.288036e+003, 4.429692e-001
3.289964e+003, 4.434446e-001
3.291893e+003, 4.440194e-001
3.293821e+003, 4.439628e-001
3.295750e+003, 4.434831e-001
3.297678e+003, 4.435356e-001
3.299606e+003, 4.441616e-001
3.301535e+003, 4.443096e-001
3.303463e+003, 4.437240e-001
3.305392e+003, 4.434469e-001
3.307320e+003, 4.438227e-001
3.309249e+003, 4.438910e-001
3.311177e+003, 4.435803e-001
3.313106e+003, 4.439069e-001
3.315034e+003, 4.444792e-001
3.316963e+003, 4.447585e-001
3.318891e+003, 4.452569e-001
3.320820e+003, 4.452710e-001
3.322748e+003, 4.451748e-001
3.324677e+003, 4.451476e-001
3.326605e+003, 4.450701e-001
3.328533e+003, 4.447401e-001
3.330462e+003, 4.443281e-001
3.332390e+003, 4.447496e-001
3.334319e+003, 4.453918e-001
3.336247e+003, 4.452386e-001
3.338176e+003, 4.450932e-001
3.340104e+003, 4.445809e-001
3.342033e+003, 4.442027e-001
3.343961e+003, 4.443232e-001
3.345890e+003, 4.451739e-001
3.347818e+003, 4.457790e-001
3.349747e+003, 4.451003e-001
3.351675e+003, 4.447465e-001
3.353604e+003, 4.454128e-001
3.355532e+003, 4.457432e-001
3.357460e+003, 4.457264e-001
3.359389e+003, 4.447119e-001
3.361317e+003, 4.440589e-001
3.363246e+003, 4.441921e-001
3.365174e+003, 4.448106e-001
3.367103e+003, 4.452774e-001
3.369031e+003, 4.460103e-001
3.370960e+003, 4.465175e-001
3.372888e+003, 4.468833e-001
3.374817e+003, 4.473116e-001
3.376745e+003, 4.467766e-001
3.378674e+003, 4.462551e-001
3.380602e+003, 4.463064e-001
3.382531e+003, 4.458099e-001
3.384459e+003, 4.458571e-001
3.386387e+003, 4.467572e-001
3.388316e+003, 4.473547e-001
3.390244e+003, 4.471822e-001
3.392173e+003, 4.472735e-001
3.394101e+003, 4.470494e-001
3.396030e+003, 4.466906e-001
3.397958e+003, 4.466350e-001
3.399887e+003, 4.467795e-001
3.401815e+003, 4.469908e-001
3.403744e+003, 4.467492e-001
3.405672e+003, 4.468894e-001
3.407601e+003, 4.468613e-001
3.409529e+003, 4.471919e-001
3.411458e+003, 4.474488e-001
3.413386e+003, 4.474804e-001
3.415314e+003, 4.473234e-001
3.417243e+003, 4.473324e-001
3.419171e+003, 4.470564e-001
3.421100e+003, 4.467825e-001
3.423028e+003, 4.470457e-001
3.424957e+003, 4.472927e-001
3.426885e+003, 4.474694e-001
3.428814e+003, 4.477117e-001
3.430742e+003, 4.478863e-001
3.432671e+003, 4.480183e-001
3.434599e+003, 4.477619e-001
3.436528e+003, 4.486409e-001
3.438456e+003, 4.488807e-001
3.440385e+003, 4.482790e-001
3.442313e+003, 4.482951e-001
3.444241e+003, 4.482060e-001
3.446170e+003, 4.480268e-001
3.448098e+003, 4.487481e-001
3.450027e+003, 4.500101e-001
3.451955e+003, 4.501171e-001
3.453884e+003, 4.492749e-001
3.455812e+003, 4.494271e-001
3.457741e+003, 4.499454e-001
3.459669e+003, 4.493954e-001
3.461598e+003, 4.490821e-001
3.463526e+003, 4.489447e-001
3.465455e+003, 4.492471e-001
3.467383e+003, 4.496058e-001
3.469312e+003, 4.502114e-001
3.471240e+003, 4.508651e-001
3.473168e+003, 4.509137e-001
3.475097e+003, 4.511277e-001
3.477025e+003, 4.508122e-001
3.478954e+003, 4.497783e-001
3.480882e+003, 4.496930e-001
3.482811e+003, 4.495347e-001
3.484739e+003, 4.499080e-001
3.486668e+003, 4.502761e-001
3.488596e+003, 4.498531e-001
3.490525e+003, 4.497555e-001
3.492453e+003, 4.501362e-001
3.494382e+003, 4.502522e-001
3.496310e+003, 4.507613e-001
3.498239e+003, 4.514752e-001
3.500167e+003, 4.514642e-001
3.502095e+003, 4.509574e-001
3.504024e+003, 4.508015e-001
3.505952e+003, 4.510922e-001
3.507881e+003, 4.517708e-001
3.509809e+003, 4.516197e-001
3.511738e+003, 4.511884e-001
3.513666e+003, 4.521123e-001
3.515595e+003, 4.520720e-001
3.517523e+003, 4.513952e-001
3.519452e+003, 4.512398e-001
3.521380e+003, 4.516306e-001
3.523309e+003, 4.528219e-001
3.525237e+003, 4.527932e-001
3.527166e+003, 4.524752e-001
3.529094e+003, 4.525743e-001
3.531022e+003, 4.523180e-001
3.532951e+003, 4.523416e-001
3.534879e+003, 4.526429e-001
3.536808e+003, 4.523203e-001
3.538736e+003, 4.519562e-001
3.540665e+003, 4.519234e-001
3.542593e+003, 4.528272e-001
3.544522e+003, 4.533622e-001
3.546450e+003, 4.533852e-001
3.548379e+003, 4.531280e-001
3.550307e+003, 4.534450e-001
3.552236e+003, 4.533359e-001
3.554164e+003, 4.527591e-001
3.556093e+003, 4.532672e-001
3.558021e+003, 4.534461e-001
3.559949e+003, 4.534381e-001
3.561878e+003, 4.534339e-001
3.563806e+003, 4.540346e-001
3.565735e+003, 4.546176e-001
3.567663e+003, 4.541166e-001
3.569592e+003, 4.537480e-001
3.571520e+003, 4.542482e-001
3.573449e+003, 4.545127e-001
3.575377e+003, 4.542554e-001
3.577306e+003, 4.538204e-001
3.579234e+003, 4.535473e-001
3.581163e+003, 4.537947e-001
3.583091e+003, 4.538972e-001
3.585020e+003, 4.543354e-001
3.586948e+003, 4.540986e-001
3.588876e+003, 4.540880e-001
3.590805e+003, 4.535886e-001
3.592733e+003, 4.533500e-001
3.594662e+003, 4.546744e-001
3.596590e+003, 4.552878e-001
3.598519e+003, 4.544895e-001
3.600447e+003, 4.537640e-001
3.602376e+003, 4.550142e-001
3.604304e+003, 4.550775e-001
3.606233e+003, 4.545756e-001
3.608161e+003, 4.553756e-001
3.610090e+003, 4.552638e-001
3.612018e+003, 4.552165e-001
3.613947e+003, 4.548913e-001
3.615875e+003, 4.547310e-001
3.617803e+003, 4.558173e-001
3.619732e+003, 4.570536e-001
3.621660e+003, 4.564087e-001
3.623589e+003, 4.565062e-001
3.625517e+003, 4.569567e-001
3.627446e+003, 4.564693e-001
3.629374e+003, 4.561002e-001
3.631303e+003, 4.560955e-001
3.633231e+003, 4.562576e-001
3.635160e+003, 4.564502e-001
3.637088e+003, 4.552430e-001
3.639017e+003, 4.546844e-001
3.640945e+003, 4.553460e-001
3.642874e+003, 4.565378e-001
3.644802e+003, 4.574552e-001
3.646730e+003, 4.576829e-001
3.648659e+003, 4.574772e-001
3.650587e+003, 4.573686e-001
3.652516e+003, 4.572746e-001
3.654444e+003, 4.564118e-001
3.656373e+003, 4.558993e-001
3.658301e+003, 4.563638e-001
3.660230e+003, 4.569875e-001
3.662158e+003, 4.573776e-001
3.664087e+003, 4.576564e-001
3.666015e+003, 4.570694e-001
3.667944e+003, 4.563841e-001
3.669872e+003, 4.574869e-001
3.671801e+003, 4.584359e-001
3.673729e+003, 4.584565e-001
3.675657e+003, 4.579545e-001
3.677586e+003, 4.566870e-001
3.679514e+003, 4.565496e-001
3.681443e+003, 4.576635e-001
3.683371e+003, 4.585040e-001
3.685300e+003, 4.581865e-001
3.687228e+003, 4.582197e-001
3.689157e+003, 4.586422e-001
3.691085e+003, 4.581079e-001
3.693014e+003, 4.584984e-001
3.694942e+003, 4.585347e-001
3.696871e+003, 4.591326e-001
3.698799e+003, 4.599170e-001
3.700728e+003, 4.599608e-001
3.702656e+003, 4.599175e-001
3.704584e+003, 4.594757e-001
3.706513e+003, 4.584641e-001
3.708441e+003, 4.581123e-001
3.710370e+003, 4.584161e-001
3.712298e+003, 4.586261e-001
3.714227e+003, 4.590809e-001
3.716155e+003, 4.594188e-001
3.718084e+003, 4.603675e-001
3.720012e+003, 4.607204e-001
3.721941e+003, 4.599158e-001
3.723869e+003, 4.595866e-001
3.725798e+003, 4.597574e-001
3.727726e+003, 4.606842e-001
3.729655e+003, 4.606107e-001
3.731583e+003, 4.605963e-001
3.733511e+003, 4.607263e-001
3.735440e+003, 4.609223e-001
3.737368e+003, 4.602248e-001
3.739297e+003, 4.596092e-001
3.741225e+003, 4.607303e-001
3.743154e+003, 4.610798e-001
3.745082e+003, 4.610796e-001
3.747011e+003, 4.618036e-001
3.748939e+003, 4.620676e-001
3.750868e+003, 4.618700e-001
3.752796e+003, 4.617293e-001
3.754725e+003, 4.612279e-001
3.756653e+003, 4.609419e-001
3.758582e+003, 4.612599e-001
3.760510e+003, 4.618326e-001
3.762438e+003, 4.626254e-001
3.764367e+003, 4.631262e-001
3.766295e+003, 4.633000e-001
3.768224e+003, 4.631267e-001
3.770152e+003, 4.629232e-001
3.772081e+003, 4.631919e-001
3.774009e+003, 4.638140e-001
3.775938e+003, 4.643574e-001
3.777866e+003, 4.644560e-001
3.779795e+003, 4.637332e-001
3.781723e+003, 4.628395e-001
3.783652e+003, 4.627094e-001
3.785580e+003, 4.631704e-001
3.787509e+003, 4.626124e-001
3.789437e+003, 4.623192e-001
3.791365e+003, 4.624931e-001
3.793294e+003, 4.626469e-001
3.795222e+003, 4.624583e-001
3.797151e+003, 4.625003e-001
3.799079e+003, 4.629783e-001
3.801008e+003, 4.638703e-001
3.802936e+003, 4.648966e-001
3.804865e+003, 4.641121e-001
3.806793e+003, 4.636362e-001
3.808722e+003, 4.642747e-001
3.810650e+003, 4.637855e-001
3.812579e+003, 4.625908e-001
3.814507e+003, 4.629749e-001
3.816436e+003, 4.641550e-001
3.818364e+003, 4.639884e-001
3.820292e+003, 4.646735e-001
3.822221e+003, 4.650334e-001
3.824149e+003, 4.644101e-001
3.826078e+003, 4.645125e-001
3.828006e+003, 4.647033e-001
3.829935e+003, 4.648250e-001
3.831863e+003, 4.643997e-001
3.833792e+003, 4.642808e-001
3.835720e+003, 4.647297e-001
3.837649e+003, 4.654606e-001
3.839577e+003, 4.656553e-001
3.841506e+003, 4.649630e-001
3.843434e+003, 4.639888e-001
3.845363e+003, 4.647250e-001
3.847291e+003, 4.659820e-001
3.849219e+003, 4.661849e-001
3.851148e+003, 4.660401e-001
3.853076e+003, 4.667801e-001
3.855005e+003, 4.668314e-001
3.856933e+003, 4.662887e-001
3.858862e+003, 4.655159e-001
3.860790e+003, 4.652244e-001
3.862719e+003, 4.651151e-001
3.864647e+003, 4.655961e-001
3.866576e+003, 4.651546e-001
3.868504e+003, 4.650416e-001
3.870433e+003, 4.658394e-001
3.872361e+003, 4.659348e-001
3.874290e+003, 4.662913e-001
3.876218e+003, 4.660994e-001
3.878146e+003, 4.658473e-001
3.880075e+003, 4.661935e-001
3.882003e+003, 4.665666e-001
3.883932e+003, 4.670430e-001
3.885860e+003, 4.669541e-001
3.887789e+003, 4.666101e-001
3.889717e+003, 4.664183e-001
3.891646e+003, 4.663917e-001
3.893574e+003, 4.657879e-001
3.895503e+003, 4.661251e-001
3.897431e+003, 4.665976e-001
3.899360e+003, 4.668868e-001
3.901288e+003, 4.674798e-001
3.903217e+003, 4.672503e-001
3.905145e+003, 4.667501e-001
3.907073e+003, 4.667299e-001
3.909002e+003, 4.675898e-001
3.910930e+003, 4.675550e-001
3.912859e+003, 4.672122e-001
3.914787e+003, 4.677197e-001
3.916716e+003, 4.684763e-001
3.918644e+003, 4.677365e-001
3.920573e+003, 4.667587e-001
3.922501e+003, 4.670950e-001
3.924430e+003, 4.675230e-001
3.926358e+003, 4.671146e-001
3.928287e+003, 4.672695e-001
3.930215e+003, 4.674340e-001
3.932144e+003, 4.676550e-001
3.934072e+003, 4.674807e-001
3.936000e+003, 4.675581e-001
3.937929e+003, 4.682980e-001
3.939857e+003, 4.686688e-001
3.941786e+003, 4.681213e-001
3.943714e+003, 4.679575e-001
3.945643e+003, 4.683178e-001
3.947571e+003, 4.685325e-001
3.949500e+003, 4.682201e-001
3.951428e+003, 4.682054e-001
3.953357e+003, 4.684515e-001
3.955285e+003, 4.688726e-001
3.957214e+003, 4.686826e-001
3.959142e+003, 4.688554e-001
3.961071e+003, 4.682957e-001
3.962999e+003, 4.678895e-001
3.964927e+003, 4.688426e-001
3.966856e+003, 4.691003e-001
3.968784e+003, 4.686165e-001
3.970713e+003, 4.682618e-001
3.972641e+003, 4.684869e-001
3.974570e+003, 4.690920e-001
3.976498e+003, 4.688006e-001
3.978427e+003, 4.688888e-001
3.980355e+003, 4.686194e-001
3.982284e+003, 4.689227e-001
3.984212e+003, 4.690641e-001
3.986141e+003, 4.685705e-001
3.988069e+003, 4.690222e-001
3.989998e+003, 4.696444e-001
3.991926e+003, 4.691381e-001
3.993854e+003, 4.683951e-001
3.995783e+003, 4.690646e-001
3.997711e+003, 4.700712e-001
##END=



