##NAMES=Arsenic
##RRUFFID=R050653
##IDEAL CHEMISTRY=As
##LOCALITY=Japan
##OWNER=RRUFF
##SOURCE=University of Arizona Mineral Museum
##DESCRIPTION=Gray massive
##STATUS=The identification of this mineral has been confirmed by X-ray diffraction and chemical analysis
##URL=rruff.info/R050653
##MEASURED CHEMISTRY=As
3.991926e+002, 1.082473e-001
4.011211e+002, 1.377953e-001
4.030495e+002, 1.422451e-001
4.049780e+002, 1.276389e-001
4.069065e+002, 1.559607e-001
4.088349e+002, 1.878975e-001
4.107634e+002, 1.941936e-001
4.126919e+002, 1.976323e-001
4.146203e+002, 2.071498e-001
4.165488e+002, 2.040456e-001
4.184773e+002, 1.996620e-001
4.204057e+002, 2.030476e-001
4.223342e+002, 1.928280e-001
4.242627e+002, 1.770715e-001
4.261911e+002, 1.729950e-001
4.281196e+002, 1.635735e-001
4.300481e+002, 1.494128e-001
4.319765e+002, 1.422437e-001
4.339050e+002, 1.330148e-001
4.358335e+002, 1.214043e-001
4.377619e+002, 1.130815e-001
4.396904e+002, 1.124307e-001
4.416189e+002, 1.168876e-001
4.435473e+002, 1.259120e-001
4.454758e+002, 1.425626e-001
4.474043e+002, 1.602361e-001
4.493327e+002, 1.731768e-001
4.512612e+002, 1.880704e-001
4.531897e+002, 2.090310e-001
4.551181e+002, 2.252502e-001
4.570466e+002, 2.370477e-001
4.589751e+002, 2.532594e-001
4.609035e+002, 2.698472e-001
4.628320e+002, 2.835653e-001
4.647605e+002, 2.991795e-001
4.666889e+002, 3.212966e-001
4.686174e+002, 3.390080e-001
4.705459e+002, 3.545027e-001
4.724743e+002, 3.695768e-001
4.744028e+002, 3.721306e-001
4.763313e+002, 3.548532e-001
4.782597e+002, 3.276712e-001
4.801882e+002, 2.964130e-001
4.821167e+002, 2.698693e-001
4.840451e+002, 2.511776e-001
4.859736e+002, 2.383191e-001
4.879021e+002, 2.286677e-001
4.898305e+002, 2.205075e-001
4.917590e+002, 2.107042e-001
4.936875e+002, 1.978561e-001
4.956159e+002, 1.838412e-001
4.975444e+002, 1.731848e-001
4.994729e+002, 1.633368e-001
5.014013e+002, 1.561082e-001
5.033298e+002, 1.514784e-001
5.052583e+002, 1.471999e-001
5.071867e+002, 1.458433e-001
5.091152e+002, 1.471666e-001
5.110437e+002, 1.491537e-001
5.129721e+002, 1.506607e-001
5.149006e+002, 1.539411e-001
5.168290e+002, 1.601435e-001
5.187575e+002, 1.664931e-001
5.206860e+002, 1.714920e-001
5.226144e+002, 1.769314e-001
5.245429e+002, 1.812695e-001
5.264714e+002, 1.841457e-001
5.283998e+002, 1.888991e-001
5.303283e+002, 1.923140e-001
5.322568e+002, 1.915682e-001
5.341852e+002, 1.921697e-001
5.361137e+002, 1.945355e-001
5.380422e+002, 1.946342e-001
5.399706e+002, 1.927090e-001
5.418991e+002, 1.917873e-001
5.438276e+002, 1.909261e-001
5.457560e+002, 1.891643e-001
5.476845e+002, 1.867195e-001
5.496130e+002, 1.845030e-001
5.515414e+002, 1.822952e-001
5.534699e+002, 1.802001e-001
5.553984e+002, 1.785405e-001
5.573268e+002, 1.762808e-001
5.592553e+002, 1.742306e-001
5.611838e+002, 1.716593e-001
5.631122e+002, 1.682577e-001
5.650407e+002, 1.649963e-001
5.669692e+002, 1.630024e-001
5.688976e+002, 1.603262e-001
5.708261e+002, 1.572404e-001
5.727546e+002, 1.560458e-001
5.746830e+002, 1.567963e-001
5.766115e+002, 1.567798e-001
5.785400e+002, 1.559477e-001
5.804684e+002, 1.573381e-001
5.823969e+002, 1.583021e-001
5.843254e+002, 1.573208e-001
5.862538e+002, 1.580040e-001
5.881823e+002, 1.597468e-001
5.901108e+002, 1.588185e-001
5.920392e+002, 1.579910e-001
5.939677e+002, 1.594037e-001
5.958962e+002, 1.604619e-001
5.978246e+002, 1.620005e-001
5.997531e+002, 1.655765e-001
6.016816e+002, 1.684326e-001
6.036100e+002, 1.707036e-001
6.055385e+002, 1.714193e-001
6.074670e+002, 1.689534e-001
6.093954e+002, 1.657126e-001
6.113239e+002, 1.648620e-001
6.132524e+002, 1.656827e-001
6.151808e+002, 1.667148e-001
6.171093e+002, 1.684846e-001
6.190378e+002, 1.723196e-001
6.209662e+002, 1.768784e-001
6.228947e+002, 1.796355e-001
6.248232e+002, 1.809257e-001
6.267516e+002, 1.784941e-001
6.286801e+002, 1.732380e-001
6.306086e+002, 1.697246e-001
6.325370e+002, 1.695090e-001
6.344655e+002, 1.702871e-001
6.363940e+002, 1.707863e-001
6.383224e+002, 1.723184e-001
6.402509e+002, 1.744344e-001
6.421794e+002, 1.757502e-001
6.441078e+002, 1.774836e-001
6.460363e+002, 1.798847e-001
6.479648e+002, 1.818190e-001
6.498932e+002, 1.841446e-001
6.518217e+002, 1.867186e-001
6.537502e+002, 1.891834e-001
6.556786e+002, 1.924885e-001
6.576071e+002, 1.955033e-001
6.595356e+002, 1.977942e-001
6.614641e+002, 1.997770e-001
6.633925e+002, 2.019835e-001
6.653210e+002, 2.047827e-001
6.672495e+002, 2.062131e-001
6.691779e+002, 2.036225e-001
6.711064e+002, 2.002085e-001
6.730349e+002, 1.989331e-001
6.749633e+002, 1.990267e-001
6.768918e+002, 2.003540e-001
6.788203e+002, 2.027148e-001
6.807487e+002, 2.058400e-001
6.826772e+002, 2.083755e-001
6.846057e+002, 2.104324e-001
6.865341e+002, 2.135015e-001
6.884626e+002, 2.164263e-001
6.903911e+002, 2.196915e-001
6.923195e+002, 2.236142e-001
6.942480e+002, 2.268094e-001
6.961765e+002, 2.284675e-001
6.981049e+002, 2.300833e-001
7.000334e+002, 2.324165e-001
7.019619e+002, 2.351949e-001
7.038903e+002, 2.383395e-001
7.058188e+002, 2.416926e-001
7.077473e+002, 2.448822e-001
7.096757e+002, 2.480738e-001
7.116042e+002, 2.517992e-001
7.135327e+002, 2.558009e-001
7.154611e+002, 2.611712e-001
7.173896e+002, 2.667505e-001
7.193181e+002, 2.719058e-001
7.212465e+002, 2.775240e-001
7.231750e+002, 2.836138e-001
7.251035e+002, 2.897622e-001
7.270319e+002, 2.956011e-001
7.289604e+002, 3.011107e-001
7.308889e+002, 3.064829e-001
7.328173e+002, 3.111632e-001
7.347458e+002, 3.160013e-001
7.366743e+002, 3.219363e-001
7.386027e+002, 3.294675e-001
7.405312e+002, 3.380221e-001
7.424597e+002, 3.464369e-001
7.443881e+002, 3.547675e-001
7.463166e+002, 3.644350e-001
7.482451e+002, 3.750395e-001
7.501735e+002, 3.860810e-001
7.521020e+002, 3.974372e-001
7.540305e+002, 4.092520e-001
7.559589e+002, 4.221289e-001
7.578874e+002, 4.356473e-001
7.598159e+002, 4.502242e-001
7.617443e+002, 4.660076e-001
7.636728e+002, 4.825960e-001
7.656013e+002, 4.994968e-001
7.675297e+002, 5.163803e-001
7.694582e+002, 5.315737e-001
7.713867e+002, 5.432164e-001
7.733151e+002, 5.555719e-001
7.752436e+002, 5.697917e-001
7.771721e+002, 5.853145e-001
7.791005e+002, 6.018145e-001
7.810290e+002, 6.197274e-001
7.829575e+002, 6.369324e-001
7.848859e+002, 6.504317e-001
7.868144e+002, 6.601006e-001
7.887429e+002, 6.635900e-001
7.906713e+002, 6.550545e-001
7.925998e+002, 6.301679e-001
7.945283e+002, 5.874026e-001
7.964567e+002, 5.385071e-001
7.983852e+002, 4.985910e-001
8.003137e+002, 4.681512e-001
8.022421e+002, 4.396714e-001
8.041706e+002, 4.100556e-001
8.060991e+002, 3.792838e-001
8.080275e+002, 3.506957e-001
8.099560e+002, 3.257374e-001
8.118845e+002, 3.043419e-001
8.138129e+002, 2.859197e-001
8.157414e+002, 2.693754e-001
8.176699e+002, 2.557286e-001
8.195983e+002, 2.461876e-001
8.215268e+002, 2.382678e-001
8.234553e+002, 2.304256e-001
8.253837e+002, 2.216114e-001
8.273122e+002, 2.127245e-001
8.292407e+002, 2.044535e-001
8.311691e+002, 1.975802e-001
8.330976e+002, 1.920758e-001
8.350261e+002, 1.880177e-001
8.369545e+002, 1.858733e-001
8.388830e+002, 1.841055e-001
8.408115e+002, 1.784516e-001
8.427399e+002, 1.675217e-001
8.446684e+002, 1.541270e-001
8.465969e+002, 1.404378e-001
8.485253e+002, 1.274654e-001
8.504538e+002, 1.164097e-001
8.523823e+002, 1.079165e-001
8.543107e+002, 1.009810e-001
8.562392e+002, 9.476501e-002
8.581677e+002, 9.006479e-002
8.600961e+002, 8.735046e-002
8.620246e+002, 8.622967e-002
8.639531e+002, 8.609297e-002
8.658815e+002, 8.669046e-002
8.678100e+002, 8.755269e-002
8.697385e+002, 8.860686e-002
8.716669e+002, 8.975797e-002
8.735954e+002, 9.048039e-002
8.755239e+002, 9.145685e-002
8.774523e+002, 9.285052e-002
8.793808e+002, 9.380449e-002
8.813093e+002, 9.479497e-002
8.832377e+002, 9.571179e-002
8.851662e+002, 9.654430e-002
8.870947e+002, 9.799103e-002
8.890231e+002, 9.914259e-002
8.909516e+002, 1.006034e-001
8.928801e+002, 1.022137e-001
8.948085e+002, 1.036067e-001
8.967370e+002, 1.058045e-001
8.986655e+002, 1.086112e-001
9.005939e+002, 1.108168e-001
9.025224e+002, 1.133462e-001
9.044509e+002, 1.164155e-001
9.063793e+002, 1.195327e-001
9.083078e+002, 1.230516e-001
9.102363e+002, 1.269435e-001
9.121647e+002, 1.306225e-001
9.140932e+002, 1.335667e-001
9.160217e+002, 1.344555e-001
9.179501e+002, 1.339525e-001
9.198786e+002, 1.329925e-001
9.218071e+002, 1.328906e-001
9.237355e+002, 1.339811e-001
9.256640e+002, 1.354498e-001
9.275925e+002, 1.368777e-001
9.295209e+002, 1.382673e-001
9.314494e+002, 1.396098e-001
9.333779e+002, 1.403618e-001
9.353063e+002, 1.398111e-001
9.372348e+002, 1.387562e-001
9.391633e+002, 1.385141e-001
9.410917e+002, 1.381370e-001
9.430202e+002, 1.377506e-001
9.449487e+002, 1.382110e-001
9.468771e+002, 1.393228e-001
9.488056e+002, 1.405592e-001
9.507341e+002, 1.414886e-001
9.526625e+002, 1.423182e-001
9.545910e+002, 1.432005e-001
9.565195e+002, 1.444708e-001
9.584479e+002, 1.458918e-001
9.603764e+002, 1.477922e-001
9.623049e+002, 1.500309e-001
9.642333e+002, 1.522167e-001
9.661618e+002, 1.545025e-001
9.680903e+002, 1.569663e-001
9.700187e+002, 1.601079e-001
9.719472e+002, 1.634600e-001
9.738757e+002, 1.672567e-001
9.758041e+002, 1.719047e-001
9.777326e+002, 1.767806e-001
9.796611e+002, 1.815424e-001
9.815895e+002, 1.856972e-001
9.835180e+002, 1.896412e-001
9.854465e+002, 1.940005e-001
9.873749e+002, 1.980909e-001
9.893034e+002, 2.013930e-001
9.912319e+002, 2.045089e-001
9.931603e+002, 2.081699e-001
9.950888e+002, 2.118897e-001
9.970173e+002, 2.156113e-001
9.989457e+002, 2.192463e-001
1.000874e+003, 2.225414e-001
1.002803e+003, 2.251909e-001
1.004731e+003, 2.276919e-001
1.006660e+003, 2.301751e-001
1.008588e+003, 2.326754e-001
1.010517e+003, 2.357603e-001
1.012445e+003, 2.394268e-001
1.014373e+003, 2.434227e-001
1.016302e+003, 2.468653e-001
1.018230e+003, 2.477719e-001
1.020159e+003, 2.461519e-001
1.022087e+003, 2.448753e-001
1.024016e+003, 2.465194e-001
1.025944e+003, 2.498808e-001
1.027873e+003, 2.548334e-001
1.029801e+003, 2.598515e-001
1.031730e+003, 2.627261e-001
1.033658e+003, 2.642267e-001
1.035587e+003, 2.651390e-001
1.037515e+003, 2.646391e-001
1.039443e+003, 2.626171e-001
1.041372e+003, 2.596682e-001
1.043300e+003, 2.569992e-001
1.045229e+003, 2.546309e-001
1.047157e+003, 2.521676e-001
1.049086e+003, 2.491644e-001
1.051014e+003, 2.463316e-001
1.052943e+003, 2.424552e-001
1.054871e+003, 2.383464e-001
1.056800e+003, 2.351821e-001
1.058728e+003, 2.327932e-001
1.060657e+003, 2.301562e-001
1.062585e+003, 2.270802e-001
1.064514e+003, 2.247726e-001
1.066442e+003, 2.227331e-001
1.068370e+003, 2.206616e-001
1.070299e+003, 2.191518e-001
1.072227e+003, 2.182285e-001
1.074156e+003, 2.177435e-001
1.076084e+003, 2.179653e-001
1.078013e+003, 2.182148e-001
1.079941e+003, 2.183969e-001
1.081870e+003, 2.183524e-001
1.083798e+003, 2.189102e-001
1.085727e+003, 2.189160e-001
1.087655e+003, 2.182635e-001
1.089584e+003, 2.173306e-001
1.091512e+003, 2.161136e-001
1.093441e+003, 2.153840e-001
1.095369e+003, 2.145474e-001
1.097297e+003, 2.130758e-001
1.099226e+003, 2.116304e-001
1.101154e+003, 2.099650e-001
1.103083e+003, 2.076071e-001
1.105011e+003, 2.052637e-001
1.106940e+003, 2.032377e-001
1.108868e+003, 2.010499e-001
1.110797e+003, 1.993698e-001
1.112725e+003, 1.980109e-001
1.114654e+003, 1.965068e-001
1.116582e+003, 1.951880e-001
1.118511e+003, 1.933739e-001
1.120439e+003, 1.920597e-001
1.122368e+003, 1.906364e-001
1.124296e+003, 1.885674e-001
1.126224e+003, 1.867692e-001
1.128153e+003, 1.856171e-001
1.130081e+003, 1.843355e-001
1.132010e+003, 1.826612e-001
1.133938e+003, 1.814175e-001
1.135867e+003, 1.803162e-001
1.137795e+003, 1.791291e-001
1.139724e+003, 1.782292e-001
1.141652e+003, 1.772800e-001
1.143581e+003, 1.759392e-001
1.145509e+003, 1.745850e-001
1.147438e+003, 1.729974e-001
1.149366e+003, 1.716572e-001
1.151295e+003, 1.706152e-001
1.153223e+003, 1.690807e-001
1.155151e+003, 1.672622e-001
1.157080e+003, 1.655633e-001
1.159008e+003, 1.638270e-001
1.160937e+003, 1.624421e-001
1.162865e+003, 1.614790e-001
1.164794e+003, 1.599461e-001
1.166722e+003, 1.580520e-001
1.168651e+003, 1.562335e-001
1.170579e+003, 1.548024e-001
1.172508e+003, 1.531899e-001
1.174436e+003, 1.516511e-001
1.176365e+003, 1.507113e-001
1.178293e+003, 1.496308e-001
1.180222e+003, 1.483741e-001
1.182150e+003, 1.469580e-001
1.184078e+003, 1.453162e-001
1.186007e+003, 1.439231e-001
1.187935e+003, 1.423700e-001
1.189864e+003, 1.409057e-001
1.191792e+003, 1.392087e-001
1.193721e+003, 1.369586e-001
1.195649e+003, 1.344138e-001
1.197578e+003, 1.319537e-001
1.199506e+003, 1.291805e-001
1.201435e+003, 1.262184e-001
1.203363e+003, 1.234639e-001
1.205292e+003, 1.208462e-001
1.207220e+003, 1.183846e-001
1.209149e+003, 1.161397e-001
1.211077e+003, 1.143161e-001
1.213005e+003, 1.128179e-001
1.214934e+003, 1.115413e-001
1.216862e+003, 1.103540e-001
1.218791e+003, 1.091541e-001
1.220719e+003, 1.081063e-001
1.222648e+003, 1.072340e-001
1.224576e+003, 1.066409e-001
1.226505e+003, 1.065081e-001
1.228433e+003, 1.063231e-001
1.230362e+003, 1.061440e-001
1.232290e+003, 1.059358e-001
1.234219e+003, 1.055759e-001
1.236147e+003, 1.055337e-001
1.238076e+003, 1.057400e-001
1.240004e+003, 1.058032e-001
1.241932e+003, 1.057684e-001
1.243861e+003, 1.056500e-001
1.245789e+003, 1.053946e-001
1.247718e+003, 1.052010e-001
1.249646e+003, 1.051129e-001
1.251575e+003, 1.053363e-001
1.253503e+003, 1.051951e-001
1.255432e+003, 1.051362e-001
1.257360e+003, 1.049447e-001
1.259289e+003, 1.046937e-001
1.261217e+003, 1.043715e-001
1.263146e+003, 1.039693e-001
1.265074e+003, 1.035053e-001
1.267003e+003, 1.026536e-001
1.268931e+003, 1.020700e-001
1.270859e+003, 1.016084e-001
1.272788e+003, 1.012774e-001
1.274716e+003, 1.011401e-001
1.276645e+003, 1.005948e-001
1.278573e+003, 1.003355e-001
1.280502e+003, 1.000950e-001
1.282430e+003, 9.989417e-002
1.284359e+003, 9.961155e-002
1.286287e+003, 9.934794e-002
1.288216e+003, 9.943391e-002
1.290144e+003, 9.972867e-002
1.292073e+003, 9.984870e-002
1.294001e+003, 9.987250e-002
1.295930e+003, 9.998906e-002
1.297858e+003, 1.001446e-001
1.299786e+003, 1.004305e-001
1.301715e+003, 1.004899e-001
1.303643e+003, 1.002362e-001
1.305572e+003, 1.001177e-001
1.307500e+003, 1.005857e-001
1.309429e+003, 1.012179e-001
1.311357e+003, 1.016164e-001
1.313286e+003, 1.015682e-001
1.315214e+003, 1.017459e-001
1.317143e+003, 1.020864e-001
1.319071e+003, 1.024682e-001
1.321000e+003, 1.028005e-001
1.322928e+003, 1.029574e-001
1.324857e+003, 1.030858e-001
1.326785e+003, 1.033821e-001
1.328714e+003, 1.037611e-001
1.330642e+003, 1.042104e-001
1.332570e+003, 1.048837e-001
1.334499e+003, 1.054738e-001
1.336427e+003, 1.057152e-001
1.338356e+003, 1.058854e-001
1.340284e+003, 1.060155e-001
1.342213e+003, 1.063464e-001
1.344141e+003, 1.063094e-001
1.346070e+003, 1.062412e-001
1.347998e+003, 1.065013e-001
1.349927e+003, 1.064470e-001
1.351855e+003, 1.066113e-001
1.353784e+003, 1.069864e-001
1.355712e+003, 1.072593e-001
1.357641e+003, 1.076818e-001
1.359569e+003, 1.078172e-001
1.361497e+003, 1.076404e-001
1.363426e+003, 1.078433e-001
1.365354e+003, 1.078571e-001
1.367283e+003, 1.082804e-001
1.369211e+003, 1.086799e-001
1.371140e+003, 1.087689e-001
1.373068e+003, 1.091215e-001
1.374997e+003, 1.095543e-001
1.376925e+003, 1.099254e-001
1.378854e+003, 1.101908e-001
1.380782e+003, 1.102844e-001
1.382711e+003, 1.104603e-001
1.384639e+003, 1.108341e-001
1.386568e+003, 1.113985e-001
1.388496e+003, 1.117489e-001
1.390424e+003, 1.122395e-001
1.392353e+003, 1.130976e-001
1.394281e+003, 1.135668e-001
1.396210e+003, 1.136963e-001
1.398138e+003, 1.142170e-001
1.400067e+003, 1.147556e-001
1.401995e+003, 1.156604e-001
1.403924e+003, 1.166112e-001
1.405852e+003, 1.171590e-001
1.407781e+003, 1.180204e-001
1.409709e+003, 1.190741e-001
1.411638e+003, 1.198749e-001
1.413566e+003, 1.206217e-001
1.415495e+003, 1.216472e-001
1.417423e+003, 1.221263e-001
1.419351e+003, 1.224001e-001
1.421280e+003, 1.227660e-001
1.423208e+003, 1.229903e-001
1.425137e+003, 1.233250e-001
1.427065e+003, 1.233569e-001
1.428994e+003, 1.236671e-001
1.430922e+003, 1.237717e-001
1.432851e+003, 1.234302e-001
1.434779e+003, 1.230798e-001
1.436708e+003, 1.231239e-001
1.438636e+003, 1.232457e-001
1.440565e+003, 1.230545e-001
1.442493e+003, 1.223253e-001
1.444422e+003, 1.218163e-001
1.446350e+003, 1.215454e-001
1.448278e+003, 1.216021e-001
1.450207e+003, 1.218936e-001
1.452135e+003, 1.219836e-001
1.454064e+003, 1.219058e-001
1.455992e+003, 1.218532e-001
1.457921e+003, 1.215290e-001
1.459849e+003, 1.213022e-001
1.461778e+003, 1.211660e-001
1.463706e+003, 1.213382e-001
1.465635e+003, 1.213264e-001
1.467563e+003, 1.209570e-001
1.469492e+003, 1.207184e-001
1.471420e+003, 1.202778e-001
1.473349e+003, 1.201121e-001
1.475277e+003, 1.199229e-001
1.477205e+003, 1.198996e-001
1.479134e+003, 1.199018e-001
1.481062e+003, 1.200264e-001
1.482991e+003, 1.201827e-001
1.484919e+003, 1.200257e-001
1.486848e+003, 1.202084e-001
1.488776e+003, 1.207525e-001
1.490705e+003, 1.209822e-001
1.492633e+003, 1.209213e-001
1.494562e+003, 1.210448e-001
1.496490e+003, 1.210690e-001
1.498419e+003, 1.207358e-001
1.500347e+003, 1.206650e-001
1.502276e+003, 1.208981e-001
1.504204e+003, 1.206938e-001
1.506132e+003, 1.206185e-001
1.508061e+003, 1.204219e-001
1.509989e+003, 1.201948e-001
1.511918e+003, 1.203921e-001
1.513846e+003, 1.207443e-001
1.515775e+003, 1.207940e-001
1.517703e+003, 1.207167e-001
1.519632e+003, 1.206931e-001
1.521560e+003, 1.204883e-001
1.523489e+003, 1.202383e-001
1.525417e+003, 1.203353e-001
1.527346e+003, 1.203864e-001
1.529274e+003, 1.203571e-001
1.531203e+003, 1.201728e-001
1.533131e+003, 1.203722e-001
1.535059e+003, 1.206860e-001
1.536988e+003, 1.207755e-001
1.538916e+003, 1.210432e-001
1.540845e+003, 1.211631e-001
1.542773e+003, 1.211719e-001
1.544702e+003, 1.213139e-001
1.546630e+003, 1.211549e-001
1.548559e+003, 1.213299e-001
1.550487e+003, 1.217673e-001
1.552416e+003, 1.218390e-001
1.554344e+003, 1.217854e-001
1.556273e+003, 1.218538e-001
1.558201e+003, 1.219156e-001
1.560130e+003, 1.219166e-001
1.562058e+003, 1.221111e-001
1.563986e+003, 1.224881e-001
1.565915e+003, 1.232901e-001
1.567843e+003, 1.237178e-001
1.569772e+003, 1.236334e-001
1.571700e+003, 1.236708e-001
1.573629e+003, 1.236469e-001
1.575557e+003, 1.237711e-001
1.577486e+003, 1.239784e-001
1.579414e+003, 1.242515e-001
1.581343e+003, 1.245343e-001
1.583271e+003, 1.246989e-001
1.585200e+003, 1.251227e-001
1.587128e+003, 1.255820e-001
1.589057e+003, 1.261804e-001
1.590985e+003, 1.264741e-001
1.592913e+003, 1.267041e-001
1.594842e+003, 1.269440e-001
1.596770e+003, 1.269907e-001
1.598699e+003, 1.273117e-001
1.600627e+003, 1.278997e-001
1.602556e+003, 1.284883e-001
1.604484e+003, 1.287485e-001
1.606413e+003, 1.288464e-001
1.608341e+003, 1.289758e-001
1.610270e+003, 1.291192e-001
1.612198e+003, 1.295020e-001
1.614127e+003, 1.298403e-001
1.616055e+003, 1.300706e-001
1.617984e+003, 1.304761e-001
1.619912e+003, 1.310482e-001
1.621840e+003, 1.312909e-001
1.623769e+003, 1.314379e-001
1.625697e+003, 1.317950e-001
1.627626e+003, 1.317089e-001
1.629554e+003, 1.314566e-001
1.631483e+003, 1.317259e-001
1.633411e+003, 1.318127e-001
1.635340e+003, 1.322229e-001
1.637268e+003, 1.324634e-001
1.639197e+003, 1.323837e-001
1.641125e+003, 1.321761e-001
1.643054e+003, 1.319904e-001
1.644982e+003, 1.318434e-001
1.646911e+003, 1.317350e-001
1.648839e+003, 1.322756e-001
1.650767e+003, 1.324483e-001
1.652696e+003, 1.320337e-001
1.654624e+003, 1.319174e-001
1.656553e+003, 1.322773e-001
1.658481e+003, 1.328740e-001
1.660410e+003, 1.327235e-001
1.662338e+003, 1.325161e-001
1.664267e+003, 1.325105e-001
1.666195e+003, 1.324892e-001
1.668124e+003, 1.326667e-001
1.670052e+003, 1.327117e-001
1.671981e+003, 1.327419e-001
1.673909e+003, 1.330929e-001
1.675838e+003, 1.328642e-001
1.677766e+003, 1.323237e-001
1.679694e+003, 1.321186e-001
1.681623e+003, 1.319478e-001
1.683551e+003, 1.322471e-001
1.685480e+003, 1.322301e-001
1.687408e+003, 1.321562e-001
1.689337e+003, 1.324656e-001
1.691265e+003, 1.322197e-001
1.693194e+003, 1.322414e-001
1.695122e+003, 1.322397e-001
1.697051e+003, 1.320256e-001
1.698979e+003, 1.323532e-001
1.700908e+003, 1.322624e-001
1.702836e+003, 1.317778e-001
1.704765e+003, 1.318368e-001
1.706693e+003, 1.320775e-001
1.708621e+003, 1.319170e-001
1.710550e+003, 1.316960e-001
1.712478e+003, 1.313547e-001
1.714407e+003, 1.316118e-001
1.716335e+003, 1.317291e-001
1.718264e+003, 1.314554e-001
1.720192e+003, 1.314424e-001
1.722121e+003, 1.316870e-001
1.724049e+003, 1.310476e-001
1.725978e+003, 1.307450e-001
1.727906e+003, 1.313757e-001
1.729835e+003, 1.321008e-001
1.731763e+003, 1.318489e-001
1.733692e+003, 1.311678e-001
1.735620e+003, 1.307251e-001
1.737548e+003, 1.303663e-001
1.739477e+003, 1.301485e-001
1.741405e+003, 1.303901e-001
1.743334e+003, 1.308687e-001
1.745262e+003, 1.307732e-001
1.747191e+003, 1.306747e-001
1.749119e+003, 1.306561e-001
1.751048e+003, 1.306804e-001
1.752976e+003, 1.305742e-001
1.754905e+003, 1.303295e-001
1.756833e+003, 1.302214e-001
1.758762e+003, 1.304015e-001
1.760690e+003, 1.301240e-001
1.762619e+003, 1.300828e-001
1.764547e+003, 1.302092e-001
1.766475e+003, 1.306507e-001
1.768404e+003, 1.308026e-001
1.770332e+003, 1.308261e-001
1.772261e+003, 1.305032e-001
1.774189e+003, 1.304365e-001
1.776118e+003, 1.304390e-001
1.778046e+003, 1.302428e-001
1.779975e+003, 1.303554e-001
1.781903e+003, 1.304046e-001
1.783832e+003, 1.304340e-001
1.785760e+003, 1.306231e-001
1.787689e+003, 1.309884e-001
1.789617e+003, 1.316515e-001
1.791546e+003, 1.317966e-001
1.793474e+003, 1.312656e-001
1.795402e+003, 1.313719e-001
1.797331e+003, 1.312645e-001
1.799259e+003, 1.308539e-001
1.801188e+003, 1.303769e-001
1.803116e+003, 1.309291e-001
1.805045e+003, 1.314641e-001
1.806973e+003, 1.316726e-001
1.808902e+003, 1.318985e-001
1.810830e+003, 1.321624e-001
1.812759e+003, 1.317514e-001
1.814687e+003, 1.310550e-001
1.816616e+003, 1.309158e-001
1.818544e+003, 1.311772e-001
1.820473e+003, 1.318105e-001
1.822401e+003, 1.321875e-001
1.824329e+003, 1.317674e-001
1.826258e+003, 1.314925e-001
1.828186e+003, 1.316986e-001
1.830115e+003, 1.326127e-001
1.832043e+003, 1.329561e-001
1.833972e+003, 1.322950e-001
1.835900e+003, 1.324414e-001
1.837829e+003, 1.329975e-001
1.839757e+003, 1.321801e-001
1.841686e+003, 1.317464e-001
1.843614e+003, 1.327564e-001
1.845543e+003, 1.332424e-001
1.847471e+003, 1.331869e-001
1.849400e+003, 1.329646e-001
1.851328e+003, 1.325593e-001
1.853256e+003, 1.326830e-001
1.855185e+003, 1.329236e-001
1.857113e+003, 1.328778e-001
1.859042e+003, 1.338114e-001
1.860970e+003, 1.343630e-001
1.862899e+003, 1.331204e-001
1.864827e+003, 1.328226e-001
1.866756e+003, 1.341214e-001
1.868684e+003, 1.352794e-001
1.870613e+003, 1.359464e-001
1.872541e+003, 1.348924e-001
1.874470e+003, 1.344957e-001
1.876398e+003, 1.350790e-001
1.878327e+003, 1.349218e-001
1.880255e+003, 1.358225e-001
1.882183e+003, 1.365287e-001
1.884112e+003, 1.354983e-001
1.886040e+003, 1.355367e-001
1.887969e+003, 1.359540e-001
1.889897e+003, 1.348522e-001
1.891826e+003, 1.348620e-001
1.893754e+003, 1.351393e-001
1.895683e+003, 1.339120e-001
1.897611e+003, 1.328356e-001
1.899540e+003, 1.332651e-001
1.901468e+003, 1.343027e-001
1.903397e+003, 1.349556e-001
1.905325e+003, 1.352506e-001
1.907254e+003, 1.355339e-001
1.909182e+003, 1.348869e-001
1.911110e+003, 1.343077e-001
1.913039e+003, 1.353773e-001
1.914967e+003, 1.354893e-001
1.916896e+003, 1.354555e-001
1.918824e+003, 1.360832e-001
1.920753e+003, 1.359148e-001
1.922681e+003, 1.365212e-001
1.924610e+003, 1.369037e-001
1.926538e+003, 1.351986e-001
1.928467e+003, 1.344215e-001
1.930395e+003, 1.361166e-001
1.932324e+003, 1.364833e-001
1.934252e+003, 1.346423e-001
1.936181e+003, 1.344245e-001
1.938109e+003, 1.355326e-001
1.940037e+003, 1.356035e-001
1.941966e+003, 1.343166e-001
1.943894e+003, 1.351444e-001
1.945823e+003, 1.350929e-001
1.947751e+003, 1.348293e-001
1.949680e+003, 1.350102e-001
1.951608e+003, 1.343878e-001
1.953537e+003, 1.347492e-001
1.955465e+003, 1.351307e-001
1.957394e+003, 1.344706e-001
1.959322e+003, 1.366242e-001
1.961251e+003, 1.366487e-001
1.963179e+003, 1.340732e-001
1.965108e+003, 1.322543e-001
1.967036e+003, 1.319955e-001
1.968964e+003, 1.322991e-001
1.970893e+003, 1.310430e-001
1.972821e+003, 1.339587e-001
1.974750e+003, 1.357819e-001
1.976678e+003, 1.366916e-001
1.978607e+003, 1.383238e-001
1.980535e+003, 1.378243e-001
1.982464e+003, 1.394620e-001
1.984392e+003, 1.394166e-001
1.986321e+003, 1.374700e-001
1.988249e+003, 1.371261e-001
1.990178e+003, 1.399651e-001
1.992106e+003, 1.405002e-001
1.994035e+003, 1.408001e-001
1.995963e+003, 1.393095e-001
1.997891e+003, 1.362341e-001
1.999820e+003, 1.364839e-001
2.001748e+003, 1.391911e-001
2.003677e+003, 1.363931e-001
2.005605e+003, 1.350510e-001
2.007534e+003, 1.379688e-001
2.009462e+003, 1.367288e-001
2.011391e+003, 1.360415e-001
2.013319e+003, 1.382766e-001
2.015248e+003, 1.396338e-001
2.017176e+003, 1.369071e-001
2.019105e+003, 1.354242e-001
2.021033e+003, 1.389310e-001
2.022962e+003, 1.403142e-001
2.024890e+003, 1.403554e-001
2.026818e+003, 1.390505e-001
2.028747e+003, 1.372242e-001
2.030675e+003, 1.384844e-001
2.032604e+003, 1.417284e-001
2.034532e+003, 1.425919e-001
2.036461e+003, 1.422723e-001
2.038389e+003, 1.399506e-001
2.040318e+003, 1.386708e-001
2.042246e+003, 1.378326e-001
2.044175e+003, 1.399404e-001
2.046103e+003, 1.408591e-001
2.048031e+003, 1.405804e-001
2.049960e+003, 1.408716e-001
2.051888e+003, 1.408814e-001
2.053817e+003, 1.436359e-001
2.055745e+003, 1.448329e-001
2.057674e+003, 1.441763e-001
2.059602e+003, 1.453019e-001
2.061531e+003, 1.448091e-001
2.063459e+003, 1.432544e-001
2.065388e+003, 1.423127e-001
2.067316e+003, 1.424230e-001
2.069245e+003, 1.407592e-001
2.071173e+003, 1.405948e-001
2.073102e+003, 1.435466e-001
2.075030e+003, 1.433666e-001
2.076958e+003, 1.420913e-001
2.078887e+003, 1.435078e-001
2.080815e+003, 1.462969e-001
2.082744e+003, 1.468318e-001
2.084672e+003, 1.452689e-001
2.086601e+003, 1.431158e-001
2.088529e+003, 1.439253e-001
2.090458e+003, 1.449060e-001
2.092386e+003, 1.421803e-001
2.094315e+003, 1.405187e-001
2.096243e+003, 1.430335e-001
2.098172e+003, 1.449678e-001
2.100100e+003, 1.452256e-001
2.102029e+003, 1.447035e-001
2.103957e+003, 1.440632e-001
2.105885e+003, 1.442522e-001
2.107814e+003, 1.461103e-001
2.109742e+003, 1.461392e-001
2.111671e+003, 1.443777e-001
2.113599e+003, 1.446526e-001
2.115528e+003, 1.454151e-001
2.117456e+003, 1.455080e-001
2.119385e+003, 1.466862e-001
2.121313e+003, 1.463124e-001
2.123242e+003, 1.448804e-001
2.125170e+003, 1.442929e-001
2.127099e+003, 1.446450e-001
2.129027e+003, 1.447711e-001
2.130956e+003, 1.441306e-001
2.132884e+003, 1.432709e-001
2.134813e+003, 1.422593e-001
2.136741e+003, 1.431182e-001
2.138669e+003, 1.434635e-001
2.140598e+003, 1.427832e-001
2.142526e+003, 1.438982e-001
2.144455e+003, 1.454360e-001
2.146383e+003, 1.437692e-001
2.148312e+003, 1.402794e-001
2.150240e+003, 1.380173e-001
2.152169e+003, 1.411119e-001
2.154097e+003, 1.397379e-001
2.156026e+003, 1.359856e-001
2.157954e+003, 1.374614e-001
2.159883e+003, 1.419913e-001
2.161811e+003, 1.438133e-001
2.163740e+003, 1.472861e-001
2.165668e+003, 1.501055e-001
2.167596e+003, 1.470657e-001
2.169525e+003, 1.437384e-001
2.171453e+003, 1.434881e-001
2.173382e+003, 1.453995e-001
2.175310e+003, 1.455346e-001
2.177239e+003, 1.471214e-001
2.179167e+003, 1.462013e-001
2.181096e+003, 1.467176e-001
2.183024e+003, 1.525841e-001
2.184953e+003, 1.533951e-001
2.186881e+003, 1.492126e-001
2.188810e+003, 1.466436e-001
2.190738e+003, 1.480597e-001
2.192667e+003, 1.521595e-001
2.194595e+003, 1.544508e-001
2.196523e+003, 1.546055e-001
2.198452e+003, 1.509523e-001
2.200380e+003, 1.494666e-001
2.202309e+003, 1.518141e-001
2.204237e+003, 1.513740e-001
2.206166e+003, 1.506521e-001
2.208094e+003, 1.507451e-001
2.210023e+003, 1.518975e-001
2.211951e+003, 1.531837e-001
2.213880e+003, 1.521079e-001
2.215808e+003, 1.507793e-001
2.217737e+003, 1.509036e-001
2.219665e+003, 1.506973e-001
2.221594e+003, 1.511008e-001
2.223522e+003, 1.521291e-001
2.225450e+003, 1.527223e-001
2.227379e+003, 1.543355e-001
2.229307e+003, 1.550735e-001
2.231236e+003, 1.548484e-001
2.233164e+003, 1.542282e-001
2.235093e+003, 1.553442e-001
2.237021e+003, 1.549137e-001
2.238950e+003, 1.533980e-001
2.240878e+003, 1.537337e-001
2.242807e+003, 1.544255e-001
2.244735e+003, 1.561247e-001
2.246664e+003, 1.583073e-001
2.248592e+003, 1.577231e-001
2.250521e+003, 1.558231e-001
2.252449e+003, 1.549532e-001
2.254377e+003, 1.570753e-001
2.256306e+003, 1.568805e-001
2.258234e+003, 1.568231e-001
2.260163e+003, 1.584819e-001
2.262091e+003, 1.578591e-001
2.264020e+003, 1.566667e-001
2.265948e+003, 1.577802e-001
2.267877e+003, 1.587664e-001
2.269805e+003, 1.574325e-001
2.271734e+003, 1.571235e-001
2.273662e+003, 1.585625e-001
2.275591e+003, 1.604667e-001
2.277519e+003, 1.605786e-001
2.279448e+003, 1.602305e-001
2.281376e+003, 1.597747e-001
2.283304e+003, 1.598030e-001
2.285233e+003, 1.603832e-001
2.287161e+003, 1.605267e-001
2.289090e+003, 1.603538e-001
2.291018e+003, 1.610664e-001
2.292947e+003, 1.619246e-001
2.294875e+003, 1.617254e-001
2.296804e+003, 1.611301e-001
2.298732e+003, 1.612369e-001
2.300661e+003, 1.617309e-001
2.302589e+003, 1.626837e-001
2.304518e+003, 1.627293e-001
2.306446e+003, 1.622560e-001
2.308375e+003, 1.615942e-001
2.310303e+003, 1.608988e-001
2.312231e+003, 1.625821e-001
2.314160e+003, 1.631998e-001
2.316088e+003, 1.635117e-001
2.318017e+003, 1.637073e-001
2.319945e+003, 1.637565e-001
2.321874e+003, 1.649266e-001
2.323802e+003, 1.653088e-001
2.325731e+003, 1.643331e-001
2.327659e+003, 1.643188e-001
2.329588e+003, 1.647224e-001
2.331516e+003, 1.650249e-001
2.333445e+003, 1.643843e-001
2.335373e+003, 1.646059e-001
2.337302e+003, 1.646777e-001
2.339230e+003, 1.644953e-001
2.341158e+003, 1.645794e-001
2.343087e+003, 1.643858e-001
2.345015e+003, 1.647988e-001
2.346944e+003, 1.654368e-001
2.348872e+003, 1.657660e-001
2.350801e+003, 1.649648e-001
2.352729e+003, 1.648597e-001
2.354658e+003, 1.650105e-001
2.356586e+003, 1.649202e-001
2.358515e+003, 1.650192e-001
2.360443e+003, 1.645598e-001
2.362372e+003, 1.647090e-001
2.364300e+003, 1.660461e-001
2.366229e+003, 1.660386e-001
2.368157e+003, 1.643574e-001
2.370085e+003, 1.640858e-001
2.372014e+003, 1.655519e-001
2.373942e+003, 1.664010e-001
2.375871e+003, 1.661012e-001
2.377799e+003, 1.657093e-001
2.379728e+003, 1.655827e-001
2.381656e+003, 1.649264e-001
2.383585e+003, 1.652642e-001
2.385513e+003, 1.643644e-001
2.387442e+003, 1.647310e-001
2.389370e+003, 1.656642e-001
2.391299e+003, 1.656291e-001
2.393227e+003, 1.663802e-001
2.395156e+003, 1.668523e-001
2.397084e+003, 1.670592e-001
2.399012e+003, 1.667398e-001
2.400941e+003, 1.674875e-001
2.402869e+003, 1.682280e-001
2.404798e+003, 1.682980e-001
2.406726e+003, 1.676073e-001
2.408655e+003, 1.678205e-001
2.410583e+003, 1.695993e-001
2.412512e+003, 1.694293e-001
2.414440e+003, 1.684530e-001
2.416369e+003, 1.694703e-001
2.418297e+003, 1.705129e-001
2.420226e+003, 1.702031e-001
2.422154e+003, 1.703983e-001
2.424083e+003, 1.710451e-001
2.426011e+003, 1.719771e-001
2.427939e+003, 1.719069e-001
2.429868e+003, 1.716567e-001
2.431796e+003, 1.720087e-001
2.433725e+003, 1.717385e-001
2.435653e+003, 1.711879e-001
2.437582e+003, 1.700723e-001
2.439510e+003, 1.700867e-001
2.441439e+003, 1.701524e-001
2.443367e+003, 1.706218e-001
2.445296e+003, 1.702215e-001
2.447224e+003, 1.703198e-001
2.449153e+003, 1.718180e-001
2.451081e+003, 1.726701e-001
2.453010e+003, 1.724280e-001
2.454938e+003, 1.725149e-001
2.456866e+003, 1.718828e-001
2.458795e+003, 1.715561e-001
2.460723e+003, 1.714885e-001
2.462652e+003, 1.704965e-001
2.464580e+003, 1.712276e-001
2.466509e+003, 1.730295e-001
2.468437e+003, 1.732505e-001
2.470366e+003, 1.738461e-001
2.472294e+003, 1.743548e-001
2.474223e+003, 1.736273e-001
2.476151e+003, 1.739889e-001
2.478080e+003, 1.738562e-001
2.480008e+003, 1.736206e-001
2.481937e+003, 1.738456e-001
2.483865e+003, 1.733536e-001
2.485793e+003, 1.737516e-001
2.487722e+003, 1.750140e-001
2.489650e+003, 1.749381e-001
2.491579e+003, 1.742867e-001
2.493507e+003, 1.736988e-001
2.495436e+003, 1.744370e-001
2.497364e+003, 1.747547e-001
2.499293e+003, 1.744156e-001
2.501221e+003, 1.746242e-001
2.503150e+003, 1.752515e-001
2.505078e+003, 1.749329e-001
2.507007e+003, 1.746197e-001
2.508935e+003, 1.756754e-001
2.510864e+003, 1.755087e-001
2.512792e+003, 1.748453e-001
2.514720e+003, 1.746079e-001
2.516649e+003, 1.751872e-001
2.518577e+003, 1.757995e-001
2.520506e+003, 1.772667e-001
2.522434e+003, 1.756100e-001
2.524363e+003, 1.749529e-001
2.526291e+003, 1.766301e-001
2.528220e+003, 1.775689e-001
2.530148e+003, 1.775055e-001
2.532077e+003, 1.784802e-001
2.534005e+003, 1.791560e-001
2.535934e+003, 1.773947e-001
2.537862e+003, 1.764397e-001
2.539791e+003, 1.771463e-001
2.541719e+003, 1.770076e-001
2.543647e+003, 1.765703e-001
2.545576e+003, 1.772285e-001
2.547504e+003, 1.779635e-001
2.549433e+003, 1.775736e-001
2.551361e+003, 1.779428e-001
2.553290e+003, 1.784751e-001
2.555218e+003, 1.789319e-001
2.557147e+003, 1.789712e-001
2.559075e+003, 1.790125e-001
2.561004e+003, 1.798236e-001
2.562932e+003, 1.792067e-001
2.564861e+003, 1.789498e-001
2.566789e+003, 1.795364e-001
2.568718e+003, 1.802859e-001
2.570646e+003, 1.796515e-001
2.572574e+003, 1.793425e-001
2.574503e+003, 1.806791e-001
2.576431e+003, 1.804629e-001
2.578360e+003, 1.783833e-001
2.580288e+003, 1.784575e-001
2.582217e+003, 1.803990e-001
2.584145e+003, 1.817796e-001
2.586074e+003, 1.813292e-001
2.588002e+003, 1.806396e-001
2.589931e+003, 1.811372e-001
2.591859e+003, 1.816281e-001
2.593788e+003, 1.821823e-001
2.595716e+003, 1.815005e-001
2.597645e+003, 1.807804e-001
2.599573e+003, 1.817255e-001
2.601501e+003, 1.827202e-001
2.603430e+003, 1.826647e-001
2.605358e+003, 1.825273e-001
2.607287e+003, 1.822299e-001
2.609215e+003, 1.818129e-001
2.611144e+003, 1.826358e-001
2.613072e+003, 1.823113e-001
2.615001e+003, 1.814953e-001
2.616929e+003, 1.826281e-001
2.618858e+003, 1.845796e-001
2.620786e+003, 1.848970e-001
2.622715e+003, 1.841379e-001
2.624643e+003, 1.840247e-001
2.626572e+003, 1.851794e-001
2.628500e+003, 1.852998e-001
2.630428e+003, 1.853300e-001
2.632357e+003, 1.862471e-001
2.634285e+003, 1.865617e-001
2.636214e+003, 1.861218e-001
2.638142e+003, 1.849813e-001
2.640071e+003, 1.849091e-001
2.641999e+003, 1.855233e-001
2.643928e+003, 1.859015e-001
2.645856e+003, 1.861606e-001
2.647785e+003, 1.866970e-001
2.649713e+003, 1.871777e-001
2.651642e+003, 1.876049e-001
2.653570e+003, 1.877563e-001
2.655499e+003, 1.875589e-001
2.657427e+003, 1.877355e-001
2.659355e+003, 1.877670e-001
2.661284e+003, 1.874672e-001
2.663212e+003, 1.873820e-001
2.665141e+003, 1.873862e-001
2.667069e+003, 1.876337e-001
2.668998e+003, 1.871291e-001
2.670926e+003, 1.868307e-001
2.672855e+003, 1.872641e-001
2.674783e+003, 1.876259e-001
2.676712e+003, 1.879330e-001
2.678640e+003, 1.882336e-001
2.680569e+003, 1.886435e-001
2.682497e+003, 1.889793e-001
2.684426e+003, 1.886477e-001
2.686354e+003, 1.886380e-001
2.688282e+003, 1.887107e-001
2.690211e+003, 1.890715e-001
2.692139e+003, 1.893920e-001
2.694068e+003, 1.898352e-001
2.695996e+003, 1.907466e-001
2.697925e+003, 1.907944e-001
2.699853e+003, 1.914973e-001
2.701782e+003, 1.923117e-001
2.703710e+003, 1.920070e-001
2.705639e+003, 1.921288e-001
2.707567e+003, 1.923269e-001
2.709496e+003, 1.920214e-001
2.711424e+003, 1.925957e-001
2.713353e+003, 1.929100e-001
2.715281e+003, 1.937701e-001
2.717209e+003, 1.939945e-001
2.719138e+003, 1.931850e-001
2.721066e+003, 1.934367e-001
2.722995e+003, 1.945436e-001
2.724923e+003, 1.953656e-001
2.726852e+003, 1.950771e-001
2.728780e+003, 1.951670e-001
2.730709e+003, 1.951723e-001
2.732637e+003, 1.960786e-001
2.734566e+003, 1.961461e-001
2.736494e+003, 1.960133e-001
2.738423e+003, 1.961190e-001
2.740351e+003, 1.962551e-001
2.742280e+003, 1.963701e-001
2.744208e+003, 1.966579e-001
2.746136e+003, 1.969835e-001
2.748065e+003, 1.970900e-001
2.749993e+003, 1.979334e-001
2.751922e+003, 1.999570e-001
2.753850e+003, 1.998677e-001
2.755779e+003, 1.986296e-001
2.757707e+003, 1.987386e-001
2.759636e+003, 1.992248e-001
2.761564e+003, 1.991242e-001
2.763493e+003, 1.995073e-001
2.765421e+003, 2.002141e-001
2.767350e+003, 2.007047e-001
2.769278e+003, 2.013799e-001
2.771207e+003, 2.019840e-001
2.773135e+003, 2.019914e-001
2.775063e+003, 2.019729e-001
2.776992e+003, 2.019906e-001
2.778920e+003, 2.020999e-001
2.780849e+003, 2.026262e-001
2.782777e+003, 2.028370e-001
2.784706e+003, 2.036488e-001
2.786634e+003, 2.039774e-001
2.788563e+003, 2.035566e-001
2.790491e+003, 2.042171e-001
2.792420e+003, 2.049809e-001
2.794348e+003, 2.047721e-001
2.796277e+003, 2.057685e-001
2.798205e+003, 2.075029e-001
2.800134e+003, 2.072294e-001
2.802062e+003, 2.064566e-001
2.803990e+003, 2.063036e-001
2.805919e+003, 2.057844e-001
2.807847e+003, 2.068440e-001
2.809776e+003, 2.078274e-001
2.811704e+003, 2.082960e-001
2.813633e+003, 2.082486e-001
2.815561e+003, 2.084794e-001
2.817490e+003, 2.096225e-001
2.819418e+003, 2.097072e-001
2.821347e+003, 2.090403e-001
2.823275e+003, 2.090304e-001
2.825204e+003, 2.091851e-001
2.827132e+003, 2.106005e-001
2.829061e+003, 2.116071e-001
2.830989e+003, 2.118034e-001
2.832917e+003, 2.132564e-001
2.834846e+003, 2.144853e-001
2.836774e+003, 2.150751e-001
2.838703e+003, 2.163863e-001
2.840631e+003, 2.165687e-001
2.842560e+003, 2.165817e-001
2.844488e+003, 2.166630e-001
2.846417e+003, 2.183073e-001
2.848345e+003, 2.201772e-001
2.850274e+003, 2.194309e-001
2.852202e+003, 2.179794e-001
2.854131e+003, 2.172611e-001
2.856059e+003, 2.176060e-001
2.857988e+003, 2.181059e-001
2.859916e+003, 2.190362e-001
2.861844e+003, 2.188232e-001
2.863773e+003, 2.173687e-001
2.865701e+003, 2.173023e-001
2.867630e+003, 2.177929e-001
2.869558e+003, 2.185879e-001
2.871487e+003, 2.201153e-001
2.873415e+003, 2.204307e-001
2.875344e+003, 2.205570e-001
2.877272e+003, 2.221385e-001
2.879201e+003, 2.221112e-001
2.881129e+003, 2.219391e-001
2.883058e+003, 2.223967e-001
2.884986e+003, 2.230312e-001
2.886915e+003, 2.236664e-001
2.888843e+003, 2.243674e-001
2.890771e+003, 2.247042e-001
2.892700e+003, 2.250327e-001
2.894628e+003, 2.265297e-001
2.896557e+003, 2.270225e-001
2.898485e+003, 2.268807e-001
2.900414e+003, 2.274676e-001
2.902342e+003, 2.279969e-001
2.904271e+003, 2.287871e-001
2.906199e+003, 2.297267e-001
2.908128e+003, 2.306703e-001
2.910056e+003, 2.308270e-001
2.911985e+003, 2.309781e-001
2.913913e+003, 2.321172e-001
2.915842e+003, 2.346102e-001
2.917770e+003, 2.366632e-001
2.919698e+003, 2.368194e-001
2.921627e+003, 2.366152e-001
2.923555e+003, 2.368439e-001
2.925484e+003, 2.360230e-001
2.927412e+003, 2.348742e-001
2.929341e+003, 2.339138e-001
2.931269e+003, 2.346503e-001
2.933198e+003, 2.339846e-001
2.935126e+003, 2.327676e-001
2.937055e+003, 2.333339e-001
2.938983e+003, 2.344084e-001
2.940912e+003, 2.339291e-001
2.942840e+003, 2.338077e-001
2.944769e+003, 2.340616e-001
2.946697e+003, 2.335522e-001
2.948625e+003, 2.331855e-001
2.950554e+003, 2.350250e-001
2.952482e+003, 2.354620e-001
2.954411e+003, 2.333335e-001
2.956339e+003, 2.333057e-001
2.958268e+003, 2.347268e-001
2.960196e+003, 2.365271e-001
2.962125e+003, 2.366209e-001
2.964053e+003, 2.357658e-001
2.965982e+003, 2.365722e-001
2.967910e+003, 2.377829e-001
2.969839e+003, 2.378380e-001
2.971767e+003, 2.366851e-001
2.973696e+003, 2.354485e-001
2.975624e+003, 2.350788e-001
2.977552e+003, 2.354264e-001
2.979481e+003, 2.359753e-001
2.981409e+003, 2.364108e-001
2.983338e+003, 2.356896e-001
2.985266e+003, 2.356345e-001
2.987195e+003, 2.360118e-001
2.989123e+003, 2.355582e-001
2.991052e+003, 2.370533e-001
2.992980e+003, 2.376984e-001
2.994909e+003, 2.387245e-001
2.996837e+003, 2.389012e-001
2.998766e+003, 2.386132e-001
3.000694e+003, 2.389853e-001
3.002623e+003, 2.385025e-001
3.004551e+003, 2.383169e-001
3.006479e+003, 2.391255e-001
3.008408e+003, 2.395649e-001
3.010336e+003, 2.391009e-001
3.012265e+003, 2.393673e-001
3.014193e+003, 2.389755e-001
3.016122e+003, 2.394207e-001
3.018050e+003, 2.397455e-001
3.019979e+003, 2.413326e-001
3.021907e+003, 2.411156e-001
3.023836e+003, 2.404179e-001
3.025764e+003, 2.413898e-001
3.027693e+003, 2.417092e-001
3.029621e+003, 2.418355e-001
3.031550e+003, 2.419754e-001
3.033478e+003, 2.422432e-001
3.035406e+003, 2.424074e-001
3.037335e+003, 2.431242e-001
3.039263e+003, 2.442410e-001
3.041192e+003, 2.441129e-001
3.043120e+003, 2.448327e-001
3.045049e+003, 2.449455e-001
3.046977e+003, 2.442143e-001
3.048906e+003, 2.447555e-001
3.050834e+003, 2.459033e-001
3.052763e+003, 2.445538e-001
3.054691e+003, 2.432462e-001
3.056620e+003, 2.442707e-001
3.058548e+003, 2.452443e-001
3.060477e+003, 2.458381e-001
3.062405e+003, 2.442902e-001
3.064333e+003, 2.431379e-001
3.066262e+003, 2.444687e-001
3.068190e+003, 2.445091e-001
3.070119e+003, 2.455448e-001
3.072047e+003, 2.480038e-001
3.073976e+003, 2.472258e-001
3.075904e+003, 2.452927e-001
3.077833e+003, 2.449457e-001
3.079761e+003, 2.456248e-001
3.081690e+003, 2.463597e-001
3.083618e+003, 2.460976e-001
3.085547e+003, 2.457626e-001
3.087475e+003, 2.448428e-001
3.089404e+003, 2.443830e-001
3.091332e+003, 2.443580e-001
3.093260e+003, 2.455845e-001
3.095189e+003, 2.473989e-001
3.097117e+003, 2.474900e-001
3.099046e+003, 2.467677e-001
3.100974e+003, 2.466382e-001
3.102903e+003, 2.474056e-001
3.104831e+003, 2.481674e-001
3.106760e+003, 2.470394e-001
3.108688e+003, 2.460534e-001
3.110617e+003, 2.456886e-001
3.112545e+003, 2.460053e-001
3.114474e+003, 2.469781e-001
3.116402e+003, 2.458155e-001
3.118331e+003, 2.463945e-001
3.120259e+003, 2.485569e-001
3.122188e+003, 2.483083e-001
3.124116e+003, 2.467395e-001
3.126044e+003, 2.470045e-001
3.127973e+003, 2.483602e-001
3.129901e+003, 2.489826e-001
3.131830e+003, 2.479575e-001
3.133758e+003, 2.486842e-001
3.135687e+003, 2.495069e-001
3.137615e+003, 2.475846e-001
3.139544e+003, 2.466844e-001
3.141472e+003, 2.465000e-001
3.143401e+003, 2.468030e-001
3.145329e+003, 2.468586e-001
3.147258e+003, 2.487811e-001
3.149186e+003, 2.512143e-001
3.151115e+003, 2.522800e-001
3.153043e+003, 2.516137e-001
3.154971e+003, 2.505756e-001
3.156900e+003, 2.499477e-001
3.158828e+003, 2.494468e-001
3.160757e+003, 2.485551e-001
3.162685e+003, 2.480669e-001
3.164614e+003, 2.482717e-001
3.166542e+003, 2.485029e-001
3.168471e+003, 2.515406e-001
3.170399e+003, 2.540560e-001
3.172328e+003, 2.508331e-001
3.174256e+003, 2.496700e-001
3.176185e+003, 2.511064e-001
3.178113e+003, 2.509350e-001
3.180042e+003, 2.503732e-001
3.181970e+003, 2.506939e-001
3.183898e+003, 2.522398e-001
3.185827e+003, 2.528093e-001
3.187755e+003, 2.532053e-001
3.189684e+003, 2.529658e-001
3.191612e+003, 2.525175e-001
3.193541e+003, 2.537442e-001
3.195469e+003, 2.560890e-001
3.197398e+003, 2.561680e-001
3.199326e+003, 2.550534e-001
3.201255e+003, 2.537694e-001
3.203183e+003, 2.541121e-001
3.205112e+003, 2.551167e-001
3.207040e+003, 2.558380e-001
3.208969e+003, 2.558014e-001
3.210897e+003, 2.567292e-001
3.212825e+003, 2.554077e-001
3.214754e+003, 2.538376e-001
3.216682e+003, 2.544172e-001
3.218611e+003, 2.546923e-001
3.220539e+003, 2.544852e-001
3.222468e+003, 2.558232e-001
3.224396e+003, 2.561440e-001
3.226325e+003, 2.549694e-001
3.228253e+003, 2.540283e-001
3.230182e+003, 2.539701e-001
3.232110e+003, 2.540054e-001
3.234039e+003, 2.532126e-001
3.235967e+003, 2.543888e-001
3.237896e+003, 2.545249e-001
3.239824e+003, 2.539967e-001
3.241752e+003, 2.554097e-001
3.243681e+003, 2.547609e-001
3.245609e+003, 2.534568e-001
3.247538e+003, 2.544535e-001
3.249466e+003, 2.561439e-001
3.251395e+003, 2.562367e-001
3.253323e+003, 2.539125e-001
3.255252e+003, 2.520995e-001
3.257180e+003, 2.516928e-001
3.259109e+003, 2.518682e-001
3.261037e+003, 2.525481e-001
3.262966e+003, 2.517649e-001
3.264894e+003, 2.510444e-001
3.266823e+003, 2.511618e-001
3.268751e+003, 2.504679e-001
3.270679e+003, 2.511961e-001
3.272608e+003, 2.527286e-001
3.274536e+003, 2.526193e-001
3.276465e+003, 2.517919e-001
3.278393e+003, 2.512001e-001
3.280322e+003, 2.510870e-001
3.282250e+003, 2.505876e-001
3.284179e+003, 2.521352e-001
3.286107e+003, 2.527783e-001
3.288036e+003, 2.495329e-001
3.289964e+003, 2.485332e-001
3.291893e+003, 2.503455e-001
3.293821e+003, 2.511334e-001
3.295750e+003, 2.502796e-001
3.297678e+003, 2.510681e-001
3.299606e+003, 2.513244e-001
3.301535e+003, 2.500738e-001
3.303463e+003, 2.493650e-001
3.305392e+003, 2.509851e-001
3.307320e+003, 2.513617e-001
3.309249e+003, 2.490819e-001
3.311177e+003, 2.497918e-001
3.313106e+003, 2.486996e-001
3.315034e+003, 2.473448e-001
3.316963e+003, 2.482016e-001
3.318891e+003, 2.501236e-001
3.320820e+003, 2.477534e-001
3.322748e+003, 2.449132e-001
3.324677e+003, 2.463842e-001
3.326605e+003, 2.479995e-001
3.328533e+003, 2.473826e-001
3.330462e+003, 2.464736e-001
3.332390e+003, 2.441738e-001
3.334319e+003, 2.432517e-001
3.336247e+003, 2.453343e-001
3.338176e+003, 2.446566e-001
3.340104e+003, 2.439951e-001
3.342033e+003, 2.454516e-001
3.343961e+003, 2.457616e-001
3.345890e+003, 2.456448e-001
3.347818e+003, 2.447762e-001
3.349747e+003, 2.443565e-001
3.351675e+003, 2.433337e-001
3.353604e+003, 2.401887e-001
3.355532e+003, 2.401243e-001
3.357460e+003, 2.397580e-001
3.359389e+003, 2.402109e-001
3.361317e+003, 2.400595e-001
3.363246e+003, 2.391661e-001
3.365174e+003, 2.394278e-001
3.367103e+003, 2.403244e-001
3.369031e+003, 2.400701e-001
3.370960e+003, 2.397964e-001
3.372888e+003, 2.379457e-001
3.374817e+003, 2.347989e-001
3.376745e+003, 2.338748e-001
3.378674e+003, 2.355883e-001
3.380602e+003, 2.370623e-001
3.382531e+003, 2.381735e-001
3.384459e+003, 2.377522e-001
3.386387e+003, 2.371527e-001
3.388316e+003, 2.370698e-001
3.390244e+003, 2.387222e-001
3.392173e+003, 2.377335e-001
3.394101e+003, 2.347593e-001
3.396030e+003, 2.353431e-001
3.397958e+003, 2.348271e-001
3.399887e+003, 2.342152e-001
3.401815e+003, 2.346681e-001
3.403744e+003, 2.345163e-001
3.405672e+003, 2.343274e-001
3.407601e+003, 2.341344e-001
3.409529e+003, 2.317488e-001
3.411458e+003, 2.302277e-001
3.413386e+003, 2.331810e-001
3.415314e+003, 2.339167e-001
3.417243e+003, 2.332511e-001
3.419171e+003, 2.342159e-001
3.421100e+003, 2.324123e-001
3.423028e+003, 2.329456e-001
3.424957e+003, 2.333572e-001
3.426885e+003, 2.310820e-001
3.428814e+003, 2.300423e-001
3.430742e+003, 2.300094e-001
3.432671e+003, 2.306778e-001
3.434599e+003, 2.316816e-001
3.436528e+003, 2.308263e-001
3.438456e+003, 2.295864e-001
3.440385e+003, 2.288978e-001
3.442313e+003, 2.285762e-001
3.444241e+003, 2.291315e-001
3.446170e+003, 2.280559e-001
3.448098e+003, 2.269148e-001
3.450027e+003, 2.274164e-001
3.451955e+003, 2.289763e-001
3.453884e+003, 2.304477e-001
3.455812e+003, 2.315146e-001
3.457741e+003, 2.299462e-001
3.459669e+003, 2.272000e-001
3.461598e+003, 2.282637e-001
3.463526e+003, 2.288566e-001
3.465455e+003, 2.269486e-001
3.467383e+003, 2.284179e-001
3.469312e+003, 2.292130e-001
3.471240e+003, 2.261470e-001
3.473168e+003, 2.239273e-001
3.475097e+003, 2.258438e-001
3.477025e+003, 2.258531e-001
3.478954e+003, 2.234035e-001
3.480882e+003, 2.224332e-001
3.482811e+003, 2.234467e-001
3.484739e+003, 2.232085e-001
3.486668e+003, 2.230365e-001
3.488596e+003, 2.235345e-001
3.490525e+003, 2.246008e-001
3.492453e+003, 2.250199e-001
3.494382e+003, 2.259087e-001
3.496310e+003, 2.248906e-001
3.498239e+003, 2.266516e-001
3.500167e+003, 2.280029e-001
3.502095e+003, 2.226324e-001
3.504024e+003, 2.204080e-001
3.505952e+003, 2.224407e-001
3.507881e+003, 2.244027e-001
3.509809e+003, 2.249845e-001
3.511738e+003, 2.236572e-001
3.513666e+003, 2.222228e-001
3.515595e+003, 2.247160e-001
3.517523e+003, 2.252374e-001
3.519452e+003, 2.231322e-001
3.521380e+003, 2.233039e-001
3.523309e+003, 2.234699e-001
3.525237e+003, 2.239729e-001
3.527166e+003, 2.232282e-001
3.529094e+003, 2.211695e-001
3.531022e+003, 2.200482e-001
3.532951e+003, 2.195399e-001
3.534879e+003, 2.215858e-001
3.536808e+003, 2.238457e-001
3.538736e+003, 2.224738e-001
3.540665e+003, 2.181148e-001
3.542593e+003, 2.168278e-001
3.544522e+003, 2.198413e-001
3.546450e+003, 2.222839e-001
3.548379e+003, 2.194674e-001
3.550307e+003, 2.193264e-001
3.552236e+003, 2.199698e-001
3.554164e+003, 2.207052e-001
3.556093e+003, 2.201556e-001
3.558021e+003, 2.193102e-001
3.559949e+003, 2.183719e-001
3.561878e+003, 2.142271e-001
3.563806e+003, 2.138357e-001
3.565735e+003, 2.139658e-001
3.567663e+003, 2.146686e-001
3.569592e+003, 2.171975e-001
3.571520e+003, 2.194012e-001
3.573449e+003, 2.216618e-001
3.575377e+003, 2.198446e-001
3.577306e+003, 2.184856e-001
3.579234e+003, 2.176183e-001
3.581163e+003, 2.162629e-001
3.583091e+003, 2.190872e-001
3.585020e+003, 2.211114e-001
3.586948e+003, 2.167619e-001
3.588876e+003, 2.137933e-001
3.590805e+003, 2.144475e-001
3.592733e+003, 2.167077e-001
3.594662e+003, 2.182504e-001
3.596590e+003, 2.183951e-001
3.598519e+003, 2.188936e-001
3.600447e+003, 2.181190e-001
3.602376e+003, 2.175741e-001
3.604304e+003, 2.180133e-001
3.606233e+003, 2.169435e-001
3.608161e+003, 2.170631e-001
3.610090e+003, 2.215371e-001
3.612018e+003, 2.232945e-001
3.613947e+003, 2.234187e-001
3.615875e+003, 2.261619e-001
3.617803e+003, 2.298687e-001
3.619732e+003, 2.340564e-001
3.621660e+003, 2.320311e-001
3.623589e+003, 2.277786e-001
3.625517e+003, 2.306668e-001
3.627446e+003, 2.324447e-001
3.629374e+003, 2.285372e-001
3.631303e+003, 2.268912e-001
3.633231e+003, 2.293376e-001
3.635160e+003, 2.277979e-001
3.637088e+003, 2.268371e-001
3.639017e+003, 2.275532e-001
3.640945e+003, 2.294798e-001
3.642874e+003, 2.282529e-001
3.644802e+003, 2.275704e-001
3.646730e+003, 2.274580e-001
3.648659e+003, 2.244027e-001
3.650587e+003, 2.269606e-001
3.652516e+003, 2.289640e-001
3.654444e+003, 2.252062e-001
3.656373e+003, 2.214821e-001
3.658301e+003, 2.222427e-001
3.660230e+003, 2.241675e-001
3.662158e+003, 2.236745e-001
3.664087e+003, 2.230993e-001
3.666015e+003, 2.195711e-001
3.667944e+003, 2.187681e-001
3.669872e+003, 2.216122e-001
3.671801e+003, 2.226401e-001
3.673729e+003, 2.185427e-001
3.675657e+003, 2.161712e-001
3.677586e+003, 2.164474e-001
3.679514e+003, 2.173836e-001
3.681443e+003, 2.169583e-001
3.683371e+003, 2.168747e-001
3.685300e+003, 2.153494e-001
3.687228e+003, 2.142009e-001
3.689157e+003, 2.172981e-001
3.691085e+003, 2.167143e-001
3.693014e+003, 2.171066e-001
3.694942e+003, 2.205612e-001
3.696871e+003, 2.197116e-001
3.698799e+003, 2.172545e-001
3.700728e+003, 2.201792e-001
3.702656e+003, 2.237671e-001
3.704584e+003, 2.221826e-001
3.706513e+003, 2.177798e-001
3.708441e+003, 2.182618e-001
3.710370e+003, 2.179053e-001
3.712298e+003, 2.142055e-001
3.714227e+003, 2.134158e-001
3.716155e+003, 2.125983e-001
3.718084e+003, 2.111522e-001
3.720012e+003, 2.136053e-001
3.721941e+003, 2.142009e-001
3.723869e+003, 2.143095e-001
3.725798e+003, 2.158480e-001
3.727726e+003, 2.169908e-001
3.729655e+003, 2.151358e-001
3.731583e+003, 2.144491e-001
3.733511e+003, 2.155196e-001
3.735440e+003, 2.157696e-001
3.737368e+003, 2.177488e-001
3.739297e+003, 2.184705e-001
3.741225e+003, 2.167147e-001
3.743154e+003, 2.140027e-001
3.745082e+003, 2.137353e-001
3.747011e+003, 2.142061e-001
3.748939e+003, 2.133501e-001
3.750868e+003, 2.130398e-001
3.752796e+003, 2.118010e-001
3.754725e+003, 2.123028e-001
3.756653e+003, 2.127917e-001
3.758582e+003, 2.141173e-001
3.760510e+003, 2.143853e-001
3.762438e+003, 2.152012e-001
3.764367e+003, 2.149796e-001
3.766295e+003, 2.137349e-001
3.768224e+003, 2.121199e-001
3.770152e+003, 2.149778e-001
3.772081e+003, 2.186043e-001
3.774009e+003, 2.168231e-001
3.775938e+003, 2.164985e-001
3.777866e+003, 2.175278e-001
3.779795e+003, 2.186202e-001
3.781723e+003, 2.169619e-001
3.783652e+003, 2.164998e-001
3.785580e+003, 2.162151e-001
3.787509e+003, 2.214839e-001
3.789437e+003, 2.244533e-001
3.791365e+003, 2.216168e-001
3.793294e+003, 2.177682e-001
3.795222e+003, 2.189272e-001
3.797151e+003, 2.199145e-001
3.799079e+003, 2.195501e-001
3.801008e+003, 2.206623e-001
3.802936e+003, 2.192035e-001
3.804865e+003, 2.180112e-001
3.806793e+003, 2.190600e-001
3.808722e+003, 2.196999e-001
3.810650e+003, 2.189183e-001
3.812579e+003, 2.187130e-001
3.814507e+003, 2.206219e-001
3.816436e+003, 2.226590e-001
3.818364e+003, 2.191586e-001
3.820292e+003, 2.161829e-001
3.822221e+003, 2.163786e-001
3.824149e+003, 2.163843e-001
3.826078e+003, 2.149898e-001
3.828006e+003, 2.167366e-001
3.829935e+003, 2.183765e-001
3.831863e+003, 2.171313e-001
3.833792e+003, 2.157385e-001
3.835720e+003, 2.189483e-001
3.837649e+003, 2.211367e-001
3.839577e+003, 2.195249e-001
3.841506e+003, 2.199306e-001
3.843434e+003, 2.216658e-001
3.845363e+003, 2.204286e-001
3.847291e+003, 2.222397e-001
3.849219e+003, 2.278219e-001
3.851148e+003, 2.255714e-001
3.853076e+003, 2.221055e-001
3.855005e+003, 2.220989e-001
3.856933e+003, 2.209783e-001
3.858862e+003, 2.196212e-001
3.860790e+003, 2.182651e-001
3.862719e+003, 2.207234e-001
3.864647e+003, 2.230126e-001
3.866576e+003, 2.195424e-001
3.868504e+003, 2.197433e-001
3.870433e+003, 2.212061e-001
3.872361e+003, 2.189659e-001
3.874290e+003, 2.194027e-001
3.876218e+003, 2.213972e-001
3.878146e+003, 2.241600e-001
3.880075e+003, 2.258135e-001
3.882003e+003, 2.226747e-001
3.883932e+003, 2.190614e-001
3.885860e+003, 2.203713e-001
3.887789e+003, 2.234091e-001
3.889717e+003, 2.250914e-001
3.891646e+003, 2.244723e-001
3.893574e+003, 2.245623e-001
3.895503e+003, 2.233414e-001
3.897431e+003, 2.197322e-001
3.899360e+003, 2.157494e-001
3.901288e+003, 2.159386e-001
3.903217e+003, 2.181560e-001
3.905145e+003, 2.222549e-001
3.907073e+003, 2.246874e-001
3.909002e+003, 2.240277e-001
3.910930e+003, 2.243325e-001
3.912859e+003, 2.243387e-001
3.914787e+003, 2.221123e-001
3.916716e+003, 2.248951e-001
3.918644e+003, 2.267458e-001
3.920573e+003, 2.242711e-001
3.922501e+003, 2.204029e-001
3.924430e+003, 2.201523e-001
3.926358e+003, 2.225691e-001
3.928287e+003, 2.217038e-001
3.930215e+003, 2.224246e-001
3.932144e+003, 2.253648e-001
3.934072e+003, 2.238276e-001
3.936000e+003, 2.215229e-001
3.937929e+003, 2.246440e-001
3.939857e+003, 2.270230e-001
3.941786e+003, 2.263934e-001
3.943714e+003, 2.250027e-001
3.945643e+003, 2.260065e-001
3.947571e+003, 2.241815e-001
3.949500e+003, 2.209850e-001
3.951428e+003, 2.220688e-001
3.953357e+003, 2.241327e-001
3.955285e+003, 2.235142e-001
3.957214e+003, 2.227875e-001
3.959142e+003, 2.232099e-001
3.961071e+003, 2.230801e-001
3.962999e+003, 2.248221e-001
3.964927e+003, 2.277182e-001
3.966856e+003, 2.261577e-001
3.968784e+003, 2.253607e-001
3.970713e+003, 2.261688e-001
3.972641e+003, 2.228495e-001
3.974570e+003, 2.206327e-001
3.976498e+003, 2.237688e-001
3.978427e+003, 2.281056e-001
3.980355e+003, 2.296510e-001
3.982284e+003, 2.270426e-001
3.984212e+003, 2.250528e-001
3.986141e+003, 2.260228e-001
3.988069e+003, 2.274306e-001
3.989998e+003, 2.252752e-001
3.991926e+003, 2.243555e-001
3.993854e+003, 2.289637e-001
3.995783e+003, 2.290639e-001
3.997711e+003, 2.226018e-001
3.999640e+003, 2.223617e-001
4.001568e+003, 0.000000e+000
##END=



