##NAMES=Atacamite
##RRUFFID=R050098
##IDEAL CHEMISTRY=Cu^2+^_2_Cl(OH)_3_
##LOCALITY=La Farola mine, Tierra Amarilla, Atacama, Chile
##OWNER=RRUFF
##SOURCE=Rock Currier
##DESCRIPTION=Green prismatic single crystals
##STATUS=The identification of this mineral has been confirmed by X-ray diffraction and chemical analysis
##URL=rruff.info/R050098
##MEASURED CHEMISTRY=Cu_2.00_Cl_1.00_(OH)_3_
3.741225e+002, 1.922761e-001
3.760510e+002, 1.966117e-001
3.779795e+002, 2.096654e-001
3.799079e+002, 2.086098e-001
3.818364e+002, 2.192961e-001
3.837649e+002, 2.335119e-001
3.856933e+002, 2.393132e-001
3.876218e+002, 2.451912e-001
3.895503e+002, 2.540207e-001
3.914787e+002, 2.597418e-001
3.934072e+002, 2.528312e-001
3.953357e+002, 2.435461e-001
3.972641e+002, 2.459932e-001
3.991926e+002, 2.415236e-001
4.011211e+002, 2.215864e-001
4.030495e+002, 2.095202e-001
4.049780e+002, 2.031261e-001
4.069065e+002, 1.909839e-001
4.088349e+002, 1.792199e-001
4.107634e+002, 1.704040e-001
4.126919e+002, 1.632517e-001
4.146203e+002, 1.581551e-001
4.165488e+002, 1.532182e-001
4.184773e+002, 1.486899e-001
4.204057e+002, 1.446356e-001
4.223342e+002, 1.410258e-001
4.242627e+002, 1.390644e-001
4.261911e+002, 1.384467e-001
4.281196e+002, 1.389585e-001
4.300481e+002, 1.403684e-001
4.319765e+002, 1.423805e-001
4.339050e+002, 1.463315e-001
4.358335e+002, 1.484834e-001
4.377619e+002, 1.488611e-001
4.396904e+002, 1.499306e-001
4.416189e+002, 1.501912e-001
4.435473e+002, 1.492538e-001
4.454758e+002, 1.491972e-001
4.474043e+002, 1.485636e-001
4.493327e+002, 1.477916e-001
4.512612e+002, 1.476099e-001
4.531897e+002, 1.464003e-001
4.551181e+002, 1.440528e-001
4.570466e+002, 1.405990e-001
4.589751e+002, 1.369078e-001
4.609035e+002, 1.323954e-001
4.628320e+002, 1.279105e-001
4.647605e+002, 1.238338e-001
4.666889e+002, 1.219527e-001
4.686174e+002, 1.213629e-001
4.705459e+002, 1.219837e-001
4.724743e+002, 1.240354e-001
4.744028e+002, 1.266024e-001
4.763313e+002, 1.283923e-001
4.782597e+002, 1.288687e-001
4.801882e+002, 1.273327e-001
4.821167e+002, 1.226145e-001
4.840451e+002, 1.142919e-001
4.859736e+002, 1.052903e-001
4.879021e+002, 9.850649e-002
4.898305e+002, 9.386361e-002
4.917590e+002, 9.126826e-002
4.936875e+002, 9.086621e-002
4.956159e+002, 9.283534e-002
4.975444e+002, 9.630407e-002
4.994729e+002, 1.012799e-001
5.014013e+002, 1.074092e-001
5.033298e+002, 1.131993e-001
5.052583e+002, 1.188149e-001
5.071867e+002, 1.244352e-001
5.091152e+002, 1.284429e-001
5.110437e+002, 1.298303e-001
5.129721e+002, 1.281408e-001
5.149006e+002, 1.228893e-001
5.168290e+002, 1.152448e-001
5.187575e+002, 1.063814e-001
5.206860e+002, 9.691703e-002
5.226144e+002, 8.792845e-002
5.245429e+002, 7.952709e-002
5.264714e+002, 7.203757e-002
5.283998e+002, 6.542299e-002
5.303283e+002, 5.913008e-002
5.322568e+002, 5.416882e-002
5.341852e+002, 5.084255e-002
5.361137e+002, 4.805110e-002
5.380422e+002, 4.625369e-002
5.399706e+002, 4.546360e-002
5.418991e+002, 4.499248e-002
5.438276e+002, 4.495492e-002
5.457560e+002, 4.563957e-002
5.476845e+002, 4.673810e-002
5.496130e+002, 4.782661e-002
5.515414e+002, 4.929343e-002
5.534699e+002, 5.070759e-002
5.553984e+002, 5.255551e-002
5.573268e+002, 5.539191e-002
5.592553e+002, 5.826400e-002
5.611838e+002, 6.051679e-002
5.631122e+002, 6.316219e-002
5.650407e+002, 6.640927e-002
5.669692e+002, 6.943275e-002
5.688976e+002, 7.271408e-002
5.708261e+002, 7.663649e-002
5.727546e+002, 8.093383e-002
5.746830e+002, 8.503562e-002
5.766115e+002, 8.943525e-002
5.785400e+002, 9.422237e-002
5.804684e+002, 9.954795e-002
5.823969e+002, 1.050391e-001
5.843254e+002, 1.100666e-001
5.862538e+002, 1.145657e-001
5.881823e+002, 1.182523e-001
5.901108e+002, 1.207911e-001
5.920392e+002, 1.214837e-001
5.939677e+002, 1.202206e-001
5.958962e+002, 1.171657e-001
5.978246e+002, 1.129599e-001
5.997531e+002, 1.080756e-001
6.016816e+002, 1.028248e-001
6.036100e+002, 9.749710e-002
6.055385e+002, 9.216037e-002
6.074670e+002, 8.640569e-002
6.093954e+002, 7.953591e-002
6.113239e+002, 7.148439e-002
6.132524e+002, 6.269903e-002
6.151808e+002, 5.426161e-002
6.171093e+002, 4.731663e-002
6.190378e+002, 4.190708e-002
6.209662e+002, 3.767901e-002
6.228947e+002, 3.432623e-002
6.248232e+002, 3.179565e-002
6.267516e+002, 3.024423e-002
6.286801e+002, 2.898265e-002
6.306086e+002, 2.807792e-002
6.325370e+002, 2.754239e-002
6.344655e+002, 2.721841e-002
6.363940e+002, 2.705105e-002
6.383224e+002, 2.676105e-002
6.402509e+002, 2.661842e-002
6.421794e+002, 2.643113e-002
6.441078e+002, 2.644612e-002
6.460363e+002, 2.646620e-002
6.479648e+002, 2.655257e-002
6.498932e+002, 2.673877e-002
6.518217e+002, 2.682519e-002
6.537502e+002, 2.683876e-002
6.556786e+002, 2.707971e-002
6.576071e+002, 2.718907e-002
6.595356e+002, 2.720470e-002
6.614641e+002, 2.725078e-002
6.633925e+002, 2.723081e-002
6.653210e+002, 2.731926e-002
6.672495e+002, 2.750755e-002
6.691779e+002, 2.747544e-002
6.711064e+002, 2.725295e-002
6.730349e+002, 2.721591e-002
6.749633e+002, 2.733415e-002
6.768918e+002, 2.752899e-002
6.788203e+002, 2.778920e-002
6.807487e+002, 2.798285e-002
6.826772e+002, 2.820884e-002
6.846057e+002, 2.841893e-002
6.865341e+002, 2.876018e-002
6.884626e+002, 2.918593e-002
6.903911e+002, 2.958998e-002
6.923195e+002, 3.002733e-002
6.942480e+002, 3.069009e-002
6.961765e+002, 3.123393e-002
6.981049e+002, 3.166823e-002
7.000334e+002, 3.209270e-002
7.019619e+002, 3.242908e-002
7.038903e+002, 3.267312e-002
7.058188e+002, 3.301159e-002
7.077473e+002, 3.334550e-002
7.096757e+002, 3.367204e-002
7.116042e+002, 3.405980e-002
7.135327e+002, 3.441449e-002
7.154611e+002, 3.468835e-002
7.173896e+002, 3.500015e-002
7.193181e+002, 3.540734e-002
7.212465e+002, 3.580098e-002
7.231750e+002, 3.603938e-002
7.251035e+002, 3.634253e-002
7.270319e+002, 3.641137e-002
7.289604e+002, 3.645431e-002
7.308889e+002, 3.680772e-002
7.328173e+002, 3.710119e-002
7.347458e+002, 3.744049e-002
7.366743e+002, 3.781810e-002
7.386027e+002, 3.797440e-002
7.405312e+002, 3.821681e-002
7.424597e+002, 3.857603e-002
7.443881e+002, 3.888359e-002
7.463166e+002, 3.919573e-002
7.482451e+002, 3.950276e-002
7.501735e+002, 3.985178e-002
7.521020e+002, 4.029072e-002
7.540305e+002, 4.080728e-002
7.559589e+002, 4.130004e-002
7.578874e+002, 4.179315e-002
7.598159e+002, 4.221253e-002
7.617443e+002, 4.270807e-002
7.636728e+002, 4.335871e-002
7.656013e+002, 4.429629e-002
7.675297e+002, 4.527494e-002
7.694582e+002, 4.606277e-002
7.713867e+002, 4.672887e-002
7.733151e+002, 4.759288e-002
7.752436e+002, 4.865750e-002
7.771721e+002, 4.980414e-002
7.791005e+002, 5.095102e-002
7.810290e+002, 5.201082e-002
7.829575e+002, 5.310180e-002
7.848859e+002, 5.446147e-002
7.868144e+002, 5.582255e-002
7.887429e+002, 5.727685e-002
7.906713e+002, 5.896435e-002
7.925998e+002, 6.085635e-002
7.945283e+002, 6.299795e-002
7.964567e+002, 6.535107e-002
7.983852e+002, 6.805882e-002
8.003137e+002, 7.129978e-002
8.022421e+002, 7.485989e-002
8.041706e+002, 7.867454e-002
8.060991e+002, 8.318866e-002
8.080275e+002, 8.841778e-002
8.099560e+002, 9.441561e-002
8.118845e+002, 1.012398e-001
8.138129e+002, 1.086783e-001
8.157414e+002, 1.156910e-001
8.176699e+002, 1.207262e-001
8.195983e+002, 1.220018e-001
8.215268e+002, 1.190336e-001
8.234553e+002, 1.140558e-001
8.253837e+002, 1.104337e-001
8.273122e+002, 1.102360e-001
8.292407e+002, 1.132758e-001
8.311691e+002, 1.185855e-001
8.330976e+002, 1.253589e-001
8.350261e+002, 1.333565e-001
8.369545e+002, 1.423555e-001
8.388830e+002, 1.517946e-001
8.408115e+002, 1.609495e-001
8.427399e+002, 1.688463e-001
8.446684e+002, 1.740846e-001
8.465969e+002, 1.744054e-001
8.485253e+002, 1.687854e-001
8.504538e+002, 1.577513e-001
8.523823e+002, 1.429053e-001
8.543107e+002, 1.271413e-001
8.562392e+002, 1.134165e-001
8.581677e+002, 1.040195e-001
8.600961e+002, 9.942628e-002
8.620246e+002, 9.916081e-002
8.639531e+002, 1.015702e-001
8.658815e+002, 1.036802e-001
8.678100e+002, 1.026698e-001
8.697385e+002, 9.930108e-002
8.716669e+002, 9.704493e-002
8.735954e+002, 9.752019e-002
8.755239e+002, 1.005921e-001
8.774523e+002, 1.057453e-001
8.793808e+002, 1.125377e-001
8.813093e+002, 1.206400e-001
8.832377e+002, 1.297161e-001
8.851662e+002, 1.394111e-001
8.870947e+002, 1.488031e-001
8.890231e+002, 1.564601e-001
8.909516e+002, 1.601848e-001
8.928801e+002, 1.585313e-001
8.948085e+002, 1.514664e-001
8.967370e+002, 1.403392e-001
8.986655e+002, 1.276349e-001
9.005939e+002, 1.162555e-001
9.025224e+002, 1.087955e-001
9.044509e+002, 1.064757e-001
9.063793e+002, 1.089663e-001
9.083078e+002, 1.144412e-001
9.102363e+002, 1.206044e-001
9.121647e+002, 1.247485e-001
9.140932e+002, 1.240374e-001
9.160217e+002, 1.175575e-001
9.179501e+002, 1.066196e-001
9.198786e+002, 9.394824e-002
9.218071e+002, 8.237837e-002
9.237355e+002, 7.381818e-002
9.256640e+002, 6.850255e-002
9.275925e+002, 6.608424e-002
9.295209e+002, 6.614590e-002
9.314494e+002, 6.838557e-002
9.333779e+002, 7.249232e-002
9.353063e+002, 7.798706e-002
9.372348e+002, 8.449707e-002
9.391633e+002, 9.163611e-002
9.410917e+002, 9.872489e-002
9.430202e+002, 1.049576e-001
9.449487e+002, 1.093167e-001
9.468771e+002, 1.101782e-001
9.488056e+002, 1.067947e-001
9.507341e+002, 9.919861e-002
9.526625e+002, 8.897603e-002
9.545910e+002, 7.845312e-002
9.565195e+002, 6.976604e-002
9.584479e+002, 6.388959e-002
9.603764e+002, 6.044594e-002
9.623049e+002, 5.904187e-002
9.642333e+002, 5.920963e-002
9.661618e+002, 6.055386e-002
9.680903e+002, 6.290781e-002
9.700187e+002, 6.644116e-002
9.719472e+002, 7.109401e-002
9.738757e+002, 7.678993e-002
9.758041e+002, 8.382862e-002
9.777326e+002, 9.190491e-002
9.796611e+002, 1.003307e-001
9.815895e+002, 1.077456e-001
9.835180e+002, 1.114533e-001
9.854465e+002, 1.082390e-001
9.873749e+002, 9.685303e-002
9.893034e+002, 8.065664e-002
9.912319e+002, 6.498779e-002
9.931603e+002, 5.320504e-002
9.950888e+002, 4.544514e-002
9.970173e+002, 4.033343e-002
9.989457e+002, 3.701704e-002
1.000874e+003, 3.481315e-002
1.002803e+003, 3.339190e-002
1.004731e+003, 3.245315e-002
1.006660e+003, 3.184948e-002
1.008588e+003, 3.151808e-002
1.010517e+003, 3.122046e-002
1.012445e+003, 3.100511e-002
1.014373e+003, 3.104202e-002
1.016302e+003, 3.094515e-002
1.018230e+003, 3.080286e-002
1.020159e+003, 3.076527e-002
1.022087e+003, 3.091165e-002
1.024016e+003, 3.122472e-002
1.025944e+003, 3.153226e-002
1.027873e+003, 3.171163e-002
1.029801e+003, 3.182384e-002
1.031730e+003, 3.188461e-002
1.033658e+003, 3.210951e-002
1.035587e+003, 3.228572e-002
1.037515e+003, 3.253162e-002
1.039443e+003, 3.270686e-002
1.041372e+003, 3.264214e-002
1.043300e+003, 3.251982e-002
1.045229e+003, 3.246318e-002
1.047157e+003, 3.229162e-002
1.049086e+003, 3.220195e-002
1.051014e+003, 3.206643e-002
1.052943e+003, 3.199122e-002
1.054871e+003, 3.184752e-002
1.056800e+003, 3.162786e-002
1.058728e+003, 3.151743e-002
1.060657e+003, 3.165881e-002
1.062585e+003, 3.171528e-002
1.064514e+003, 3.159821e-002
1.066442e+003, 3.150100e-002
1.068370e+003, 3.165323e-002
1.070299e+003, 3.175213e-002
1.072227e+003, 3.179941e-002
1.074156e+003, 3.176813e-002
1.076084e+003, 3.170972e-002
1.078013e+003, 3.180611e-002
1.079941e+003, 3.196746e-002
1.081870e+003, 3.191357e-002
1.083798e+003, 3.176412e-002
1.085727e+003, 3.169923e-002
1.087655e+003, 3.164242e-002
1.089584e+003, 3.167228e-002
1.091512e+003, 3.166624e-002
1.093441e+003, 3.168717e-002
1.095369e+003, 3.166248e-002
1.097297e+003, 3.143731e-002
1.099226e+003, 3.133330e-002
1.101154e+003, 3.120694e-002
1.103083e+003, 3.122719e-002
1.105011e+003, 3.126345e-002
1.106940e+003, 3.119468e-002
1.108868e+003, 3.119050e-002
1.110797e+003, 3.123190e-002
1.112725e+003, 3.128848e-002
1.114654e+003, 3.142262e-002
1.116582e+003, 3.154032e-002
1.118511e+003, 3.164107e-002
1.120439e+003, 3.160132e-002
1.122368e+003, 3.164453e-002
1.124296e+003, 3.169640e-002
1.126224e+003, 3.183829e-002
1.128153e+003, 3.212637e-002
1.130081e+003, 3.238176e-002
1.132010e+003, 3.256372e-002
1.133938e+003, 3.281153e-002
1.135867e+003, 3.302369e-002
1.137795e+003, 3.317505e-002
1.139724e+003, 3.347027e-002
1.141652e+003, 3.393710e-002
1.143581e+003, 3.445035e-002
1.145509e+003, 3.479171e-002
1.147438e+003, 3.504856e-002
1.149366e+003, 3.556054e-002
1.151295e+003, 3.606388e-002
1.153223e+003, 3.649609e-002
1.155151e+003, 3.694994e-002
1.157080e+003, 3.725595e-002
1.159008e+003, 3.747064e-002
1.160937e+003, 3.767772e-002
1.162865e+003, 3.750606e-002
1.164794e+003, 3.709347e-002
1.166722e+003, 3.672098e-002
1.168651e+003, 3.635491e-002
1.170579e+003, 3.590654e-002
1.172508e+003, 3.532761e-002
1.174436e+003, 3.475712e-002
1.176365e+003, 3.427279e-002
1.178293e+003, 3.383526e-002
1.180222e+003, 3.347235e-002
1.182150e+003, 3.318283e-002
1.184078e+003, 3.284194e-002
1.186007e+003, 3.261079e-002
1.187935e+003, 3.244958e-002
1.189864e+003, 3.226061e-002
1.191792e+003, 3.204946e-002
1.193721e+003, 3.185201e-002
1.195649e+003, 3.164016e-002
1.197578e+003, 3.151633e-002
1.199506e+003, 3.145393e-002
1.201435e+003, 3.132832e-002
1.203363e+003, 3.118502e-002
1.205292e+003, 3.101580e-002
1.207220e+003, 3.117396e-002
1.209149e+003, 3.127163e-002
1.211077e+003, 3.123476e-002
1.213005e+003, 3.107593e-002
1.214934e+003, 3.100356e-002
1.216862e+003, 3.109267e-002
1.218791e+003, 3.124488e-002
1.220719e+003, 3.133855e-002
1.222648e+003, 3.134483e-002
1.224576e+003, 3.117811e-002
1.226505e+003, 3.109390e-002
1.228433e+003, 3.117869e-002
1.230362e+003, 3.115477e-002
1.232290e+003, 3.115149e-002
1.234219e+003, 3.120471e-002
1.236147e+003, 3.116018e-002
1.238076e+003, 3.113828e-002
1.240004e+003, 3.119070e-002
1.241932e+003, 3.125879e-002
1.243861e+003, 3.128741e-002
1.245789e+003, 3.139904e-002
1.247718e+003, 3.144190e-002
1.249646e+003, 3.137143e-002
1.251575e+003, 3.147569e-002
1.253503e+003, 3.162964e-002
1.255432e+003, 3.168862e-002
1.257360e+003, 3.177377e-002
1.259289e+003, 3.186956e-002
1.261217e+003, 3.195641e-002
1.263146e+003, 3.201499e-002
1.265074e+003, 3.209182e-002
1.267003e+003, 3.206767e-002
1.268931e+003, 3.207820e-002
1.270859e+003, 3.224148e-002
1.272788e+003, 3.243203e-002
1.274716e+003, 3.258240e-002
1.276645e+003, 3.272793e-002
1.278573e+003, 3.287742e-002
1.280502e+003, 3.305329e-002
1.282430e+003, 3.314203e-002
1.284359e+003, 3.314029e-002
1.286287e+003, 3.329423e-002
1.288216e+003, 3.336231e-002
1.290144e+003, 3.335454e-002
1.292073e+003, 3.355281e-002
1.294001e+003, 3.368278e-002
1.295930e+003, 3.378906e-002
1.297858e+003, 3.384140e-002
1.299786e+003, 3.387453e-002
1.301715e+003, 3.398474e-002
1.303643e+003, 3.409826e-002
1.305572e+003, 3.413289e-002
1.307500e+003, 3.410993e-002
1.309429e+003, 3.415342e-002
1.311357e+003, 3.426971e-002
1.313286e+003, 3.435407e-002
1.315214e+003, 3.426304e-002
1.317143e+003, 3.422006e-002
1.319071e+003, 3.429614e-002
1.321000e+003, 3.438142e-002
1.322928e+003, 3.445274e-002
1.324857e+003, 3.451760e-002
1.326785e+003, 3.460005e-002
1.328714e+003, 3.465576e-002
1.330642e+003, 3.473917e-002
1.332570e+003, 3.483870e-002
1.334499e+003, 3.492383e-002
1.336427e+003, 3.500980e-002
1.338356e+003, 3.509998e-002
1.340284e+003, 3.518726e-002
1.342213e+003, 3.530918e-002
1.344141e+003, 3.535007e-002
1.346070e+003, 3.547187e-002
1.347998e+003, 3.559109e-002
1.349927e+003, 3.562009e-002
1.351855e+003, 3.566089e-002
1.353784e+003, 3.570895e-002
1.355712e+003, 3.579199e-002
1.357641e+003, 3.604065e-002
1.359569e+003, 3.621382e-002
1.361497e+003, 3.631354e-002
1.363426e+003, 3.635441e-002
1.365354e+003, 3.641598e-002
1.367283e+003, 3.653453e-002
1.369211e+003, 3.660936e-002
1.371140e+003, 3.666740e-002
1.373068e+003, 3.680877e-002
1.374997e+003, 3.699904e-002
1.376925e+003, 3.711709e-002
1.378854e+003, 3.724827e-002
1.380782e+003, 3.727592e-002
1.382711e+003, 3.722644e-002
1.384639e+003, 3.738039e-002
1.386568e+003, 3.750232e-002
1.388496e+003, 3.746263e-002
1.390424e+003, 3.750628e-002
1.392353e+003, 3.767402e-002
1.394281e+003, 3.795812e-002
1.396210e+003, 3.807588e-002
1.398138e+003, 3.813070e-002
1.400067e+003, 3.820404e-002
1.401995e+003, 3.828412e-002
1.403924e+003, 3.837621e-002
1.405852e+003, 3.847104e-002
1.407781e+003, 3.865090e-002
1.409709e+003, 3.885951e-002
1.411638e+003, 3.893550e-002
1.413566e+003, 3.891513e-002
1.415495e+003, 3.895397e-002
1.417423e+003, 3.915087e-002
1.419351e+003, 3.930438e-002
1.421280e+003, 3.931757e-002
1.423208e+003, 3.944803e-002
1.425137e+003, 3.946333e-002
1.427065e+003, 3.953956e-002
1.428994e+003, 3.970449e-002
1.430922e+003, 3.974897e-002
1.432851e+003, 3.982440e-002
1.434779e+003, 4.010383e-002
1.436708e+003, 4.045638e-002
1.438636e+003, 4.035670e-002
1.440565e+003, 4.024793e-002
1.442493e+003, 4.029401e-002
1.444422e+003, 4.037325e-002
1.446350e+003, 4.055023e-002
1.448278e+003, 4.071697e-002
1.450207e+003, 4.083650e-002
1.452135e+003, 4.097917e-002
1.454064e+003, 4.126730e-002
1.455992e+003, 4.172644e-002
1.457921e+003, 4.173527e-002
1.459849e+003, 4.144632e-002
1.461778e+003, 4.145961e-002
1.463706e+003, 4.158456e-002
1.465635e+003, 4.150648e-002
1.467563e+003, 4.123461e-002
1.469492e+003, 4.108863e-002
1.471420e+003, 4.127630e-002
1.473349e+003, 4.133018e-002
1.475277e+003, 4.109573e-002
1.477205e+003, 4.089358e-002
1.479134e+003, 4.074871e-002
1.481062e+003, 4.091165e-002
1.482991e+003, 4.114088e-002
1.484919e+003, 4.125218e-002
1.486848e+003, 4.138228e-002
1.488776e+003, 4.157245e-002
1.490705e+003, 4.162235e-002
1.492633e+003, 4.162119e-002
1.494562e+003, 4.193941e-002
1.496490e+003, 4.227022e-002
1.498419e+003, 4.224893e-002
1.500347e+003, 4.218444e-002
1.502276e+003, 4.226872e-002
1.504204e+003, 4.271149e-002
1.506132e+003, 4.320593e-002
1.508061e+003, 4.309617e-002
1.509989e+003, 4.277985e-002
1.511918e+003, 4.279395e-002
1.513846e+003, 4.288890e-002
1.515775e+003, 4.311827e-002
1.517703e+003, 4.333525e-002
1.519632e+003, 4.352115e-002
1.521560e+003, 4.380681e-002
1.523489e+003, 4.376772e-002
1.525417e+003, 4.382297e-002
1.527346e+003, 4.392038e-002
1.529274e+003, 4.401952e-002
1.531203e+003, 4.424176e-002
1.533131e+003, 4.442736e-002
1.535059e+003, 4.445264e-002
1.536988e+003, 4.488176e-002
1.538916e+003, 4.570104e-002
1.540845e+003, 4.598424e-002
1.542773e+003, 4.582084e-002
1.544702e+003, 4.576834e-002
1.546630e+003, 4.585017e-002
1.548559e+003, 4.612069e-002
1.550487e+003, 4.631426e-002
1.552416e+003, 4.649811e-002
1.554344e+003, 4.687278e-002
1.556273e+003, 4.722827e-002
1.558201e+003, 4.799452e-002
1.560130e+003, 4.811845e-002
1.562058e+003, 4.764310e-002
1.563986e+003, 4.766522e-002
1.565915e+003, 4.790585e-002
1.567843e+003, 4.813164e-002
1.569772e+003, 4.842551e-002
1.571700e+003, 4.854880e-002
1.573629e+003, 4.888897e-002
1.575557e+003, 4.956840e-002
1.577486e+003, 4.973327e-002
1.579414e+003, 4.957245e-002
1.581343e+003, 4.987143e-002
1.583271e+003, 5.004440e-002
1.585200e+003, 5.021406e-002
1.587128e+003, 5.046721e-002
1.589057e+003, 5.088490e-002
1.590985e+003, 5.136441e-002
1.592913e+003, 5.183715e-002
1.594842e+003, 5.209119e-002
1.596770e+003, 5.241524e-002
1.598699e+003, 5.289361e-002
1.600627e+003, 5.341509e-002
1.602556e+003, 5.388392e-002
1.604484e+003, 5.434379e-002
1.606413e+003, 5.471980e-002
1.608341e+003, 5.528500e-002
1.610270e+003, 5.603451e-002
1.612198e+003, 5.671600e-002
1.614127e+003, 5.752604e-002
1.616055e+003, 5.860736e-002
1.617984e+003, 5.923175e-002
1.619912e+003, 5.970445e-002
1.621840e+003, 6.059714e-002
1.623769e+003, 6.168045e-002
1.625697e+003, 6.266423e-002
1.627626e+003, 6.376041e-002
1.629554e+003, 6.490394e-002
1.631483e+003, 6.620246e-002
1.633411e+003, 6.788182e-002
1.635340e+003, 6.981076e-002
1.637268e+003, 7.114799e-002
1.639197e+003, 7.225499e-002
1.641125e+003, 7.389624e-002
1.643054e+003, 7.592315e-002
1.644982e+003, 7.801517e-002
1.646911e+003, 7.949097e-002
1.648839e+003, 8.031671e-002
1.650767e+003, 8.136252e-002
1.652696e+003, 8.217108e-002
1.654624e+003, 8.104619e-002
1.656553e+003, 7.913481e-002
1.658481e+003, 7.730453e-002
1.660410e+003, 7.505959e-002
1.662338e+003, 7.249868e-002
1.664267e+003, 6.987923e-002
1.666195e+003, 6.763133e-002
1.668124e+003, 6.602812e-002
1.670052e+003, 6.451950e-002
1.671981e+003, 6.295293e-002
1.673909e+003, 6.205876e-002
1.675838e+003, 6.127122e-002
1.677766e+003, 6.026374e-002
1.679694e+003, 5.973862e-002
1.681623e+003, 5.935778e-002
1.683551e+003, 5.942350e-002
1.685480e+003, 5.913523e-002
1.687408e+003, 5.845619e-002
1.689337e+003, 5.840455e-002
1.691265e+003, 5.845575e-002
1.693194e+003, 5.855807e-002
1.695122e+003, 5.915866e-002
1.697051e+003, 5.936814e-002
1.698979e+003, 5.964584e-002
1.700908e+003, 5.993030e-002
1.702836e+003, 5.953494e-002
1.704765e+003, 5.975047e-002
1.706693e+003, 6.001787e-002
1.708621e+003, 6.024753e-002
1.710550e+003, 6.041211e-002
1.712478e+003, 6.070466e-002
1.714407e+003, 6.096664e-002
1.716335e+003, 6.130542e-002
1.718264e+003, 6.135718e-002
1.720192e+003, 6.116217e-002
1.722121e+003, 6.131076e-002
1.724049e+003, 6.134284e-002
1.725978e+003, 6.130203e-002
1.727906e+003, 6.122459e-002
1.729835e+003, 6.102487e-002
1.731763e+003, 6.087293e-002
1.733692e+003, 6.049002e-002
1.735620e+003, 5.936739e-002
1.737548e+003, 5.818827e-002
1.739477e+003, 5.747406e-002
1.741405e+003, 5.680495e-002
1.743334e+003, 5.622408e-002
1.745262e+003, 5.555925e-002
1.747191e+003, 5.510328e-002
1.749119e+003, 5.475121e-002
1.751048e+003, 5.480640e-002
1.752976e+003, 5.499674e-002
1.754905e+003, 5.541178e-002
1.756833e+003, 5.602895e-002
1.758762e+003, 5.660057e-002
1.760690e+003, 5.723526e-002
1.762619e+003, 5.818336e-002
1.764547e+003, 5.910126e-002
1.766475e+003, 5.959570e-002
1.768404e+003, 5.993084e-002
1.770332e+003, 6.016903e-002
1.772261e+003, 6.002822e-002
1.774189e+003, 5.912926e-002
1.776118e+003, 5.793042e-002
1.778046e+003, 5.691430e-002
1.779975e+003, 5.614350e-002
1.781903e+003, 5.550221e-002
1.783832e+003, 5.499777e-002
1.785760e+003, 5.452541e-002
1.787689e+003, 5.398494e-002
1.789617e+003, 5.382823e-002
1.791546e+003, 5.375093e-002
1.793474e+003, 5.343619e-002
1.795402e+003, 5.300850e-002
1.797331e+003, 5.285785e-002
1.799259e+003, 5.290914e-002
1.801188e+003, 5.285180e-002
1.803116e+003, 5.276579e-002
1.805045e+003, 5.278813e-002
1.806973e+003, 5.267618e-002
1.808902e+003, 5.284842e-002
1.810830e+003, 5.292799e-002
1.812759e+003, 5.276017e-002
1.814687e+003, 5.254875e-002
1.816616e+003, 5.266732e-002
1.818544e+003, 5.280041e-002
1.820473e+003, 5.294811e-002
1.822401e+003, 5.289051e-002
1.824329e+003, 5.292786e-002
1.826258e+003, 5.284448e-002
1.828186e+003, 5.291083e-002
1.830115e+003, 5.303834e-002
1.832043e+003, 5.303771e-002
1.833972e+003, 5.307224e-002
1.835900e+003, 5.321024e-002
1.837829e+003, 5.340011e-002
1.839757e+003, 5.353378e-002
1.841686e+003, 5.361168e-002
1.843614e+003, 5.375980e-002
1.845543e+003, 5.366034e-002
1.847471e+003, 5.392687e-002
1.849400e+003, 5.389698e-002
1.851328e+003, 5.372099e-002
1.853256e+003, 5.338388e-002
1.855185e+003, 5.314042e-002
1.857113e+003, 5.299179e-002
1.859042e+003, 5.274369e-002
1.860970e+003, 5.226060e-002
1.862899e+003, 5.204087e-002
1.864827e+003, 5.177535e-002
1.866756e+003, 5.134711e-002
1.868684e+003, 5.113013e-002
1.870613e+003, 5.101268e-002
1.872541e+003, 5.066548e-002
1.874470e+003, 5.059386e-002
1.876398e+003, 5.066416e-002
1.878327e+003, 5.054611e-002
1.880255e+003, 5.040826e-002
1.882183e+003, 5.031085e-002
1.884112e+003, 5.019365e-002
1.886040e+003, 5.021519e-002
1.887969e+003, 5.053961e-002
1.889897e+003, 5.054069e-002
1.891826e+003, 5.025760e-002
1.893754e+003, 5.016936e-002
1.895683e+003, 5.018099e-002
1.897611e+003, 5.045922e-002
1.899540e+003, 5.089922e-002
1.901468e+003, 5.108279e-002
1.903397e+003, 5.096165e-002
1.905325e+003, 5.108057e-002
1.907254e+003, 5.135635e-002
1.909182e+003, 5.166226e-002
1.911110e+003, 5.162535e-002
1.913039e+003, 5.152933e-002
1.914967e+003, 5.210322e-002
1.916896e+003, 5.265637e-002
1.918824e+003, 5.263268e-002
1.920753e+003, 5.311210e-002
1.922681e+003, 5.339575e-002
1.924610e+003, 5.383539e-002
1.926538e+003, 5.449690e-002
1.928467e+003, 5.481290e-002
1.930395e+003, 5.553549e-002
1.932324e+003, 5.649154e-002
1.934252e+003, 5.695048e-002
1.936181e+003, 5.748110e-002
1.938109e+003, 5.774617e-002
1.940037e+003, 5.780955e-002
1.941966e+003, 5.841700e-002
1.943894e+003, 5.919391e-002
1.945823e+003, 6.009606e-002
1.947751e+003, 6.136809e-002
1.949680e+003, 6.122091e-002
1.951608e+003, 6.024635e-002
1.953537e+003, 5.933209e-002
1.955465e+003, 5.770085e-002
1.957394e+003, 5.623093e-002
1.959322e+003, 5.502997e-002
1.961251e+003, 5.389908e-002
1.963179e+003, 5.361092e-002
1.965108e+003, 5.252160e-002
1.967036e+003, 5.067781e-002
1.968964e+003, 4.925001e-002
1.970893e+003, 4.915949e-002
1.972821e+003, 4.891839e-002
1.974750e+003, 4.903791e-002
1.976678e+003, 4.952677e-002
1.978607e+003, 5.057245e-002
1.980535e+003, 5.037490e-002
1.982464e+003, 4.982776e-002
1.984392e+003, 5.053889e-002
1.986321e+003, 5.070344e-002
1.988249e+003, 5.028783e-002
1.990178e+003, 4.981960e-002
1.992106e+003, 4.890717e-002
1.994035e+003, 4.917974e-002
1.995963e+003, 4.941135e-002
1.997891e+003, 4.962239e-002
1.999820e+003, 4.989862e-002
2.001748e+003, 4.935665e-002
2.003677e+003, 4.929662e-002
2.005605e+003, 4.960924e-002
2.007534e+003, 4.988695e-002
2.009462e+003, 5.005559e-002
2.011391e+003, 5.002712e-002
2.013319e+003, 5.043741e-002
2.015248e+003, 5.087918e-002
2.017176e+003, 5.143429e-002
2.019105e+003, 5.134201e-002
2.021033e+003, 5.033495e-002
2.022962e+003, 4.963249e-002
2.024890e+003, 4.999841e-002
2.026818e+003, 5.002590e-002
2.028747e+003, 5.018223e-002
2.030675e+003, 4.971068e-002
2.032604e+003, 5.035613e-002
2.034532e+003, 5.018568e-002
2.036461e+003, 5.060500e-002
2.038389e+003, 5.121021e-002
2.040318e+003, 5.112337e-002
2.042246e+003, 5.077276e-002
2.044175e+003, 5.077897e-002
2.046103e+003, 5.056827e-002
2.048031e+003, 5.062807e-002
2.049960e+003, 5.084257e-002
2.051888e+003, 5.054588e-002
2.053817e+003, 5.060635e-002
2.055745e+003, 5.087586e-002
2.057674e+003, 5.063897e-002
2.059602e+003, 5.058099e-002
2.061531e+003, 5.109960e-002
2.063459e+003, 5.157610e-002
2.065388e+003, 5.110616e-002
2.067316e+003, 5.114453e-002
2.069245e+003, 5.159995e-002
2.071173e+003, 5.154541e-002
2.073102e+003, 5.101101e-002
2.075030e+003, 5.104754e-002
2.076958e+003, 5.105850e-002
2.078887e+003, 5.124077e-002
2.080815e+003, 5.113421e-002
2.082744e+003, 5.100453e-002
2.084672e+003, 5.122204e-002
2.086601e+003, 5.101530e-002
2.088529e+003, 5.075794e-002
2.090458e+003, 5.069041e-002
2.092386e+003, 5.037164e-002
2.094315e+003, 4.987846e-002
2.096243e+003, 5.036414e-002
2.098172e+003, 5.183561e-002
2.100100e+003, 5.231617e-002
2.102029e+003, 5.176790e-002
2.103957e+003, 5.138491e-002
2.105885e+003, 5.158748e-002
2.107814e+003, 5.179183e-002
2.109742e+003, 5.159972e-002
2.111671e+003, 5.174541e-002
2.113599e+003, 5.201551e-002
2.115528e+003, 5.178875e-002
2.117456e+003, 5.120050e-002
2.119385e+003, 5.080481e-002
2.121313e+003, 5.066930e-002
2.123242e+003, 5.076569e-002
2.125170e+003, 5.109322e-002
2.127099e+003, 5.077599e-002
2.129027e+003, 5.025294e-002
2.130956e+003, 4.998995e-002
2.132884e+003, 4.952690e-002
2.134813e+003, 5.059835e-002
2.136741e+003, 5.163843e-002
2.138669e+003, 5.114736e-002
2.140598e+003, 5.103019e-002
2.142526e+003, 5.132324e-002
2.144455e+003, 5.075642e-002
2.146383e+003, 5.024340e-002
2.148312e+003, 5.076518e-002
2.150240e+003, 5.098259e-002
2.152169e+003, 5.069656e-002
2.154097e+003, 4.996400e-002
2.156026e+003, 4.908771e-002
2.157954e+003, 4.980926e-002
2.159883e+003, 5.280741e-002
2.161811e+003, 5.348244e-002
2.163740e+003, 5.317708e-002
2.165668e+003, 5.339602e-002
2.167596e+003, 5.326404e-002
2.169525e+003, 5.357321e-002
2.171453e+003, 5.318950e-002
2.173382e+003, 5.287291e-002
2.175310e+003, 5.370928e-002
2.177239e+003, 5.395049e-002
2.179167e+003, 5.331137e-002
2.181096e+003, 5.224020e-002
2.183024e+003, 5.284192e-002
2.184953e+003, 5.387080e-002
2.186881e+003, 5.424090e-002
2.188810e+003, 5.446375e-002
2.190738e+003, 5.501758e-002
2.192667e+003, 5.556627e-002
2.194595e+003, 5.606819e-002
2.196523e+003, 5.521239e-002
2.198452e+003, 5.463672e-002
2.200380e+003, 5.522483e-002
2.202309e+003, 5.595397e-002
2.204237e+003, 5.567509e-002
2.206166e+003, 5.541797e-002
2.208094e+003, 5.488914e-002
2.210023e+003, 5.547279e-002
2.211951e+003, 5.636502e-002
2.213880e+003, 5.587898e-002
2.215808e+003, 5.573370e-002
2.217737e+003, 5.603545e-002
2.219665e+003, 5.590053e-002
2.221594e+003, 5.591845e-002
2.223522e+003, 5.582108e-002
2.225450e+003, 5.645539e-002
2.227379e+003, 5.673522e-002
2.229307e+003, 5.619042e-002
2.231236e+003, 5.633539e-002
2.233164e+003, 5.636675e-002
2.235093e+003, 5.622284e-002
2.237021e+003, 5.625721e-002
2.238950e+003, 5.625807e-002
2.240878e+003, 5.622338e-002
2.242807e+003, 5.617894e-002
2.244735e+003, 5.649148e-002
2.246664e+003, 5.661960e-002
2.248592e+003, 5.637484e-002
2.250521e+003, 5.659369e-002
2.252449e+003, 5.709131e-002
2.254377e+003, 5.791192e-002
2.256306e+003, 5.796234e-002
2.258234e+003, 5.726461e-002
2.260163e+003, 5.713687e-002
2.262091e+003, 5.722392e-002
2.264020e+003, 5.754938e-002
2.265948e+003, 5.754578e-002
2.267877e+003, 5.757149e-002
2.269805e+003, 5.738590e-002
2.271734e+003, 5.721575e-002
2.273662e+003, 5.754761e-002
2.275591e+003, 5.764709e-002
2.277519e+003, 5.735891e-002
2.279448e+003, 5.785385e-002
2.281376e+003, 5.828891e-002
2.283304e+003, 5.853166e-002
2.285233e+003, 5.852961e-002
2.287161e+003, 5.855770e-002
2.289090e+003, 5.833019e-002
2.291018e+003, 5.815421e-002
2.292947e+003, 5.818713e-002
2.294875e+003, 5.854132e-002
2.296804e+003, 5.873346e-002
2.298732e+003, 5.859932e-002
2.300661e+003, 5.851592e-002
2.302589e+003, 5.886764e-002
2.304518e+003, 5.869255e-002
2.306446e+003, 5.814419e-002
2.308375e+003, 5.816744e-002
2.310303e+003, 5.896645e-002
2.312231e+003, 5.906183e-002
2.314160e+003, 5.878406e-002
2.316088e+003, 5.910924e-002
2.318017e+003, 5.964933e-002
2.319945e+003, 6.025511e-002
2.321874e+003, 6.083189e-002
2.323802e+003, 6.087702e-002
2.325731e+003, 6.036774e-002
2.327659e+003, 5.998682e-002
2.329588e+003, 6.005790e-002
2.331516e+003, 6.017582e-002
2.333445e+003, 6.006208e-002
2.335373e+003, 6.004579e-002
2.337302e+003, 6.030870e-002
2.339230e+003, 6.026873e-002
2.341158e+003, 6.023981e-002
2.343087e+003, 6.024437e-002
2.345015e+003, 6.003983e-002
2.346944e+003, 5.972080e-002
2.348872e+003, 5.958001e-002
2.350801e+003, 5.979005e-002
2.352729e+003, 6.028298e-002
2.354658e+003, 6.085474e-002
2.356586e+003, 6.134629e-002
2.358515e+003, 6.177302e-002
2.360443e+003, 6.187545e-002
2.362372e+003, 6.175782e-002
2.364300e+003, 6.165923e-002
2.366229e+003, 6.161895e-002
2.368157e+003, 6.149206e-002
2.370085e+003, 6.122087e-002
2.372014e+003, 6.099505e-002
2.373942e+003, 6.079397e-002
2.375871e+003, 6.058912e-002
2.377799e+003, 6.039352e-002
2.379728e+003, 6.034537e-002
2.381656e+003, 6.019919e-002
2.383585e+003, 6.043136e-002
2.385513e+003, 6.068473e-002
2.387442e+003, 6.057569e-002
2.389370e+003, 6.047071e-002
2.391299e+003, 6.077696e-002
2.393227e+003, 6.096177e-002
2.395156e+003, 6.078757e-002
2.397084e+003, 6.087011e-002
2.399012e+003, 6.114817e-002
2.400941e+003, 6.129535e-002
2.402869e+003, 6.162774e-002
2.404798e+003, 6.160950e-002
2.406726e+003, 6.159394e-002
2.408655e+003, 6.169722e-002
2.410583e+003, 6.172662e-002
2.412512e+003, 6.197715e-002
2.414440e+003, 6.205954e-002
2.416369e+003, 6.187596e-002
2.418297e+003, 6.191259e-002
2.420226e+003, 6.215056e-002
2.422154e+003, 6.261524e-002
2.424083e+003, 6.264259e-002
2.426011e+003, 6.237477e-002
2.427939e+003, 6.229471e-002
2.429868e+003, 6.285755e-002
2.431796e+003, 6.316788e-002
2.433725e+003, 6.333064e-002
2.435653e+003, 6.344261e-002
2.437582e+003, 6.342620e-002
2.439510e+003, 6.354633e-002
2.441439e+003, 6.369845e-002
2.443367e+003, 6.354829e-002
2.445296e+003, 6.336871e-002
2.447224e+003, 6.336936e-002
2.449153e+003, 6.373211e-002
2.451081e+003, 6.411147e-002
2.453010e+003, 6.427889e-002
2.454938e+003, 6.381511e-002
2.456866e+003, 6.364065e-002
2.458795e+003, 6.396615e-002
2.460723e+003, 6.422643e-002
2.462652e+003, 6.405973e-002
2.464580e+003, 6.406767e-002
2.466509e+003, 6.421308e-002
2.468437e+003, 6.445391e-002
2.470366e+003, 6.489742e-002
2.472294e+003, 6.493869e-002
2.474223e+003, 6.470841e-002
2.476151e+003, 6.483467e-002
2.478080e+003, 6.487679e-002
2.480008e+003, 6.515021e-002
2.481937e+003, 6.530851e-002
2.483865e+003, 6.553983e-002
2.485793e+003, 6.535758e-002
2.487722e+003, 6.504430e-002
2.489650e+003, 6.486145e-002
2.491579e+003, 6.479353e-002
2.493507e+003, 6.480306e-002
2.495436e+003, 6.507467e-002
2.497364e+003, 6.532761e-002
2.499293e+003, 6.539697e-002
2.501221e+003, 6.535827e-002
2.503150e+003, 6.539148e-002
2.505078e+003, 6.553477e-002
2.507007e+003, 6.545977e-002
2.508935e+003, 6.538813e-002
2.510864e+003, 6.545915e-002
2.512792e+003, 6.574259e-002
2.514720e+003, 6.616931e-002
2.516649e+003, 6.647426e-002
2.518577e+003, 6.639803e-002
2.520506e+003, 6.606292e-002
2.522434e+003, 6.599167e-002
2.524363e+003, 6.607889e-002
2.526291e+003, 6.618939e-002
2.528220e+003, 6.637535e-002
2.530148e+003, 6.650231e-002
2.532077e+003, 6.616472e-002
2.534005e+003, 6.640015e-002
2.535934e+003, 6.679578e-002
2.537862e+003, 6.682808e-002
2.539791e+003, 6.690989e-002
2.541719e+003, 6.693617e-002
2.543647e+003, 6.692840e-002
2.545576e+003, 6.722999e-002
2.547504e+003, 6.716415e-002
2.549433e+003, 6.752470e-002
2.551361e+003, 6.806622e-002
2.553290e+003, 6.785636e-002
2.555218e+003, 6.734116e-002
2.557147e+003, 6.729943e-002
2.559075e+003, 6.738541e-002
2.561004e+003, 6.772105e-002
2.562932e+003, 6.766871e-002
2.564861e+003, 6.766102e-002
2.566789e+003, 6.787250e-002
2.568718e+003, 6.787419e-002
2.570646e+003, 6.818379e-002
2.572574e+003, 6.822307e-002
2.574503e+003, 6.832209e-002
2.576431e+003, 6.856240e-002
2.578360e+003, 6.891395e-002
2.580288e+003, 6.918509e-002
2.582217e+003, 6.880624e-002
2.584145e+003, 6.870724e-002
2.586074e+003, 6.920123e-002
2.588002e+003, 6.906507e-002
2.589931e+003, 6.873079e-002
2.591859e+003, 6.909505e-002
2.593788e+003, 6.919278e-002
2.595716e+003, 6.914107e-002
2.597645e+003, 6.952917e-002
2.599573e+003, 6.956998e-002
2.601501e+003, 6.944833e-002
2.603430e+003, 6.969035e-002
2.605358e+003, 6.997310e-002
2.607287e+003, 7.044826e-002
2.609215e+003, 7.041214e-002
2.611144e+003, 7.031026e-002
2.613072e+003, 7.046390e-002
2.615001e+003, 7.075775e-002
2.616929e+003, 7.081105e-002
2.618858e+003, 7.077180e-002
2.620786e+003, 7.075230e-002
2.622715e+003, 7.091700e-002
2.624643e+003, 7.101579e-002
2.626572e+003, 7.072077e-002
2.628500e+003, 7.072517e-002
2.630428e+003, 7.092033e-002
2.632357e+003, 7.112343e-002
2.634285e+003, 7.111255e-002
2.636214e+003, 7.117131e-002
2.638142e+003, 7.164519e-002
2.640071e+003, 7.171824e-002
2.641999e+003, 7.167874e-002
2.643928e+003, 7.155287e-002
2.645856e+003, 7.160851e-002
2.647785e+003, 7.199933e-002
2.649713e+003, 7.228360e-002
2.651642e+003, 7.215668e-002
2.653570e+003, 7.203955e-002
2.655499e+003, 7.236778e-002
2.657427e+003, 7.249168e-002
2.659355e+003, 7.242016e-002
2.661284e+003, 7.250704e-002
2.663212e+003, 7.249258e-002
2.665141e+003, 7.254528e-002
2.667069e+003, 7.267116e-002
2.668998e+003, 7.264970e-002
2.670926e+003, 7.285362e-002
2.672855e+003, 7.314115e-002
2.674783e+003, 7.294995e-002
2.676712e+003, 7.300358e-002
2.678640e+003, 7.303794e-002
2.680569e+003, 7.325679e-002
2.682497e+003, 7.328441e-002
2.684426e+003, 7.350183e-002
2.686354e+003, 7.386857e-002
2.688282e+003, 7.397720e-002
2.690211e+003, 7.406987e-002
2.692139e+003, 7.435774e-002
2.694068e+003, 7.448664e-002
2.695996e+003, 7.436518e-002
2.697925e+003, 7.429779e-002
2.699853e+003, 7.429408e-002
2.701782e+003, 7.438827e-002
2.703710e+003, 7.470950e-002
2.705639e+003, 7.472419e-002
2.707567e+003, 7.471494e-002
2.709496e+003, 7.477389e-002
2.711424e+003, 7.500748e-002
2.713353e+003, 7.526609e-002
2.715281e+003, 7.537656e-002
2.717209e+003, 7.539007e-002
2.719138e+003, 7.560071e-002
2.721066e+003, 7.590013e-002
2.722995e+003, 7.603840e-002
2.724923e+003, 7.618997e-002
2.726852e+003, 7.651335e-002
2.728780e+003, 7.648008e-002
2.730709e+003, 7.647507e-002
2.732637e+003, 7.664632e-002
2.734566e+003, 7.663199e-002
2.736494e+003, 7.679271e-002
2.738423e+003, 7.690016e-002
2.740351e+003, 7.691557e-002
2.742280e+003, 7.724879e-002
2.744208e+003, 7.745069e-002
2.746136e+003, 7.760688e-002
2.748065e+003, 7.760152e-002
2.749993e+003, 7.785524e-002
2.751922e+003, 7.799821e-002
2.753850e+003, 7.820707e-002
2.755779e+003, 7.842931e-002
2.757707e+003, 7.855835e-002
2.759636e+003, 7.866240e-002
2.761564e+003, 7.856739e-002
2.763493e+003, 7.849840e-002
2.765421e+003, 7.877026e-002
2.767350e+003, 7.888816e-002
2.769278e+003, 7.892431e-002
2.771207e+003, 7.943912e-002
2.773135e+003, 7.997407e-002
2.775063e+003, 8.016942e-002
2.776992e+003, 8.020173e-002
2.778920e+003, 8.007214e-002
2.780849e+003, 8.025759e-002
2.782777e+003, 8.039612e-002
2.784706e+003, 8.046475e-002
2.786634e+003, 8.057564e-002
2.788563e+003, 8.078726e-002
2.790491e+003, 8.076860e-002
2.792420e+003, 8.076270e-002
2.794348e+003, 8.095150e-002
2.796277e+003, 8.130721e-002
2.798205e+003, 8.160609e-002
2.800134e+003, 8.181147e-002
2.802062e+003, 8.207498e-002
2.803990e+003, 8.238097e-002
2.805919e+003, 8.253948e-002
2.807847e+003, 8.240658e-002
2.809776e+003, 8.256926e-002
2.811704e+003, 8.314012e-002
2.813633e+003, 8.327369e-002
2.815561e+003, 8.335344e-002
2.817490e+003, 8.335826e-002
2.819418e+003, 8.351523e-002
2.821347e+003, 8.401839e-002
2.823275e+003, 8.434705e-002
2.825204e+003, 8.442272e-002
2.827132e+003, 8.475001e-002
2.829061e+003, 8.507450e-002
2.830989e+003, 8.530693e-002
2.832917e+003, 8.571007e-002
2.834846e+003, 8.622269e-002
2.836774e+003, 8.692773e-002
2.838703e+003, 8.733217e-002
2.840631e+003, 8.764298e-002
2.842560e+003, 8.793721e-002
2.844488e+003, 8.840602e-002
2.846417e+003, 8.894645e-002
2.848345e+003, 8.926973e-002
2.850274e+003, 8.958872e-002
2.852202e+003, 8.988701e-002
2.854131e+003, 9.022360e-002
2.856059e+003, 9.022990e-002
2.857988e+003, 9.016027e-002
2.859916e+003, 9.009434e-002
2.861844e+003, 8.991491e-002
2.863773e+003, 8.974845e-002
2.865701e+003, 8.989441e-002
2.867630e+003, 9.002660e-002
2.869558e+003, 9.048133e-002
2.871487e+003, 9.074697e-002
2.873415e+003, 9.065034e-002
2.875344e+003, 9.071661e-002
2.877272e+003, 9.069452e-002
2.879201e+003, 9.057519e-002
2.881129e+003, 9.069415e-002
2.883058e+003, 9.074643e-002
2.884986e+003, 9.102905e-002
2.886915e+003, 9.152302e-002
2.888843e+003, 9.219645e-002
2.890771e+003, 9.255081e-002
2.892700e+003, 9.273740e-002
2.894628e+003, 9.300876e-002
2.896557e+003, 9.349544e-002
2.898485e+003, 9.417211e-002
2.900414e+003, 9.480907e-002
2.902342e+003, 9.519762e-002
2.904271e+003, 9.548796e-002
2.906199e+003, 9.593978e-002
2.908128e+003, 9.670573e-002
2.910056e+003, 9.717090e-002
2.911985e+003, 9.746508e-002
2.913913e+003, 9.812575e-002
2.915842e+003, 9.870393e-002
2.917770e+003, 9.925195e-002
2.919698e+003, 1.001167e-001
2.921627e+003, 1.008372e-001
2.923555e+003, 1.011936e-001
2.925484e+003, 1.011561e-001
2.927412e+003, 1.008310e-001
2.929341e+003, 1.006396e-001
2.931269e+003, 1.003436e-001
2.933198e+003, 9.974720e-002
2.935126e+003, 9.933855e-002
2.937055e+003, 9.909844e-002
2.938983e+003, 9.876774e-002
2.940912e+003, 9.864137e-002
2.942840e+003, 9.899408e-002
2.944769e+003, 9.945669e-002
2.946697e+003, 1.001900e-001
2.948625e+003, 1.007361e-001
2.950554e+003, 1.011697e-001
2.952482e+003, 1.016066e-001
2.954411e+003, 1.019286e-001
2.956339e+003, 1.019826e-001
2.958268e+003, 1.023111e-001
2.960196e+003, 1.026957e-001
2.962125e+003, 1.025477e-001
2.964053e+003, 1.021510e-001
2.965982e+003, 1.016202e-001
2.967910e+003, 1.010871e-001
2.969839e+003, 1.010439e-001
2.971767e+003, 1.007971e-001
2.973696e+003, 1.005479e-001
2.975624e+003, 1.005462e-001
2.977552e+003, 1.007878e-001
2.979481e+003, 1.008340e-001
2.981409e+003, 1.008855e-001
2.983338e+003, 1.011372e-001
2.985266e+003, 1.012771e-001
2.987195e+003, 1.015755e-001
2.989123e+003, 1.018045e-001
2.991052e+003, 1.016606e-001
2.992980e+003, 1.019205e-001
2.994909e+003, 1.024012e-001
2.996837e+003, 1.028050e-001
2.998766e+003, 1.029837e-001
3.000694e+003, 1.032037e-001
3.002623e+003, 1.037243e-001
3.004551e+003, 1.043565e-001
3.006479e+003, 1.049918e-001
3.008408e+003, 1.051736e-001
3.010336e+003, 1.052869e-001
3.012265e+003, 1.058847e-001
3.014193e+003, 1.062036e-001
3.016122e+003, 1.067202e-001
3.018050e+003, 1.068485e-001
3.019979e+003, 1.071349e-001
3.021907e+003, 1.078065e-001
3.023836e+003, 1.083922e-001
3.025764e+003, 1.088925e-001
3.027693e+003, 1.089254e-001
3.029621e+003, 1.091031e-001
3.031550e+003, 1.096968e-001
3.033478e+003, 1.105794e-001
3.035406e+003, 1.109511e-001
3.037335e+003, 1.113215e-001
3.039263e+003, 1.117753e-001
3.041192e+003, 1.123714e-001
3.043120e+003, 1.130088e-001
3.045049e+003, 1.133206e-001
3.046977e+003, 1.136616e-001
3.048906e+003, 1.141405e-001
3.050834e+003, 1.151861e-001
3.052763e+003, 1.157880e-001
3.054691e+003, 1.163132e-001
3.056620e+003, 1.165539e-001
3.058548e+003, 1.172527e-001
3.060477e+003, 1.180521e-001
3.062405e+003, 1.186042e-001
3.064333e+003, 1.191856e-001
3.066262e+003, 1.197340e-001
3.068190e+003, 1.198849e-001
3.070119e+003, 1.203475e-001
3.072047e+003, 1.212902e-001
3.073976e+003, 1.219583e-001
3.075904e+003, 1.224681e-001
3.077833e+003, 1.229337e-001
3.079761e+003, 1.234725e-001
3.081690e+003, 1.241683e-001
3.083618e+003, 1.246482e-001
3.085547e+003, 1.253682e-001
3.087475e+003, 1.264287e-001
3.089404e+003, 1.271825e-001
3.091332e+003, 1.274193e-001
3.093260e+003, 1.281369e-001
3.095189e+003, 1.294391e-001
3.097117e+003, 1.306915e-001
3.099046e+003, 1.312295e-001
3.100974e+003, 1.321953e-001
3.102903e+003, 1.334712e-001
3.104831e+003, 1.336063e-001
3.106760e+003, 1.339489e-001
3.108688e+003, 1.355907e-001
3.110617e+003, 1.374610e-001
3.112545e+003, 1.389766e-001
3.114474e+003, 1.397591e-001
3.116402e+003, 1.407839e-001
3.118331e+003, 1.422852e-001
3.120259e+003, 1.437391e-001
3.122188e+003, 1.453783e-001
3.124116e+003, 1.469703e-001
3.126044e+003, 1.479729e-001
3.127973e+003, 1.492154e-001
3.129901e+003, 1.505027e-001
3.131830e+003, 1.522530e-001
3.133758e+003, 1.542446e-001
3.135687e+003, 1.561753e-001
3.137615e+003, 1.578148e-001
3.139544e+003, 1.595566e-001
3.141472e+003, 1.610658e-001
3.143401e+003, 1.625413e-001
3.145329e+003, 1.638269e-001
3.147258e+003, 1.653315e-001
3.149186e+003, 1.671274e-001
3.151115e+003, 1.687034e-001
3.153043e+003, 1.702127e-001
3.154971e+003, 1.717562e-001
3.156900e+003, 1.732532e-001
3.158828e+003, 1.749326e-001
3.160757e+003, 1.763544e-001
3.162685e+003, 1.778576e-001
3.164614e+003, 1.792294e-001
3.166542e+003, 1.806411e-001
3.168471e+003, 1.822106e-001
3.170399e+003, 1.836203e-001
3.172328e+003, 1.850211e-001
3.174256e+003, 1.864244e-001
3.176185e+003, 1.878782e-001
3.178113e+003, 1.899164e-001
3.180042e+003, 1.918267e-001
3.181970e+003, 1.935445e-001
3.183898e+003, 1.950229e-001
3.185827e+003, 1.958114e-001
3.187755e+003, 1.964615e-001
3.189684e+003, 1.978374e-001
3.191612e+003, 1.988502e-001
3.193541e+003, 1.996610e-001
3.195469e+003, 2.002738e-001
3.197398e+003, 2.009312e-001
3.199326e+003, 2.010948e-001
3.201255e+003, 2.012517e-001
3.203183e+003, 2.022765e-001
3.205112e+003, 2.026022e-001
3.207040e+003, 2.025851e-001
3.208969e+003, 2.030776e-001
3.210897e+003, 2.031753e-001
3.212825e+003, 2.033839e-001
3.214754e+003, 2.041452e-001
3.216682e+003, 2.051664e-001
3.218611e+003, 2.055129e-001
3.220539e+003, 2.049034e-001
3.222468e+003, 2.048217e-001
3.224396e+003, 2.055374e-001
3.226325e+003, 2.060106e-001
3.228253e+003, 2.061896e-001
3.230182e+003, 2.069027e-001
3.232110e+003, 2.077678e-001
3.234039e+003, 2.091179e-001
3.235967e+003, 2.113516e-001
3.237896e+003, 2.133902e-001
3.239824e+003, 2.155784e-001
3.241752e+003, 2.182578e-001
3.243681e+003, 2.210551e-001
3.245609e+003, 2.242011e-001
3.247538e+003, 2.277711e-001
3.249466e+003, 2.314652e-001
3.251395e+003, 2.357997e-001
3.253323e+003, 2.399549e-001
3.255252e+003, 2.438880e-001
3.257180e+003, 2.478130e-001
3.259109e+003, 2.522166e-001
3.261037e+003, 2.572919e-001
3.262966e+003, 2.617676e-001
3.264894e+003, 2.659094e-001
3.266823e+003, 2.704608e-001
3.268751e+003, 2.750904e-001
3.270679e+003, 2.793759e-001
3.272608e+003, 2.838668e-001
3.274536e+003, 2.889771e-001
3.276465e+003, 2.938270e-001
3.278393e+003, 2.987062e-001
3.280322e+003, 3.043011e-001
3.282250e+003, 3.102322e-001
3.284179e+003, 3.162596e-001
3.286107e+003, 3.231082e-001
3.288036e+003, 3.306785e-001
3.289964e+003, 3.375654e-001
3.291893e+003, 3.440997e-001
3.293821e+003, 3.516368e-001
3.295750e+003, 3.592152e-001
3.297678e+003, 3.659439e-001
3.299606e+003, 3.731853e-001
3.301535e+003, 3.809372e-001
3.303463e+003, 3.887637e-001
3.305392e+003, 3.963345e-001
3.307320e+003, 4.049630e-001
3.309249e+003, 4.134853e-001
3.311177e+003, 4.211006e-001
3.313106e+003, 4.293734e-001
3.315034e+003, 4.379556e-001
3.316963e+003, 4.467163e-001
3.318891e+003, 4.555622e-001
3.320820e+003, 4.644449e-001
3.322748e+003, 4.722720e-001
3.324677e+003, 4.789998e-001
3.326605e+003, 4.852642e-001
3.328533e+003, 4.889931e-001
3.330462e+003, 4.897766e-001
3.332390e+003, 4.875424e-001
3.334319e+003, 4.813301e-001
3.336247e+003, 4.711017e-001
3.338176e+003, 4.578645e-001
3.340104e+003, 4.420412e-001
3.342033e+003, 4.248593e-001
3.343961e+003, 4.080466e-001
3.345890e+003, 3.917155e-001
3.347818e+003, 3.764106e-001
3.349747e+003, 3.616281e-001
3.351675e+003, 3.470692e-001
3.353604e+003, 3.331493e-001
3.355532e+003, 3.187095e-001
3.357460e+003, 3.028131e-001
3.359389e+003, 2.855191e-001
3.361317e+003, 2.666580e-001
3.363246e+003, 2.475865e-001
3.365174e+003, 2.281232e-001
3.367103e+003, 2.078125e-001
3.369031e+003, 1.883588e-001
3.370960e+003, 1.714773e-001
3.372888e+003, 1.573079e-001
3.374817e+003, 1.451628e-001
3.376745e+003, 1.355861e-001
3.378674e+003, 1.285064e-001
3.380602e+003, 1.238025e-001
3.382531e+003, 1.206019e-001
3.384459e+003, 1.185796e-001
3.386387e+003, 1.179120e-001
3.388316e+003, 1.184946e-001
3.390244e+003, 1.193841e-001
3.392173e+003, 1.206782e-001
3.394101e+003, 1.222817e-001
3.396030e+003, 1.244044e-001
3.397958e+003, 1.272738e-001
3.399887e+003, 1.304910e-001
3.401815e+003, 1.338835e-001
3.403744e+003, 1.383124e-001
3.405672e+003, 1.434311e-001
3.407601e+003, 1.487929e-001
3.409529e+003, 1.541880e-001
3.411458e+003, 1.601823e-001
3.413386e+003, 1.669736e-001
3.415314e+003, 1.733887e-001
3.417243e+003, 1.803484e-001
3.419171e+003, 1.886712e-001
3.421100e+003, 1.976997e-001
3.423028e+003, 2.073316e-001
3.424957e+003, 2.174379e-001
3.426885e+003, 2.278119e-001
3.428814e+003, 2.386201e-001
3.430742e+003, 2.498779e-001
3.432671e+003, 2.603356e-001
3.434599e+003, 2.689302e-001
3.436528e+003, 2.749651e-001
3.438456e+003, 2.769648e-001
3.440385e+003, 2.750271e-001
3.442313e+003, 2.687514e-001
3.444241e+003, 2.572517e-001
3.446170e+003, 2.412889e-001
3.448098e+003, 2.226748e-001
3.450027e+003, 2.018846e-001
3.451955e+003, 1.798986e-001
3.453884e+003, 1.585292e-001
3.455812e+003, 1.399643e-001
3.457741e+003, 1.238065e-001
3.459669e+003, 1.098296e-001
3.461598e+003, 9.897827e-002
3.463526e+003, 9.070274e-002
3.465455e+003, 8.299893e-002
3.467383e+003, 7.640404e-002
3.469312e+003, 7.101136e-002
3.471240e+003, 6.566137e-002
3.473168e+003, 6.122261e-002
3.475097e+003, 5.801498e-002
3.477025e+003, 5.517763e-002
3.478954e+003, 5.229362e-002
3.480882e+003, 4.932703e-002
3.482811e+003, 4.686956e-002
3.484739e+003, 4.470119e-002
3.486668e+003, 4.220543e-002
3.488596e+003, 4.008905e-002
3.490525e+003, 3.807152e-002
3.492453e+003, 3.598906e-002
3.494382e+003, 3.385747e-002
3.496310e+003, 3.198895e-002
3.498239e+003, 3.068713e-002
3.500167e+003, 2.928663e-002
3.502095e+003, 2.773083e-002
3.504024e+003, 2.659359e-002
3.505952e+003, 2.599907e-002
3.507881e+003, 2.554489e-002
3.509809e+003, 2.484552e-002
3.511738e+003, 2.349802e-002
3.513666e+003, 2.326609e-002
3.515595e+003, 2.354985e-002
3.517523e+003, 2.314193e-002
3.519452e+003, 2.324922e-002
3.521380e+003, 2.271273e-002
3.523309e+003, 2.197082e-002
3.525237e+003, 2.178948e-002
3.527166e+003, 2.126768e-002
3.529094e+003, 2.113028e-002
3.531022e+003, 2.104919e-002
3.532951e+003, 2.042481e-002
3.534879e+003, 2.072525e-002
3.536808e+003, 2.168972e-002
3.538736e+003, 2.196878e-002
3.540665e+003, 2.191256e-002
3.542593e+003, 2.159306e-002
3.544522e+003, 2.137924e-002
3.546450e+003, 2.133726e-002
3.548379e+003, 2.173408e-002
3.550307e+003, 2.230543e-002
3.552236e+003, 2.261217e-002
3.554164e+003, 2.267822e-002
3.556093e+003, 2.338563e-002
3.558021e+003, 2.372379e-002
3.559949e+003, 2.435436e-002
3.561878e+003, 2.417513e-002
3.563806e+003, 2.377459e-002
3.565735e+003, 2.462044e-002
3.567663e+003, 2.511425e-002
3.569592e+003, 2.524563e-002
3.571520e+003, 2.550948e-002
3.573449e+003, 2.531985e-002
3.575377e+003, 2.625580e-002
3.577306e+003, 2.647540e-002
3.579234e+003, 2.615580e-002
3.581163e+003, 2.602014e-002
3.583091e+003, 2.614366e-002
3.585020e+003, 2.707570e-002
3.586948e+003, 2.746848e-002
3.588876e+003, 2.696085e-002
3.590805e+003, 2.702025e-002
3.592733e+003, 2.746771e-002
3.594662e+003, 2.767242e-002
3.596590e+003, 2.666346e-002
3.598519e+003, 2.601519e-002
3.600447e+003, 2.632828e-002
3.602376e+003, 2.634384e-002
3.604304e+003, 2.578941e-002
3.606233e+003, 2.611445e-002
3.608161e+003, 2.703870e-002
3.610090e+003, 2.705218e-002
3.612018e+003, 2.696910e-002
3.613947e+003, 2.712506e-002
3.615875e+003, 2.702093e-002
3.617803e+003, 2.769488e-002
3.619732e+003, 2.826736e-002
3.621660e+003, 2.826702e-002
3.623589e+003, 2.729235e-002
3.625517e+003, 2.669353e-002
3.627446e+003, 2.784589e-002
3.629374e+003, 2.850820e-002
3.631303e+003, 2.778855e-002
3.633231e+003, 2.797252e-002
3.635160e+003, 2.787924e-002
3.637088e+003, 2.794665e-002
3.639017e+003, 2.806481e-002
3.640945e+003, 2.827961e-002
3.642874e+003, 2.878447e-002
3.644802e+003, 2.895910e-002
3.646730e+003, 2.979546e-002
3.648659e+003, 3.038527e-002
3.650587e+003, 3.021466e-002
3.652516e+003, 2.929886e-002
3.654444e+003, 2.914560e-002
3.656373e+003, 3.033886e-002
3.658301e+003, 3.018214e-002
3.660230e+003, 2.926067e-002
3.662158e+003, 2.943195e-002
3.664087e+003, 3.013498e-002
3.666015e+003, 3.081697e-002
3.667944e+003, 3.120334e-002
3.669872e+003, 3.141060e-002
3.671801e+003, 3.130700e-002
3.673729e+003, 3.176333e-002
3.675657e+003, 3.259845e-002
3.677586e+003, 3.249641e-002
3.679514e+003, 3.214669e-002
3.681443e+003, 3.182604e-002
3.683371e+003, 3.164041e-002
3.685300e+003, 3.158088e-002
3.687228e+003, 3.288013e-002
3.689157e+003, 3.395050e-002
3.691085e+003, 3.348314e-002
3.693014e+003, 3.306175e-002
3.694942e+003, 3.276723e-002
3.696871e+003, 3.330962e-002
3.698799e+003, 3.403837e-002
3.700728e+003, 3.428045e-002
3.702656e+003, 3.427049e-002
3.704584e+003, 3.441248e-002
3.706513e+003, 3.417885e-002
3.708441e+003, 3.429994e-002
3.710370e+003, 3.512298e-002
3.712298e+003, 3.552345e-002
3.714227e+003, 3.515961e-002
3.716155e+003, 3.520631e-002
3.718084e+003, 3.614160e-002
3.720012e+003, 3.641057e-002
3.721941e+003, 3.672274e-002
3.723869e+003, 3.710179e-002
3.725798e+003, 3.656115e-002
3.727726e+003, 3.597314e-002
3.729655e+003, 3.634823e-002
3.731583e+003, 3.631379e-002
3.733511e+003, 3.678527e-002
3.735440e+003, 3.740287e-002
3.737368e+003, 3.716863e-002
3.739297e+003, 3.720771e-002
3.741225e+003, 3.700749e-002
3.743154e+003, 3.846174e-002
3.745082e+003, 3.921321e-002
3.747011e+003, 3.879201e-002
3.748939e+003, 3.957187e-002
3.750868e+003, 3.978949e-002
3.752796e+003, 3.907592e-002
3.754725e+003, 3.852815e-002
3.756653e+003, 3.883128e-002
3.758582e+003, 3.873006e-002
3.760510e+003, 3.893317e-002
3.762438e+003, 3.861394e-002
3.764367e+003, 3.855034e-002
3.766295e+003, 3.920395e-002
3.768224e+003, 3.998487e-002
3.770152e+003, 4.005102e-002
3.772081e+003, 4.003296e-002
3.774009e+003, 3.955504e-002
3.775938e+003, 3.949194e-002
3.777866e+003, 4.018929e-002
3.779795e+003, 4.059630e-002
3.781723e+003, 4.051567e-002
3.783652e+003, 4.018492e-002
3.785580e+003, 4.027058e-002
3.787509e+003, 4.023026e-002
3.789437e+003, 4.027339e-002
3.791365e+003, 4.085746e-002
3.793294e+003, 4.067107e-002
3.795222e+003, 4.072745e-002
3.797151e+003, 4.144249e-002
3.799079e+003, 4.186853e-002
3.801008e+003, 4.190050e-002
3.802936e+003, 4.098680e-002
3.804865e+003, 4.124230e-002
3.806793e+003, 4.157852e-002
3.808722e+003, 4.137377e-002
3.810650e+003, 4.143757e-002
3.812579e+003, 4.160842e-002
3.814507e+003, 4.293589e-002
3.816436e+003, 4.309295e-002
3.818364e+003, 4.165157e-002
3.820292e+003, 4.189744e-002
3.822221e+003, 4.227257e-002
3.824149e+003, 4.235862e-002
3.826078e+003, 4.255127e-002
3.828006e+003, 4.217497e-002
3.829935e+003, 4.213204e-002
3.831863e+003, 4.307770e-002
3.833792e+003, 4.391902e-002
3.835720e+003, 4.380646e-002
3.837649e+003, 4.379245e-002
3.839577e+003, 4.422971e-002
3.841506e+003, 4.452002e-002
3.843434e+003, 4.411212e-002
3.845363e+003, 4.372260e-002
3.847291e+003, 4.394488e-002
3.849219e+003, 4.434497e-002
3.851148e+003, 4.506654e-002
3.853076e+003, 4.604628e-002
3.855005e+003, 4.536521e-002
3.856933e+003, 4.347049e-002
3.858862e+003, 4.356729e-002
3.860790e+003, 4.419141e-002
3.862719e+003, 4.390103e-002
3.864647e+003, 4.435572e-002
3.866576e+003, 4.447586e-002
3.868504e+003, 4.440078e-002
3.870433e+003, 4.417393e-002
3.872361e+003, 4.392329e-002
3.874290e+003, 4.443884e-002
3.876218e+003, 4.472921e-002
3.878146e+003, 4.456740e-002
3.880075e+003, 4.439934e-002
3.882003e+003, 4.495290e-002
3.883932e+003, 4.566582e-002
3.885860e+003, 4.543783e-002
3.887789e+003, 4.486961e-002
3.889717e+003, 4.485150e-002
3.891646e+003, 4.468440e-002
3.893574e+003, 4.440626e-002
3.895503e+003, 4.534361e-002
3.897431e+003, 4.606723e-002
3.899360e+003, 4.559660e-002
3.901288e+003, 4.556631e-002
3.903217e+003, 4.563918e-002
3.905145e+003, 4.567582e-002
3.907073e+003, 4.565103e-002
3.909002e+003, 4.499087e-002
3.910930e+003, 4.466301e-002
3.912859e+003, 4.587913e-002
3.914787e+003, 4.667150e-002
3.916716e+003, 4.663487e-002
3.918644e+003, 4.664502e-002
3.920573e+003, 4.633943e-002
3.922501e+003, 4.594785e-002
3.924430e+003, 4.596189e-002
3.926358e+003, 4.582210e-002
3.928287e+003, 4.613236e-002
3.930215e+003, 4.647320e-002
3.932144e+003, 4.624968e-002
3.934072e+003, 4.584317e-002
3.936000e+003, 4.545268e-002
3.937929e+003, 4.580542e-002
3.939857e+003, 4.526920e-002
3.941786e+003, 4.491227e-002
3.943714e+003, 4.564684e-002
3.945643e+003, 4.626514e-002
3.947571e+003, 4.625859e-002
3.949500e+003, 4.611435e-002
3.951428e+003, 4.615664e-002
3.953357e+003, 4.625573e-002
3.955285e+003, 4.618325e-002
3.957214e+003, 4.629668e-002
3.959142e+003, 4.639916e-002
3.961071e+003, 4.588412e-002
3.962999e+003, 4.604658e-002
3.964927e+003, 4.613565e-002
3.966856e+003, 4.690741e-002
3.968784e+003, 4.652514e-002
3.970713e+003, 4.607824e-002
3.972641e+003, 4.654344e-002
3.974570e+003, 4.672542e-002
3.976498e+003, 4.755171e-002
3.978427e+003, 4.730529e-002
3.980355e+003, 4.639333e-002
3.982284e+003, 4.656992e-002
3.984212e+003, 4.744924e-002
3.986141e+003, 4.806553e-002
3.988069e+003, 4.825360e-002
3.989998e+003, 4.821752e-002
3.991926e+003, 4.778583e-002
3.993854e+003, 4.740128e-002
3.995783e+003, 4.745083e-002
3.997711e+003, 4.708566e-002
3.999640e+003, 4.765531e-002
##END=



