##NAMES=Azurite
##RRUFFID=R050638
##IDEAL CHEMISTRY=Cu^2+^_3_(CO_3_)_2_(OH)_2_
##LOCALITY=Zacatecas, Mexico
##OWNER=RRUFF
##SOURCE=University of Arizona Mineral Museum
##DESCRIPTION=Blue bladed crystals
##STATUS=The identification of this mineral has been confirmed by X-ray diffraction and chemical analysis
##URL=rruff.info/R050638
##MEASURED CHEMISTRY=Cu_3.00_(CO_3_)_2_(OH)_2_
3.991926e+002, 0.000000e+000
4.011211e+002, 2.034461e-001
4.030496e+002, 2.043683e-001
4.049780e+002, 1.970482e-001
4.069065e+002, 1.838848e-001
4.088350e+002, 1.644837e-001
4.107634e+002, 1.474147e-001
4.126919e+002, 1.387699e-001
4.146204e+002, 1.296310e-001
4.165488e+002, 1.260261e-001
4.184773e+002, 1.222319e-001
4.204058e+002, 1.185828e-001
4.223342e+002, 1.170963e-001
4.242627e+002, 1.174456e-001
4.261912e+002, 1.212917e-001
4.281196e+002, 1.296961e-001
4.300481e+002, 1.385702e-001
4.319766e+002, 1.466340e-001
4.339050e+002, 1.553383e-001
4.358335e+002, 1.696659e-001
4.377620e+002, 1.872657e-001
4.396904e+002, 2.078292e-001
4.416189e+002, 2.333928e-001
4.435474e+002, 2.533932e-001
4.454758e+002, 2.669497e-001
4.474043e+002, 2.734167e-001
4.493328e+002, 2.644286e-001
4.512612e+002, 2.497790e-001
4.531897e+002, 2.376144e-001
4.551182e+002, 2.297297e-001
4.570466e+002, 2.182410e-001
4.589751e+002, 2.047971e-001
4.609036e+002, 1.876296e-001
4.628320e+002, 1.696597e-001
4.647605e+002, 1.533983e-001
4.666890e+002, 1.383027e-001
4.686174e+002, 1.263882e-001
4.705459e+002, 1.175269e-001
4.724744e+002, 1.114323e-001
4.744028e+002, 1.085886e-001
4.763313e+002, 1.091391e-001
4.782598e+002, 1.133636e-001
4.801882e+002, 1.198427e-001
4.821167e+002, 1.274661e-001
4.840452e+002, 1.368294e-001
4.859736e+002, 1.457863e-001
4.879021e+002, 1.528549e-001
4.898306e+002, 1.564677e-001
4.917590e+002, 1.574659e-001
4.936875e+002, 1.561160e-001
4.956160e+002, 1.506163e-001
4.975444e+002, 1.430057e-001
4.994729e+002, 1.340484e-001
5.014014e+002, 1.236965e-001
5.033298e+002, 1.135405e-001
5.052583e+002, 1.035691e-001
5.071868e+002, 9.387836e-002
5.091152e+002, 8.536664e-002
5.110437e+002, 7.747940e-002
5.129722e+002, 7.064503e-002
5.149006e+002, 6.584270e-002
5.168291e+002, 6.258452e-002
5.187576e+002, 5.987478e-002
5.206860e+002, 5.771744e-002
5.226145e+002, 5.656257e-002
5.245430e+002, 5.573846e-002
5.264714e+002, 5.420830e-002
5.283999e+002, 5.280595e-002
5.303284e+002, 5.218275e-002
5.322568e+002, 5.066413e-002
5.341853e+002, 4.933616e-002
5.361138e+002, 4.867468e-002
5.380422e+002, 4.783721e-002
5.399707e+002, 4.687304e-002
5.418992e+002, 4.607283e-002
5.438276e+002, 4.525916e-002
5.457561e+002, 4.481141e-002
5.476846e+002, 4.452608e-002
5.496130e+002, 4.459869e-002
5.515415e+002, 4.377370e-002
5.534700e+002, 4.249082e-002
5.553984e+002, 4.215680e-002
5.573269e+002, 4.206715e-002
5.592554e+002, 4.198553e-002
5.611838e+002, 4.193247e-002
5.631123e+002, 4.182847e-002
5.650408e+002, 4.133895e-002
5.669692e+002, 4.076691e-002
5.688977e+002, 4.034394e-002
5.708262e+002, 3.999662e-002
5.727546e+002, 4.020602e-002
5.746831e+002, 4.024919e-002
5.766116e+002, 4.028634e-002
5.785400e+002, 4.016698e-002
5.804685e+002, 4.025900e-002
5.823970e+002, 4.004931e-002
5.843254e+002, 3.942432e-002
5.862539e+002, 3.929713e-002
5.881824e+002, 3.946537e-002
5.901108e+002, 3.932664e-002
5.920393e+002, 3.940102e-002
5.939678e+002, 3.948987e-002
5.958962e+002, 3.959658e-002
5.978247e+002, 3.954457e-002
5.997532e+002, 3.950458e-002
6.016816e+002, 3.930322e-002
6.036101e+002, 3.923370e-002
6.055386e+002, 3.942695e-002
6.074670e+002, 3.948966e-002
6.093955e+002, 3.990861e-002
6.113240e+002, 3.997258e-002
6.132524e+002, 3.965196e-002
6.151809e+002, 4.002140e-002
6.171094e+002, 4.022995e-002
6.190378e+002, 4.005656e-002
6.209663e+002, 4.030912e-002
6.228948e+002, 4.051412e-002
6.248232e+002, 4.027592e-002
6.267517e+002, 4.034302e-002
6.286802e+002, 4.061586e-002
6.306086e+002, 4.061490e-002
6.325371e+002, 4.071784e-002
6.344656e+002, 4.107277e-002
6.363940e+002, 4.131642e-002
6.383225e+002, 4.140078e-002
6.402510e+002, 4.148384e-002
6.421794e+002, 4.173351e-002
6.441079e+002, 4.222868e-002
6.460364e+002, 4.269234e-002
6.479648e+002, 4.295918e-002
6.498933e+002, 4.289511e-002
6.518218e+002, 4.271338e-002
6.537502e+002, 4.287731e-002
6.556787e+002, 4.338977e-002
6.576072e+002, 4.368012e-002
6.595356e+002, 4.381310e-002
6.614641e+002, 4.411769e-002
6.633926e+002, 4.426809e-002
6.653210e+002, 4.446435e-002
6.672495e+002, 4.493707e-002
6.691780e+002, 4.559142e-002
6.711064e+002, 4.576434e-002
6.730349e+002, 4.592031e-002
6.749634e+002, 4.618638e-002
6.768918e+002, 4.663636e-002
6.788203e+002, 4.686952e-002
6.807488e+002, 4.690281e-002
6.826772e+002, 4.729640e-002
6.846057e+002, 4.787768e-002
6.865342e+002, 4.807578e-002
6.884626e+002, 4.842784e-002
6.903911e+002, 4.895188e-002
6.923196e+002, 4.974534e-002
6.942480e+002, 5.036273e-002
6.961765e+002, 5.079160e-002
6.981050e+002, 5.112827e-002
7.000334e+002, 5.161572e-002
7.019619e+002, 5.217195e-002
7.038904e+002, 5.276622e-002
7.058188e+002, 5.337857e-002
7.077473e+002, 5.411960e-002
7.096758e+002, 5.500338e-002
7.116042e+002, 5.581289e-002
7.135327e+002, 5.665287e-002
7.154612e+002, 5.759245e-002
7.173896e+002, 5.863538e-002
7.193181e+002, 6.007321e-002
7.212466e+002, 6.180246e-002
7.231750e+002, 6.384813e-002
7.251035e+002, 6.600270e-002
7.270320e+002, 6.908093e-002
7.289604e+002, 7.282490e-002
7.308889e+002, 7.681380e-002
7.328174e+002, 8.172660e-002
7.347458e+002, 8.785728e-002
7.366743e+002, 9.455515e-002
7.386028e+002, 1.004188e-001
7.405313e+002, 1.040185e-001
7.424597e+002, 1.050352e-001
7.443882e+002, 1.053443e-001
7.463167e+002, 1.054224e-001
7.482451e+002, 1.037049e-001
7.501736e+002, 1.002254e-001
7.521021e+002, 9.640157e-002
7.540305e+002, 9.345286e-002
7.559590e+002, 9.239142e-002
7.578875e+002, 9.376988e-002
7.598159e+002, 9.757393e-002
7.617444e+002, 1.041727e-001
7.636729e+002, 1.132455e-001
7.656013e+002, 1.249506e-001
7.675298e+002, 1.367911e-001
7.694583e+002, 1.418095e-001
7.713867e+002, 1.342876e-001
7.733152e+002, 1.194364e-001
7.752437e+002, 1.069635e-001
7.771721e+002, 1.002737e-001
7.791006e+002, 9.800974e-002
7.810291e+002, 9.868976e-002
7.829575e+002, 1.013301e-001
7.848860e+002, 1.047614e-001
7.868145e+002, 1.087214e-001
7.887429e+002, 1.137354e-001
7.906714e+002, 1.196920e-001
7.925999e+002, 1.265302e-001
7.945283e+002, 1.343457e-001
7.964568e+002, 1.440977e-001
7.983853e+002, 1.549046e-001
8.003137e+002, 1.634378e-001
8.022422e+002, 1.719558e-001
8.041707e+002, 1.847691e-001
8.060991e+002, 2.013793e-001
8.080276e+002, 2.210518e-001
8.099561e+002, 2.420135e-001
8.118845e+002, 2.622724e-001
8.138130e+002, 2.756761e-001
8.157415e+002, 2.763588e-001
8.176699e+002, 2.669201e-001
8.195984e+002, 2.567091e-001
8.215269e+002, 2.509223e-001
8.234553e+002, 2.493827e-001
8.253838e+002, 2.538553e-001
8.273123e+002, 2.664491e-001
8.292407e+002, 2.759108e-001
8.311692e+002, 2.785980e-001
8.330977e+002, 2.778588e-001
8.350261e+002, 2.734022e-001
8.369546e+002, 2.635131e-001
8.388831e+002, 2.470801e-001
8.408115e+002, 2.244197e-001
8.427400e+002, 1.996045e-001
8.446685e+002, 1.771301e-001
8.465969e+002, 1.584593e-001
8.485254e+002, 1.424931e-001
8.504539e+002, 1.284837e-001
8.523823e+002, 1.158562e-001
8.543108e+002, 1.043303e-001
8.562393e+002, 9.375370e-002
8.581677e+002, 8.502376e-002
8.600962e+002, 7.811782e-002
8.620247e+002, 7.259720e-002
8.639531e+002, 6.822285e-002
8.658816e+002, 6.465536e-002
8.678101e+002, 6.200957e-002
8.697385e+002, 5.998600e-002
8.716670e+002, 5.865413e-002
8.735955e+002, 5.788888e-002
8.755239e+002, 5.731037e-002
8.774524e+002, 5.673415e-002
8.793809e+002, 5.624823e-002
8.813093e+002, 5.595016e-002
8.832378e+002, 5.570375e-002
8.851663e+002, 5.558110e-002
8.870947e+002, 5.575918e-002
8.890232e+002, 5.604969e-002
8.909517e+002, 5.615668e-002
8.928801e+002, 5.631928e-002
8.948085e+002, 5.685495e-002
8.967370e+002, 5.760192e-002
8.986655e+002, 5.847010e-002
9.005939e+002, 5.941799e-002
9.025224e+002, 6.037810e-002
9.044509e+002, 6.153034e-002
9.063793e+002, 6.293534e-002
9.083078e+002, 6.461328e-002
9.102363e+002, 6.667528e-002
9.121647e+002, 6.902616e-002
9.140932e+002, 7.165581e-002
9.160217e+002, 7.451032e-002
9.179501e+002, 7.753610e-002
9.198786e+002, 8.090173e-002
9.218071e+002, 8.500421e-002
9.237355e+002, 9.004560e-002
9.256640e+002, 9.607885e-002
9.275925e+002, 1.028614e-001
9.295209e+002, 1.102788e-001
9.314494e+002, 1.185407e-001
9.333779e+002, 1.278539e-001
9.353063e+002, 1.377832e-001
9.372348e+002, 1.483613e-001
9.391633e+002, 1.597625e-001
9.410917e+002, 1.722153e-001
9.430202e+002, 1.864114e-001
9.449487e+002, 2.015780e-001
9.468771e+002, 2.155260e-001
9.488056e+002, 2.249355e-001
9.507341e+002, 2.285540e-001
9.526625e+002, 2.255431e-001
9.545910e+002, 2.167676e-001
9.565195e+002, 2.042552e-001
9.584479e+002, 1.903001e-001
9.603764e+002, 1.760755e-001
9.623049e+002, 1.621605e-001
9.642333e+002, 1.492703e-001
9.661618e+002, 1.375726e-001
9.680903e+002, 1.266396e-001
9.700187e+002, 1.160565e-001
9.719472e+002, 1.057863e-001
9.738757e+002, 9.610505e-002
9.758041e+002, 8.710710e-002
9.777326e+002, 7.928007e-002
9.796611e+002, 7.258365e-002
9.815895e+002, 6.690812e-002
9.835180e+002, 6.231484e-002
9.854465e+002, 5.854130e-002
9.873749e+002, 5.564195e-002
9.893034e+002, 5.323556e-002
9.912319e+002, 5.131118e-002
9.931603e+002, 5.005082e-002
9.950888e+002, 4.895787e-002
9.970173e+002, 4.805493e-002
9.989457e+002, 4.720919e-002
1.000874e+003, 4.662314e-002
1.002803e+003, 4.621407e-002
1.004731e+003, 4.581923e-002
1.006660e+003, 4.540773e-002
1.008588e+003, 4.526355e-002
1.010517e+003, 4.518754e-002
1.012445e+003, 4.497223e-002
1.014373e+003, 4.490027e-002
1.016302e+003, 4.523286e-002
1.018230e+003, 4.535506e-002
1.020159e+003, 4.543434e-002
1.022087e+003, 4.574425e-002
1.024016e+003, 4.626967e-002
1.025944e+003, 4.657957e-002
1.027873e+003, 4.693125e-002
1.029801e+003, 4.724062e-002
1.031730e+003, 4.761599e-002
1.033658e+003, 4.830943e-002
1.035587e+003, 4.905989e-002
1.037515e+003, 4.964602e-002
1.039444e+003, 5.021169e-002
1.041372e+003, 5.067378e-002
1.043301e+003, 5.123192e-002
1.045229e+003, 5.198095e-002
1.047157e+003, 5.288459e-002
1.049086e+003, 5.357173e-002
1.051014e+003, 5.375880e-002
1.052943e+003, 5.389421e-002
1.054871e+003, 5.418717e-002
1.056800e+003, 5.424889e-002
1.058728e+003, 5.410092e-002
1.060657e+003, 5.379299e-002
1.062585e+003, 5.369778e-002
1.064514e+003, 5.376185e-002
1.066442e+003, 5.367205e-002
1.068371e+003, 5.369236e-002
1.070299e+003, 5.387525e-002
1.072228e+003, 5.396600e-002
1.074156e+003, 5.435152e-002
1.076084e+003, 5.494137e-002
1.078013e+003, 5.551242e-002
1.079941e+003, 5.635523e-002
1.081870e+003, 5.745904e-002
1.083798e+003, 5.891312e-002
1.085727e+003, 6.111497e-002
1.087655e+003, 6.452486e-002
1.089584e+003, 6.877812e-002
1.091512e+003, 7.151006e-002
1.093441e+003, 6.947725e-002
1.095369e+003, 6.294671e-002
1.097298e+003, 5.632685e-002
1.099226e+003, 5.178137e-002
1.101155e+003, 4.919136e-002
1.103083e+003, 4.785251e-002
1.105011e+003, 4.678677e-002
1.106940e+003, 4.589316e-002
1.108868e+003, 4.539018e-002
1.110797e+003, 4.481525e-002
1.112725e+003, 4.429280e-002
1.114654e+003, 4.390211e-002
1.116582e+003, 4.354378e-002
1.118511e+003, 4.322428e-002
1.120439e+003, 4.293334e-002
1.122368e+003, 4.259119e-002
1.124296e+003, 4.232679e-002
1.126225e+003, 4.200649e-002
1.128153e+003, 4.186045e-002
1.130082e+003, 4.185994e-002
1.132010e+003, 4.171704e-002
1.133938e+003, 4.143462e-002
1.135867e+003, 4.134491e-002
1.137795e+003, 4.140316e-002
1.139724e+003, 4.147625e-002
1.141652e+003, 4.151832e-002
1.143581e+003, 4.148838e-002
1.145509e+003, 4.119811e-002
1.147438e+003, 4.115373e-002
1.149366e+003, 4.150111e-002
1.151295e+003, 4.163106e-002
1.153223e+003, 4.163169e-002
1.155152e+003, 4.164598e-002
1.157080e+003, 4.158132e-002
1.159009e+003, 4.175266e-002
1.160937e+003, 4.197760e-002
1.162865e+003, 4.229105e-002
1.164794e+003, 4.242359e-002
1.166722e+003, 4.252804e-002
1.168651e+003, 4.257171e-002
1.170579e+003, 4.249343e-002
1.172508e+003, 4.252664e-002
1.174436e+003, 4.280745e-002
1.176365e+003, 4.305807e-002
1.178293e+003, 4.337010e-002
1.180222e+003, 4.369878e-002
1.182150e+003, 4.379359e-002
1.184079e+003, 4.385303e-002
1.186007e+003, 4.420762e-002
1.187936e+003, 4.465825e-002
1.189864e+003, 4.514838e-002
1.191792e+003, 4.550714e-002
1.193721e+003, 4.573487e-002
1.195649e+003, 4.593871e-002
1.197578e+003, 4.634868e-002
1.199506e+003, 4.655243e-002
1.201435e+003, 4.678485e-002
1.203363e+003, 4.728270e-002
1.205292e+003, 4.776726e-002
1.207220e+003, 4.814355e-002
1.209149e+003, 4.860452e-002
1.211077e+003, 4.907984e-002
1.213006e+003, 4.964923e-002
1.214934e+003, 5.030209e-002
1.216863e+003, 5.098017e-002
1.218791e+003, 5.153685e-002
1.220719e+003, 5.218093e-002
1.222648e+003, 5.271534e-002
1.224576e+003, 5.333890e-002
1.226505e+003, 5.420479e-002
1.228433e+003, 5.504572e-002
1.230362e+003, 5.583738e-002
1.232290e+003, 5.671524e-002
1.234219e+003, 5.755322e-002
1.236147e+003, 5.828609e-002
1.238076e+003, 5.902582e-002
1.240004e+003, 5.979144e-002
1.241933e+003, 6.046424e-002
1.243861e+003, 6.128801e-002
1.245790e+003, 6.218162e-002
1.247718e+003, 6.304052e-002
1.249646e+003, 6.424274e-002
1.251575e+003, 6.566018e-002
1.253503e+003, 6.692742e-002
1.255432e+003, 6.824648e-002
1.257360e+003, 6.955583e-002
1.259289e+003, 7.092460e-002
1.261217e+003, 7.226776e-002
1.263146e+003, 7.371996e-002
1.265074e+003, 7.497329e-002
1.267003e+003, 7.607750e-002
1.268931e+003, 7.744193e-002
1.270860e+003, 7.920162e-002
1.272788e+003, 8.069737e-002
1.274717e+003, 8.235908e-002
1.276645e+003, 8.419824e-002
1.278573e+003, 8.606334e-002
1.280502e+003, 8.768323e-002
1.282430e+003, 8.936465e-002
1.284359e+003, 9.132367e-002
1.286287e+003, 9.347973e-002
1.288216e+003, 9.585800e-002
1.290144e+003, 9.833622e-002
1.292073e+003, 1.009038e-001
1.294001e+003, 1.038454e-001
1.295930e+003, 1.067841e-001
1.297858e+003, 1.095698e-001
1.299787e+003, 1.124307e-001
1.301715e+003, 1.154150e-001
1.303644e+003, 1.185303e-001
1.305572e+003, 1.221181e-001
1.307500e+003, 1.257277e-001
1.309429e+003, 1.293494e-001
1.311357e+003, 1.330583e-001
1.313286e+003, 1.369086e-001
1.315214e+003, 1.408010e-001
1.317143e+003, 1.449481e-001
1.319071e+003, 1.492990e-001
1.321000e+003, 1.538836e-001
1.322928e+003, 1.588921e-001
1.324857e+003, 1.642472e-001
1.326785e+003, 1.694036e-001
1.328714e+003, 1.744750e-001
1.330642e+003, 1.801603e-001
1.332571e+003, 1.861518e-001
1.334499e+003, 1.920603e-001
1.336427e+003, 1.983091e-001
1.338356e+003, 2.051660e-001
1.340284e+003, 2.124648e-001
1.342213e+003, 2.202511e-001
1.344141e+003, 2.283662e-001
1.346070e+003, 2.367261e-001
1.347998e+003, 2.456812e-001
1.349927e+003, 2.553895e-001
1.351855e+003, 2.655981e-001
1.353784e+003, 2.757908e-001
1.355712e+003, 2.863906e-001
1.357641e+003, 2.978066e-001
1.359569e+003, 3.095420e-001
1.361498e+003, 3.218580e-001
1.363426e+003, 3.352619e-001
1.365354e+003, 3.490284e-001
1.367283e+003, 3.629709e-001
1.369211e+003, 3.775910e-001
1.371140e+003, 3.929838e-001
1.373068e+003, 4.085006e-001
1.374997e+003, 4.236867e-001
1.376925e+003, 4.386056e-001
1.378854e+003, 4.532546e-001
1.380782e+003, 4.668231e-001
1.382711e+003, 4.778247e-001
1.384639e+003, 4.849515e-001
1.386568e+003, 4.923152e-001
1.388496e+003, 5.051323e-001
1.390424e+003, 5.231059e-001
1.392353e+003, 5.425200e-001
1.394281e+003, 5.609778e-001
1.396210e+003, 5.787526e-001
1.398138e+003, 5.954925e-001
1.400067e+003, 6.088855e-001
1.401995e+003, 6.182311e-001
1.403924e+003, 6.233158e-001
1.405852e+003, 6.249221e-001
1.407781e+003, 6.225521e-001
1.409709e+003, 6.157467e-001
1.411638e+003, 6.035674e-001
1.413566e+003, 5.847058e-001
1.415495e+003, 5.599157e-001
1.417423e+003, 5.316628e-001
1.419351e+003, 5.013087e-001
1.421280e+003, 4.712647e-001
1.423208e+003, 4.425269e-001
1.425137e+003, 4.156007e-001
1.427065e+003, 3.910217e-001
1.428994e+003, 3.695019e-001
1.430922e+003, 3.507743e-001
1.432851e+003, 3.339274e-001
1.434779e+003, 3.187061e-001
1.436708e+003, 3.049021e-001
1.438636e+003, 2.919287e-001
1.440565e+003, 2.800607e-001
1.442493e+003, 2.692313e-001
1.444422e+003, 2.594417e-001
1.446350e+003, 2.511351e-001
1.448278e+003, 2.443006e-001
1.450207e+003, 2.391150e-001
1.452135e+003, 2.362197e-001
1.454064e+003, 2.368015e-001
1.455992e+003, 2.431674e-001
1.457921e+003, 2.582370e-001
1.459849e+003, 2.809968e-001
1.461778e+003, 3.015843e-001
1.463706e+003, 3.044445e-001
1.465635e+003, 2.848361e-001
1.467563e+003, 2.567148e-001
1.469492e+003, 2.328759e-001
1.471420e+003, 2.177231e-001
1.473349e+003, 2.116017e-001
1.475277e+003, 2.128789e-001
1.477205e+003, 2.183464e-001
1.479134e+003, 2.254112e-001
1.481062e+003, 2.327925e-001
1.482991e+003, 2.393121e-001
1.484919e+003, 2.445729e-001
1.486848e+003, 2.487527e-001
1.488776e+003, 2.515391e-001
1.490705e+003, 2.533010e-001
1.492633e+003, 2.540472e-001
1.494562e+003, 2.537273e-001
1.496490e+003, 2.524090e-001
1.498419e+003, 2.502462e-001
1.500347e+003, 2.474227e-001
1.502276e+003, 2.441218e-001
1.504204e+003, 2.396540e-001
1.506132e+003, 2.345621e-001
1.508061e+003, 2.293400e-001
1.509989e+003, 2.241692e-001
1.511918e+003, 2.185222e-001
1.513846e+003, 2.122972e-001
1.515775e+003, 2.055017e-001
1.517703e+003, 1.981876e-001
1.519632e+003, 1.904802e-001
1.521560e+003, 1.826155e-001
1.523489e+003, 1.745897e-001
1.525417e+003, 1.664037e-001
1.527346e+003, 1.580722e-001
1.529274e+003, 1.499249e-001
1.531203e+003, 1.418084e-001
1.533131e+003, 1.340331e-001
1.535059e+003, 1.265222e-001
1.536988e+003, 1.191567e-001
1.538916e+003, 1.116459e-001
1.540845e+003, 1.048033e-001
1.542773e+003, 9.838123e-002
1.544702e+003, 9.195013e-002
1.546630e+003, 8.562396e-002
1.548559e+003, 7.952445e-002
1.550487e+003, 7.357703e-002
1.552416e+003, 6.786216e-002
1.554344e+003, 6.239201e-002
1.556273e+003, 5.741234e-002
1.558201e+003, 5.251165e-002
1.560130e+003, 4.795257e-002
1.562058e+003, 4.396022e-002
1.563986e+003, 4.010434e-002
1.565915e+003, 3.653581e-002
1.567843e+003, 3.326181e-002
1.569772e+003, 3.029114e-002
1.571700e+003, 2.790112e-002
1.573629e+003, 2.591431e-002
1.575557e+003, 2.439415e-002
1.577486e+003, 2.357069e-002
1.579414e+003, 2.298251e-002
1.581343e+003, 2.212530e-002
1.583271e+003, 2.149367e-002
1.585200e+003, 2.123242e-002
1.587128e+003, 2.067689e-002
1.589057e+003, 2.008569e-002
1.590985e+003, 1.959714e-002
1.592913e+003, 1.898743e-002
1.594842e+003, 1.838184e-002
1.596770e+003, 1.765721e-002
1.598699e+003, 1.729258e-002
1.600627e+003, 1.677026e-002
1.602556e+003, 1.606555e-002
1.604484e+003, 1.578572e-002
1.606413e+003, 1.564153e-002
1.608341e+003, 1.524637e-002
1.610270e+003, 1.503677e-002
1.612198e+003, 1.484209e-002
1.614127e+003, 1.462951e-002
1.616055e+003, 1.442950e-002
1.617984e+003, 1.438084e-002
1.619912e+003, 1.442114e-002
1.621840e+003, 1.423956e-002
1.623769e+003, 1.392567e-002
1.625697e+003, 1.398076e-002
1.627626e+003, 1.396133e-002
1.629554e+003, 1.390627e-002
1.631483e+003, 1.396141e-002
1.633411e+003, 1.372238e-002
1.635340e+003, 1.344568e-002
1.637268e+003, 1.359661e-002
1.639197e+003, 1.377219e-002
1.641125e+003, 1.361887e-002
1.643054e+003, 1.333332e-002
1.644982e+003, 1.299254e-002
1.646911e+003, 1.275850e-002
1.648839e+003, 1.287555e-002
1.650767e+003, 1.277456e-002
1.652696e+003, 1.252691e-002
1.654624e+003, 1.220884e-002
1.656553e+003, 1.219062e-002
1.658481e+003, 1.214643e-002
1.660410e+003, 1.196525e-002
1.662338e+003, 1.197975e-002
1.664267e+003, 1.191010e-002
1.666195e+003, 1.145471e-002
1.668124e+003, 1.122521e-002
1.670052e+003, 1.121636e-002
1.671981e+003, 1.122072e-002
1.673909e+003, 1.096106e-002
1.675838e+003, 1.063181e-002
1.677766e+003, 1.063178e-002
1.679694e+003, 1.075741e-002
1.681623e+003, 1.048119e-002
1.683551e+003, 1.010234e-002
1.685480e+003, 1.015263e-002
1.687408e+003, 1.023849e-002
1.689337e+003, 1.032686e-002
1.691265e+003, 1.043138e-002
1.693194e+003, 1.038819e-002
1.695122e+003, 1.011307e-002
1.697051e+003, 1.000805e-002
1.698979e+003, 1.034504e-002
1.700908e+003, 1.015008e-002
1.702836e+003, 1.013115e-002
1.704765e+003, 1.025606e-002
1.706693e+003, 1.030477e-002
1.708621e+003, 1.019667e-002
1.710550e+003, 1.006584e-002
1.712478e+003, 9.663298e-003
1.714407e+003, 9.568662e-003
1.716335e+003, 9.451060e-003
1.718264e+003, 9.504655e-003
1.720192e+003, 9.779604e-003
1.722121e+003, 9.771467e-003
1.724049e+003, 9.582194e-003
1.725978e+003, 9.772163e-003
1.727906e+003, 9.738416e-003
1.729835e+003, 9.680500e-003
1.731763e+003, 9.592023e-003
1.733692e+003, 9.333648e-003
1.735620e+003, 9.109984e-003
1.737548e+003, 9.319546e-003
1.739477e+003, 9.385124e-003
1.741405e+003, 8.858556e-003
1.743334e+003, 8.593069e-003
1.745262e+003, 8.853964e-003
1.747191e+003, 8.967640e-003
1.749119e+003, 9.138088e-003
1.751048e+003, 9.339862e-003
1.752976e+003, 9.414252e-003
1.754905e+003, 9.441176e-003
1.756833e+003, 9.747759e-003
1.758762e+003, 9.728331e-003
1.760690e+003, 9.629792e-003
1.762619e+003, 9.830040e-003
1.764547e+003, 1.003841e-002
1.766475e+003, 1.019046e-002
1.768404e+003, 1.034831e-002
1.770332e+003, 1.062414e-002
1.772261e+003, 1.083370e-002
1.774189e+003, 1.098291e-002
1.776118e+003, 1.107726e-002
1.778046e+003, 1.112727e-002
1.779975e+003, 1.114290e-002
1.781903e+003, 1.150652e-002
1.783832e+003, 1.158911e-002
1.785760e+003, 1.131650e-002
1.787689e+003, 1.145661e-002
1.789617e+003, 1.151810e-002
1.791546e+003, 1.161547e-002
1.793474e+003, 1.166903e-002
1.795402e+003, 1.168610e-002
1.797331e+003, 1.180454e-002
1.799259e+003, 1.189563e-002
1.801188e+003, 1.195568e-002
1.803116e+003, 1.212247e-002
1.805045e+003, 1.244221e-002
1.806973e+003, 1.302173e-002
1.808902e+003, 1.265012e-002
1.810830e+003, 1.207609e-002
1.812759e+003, 1.244725e-002
1.814687e+003, 1.268891e-002
1.816616e+003, 1.284368e-002
1.818544e+003, 1.388257e-002
1.820473e+003, 1.454206e-002
1.822401e+003, 1.436355e-002
1.824329e+003, 1.443846e-002
1.826258e+003, 1.494834e-002
1.828186e+003, 1.525967e-002
1.830115e+003, 1.525056e-002
1.832043e+003, 1.563102e-002
1.833972e+003, 1.583370e-002
1.835900e+003, 1.553697e-002
1.837829e+003, 1.513569e-002
1.839757e+003, 1.513090e-002
1.841686e+003, 1.519067e-002
1.843614e+003, 1.488823e-002
1.845543e+003, 1.487906e-002
1.847471e+003, 1.505297e-002
1.849400e+003, 1.529183e-002
1.851328e+003, 1.541858e-002
1.853256e+003, 1.564634e-002
1.855185e+003, 1.620333e-002
1.857113e+003, 1.626089e-002
1.859042e+003, 1.611341e-002
1.860970e+003, 1.590092e-002
1.862899e+003, 1.570662e-002
1.864827e+003, 1.532541e-002
1.866756e+003, 1.458590e-002
1.868684e+003, 1.438189e-002
1.870613e+003, 1.472825e-002
1.872541e+003, 1.528845e-002
1.874470e+003, 1.595843e-002
1.876398e+003, 1.626358e-002
1.878327e+003, 1.563525e-002
1.880255e+003, 1.563545e-002
1.882183e+003, 1.540317e-002
1.884112e+003, 1.489222e-002
1.886040e+003, 1.472510e-002
1.887969e+003, 1.503412e-002
1.889897e+003, 1.462780e-002
1.891826e+003, 1.389256e-002
1.893754e+003, 1.343180e-002
1.895683e+003, 1.342807e-002
1.897611e+003, 1.334869e-002
1.899540e+003, 1.326386e-002
1.901468e+003, 1.333278e-002
1.903397e+003, 1.292221e-002
1.905325e+003, 1.221257e-002
1.907254e+003, 1.278597e-002
1.909182e+003, 1.287486e-002
1.911110e+003, 1.203005e-002
1.913039e+003, 1.177997e-002
1.914967e+003, 1.259379e-002
1.916896e+003, 1.288154e-002
1.918824e+003, 1.167044e-002
1.920753e+003, 1.062113e-002
1.922681e+003, 1.135002e-002
1.924610e+003, 1.172710e-002
1.926538e+003, 1.130350e-002
1.928467e+003, 1.122581e-002
1.930395e+003, 1.044337e-002
1.932324e+003, 9.917306e-003
1.934252e+003, 1.051584e-002
1.936181e+003, 1.078901e-002
1.938109e+003, 1.128116e-002
1.940037e+003, 1.186820e-002
1.941966e+003, 1.083875e-002
1.943894e+003, 1.036038e-002
1.945823e+003, 1.049748e-002
1.947751e+003, 1.060832e-002
1.949680e+003, 1.133287e-002
1.951608e+003, 1.131232e-002
1.953537e+003, 1.200608e-002
1.955465e+003, 1.111335e-002
1.957394e+003, 9.314383e-003
1.959322e+003, 9.036266e-003
1.961251e+003, 1.011721e-002
1.963179e+003, 1.164447e-002
1.965108e+003, 1.216615e-002
1.967036e+003, 1.129651e-002
1.968964e+003, 1.088703e-002
1.970893e+003, 1.162141e-002
1.972821e+003, 1.253809e-002
1.974750e+003, 1.089688e-002
1.976678e+003, 1.084004e-002
1.978607e+003, 1.316136e-002
1.980535e+003, 1.418900e-002
1.982464e+003, 1.305252e-002
1.984392e+003, 1.249076e-002
1.986321e+003, 1.173534e-002
1.988249e+003, 1.132903e-002
1.990178e+003, 1.143574e-002
1.992106e+003, 1.240721e-002
1.994035e+003, 1.297191e-002
1.995963e+003, 1.442838e-002
1.997891e+003, 1.453904e-002
1.999820e+003, 1.360887e-002
2.001748e+003, 1.174302e-002
2.003677e+003, 1.015536e-002
2.005605e+003, 1.113900e-002
2.007534e+003, 1.143690e-002
2.009462e+003, 1.202185e-002
2.011391e+003, 1.437535e-002
2.013319e+003, 1.420051e-002
2.015248e+003, 1.204397e-002
2.017176e+003, 1.142178e-002
2.019105e+003, 1.277178e-002
2.021033e+003, 1.224182e-002
2.022962e+003, 1.235103e-002
2.024890e+003, 1.331196e-002
2.026818e+003, 1.326646e-002
2.028747e+003, 1.119635e-002
2.030675e+003, 1.178004e-002
2.032604e+003, 1.394855e-002
2.034532e+003, 1.363241e-002
2.036461e+003, 1.361988e-002
2.038389e+003, 1.423303e-002
2.040318e+003, 1.279368e-002
2.042246e+003, 1.288506e-002
2.044175e+003, 1.338089e-002
2.046103e+003, 1.414604e-002
2.048032e+003, 1.649209e-002
2.049960e+003, 1.754941e-002
2.051889e+003, 1.576094e-002
2.053817e+003, 1.478254e-002
2.055746e+003, 1.498099e-002
2.057674e+003, 1.550981e-002
2.059603e+003, 1.530378e-002
2.061531e+003, 1.518425e-002
2.063459e+003, 1.460374e-002
2.065388e+003, 1.387219e-002
2.067316e+003, 1.398350e-002
2.069245e+003, 1.514310e-002
2.071173e+003, 1.596987e-002
2.073102e+003, 1.590738e-002
2.075030e+003, 1.645054e-002
2.076959e+003, 1.717739e-002
2.078887e+003, 1.629542e-002
2.080816e+003, 1.638124e-002
2.082744e+003, 1.727084e-002
2.084673e+003, 1.696741e-002
2.086601e+003, 1.651724e-002
2.088530e+003, 1.648208e-002
2.090458e+003, 1.613218e-002
2.092386e+003, 1.525486e-002
2.094315e+003, 1.478080e-002
2.096243e+003, 1.511276e-002
2.098172e+003, 1.486921e-002
2.100100e+003, 1.527845e-002
2.102029e+003, 1.552277e-002
2.103957e+003, 1.576450e-002
2.105886e+003, 1.575411e-002
2.107814e+003, 1.571629e-002
2.109743e+003, 1.640543e-002
2.111671e+003, 1.720452e-002
2.113600e+003, 1.782323e-002
2.115528e+003, 1.770784e-002
2.117457e+003, 1.577001e-002
2.119385e+003, 1.568861e-002
2.121313e+003, 1.596942e-002
2.123242e+003, 1.508169e-002
2.125170e+003, 1.433806e-002
2.127099e+003, 1.436119e-002
2.129027e+003, 1.408494e-002
2.130956e+003, 1.388441e-002
2.132884e+003, 1.374728e-002
2.134813e+003, 1.475986e-002
2.136741e+003, 1.539781e-002
2.138670e+003, 1.561739e-002
2.140598e+003, 1.446839e-002
2.142527e+003, 1.381234e-002
2.144455e+003, 1.343789e-002
2.146384e+003, 1.303331e-002
2.148312e+003, 1.246454e-002
2.150240e+003, 1.201668e-002
2.152169e+003, 1.196842e-002
2.154097e+003, 1.155702e-002
2.156026e+003, 1.118065e-002
2.157954e+003, 1.342688e-002
2.159883e+003, 1.632768e-002
2.161811e+003, 1.731684e-002
2.163740e+003, 1.730048e-002
2.165668e+003, 1.661325e-002
2.167597e+003, 1.734029e-002
2.169525e+003, 1.682834e-002
2.171454e+003, 1.551935e-002
2.173382e+003, 1.619472e-002
2.175311e+003, 1.456646e-002
2.177239e+003, 1.346436e-002
2.179167e+003, 1.443055e-002
2.181096e+003, 1.591189e-002
2.183024e+003, 1.622931e-002
2.184953e+003, 1.491957e-002
2.186881e+003, 1.537280e-002
2.188810e+003, 1.594624e-002
2.190738e+003, 1.603807e-002
2.192667e+003, 1.804111e-002
2.194595e+003, 1.932898e-002
2.196524e+003, 2.020454e-002
2.198452e+003, 1.987108e-002
2.200381e+003, 1.884101e-002
2.202309e+003, 1.905902e-002
2.204238e+003, 2.022103e-002
2.206166e+003, 2.015231e-002
2.208094e+003, 1.998297e-002
2.210023e+003, 1.866844e-002
2.211951e+003, 1.835214e-002
2.213880e+003, 1.817053e-002
2.215808e+003, 1.891586e-002
2.217737e+003, 1.915780e-002
2.219665e+003, 1.994234e-002
2.221594e+003, 2.022409e-002
2.223522e+003, 2.134510e-002
2.225451e+003, 2.098930e-002
2.227379e+003, 2.007334e-002
2.229308e+003, 1.915927e-002
2.231236e+003, 1.933604e-002
2.233165e+003, 2.033298e-002
2.235093e+003, 2.072969e-002
2.237021e+003, 1.945133e-002
2.238950e+003, 1.994741e-002
2.240878e+003, 2.040091e-002
2.242807e+003, 2.005499e-002
2.244735e+003, 2.114097e-002
2.246664e+003, 2.165526e-002
2.248592e+003, 2.124352e-002
2.250521e+003, 2.089087e-002
2.252449e+003, 2.065713e-002
2.254378e+003, 2.120222e-002
2.256306e+003, 2.183504e-002
2.258235e+003, 2.268824e-002
2.260163e+003, 2.274093e-002
2.262092e+003, 2.180331e-002
2.264020e+003, 2.101661e-002
2.265948e+003, 2.047682e-002
2.267877e+003, 2.085987e-002
2.269805e+003, 2.124862e-002
2.271734e+003, 2.107237e-002
2.273662e+003, 2.145735e-002
2.275591e+003, 2.130505e-002
2.277519e+003, 2.128166e-002
2.279448e+003, 2.173121e-002
2.281376e+003, 2.187270e-002
2.283305e+003, 2.337132e-002
2.285233e+003, 2.450834e-002
2.287162e+003, 2.345316e-002
2.289090e+003, 2.289368e-002
2.291019e+003, 2.284004e-002
2.292947e+003, 2.342979e-002
2.294875e+003, 2.350559e-002
2.296804e+003, 2.332142e-002
2.298732e+003, 2.325802e-002
2.300661e+003, 2.322258e-002
2.302589e+003, 2.266828e-002
2.304518e+003, 2.217458e-002
2.306446e+003, 2.238714e-002
2.308375e+003, 2.299621e-002
2.310303e+003, 2.349264e-002
2.312232e+003, 2.407850e-002
2.314160e+003, 2.459489e-002
2.316089e+003, 2.408978e-002
2.318017e+003, 2.358601e-002
2.319946e+003, 2.416090e-002
2.321874e+003, 2.482824e-002
2.323802e+003, 2.506780e-002
2.325731e+003, 2.391220e-002
2.327659e+003, 2.333570e-002
2.329588e+003, 2.336170e-002
2.331516e+003, 2.303223e-002
2.333445e+003, 2.262899e-002
2.335373e+003, 2.283419e-002
2.337302e+003, 2.284790e-002
2.339230e+003, 2.274162e-002
2.341159e+003, 2.281372e-002
2.343087e+003, 2.301599e-002
2.345016e+003, 2.311523e-002
2.346944e+003, 2.295293e-002
2.348873e+003, 2.239854e-002
2.350801e+003, 2.219427e-002
2.352729e+003, 2.242064e-002
2.354658e+003, 2.304339e-002
2.356586e+003, 2.316661e-002
2.358515e+003, 2.353693e-002
2.360443e+003, 2.339224e-002
2.362372e+003, 2.309901e-002
2.364300e+003, 2.300355e-002
2.366229e+003, 2.262355e-002
2.368157e+003, 2.225384e-002
2.370086e+003, 2.277448e-002
2.372014e+003, 2.276984e-002
2.373942e+003, 2.257270e-002
2.375871e+003, 2.283766e-002
2.377799e+003, 2.344508e-002
2.379728e+003, 2.299484e-002
2.381656e+003, 2.278648e-002
2.383585e+003, 2.316683e-002
2.385513e+003, 2.256306e-002
2.387442e+003, 2.230420e-002
2.389370e+003, 2.288295e-002
2.391299e+003, 2.290455e-002
2.393227e+003, 2.277400e-002
2.395156e+003, 2.281867e-002
2.397084e+003, 2.297059e-002
2.399012e+003, 2.298279e-002
2.400941e+003, 2.351008e-002
2.402869e+003, 2.377037e-002
2.404798e+003, 2.356876e-002
2.406726e+003, 2.316551e-002
2.408655e+003, 2.294168e-002
2.410583e+003, 2.332858e-002
2.412512e+003, 2.385232e-002
2.414440e+003, 2.361787e-002
2.416369e+003, 2.357572e-002
2.418297e+003, 2.369590e-002
2.420226e+003, 2.355178e-002
2.422154e+003, 2.353917e-002
2.424083e+003, 2.417137e-002
2.426011e+003, 2.364097e-002
2.427939e+003, 2.394957e-002
2.429868e+003, 2.437177e-002
2.431796e+003, 2.424443e-002
2.433725e+003, 2.414129e-002
2.435653e+003, 2.458804e-002
2.437582e+003, 2.451655e-002
2.439510e+003, 2.416005e-002
2.441439e+003, 2.491726e-002
2.443367e+003, 2.553046e-002
2.445296e+003, 2.555157e-002
2.447224e+003, 2.513989e-002
2.449153e+003, 2.494790e-002
2.451081e+003, 2.553715e-002
2.453010e+003, 2.557717e-002
2.454938e+003, 2.508631e-002
2.456866e+003, 2.526398e-002
2.458795e+003, 2.586220e-002
2.460723e+003, 2.631283e-002
2.462652e+003, 2.629465e-002
2.464580e+003, 2.647810e-002
2.466509e+003, 2.632122e-002
2.468437e+003, 2.553145e-002
2.470366e+003, 2.511156e-002
2.472294e+003, 2.596542e-002
2.474223e+003, 2.681263e-002
2.476151e+003, 2.683775e-002
2.478080e+003, 2.762868e-002
2.480008e+003, 2.835659e-002
2.481937e+003, 2.726948e-002
2.483865e+003, 2.684188e-002
2.485793e+003, 2.781419e-002
2.487722e+003, 2.880063e-002
2.489650e+003, 2.981627e-002
2.491579e+003, 3.074241e-002
2.493507e+003, 3.151676e-002
2.495436e+003, 3.201051e-002
2.497364e+003, 3.248784e-002
2.499293e+003, 3.256493e-002
2.501221e+003, 3.231325e-002
2.503150e+003, 3.126313e-002
2.505078e+003, 3.114635e-002
2.507007e+003, 3.194549e-002
2.508935e+003, 3.108447e-002
2.510864e+003, 3.000171e-002
2.512792e+003, 2.989177e-002
2.514720e+003, 2.999677e-002
2.516649e+003, 3.006928e-002
2.518577e+003, 2.991275e-002
2.520506e+003, 2.969500e-002
2.522434e+003, 3.010825e-002
2.524363e+003, 2.995650e-002
2.526291e+003, 2.928529e-002
2.528220e+003, 2.870677e-002
2.530148e+003, 2.895261e-002
2.532077e+003, 2.927663e-002
2.534005e+003, 2.876953e-002
2.535934e+003, 2.865668e-002
2.537862e+003, 2.883795e-002
2.539791e+003, 2.854134e-002
2.541719e+003, 2.872615e-002
2.543647e+003, 2.997654e-002
2.545576e+003, 3.011753e-002
2.547504e+003, 2.991577e-002
2.549433e+003, 3.015900e-002
2.551361e+003, 3.117852e-002
2.553290e+003, 3.096584e-002
2.555218e+003, 3.064509e-002
2.557147e+003, 3.119635e-002
2.559075e+003, 3.109043e-002
2.561004e+003, 3.093180e-002
2.562932e+003, 3.057013e-002
2.564861e+003, 2.949915e-002
2.566789e+003, 2.940869e-002
2.568718e+003, 2.970782e-002
2.570646e+003, 2.872416e-002
2.572574e+003, 2.766611e-002
2.574503e+003, 2.729140e-002
2.576431e+003, 2.803843e-002
2.578360e+003, 2.823478e-002
2.580288e+003, 2.728725e-002
2.582217e+003, 2.704695e-002
2.584145e+003, 2.800083e-002
2.586074e+003, 2.888927e-002
2.588002e+003, 2.773816e-002
2.589931e+003, 2.709137e-002
2.591859e+003, 2.760553e-002
2.593788e+003, 2.856191e-002
2.595716e+003, 2.858087e-002
2.597645e+003, 2.939340e-002
2.599573e+003, 2.932272e-002
2.601501e+003, 2.867563e-002
2.603430e+003, 2.850604e-002
2.605358e+003, 2.871834e-002
2.607287e+003, 2.863702e-002
2.609215e+003, 2.826474e-002
2.611144e+003, 2.762219e-002
2.613072e+003, 2.736438e-002
2.615001e+003, 2.737442e-002
2.616929e+003, 2.777533e-002
2.618858e+003, 2.795118e-002
2.620786e+003, 2.784133e-002
2.622715e+003, 2.679996e-002
2.624643e+003, 2.703710e-002
2.626572e+003, 2.800810e-002
2.628500e+003, 2.779266e-002
2.630428e+003, 2.747037e-002
2.632357e+003, 2.772404e-002
2.634285e+003, 2.823441e-002
2.636214e+003, 2.823763e-002
2.638142e+003, 2.811651e-002
2.640071e+003, 2.858234e-002
2.641999e+003, 2.880610e-002
2.643928e+003, 2.869823e-002
2.645856e+003, 2.844786e-002
2.647785e+003, 2.817795e-002
2.649713e+003, 2.782476e-002
2.651642e+003, 2.837027e-002
2.653570e+003, 2.910263e-002
2.655499e+003, 2.893289e-002
2.657427e+003, 2.870297e-002
2.659355e+003, 2.884595e-002
2.661284e+003, 2.872849e-002
2.663212e+003, 2.891165e-002
2.665141e+003, 2.854222e-002
2.667069e+003, 2.806057e-002
2.668998e+003, 2.744029e-002
2.670926e+003, 2.718347e-002
2.672855e+003, 2.731339e-002
2.674783e+003, 2.767969e-002
2.676712e+003, 2.751984e-002
2.678640e+003, 2.762553e-002
2.680569e+003, 2.729985e-002
2.682497e+003, 2.685811e-002
2.684426e+003, 2.758459e-002
2.686354e+003, 2.763755e-002
2.688282e+003, 2.753220e-002
2.690211e+003, 2.840037e-002
2.692139e+003, 2.851748e-002
2.694068e+003, 2.759850e-002
2.695996e+003, 2.718466e-002
2.697925e+003, 2.743622e-002
2.699853e+003, 2.754593e-002
2.701782e+003, 2.766533e-002
2.703710e+003, 2.766744e-002
2.705639e+003, 2.747830e-002
2.707567e+003, 2.751253e-002
2.709496e+003, 2.755738e-002
2.711424e+003, 2.754960e-002
2.713353e+003, 2.744421e-002
2.715281e+003, 2.768123e-002
2.717209e+003, 2.805833e-002
2.719138e+003, 2.849845e-002
2.721066e+003, 2.856492e-002
2.722995e+003, 2.878756e-002
2.724923e+003, 2.890778e-002
2.726852e+003, 2.819502e-002
2.728780e+003, 2.748748e-002
2.730709e+003, 2.788361e-002
2.732637e+003, 2.859254e-002
2.734566e+003, 2.873303e-002
2.736494e+003, 2.889354e-002
2.738423e+003, 2.881148e-002
2.740351e+003, 2.828141e-002
2.742280e+003, 2.810173e-002
2.744208e+003, 2.863410e-002
2.746136e+003, 2.854726e-002
2.748065e+003, 2.798991e-002
2.749993e+003, 2.817461e-002
2.751922e+003, 2.826639e-002
2.753850e+003, 2.840780e-002
2.755779e+003, 2.881172e-002
2.757707e+003, 2.868154e-002
2.759636e+003, 2.893084e-002
2.761564e+003, 2.917942e-002
2.763493e+003, 2.933018e-002
2.765421e+003, 2.920652e-002
2.767350e+003, 2.939929e-002
2.769278e+003, 2.891437e-002
2.771207e+003, 2.847097e-002
2.773135e+003, 2.851103e-002
2.775063e+003, 2.857485e-002
2.776992e+003, 2.881711e-002
2.778920e+003, 2.931921e-002
2.780849e+003, 2.955934e-002
2.782777e+003, 2.967344e-002
2.784706e+003, 2.969576e-002
2.786634e+003, 2.949903e-002
2.788563e+003, 2.908527e-002
2.790491e+003, 2.874357e-002
2.792420e+003, 2.930743e-002
2.794348e+003, 2.914948e-002
2.796277e+003, 2.882283e-002
2.798205e+003, 2.944753e-002
2.800134e+003, 3.000367e-002
2.802062e+003, 2.996487e-002
2.803990e+003, 3.024405e-002
2.805919e+003, 3.044686e-002
2.807847e+003, 3.007009e-002
2.809776e+003, 3.034034e-002
2.811704e+003, 3.096162e-002
2.813633e+003, 3.099762e-002
2.815561e+003, 3.064467e-002
2.817490e+003, 3.094317e-002
2.819418e+003, 3.165193e-002
2.821347e+003, 3.207991e-002
2.823275e+003, 3.244900e-002
2.825204e+003, 3.284828e-002
2.827132e+003, 3.311060e-002
2.829061e+003, 3.339858e-002
2.830989e+003, 3.335631e-002
2.832917e+003, 3.323441e-002
2.834846e+003, 3.244807e-002
2.836774e+003, 3.254315e-002
2.838703e+003, 3.339191e-002
2.840631e+003, 3.391426e-002
2.842560e+003, 3.434408e-002
2.844488e+003, 3.449914e-002
2.846417e+003, 3.410608e-002
2.848345e+003, 3.403933e-002
2.850274e+003, 3.399521e-002
2.852202e+003, 3.385027e-002
2.854131e+003, 3.376921e-002
2.856059e+003, 3.439383e-002
2.857988e+003, 3.475822e-002
2.859916e+003, 3.497637e-002
2.861844e+003, 3.486209e-002
2.863773e+003, 3.463151e-002
2.865701e+003, 3.488161e-002
2.867630e+003, 3.570163e-002
2.869558e+003, 3.619426e-002
2.871487e+003, 3.633091e-002
2.873415e+003, 3.650878e-002
2.875344e+003, 3.687816e-002
2.877272e+003, 3.768729e-002
2.879201e+003, 3.838097e-002
2.881129e+003, 3.802045e-002
2.883058e+003, 3.818414e-002
2.884986e+003, 3.845859e-002
2.886915e+003, 3.807552e-002
2.888843e+003, 3.780994e-002
2.890771e+003, 3.886807e-002
2.892700e+003, 3.915152e-002
2.894628e+003, 3.811413e-002
2.896557e+003, 3.828360e-002
2.898485e+003, 3.861763e-002
2.900414e+003, 3.892131e-002
2.902342e+003, 3.978774e-002
2.904271e+003, 3.984482e-002
2.906199e+003, 3.966378e-002
2.908128e+003, 4.001417e-002
2.910056e+003, 3.985932e-002
2.911985e+003, 3.941222e-002
2.913913e+003, 3.926397e-002
2.915842e+003, 3.900623e-002
2.917770e+003, 3.943097e-002
2.919698e+003, 3.867884e-002
2.921627e+003, 3.826956e-002
2.923555e+003, 3.868867e-002
2.925484e+003, 3.882584e-002
2.927412e+003, 3.796787e-002
2.929341e+003, 3.808702e-002
2.931269e+003, 3.896898e-002
2.933198e+003, 3.965072e-002
2.935126e+003, 3.954059e-002
2.937055e+003, 3.939462e-002
2.938983e+003, 3.877339e-002
2.940912e+003, 3.900306e-002
2.942840e+003, 3.981479e-002
2.944769e+003, 4.047330e-002
2.946697e+003, 4.057888e-002
2.948625e+003, 4.061241e-002
2.950554e+003, 4.022582e-002
2.952482e+003, 3.971241e-002
2.954411e+003, 4.025116e-002
2.956339e+003, 4.047745e-002
2.958268e+003, 4.093780e-002
2.960196e+003, 4.142994e-002
2.962125e+003, 4.069308e-002
2.964053e+003, 3.945115e-002
2.965982e+003, 3.964233e-002
2.967910e+003, 4.039238e-002
2.969839e+003, 4.070285e-002
2.971767e+003, 4.152029e-002
2.973696e+003, 4.131002e-002
2.975624e+003, 4.048491e-002
2.977552e+003, 4.065995e-002
2.979481e+003, 4.114906e-002
2.981409e+003, 4.051975e-002
2.983338e+003, 3.985997e-002
2.985266e+003, 4.016028e-002
2.987195e+003, 4.007684e-002
2.989123e+003, 3.987714e-002
2.991052e+003, 4.064576e-002
2.992980e+003, 4.128193e-002
2.994909e+003, 4.111220e-002
2.996837e+003, 4.086174e-002
2.998766e+003, 4.072702e-002
3.000694e+003, 4.096642e-002
3.002623e+003, 4.091798e-002
3.004551e+003, 4.014439e-002
3.006479e+003, 3.927318e-002
3.008408e+003, 3.964733e-002
3.010336e+003, 4.111205e-002
3.012265e+003, 4.156450e-002
3.014193e+003, 4.149285e-002
3.016122e+003, 4.138592e-002
3.018050e+003, 4.185864e-002
3.019979e+003, 4.271995e-002
3.021907e+003, 4.255009e-002
3.023836e+003, 4.178526e-002
3.025764e+003, 4.221554e-002
3.027693e+003, 4.246573e-002
3.029621e+003, 4.234524e-002
3.031550e+003, 4.221337e-002
3.033478e+003, 4.238671e-002
3.035406e+003, 4.234380e-002
3.037335e+003, 4.267613e-002
3.039263e+003, 4.348990e-002
3.041192e+003, 4.355491e-002
3.043120e+003, 4.318380e-002
3.045049e+003, 4.351332e-002
3.046977e+003, 4.404765e-002
3.048906e+003, 4.445174e-002
3.050834e+003, 4.409018e-002
3.052763e+003, 4.457789e-002
3.054691e+003, 4.551532e-002
3.056620e+003, 4.587253e-002
3.058548e+003, 4.528462e-002
3.060477e+003, 4.564513e-002
3.062405e+003, 4.591956e-002
3.064333e+003, 4.652516e-002
3.066262e+003, 4.637910e-002
3.068190e+003, 4.606469e-002
3.070119e+003, 4.635943e-002
3.072047e+003, 4.729717e-002
3.073976e+003, 4.780757e-002
3.075904e+003, 4.757748e-002
3.077833e+003, 4.720809e-002
3.079761e+003, 4.747803e-002
3.081690e+003, 4.811513e-002
3.083618e+003, 4.834418e-002
3.085547e+003, 4.874534e-002
3.087475e+003, 4.812486e-002
3.089404e+003, 4.854373e-002
3.091332e+003, 5.013320e-002
3.093260e+003, 5.068510e-002
3.095189e+003, 5.081370e-002
3.097117e+003, 5.068368e-002
3.099046e+003, 5.023044e-002
3.100974e+003, 4.899774e-002
3.102903e+003, 4.863042e-002
3.104831e+003, 4.964391e-002
3.106760e+003, 5.082227e-002
3.108688e+003, 5.113866e-002
3.110617e+003, 5.158817e-002
3.112545e+003, 5.168499e-002
3.114474e+003, 5.266313e-002
3.116402e+003, 5.369714e-002
3.118331e+003, 5.297142e-002
3.120259e+003, 5.226658e-002
3.122188e+003, 5.246279e-002
3.124116e+003, 5.309140e-002
3.126044e+003, 5.360277e-002
3.127973e+003, 5.355776e-002
3.129901e+003, 5.372824e-002
3.131830e+003, 5.451431e-002
3.133758e+003, 5.447170e-002
3.135687e+003, 5.428817e-002
3.137615e+003, 5.393003e-002
3.139544e+003, 5.443443e-002
3.141472e+003, 5.542221e-002
3.143401e+003, 5.597813e-002
3.145329e+003, 5.621204e-002
3.147258e+003, 5.494834e-002
3.149186e+003, 5.482453e-002
3.151115e+003, 5.521584e-002
3.153043e+003, 5.699567e-002
3.154971e+003, 5.817327e-002
3.156900e+003, 5.776367e-002
3.158828e+003, 5.655561e-002
3.160757e+003, 5.583747e-002
3.162685e+003, 5.677979e-002
3.164614e+003, 5.743269e-002
3.166542e+003, 5.643021e-002
3.168471e+003, 5.665158e-002
3.170399e+003, 5.685732e-002
3.172328e+003, 5.654712e-002
3.174256e+003, 5.696225e-002
3.176185e+003, 5.819583e-002
3.178113e+003, 5.873776e-002
3.180042e+003, 5.903558e-002
3.181970e+003, 5.921249e-002
3.183898e+003, 5.857448e-002
3.185827e+003, 5.849262e-002
3.187755e+003, 5.959155e-002
3.189684e+003, 6.049948e-002
3.191612e+003, 5.996415e-002
3.193541e+003, 5.843190e-002
3.195469e+003, 5.987985e-002
3.197398e+003, 6.110468e-002
3.199326e+003, 5.997809e-002
3.201255e+003, 5.968006e-002
3.203183e+003, 5.977255e-002
3.205112e+003, 5.981588e-002
3.207040e+003, 6.084086e-002
3.208969e+003, 6.077221e-002
3.210897e+003, 6.092731e-002
3.212825e+003, 6.077867e-002
3.214754e+003, 6.087077e-002
3.216682e+003, 6.104295e-002
3.218611e+003, 6.113084e-002
3.220539e+003, 6.131202e-002
3.222468e+003, 6.208499e-002
3.224396e+003, 6.244930e-002
3.226325e+003, 6.393298e-002
3.228253e+003, 6.440973e-002
3.230182e+003, 6.368881e-002
3.232110e+003, 6.341721e-002
3.234039e+003, 6.338042e-002
3.235967e+003, 6.462916e-002
3.237896e+003, 6.611472e-002
3.239824e+003, 6.561740e-002
3.241752e+003, 6.509681e-002
3.243681e+003, 6.446960e-002
3.245609e+003, 6.432923e-002
3.247538e+003, 6.391208e-002
3.249466e+003, 6.523039e-002
3.251395e+003, 6.559839e-002
3.253323e+003, 6.509834e-002
3.255252e+003, 6.515913e-002
3.257180e+003, 6.685343e-002
3.259109e+003, 6.751113e-002
3.261037e+003, 6.818123e-002
3.262966e+003, 6.794332e-002
3.264894e+003, 6.741834e-002
3.266823e+003, 6.754049e-002
3.268751e+003, 6.824792e-002
3.270679e+003, 6.868769e-002
3.272608e+003, 6.833366e-002
3.274536e+003, 6.859935e-002
3.276465e+003, 6.945603e-002
3.278393e+003, 7.077442e-002
3.280322e+003, 7.154319e-002
3.282250e+003, 7.155183e-002
3.284179e+003, 7.141519e-002
3.286107e+003, 7.107389e-002
3.288036e+003, 7.135123e-002
3.289964e+003, 7.214621e-002
3.291893e+003, 7.304750e-002
3.293821e+003, 7.376006e-002
3.295750e+003, 7.416231e-002
3.297678e+003, 7.420819e-002
3.299606e+003, 7.470974e-002
3.301535e+003, 7.493816e-002
3.303463e+003, 7.596686e-002
3.305392e+003, 7.662076e-002
3.307320e+003, 7.703520e-002
3.309249e+003, 7.738417e-002
3.311177e+003, 7.760837e-002
3.313106e+003, 7.898426e-002
3.315034e+003, 7.948051e-002
3.316963e+003, 7.934705e-002
3.318891e+003, 7.970371e-002
3.320820e+003, 8.078592e-002
3.322748e+003, 8.138926e-002
3.324677e+003, 8.189370e-002
3.326605e+003, 8.320256e-002
3.328533e+003, 8.429016e-002
3.330462e+003, 8.495013e-002
3.332390e+003, 8.441455e-002
3.334319e+003, 8.502353e-002
3.336247e+003, 8.577873e-002
3.338176e+003, 8.777599e-002
3.340104e+003, 8.916827e-002
3.342033e+003, 8.974133e-002
3.343961e+003, 9.104035e-002
3.345890e+003, 9.163330e-002
3.347818e+003, 9.137162e-002
3.349747e+003, 9.185716e-002
3.351675e+003, 9.242599e-002
3.353604e+003, 9.409500e-002
3.355532e+003, 9.521756e-002
3.357460e+003, 9.622370e-002
3.359389e+003, 9.786192e-002
3.361317e+003, 9.930374e-002
3.363246e+003, 9.968514e-002
3.365174e+003, 9.950488e-002
3.367103e+003, 9.976738e-002
3.369031e+003, 1.009335e-001
3.370960e+003, 1.001932e-001
3.372888e+003, 9.961869e-002
3.374817e+003, 1.011008e-001
3.376745e+003, 1.026719e-001
3.378674e+003, 1.042494e-001
3.380602e+003, 1.048101e-001
3.382531e+003, 1.061079e-001
3.384459e+003, 1.077889e-001
3.386387e+003, 1.089193e-001
3.388316e+003, 1.112612e-001
3.390244e+003, 1.136901e-001
3.392173e+003, 1.165871e-001
3.394101e+003, 1.197156e-001
3.396030e+003, 1.229006e-001
3.397958e+003, 1.262870e-001
3.399887e+003, 1.315811e-001
3.401815e+003, 1.385321e-001
3.403744e+003, 1.445330e-001
3.405672e+003, 1.496405e-001
3.407601e+003, 1.577557e-001
3.409529e+003, 1.662858e-001
3.411458e+003, 1.755653e-001
3.413386e+003, 1.881087e-001
3.415314e+003, 2.013792e-001
3.417243e+003, 2.150771e-001
3.419171e+003, 2.326261e-001
3.421100e+003, 2.498584e-001
3.423028e+003, 2.657726e-001
3.424957e+003, 2.768708e-001
3.426885e+003, 2.772055e-001
3.428814e+003, 2.648647e-001
3.430742e+003, 2.396444e-001
3.432671e+003, 2.063570e-001
3.434599e+003, 1.742935e-001
3.436528e+003, 1.472306e-001
3.438456e+003, 1.264545e-001
3.440385e+003, 1.118717e-001
3.442313e+003, 1.011430e-001
3.444241e+003, 9.319685e-002
3.446170e+003, 8.631509e-002
3.448098e+003, 8.131050e-002
3.450027e+003, 7.735834e-002
3.451955e+003, 7.434203e-002
3.453884e+003, 7.262950e-002
3.455812e+003, 7.077505e-002
3.457741e+003, 6.862656e-002
3.459669e+003, 6.717463e-002
3.461598e+003, 6.573853e-002
3.463526e+003, 6.519294e-002
3.465455e+003, 6.447113e-002
3.467383e+003, 6.370004e-002
3.469312e+003, 6.284221e-002
3.471240e+003, 6.252705e-002
3.473168e+003, 6.212518e-002
3.475097e+003, 6.040824e-002
3.477025e+003, 6.042081e-002
3.478954e+003, 5.972595e-002
3.480882e+003, 5.713625e-002
3.482811e+003, 5.589207e-002
3.484739e+003, 5.614331e-002
3.486668e+003, 5.615892e-002
3.488596e+003, 5.608537e-002
3.490525e+003, 5.521782e-002
3.492453e+003, 5.490009e-002
3.494382e+003, 5.416810e-002
3.496310e+003, 5.327010e-002
3.498239e+003, 5.184744e-002
3.500167e+003, 5.099024e-002
3.502095e+003, 4.894317e-002
3.504024e+003, 4.797347e-002
3.505952e+003, 4.784964e-002
3.507881e+003, 4.850885e-002
3.509809e+003, 4.842166e-002
3.511738e+003, 4.860834e-002
3.513666e+003, 4.777317e-002
3.515595e+003, 4.528077e-002
3.517523e+003, 4.474488e-002
3.519452e+003, 4.625975e-002
3.521380e+003, 4.636567e-002
3.523309e+003, 4.338320e-002
3.525237e+003, 4.225034e-002
3.527166e+003, 4.312110e-002
3.529094e+003, 4.279345e-002
3.531022e+003, 4.214063e-002
3.532951e+003, 4.167612e-002
3.534879e+003, 4.208733e-002
3.536808e+003, 4.288891e-002
3.538736e+003, 4.381793e-002
3.540665e+003, 4.388064e-002
3.542593e+003, 4.292386e-002
3.544522e+003, 4.314740e-002
3.546450e+003, 4.305498e-002
3.548379e+003, 4.269349e-002
3.550307e+003, 4.333973e-002
3.552236e+003, 4.243957e-002
3.554164e+003, 4.018671e-002
3.556093e+003, 3.982393e-002
3.558021e+003, 3.978277e-002
3.559949e+003, 3.981192e-002
3.561878e+003, 4.043016e-002
3.563806e+003, 4.100783e-002
3.565735e+003, 4.086188e-002
3.567663e+003, 3.986242e-002
3.569592e+003, 4.039439e-002
3.571520e+003, 4.160602e-002
3.573449e+003, 4.156864e-002
3.575377e+003, 3.971770e-002
3.577306e+003, 3.855597e-002
3.579234e+003, 3.827703e-002
3.581163e+003, 3.923303e-002
3.583091e+003, 3.924695e-002
3.585020e+003, 3.787528e-002
3.586948e+003, 3.723938e-002
3.588876e+003, 3.727126e-002
3.590805e+003, 3.600538e-002
3.592733e+003, 3.638883e-002
3.594662e+003, 3.949340e-002
3.596590e+003, 4.076171e-002
3.598519e+003, 3.905243e-002
3.600447e+003, 3.789772e-002
3.602376e+003, 3.787224e-002
3.604304e+003, 3.815968e-002
3.606233e+003, 3.864175e-002
3.608161e+003, 3.956251e-002
3.610090e+003, 3.841653e-002
3.612018e+003, 3.679873e-002
3.613947e+003, 3.607647e-002
3.615875e+003, 3.574727e-002
3.617803e+003, 3.649106e-002
3.619732e+003, 3.755444e-002
3.621660e+003, 3.750895e-002
3.623589e+003, 3.600956e-002
3.625517e+003, 3.457462e-002
3.627446e+003, 3.463789e-002
3.629374e+003, 3.725613e-002
3.631303e+003, 3.663945e-002
3.633231e+003, 3.404168e-002
3.635160e+003, 3.524924e-002
3.637088e+003, 3.572440e-002
3.639017e+003, 3.578538e-002
3.640945e+003, 3.550204e-002
3.642874e+003, 3.663359e-002
3.644802e+003, 3.740908e-002
3.646730e+003, 3.766188e-002
3.648659e+003, 3.708477e-002
3.650587e+003, 3.679060e-002
3.652516e+003, 3.495719e-002
3.654444e+003, 3.527725e-002
3.656373e+003, 3.583824e-002
3.658301e+003, 3.594180e-002
3.660230e+003, 3.680836e-002
3.662158e+003, 3.570380e-002
3.664087e+003, 3.454776e-002
3.666015e+003, 3.534948e-002
3.667944e+003, 3.468708e-002
3.669872e+003, 3.534402e-002
3.671801e+003, 3.629142e-002
3.673729e+003, 3.559825e-002
3.675657e+003, 3.710612e-002
3.677586e+003, 3.768392e-002
3.679514e+003, 3.942037e-002
3.681443e+003, 4.033387e-002
3.683371e+003, 3.807855e-002
3.685300e+003, 3.659536e-002
3.687228e+003, 3.531313e-002
3.689157e+003, 3.529040e-002
3.691085e+003, 3.608852e-002
3.693014e+003, 3.717014e-002
3.694942e+003, 3.693712e-002
3.696871e+003, 3.665791e-002
3.698799e+003, 3.593694e-002
3.700728e+003, 3.764548e-002
3.702656e+003, 3.770225e-002
3.704584e+003, 3.597024e-002
3.706513e+003, 3.666645e-002
3.708441e+003, 3.803357e-002
3.710370e+003, 3.815421e-002
3.712298e+003, 3.951036e-002
3.714227e+003, 3.991584e-002
3.716155e+003, 3.922721e-002
3.718084e+003, 3.826216e-002
3.720012e+003, 3.837564e-002
3.721941e+003, 3.931690e-002
3.723869e+003, 3.903652e-002
3.725798e+003, 3.863411e-002
3.727726e+003, 3.820685e-002
3.729655e+003, 3.608150e-002
3.731583e+003, 3.602158e-002
3.733511e+003, 3.674434e-002
3.735440e+003, 3.611339e-002
3.737368e+003, 3.590184e-002
3.739297e+003, 3.744277e-002
3.741225e+003, 3.855224e-002
3.743154e+003, 3.765419e-002
3.745082e+003, 3.703286e-002
3.747011e+003, 3.585825e-002
3.748939e+003, 3.702006e-002
3.750868e+003, 3.572917e-002
3.752796e+003, 3.717800e-002
3.754725e+003, 3.931439e-002
3.756653e+003, 3.804298e-002
3.758582e+003, 3.826233e-002
3.760510e+003, 4.009945e-002
3.762438e+003, 3.962784e-002
3.764367e+003, 3.794251e-002
3.766295e+003, 3.877301e-002
3.768224e+003, 3.836280e-002
3.770152e+003, 3.643674e-002
3.772081e+003, 3.540031e-002
3.774009e+003, 3.758846e-002
3.775938e+003, 3.814290e-002
3.777866e+003, 3.866000e-002
3.779795e+003, 3.948915e-002
3.781723e+003, 3.878304e-002
3.783652e+003, 3.929560e-002
3.785580e+003, 4.021777e-002
3.787509e+003, 3.716929e-002
3.789437e+003, 3.527937e-002
3.791365e+003, 3.717556e-002
3.793294e+003, 3.933642e-002
3.795222e+003, 3.968477e-002
3.797151e+003, 3.940668e-002
3.799079e+003, 3.962002e-002
3.801008e+003, 4.070823e-002
3.802936e+003, 3.895235e-002
3.804865e+003, 3.842031e-002
3.806793e+003, 3.998486e-002
3.808722e+003, 4.095226e-002
3.810650e+003, 3.955740e-002
3.812579e+003, 4.014482e-002
3.814507e+003, 3.866254e-002
3.816436e+003, 4.074199e-002
3.818364e+003, 4.353100e-002
3.820292e+003, 4.397264e-002
3.822221e+003, 4.230086e-002
3.824149e+003, 4.120560e-002
3.826078e+003, 4.092847e-002
3.828006e+003, 4.017073e-002
3.829935e+003, 4.016764e-002
3.831863e+003, 4.072494e-002
3.833792e+003, 4.110156e-002
3.835720e+003, 4.144035e-002
3.837649e+003, 4.066857e-002
3.839577e+003, 4.141379e-002
3.841506e+003, 4.154570e-002
3.843434e+003, 4.171918e-002
3.845363e+003, 4.178119e-002
3.847291e+003, 4.094331e-002
3.849219e+003, 3.983100e-002
3.851148e+003, 3.973727e-002
3.853076e+003, 4.112977e-002
3.855005e+003, 4.397063e-002
3.856933e+003, 4.335076e-002
3.858862e+003, 3.943739e-002
3.860790e+003, 3.572040e-002
3.862719e+003, 3.855315e-002
3.864647e+003, 3.975827e-002
3.866576e+003, 3.996627e-002
3.868504e+003, 4.201104e-002
3.870433e+003, 4.343896e-002
3.872361e+003, 4.179816e-002
3.874290e+003, 4.232214e-002
3.876218e+003, 4.255576e-002
3.878146e+003, 4.292489e-002
3.880075e+003, 4.215324e-002
3.882003e+003, 4.208466e-002
3.883932e+003, 4.216840e-002
3.885860e+003, 4.289894e-002
3.887789e+003, 4.248472e-002
3.889717e+003, 4.130027e-002
3.891646e+003, 4.273617e-002
3.893574e+003, 4.348057e-002
3.895503e+003, 4.418089e-002
3.897431e+003, 4.316457e-002
3.899360e+003, 4.190606e-002
3.901288e+003, 4.398089e-002
3.903217e+003, 4.412927e-002
3.905145e+003, 4.264259e-002
3.907073e+003, 4.077796e-002
3.909002e+003, 3.842789e-002
3.910930e+003, 3.803990e-002
3.912859e+003, 3.923043e-002
3.914787e+003, 3.769729e-002
3.916716e+003, 3.842174e-002
3.918644e+003, 3.765409e-002
3.920573e+003, 3.916943e-002
3.922501e+003, 4.041991e-002
3.924430e+003, 4.170430e-002
3.926358e+003, 4.059892e-002
3.928287e+003, 4.157737e-002
3.930215e+003, 4.313034e-002
3.932144e+003, 4.063008e-002
3.934072e+003, 4.044630e-002
3.936000e+003, 4.134348e-002
3.937929e+003, 4.032507e-002
3.939857e+003, 4.148273e-002
3.941786e+003, 4.319300e-002
3.943714e+003, 4.392586e-002
3.945643e+003, 4.282545e-002
3.947571e+003, 4.378833e-002
3.949500e+003, 4.222039e-002
3.951428e+003, 3.924223e-002
3.953357e+003, 3.782523e-002
3.955285e+003, 3.787630e-002
3.957214e+003, 3.886560e-002
3.959142e+003, 4.078184e-002
3.961071e+003, 4.324719e-002
3.962999e+003, 4.413905e-002
3.964927e+003, 4.243479e-002
3.966856e+003, 4.093411e-002
3.968784e+003, 4.185405e-002
3.970713e+003, 4.355635e-002
3.972641e+003, 4.436128e-002
3.974570e+003, 4.390682e-002
3.976498e+003, 4.264766e-002
3.978427e+003, 4.174440e-002
3.980355e+003, 4.157953e-002
3.982284e+003, 4.189763e-002
3.984212e+003, 4.234046e-002
3.986141e+003, 4.345040e-002
3.988069e+003, 4.325515e-002
3.989998e+003, 4.356095e-002
3.991926e+003, 4.313528e-002
3.993854e+003, 4.306671e-002
3.995783e+003, 4.178490e-002
3.997711e+003, 4.069539e-002
3.999640e+003, 4.071292e-002
##END=



