##NAMES=Azurite
##RRUFFID=R050497
##IDEAL CHEMISTRY=Cu^2+^_3_(CO_3_)_2_(OH)_2_
##LOCALITY=Tsumeb mine, Tsumeb, Otavi District, Oshikoto, Namibia
##OWNER=RRUFF
##SOURCE=Marcus Origlieri
##DESCRIPTION=Blue prismatic single crystal
##STATUS=The identification of this mineral has been confirmed by X-ray diffraction and chemical analysis
##URL=rruff.info/R050497
##MEASURED CHEMISTRY=Cu_3.00_(CO_3_)_2_(OH)_2_
3.721941e+002, 0.000000e+000
3.741225e+002, 8.269532e-002
3.760510e+002, 7.878200e-002
3.779795e+002, 8.586699e-002
3.799079e+002, 9.281118e-002
3.818364e+002, 9.494893e-002
3.837649e+002, 9.902825e-002
3.856933e+002, 9.686694e-002
3.876218e+002, 9.962886e-002
3.895503e+002, 1.075753e-001
3.914787e+002, 1.136577e-001
3.934072e+002, 1.224752e-001
3.953357e+002, 1.278609e-001
3.972641e+002, 1.304288e-001
3.991926e+002, 1.377402e-001
4.011211e+002, 1.397410e-001
4.030495e+002, 1.332730e-001
4.049780e+002, 1.266089e-001
4.069065e+002, 1.222223e-001
4.088349e+002, 1.141601e-001
4.107634e+002, 1.031606e-001
4.126919e+002, 9.265221e-002
4.146203e+002, 8.578115e-002
4.165488e+002, 8.396123e-002
4.184773e+002, 7.926184e-002
4.204057e+002, 7.644659e-002
4.223342e+002, 7.482714e-002
4.242627e+002, 7.425994e-002
4.261911e+002, 7.458308e-002
4.281196e+002, 7.672724e-002
4.300481e+002, 8.105612e-002
4.319765e+002, 8.768621e-002
4.339050e+002, 9.329338e-002
4.358335e+002, 9.992416e-002
4.377619e+002, 1.104510e-001
4.396904e+002, 1.230837e-001
4.416189e+002, 1.372549e-001
4.435473e+002, 1.517717e-001
4.454758e+002, 1.643194e-001
4.474043e+002, 1.712718e-001
4.493327e+002, 1.710817e-001
4.512612e+002, 1.649461e-001
4.531897e+002, 1.573973e-001
4.551181e+002, 1.523379e-001
4.570466e+002, 1.477007e-001
4.589751e+002, 1.389434e-001
4.609035e+002, 1.275100e-001
4.628320e+002, 1.150286e-001
4.647605e+002, 1.028580e-001
4.666889e+002, 9.199524e-002
4.686174e+002, 8.280729e-002
4.705459e+002, 7.560237e-002
4.724743e+002, 7.016054e-002
4.744028e+002, 6.724539e-002
4.763313e+002, 6.750092e-002
4.782597e+002, 6.913360e-002
4.801882e+002, 7.239699e-002
4.821167e+002, 7.704769e-002
4.840451e+002, 8.202562e-002
4.859736e+002, 8.741723e-002
4.879021e+002, 9.297983e-002
4.898305e+002, 9.675507e-002
4.917590e+002, 9.766532e-002
4.936875e+002, 9.643528e-002
4.956159e+002, 9.409470e-002
4.975444e+002, 9.004215e-002
4.994729e+002, 8.445552e-002
5.014013e+002, 7.834832e-002
5.033298e+002, 7.153940e-002
5.052583e+002, 6.448685e-002
5.071867e+002, 5.716432e-002
5.091152e+002, 5.047771e-002
5.110437e+002, 4.487659e-002
5.129721e+002, 3.963404e-002
5.149006e+002, 3.561648e-002
5.168290e+002, 3.292530e-002
5.187575e+002, 3.038890e-002
5.206860e+002, 2.785363e-002
5.226144e+002, 2.574281e-002
5.245429e+002, 2.413538e-002
5.264714e+002, 2.312228e-002
5.283998e+002, 2.222354e-002
5.303283e+002, 2.126754e-002
5.322568e+002, 2.032861e-002
5.341852e+002, 1.967315e-002
5.361137e+002, 1.905381e-002
5.380422e+002, 1.834815e-002
5.399706e+002, 1.802283e-002
5.418991e+002, 1.762145e-002
5.438276e+002, 1.695294e-002
5.457560e+002, 1.674144e-002
5.476845e+002, 1.664243e-002
5.496130e+002, 1.627130e-002
5.515414e+002, 1.631317e-002
5.534699e+002, 1.629080e-002
5.553984e+002, 1.603789e-002
5.573268e+002, 1.615129e-002
5.592553e+002, 1.620019e-002
5.611838e+002, 1.597982e-002
5.631122e+002, 1.575275e-002
5.650407e+002, 1.558111e-002
5.669692e+002, 1.549138e-002
5.688976e+002, 1.541961e-002
5.708261e+002, 1.549541e-002
5.727546e+002, 1.552808e-002
5.746830e+002, 1.558744e-002
5.766115e+002, 1.557150e-002
5.785400e+002, 1.581698e-002
5.804684e+002, 1.611892e-002
5.823969e+002, 1.618722e-002
5.843254e+002, 1.619975e-002
5.862538e+002, 1.647581e-002
5.881823e+002, 1.666505e-002
5.901108e+002, 1.697373e-002
5.920392e+002, 1.745011e-002
5.939677e+002, 1.754195e-002
5.958962e+002, 1.755525e-002
5.978246e+002, 1.786169e-002
5.997531e+002, 1.789510e-002
6.016816e+002, 1.801819e-002
6.036100e+002, 1.817768e-002
6.055385e+002, 1.845299e-002
6.074670e+002, 1.880807e-002
6.093954e+002, 1.915713e-002
6.113239e+002, 1.941985e-002
6.132524e+002, 1.971914e-002
6.151808e+002, 1.992625e-002
6.171093e+002, 1.995045e-002
6.190378e+002, 2.008294e-002
6.209662e+002, 2.060428e-002
6.228947e+002, 2.121038e-002
6.248232e+002, 2.144206e-002
6.267516e+002, 2.166860e-002
6.286801e+002, 2.203147e-002
6.306086e+002, 2.254019e-002
6.325370e+002, 2.295002e-002
6.344655e+002, 2.337374e-002
6.363940e+002, 2.377406e-002
6.383224e+002, 2.394540e-002
6.402509e+002, 2.426242e-002
6.421794e+002, 2.471800e-002
6.441078e+002, 2.509623e-002
6.460363e+002, 2.545654e-002
6.479648e+002, 2.589857e-002
6.498932e+002, 2.641874e-002
6.518217e+002, 2.696222e-002
6.537502e+002, 2.736876e-002
6.556786e+002, 2.760234e-002
6.576071e+002, 2.788823e-002
6.595356e+002, 2.829058e-002
6.614641e+002, 2.879821e-002
6.633925e+002, 2.933867e-002
6.653210e+002, 2.985024e-002
6.672495e+002, 3.054856e-002
6.691779e+002, 3.109590e-002
6.711064e+002, 3.159329e-002
6.730349e+002, 3.220844e-002
6.749633e+002, 3.273631e-002
6.768918e+002, 3.330716e-002
6.788203e+002, 3.389330e-002
6.807487e+002, 3.445659e-002
6.826772e+002, 3.500608e-002
6.846057e+002, 3.577682e-002
6.865341e+002, 3.659533e-002
6.884626e+002, 3.738822e-002
6.903911e+002, 3.841500e-002
6.923195e+002, 3.942481e-002
6.942480e+002, 4.043832e-002
6.961765e+002, 4.129646e-002
6.981049e+002, 4.207937e-002
7.000334e+002, 4.311252e-002
7.019619e+002, 4.417460e-002
7.038903e+002, 4.526866e-002
7.058188e+002, 4.638185e-002
7.077473e+002, 4.741205e-002
7.096757e+002, 4.864093e-002
7.116042e+002, 5.020374e-002
7.135327e+002, 5.206604e-002
7.154611e+002, 5.396121e-002
7.173896e+002, 5.590137e-002
7.193181e+002, 5.822923e-002
7.212465e+002, 6.093327e-002
7.231750e+002, 6.419326e-002
7.251035e+002, 6.825798e-002
7.270319e+002, 7.308424e-002
7.289604e+002, 7.714640e-002
7.308889e+002, 7.948841e-002
7.328173e+002, 8.164170e-002
7.347458e+002, 8.479314e-002
7.366743e+002, 8.852538e-002
7.386027e+002, 9.157316e-002
7.405312e+002, 9.300572e-002
7.424597e+002, 9.317662e-002
7.443881e+002, 9.273504e-002
7.463166e+002, 9.196419e-002
7.482451e+002, 9.031240e-002
7.501735e+002, 8.760753e-002
7.521020e+002, 8.495110e-002
7.540305e+002, 8.333416e-002
7.559589e+002, 8.334044e-002
7.578874e+002, 8.505373e-002
7.598159e+002, 8.794405e-002
7.617443e+002, 9.202869e-002
7.636728e+002, 9.766521e-002
7.656013e+002, 1.044966e-001
7.675297e+002, 1.105781e-001
7.694582e+002, 1.119436e-001
7.713867e+002, 1.056275e-001
7.733151e+002, 9.506724e-002
7.752436e+002, 8.665507e-002
7.771721e+002, 8.245493e-002
7.791005e+002, 8.138389e-002
7.810290e+002, 8.214503e-002
7.829575e+002, 8.393235e-002
7.848859e+002, 8.654860e-002
7.868144e+002, 8.984190e-002
7.887429e+002, 9.377190e-002
7.906713e+002, 9.829836e-002
7.925998e+002, 1.034146e-001
7.945283e+002, 1.092434e-001
7.964567e+002, 1.159517e-001
7.983852e+002, 1.228195e-001
8.003137e+002, 1.278737e-001
8.022421e+002, 1.331215e-001
8.041706e+002, 1.409042e-001
8.060991e+002, 1.499763e-001
8.080275e+002, 1.601337e-001
8.099560e+002, 1.707025e-001
8.118845e+002, 1.800487e-001
8.138129e+002, 1.856679e-001
8.157414e+002, 1.849855e-001
8.176699e+002, 1.790428e-001
8.195983e+002, 1.724129e-001
8.215268e+002, 1.683597e-001
8.234553e+002, 1.670794e-001
8.253837e+002, 1.694619e-001
8.273122e+002, 1.756093e-001
8.292407e+002, 1.794919e-001
8.311691e+002, 1.802090e-001
8.330976e+002, 1.801056e-001
8.350261e+002, 1.782247e-001
8.369545e+002, 1.728135e-001
8.388830e+002, 1.631965e-001
8.408115e+002, 1.498118e-001
8.427399e+002, 1.342744e-001
8.446684e+002, 1.195285e-001
8.465969e+002, 1.071325e-001
8.485253e+002, 9.686878e-002
8.504538e+002, 8.801595e-002
8.523823e+002, 7.965115e-002
8.543107e+002, 7.169233e-002
8.562392e+002, 6.502201e-002
8.581677e+002, 5.934171e-002
8.600961e+002, 5.438095e-002
8.620246e+002, 5.068776e-002
8.639531e+002, 4.809981e-002
8.658815e+002, 4.621916e-002
8.678100e+002, 4.503684e-002
8.697385e+002, 4.473610e-002
8.716669e+002, 4.527584e-002
8.735954e+002, 4.630109e-002
8.755239e+002, 4.734609e-002
8.774523e+002, 4.825769e-002
8.793808e+002, 4.921642e-002
8.813093e+002, 4.988048e-002
8.832377e+002, 4.996643e-002
8.851662e+002, 4.908551e-002
8.870947e+002, 4.746908e-002
8.890231e+002, 4.572618e-002
8.909516e+002, 4.431067e-002
8.928801e+002, 4.355434e-002
8.948085e+002, 4.341574e-002
8.967370e+002, 4.384762e-002
8.986655e+002, 4.462163e-002
9.005939e+002, 4.546732e-002
9.025224e+002, 4.656804e-002
9.044509e+002, 4.788787e-002
9.063793e+002, 4.941139e-002
9.083078e+002, 5.107678e-002
9.102363e+002, 5.289096e-002
9.121647e+002, 5.493655e-002
9.140932e+002, 5.718300e-002
9.160217e+002, 5.967105e-002
9.179501e+002, 6.243698e-002
9.198786e+002, 6.528684e-002
9.218071e+002, 6.847168e-002
9.237355e+002, 7.215489e-002
9.256640e+002, 7.615311e-002
9.275925e+002, 8.053722e-002
9.295209e+002, 8.519257e-002
9.314494e+002, 9.015665e-002
9.333779e+002, 9.573974e-002
9.353063e+002, 1.016691e-001
9.372348e+002, 1.076715e-001
9.391633e+002, 1.137670e-001
9.410917e+002, 1.205886e-001
9.430202e+002, 1.282423e-001
9.449487e+002, 1.361195e-001
9.468771e+002, 1.430430e-001
9.488056e+002, 1.474948e-001
9.507341e+002, 1.487300e-001
9.526625e+002, 1.465371e-001
9.545910e+002, 1.415263e-001
9.565195e+002, 1.344973e-001
9.584479e+002, 1.265457e-001
9.603764e+002, 1.181108e-001
9.623049e+002, 1.098699e-001
9.642333e+002, 1.021590e-001
9.661618e+002, 9.483517e-002
9.680903e+002, 8.767952e-002
9.700187e+002, 8.089432e-002
9.719472e+002, 7.432983e-002
9.738757e+002, 6.793451e-002
9.758041e+002, 6.190614e-002
9.777326e+002, 5.633113e-002
9.796611e+002, 5.147113e-002
9.815895e+002, 4.744131e-002
9.835180e+002, 4.405093e-002
9.854465e+002, 4.129091e-002
9.873749e+002, 3.917838e-002
9.893034e+002, 3.753390e-002
9.912319e+002, 3.610037e-002
9.931603e+002, 3.480039e-002
9.950888e+002, 3.378188e-002
9.970173e+002, 3.307015e-002
9.989457e+002, 3.249766e-002
1.000874e+003, 3.202488e-002
1.002803e+003, 3.143603e-002
1.004731e+003, 3.098828e-002
1.006660e+003, 3.077110e-002
1.008588e+003, 3.058577e-002
1.010517e+003, 3.031309e-002
1.012445e+003, 3.011842e-002
1.014373e+003, 3.020833e-002
1.016302e+003, 3.023976e-002
1.018230e+003, 3.010309e-002
1.020159e+003, 2.999437e-002
1.022087e+003, 3.004781e-002
1.024016e+003, 3.011409e-002
1.025944e+003, 3.012435e-002
1.027873e+003, 3.013718e-002
1.029801e+003, 3.031789e-002
1.031730e+003, 3.057365e-002
1.033658e+003, 3.076036e-002
1.035587e+003, 3.097266e-002
1.037515e+003, 3.116857e-002
1.039443e+003, 3.130177e-002
1.041372e+003, 3.151686e-002
1.043300e+003, 3.186724e-002
1.045229e+003, 3.214025e-002
1.047157e+003, 3.233245e-002
1.049086e+003, 3.258346e-002
1.051014e+003, 3.277265e-002
1.052943e+003, 3.290109e-002
1.054871e+003, 3.338991e-002
1.056800e+003, 3.392500e-002
1.058728e+003, 3.408751e-002
1.060657e+003, 3.436209e-002
1.062585e+003, 3.464949e-002
1.064514e+003, 3.483966e-002
1.066442e+003, 3.525091e-002
1.068370e+003, 3.581710e-002
1.070299e+003, 3.637129e-002
1.072227e+003, 3.681559e-002
1.074156e+003, 3.725070e-002
1.076084e+003, 3.801714e-002
1.078013e+003, 3.917464e-002
1.079941e+003, 4.040278e-002
1.081870e+003, 4.169852e-002
1.083798e+003, 4.340412e-002
1.085727e+003, 4.585354e-002
1.087655e+003, 4.887538e-002
1.089584e+003, 5.197611e-002
1.091512e+003, 5.340243e-002
1.093441e+003, 5.100083e-002
1.095369e+003, 4.580706e-002
1.097297e+003, 4.085188e-002
1.099226e+003, 3.786072e-002
1.101154e+003, 3.658455e-002
1.103083e+003, 3.605029e-002
1.105011e+003, 3.602676e-002
1.106940e+003, 3.630646e-002
1.108868e+003, 3.653279e-002
1.110797e+003, 3.682926e-002
1.112725e+003, 3.719915e-002
1.114654e+003, 3.755721e-002
1.116582e+003, 3.808375e-002
1.118511e+003, 3.856036e-002
1.120439e+003, 3.902648e-002
1.122368e+003, 3.948265e-002
1.124296e+003, 3.986685e-002
1.126224e+003, 4.040207e-002
1.128153e+003, 4.075273e-002
1.130081e+003, 4.115202e-002
1.132010e+003, 4.177072e-002
1.133938e+003, 4.222447e-002
1.135867e+003, 4.268845e-002
1.137795e+003, 4.313864e-002
1.139724e+003, 4.363424e-002
1.141652e+003, 4.425222e-002
1.143581e+003, 4.473866e-002
1.145509e+003, 4.528215e-002
1.147438e+003, 4.578610e-002
1.149366e+003, 4.624833e-002
1.151295e+003, 4.684376e-002
1.153223e+003, 4.751346e-002
1.155151e+003, 4.809725e-002
1.157080e+003, 4.862561e-002
1.159008e+003, 4.919399e-002
1.160937e+003, 4.966865e-002
1.162865e+003, 5.022866e-002
1.164794e+003, 5.087503e-002
1.166722e+003, 5.137854e-002
1.168651e+003, 5.190819e-002
1.170579e+003, 5.253835e-002
1.172508e+003, 5.318749e-002
1.174436e+003, 5.382928e-002
1.176365e+003, 5.453638e-002
1.178293e+003, 5.517525e-002
1.180222e+003, 5.572978e-002
1.182150e+003, 5.632865e-002
1.184078e+003, 5.693016e-002
1.186007e+003, 5.769276e-002
1.187935e+003, 5.843799e-002
1.189864e+003, 5.902854e-002
1.191792e+003, 5.977969e-002
1.193721e+003, 6.062943e-002
1.195649e+003, 6.133821e-002
1.197578e+003, 6.194826e-002
1.199506e+003, 6.251055e-002
1.201435e+003, 6.318606e-002
1.203363e+003, 6.394794e-002
1.205292e+003, 6.475282e-002
1.207220e+003, 6.555138e-002
1.209149e+003, 6.634454e-002
1.211077e+003, 6.723326e-002
1.213005e+003, 6.813607e-002
1.214934e+003, 6.898288e-002
1.216862e+003, 6.983160e-002
1.218791e+003, 7.082111e-002
1.220719e+003, 7.177041e-002
1.222648e+003, 7.271983e-002
1.224576e+003, 7.376149e-002
1.226505e+003, 7.485393e-002
1.228433e+003, 7.578789e-002
1.230362e+003, 7.662013e-002
1.232290e+003, 7.754301e-002
1.234219e+003, 7.860427e-002
1.236147e+003, 7.957411e-002
1.238076e+003, 8.057181e-002
1.240004e+003, 8.154310e-002
1.241932e+003, 8.246368e-002
1.243861e+003, 8.347964e-002
1.245789e+003, 8.446535e-002
1.247718e+003, 8.565230e-002
1.249646e+003, 8.707987e-002
1.251575e+003, 8.841908e-002
1.253503e+003, 8.965337e-002
1.255432e+003, 9.110885e-002
1.257360e+003, 9.262202e-002
1.259289e+003, 9.401753e-002
1.261217e+003, 9.546106e-002
1.263146e+003, 9.674333e-002
1.265074e+003, 9.800499e-002
1.267003e+003, 9.933943e-002
1.268931e+003, 1.006965e-001
1.270859e+003, 1.021325e-001
1.272788e+003, 1.037001e-001
1.274716e+003, 1.053969e-001
1.276645e+003, 1.071089e-001
1.278573e+003, 1.088713e-001
1.280502e+003, 1.107472e-001
1.282430e+003, 1.126156e-001
1.284359e+003, 1.146600e-001
1.286287e+003, 1.168270e-001
1.288216e+003, 1.190098e-001
1.290144e+003, 1.211350e-001
1.292073e+003, 1.233398e-001
1.294001e+003, 1.257217e-001
1.295930e+003, 1.279764e-001
1.297858e+003, 1.302587e-001
1.299786e+003, 1.326969e-001
1.301715e+003, 1.352084e-001
1.303643e+003, 1.375694e-001
1.305572e+003, 1.400509e-001
1.307500e+003, 1.429765e-001
1.309429e+003, 1.458216e-001
1.311357e+003, 1.486867e-001
1.313286e+003, 1.516731e-001
1.315214e+003, 1.545006e-001
1.317143e+003, 1.575340e-001
1.319071e+003, 1.607373e-001
1.321000e+003, 1.641122e-001
1.322928e+003, 1.677144e-001
1.324857e+003, 1.711496e-001
1.326785e+003, 1.744042e-001
1.328714e+003, 1.778153e-001
1.330642e+003, 1.815280e-001
1.332570e+003, 1.852542e-001
1.334499e+003, 1.890157e-001
1.336427e+003, 1.928571e-001
1.338356e+003, 1.970402e-001
1.340284e+003, 2.013080e-001
1.342213e+003, 2.056123e-001
1.344141e+003, 2.102138e-001
1.346070e+003, 2.149296e-001
1.347998e+003, 2.198792e-001
1.349927e+003, 2.250203e-001
1.351855e+003, 2.301169e-001
1.353784e+003, 2.350951e-001
1.355712e+003, 2.404884e-001
1.357641e+003, 2.461367e-001
1.359569e+003, 2.517900e-001
1.361497e+003, 2.577580e-001
1.363426e+003, 2.636726e-001
1.365354e+003, 2.698775e-001
1.367283e+003, 2.764328e-001
1.369211e+003, 2.828654e-001
1.371140e+003, 2.896010e-001
1.373068e+003, 2.963808e-001
1.374997e+003, 3.029542e-001
1.376925e+003, 3.092829e-001
1.378854e+003, 3.154097e-001
1.380782e+003, 3.207653e-001
1.382711e+003, 3.247332e-001
1.384639e+003, 3.274846e-001
1.386568e+003, 3.309732e-001
1.388496e+003, 3.371854e-001
1.390424e+003, 3.454006e-001
1.392353e+003, 3.540571e-001
1.394281e+003, 3.620216e-001
1.396210e+003, 3.688933e-001
1.398138e+003, 3.745004e-001
1.400067e+003, 3.783023e-001
1.401995e+003, 3.797578e-001
1.403924e+003, 3.789664e-001
1.405852e+003, 3.763103e-001
1.407781e+003, 3.721034e-001
1.409709e+003, 3.664841e-001
1.411638e+003, 3.588522e-001
1.413566e+003, 3.494669e-001
1.415495e+003, 3.385629e-001
1.417423e+003, 3.262508e-001
1.419351e+003, 3.129854e-001
1.421280e+003, 2.998554e-001
1.423208e+003, 2.871128e-001
1.425137e+003, 2.751971e-001
1.427065e+003, 2.640002e-001
1.428994e+003, 2.534043e-001
1.430922e+003, 2.437366e-001
1.432851e+003, 2.348603e-001
1.434779e+003, 2.263787e-001
1.436708e+003, 2.184901e-001
1.438636e+003, 2.110446e-001
1.440565e+003, 2.039016e-001
1.442493e+003, 1.972715e-001
1.444422e+003, 1.917212e-001
1.446350e+003, 1.876164e-001
1.448278e+003, 1.847052e-001
1.450207e+003, 1.829564e-001
1.452135e+003, 1.824580e-001
1.454064e+003, 1.838937e-001
1.455992e+003, 1.885937e-001
1.457921e+003, 1.976447e-001
1.459849e+003, 2.094258e-001
1.461778e+003, 2.181634e-001
1.463706e+003, 2.170291e-001
1.465635e+003, 2.053966e-001
1.467563e+003, 1.888117e-001
1.469492e+003, 1.725350e-001
1.471420e+003, 1.598671e-001
1.473349e+003, 1.524266e-001
1.475277e+003, 1.498512e-001
1.477205e+003, 1.501168e-001
1.479134e+003, 1.517756e-001
1.481062e+003, 1.537731e-001
1.482991e+003, 1.553355e-001
1.484919e+003, 1.560884e-001
1.486848e+003, 1.563035e-001
1.488776e+003, 1.558989e-001
1.490705e+003, 1.552388e-001
1.492633e+003, 1.542924e-001
1.494562e+003, 1.528197e-001
1.496490e+003, 1.510369e-001
1.498419e+003, 1.491155e-001
1.500347e+003, 1.468282e-001
1.502276e+003, 1.441260e-001
1.504204e+003, 1.413022e-001
1.506132e+003, 1.385151e-001
1.508061e+003, 1.356869e-001
1.509989e+003, 1.326254e-001
1.511918e+003, 1.293483e-001
1.513846e+003, 1.258979e-001
1.515775e+003, 1.222474e-001
1.517703e+003, 1.184047e-001
1.519632e+003, 1.142586e-001
1.521560e+003, 1.101541e-001
1.523489e+003, 1.061547e-001
1.525417e+003, 1.021252e-001
1.527346e+003, 9.784403e-002
1.529274e+003, 9.359444e-002
1.531203e+003, 8.936165e-002
1.533131e+003, 8.502349e-002
1.535059e+003, 8.098441e-002
1.536988e+003, 7.713386e-002
1.538916e+003, 7.310360e-002
1.540845e+003, 6.903576e-002
1.542773e+003, 6.520897e-002
1.544702e+003, 6.164237e-002
1.546630e+003, 5.808524e-002
1.548559e+003, 5.432522e-002
1.550487e+003, 5.074338e-002
1.552416e+003, 4.709908e-002
1.554344e+003, 4.353705e-002
1.556273e+003, 4.009449e-002
1.558201e+003, 3.659635e-002
1.560130e+003, 3.323011e-002
1.562058e+003, 3.013379e-002
1.563986e+003, 2.699015e-002
1.565915e+003, 2.384668e-002
1.567843e+003, 2.090434e-002
1.569772e+003, 1.835216e-002
1.571700e+003, 1.638093e-002
1.573629e+003, 1.452853e-002
1.575557e+003, 1.299869e-002
1.577486e+003, 1.211417e-002
1.579414e+003, 1.149535e-002
1.581343e+003, 1.080515e-002
1.583271e+003, 1.030079e-002
1.585200e+003, 9.855015e-003
1.587128e+003, 9.432849e-003
1.589057e+003, 9.001688e-003
1.590985e+003, 8.592634e-003
1.592913e+003, 8.334938e-003
1.594842e+003, 8.036334e-003
1.596770e+003, 7.638580e-003
1.598699e+003, 7.274230e-003
1.600627e+003, 6.975391e-003
1.602556e+003, 6.647533e-003
1.604484e+003, 6.505425e-003
1.606413e+003, 6.386408e-003
1.608341e+003, 6.025989e-003
1.610270e+003, 5.813406e-003
1.612198e+003, 5.806040e-003
1.614127e+003, 5.566848e-003
1.616055e+003, 5.337297e-003
1.617984e+003, 5.390773e-003
1.619912e+003, 5.504732e-003
1.621840e+003, 5.372811e-003
1.623769e+003, 5.126553e-003
1.625697e+003, 5.006718e-003
1.627626e+003, 4.929508e-003
1.629554e+003, 4.999184e-003
1.631483e+003, 5.108926e-003
1.633411e+003, 5.046336e-003
1.635340e+003, 5.030411e-003
1.637268e+003, 5.168736e-003
1.639197e+003, 5.045776e-003
1.641125e+003, 4.821632e-003
1.643054e+003, 4.913300e-003
1.644982e+003, 5.133466e-003
1.646911e+003, 5.140200e-003
1.648839e+003, 4.881478e-003
1.650767e+003, 4.557775e-003
1.652696e+003, 4.394925e-003
1.654624e+003, 4.441590e-003
1.656553e+003, 4.452345e-003
1.658481e+003, 4.374372e-003
1.660410e+003, 4.488010e-003
1.662338e+003, 4.525868e-003
1.664267e+003, 4.347635e-003
1.666195e+003, 4.194009e-003
1.668124e+003, 4.179406e-003
1.670052e+003, 4.202048e-003
1.671981e+003, 4.289428e-003
1.673909e+003, 4.240650e-003
1.675838e+003, 4.209288e-003
1.677766e+003, 4.267867e-003
1.679694e+003, 4.274004e-003
1.681623e+003, 4.327841e-003
1.683551e+003, 4.355475e-003
1.685480e+003, 4.521046e-003
1.687408e+003, 4.590411e-003
1.689337e+003, 4.637734e-003
1.691265e+003, 4.728526e-003
1.693194e+003, 4.691175e-003
1.695122e+003, 4.771814e-003
1.697051e+003, 5.008756e-003
1.698979e+003, 4.938107e-003
1.700908e+003, 4.826731e-003
1.702836e+003, 4.927790e-003
1.704765e+003, 4.999733e-003
1.706693e+003, 5.127633e-003
1.708621e+003, 5.170938e-003
1.710550e+003, 5.024632e-003
1.712478e+003, 4.883839e-003
1.714407e+003, 4.853888e-003
1.716335e+003, 4.733829e-003
1.718264e+003, 4.881140e-003
1.720192e+003, 5.049455e-003
1.722121e+003, 4.995545e-003
1.724049e+003, 4.987683e-003
1.725978e+003, 5.029648e-003
1.727906e+003, 5.056132e-003
1.729835e+003, 5.099919e-003
1.731763e+003, 5.188394e-003
1.733692e+003, 5.033910e-003
1.735620e+003, 5.015773e-003
1.737548e+003, 5.091303e-003
1.739477e+003, 5.016417e-003
1.741405e+003, 5.122529e-003
1.743334e+003, 5.186884e-003
1.745262e+003, 4.747330e-003
1.747191e+003, 4.455416e-003
1.749119e+003, 4.775726e-003
1.751048e+003, 4.973512e-003
1.752976e+003, 5.380979e-003
1.754905e+003, 5.750054e-003
1.756833e+003, 5.897678e-003
1.758762e+003, 6.054802e-003
1.760690e+003, 6.344337e-003
1.762619e+003, 6.641488e-003
1.764547e+003, 6.910829e-003
1.766475e+003, 6.785566e-003
1.768404e+003, 6.539826e-003
1.770332e+003, 6.865186e-003
1.772261e+003, 7.180524e-003
1.774189e+003, 7.134045e-003
1.776118e+003, 7.242901e-003
1.778046e+003, 7.571729e-003
1.779975e+003, 7.837160e-003
1.781903e+003, 8.013564e-003
1.783832e+003, 7.958518e-003
1.785760e+003, 7.960427e-003
1.787689e+003, 8.037249e-003
1.789617e+003, 8.221787e-003
1.791546e+003, 8.260104e-003
1.793474e+003, 8.161497e-003
1.795402e+003, 8.477826e-003
1.797331e+003, 8.825109e-003
1.799259e+003, 8.945287e-003
1.801188e+003, 9.124768e-003
1.803116e+003, 9.167843e-003
1.805045e+003, 9.013373e-003
1.806973e+003, 9.058495e-003
1.808902e+003, 9.312548e-003
1.810830e+003, 9.558573e-003
1.812759e+003, 1.005998e-002
1.814687e+003, 1.035575e-002
1.816616e+003, 1.043317e-002
1.818544e+003, 1.056179e-002
1.820473e+003, 1.110801e-002
1.822401e+003, 1.168079e-002
1.824329e+003, 1.151086e-002
1.826258e+003, 1.165350e-002
1.828186e+003, 1.178643e-002
1.830115e+003, 1.167208e-002
1.832043e+003, 1.189995e-002
1.833972e+003, 1.224564e-002
1.835900e+003, 1.215968e-002
1.837829e+003, 1.194415e-002
1.839757e+003, 1.171892e-002
1.841686e+003, 1.172854e-002
1.843614e+003, 1.169477e-002
1.845543e+003, 1.179499e-002
1.847471e+003, 1.179377e-002
1.849400e+003, 1.150094e-002
1.851328e+003, 1.166863e-002
1.853256e+003, 1.196694e-002
1.855185e+003, 1.217482e-002
1.857113e+003, 1.266152e-002
1.859042e+003, 1.262373e-002
1.860970e+003, 1.224015e-002
1.862899e+003, 1.237535e-002
1.864827e+003, 1.267162e-002
1.866756e+003, 1.241435e-002
1.868684e+003, 1.192266e-002
1.870613e+003, 1.174585e-002
1.872541e+003, 1.181556e-002
1.874470e+003, 1.184720e-002
1.876398e+003, 1.209454e-002
1.878327e+003, 1.204987e-002
1.880255e+003, 1.175659e-002
1.882183e+003, 1.160050e-002
1.884112e+003, 1.136800e-002
1.886040e+003, 1.145289e-002
1.887969e+003, 1.193722e-002
1.889897e+003, 1.186758e-002
1.891826e+003, 1.119154e-002
1.893754e+003, 1.106079e-002
1.895683e+003, 1.136617e-002
1.897611e+003, 1.129008e-002
1.899540e+003, 1.097250e-002
1.901468e+003, 1.065859e-002
1.903397e+003, 1.035565e-002
1.905325e+003, 1.024853e-002
1.907254e+003, 1.016267e-002
1.909182e+003, 1.006813e-002
1.911110e+003, 1.042724e-002
1.913039e+003, 1.054709e-002
1.914967e+003, 9.948103e-003
1.916896e+003, 9.666475e-003
1.918824e+003, 9.590335e-003
1.920753e+003, 9.350221e-003
1.922681e+003, 9.388213e-003
1.924610e+003, 9.160272e-003
1.926538e+003, 9.229084e-003
1.928467e+003, 9.478954e-003
1.930395e+003, 9.502470e-003
1.932324e+003, 9.595372e-003
1.934252e+003, 8.796107e-003
1.936181e+003, 8.544824e-003
1.938109e+003, 8.947662e-003
1.940037e+003, 9.089370e-003
1.941966e+003, 9.926355e-003
1.943894e+003, 1.012047e-002
1.945823e+003, 9.747189e-003
1.947751e+003, 1.035495e-002
1.949680e+003, 1.044204e-002
1.951608e+003, 9.888887e-003
1.953537e+003, 9.297821e-003
1.955465e+003, 9.959497e-003
1.957394e+003, 1.077304e-002
1.959322e+003, 9.956611e-003
1.961251e+003, 9.629317e-003
1.963179e+003, 1.015840e-002
1.965108e+003, 9.968026e-003
1.967036e+003, 1.028726e-002
1.968964e+003, 1.025278e-002
1.970893e+003, 1.053635e-002
1.972821e+003, 1.157706e-002
1.974750e+003, 1.117728e-002
1.976678e+003, 1.131109e-002
1.978607e+003, 1.248156e-002
1.980535e+003, 1.257623e-002
1.982464e+003, 1.256921e-002
1.984392e+003, 1.256429e-002
1.986321e+003, 1.284941e-002
1.988249e+003, 1.318499e-002
1.990178e+003, 1.345614e-002
1.992106e+003, 1.317189e-002
1.994035e+003, 1.247592e-002
1.995963e+003, 1.102610e-002
1.997891e+003, 1.020398e-002
1.999820e+003, 1.093185e-002
2.001748e+003, 1.124805e-002
2.003677e+003, 1.059615e-002
2.005605e+003, 1.098508e-002
2.007534e+003, 1.199061e-002
2.009462e+003, 1.225780e-002
2.011391e+003, 1.224665e-002
2.013319e+003, 1.198316e-002
2.015248e+003, 1.187327e-002
2.017176e+003, 1.135810e-002
2.019105e+003, 1.158729e-002
2.021033e+003, 1.137039e-002
2.022962e+003, 1.090144e-002
2.024890e+003, 1.173281e-002
2.026818e+003, 1.311562e-002
2.028747e+003, 1.291327e-002
2.030675e+003, 1.328893e-002
2.032604e+003, 1.260854e-002
2.034532e+003, 1.233375e-002
2.036461e+003, 1.435126e-002
2.038389e+003, 1.490573e-002
2.040318e+003, 1.387968e-002
2.042246e+003, 1.433013e-002
2.044175e+003, 1.512653e-002
2.046103e+003, 1.421376e-002
2.048031e+003, 1.350709e-002
2.049960e+003, 1.438550e-002
2.051888e+003, 1.365236e-002
2.053817e+003, 1.313341e-002
2.055745e+003, 1.317671e-002
2.057674e+003, 1.263591e-002
2.059602e+003, 1.257099e-002
2.061531e+003, 1.357309e-002
2.063459e+003, 1.413454e-002
2.065388e+003, 1.333374e-002
2.067316e+003, 1.321577e-002
2.069245e+003, 1.358184e-002
2.071173e+003, 1.386284e-002
2.073102e+003, 1.423151e-002
2.075030e+003, 1.446487e-002
2.076958e+003, 1.465484e-002
2.078887e+003, 1.435849e-002
2.080815e+003, 1.378287e-002
2.082744e+003, 1.373483e-002
2.084672e+003, 1.391075e-002
2.086601e+003, 1.370257e-002
2.088529e+003, 1.363620e-002
2.090458e+003, 1.394514e-002
2.092386e+003, 1.352921e-002
2.094315e+003, 1.313157e-002
2.096243e+003, 1.348105e-002
2.098172e+003, 1.361341e-002
2.100100e+003, 1.337825e-002
2.102029e+003, 1.336007e-002
2.103957e+003, 1.414924e-002
2.105885e+003, 1.445883e-002
2.107814e+003, 1.371092e-002
2.109742e+003, 1.391848e-002
2.111671e+003, 1.456793e-002
2.113599e+003, 1.480960e-002
2.115528e+003, 1.444699e-002
2.117456e+003, 1.362979e-002
2.119385e+003, 1.295952e-002
2.121313e+003, 1.271972e-002
2.123242e+003, 1.314430e-002
2.125170e+003, 1.329675e-002
2.127099e+003, 1.312736e-002
2.129027e+003, 1.305369e-002
2.130956e+003, 1.321053e-002
2.132884e+003, 1.339735e-002
2.134813e+003, 1.382809e-002
2.136741e+003, 1.396254e-002
2.138669e+003, 1.315068e-002
2.140598e+003, 1.290784e-002
2.142526e+003, 1.368958e-002
2.144455e+003, 1.305438e-002
2.146383e+003, 1.304088e-002
2.148312e+003, 1.289914e-002
2.150240e+003, 1.284802e-002
2.152169e+003, 1.385808e-002
2.154097e+003, 1.425994e-002
2.156026e+003, 1.347132e-002
2.157954e+003, 1.482505e-002
2.159883e+003, 1.772133e-002
2.161811e+003, 1.746105e-002
2.163740e+003, 1.626926e-002
2.165668e+003, 1.657884e-002
2.167596e+003, 1.679282e-002
2.169525e+003, 1.701612e-002
2.171453e+003, 1.743705e-002
2.173382e+003, 1.718819e-002
2.175310e+003, 1.626005e-002
2.177239e+003, 1.525199e-002
2.179167e+003, 1.482584e-002
2.181096e+003, 1.494012e-002
2.183024e+003, 1.598456e-002
2.184953e+003, 1.700334e-002
2.186881e+003, 1.695077e-002
2.188810e+003, 1.697370e-002
2.190738e+003, 1.629332e-002
2.192667e+003, 1.631698e-002
2.194595e+003, 1.704077e-002
2.196523e+003, 1.716985e-002
2.198452e+003, 1.731250e-002
2.200380e+003, 1.667451e-002
2.202309e+003, 1.585159e-002
2.204237e+003, 1.568297e-002
2.206166e+003, 1.690925e-002
2.208094e+003, 1.756010e-002
2.210023e+003, 1.731757e-002
2.211951e+003, 1.737783e-002
2.213880e+003, 1.696128e-002
2.215808e+003, 1.648747e-002
2.217737e+003, 1.630562e-002
2.219665e+003, 1.626818e-002
2.221594e+003, 1.680231e-002
2.223522e+003, 1.713241e-002
2.225450e+003, 1.627264e-002
2.227379e+003, 1.602003e-002
2.229307e+003, 1.692695e-002
2.231236e+003, 1.694565e-002
2.233164e+003, 1.687536e-002
2.235093e+003, 1.735448e-002
2.237021e+003, 1.727219e-002
2.238950e+003, 1.684745e-002
2.240878e+003, 1.682653e-002
2.242807e+003, 1.688630e-002
2.244735e+003, 1.710010e-002
2.246664e+003, 1.715668e-002
2.248592e+003, 1.684647e-002
2.250521e+003, 1.708012e-002
2.252449e+003, 1.722783e-002
2.254377e+003, 1.771860e-002
2.256306e+003, 1.810327e-002
2.258234e+003, 1.785940e-002
2.260163e+003, 1.751948e-002
2.262091e+003, 1.732447e-002
2.264020e+003, 1.742757e-002
2.265948e+003, 1.737869e-002
2.267877e+003, 1.762548e-002
2.269805e+003, 1.812961e-002
2.271734e+003, 1.822674e-002
2.273662e+003, 1.839494e-002
2.275591e+003, 1.850358e-002
2.277519e+003, 1.767399e-002
2.279448e+003, 1.766811e-002
2.281376e+003, 1.818069e-002
2.283304e+003, 1.836228e-002
2.285233e+003, 1.874054e-002
2.287161e+003, 1.857064e-002
2.289090e+003, 1.813139e-002
2.291018e+003, 1.839423e-002
2.292947e+003, 1.862891e-002
2.294875e+003, 1.839917e-002
2.296804e+003, 1.827813e-002
2.298732e+003, 1.819248e-002
2.300661e+003, 1.833406e-002
2.302589e+003, 1.838952e-002
2.304518e+003, 1.829410e-002
2.306446e+003, 1.830980e-002
2.308375e+003, 1.806170e-002
2.310303e+003, 1.761096e-002
2.312231e+003, 1.796793e-002
2.314160e+003, 1.822533e-002
2.316088e+003, 1.818730e-002
2.318017e+003, 1.843388e-002
2.319945e+003, 1.890536e-002
2.321874e+003, 1.941003e-002
2.323802e+003, 1.980291e-002
2.325731e+003, 1.942829e-002
2.327659e+003, 1.868339e-002
2.329588e+003, 1.836845e-002
2.331516e+003, 1.833087e-002
2.333445e+003, 1.842350e-002
2.335373e+003, 1.897597e-002
2.337302e+003, 1.917101e-002
2.339230e+003, 1.877271e-002
2.341158e+003, 1.888183e-002
2.343087e+003, 1.892775e-002
2.345015e+003, 1.843114e-002
2.346944e+003, 1.798809e-002
2.348872e+003, 1.784232e-002
2.350801e+003, 1.800568e-002
2.352729e+003, 1.832485e-002
2.354658e+003, 1.887260e-002
2.356586e+003, 1.944752e-002
2.358515e+003, 1.929101e-002
2.360443e+003, 1.902939e-002
2.362372e+003, 1.899630e-002
2.364300e+003, 1.913734e-002
2.366229e+003, 1.885450e-002
2.368157e+003, 1.851204e-002
2.370085e+003, 1.844405e-002
2.372014e+003, 1.827808e-002
2.373942e+003, 1.838453e-002
2.375871e+003, 1.845380e-002
2.377799e+003, 1.840133e-002
2.379728e+003, 1.795546e-002
2.381656e+003, 1.771333e-002
2.383585e+003, 1.764469e-002
2.385513e+003, 1.774307e-002
2.387442e+003, 1.797036e-002
2.389370e+003, 1.787444e-002
2.391299e+003, 1.787678e-002
2.393227e+003, 1.798075e-002
2.395156e+003, 1.815504e-002
2.397084e+003, 1.823756e-002
2.399012e+003, 1.839898e-002
2.400941e+003, 1.845660e-002
2.402869e+003, 1.836722e-002
2.404798e+003, 1.847287e-002
2.406726e+003, 1.871969e-002
2.408655e+003, 1.912663e-002
2.410583e+003, 1.896072e-002
2.412512e+003, 1.877169e-002
2.414440e+003, 1.891172e-002
2.416369e+003, 1.865474e-002
2.418297e+003, 1.862085e-002
2.420226e+003, 1.903812e-002
2.422154e+003, 1.898203e-002
2.424083e+003, 1.893670e-002
2.426011e+003, 1.915091e-002
2.427939e+003, 1.921693e-002
2.429868e+003, 1.937085e-002
2.431796e+003, 1.926091e-002
2.433725e+003, 1.934723e-002
2.435653e+003, 1.931645e-002
2.437582e+003, 1.959178e-002
2.439510e+003, 1.993933e-002
2.441439e+003, 1.974475e-002
2.443367e+003, 1.973074e-002
2.445296e+003, 1.969291e-002
2.447224e+003, 1.948435e-002
2.449153e+003, 1.933648e-002
2.451081e+003, 1.973768e-002
2.453010e+003, 1.972390e-002
2.454938e+003, 1.961561e-002
2.456866e+003, 1.988329e-002
2.458795e+003, 2.031548e-002
2.460723e+003, 2.025106e-002
2.462652e+003, 1.987699e-002
2.464580e+003, 2.028213e-002
2.466509e+003, 2.094194e-002
2.468437e+003, 2.071530e-002
2.470366e+003, 2.030288e-002
2.472294e+003, 2.046642e-002
2.474223e+003, 2.119245e-002
2.476151e+003, 2.178367e-002
2.478080e+003, 2.187152e-002
2.480008e+003, 2.168486e-002
2.481937e+003, 2.189566e-002
2.483865e+003, 2.160456e-002
2.485793e+003, 2.211479e-002
2.487722e+003, 2.303129e-002
2.489650e+003, 2.399785e-002
2.491579e+003, 2.441973e-002
2.493507e+003, 2.502492e-002
2.495436e+003, 2.562964e-002
2.497364e+003, 2.545231e-002
2.499293e+003, 2.493503e-002
2.501221e+003, 2.505383e-002
2.503150e+003, 2.498844e-002
2.505078e+003, 2.469314e-002
2.507007e+003, 2.491577e-002
2.508935e+003, 2.461934e-002
2.510864e+003, 2.419007e-002
2.512792e+003, 2.412378e-002
2.514720e+003, 2.411419e-002
2.516649e+003, 2.383887e-002
2.518577e+003, 2.358126e-002
2.520506e+003, 2.346227e-002
2.522434e+003, 2.345666e-002
2.524363e+003, 2.376295e-002
2.526291e+003, 2.402320e-002
2.528220e+003, 2.404497e-002
2.530148e+003, 2.368993e-002
2.532077e+003, 2.354958e-002
2.534005e+003, 2.380060e-002
2.535934e+003, 2.382421e-002
2.537862e+003, 2.376139e-002
2.539791e+003, 2.387128e-002
2.541719e+003, 2.373838e-002
2.543647e+003, 2.384638e-002
2.545576e+003, 2.420219e-002
2.547504e+003, 2.417221e-002
2.549433e+003, 2.409796e-002
2.551361e+003, 2.464541e-002
2.553290e+003, 2.498389e-002
2.555218e+003, 2.475253e-002
2.557147e+003, 2.449703e-002
2.559075e+003, 2.479457e-002
2.561004e+003, 2.465352e-002
2.562932e+003, 2.369896e-002
2.564861e+003, 2.340249e-002
2.566789e+003, 2.312751e-002
2.568718e+003, 2.265994e-002
2.570646e+003, 2.260272e-002
2.572574e+003, 2.245407e-002
2.574503e+003, 2.202006e-002
2.576431e+003, 2.140743e-002
2.578360e+003, 2.136406e-002
2.580288e+003, 2.158066e-002
2.582217e+003, 2.179384e-002
2.584145e+003, 2.163736e-002
2.586074e+003, 2.162066e-002
2.588002e+003, 2.193632e-002
2.589931e+003, 2.205899e-002
2.591859e+003, 2.191428e-002
2.593788e+003, 2.212085e-002
2.595716e+003, 2.185595e-002
2.597645e+003, 2.164001e-002
2.599573e+003, 2.191521e-002
2.601501e+003, 2.173172e-002
2.603430e+003, 2.139226e-002
2.605358e+003, 2.144101e-002
2.607287e+003, 2.156694e-002
2.609215e+003, 2.157849e-002
2.611144e+003, 2.161895e-002
2.613072e+003, 2.181946e-002
2.615001e+003, 2.188741e-002
2.616929e+003, 2.191124e-002
2.618858e+003, 2.205027e-002
2.620786e+003, 2.159904e-002
2.622715e+003, 2.129871e-002
2.624643e+003, 2.153378e-002
2.626572e+003, 2.172105e-002
2.628500e+003, 2.165454e-002
2.630428e+003, 2.137334e-002
2.632357e+003, 2.129339e-002
2.634285e+003, 2.114769e-002
2.636214e+003, 2.107420e-002
2.638142e+003, 2.144350e-002
2.640071e+003, 2.161017e-002
2.641999e+003, 2.154371e-002
2.643928e+003, 2.159479e-002
2.645856e+003, 2.163135e-002
2.647785e+003, 2.155897e-002
2.649713e+003, 2.119231e-002
2.651642e+003, 2.104200e-002
2.653570e+003, 2.117641e-002
2.655499e+003, 2.117074e-002
2.657427e+003, 2.090992e-002
2.659355e+003, 2.089064e-002
2.661284e+003, 2.087607e-002
2.663212e+003, 2.052807e-002
2.665141e+003, 2.040389e-002
2.667069e+003, 2.025731e-002
2.668998e+003, 2.018935e-002
2.670926e+003, 2.017674e-002
2.672855e+003, 1.995928e-002
2.674783e+003, 1.998576e-002
2.676712e+003, 2.021864e-002
2.678640e+003, 2.054536e-002
2.680569e+003, 2.073084e-002
2.682497e+003, 2.062995e-002
2.684426e+003, 2.036551e-002
2.686354e+003, 2.024863e-002
2.688282e+003, 2.026960e-002
2.690211e+003, 2.023381e-002
2.692139e+003, 2.026419e-002
2.694068e+003, 2.037735e-002
2.695996e+003, 2.050629e-002
2.697925e+003, 2.062777e-002
2.699853e+003, 2.025781e-002
2.701782e+003, 1.995291e-002
2.703710e+003, 2.022824e-002
2.705639e+003, 2.048001e-002
2.707567e+003, 2.050940e-002
2.709496e+003, 2.051149e-002
2.711424e+003, 2.045862e-002
2.713353e+003, 2.062742e-002
2.715281e+003, 2.076871e-002
2.717209e+003, 2.047919e-002
2.719138e+003, 2.023093e-002
2.721066e+003, 2.030370e-002
2.722995e+003, 2.058219e-002
2.724923e+003, 2.081187e-002
2.726852e+003, 2.073841e-002
2.728780e+003, 2.082881e-002
2.730709e+003, 2.084896e-002
2.732637e+003, 2.062246e-002
2.734566e+003, 2.069436e-002
2.736494e+003, 2.087726e-002
2.738423e+003, 2.078033e-002
2.740351e+003, 2.080375e-002
2.742280e+003, 2.073748e-002
2.744208e+003, 2.060524e-002
2.746136e+003, 2.060157e-002
2.748065e+003, 2.045625e-002
2.749993e+003, 2.055403e-002
2.751922e+003, 2.103217e-002
2.753850e+003, 2.091644e-002
2.755779e+003, 2.103647e-002
2.757707e+003, 2.079362e-002
2.759636e+003, 2.043141e-002
2.761564e+003, 2.051196e-002
2.763493e+003, 2.072386e-002
2.765421e+003, 2.118710e-002
2.767350e+003, 2.157729e-002
2.769278e+003, 2.136842e-002
2.771207e+003, 2.120143e-002
2.773135e+003, 2.124312e-002
2.775063e+003, 2.123262e-002
2.776992e+003, 2.105401e-002
2.778920e+003, 2.094954e-002
2.780849e+003, 2.105418e-002
2.782777e+003, 2.103548e-002
2.784706e+003, 2.107597e-002
2.786634e+003, 2.113068e-002
2.788563e+003, 2.086891e-002
2.790491e+003, 2.085681e-002
2.792420e+003, 2.088525e-002
2.794348e+003, 2.117420e-002
2.796277e+003, 2.135457e-002
2.798205e+003, 2.129070e-002
2.800134e+003, 2.123220e-002
2.802062e+003, 2.128121e-002
2.803990e+003, 2.153764e-002
2.805919e+003, 2.192866e-002
2.807847e+003, 2.173413e-002
2.809776e+003, 2.167769e-002
2.811704e+003, 2.195035e-002
2.813633e+003, 2.210684e-002
2.815561e+003, 2.239304e-002
2.817490e+003, 2.272941e-002
2.819418e+003, 2.250745e-002
2.821347e+003, 2.254532e-002
2.823275e+003, 2.297156e-002
2.825204e+003, 2.340099e-002
2.827132e+003, 2.343109e-002
2.829061e+003, 2.328638e-002
2.830989e+003, 2.346306e-002
2.832917e+003, 2.347005e-002
2.834846e+003, 2.294809e-002
2.836774e+003, 2.288700e-002
2.838703e+003, 2.315526e-002
2.840631e+003, 2.304920e-002
2.842560e+003, 2.263012e-002
2.844488e+003, 2.225168e-002
2.846417e+003, 2.173719e-002
2.848345e+003, 2.097271e-002
2.850274e+003, 2.060370e-002
2.852202e+003, 2.032354e-002
2.854131e+003, 2.008592e-002
2.856059e+003, 2.056479e-002
2.857988e+003, 2.098409e-002
2.859916e+003, 2.165426e-002
2.861844e+003, 2.228473e-002
2.863773e+003, 2.274141e-002
2.865701e+003, 2.319874e-002
2.867630e+003, 2.289900e-002
2.869558e+003, 2.300195e-002
2.871487e+003, 2.355832e-002
2.873415e+003, 2.387883e-002
2.875344e+003, 2.409347e-002
2.877272e+003, 2.448544e-002
2.879201e+003, 2.483772e-002
2.881129e+003, 2.489565e-002
2.883058e+003, 2.509338e-002
2.884986e+003, 2.553497e-002
2.886915e+003, 2.573158e-002
2.888843e+003, 2.552720e-002
2.890771e+003, 2.506408e-002
2.892700e+003, 2.468954e-002
2.894628e+003, 2.416863e-002
2.896557e+003, 2.403632e-002
2.898485e+003, 2.432811e-002
2.900414e+003, 2.474362e-002
2.902342e+003, 2.442941e-002
2.904271e+003, 2.429554e-002
2.906199e+003, 2.418622e-002
2.908128e+003, 2.403344e-002
2.910056e+003, 2.383329e-002
2.911985e+003, 2.332483e-002
2.913913e+003, 2.276017e-002
2.915842e+003, 2.152855e-002
2.917770e+003, 2.068078e-002
2.919698e+003, 2.045916e-002
2.921627e+003, 1.971302e-002
2.923555e+003, 1.922741e-002
2.925484e+003, 1.951508e-002
2.927412e+003, 1.990683e-002
2.929341e+003, 2.024997e-002
2.931269e+003, 2.106299e-002
2.933198e+003, 2.176485e-002
2.935126e+003, 2.211437e-002
2.937055e+003, 2.270057e-002
2.938983e+003, 2.316421e-002
2.940912e+003, 2.380699e-002
2.942840e+003, 2.426207e-002
2.944769e+003, 2.443709e-002
2.946697e+003, 2.433746e-002
2.948625e+003, 2.437658e-002
2.950554e+003, 2.450752e-002
2.952482e+003, 2.448854e-002
2.954411e+003, 2.464094e-002
2.956339e+003, 2.450745e-002
2.958268e+003, 2.485597e-002
2.960196e+003, 2.545710e-002
2.962125e+003, 2.560754e-002
2.964053e+003, 2.581428e-002
2.965982e+003, 2.621033e-002
2.967910e+003, 2.627274e-002
2.969839e+003, 2.599087e-002
2.971767e+003, 2.568929e-002
2.973696e+003, 2.597496e-002
2.975624e+003, 2.629957e-002
2.977552e+003, 2.562669e-002
2.979481e+003, 2.579858e-002
2.981409e+003, 2.638508e-002
2.983338e+003, 2.634818e-002
2.985266e+003, 2.610933e-002
2.987195e+003, 2.597271e-002
2.989123e+003, 2.621664e-002
2.991052e+003, 2.604092e-002
2.992980e+003, 2.565327e-002
2.994909e+003, 2.563164e-002
2.996837e+003, 2.582660e-002
2.998766e+003, 2.588913e-002
3.000694e+003, 2.611959e-002
3.002623e+003, 2.661597e-002
3.004551e+003, 2.657617e-002
3.006479e+003, 2.622657e-002
3.008408e+003, 2.570996e-002
3.010336e+003, 2.614623e-002
3.012265e+003, 2.632072e-002
3.014193e+003, 2.533300e-002
3.016122e+003, 2.371643e-002
3.018050e+003, 2.395166e-002
3.019979e+003, 2.585579e-002
3.021907e+003, 2.628494e-002
3.023836e+003, 2.607685e-002
3.025764e+003, 2.619391e-002
3.027693e+003, 2.642206e-002
3.029621e+003, 2.630400e-002
3.031550e+003, 2.568668e-002
3.033478e+003, 2.604149e-002
3.035406e+003, 2.659733e-002
3.037335e+003, 2.699875e-002
3.039263e+003, 2.722077e-002
3.041192e+003, 2.753587e-002
3.043120e+003, 2.771261e-002
3.045049e+003, 2.726527e-002
3.046977e+003, 2.701120e-002
3.048906e+003, 2.697572e-002
3.050834e+003, 2.710059e-002
3.052763e+003, 2.729221e-002
3.054691e+003, 2.694117e-002
3.056620e+003, 2.659617e-002
3.058548e+003, 2.722445e-002
3.060477e+003, 2.731677e-002
3.062405e+003, 2.720638e-002
3.064333e+003, 2.751827e-002
3.066262e+003, 2.731417e-002
3.068190e+003, 2.776268e-002
3.070119e+003, 2.863481e-002
3.072047e+003, 2.891885e-002
3.073976e+003, 2.876746e-002
3.075904e+003, 2.803594e-002
3.077833e+003, 2.802571e-002
3.079761e+003, 2.853323e-002
3.081690e+003, 2.907463e-002
3.083618e+003, 2.935191e-002
3.085547e+003, 2.924163e-002
3.087475e+003, 2.959139e-002
3.089404e+003, 2.971495e-002
3.091332e+003, 2.943748e-002
3.093260e+003, 2.953044e-002
3.095189e+003, 2.986538e-002
3.097117e+003, 3.004076e-002
3.099046e+003, 3.019062e-002
3.100974e+003, 3.077758e-002
3.102903e+003, 3.066314e-002
3.104831e+003, 3.045068e-002
3.106760e+003, 3.109538e-002
3.108688e+003, 3.134617e-002
3.110617e+003, 3.121118e-002
3.112545e+003, 3.105303e-002
3.114474e+003, 3.151540e-002
3.116402e+003, 3.196019e-002
3.118331e+003, 3.155623e-002
3.120259e+003, 3.134158e-002
3.122188e+003, 3.212365e-002
3.124116e+003, 3.261685e-002
3.126044e+003, 3.231268e-002
3.127973e+003, 3.219422e-002
3.129901e+003, 3.291013e-002
3.131830e+003, 3.299600e-002
3.133758e+003, 3.260967e-002
3.135687e+003, 3.291784e-002
3.137615e+003, 3.305184e-002
3.139544e+003, 3.312203e-002
3.141472e+003, 3.368917e-002
3.143401e+003, 3.358410e-002
3.145329e+003, 3.329573e-002
3.147258e+003, 3.360585e-002
3.149186e+003, 3.371618e-002
3.151115e+003, 3.383164e-002
3.153043e+003, 3.444896e-002
3.154971e+003, 3.451623e-002
3.156900e+003, 3.424977e-002
3.158828e+003, 3.428271e-002
3.160757e+003, 3.436764e-002
3.162685e+003, 3.441988e-002
3.164614e+003, 3.500512e-002
3.166542e+003, 3.517908e-002
3.168471e+003, 3.459813e-002
3.170399e+003, 3.467521e-002
3.172328e+003, 3.537351e-002
3.174256e+003, 3.594860e-002
3.176185e+003, 3.598157e-002
3.178113e+003, 3.590161e-002
3.180042e+003, 3.593572e-002
3.181970e+003, 3.612449e-002
3.183898e+003, 3.633406e-002
3.185827e+003, 3.608420e-002
3.187755e+003, 3.630532e-002
3.189684e+003, 3.683057e-002
3.191612e+003, 3.662730e-002
3.193541e+003, 3.658793e-002
3.195469e+003, 3.712736e-002
3.197398e+003, 3.759587e-002
3.199326e+003, 3.726418e-002
3.201255e+003, 3.692736e-002
3.203183e+003, 3.704356e-002
3.205112e+003, 3.756285e-002
3.207040e+003, 3.717165e-002
3.208969e+003, 3.705391e-002
3.210897e+003, 3.793443e-002
3.212825e+003, 3.858996e-002
3.214754e+003, 3.864871e-002
3.216682e+003, 3.814188e-002
3.218611e+003, 3.799368e-002
3.220539e+003, 3.858903e-002
3.222468e+003, 3.894739e-002
3.224396e+003, 3.908956e-002
3.226325e+003, 3.915625e-002
3.228253e+003, 3.934224e-002
3.230182e+003, 3.961410e-002
3.232110e+003, 3.974967e-002
3.234039e+003, 4.011593e-002
3.235967e+003, 4.042718e-002
3.237896e+003, 4.048240e-002
3.239824e+003, 4.075966e-002
3.241752e+003, 4.085701e-002
3.243681e+003, 4.079933e-002
3.245609e+003, 4.136812e-002
3.247538e+003, 4.145198e-002
3.249466e+003, 4.124754e-002
3.251395e+003, 4.160650e-002
3.253323e+003, 4.201891e-002
3.255252e+003, 4.221984e-002
3.257180e+003, 4.265855e-002
3.259109e+003, 4.287725e-002
3.261037e+003, 4.325940e-002
3.262966e+003, 4.386229e-002
3.264894e+003, 4.417823e-002
3.266823e+003, 4.416547e-002
3.268751e+003, 4.398575e-002
3.270679e+003, 4.424154e-002
3.272608e+003, 4.509712e-002
3.274536e+003, 4.540204e-002
3.276465e+003, 4.578042e-002
3.278393e+003, 4.609996e-002
3.280322e+003, 4.657274e-002
3.282250e+003, 4.682442e-002
3.284179e+003, 4.726379e-002
3.286107e+003, 4.753591e-002
3.288036e+003, 4.778099e-002
3.289964e+003, 4.781634e-002
3.291893e+003, 4.812376e-002
3.293821e+003, 4.886550e-002
3.295750e+003, 4.931757e-002
3.297678e+003, 4.965826e-002
3.299606e+003, 4.982743e-002
3.301535e+003, 4.965349e-002
3.303463e+003, 5.006668e-002
3.305392e+003, 5.052410e-002
3.307320e+003, 5.073168e-002
3.309249e+003, 5.148820e-002
3.311177e+003, 5.265056e-002
3.313106e+003, 5.340825e-002
3.315034e+003, 5.384784e-002
3.316963e+003, 5.390095e-002
3.318891e+003, 5.377225e-002
3.320820e+003, 5.429949e-002
3.322748e+003, 5.540546e-002
3.324677e+003, 5.707618e-002
3.326605e+003, 5.761965e-002
3.328533e+003, 5.761644e-002
3.330462e+003, 5.816991e-002
3.332390e+003, 5.877119e-002
3.334319e+003, 5.890416e-002
3.336247e+003, 5.956342e-002
3.338176e+003, 6.047527e-002
3.340104e+003, 6.158842e-002
3.342033e+003, 6.204287e-002
3.343961e+003, 6.224034e-002
3.345890e+003, 6.326723e-002
3.347818e+003, 6.410591e-002
3.349747e+003, 6.505925e-002
3.351675e+003, 6.578008e-002
3.353604e+003, 6.612732e-002
3.355532e+003, 6.676663e-002
3.357460e+003, 6.743019e-002
3.359389e+003, 6.844606e-002
3.361317e+003, 6.903300e-002
3.363246e+003, 6.877869e-002
3.365174e+003, 6.898246e-002
3.367103e+003, 6.978675e-002
3.369031e+003, 6.981395e-002
3.370960e+003, 7.051293e-002
3.372888e+003, 7.098173e-002
3.374817e+003, 7.146545e-002
3.376745e+003, 7.278135e-002
3.378674e+003, 7.379722e-002
3.380602e+003, 7.438152e-002
3.382531e+003, 7.541595e-002
3.384459e+003, 7.672815e-002
3.386387e+003, 7.813212e-002
3.388316e+003, 7.981753e-002
3.390244e+003, 8.190288e-002
3.392173e+003, 8.307161e-002
3.394101e+003, 8.472136e-002
3.396030e+003, 8.767214e-002
3.397958e+003, 9.044495e-002
3.399887e+003, 9.309740e-002
3.401815e+003, 9.627244e-002
3.403744e+003, 1.000222e-001
3.405672e+003, 1.040738e-001
3.407601e+003, 1.087868e-001
3.409529e+003, 1.147841e-001
3.411458e+003, 1.200439e-001
3.413386e+003, 1.253920e-001
3.415314e+003, 1.318218e-001
3.417243e+003, 1.385525e-001
3.419171e+003, 1.457354e-001
3.421100e+003, 1.528088e-001
3.423028e+003, 1.579200e-001
3.424957e+003, 1.602015e-001
3.426885e+003, 1.562465e-001
3.428814e+003, 1.469681e-001
3.430742e+003, 1.329290e-001
3.432671e+003, 1.166676e-001
3.434599e+003, 1.007854e-001
3.436528e+003, 8.581981e-002
3.438456e+003, 7.356439e-002
3.440385e+003, 6.467973e-002
3.442313e+003, 5.831123e-002
3.444241e+003, 5.383660e-002
3.446170e+003, 4.984685e-002
3.448098e+003, 4.700968e-002
3.450027e+003, 4.445526e-002
3.451955e+003, 4.208400e-002
3.453884e+003, 4.052435e-002
3.455812e+003, 3.936304e-002
3.457741e+003, 3.804528e-002
3.459669e+003, 3.701246e-002
3.461598e+003, 3.581170e-002
3.463526e+003, 3.562470e-002
3.465455e+003, 3.627723e-002
3.467383e+003, 3.552885e-002
3.469312e+003, 3.450229e-002
3.471240e+003, 3.392695e-002
3.473168e+003, 3.331507e-002
3.475097e+003, 3.314464e-002
3.477025e+003, 3.340188e-002
3.478954e+003, 3.286709e-002
3.480882e+003, 3.167842e-002
3.482811e+003, 3.100027e-002
3.484739e+003, 3.024957e-002
3.486668e+003, 2.922620e-002
3.488596e+003, 2.871923e-002
3.490525e+003, 2.876894e-002
3.492453e+003, 2.844333e-002
3.494382e+003, 2.761103e-002
3.496310e+003, 2.689501e-002
3.498239e+003, 2.667920e-002
3.500167e+003, 2.656763e-002
3.502095e+003, 2.589292e-002
3.504024e+003, 2.527644e-002
3.505952e+003, 2.554822e-002
3.507881e+003, 2.572125e-002
3.509809e+003, 2.502840e-002
3.511738e+003, 2.486284e-002
3.513666e+003, 2.447858e-002
3.515595e+003, 2.431518e-002
3.517523e+003, 2.383124e-002
3.519452e+003, 2.351091e-002
3.521380e+003, 2.333920e-002
3.523309e+003, 2.351747e-002
3.525237e+003, 2.351065e-002
3.527166e+003, 2.358796e-002
3.529094e+003, 2.346062e-002
3.531022e+003, 2.353712e-002
3.532951e+003, 2.374113e-002
3.534879e+003, 2.341047e-002
3.536808e+003, 2.299780e-002
3.538736e+003, 2.366641e-002
3.540665e+003, 2.426259e-002
3.542593e+003, 2.400585e-002
3.544522e+003, 2.385359e-002
3.546450e+003, 2.339428e-002
3.548379e+003, 2.357246e-002
3.550307e+003, 2.435914e-002
3.552236e+003, 2.409199e-002
3.554164e+003, 2.365155e-002
3.556093e+003, 2.310131e-002
3.558021e+003, 2.282511e-002
3.559949e+003, 2.330789e-002
3.561878e+003, 2.387367e-002
3.563806e+003, 2.441865e-002
3.565735e+003, 2.411167e-002
3.567663e+003, 2.344132e-002
3.569592e+003, 2.294002e-002
3.571520e+003, 2.315997e-002
3.573449e+003, 2.397708e-002
3.575377e+003, 2.391771e-002
3.577306e+003, 2.408445e-002
3.579234e+003, 2.433811e-002
3.581163e+003, 2.419032e-002
3.583091e+003, 2.387130e-002
3.585020e+003, 2.348047e-002
3.586948e+003, 2.358312e-002
3.588876e+003, 2.365459e-002
3.590805e+003, 2.451795e-002
3.592733e+003, 2.467236e-002
3.594662e+003, 2.402833e-002
3.596590e+003, 2.360538e-002
3.598519e+003, 2.245784e-002
3.600447e+003, 2.215077e-002
3.602376e+003, 2.340597e-002
3.604304e+003, 2.473593e-002
3.606233e+003, 2.512115e-002
3.608161e+003, 2.447469e-002
3.610090e+003, 2.348779e-002
3.612018e+003, 2.333500e-002
3.613947e+003, 2.359967e-002
3.615875e+003, 2.353540e-002
3.617803e+003, 2.375495e-002
3.619732e+003, 2.358522e-002
3.621660e+003, 2.374653e-002
3.623589e+003, 2.378026e-002
3.625517e+003, 2.392719e-002
3.627446e+003, 2.463847e-002
3.629374e+003, 2.491934e-002
3.631303e+003, 2.472248e-002
3.633231e+003, 2.511608e-002
3.635160e+003, 2.520308e-002
3.637088e+003, 2.472563e-002
3.639017e+003, 2.478050e-002
3.640945e+003, 2.488530e-002
3.642874e+003, 2.497402e-002
3.644802e+003, 2.513668e-002
3.646730e+003, 2.491110e-002
3.648659e+003, 2.503788e-002
3.650587e+003, 2.542288e-002
3.652516e+003, 2.500422e-002
3.654444e+003, 2.521893e-002
3.656373e+003, 2.555710e-002
3.658301e+003, 2.496280e-002
3.660230e+003, 2.460247e-002
3.662158e+003, 2.482987e-002
3.664087e+003, 2.525081e-002
3.666015e+003, 2.526755e-002
3.667944e+003, 2.567800e-002
3.669872e+003, 2.594200e-002
3.671801e+003, 2.529371e-002
3.673729e+003, 2.468059e-002
3.675657e+003, 2.562952e-002
3.677586e+003, 2.666362e-002
3.679514e+003, 2.615490e-002
3.681443e+003, 2.640013e-002
3.683371e+003, 2.579667e-002
3.685300e+003, 2.600861e-002
3.687228e+003, 2.622700e-002
3.689157e+003, 2.520551e-002
3.691085e+003, 2.453340e-002
3.693014e+003, 2.515492e-002
3.694942e+003, 2.551731e-002
3.696871e+003, 2.593752e-002
3.698799e+003, 2.697407e-002
3.700728e+003, 2.697293e-002
3.702656e+003, 2.657644e-002
3.704584e+003, 2.667428e-002
3.706513e+003, 2.670677e-002
3.708441e+003, 2.659724e-002
3.710370e+003, 2.641123e-002
3.712298e+003, 2.657938e-002
3.714227e+003, 2.690012e-002
3.716155e+003, 2.679026e-002
3.718084e+003, 2.711396e-002
3.720012e+003, 2.700531e-002
3.721941e+003, 2.670797e-002
3.723869e+003, 2.729054e-002
3.725798e+003, 2.804610e-002
3.727726e+003, 2.769231e-002
3.729655e+003, 2.666746e-002
3.731583e+003, 2.599573e-002
3.733511e+003, 2.649120e-002
3.735440e+003, 2.709352e-002
3.737368e+003, 2.708673e-002
3.739297e+003, 2.766105e-002
3.741225e+003, 2.765388e-002
3.743154e+003, 2.626766e-002
3.745082e+003, 2.600907e-002
3.747011e+003, 2.629082e-002
3.748939e+003, 2.644448e-002
3.750868e+003, 2.676646e-002
3.752796e+003, 2.697312e-002
3.754725e+003, 2.698230e-002
3.756653e+003, 2.749788e-002
3.758582e+003, 2.703079e-002
3.760510e+003, 2.730551e-002
3.762438e+003, 2.845016e-002
3.764367e+003, 2.880924e-002
3.766295e+003, 2.847424e-002
3.768224e+003, 2.799722e-002
3.770152e+003, 2.731214e-002
3.772081e+003, 2.750112e-002
3.774009e+003, 2.814375e-002
3.775938e+003, 2.718919e-002
3.777866e+003, 2.709821e-002
3.779795e+003, 2.768867e-002
3.781723e+003, 2.811561e-002
3.783652e+003, 2.803673e-002
3.785580e+003, 2.776358e-002
3.787509e+003, 2.781372e-002
3.789437e+003, 2.778651e-002
3.791365e+003, 2.761400e-002
3.793294e+003, 2.845865e-002
3.795222e+003, 2.869959e-002
3.797151e+003, 2.842435e-002
3.799079e+003, 2.880062e-002
3.801008e+003, 2.831639e-002
3.802936e+003, 2.798443e-002
3.804865e+003, 2.807479e-002
3.806793e+003, 2.796432e-002
3.808722e+003, 2.800351e-002
3.810650e+003, 2.788350e-002
3.812579e+003, 2.777441e-002
3.814507e+003, 2.774129e-002
3.816436e+003, 2.794602e-002
3.818364e+003, 2.829382e-002
3.820292e+003, 2.838717e-002
3.822221e+003, 2.810328e-002
3.824149e+003, 2.836672e-002
3.826078e+003, 2.872151e-002
3.828006e+003, 2.835056e-002
3.829935e+003, 2.824570e-002
3.831863e+003, 2.830706e-002
3.833792e+003, 2.820076e-002
3.835720e+003, 2.803502e-002
3.837649e+003, 2.864484e-002
3.839577e+003, 2.911087e-002
3.841506e+003, 2.884522e-002
3.843434e+003, 2.846054e-002
3.845363e+003, 2.790518e-002
3.847291e+003, 2.778761e-002
3.849219e+003, 2.757592e-002
3.851148e+003, 2.778913e-002
3.853076e+003, 2.838780e-002
3.855005e+003, 2.831133e-002
3.856933e+003, 2.866957e-002
3.858862e+003, 2.922794e-002
3.860790e+003, 2.895813e-002
3.862719e+003, 2.827999e-002
3.864647e+003, 2.835193e-002
3.866576e+003, 2.885594e-002
3.868504e+003, 2.852585e-002
3.870433e+003, 2.854502e-002
3.872361e+003, 2.881179e-002
3.874290e+003, 3.005413e-002
3.876218e+003, 3.050794e-002
3.878146e+003, 2.958689e-002
3.880075e+003, 2.881033e-002
3.882003e+003, 2.845741e-002
3.883932e+003, 2.885638e-002
3.885860e+003, 2.923408e-002
3.887789e+003, 2.864171e-002
3.889717e+003, 2.828341e-002
3.891646e+003, 2.861596e-002
3.893574e+003, 2.856519e-002
3.895503e+003, 2.827652e-002
3.897431e+003, 2.847450e-002
3.899360e+003, 2.942450e-002
3.901288e+003, 2.995645e-002
3.903217e+003, 2.979816e-002
3.905145e+003, 2.875866e-002
3.907073e+003, 2.869715e-002
3.909002e+003, 2.861081e-002
3.910930e+003, 2.926539e-002
3.912859e+003, 3.002101e-002
3.914787e+003, 2.954515e-002
3.916716e+003, 2.954491e-002
3.918644e+003, 2.960028e-002
3.920573e+003, 2.867026e-002
3.922501e+003, 2.845876e-002
3.924430e+003, 2.891006e-002
3.926358e+003, 2.946224e-002
3.928287e+003, 2.942891e-002
3.930215e+003, 2.919681e-002
3.932144e+003, 2.871897e-002
3.934072e+003, 2.850413e-002
3.936000e+003, 2.796627e-002
3.937929e+003, 2.798289e-002
3.939857e+003, 2.910949e-002
3.941786e+003, 2.918605e-002
3.943714e+003, 2.900229e-002
3.945643e+003, 2.946024e-002
3.947571e+003, 3.005105e-002
3.949500e+003, 2.977863e-002
3.951428e+003, 2.943884e-002
3.953357e+003, 2.909585e-002
3.955285e+003, 2.818336e-002
3.957214e+003, 2.801784e-002
3.959142e+003, 2.891442e-002
3.961071e+003, 2.926596e-002
3.962999e+003, 2.876593e-002
3.964927e+003, 2.865316e-002
3.966856e+003, 2.884939e-002
3.968784e+003, 2.885633e-002
3.970713e+003, 2.959215e-002
3.972641e+003, 2.960250e-002
3.974570e+003, 2.994983e-002
3.976498e+003, 3.047146e-002
3.978427e+003, 3.024502e-002
3.980355e+003, 2.944815e-002
3.982284e+003, 2.937853e-002
3.984212e+003, 2.966173e-002
3.986141e+003, 2.939073e-002
3.988069e+003, 2.980310e-002
3.989998e+003, 3.057639e-002
3.991926e+003, 3.021763e-002
3.993854e+003, 2.973325e-002
3.995783e+003, 2.967286e-002
3.997711e+003, 3.006747e-002
3.999640e+003, 3.063463e-002
##END=



