##NAMES=Barrerite
##RRUFFID=R050135
##IDEAL CHEMISTRY=Na_2_(Al_2_Si_7_)O_18_&#183;6H_2_O
##LOCALITY=Kuiu Island, Alaska, USA
##OWNER=RRUFF
##SOURCE=Ben Norton
##DESCRIPTION=Colorless laminar crystals
##STATUS=The identification of this mineral has been confirmed by X-ray diffraction and chemical analysis
##URL=rruff.info/R050135
##MEASURED CHEMISTRY=(Na_4.49_K_1.30_Ca_1.23_[box]_0.98_)_Σ=8_(Si_27.75_Al_8.25_)O_72_·19H_2_O
3.991926e+002, 1.933777e-001
4.011211e+002, 2.049339e-001
4.030495e+002, 2.045271e-001
4.049780e+002, 1.962713e-001
4.069065e+002, 1.957192e-001
4.088349e+002, 1.929535e-001
4.107634e+002, 1.944741e-001
4.126919e+002, 2.014979e-001
4.146203e+002, 2.030255e-001
4.165488e+002, 2.009822e-001
4.184773e+002, 2.054014e-001
4.204057e+002, 2.083263e-001
4.223342e+002, 2.072001e-001
4.242627e+002, 2.098652e-001
4.261911e+002, 2.155519e-001
4.281196e+002, 2.170120e-001
4.300481e+002, 2.188538e-001
4.319765e+002, 2.200811e-001
4.339050e+002, 2.204065e-001
4.358335e+002, 2.204015e-001
4.377619e+002, 2.169155e-001
4.396904e+002, 2.120353e-001
4.416189e+002, 2.076467e-001
4.435473e+002, 2.017911e-001
4.454758e+002, 1.966472e-001
4.474043e+002, 1.900474e-001
4.493327e+002, 1.856394e-001
4.512612e+002, 1.820170e-001
4.531897e+002, 1.773077e-001
4.551181e+002, 1.722283e-001
4.570466e+002, 1.671683e-001
4.589751e+002, 1.633602e-001
4.609035e+002, 1.599403e-001
4.628320e+002, 1.547907e-001
4.647605e+002, 1.499223e-001
4.666889e+002, 1.458960e-001
4.686174e+002, 1.416699e-001
4.705459e+002, 1.363714e-001
4.724743e+002, 1.317287e-001
4.744028e+002, 1.291432e-001
4.763313e+002, 1.271899e-001
4.782597e+002, 1.237694e-001
4.801882e+002, 1.206796e-001
4.821167e+002, 1.186513e-001
4.840451e+002, 1.175385e-001
4.859736e+002, 1.161153e-001
4.879021e+002, 1.136182e-001
4.898305e+002, 1.122021e-001
4.917590e+002, 1.116145e-001
4.936875e+002, 1.117750e-001
4.956159e+002, 1.118848e-001
4.975444e+002, 1.120020e-001
4.994729e+002, 1.118659e-001
5.014013e+002, 1.117946e-001
5.033298e+002, 1.115215e-001
5.052583e+002, 1.113684e-001
5.071867e+002, 1.104543e-001
5.091152e+002, 1.097571e-001
5.110437e+002, 1.097995e-001
5.129721e+002, 1.100135e-001
5.149006e+002, 1.100149e-001
5.168290e+002, 1.100269e-001
5.187575e+002, 1.098120e-001
5.206860e+002, 1.099286e-001
5.226144e+002, 1.105642e-001
5.245429e+002, 1.117579e-001
5.264714e+002, 1.133223e-001
5.283998e+002, 1.154740e-001
5.303283e+002, 1.172554e-001
5.322568e+002, 1.184700e-001
5.341852e+002, 1.201185e-001
5.361137e+002, 1.218884e-001
5.380422e+002, 1.240156e-001
5.399706e+002, 1.265277e-001
5.418991e+002, 1.285826e-001
5.438276e+002, 1.303620e-001
5.457560e+002, 1.316801e-001
5.476845e+002, 1.332868e-001
5.496130e+002, 1.345912e-001
5.515414e+002, 1.355230e-001
5.534699e+002, 1.364029e-001
5.553984e+002, 1.368151e-001
5.573268e+002, 1.367022e-001
5.592553e+002, 1.364946e-001
5.611838e+002, 1.364359e-001
5.631122e+002, 1.355476e-001
5.650407e+002, 1.335880e-001
5.669692e+002, 1.319788e-001
5.688976e+002, 1.307041e-001
5.708261e+002, 1.288972e-001
5.727546e+002, 1.264174e-001
5.746830e+002, 1.242057e-001
5.766115e+002, 1.215629e-001
5.785400e+002, 1.191818e-001
5.804684e+002, 1.165137e-001
5.823969e+002, 1.143287e-001
5.843254e+002, 1.120590e-001
5.862538e+002, 1.095971e-001
5.881823e+002, 1.072206e-001
5.901108e+002, 1.045957e-001
5.920392e+002, 1.027352e-001
5.939677e+002, 1.008862e-001
5.958962e+002, 9.780121e-002
5.978246e+002, 9.502945e-002
5.997531e+002, 9.224468e-002
6.016816e+002, 8.873719e-002
6.036100e+002, 8.529798e-002
6.055385e+002, 8.175994e-002
6.074670e+002, 7.762392e-002
6.093954e+002, 7.309083e-002
6.113239e+002, 6.884068e-002
6.132524e+002, 6.487894e-002
6.151808e+002, 6.138877e-002
6.171093e+002, 5.838839e-002
6.190378e+002, 5.545716e-002
6.209662e+002, 5.296779e-002
6.228947e+002, 5.097116e-002
6.248232e+002, 4.927287e-002
6.267516e+002, 4.795783e-002
6.286801e+002, 4.683466e-002
6.306086e+002, 4.579154e-002
6.325370e+002, 4.482260e-002
6.344655e+002, 4.415222e-002
6.363940e+002, 4.384307e-002
6.383224e+002, 4.389893e-002
6.402509e+002, 4.384130e-002
6.421794e+002, 4.324330e-002
6.441078e+002, 4.316331e-002
6.460363e+002, 4.329044e-002
6.479648e+002, 4.338192e-002
6.498932e+002, 4.373948e-002
6.518217e+002, 4.425191e-002
6.537502e+002, 4.447100e-002
6.556786e+002, 4.471756e-002
6.576071e+002, 4.503226e-002
6.595356e+002, 4.533100e-002
6.614641e+002, 4.581922e-002
6.633925e+002, 4.617565e-002
6.653210e+002, 4.655110e-002
6.672495e+002, 4.720269e-002
6.691779e+002, 4.732339e-002
6.711064e+002, 4.747973e-002
6.730349e+002, 4.791132e-002
6.749633e+002, 4.828812e-002
6.768918e+002, 4.856616e-002
6.788203e+002, 4.880514e-002
6.807487e+002, 4.901926e-002
6.826772e+002, 4.913973e-002
6.846057e+002, 4.946919e-002
6.865341e+002, 4.992605e-002
6.884626e+002, 5.048925e-002
6.903911e+002, 5.107780e-002
6.923195e+002, 5.200270e-002
6.942480e+002, 5.289161e-002
6.961765e+002, 5.360858e-002
6.981049e+002, 5.414974e-002
7.000334e+002, 5.460694e-002
7.019619e+002, 5.482433e-002
7.038903e+002, 5.548995e-002
7.058188e+002, 5.611969e-002
7.077473e+002, 5.640285e-002
7.096757e+002, 5.637480e-002
7.116042e+002, 5.639059e-002
7.135327e+002, 5.640924e-002
7.154611e+002, 5.602293e-002
7.173896e+002, 5.550865e-002
7.193181e+002, 5.510048e-002
7.212465e+002, 5.465208e-002
7.231750e+002, 5.406625e-002
7.251035e+002, 5.356779e-002
7.270319e+002, 5.323237e-002
7.289604e+002, 5.291099e-002
7.308889e+002, 5.234788e-002
7.328173e+002, 5.169336e-002
7.347458e+002, 5.119311e-002
7.366743e+002, 5.092266e-002
7.386027e+002, 5.071931e-002
7.405312e+002, 5.021602e-002
7.424597e+002, 4.944566e-002
7.443881e+002, 4.895621e-002
7.463166e+002, 4.863201e-002
7.482451e+002, 4.830340e-002
7.501735e+002, 4.787385e-002
7.521020e+002, 4.735908e-002
7.540305e+002, 4.690602e-002
7.559589e+002, 4.650434e-002
7.578874e+002, 4.621769e-002
7.598159e+002, 4.595308e-002
7.617443e+002, 4.552188e-002
7.636728e+002, 4.545211e-002
7.656013e+002, 4.551553e-002
7.675297e+002, 4.573904e-002
7.694582e+002, 4.593279e-002
7.713867e+002, 4.590195e-002
7.733151e+002, 4.604535e-002
7.752436e+002, 4.635752e-002
7.771721e+002, 4.646238e-002
7.791005e+002, 4.639703e-002
7.810290e+002, 4.583274e-002
7.829575e+002, 4.514151e-002
7.848859e+002, 4.457048e-002
7.868144e+002, 4.412031e-002
7.887429e+002, 4.367584e-002
7.906713e+002, 4.339553e-002
7.925998e+002, 4.313253e-002
7.945283e+002, 4.285244e-002
7.964567e+002, 4.276918e-002
7.983852e+002, 4.240993e-002
8.003137e+002, 4.149793e-002
8.022421e+002, 4.001524e-002
8.041706e+002, 3.833177e-002
8.060991e+002, 3.628886e-002
8.080275e+002, 3.400025e-002
8.099560e+002, 3.186390e-002
8.118845e+002, 2.985244e-002
8.138129e+002, 2.808925e-002
8.157414e+002, 2.634966e-002
8.176699e+002, 2.479830e-002
8.195983e+002, 2.354433e-002
8.215268e+002, 2.268970e-002
8.234553e+002, 2.193521e-002
8.253837e+002, 2.137509e-002
8.273122e+002, 2.087780e-002
8.292407e+002, 2.062505e-002
8.311691e+002, 2.048136e-002
8.330976e+002, 2.019480e-002
8.350261e+002, 2.021492e-002
8.369545e+002, 2.038418e-002
8.388830e+002, 2.039177e-002
8.408115e+002, 2.036376e-002
8.427399e+002, 2.061127e-002
8.446684e+002, 2.081499e-002
8.465969e+002, 2.108871e-002
8.485253e+002, 2.143771e-002
8.504538e+002, 2.177947e-002
8.523823e+002, 2.213743e-002
8.543107e+002, 2.258549e-002
8.562392e+002, 2.314403e-002
8.581677e+002, 2.379025e-002
8.600961e+002, 2.444656e-002
8.620246e+002, 2.522679e-002
8.639531e+002, 2.580756e-002
8.658815e+002, 2.622382e-002
8.678100e+002, 2.686831e-002
8.697385e+002, 2.755063e-002
8.716669e+002, 2.811855e-002
8.735954e+002, 2.876961e-002
8.755239e+002, 2.938077e-002
8.774523e+002, 2.989577e-002
8.793808e+002, 3.058030e-002
8.813093e+002, 3.140293e-002
8.832377e+002, 3.213748e-002
8.851662e+002, 3.280333e-002
8.870947e+002, 3.339633e-002
8.890231e+002, 3.411744e-002
8.909516e+002, 3.502878e-002
8.928801e+002, 3.612164e-002
8.948085e+002, 3.718938e-002
8.967370e+002, 3.819407e-002
8.986655e+002, 3.929736e-002
9.005939e+002, 4.028656e-002
9.025224e+002, 4.128984e-002
9.044509e+002, 4.261024e-002
9.063793e+002, 4.383046e-002
9.083078e+002, 4.485895e-002
9.102363e+002, 4.627476e-002
9.121647e+002, 4.790282e-002
9.140932e+002, 4.942711e-002
9.160217e+002, 5.098260e-002
9.179501e+002, 5.292930e-002
9.198786e+002, 5.500207e-002
9.218071e+002, 5.731693e-002
9.237355e+002, 5.970189e-002
9.256640e+002, 6.193455e-002
9.275925e+002, 6.449777e-002
9.295209e+002, 6.761578e-002
9.314494e+002, 7.086835e-002
9.333779e+002, 7.419722e-002
9.353063e+002, 7.804489e-002
9.372348e+002, 8.237351e-002
9.391633e+002, 8.694497e-002
9.410917e+002, 9.204651e-002
9.430202e+002, 9.776003e-002
9.449487e+002, 1.040073e-001
9.468771e+002, 1.108701e-001
9.488056e+002, 1.183485e-001
9.507341e+002, 1.264911e-001
9.526625e+002, 1.355684e-001
9.545910e+002, 1.453078e-001
9.565195e+002, 1.560426e-001
9.584479e+002, 1.678419e-001
9.603764e+002, 1.802424e-001
9.623049e+002, 1.935315e-001
9.642333e+002, 2.077112e-001
9.661618e+002, 2.223319e-001
9.680903e+002, 2.374098e-001
9.700187e+002, 2.528106e-001
9.719472e+002, 2.684306e-001
9.738757e+002, 2.838618e-001
9.758041e+002, 2.988685e-001
9.777326e+002, 3.130231e-001
9.796611e+002, 3.260399e-001
9.815895e+002, 3.382713e-001
9.835180e+002, 3.492751e-001
9.854465e+002, 3.587148e-001
9.873749e+002, 3.668510e-001
9.893034e+002, 3.738037e-001
9.912319e+002, 3.795382e-001
9.931603e+002, 3.841641e-001
9.950888e+002, 3.879309e-001
9.970173e+002, 3.912009e-001
9.989457e+002, 3.937968e-001
1.000874e+003, 3.956692e-001
1.002803e+003, 3.969608e-001
1.004731e+003, 3.976410e-001
1.006660e+003, 3.981715e-001
1.008588e+003, 3.984076e-001
1.010517e+003, 3.982460e-001
1.012445e+003, 3.978073e-001
1.014373e+003, 3.967110e-001
1.016302e+003, 3.951847e-001
1.018230e+003, 3.934335e-001
1.020159e+003, 3.910035e-001
1.022087e+003, 3.880024e-001
1.024016e+003, 3.843002e-001
1.025944e+003, 3.803233e-001
1.027873e+003, 3.758197e-001
1.029801e+003, 3.705158e-001
1.031730e+003, 3.645235e-001
1.033658e+003, 3.584251e-001
1.035587e+003, 3.522623e-001
1.037515e+003, 3.457478e-001
1.039443e+003, 3.388940e-001
1.041372e+003, 3.317435e-001
1.043300e+003, 3.244476e-001
1.045229e+003, 3.169248e-001
1.047157e+003, 3.094788e-001
1.049086e+003, 3.020529e-001
1.051014e+003, 2.944331e-001
1.052943e+003, 2.867058e-001
1.054871e+003, 2.786559e-001
1.056800e+003, 2.707434e-001
1.058728e+003, 2.628118e-001
1.060657e+003, 2.545364e-001
1.062585e+003, 2.457632e-001
1.064514e+003, 2.368345e-001
1.066442e+003, 2.278017e-001
1.068370e+003, 2.185731e-001
1.070299e+003, 2.094907e-001
1.072227e+003, 2.004240e-001
1.074156e+003, 1.915999e-001
1.076084e+003, 1.832977e-001
1.078013e+003, 1.753565e-001
1.079941e+003, 1.680516e-001
1.081870e+003, 1.613453e-001
1.083798e+003, 1.551401e-001
1.085727e+003, 1.494453e-001
1.087655e+003, 1.443159e-001
1.089584e+003, 1.398486e-001
1.091512e+003, 1.357467e-001
1.093441e+003, 1.319308e-001
1.095369e+003, 1.285334e-001
1.097297e+003, 1.257050e-001
1.099226e+003, 1.231864e-001
1.101154e+003, 1.207073e-001
1.103083e+003, 1.186696e-001
1.105011e+003, 1.172105e-001
1.106940e+003, 1.162039e-001
1.108868e+003, 1.154764e-001
1.110797e+003, 1.148718e-001
1.112725e+003, 1.146402e-001
1.114654e+003, 1.145694e-001
1.116582e+003, 1.146454e-001
1.118511e+003, 1.150277e-001
1.120439e+003, 1.156371e-001
1.122368e+003, 1.163977e-001
1.124296e+003, 1.169870e-001
1.126224e+003, 1.175301e-001
1.128153e+003, 1.181406e-001
1.130081e+003, 1.188047e-001
1.132010e+003, 1.192831e-001
1.133938e+003, 1.197946e-001
1.135867e+003, 1.199739e-001
1.137795e+003, 1.195490e-001
1.139724e+003, 1.190464e-001
1.141652e+003, 1.184859e-001
1.143581e+003, 1.174998e-001
1.145509e+003, 1.162163e-001
1.147438e+003, 1.146289e-001
1.149366e+003, 1.129715e-001
1.151295e+003, 1.112767e-001
1.153223e+003, 1.092212e-001
1.155151e+003, 1.069321e-001
1.157080e+003, 1.046210e-001
1.159008e+003, 1.025182e-001
1.160937e+003, 1.004518e-001
1.162865e+003, 9.829040e-002
1.164794e+003, 9.613380e-002
1.166722e+003, 9.416090e-002
1.168651e+003, 9.219035e-002
1.170579e+003, 9.021485e-002
1.172508e+003, 8.837064e-002
1.174436e+003, 8.647934e-002
1.176365e+003, 8.471981e-002
1.178293e+003, 8.301760e-002
1.180222e+003, 8.114108e-002
1.182150e+003, 7.927895e-002
1.184078e+003, 7.736152e-002
1.186007e+003, 7.523111e-002
1.187935e+003, 7.293555e-002
1.189864e+003, 7.055752e-002
1.191792e+003, 6.784254e-002
1.193721e+003, 6.470044e-002
1.195649e+003, 6.147347e-002
1.197578e+003, 5.823202e-002
1.199506e+003, 5.477766e-002
1.201435e+003, 5.125630e-002
1.203363e+003, 4.772381e-002
1.205292e+003, 4.421026e-002
1.207220e+003, 4.070193e-002
1.209149e+003, 3.740619e-002
1.211077e+003, 3.423792e-002
1.213005e+003, 3.137494e-002
1.214934e+003, 2.871200e-002
1.216862e+003, 2.624726e-002
1.218791e+003, 2.407230e-002
1.220719e+003, 2.203549e-002
1.222648e+003, 2.040556e-002
1.224576e+003, 1.894324e-002
1.226505e+003, 1.753324e-002
1.228433e+003, 1.616312e-002
1.230362e+003, 1.509857e-002
1.232290e+003, 1.430050e-002
1.234219e+003, 1.345173e-002
1.236147e+003, 1.254161e-002
1.238076e+003, 1.180746e-002
1.240004e+003, 1.123639e-002
1.241932e+003, 1.066740e-002
1.243861e+003, 1.019994e-002
1.245789e+003, 9.744696e-003
1.247718e+003, 9.253546e-003
1.249646e+003, 8.733990e-003
1.251575e+003, 8.331963e-003
1.253503e+003, 8.041583e-003
1.255432e+003, 7.802166e-003
1.257360e+003, 7.507607e-003
1.259289e+003, 7.142692e-003
1.261217e+003, 6.902427e-003
1.263146e+003, 6.733056e-003
1.265074e+003, 6.534656e-003
1.267003e+003, 6.315486e-003
1.268931e+003, 6.083090e-003
1.270859e+003, 5.865293e-003
1.272788e+003, 5.745968e-003
1.274716e+003, 5.684610e-003
1.276645e+003, 5.596473e-003
1.278573e+003, 5.443497e-003
1.280502e+003, 5.314152e-003
1.282430e+003, 5.237704e-003
1.284359e+003, 5.210621e-003
1.286287e+003, 5.050710e-003
1.288216e+003, 4.854003e-003
1.290144e+003, 4.663447e-003
1.292073e+003, 4.624621e-003
1.294001e+003, 4.786825e-003
1.295930e+003, 4.628608e-003
1.297858e+003, 4.391944e-003
1.299786e+003, 4.358681e-003
1.301715e+003, 4.334996e-003
1.303643e+003, 4.354877e-003
1.305572e+003, 4.222376e-003
1.307500e+003, 3.989159e-003
1.309429e+003, 3.924405e-003
1.311357e+003, 3.922411e-003
1.313286e+003, 3.981513e-003
1.315214e+003, 3.911245e-003
1.317143e+003, 3.801841e-003
1.319071e+003, 3.604723e-003
1.321000e+003, 3.613707e-003
1.322928e+003, 3.663813e-003
1.324857e+003, 3.622029e-003
1.326785e+003, 3.636601e-003
1.328714e+003, 3.488381e-003
1.330642e+003, 3.475675e-003
1.332570e+003, 3.625052e-003
1.334499e+003, 3.560104e-003
1.336427e+003, 3.508111e-003
1.338356e+003, 3.425174e-003
1.340284e+003, 3.389527e-003
1.342213e+003, 3.498161e-003
1.344141e+003, 3.366212e-003
1.346070e+003, 3.202743e-003
1.347998e+003, 3.089483e-003
1.349927e+003, 3.140463e-003
1.351855e+003, 3.278855e-003
1.353784e+003, 3.254373e-003
1.355712e+003, 3.173350e-003
1.357641e+003, 3.272731e-003
1.359569e+003, 3.340459e-003
1.361497e+003, 3.259352e-003
1.363426e+003, 3.192095e-003
1.365354e+003, 3.184439e-003
1.367283e+003, 3.131306e-003
1.369211e+003, 3.166761e-003
1.371140e+003, 3.080820e-003
1.373068e+003, 2.942158e-003
1.374997e+003, 3.103096e-003
1.376925e+003, 3.280019e-003
1.378854e+003, 3.215644e-003
1.380782e+003, 3.125239e-003
1.382711e+003, 3.201617e-003
1.384639e+003, 3.240514e-003
1.386568e+003, 3.156614e-003
1.388496e+003, 3.028556e-003
1.390424e+003, 3.004221e-003
1.392353e+003, 3.150999e-003
1.394281e+003, 3.311537e-003
1.396210e+003, 3.358386e-003
1.398138e+003, 3.247962e-003
1.400067e+003, 3.077616e-003
1.401995e+003, 3.133387e-003
1.403924e+003, 3.204262e-003
1.405852e+003, 3.168712e-003
1.407781e+003, 3.240520e-003
1.409709e+003, 3.262698e-003
1.411638e+003, 3.297097e-003
1.413566e+003, 3.271080e-003
1.415495e+003, 3.189068e-003
1.417423e+003, 3.252125e-003
1.419351e+003, 3.349539e-003
1.421280e+003, 3.289078e-003
1.423208e+003, 3.355497e-003
1.425137e+003, 3.367673e-003
1.427065e+003, 3.228805e-003
1.428994e+003, 3.147214e-003
1.430922e+003, 3.314388e-003
1.432851e+003, 3.284773e-003
1.434779e+003, 3.225345e-003
1.436708e+003, 3.270013e-003
1.438636e+003, 3.222884e-003
1.440565e+003, 3.101371e-003
1.442493e+003, 3.115606e-003
1.444422e+003, 3.321122e-003
1.446350e+003, 3.341307e-003
1.448278e+003, 3.219574e-003
1.450207e+003, 3.163293e-003
1.452135e+003, 3.127316e-003
1.454064e+003, 3.175140e-003
1.455992e+003, 3.374915e-003
1.457921e+003, 3.361313e-003
1.459849e+003, 3.061726e-003
1.461778e+003, 2.991850e-003
1.463706e+003, 3.067958e-003
1.465635e+003, 3.006130e-003
1.467563e+003, 2.763763e-003
1.469492e+003, 2.651417e-003
1.471420e+003, 2.773717e-003
1.473349e+003, 2.817797e-003
1.475277e+003, 2.753992e-003
1.477205e+003, 2.687836e-003
1.479134e+003, 2.519371e-003
1.481062e+003, 2.509161e-003
1.482991e+003, 2.638674e-003
1.484919e+003, 2.687603e-003
1.486848e+003, 2.670470e-003
1.488776e+003, 2.590831e-003
1.490705e+003, 2.406865e-003
1.492633e+003, 2.459973e-003
1.494562e+003, 2.432589e-003
1.496490e+003, 2.403087e-003
1.498419e+003, 2.523546e-003
1.500347e+003, 2.748161e-003
1.502276e+003, 2.567134e-003
1.504204e+003, 2.637438e-003
1.506132e+003, 2.899666e-003
1.508061e+003, 2.832162e-003
1.509989e+003, 2.709385e-003
1.511918e+003, 2.606024e-003
1.513846e+003, 2.500192e-003
1.515775e+003, 2.657015e-003
1.517703e+003, 2.636677e-003
1.519632e+003, 2.689429e-003
1.521560e+003, 2.939048e-003
1.523489e+003, 3.022291e-003
1.525417e+003, 3.050805e-003
1.527346e+003, 3.082230e-003
1.529274e+003, 3.071780e-003
1.531203e+003, 2.966961e-003
1.533131e+003, 3.022350e-003
1.535059e+003, 3.100701e-003
1.536988e+003, 3.183150e-003
1.538916e+003, 3.500876e-003
1.540845e+003, 3.535302e-003
1.542773e+003, 3.393909e-003
1.544702e+003, 3.483732e-003
1.546630e+003, 3.682309e-003
1.548559e+003, 3.929937e-003
1.550487e+003, 3.950351e-003
1.552416e+003, 3.893044e-003
1.554344e+003, 3.947471e-003
1.556273e+003, 4.164657e-003
1.558201e+003, 4.440117e-003
1.560130e+003, 4.507123e-003
1.562058e+003, 4.310384e-003
1.563986e+003, 4.369703e-003
1.565915e+003, 4.744707e-003
1.567843e+003, 4.737337e-003
1.569772e+003, 4.673531e-003
1.571700e+003, 4.841385e-003
1.573629e+003, 5.001101e-003
1.575557e+003, 5.217577e-003
1.577486e+003, 5.636807e-003
1.579414e+003, 5.882462e-003
1.581343e+003, 6.000020e-003
1.583271e+003, 6.281639e-003
1.585200e+003, 6.479839e-003
1.587128e+003, 6.607408e-003
1.589057e+003, 6.818113e-003
1.590985e+003, 7.077154e-003
1.592913e+003, 7.623499e-003
1.594842e+003, 8.097249e-003
1.596770e+003, 8.453371e-003
1.598699e+003, 9.172495e-003
1.600627e+003, 9.828377e-003
1.602556e+003, 1.055879e-002
1.604484e+003, 1.137950e-002
1.606413e+003, 1.240125e-002
1.608341e+003, 1.359558e-002
1.610270e+003, 1.506143e-002
1.612198e+003, 1.650160e-002
1.614127e+003, 1.799696e-002
1.616055e+003, 1.982726e-002
1.617984e+003, 2.195876e-002
1.619912e+003, 2.434224e-002
1.621840e+003, 2.662509e-002
1.623769e+003, 2.878540e-002
1.625697e+003, 3.098880e-002
1.627626e+003, 3.294582e-002
1.629554e+003, 3.449161e-002
1.631483e+003, 3.569094e-002
1.633411e+003, 3.631504e-002
1.635340e+003, 3.659695e-002
1.637268e+003, 3.654654e-002
1.639197e+003, 3.604277e-002
1.641125e+003, 3.515797e-002
1.643054e+003, 3.436234e-002
1.644982e+003, 3.347732e-002
1.646911e+003, 3.229823e-002
1.648839e+003, 3.095805e-002
1.650767e+003, 2.965908e-002
1.652696e+003, 2.843712e-002
1.654624e+003, 2.700781e-002
1.656553e+003, 2.545365e-002
1.658481e+003, 2.411376e-002
1.660410e+003, 2.261342e-002
1.662338e+003, 2.131820e-002
1.664267e+003, 2.001967e-002
1.666195e+003, 1.877301e-002
1.668124e+003, 1.780461e-002
1.670052e+003, 1.647705e-002
1.671981e+003, 1.520472e-002
1.673909e+003, 1.431387e-002
1.675838e+003, 1.347709e-002
1.677766e+003, 1.274886e-002
1.679694e+003, 1.172757e-002
1.681623e+003, 1.075727e-002
1.683551e+003, 1.029536e-002
1.685480e+003, 9.620170e-003
1.687408e+003, 8.754423e-003
1.689337e+003, 7.982270e-003
1.691265e+003, 7.443089e-003
1.693194e+003, 7.104696e-003
1.695122e+003, 6.719356e-003
1.697051e+003, 6.486545e-003
1.698979e+003, 6.125824e-003
1.700908e+003, 5.536272e-003
1.702836e+003, 4.921880e-003
1.704765e+003, 4.575155e-003
1.706693e+003, 4.276372e-003
1.708621e+003, 4.088976e-003
1.710550e+003, 3.731217e-003
1.712478e+003, 3.361019e-003
1.714407e+003, 3.119585e-003
1.716335e+003, 3.003170e-003
1.718264e+003, 2.750438e-003
1.720192e+003, 2.413674e-003
1.722121e+003, 2.252543e-003
1.724049e+003, 2.084048e-003
1.725978e+003, 1.927881e-003
1.727906e+003, 1.612047e-003
1.729835e+003, 1.198328e-003
1.731763e+003, 1.134890e-003
1.733692e+003, 1.323083e-003
1.735620e+003, 1.130996e-003
1.737548e+003, 6.417284e-004
1.739477e+003, 5.169819e-004
1.741405e+003, 4.860240e-004
1.743334e+003, 4.070277e-004
1.745262e+003, 1.447283e-004
1.747191e+003, 6.510496e-006
1.749119e+003, -4.513713e-005
1.751048e+003, 1.796482e-004
1.752976e+003, 3.317767e-004
1.754905e+003, 2.776323e-004
1.756833e+003, 1.309716e-004
1.758762e+003, 3.926132e-005
1.760690e+003, 1.493972e-004
1.762619e+003, 3.394099e-004
1.764547e+003, 2.262542e-004
1.766475e+003, -2.064629e-005
1.768404e+003, 3.733622e-005
1.770332e+003, 1.645599e-004
1.772261e+003, 3.035370e-004
1.774189e+003, 3.932589e-004
1.776118e+003, 2.187614e-004
1.778046e+003, 7.799166e-005
1.779975e+003, 1.125025e-005
1.781903e+003, -4.789612e-005
1.783832e+003, 1.716423e-004
1.785760e+003, 2.109472e-004
1.787689e+003, -7.098803e-005
1.789617e+003, -8.683599e-005
1.791546e+003, -3.651901e-006
1.793474e+003, -1.088286e-004
1.795402e+003, -9.359908e-005
1.797331e+003, -1.377607e-004
1.799259e+003, -1.073888e-004
1.801188e+003, -2.528402e-005
1.803116e+003, -1.132443e-004
1.805045e+003, -2.273918e-004
1.806973e+003, -5.359405e-004
1.808902e+003, -5.055441e-004
1.810830e+003, -4.042606e-004
1.812759e+003, -4.394462e-004
1.814687e+003, -3.345126e-004
1.816616e+003, -3.278855e-004
1.818544e+003, -4.385633e-004
1.820473e+003, -2.293243e-004
1.822401e+003, -5.237134e-005
1.824329e+003, -1.210217e-004
1.826258e+003, -3.377705e-004
1.828186e+003, -5.897359e-004
1.830115e+003, -7.224354e-004
1.832043e+003, -7.507852e-004
1.833972e+003, -6.475214e-004
1.835900e+003, -2.619634e-004
1.837829e+003, -4.893209e-004
1.839757e+003, -5.838837e-004
1.841686e+003, -3.534262e-004
1.843614e+003, -6.281402e-004
1.845543e+003, -9.558616e-004
1.847471e+003, -9.696925e-004
1.849400e+003, -1.211252e-003
1.851328e+003, -1.415828e-003
1.853256e+003, -9.560847e-004
1.855185e+003, -8.021056e-004
1.857113e+003, -9.715918e-004
1.859042e+003, -9.303247e-004
1.860970e+003, -1.252531e-003
1.862899e+003, -1.293569e-003
1.864827e+003, -5.134039e-004
1.866756e+003, -8.525961e-005
1.868684e+003, -4.941631e-004
1.870613e+003, -1.070835e-003
1.872541e+003, -1.416181e-003
1.874470e+003, -1.215235e-003
1.876398e+003, -1.138323e-003
1.878327e+003, -1.244240e-003
1.880255e+003, -1.224720e-003
1.882183e+003, -1.146109e-003
1.884112e+003, -1.175625e-003
1.886040e+003, -1.224224e-003
1.887969e+003, -1.263014e-003
1.889897e+003, -1.627795e-003
1.891826e+003, -1.772423e-003
1.893754e+003, -1.398159e-003
1.895683e+003, -1.347568e-003
1.897611e+003, -1.512126e-003
1.899540e+003, -1.674935e-003
1.901468e+003, -1.676036e-003
1.903397e+003, -1.227864e-003
1.905325e+003, -9.727799e-004
1.907254e+003, -8.375221e-004
1.909182e+003, -1.303942e-003
1.911110e+003, -1.686984e-003
1.913039e+003, -1.574356e-003
1.914967e+003, -1.639131e-003
1.916896e+003, -1.833218e-003
1.918824e+003, -1.457785e-003
1.920753e+003, -1.256239e-003
1.922681e+003, -1.761363e-003
1.924610e+003, -2.232619e-003
1.926538e+003, -2.204615e-003
1.928467e+003, -2.289294e-003
1.930395e+003, -2.228656e-003
1.932324e+003, -2.002608e-003
1.934252e+003, -2.431177e-003
1.936181e+003, -2.606780e-003
1.938109e+003, -2.018335e-003
1.940037e+003, -1.682007e-003
1.941966e+003, -1.681984e-003
1.943894e+003, -1.494176e-003
1.945823e+003, -2.101370e-003
1.947751e+003, -3.002747e-003
1.949680e+003, -3.202197e-003
1.951608e+003, -3.534714e-003
1.953537e+003, -3.910146e-003
1.955465e+003, -3.586330e-003
1.957394e+003, -2.656517e-003
1.959322e+003, -2.466555e-003
1.961251e+003, -2.577732e-003
1.963179e+003, -3.227897e-003
1.965108e+003, -3.600247e-003
1.967036e+003, -4.098934e-003
1.968964e+003, -3.705290e-003
1.970893e+003, -3.396221e-003
1.972821e+003, -4.244742e-003
1.974750e+003, -5.194320e-003
1.976678e+003, -3.794545e-003
1.978607e+003, -1.216448e-003
1.980535e+003, -1.881194e-003
1.982464e+003, -3.426622e-003
1.984392e+003, -4.106171e-003
1.986321e+003, -4.681182e-003
1.988249e+003, -4.016761e-003
1.990178e+003, -2.995572e-003
1.992106e+003, -3.225674e-003
1.994035e+003, -3.904515e-003
1.995963e+003, -4.650874e-003
1.997891e+003, -4.811177e-003
1.999820e+003, -4.505871e-003
2.001748e+003, -3.764160e-003
2.003677e+003, -4.740794e-003
2.005605e+003, -5.132239e-003
2.007534e+003, -4.244092e-003
2.009462e+003, -4.080584e-003
2.011391e+003, -4.587907e-003
2.013319e+003, -4.568583e-003
2.015248e+003, -4.498707e-003
2.017176e+003, -4.722841e-003
2.019105e+003, -5.335864e-003
2.021033e+003, -5.937879e-003
2.022962e+003, -5.384979e-003
2.024890e+003, -4.386622e-003
2.026818e+003, -4.232802e-003
2.028747e+003, -5.150809e-003
2.030675e+003, -5.348377e-003
2.032604e+003, -3.563570e-003
2.034532e+003, -2.781601e-003
2.036461e+003, -3.621184e-003
2.038389e+003, -3.661380e-003
2.040318e+003, -3.191301e-003
2.042246e+003, -3.298976e-003
2.044175e+003, -3.541043e-003
2.046103e+003, -3.838886e-003
2.048031e+003, -3.745441e-003
2.049960e+003, -3.696806e-003
2.051888e+003, -3.634921e-003
2.053817e+003, -3.823964e-003
2.055745e+003, -3.782746e-003
2.057674e+003, -4.093435e-003
2.059602e+003, -4.342999e-003
2.061531e+003, -4.086584e-003
2.063459e+003, -3.928466e-003
2.065388e+003, -4.750815e-003
2.067316e+003, -5.396983e-003
2.069245e+003, -5.564118e-003
2.071173e+003, -4.826467e-003
2.073102e+003, -4.460682e-003
2.075030e+003, -4.023641e-003
2.076958e+003, -3.315269e-003
2.078887e+003, -3.146527e-003
2.080815e+003, -3.364182e-003
2.082744e+003, -3.805212e-003
2.084672e+003, -4.153068e-003
2.086601e+003, -4.767813e-003
2.088529e+003, -4.809264e-003
2.090458e+003, -4.881827e-003
2.092386e+003, -5.144558e-003
2.094315e+003, -4.739068e-003
2.096243e+003, -4.318433e-003
2.098172e+003, -3.990869e-003
2.100100e+003, -3.463391e-003
2.102029e+003, -3.089534e-003
2.103957e+003, -3.137467e-003
2.105885e+003, -3.715497e-003
2.107814e+003, -4.317489e-003
2.109742e+003, -3.869687e-003
2.111671e+003, -3.435262e-003
2.113599e+003, -2.995074e-003
2.115528e+003, -3.307775e-003
2.117456e+003, -3.946294e-003
2.119385e+003, -3.830524e-003
2.121313e+003, -3.831848e-003
2.123242e+003, -4.170150e-003
2.125170e+003, -4.128450e-003
2.127099e+003, -4.063962e-003
2.129027e+003, -4.532283e-003
2.130956e+003, -4.879447e-003
2.132884e+003, -4.510168e-003
2.134813e+003, -3.631042e-003
2.136741e+003, -4.083489e-003
2.138669e+003, -3.776151e-003
2.140598e+003, -2.377572e-003
2.142526e+003, -1.450617e-003
2.144455e+003, -1.688530e-003
2.146383e+003, -2.023493e-003
2.148312e+003, -1.823589e-003
2.150240e+003, -3.411323e-004
2.152169e+003, -3.481042e-004
2.154097e+003, -1.857161e-003
2.156026e+003, -2.414149e-003
2.157954e+003, -5.797679e-004
2.159883e+003, 2.127947e-003
2.161811e+003, 3.553436e-003
2.163740e+003, 2.491120e-003
2.165668e+003, 1.381845e-003
2.167596e+003, 5.998393e-004
2.169525e+003, 8.738772e-004
2.171453e+003, 1.684091e-003
2.173382e+003, 1.553804e-003
2.175310e+003, 1.605737e-003
2.177239e+003, 4.229704e-004
2.179167e+003, -2.478519e-004
2.181096e+003, 1.202106e-003
2.183024e+003, 8.461503e-004
2.184953e+003, 6.168694e-004
2.186881e+003, 1.788329e-003
2.188810e+003, 1.566884e-003
2.190738e+003, 1.475765e-003
2.192667e+003, 1.370709e-003
2.194595e+003, 1.203935e-003
2.196523e+003, 1.058758e-003
2.198452e+003, 1.081855e-003
2.200380e+003, 9.258010e-004
2.202309e+003, 4.158029e-004
2.204237e+003, 7.804320e-005
2.206166e+003, -3.423211e-004
2.208094e+003, -6.452280e-004
2.210023e+003, -3.920109e-004
2.211951e+003, 3.313180e-007
2.213880e+003, -3.702035e-004
2.215808e+003, -5.276720e-004
2.217737e+003, -2.758601e-004
2.219665e+003, -7.569145e-004
2.221594e+003, -1.331979e-003
2.223522e+003, -1.046786e-003
2.225450e+003, 2.038742e-004
2.227379e+003, 2.160189e-004
2.229307e+003, -6.984612e-004
2.231236e+003, -6.699672e-004
2.233164e+003, -2.218396e-004
2.235093e+003, -1.187462e-004
2.237021e+003, -1.606229e-004
2.238950e+003, -2.287098e-004
2.240878e+003, -5.525765e-004
2.242807e+003, -1.176613e-003
2.244735e+003, -1.158555e-003
2.246664e+003, -9.340663e-004
2.248592e+003, -8.367475e-004
2.250521e+003, -1.871107e-003
2.252449e+003, -2.048511e-003
2.254377e+003, -1.355523e-003
2.256306e+003, -1.235756e-003
2.258234e+003, -1.161484e-003
2.260163e+003, -6.351729e-004
2.262091e+003, -8.992751e-004
2.264020e+003, -1.622636e-003
2.265948e+003, -1.390004e-003
2.267877e+003, -6.913380e-004
2.269805e+003, -1.399910e-003
2.271734e+003, -1.849118e-003
2.273662e+003, -1.403813e-003
2.275591e+003, -1.418548e-003
2.277519e+003, -1.861594e-003
2.279448e+003, -2.107357e-003
2.281376e+003, -1.925010e-003
2.283304e+003, -1.945354e-003
2.285233e+003, -1.763668e-003
2.287161e+003, -1.724227e-003
2.289090e+003, -2.033980e-003
2.291018e+003, -1.619989e-003
2.292947e+003, -1.729625e-003
2.294875e+003, -2.446108e-003
2.296804e+003, -2.743856e-003
2.298732e+003, -2.772773e-003
2.300661e+003, -2.773344e-003
2.302589e+003, -2.913204e-003
2.304518e+003, -2.841565e-003
2.306446e+003, -2.881928e-003
2.308375e+003, -3.051313e-003
2.310303e+003, -2.662452e-003
2.312231e+003, -2.466222e-003
2.314160e+003, -2.637733e-003
2.316088e+003, -2.592397e-003
2.318017e+003, -2.616706e-003
2.319945e+003, -2.662007e-003
2.321874e+003, -2.317520e-003
2.323802e+003, -2.363264e-003
2.325731e+003, -2.934390e-003
2.327659e+003, -3.314431e-003
2.329588e+003, -3.433489e-003
2.331516e+003, -3.355614e-003
2.333445e+003, -3.142433e-003
2.335373e+003, -3.111853e-003
2.337302e+003, -3.389872e-003
2.339230e+003, -3.732793e-003
2.341158e+003, -3.604807e-003
2.343087e+003, -3.247003e-003
2.345015e+003, -3.455652e-003
2.346944e+003, -3.720009e-003
2.348872e+003, -3.932745e-003
2.350801e+003, -3.983594e-003
2.352729e+003, -3.403158e-003
2.354658e+003, -2.903312e-003
2.356586e+003, -3.060849e-003
2.358515e+003, -3.337618e-003
2.360443e+003, -3.264386e-003
2.362372e+003, -3.214095e-003
2.364300e+003, -2.890889e-003
2.366229e+003, -3.004256e-003
2.368157e+003, -3.676080e-003
2.370085e+003, -3.816698e-003
2.372014e+003, -3.624410e-003
2.373942e+003, -3.497398e-003
2.375871e+003, -3.265145e-003
2.377799e+003, -3.547244e-003
2.379728e+003, -3.863908e-003
2.381656e+003, -3.553831e-003
2.383585e+003, -3.115437e-003
2.385513e+003, -3.231666e-003
2.387442e+003, -3.426704e-003
2.389370e+003, -3.841107e-003
2.391299e+003, -3.792903e-003
2.393227e+003, -3.532124e-003
2.395156e+003, -3.393913e-003
2.397084e+003, -3.581388e-003
2.399012e+003, -3.476984e-003
2.400941e+003, -3.221731e-003
2.402869e+003, -2.955726e-003
2.404798e+003, -3.331215e-003
2.406726e+003, -3.753581e-003
2.408655e+003, -3.528493e-003
2.410583e+003, -3.049285e-003
2.412512e+003, -2.776117e-003
2.414440e+003, -3.059454e-003
2.416369e+003, -3.167697e-003
2.418297e+003, -2.946882e-003
2.420226e+003, -3.162049e-003
2.422154e+003, -3.011585e-003
2.424083e+003, -3.037462e-003
2.426011e+003, -3.094670e-003
2.427939e+003, -2.980099e-003
2.429868e+003, -2.759342e-003
2.431796e+003, -2.664535e-003
2.433725e+003, -2.715222e-003
2.435653e+003, -3.158218e-003
2.437582e+003, -3.389432e-003
2.439510e+003, -3.447128e-003
2.441439e+003, -3.076966e-003
2.443367e+003, -2.688869e-003
2.445296e+003, -2.520947e-003
2.447224e+003, -2.236371e-003
2.449153e+003, -2.308891e-003
2.451081e+003, -2.804741e-003
2.453010e+003, -2.295160e-003
2.454938e+003, -1.498753e-003
2.456866e+003, -1.771870e-003
2.458795e+003, -2.354942e-003
2.460723e+003, -2.380855e-003
2.462652e+003, -2.239399e-003
2.464580e+003, -2.542203e-003
2.466509e+003, -2.666789e-003
2.468437e+003, -2.805270e-003
2.470366e+003, -2.722707e-003
2.472294e+003, -2.439478e-003
2.474223e+003, -2.936742e-003
2.476151e+003, -2.897535e-003
2.478080e+003, -2.354059e-003
2.480008e+003, -2.316603e-003
2.481937e+003, -1.994070e-003
2.483865e+003, -2.124809e-003
2.485793e+003, -2.572866e-003
2.487722e+003, -2.470330e-003
2.489650e+003, -2.743608e-003
2.491579e+003, -2.981617e-003
2.493507e+003, -2.775199e-003
2.495436e+003, -2.095281e-003
2.497364e+003, -1.854969e-003
2.499293e+003, -1.517911e-003
2.501221e+003, -1.670581e-003
2.503150e+003, -2.005684e-003
2.505078e+003, -2.409951e-003
2.507007e+003, -2.962385e-003
2.508935e+003, -2.808711e-003
2.510864e+003, -2.348658e-003
2.512792e+003, -2.017689e-003
2.514720e+003, -1.783908e-003
2.516649e+003, -1.850286e-003
2.518577e+003, -2.161873e-003
2.520506e+003, -2.596156e-003
2.522434e+003, -2.492329e-003
2.524363e+003, -2.409513e-003
2.526291e+003, -2.474488e-003
2.528220e+003, -2.431728e-003
2.530148e+003, -1.960718e-003
2.532077e+003, -1.741757e-003
2.534005e+003, -1.904249e-003
2.535934e+003, -1.854024e-003
2.537862e+003, -2.023795e-003
2.539791e+003, -2.673483e-003
2.541719e+003, -3.038608e-003
2.543647e+003, -3.087637e-003
2.545576e+003, -2.444763e-003
2.547504e+003, -1.921369e-003
2.549433e+003, -2.019362e-003
2.551361e+003, -1.859020e-003
2.553290e+003, -2.237869e-003
2.555218e+003, -3.032619e-003
2.557147e+003, -2.698144e-003
2.559075e+003, -2.129756e-003
2.561004e+003, -1.968301e-003
2.562932e+003, -2.370818e-003
2.564861e+003, -2.187025e-003
2.566789e+003, -2.071343e-003
2.568718e+003, -1.972209e-003
2.570646e+003, -1.785514e-003
2.572574e+003, -2.336867e-003
2.574503e+003, -2.728230e-003
2.576431e+003, -2.394690e-003
2.578360e+003, -2.378816e-003
2.580288e+003, -2.628216e-003
2.582217e+003, -2.931336e-003
2.584145e+003, -2.837528e-003
2.586074e+003, -2.321149e-003
2.588002e+003, -2.574150e-003
2.589931e+003, -2.855031e-003
2.591859e+003, -2.407602e-003
2.593788e+003, -2.265907e-003
2.595716e+003, -2.470454e-003
2.597645e+003, -2.285051e-003
2.599573e+003, -2.158815e-003
2.601501e+003, -2.006663e-003
2.603430e+003, -1.632905e-003
2.605358e+003, -1.868784e-003
2.607287e+003, -2.646084e-003
2.609215e+003, -2.668459e-003
2.611144e+003, -2.336857e-003
2.613072e+003, -2.221483e-003
2.615001e+003, -2.705612e-003
2.616929e+003, -2.978208e-003
2.618858e+003, -2.432001e-003
2.620786e+003, -2.201802e-003
2.622715e+003, -2.403986e-003
2.624643e+003, -2.372941e-003
2.626572e+003, -2.277131e-003
2.628500e+003, -2.690597e-003
2.630428e+003, -2.712211e-003
2.632357e+003, -2.391584e-003
2.634285e+003, -2.328087e-003
2.636214e+003, -2.099274e-003
2.638142e+003, -2.203472e-003
2.640071e+003, -2.477678e-003
2.641999e+003, -2.151252e-003
2.643928e+003, -2.170298e-003
2.645856e+003, -2.783847e-003
2.647785e+003, -2.699645e-003
2.649713e+003, -2.166311e-003
2.651642e+003, -2.183836e-003
2.653570e+003, -2.550833e-003
2.655499e+003, -2.746584e-003
2.657427e+003, -2.915522e-003
2.659355e+003, -3.036520e-003
2.661284e+003, -2.948388e-003
2.663212e+003, -2.771450e-003
2.665141e+003, -2.436445e-003
2.667069e+003, -2.580145e-003
2.668998e+003, -2.841024e-003
2.670926e+003, -2.930443e-003
2.672855e+003, -3.214641e-003
2.674783e+003, -3.293568e-003
2.676712e+003, -2.975825e-003
2.678640e+003, -3.090640e-003
2.680569e+003, -3.167597e-003
2.682497e+003, -2.784583e-003
2.684426e+003, -2.721695e-003
2.686354e+003, -3.130516e-003
2.688282e+003, -2.952039e-003
2.690211e+003, -2.788748e-003
2.692139e+003, -2.881050e-003
2.694068e+003, -3.053678e-003
2.695996e+003, -3.367187e-003
2.697925e+003, -3.479820e-003
2.699853e+003, -3.309420e-003
2.701782e+003, -3.160545e-003
2.703710e+003, -3.081471e-003
2.705639e+003, -3.400927e-003
2.707567e+003, -3.725924e-003
2.709496e+003, -3.357842e-003
2.711424e+003, -3.041343e-003
2.713353e+003, -3.093601e-003
2.715281e+003, -3.038792e-003
2.717209e+003, -2.895532e-003
2.719138e+003, -2.937563e-003
2.721066e+003, -2.722141e-003
2.722995e+003, -2.614144e-003
2.724923e+003, -2.803238e-003
2.726852e+003, -2.775551e-003
2.728780e+003, -2.936407e-003
2.730709e+003, -3.300939e-003
2.732637e+003, -3.374308e-003
2.734566e+003, -3.252517e-003
2.736494e+003, -3.286531e-003
2.738423e+003, -3.001325e-003
2.740351e+003, -2.775160e-003
2.742280e+003, -2.603933e-003
2.744208e+003, -2.922683e-003
2.746136e+003, -3.486689e-003
2.748065e+003, -3.191659e-003
2.749993e+003, -2.939959e-003
2.751922e+003, -2.982282e-003
2.753850e+003, -3.036960e-003
2.755779e+003, -3.047982e-003
2.757707e+003, -2.689123e-003
2.759636e+003, -2.692628e-003
2.761564e+003, -2.828762e-003
2.763493e+003, -2.648653e-003
2.765421e+003, -2.370026e-003
2.767350e+003, -2.709007e-003
2.769278e+003, -2.880854e-003
2.771207e+003, -2.131308e-003
2.773135e+003, -2.182849e-003
2.775063e+003, -2.677454e-003
2.776992e+003, -2.923657e-003
2.778920e+003, -2.848039e-003
2.780849e+003, -2.455319e-003
2.782777e+003, -2.085657e-003
2.784706e+003, -2.165541e-003
2.786634e+003, -2.337512e-003
2.788563e+003, -2.483957e-003
2.790491e+003, -2.121132e-003
2.792420e+003, -1.788457e-003
2.794348e+003, -2.321871e-003
2.796277e+003, -2.792734e-003
2.798205e+003, -2.657085e-003
2.800134e+003, -2.432335e-003
2.802062e+003, -2.284793e-003
2.803990e+003, -2.063310e-003
2.805919e+003, -1.615410e-003
2.807847e+003, -1.756040e-003
2.809776e+003, -2.066828e-003
2.811704e+003, -1.720070e-003
2.813633e+003, -1.643109e-003
2.815561e+003, -1.845600e-003
2.817490e+003, -1.627859e-003
2.819418e+003, -1.562420e-003
2.821347e+003, -1.866756e-003
2.823275e+003, -1.900780e-003
2.825204e+003, -2.009334e-003
2.827132e+003, -2.150484e-003
2.829061e+003, -1.843001e-003
2.830989e+003, -1.606227e-003
2.832917e+003, -1.524042e-003
2.834846e+003, -9.599095e-004
2.836774e+003, -7.106825e-004
2.838703e+003, -1.310233e-003
2.840631e+003, -1.510121e-003
2.842560e+003, -1.115860e-003
2.844488e+003, -8.095921e-004
2.846417e+003, -1.016396e-003
2.848345e+003, -1.134266e-003
2.850274e+003, -9.317494e-004
2.852202e+003, -5.142297e-004
2.854131e+003, -5.506625e-004
2.856059e+003, -8.476824e-004
2.857988e+003, -7.856803e-004
2.859916e+003, -6.827600e-004
2.861844e+003, -7.906597e-004
2.863773e+003, -9.798420e-004
2.865701e+003, -1.072976e-003
2.867630e+003, -7.298563e-004
2.869558e+003, -8.629516e-004
2.871487e+003, -1.353711e-003
2.873415e+003, -1.434369e-003
2.875344e+003, -1.418559e-003
2.877272e+003, -1.217487e-003
2.879201e+003, -1.018125e-003
2.881129e+003, -1.078763e-003
2.883058e+003, -7.688422e-004
2.884986e+003, -1.531130e-004
2.886915e+003, -5.715319e-004
2.888843e+003, -7.822533e-004
2.890771e+003, -6.450844e-004
2.892700e+003, -8.233663e-004
2.894628e+003, -1.175850e-003
2.896557e+003, -1.242080e-003
2.898485e+003, -6.091324e-004
2.900414e+003, -8.657662e-005
2.902342e+003, -3.833679e-005
2.904271e+003, -7.402143e-005
2.906199e+003, -1.993048e-004
2.908128e+003, -2.047925e-004
2.910056e+003, 2.224408e-004
2.911985e+003, 1.995517e-004
2.913913e+003, 3.302816e-004
2.915842e+003, 8.962600e-004
2.917770e+003, 5.668638e-004
2.919698e+003, 7.114778e-004
2.921627e+003, 1.121465e-003
2.923555e+003, 6.820659e-004
2.925484e+003, 2.338880e-004
2.927412e+003, 8.901462e-004
2.929341e+003, 6.857449e-004
2.931269e+003, 3.841600e-004
2.933198e+003, 7.449631e-004
2.935126e+003, 1.078811e-003
2.937055e+003, 5.686161e-004
2.938983e+003, -3.551406e-004
2.940912e+003, -1.994608e-004
2.942840e+003, -2.170139e-004
2.944769e+003, -5.239766e-004
2.946697e+003, -9.714797e-004
2.948625e+003, -1.059052e-003
2.950554e+003, -3.717703e-004
2.952482e+003, 5.918533e-005
2.954411e+003, 2.466463e-004
2.956339e+003, 6.788626e-004
2.958268e+003, 1.020375e-003
2.960196e+003, 3.799642e-004
2.962125e+003, 2.933458e-005
2.964053e+003, 4.342716e-005
2.965982e+003, 1.376621e-004
2.967910e+003, 2.777483e-004
2.969839e+003, 1.657639e-004
2.971767e+003, 2.443038e-004
2.973696e+003, 2.097060e-004
2.975624e+003, -2.201108e-006
2.977552e+003, -5.296705e-004
2.979481e+003, -4.152021e-004
2.981409e+003, -1.239802e-004
2.983338e+003, -7.702641e-004
2.985266e+003, -8.488088e-004
2.987195e+003, -6.347738e-004
2.989123e+003, -3.916016e-004
2.991052e+003, -2.704410e-004
2.992980e+003, -9.497267e-005
2.994909e+003, 2.506493e-004
2.996837e+003, 3.221506e-004
2.998766e+003, 1.895348e-004
3.000694e+003, -7.617730e-005
3.002623e+003, 2.074662e-004
3.004551e+003, 6.079585e-004
3.006479e+003, 5.143048e-004
3.008408e+003, 4.355937e-004
3.010336e+003, 1.033005e-003
3.012265e+003, 1.340492e-003
3.014193e+003, 1.506745e-003
3.016122e+003, 1.771021e-003
3.018050e+003, 1.351098e-003
3.019979e+003, 8.179412e-004
3.021907e+003, 8.325223e-004
3.023836e+003, 6.410304e-004
3.025764e+003, 1.041749e-003
3.027693e+003, 1.577263e-003
3.029621e+003, 1.438022e-003
3.031550e+003, 1.118544e-003
3.033478e+003, 1.592880e-003
3.035406e+003, 1.631197e-003
3.037335e+003, 1.464108e-003
3.039263e+003, 1.789637e-003
3.041192e+003, 2.242917e-003
3.043120e+003, 2.296314e-003
3.045049e+003, 2.305686e-003
3.046977e+003, 2.717750e-003
3.048906e+003, 2.659086e-003
3.050834e+003, 2.523769e-003
3.052763e+003, 2.568887e-003
3.054691e+003, 3.029999e-003
3.056620e+003, 3.052362e-003
3.058548e+003, 2.399649e-003
3.060477e+003, 2.927631e-003
3.062405e+003, 3.180113e-003
3.064333e+003, 3.015965e-003
3.066262e+003, 3.100900e-003
3.068190e+003, 2.946703e-003
3.070119e+003, 2.910068e-003
3.072047e+003, 3.157896e-003
3.073976e+003, 3.873021e-003
3.075904e+003, 4.136059e-003
3.077833e+003, 3.969811e-003
3.079761e+003, 3.971017e-003
3.081690e+003, 4.034678e-003
3.083618e+003, 4.102532e-003
3.085547e+003, 4.900417e-003
3.087475e+003, 5.105911e-003
3.089404e+003, 4.846016e-003
3.091332e+003, 5.011942e-003
3.093260e+003, 5.171082e-003
3.095189e+003, 5.222214e-003
3.097117e+003, 5.614254e-003
3.099046e+003, 5.091513e-003
3.100974e+003, 4.558644e-003
3.102903e+003, 4.879793e-003
3.104831e+003, 5.384331e-003
3.106760e+003, 5.719720e-003
3.108688e+003, 5.615220e-003
3.110617e+003, 5.900596e-003
3.112545e+003, 6.813093e-003
3.114474e+003, 6.952510e-003
3.116402e+003, 6.754689e-003
3.118331e+003, 6.995598e-003
3.120259e+003, 7.812761e-003
3.122188e+003, 7.830635e-003
3.124116e+003, 8.039595e-003
3.126044e+003, 8.760159e-003
3.127973e+003, 8.461377e-003
3.129901e+003, 7.767243e-003
3.131830e+003, 8.222266e-003
3.133758e+003, 8.677471e-003
3.135687e+003, 9.458901e-003
3.137615e+003, 9.800741e-003
3.139544e+003, 9.300110e-003
3.141472e+003, 8.824305e-003
3.143401e+003, 9.276196e-003
3.145329e+003, 9.868911e-003
3.147258e+003, 9.978989e-003
3.149186e+003, 1.107534e-002
3.151115e+003, 1.136123e-002
3.153043e+003, 1.051091e-002
3.154971e+003, 1.075496e-002
3.156900e+003, 1.097812e-002
3.158828e+003, 1.111118e-002
3.160757e+003, 1.176355e-002
3.162685e+003, 1.239133e-002
3.164614e+003, 1.280613e-002
3.166542e+003, 1.280211e-002
3.168471e+003, 1.273400e-002
3.170399e+003, 1.291229e-002
3.172328e+003, 1.271926e-002
3.174256e+003, 1.277130e-002
3.176185e+003, 1.325632e-002
3.178113e+003, 1.347611e-002
3.180042e+003, 1.377994e-002
3.181970e+003, 1.441580e-002
3.183898e+003, 1.516478e-002
3.185827e+003, 1.542526e-002
3.187755e+003, 1.522148e-002
3.189684e+003, 1.544104e-002
3.191612e+003, 1.584080e-002
3.193541e+003, 1.624647e-002
3.195469e+003, 1.651915e-002
3.197398e+003, 1.687774e-002
3.199326e+003, 1.774224e-002
3.201255e+003, 1.794142e-002
3.203183e+003, 1.772857e-002
3.205112e+003, 1.781287e-002
3.207040e+003, 1.749831e-002
3.208969e+003, 1.792197e-002
3.210897e+003, 1.905387e-002
3.212825e+003, 2.015801e-002
3.214754e+003, 2.022830e-002
3.216682e+003, 1.991914e-002
3.218611e+003, 2.067558e-002
3.220539e+003, 2.124445e-002
3.222468e+003, 2.125756e-002
3.224396e+003, 2.157038e-002
3.226325e+003, 2.205673e-002
3.228253e+003, 2.216287e-002
3.230182e+003, 2.165739e-002
3.232110e+003, 2.189955e-002
3.234039e+003, 2.202956e-002
3.235967e+003, 2.207107e-002
3.237896e+003, 2.285944e-002
3.239824e+003, 2.364011e-002
3.241752e+003, 2.376215e-002
3.243681e+003, 2.399596e-002
3.245609e+003, 2.388166e-002
3.247538e+003, 2.407593e-002
3.249466e+003, 2.431997e-002
3.251395e+003, 2.456923e-002
3.253323e+003, 2.461074e-002
3.255252e+003, 2.423076e-002
3.257180e+003, 2.473095e-002
3.259109e+003, 2.478587e-002
3.261037e+003, 2.431257e-002
3.262966e+003, 2.426575e-002
3.264894e+003, 2.480944e-002
3.266823e+003, 2.489377e-002
3.268751e+003, 2.404025e-002
3.270679e+003, 2.346517e-002
3.272608e+003, 2.389052e-002
3.274536e+003, 2.479467e-002
3.276465e+003, 2.566517e-002
3.278393e+003, 2.655224e-002
3.280322e+003, 2.651510e-002
3.282250e+003, 2.620171e-002
3.284179e+003, 2.599507e-002
3.286107e+003, 2.608412e-002
3.288036e+003, 2.656168e-002
3.289964e+003, 2.649337e-002
3.291893e+003, 2.641240e-002
3.293821e+003, 2.678851e-002
3.295750e+003, 2.730134e-002
3.297678e+003, 2.767669e-002
3.299606e+003, 2.837845e-002
3.301535e+003, 2.838562e-002
3.303463e+003, 2.774126e-002
3.305392e+003, 2.764430e-002
3.307320e+003, 2.837652e-002
3.309249e+003, 2.866042e-002
3.311177e+003, 2.821615e-002
3.313106e+003, 2.835253e-002
3.315034e+003, 2.940031e-002
3.316963e+003, 2.977747e-002
3.318891e+003, 2.991373e-002
3.320820e+003, 2.998398e-002
3.322748e+003, 3.058450e-002
3.324677e+003, 3.175618e-002
3.326605e+003, 3.211946e-002
3.328533e+003, 3.186483e-002
3.330462e+003, 3.145498e-002
3.332390e+003, 3.148329e-002
3.334319e+003, 3.196185e-002
3.336247e+003, 3.269714e-002
3.338176e+003, 3.266237e-002
3.340104e+003, 3.312699e-002
3.342033e+003, 3.423622e-002
3.343961e+003, 3.456156e-002
3.345890e+003, 3.392074e-002
3.347818e+003, 3.374654e-002
3.349747e+003, 3.456584e-002
3.351675e+003, 3.540882e-002
3.353604e+003, 3.589018e-002
3.355532e+003, 3.626738e-002
3.357460e+003, 3.579387e-002
3.359389e+003, 3.479730e-002
3.361317e+003, 3.534313e-002
3.363246e+003, 3.654271e-002
3.365174e+003, 3.722180e-002
3.367103e+003, 3.749841e-002
3.369031e+003, 3.786059e-002
3.370960e+003, 3.862813e-002
3.372888e+003, 3.913411e-002
3.374817e+003, 3.946197e-002
3.376745e+003, 3.918875e-002
3.378674e+003, 3.879722e-002
3.380602e+003, 3.968605e-002
3.382531e+003, 3.997327e-002
3.384459e+003, 3.990301e-002
3.386387e+003, 3.991037e-002
3.388316e+003, 4.001991e-002
3.390244e+003, 4.022663e-002
3.392173e+003, 4.106875e-002
3.394101e+003, 4.135328e-002
3.396030e+003, 4.084450e-002
3.397958e+003, 4.097506e-002
3.399887e+003, 4.162407e-002
3.401815e+003, 4.193611e-002
3.403744e+003, 4.248028e-002
3.405672e+003, 4.182718e-002
3.407601e+003, 4.185173e-002
3.409529e+003, 4.270394e-002
3.411458e+003, 4.260612e-002
3.413386e+003, 4.237038e-002
3.415314e+003, 4.289458e-002
3.417243e+003, 4.296408e-002
3.419171e+003, 4.309732e-002
3.421100e+003, 4.287877e-002
3.423028e+003, 4.281558e-002
3.424957e+003, 4.299065e-002
3.426885e+003, 4.301680e-002
3.428814e+003, 4.308306e-002
3.430742e+003, 4.314140e-002
3.432671e+003, 4.322648e-002
3.434599e+003, 4.348291e-002
3.436528e+003, 4.417435e-002
3.438456e+003, 4.349996e-002
3.440385e+003, 4.293998e-002
3.442313e+003, 4.373115e-002
3.444241e+003, 4.374643e-002
3.446170e+003, 4.279865e-002
3.448098e+003, 4.267701e-002
3.450027e+003, 4.320537e-002
3.451955e+003, 4.313776e-002
3.453884e+003, 4.295053e-002
3.455812e+003, 4.313189e-002
3.457741e+003, 4.268352e-002
3.459669e+003, 4.238842e-002
3.461598e+003, 4.269751e-002
3.463526e+003, 4.236403e-002
3.465455e+003, 4.174676e-002
3.467383e+003, 4.163318e-002
3.469312e+003, 4.088517e-002
3.471240e+003, 4.003489e-002
3.473168e+003, 4.086183e-002
3.475097e+003, 4.125065e-002
3.477025e+003, 4.092829e-002
3.478954e+003, 4.071277e-002
3.480882e+003, 4.063341e-002
3.482811e+003, 4.093908e-002
3.484739e+003, 4.122674e-002
3.486668e+003, 4.145145e-002
3.488596e+003, 4.139473e-002
3.490525e+003, 4.111321e-002
3.492453e+003, 4.062897e-002
3.494382e+003, 4.044599e-002
3.496310e+003, 3.995950e-002
3.498239e+003, 3.911472e-002
3.500167e+003, 3.917824e-002
3.502095e+003, 3.916155e-002
3.504024e+003, 3.883704e-002
3.505952e+003, 3.952738e-002
3.507881e+003, 4.001197e-002
3.509809e+003, 4.018973e-002
3.511738e+003, 4.009611e-002
3.513666e+003, 3.979721e-002
3.515595e+003, 3.924592e-002
3.517523e+003, 3.951902e-002
3.519452e+003, 4.056760e-002
3.521380e+003, 4.132323e-002
3.523309e+003, 4.116147e-002
3.525237e+003, 4.055966e-002
3.527166e+003, 3.998106e-002
3.529094e+003, 4.011281e-002
3.531022e+003, 4.040528e-002
3.532951e+003, 3.969243e-002
3.534879e+003, 3.872303e-002
3.536808e+003, 3.885298e-002
3.538736e+003, 3.960628e-002
3.540665e+003, 3.960567e-002
3.542593e+003, 3.940004e-002
3.544522e+003, 3.905593e-002
3.546450e+003, 3.861124e-002
3.548379e+003, 3.901766e-002
3.550307e+003, 3.894326e-002
3.552236e+003, 3.836251e-002
3.554164e+003, 3.910203e-002
3.556093e+003, 4.035584e-002
3.558021e+003, 4.012769e-002
3.559949e+003, 3.958440e-002
3.561878e+003, 3.924781e-002
3.563806e+003, 3.895292e-002
3.565735e+003, 3.864081e-002
3.567663e+003, 3.781995e-002
3.569592e+003, 3.704502e-002
3.571520e+003, 3.709311e-002
3.573449e+003, 3.733296e-002
3.575377e+003, 3.799440e-002
3.577306e+003, 3.783993e-002
3.579234e+003, 3.708315e-002
3.581163e+003, 3.737519e-002
3.583091e+003, 3.826001e-002
3.585020e+003, 3.922554e-002
3.586948e+003, 3.864413e-002
3.588876e+003, 3.752650e-002
3.590805e+003, 3.691323e-002
3.592733e+003, 3.728032e-002
3.594662e+003, 3.795070e-002
3.596590e+003, 3.832771e-002
3.598519e+003, 3.783999e-002
3.600447e+003, 3.649147e-002
3.602376e+003, 3.514038e-002
3.604304e+003, 3.435837e-002
3.606233e+003, 3.399153e-002
3.608161e+003, 3.327447e-002
3.610090e+003, 3.296394e-002
3.612018e+003, 3.300668e-002
3.613947e+003, 3.233738e-002
3.615875e+003, 3.168111e-002
3.617803e+003, 3.146190e-002
3.619732e+003, 3.009511e-002
3.621660e+003, 2.834594e-002
3.623589e+003, 2.725410e-002
3.625517e+003, 2.654992e-002
3.627446e+003, 2.605668e-002
3.629374e+003, 2.396781e-002
3.631303e+003, 2.195637e-002
3.633231e+003, 2.052750e-002
3.635160e+003, 1.987516e-002
3.637088e+003, 1.823843e-002
3.639017e+003, 1.549825e-002
3.640945e+003, 1.325363e-002
3.642874e+003, 1.239544e-002
3.644802e+003, 1.245015e-002
3.646730e+003, 1.154091e-002
3.648659e+003, 9.915514e-003
3.650587e+003, 8.061260e-003
3.652516e+003, 5.829539e-003
3.654444e+003, 5.010624e-003
3.656373e+003, 4.383940e-003
3.658301e+003, 2.691764e-003
3.660230e+003, 1.213821e-003
3.662158e+003, -5.939658e-005
3.664087e+003, -1.180681e-003
3.666015e+003, -2.108641e-003
3.667944e+003, -3.499863e-003
3.669872e+003, -4.125131e-003
3.671801e+003, -4.559770e-003
3.673729e+003, -5.582151e-003
3.675657e+003, -6.003780e-003
3.677586e+003, -5.536749e-003
3.679514e+003, -6.499686e-003
3.681443e+003, -8.669067e-003
3.683371e+003, -8.943342e-003
3.685300e+003, -8.510889e-003
3.687228e+003, -7.646753e-003
3.689157e+003, -6.801332e-003
3.691085e+003, -6.984060e-003
3.693014e+003, -8.123901e-003
3.694942e+003, -7.808425e-003
3.696871e+003, -7.178442e-003
3.698799e+003, -7.270683e-003
3.700728e+003, -7.829201e-003
3.702656e+003, -8.025367e-003
3.704584e+003, -8.737081e-003
3.706513e+003, -9.693029e-003
3.708441e+003, -9.497190e-003
3.710370e+003, -9.461964e-003
3.712298e+003, -1.003532e-002
3.714227e+003, -9.727090e-003
3.716155e+003, -9.334384e-003
3.718084e+003, -8.965169e-003
3.720012e+003, -8.123021e-003
3.721941e+003, -7.994642e-003
3.723869e+003, -8.890288e-003
3.725798e+003, -1.014649e-002
3.727726e+003, -1.052340e-002
3.729655e+003, -1.033822e-002
3.731583e+003, -9.792022e-003
3.733511e+003, -8.006118e-003
3.735440e+003, -7.749796e-003
3.737368e+003, -8.929439e-003
3.739297e+003, -9.293290e-003
3.741225e+003, -8.269436e-003
3.743154e+003, -6.696068e-003
3.745082e+003, -6.064424e-003
3.747011e+003, -7.607845e-003
3.748939e+003, -9.578331e-003
3.750868e+003, -1.044489e-002
3.752796e+003, -9.768963e-003
3.754725e+003, -9.668215e-003
3.756653e+003, -9.374933e-003
3.758582e+003, -9.375876e-003
3.760510e+003, -1.037950e-002
3.762438e+003, -9.934694e-003
3.764367e+003, -9.698487e-003
3.766295e+003, -9.349971e-003
3.768224e+003, -9.312888e-003
3.770152e+003, -1.000039e-002
3.772081e+003, -1.011739e-002
3.774009e+003, -1.022209e-002
3.775938e+003, -1.037249e-002
3.777866e+003, -8.918560e-003
3.779795e+003, -7.989500e-003
3.781723e+003, -9.404589e-003
3.783652e+003, -1.093674e-002
3.785580e+003, -1.167747e-002
3.787509e+003, -1.012172e-002
3.789437e+003, -9.945006e-003
3.791365e+003, -1.048723e-002
3.793294e+003, -1.050503e-002
3.795222e+003, -1.051982e-002
3.797151e+003, -1.010804e-002
3.799079e+003, -1.067002e-002
3.801008e+003, -1.020999e-002
3.802936e+003, -1.058814e-002
3.804865e+003, -1.125059e-002
3.806793e+003, -1.038674e-002
3.808722e+003, -1.040863e-002
3.810650e+003, -1.054260e-002
3.812579e+003, -1.013989e-002
3.814507e+003, -8.568991e-003
3.816436e+003, -9.034271e-003
3.818364e+003, -9.873694e-003
3.820292e+003, -8.519383e-003
3.822221e+003, -8.583986e-003
3.824149e+003, -1.069849e-002
3.826078e+003, -1.136033e-002
3.828006e+003, -1.136262e-002
3.829935e+003, -1.090164e-002
3.831863e+003, -1.041079e-002
3.833792e+003, -1.047924e-002
3.835720e+003, -1.023475e-002
3.837649e+003, -1.000693e-002
3.839577e+003, -9.822711e-003
3.841506e+003, -9.853166e-003
3.843434e+003, -1.077678e-002
3.845363e+003, -1.173397e-002
3.847291e+003, -1.133659e-002
3.849219e+003, -1.044054e-002
3.851148e+003, -9.954508e-003
3.853076e+003, -1.041498e-002
3.855005e+003, -1.112325e-002
3.856933e+003, -1.259945e-002
3.858862e+003, -1.231812e-002
3.860790e+003, -9.898166e-003
3.862719e+003, -7.981229e-003
3.864647e+003, -8.184986e-003
3.866576e+003, -8.756890e-003
3.868504e+003, -9.070529e-003
3.870433e+003, -9.273449e-003
3.872361e+003, -9.348711e-003
3.874290e+003, -1.001802e-002
3.876218e+003, -1.116255e-002
3.878146e+003, -1.022893e-002
3.880075e+003, -1.068484e-002
3.882003e+003, -1.125290e-002
3.883932e+003, -9.960666e-003
3.885860e+003, -9.458862e-003
3.887789e+003, -1.009861e-002
3.889717e+003, -1.057136e-002
3.891646e+003, -1.068457e-002
3.893574e+003, -1.080889e-002
3.895503e+003, -1.035832e-002
3.897431e+003, -1.011360e-002
3.899360e+003, -9.713296e-003
3.901288e+003, -9.556851e-003
3.903217e+003, -1.094393e-002
3.905145e+003, -1.083910e-002
3.907073e+003, -9.054545e-003
3.909002e+003, -9.431499e-003
3.910930e+003, -1.029477e-002
3.912859e+003, -1.061999e-002
3.914787e+003, -1.171637e-002
3.916716e+003, -1.130366e-002
3.918644e+003, -9.818246e-003
3.920573e+003, -1.086112e-002
3.922501e+003, -1.186245e-002
3.924430e+003, -1.068276e-002
3.926358e+003, -9.345580e-003
3.928287e+003, -8.761905e-003
3.930215e+003, -9.905341e-003
3.932144e+003, -9.477955e-003
3.934072e+003, -9.938508e-003
3.936000e+003, -1.185396e-002
3.937929e+003, -1.213943e-002
3.939857e+003, -1.180074e-002
3.941786e+003, -1.052857e-002
3.943714e+003, -1.021426e-002
3.945643e+003, -1.145998e-002
3.947571e+003, -1.219126e-002
3.949500e+003, -1.182666e-002
3.951428e+003, -1.070475e-002
3.953357e+003, -1.072059e-002
3.955285e+003, -1.070711e-002
3.957214e+003, -1.110548e-002
3.959142e+003, -1.181019e-002
3.961071e+003, -1.098208e-002
3.962999e+003, -9.555305e-003
3.964927e+003, -1.000128e-002
3.966856e+003, -1.103747e-002
3.968784e+003, -1.118621e-002
3.970713e+003, -1.014252e-002
3.972641e+003, -8.738735e-003
3.974570e+003, -9.041351e-003
3.976498e+003, -1.065381e-002
3.978427e+003, -1.194797e-002
3.980355e+003, -1.100973e-002
3.982284e+003, -1.007700e-002
3.984212e+003, -1.126931e-002
3.986141e+003, -1.145391e-002
3.988069e+003, -1.092777e-002
3.989998e+003, -1.140337e-002
3.991926e+003, -1.132403e-002
3.993854e+003, -1.061985e-002
3.995783e+003, -1.130836e-002
3.997711e+003, -1.194374e-002
3.999640e+003, -1.140495e-002
4.001568e+003, 0.000000e+000
##END=



