##NAMES=Baryte
##RRUFFID=R040036
##IDEAL CHEMISTRY=BaS^6+^O_4_
##LOCALITY=Cumbria County, England
##OWNER=RRUFF
##SOURCE=University of Arizona Mineral Museum
##DESCRIPTION=Golden brown tabular crystal
##STATUS=The identification of this mineral has been confirmed by X-ray diffraction and chemical analysis
##URL=rruff.info/R040036
##MEASURED CHEMISTRY=Ba_1.00_S_1.00_O_4_; trace amounts of Pb
3.991926e+002, 0.000000e+000
4.011211e+002, 7.231309e-003
4.030496e+002, 7.337669e-003
4.049780e+002, 7.045468e-003
4.069065e+002, 8.780085e-003
4.088350e+002, 6.471681e-003
4.107634e+002, 6.326373e-003
4.126919e+002, 1.009900e-002
4.146204e+002, 7.625784e-003
4.165488e+002, 3.746022e-003
4.184773e+002, 5.465526e-003
4.204058e+002, 7.884276e-003
4.223342e+002, 8.091277e-003
4.242627e+002, 8.013970e-003
4.261912e+002, 7.361730e-003
4.281196e+002, 6.913972e-003
4.300481e+002, 8.087548e-003
4.319766e+002, 7.727379e-003
4.339050e+002, 7.504805e-003
4.358335e+002, 8.016474e-003
4.377620e+002, 7.659873e-003
4.396904e+002, 7.614570e-003
4.416189e+002, 7.557411e-003
4.435474e+002, 7.481724e-003
4.454758e+002, 8.400002e-003
4.474043e+002, 8.265359e-003
4.493328e+002, 7.248238e-003
4.512612e+002, 7.925481e-003
4.531897e+002, 8.662225e-003
4.551182e+002, 8.633207e-003
4.570466e+002, 9.088023e-003
4.589751e+002, 9.034365e-003
4.609036e+002, 8.429278e-003
4.628320e+002, 9.217406e-003
4.647605e+002, 1.001628e-002
4.666890e+002, 1.049292e-002
4.686174e+002, 1.073846e-002
4.705459e+002, 1.161708e-002
4.724744e+002, 1.232948e-002
4.744028e+002, 1.147210e-002
4.763313e+002, 1.000891e-002
4.782598e+002, 9.662598e-003
4.801882e+002, 1.009159e-002
4.821167e+002, 1.000534e-002
4.840452e+002, 9.654042e-003
4.859736e+002, 1.027933e-002
4.879021e+002, 1.083287e-002
4.898306e+002, 1.108670e-002
4.917590e+002, 1.172429e-002
4.936875e+002, 1.178600e-002
4.956160e+002, 1.188925e-002
4.975444e+002, 1.205692e-002
4.994729e+002, 1.309264e-002
5.014014e+002, 1.345321e-002
5.033298e+002, 1.300349e-002
5.052583e+002, 1.291894e-002
5.071868e+002, 1.320600e-002
5.091152e+002, 1.398277e-002
5.110437e+002, 1.476760e-002
5.129722e+002, 1.520916e-002
5.149006e+002, 1.501627e-002
5.168291e+002, 1.485433e-002
5.187576e+002, 1.555972e-002
5.206860e+002, 1.616220e-002
5.226145e+002, 1.640189e-002
5.245430e+002, 1.735300e-002
5.264714e+002, 1.815994e-002
5.283999e+002, 1.891574e-002
5.303284e+002, 1.945327e-002
5.322568e+002, 2.035723e-002
5.341853e+002, 2.169617e-002
5.361138e+002, 2.213298e-002
5.380422e+002, 2.276352e-002
5.399707e+002, 2.419884e-002
5.418992e+002, 2.528876e-002
5.438276e+002, 2.619620e-002
5.457561e+002, 2.680958e-002
5.476846e+002, 2.822376e-002
5.496130e+002, 3.001395e-002
5.515415e+002, 3.189818e-002
5.534700e+002, 3.374475e-002
5.553984e+002, 3.580530e-002
5.573269e+002, 3.793014e-002
5.592554e+002, 4.041568e-002
5.611838e+002, 4.342991e-002
5.631123e+002, 4.722199e-002
5.650408e+002, 5.127215e-002
5.669692e+002, 5.522438e-002
5.688977e+002, 6.107682e-002
5.708262e+002, 6.890152e-002
5.727546e+002, 7.560588e-002
5.746831e+002, 8.426379e-002
5.766116e+002, 9.503318e-002
5.785400e+002, 1.075583e-001
5.804685e+002, 1.240136e-001
5.823970e+002, 1.424466e-001
5.843254e+002, 1.621216e-001
5.862539e+002, 1.846637e-001
5.881824e+002, 2.114766e-001
5.901108e+002, 2.423206e-001
5.920393e+002, 2.768434e-001
5.939678e+002, 3.099052e-001
5.958962e+002, 3.407608e-001
5.978247e+002, 3.710208e-001
5.997532e+002, 3.927687e-001
6.016816e+002, 4.054768e-001
6.036101e+002, 4.099834e-001
6.055386e+002, 3.994096e-001
6.074670e+002, 3.722328e-001
6.093955e+002, 3.336720e-001
6.113240e+002, 2.903680e-001
6.132524e+002, 2.477290e-001
6.151809e+002, 2.104552e-001
6.171094e+002, 1.802821e-001
6.190378e+002, 1.570812e-001
6.209663e+002, 1.407342e-001
6.228948e+002, 1.328152e-001
6.248232e+002, 1.340079e-001
6.267517e+002, 1.431864e-001
6.286802e+002, 1.576791e-001
6.306086e+002, 1.694231e-001
6.325371e+002, 1.728615e-001
6.344656e+002, 1.675859e-001
6.363940e+002, 1.560698e-001
6.383225e+002, 1.412535e-001
6.402510e+002, 1.257157e-001
6.421794e+002, 1.093053e-001
6.441079e+002, 9.275399e-002
6.460364e+002, 7.679988e-002
6.479648e+002, 6.222599e-002
6.498933e+002, 4.962659e-002
6.518218e+002, 3.965855e-002
6.537502e+002, 3.217262e-002
6.556787e+002, 2.648074e-002
6.576072e+002, 2.203166e-002
6.595356e+002, 1.848897e-002
6.614641e+002, 1.566844e-002
6.633926e+002, 1.376077e-002
6.653210e+002, 1.209621e-002
6.672495e+002, 1.065954e-002
6.691780e+002, 9.302120e-003
6.711064e+002, 8.654439e-003
6.730349e+002, 8.138658e-003
6.749634e+002, 7.619738e-003
6.768918e+002, 7.185536e-003
6.788203e+002, 6.887198e-003
6.807488e+002, 6.700732e-003
6.826772e+002, 6.507595e-003
6.846057e+002, 6.614260e-003
6.865342e+002, 6.772124e-003
6.884626e+002, 6.824871e-003
6.903911e+002, 7.124244e-003
6.923196e+002, 7.126516e-003
6.942480e+002, 7.208712e-003
6.961765e+002, 7.659998e-003
6.981050e+002, 7.741090e-003
7.000334e+002, 7.900764e-003
7.019619e+002, 7.941845e-003
7.038904e+002, 8.049763e-003
7.058188e+002, 8.118038e-003
7.077473e+002, 8.122768e-003
7.096758e+002, 8.239224e-003
7.116042e+002, 8.323597e-003
7.135327e+002, 8.458789e-003
7.154612e+002, 8.514320e-003
7.173896e+002, 8.394443e-003
7.193181e+002, 8.271796e-003
7.212466e+002, 8.247308e-003
7.231750e+002, 8.191711e-003
7.251035e+002, 8.336497e-003
7.270320e+002, 8.476540e-003
7.289604e+002, 8.739723e-003
7.308889e+002, 9.043530e-003
7.328174e+002, 9.182617e-003
7.347458e+002, 9.292819e-003
7.366743e+002, 9.587357e-003
7.386028e+002, 9.649191e-003
7.405313e+002, 9.655070e-003
7.424597e+002, 1.033789e-002
7.443882e+002, 1.110234e-002
7.463167e+002, 1.089738e-002
7.482451e+002, 1.044286e-002
7.501736e+002, 1.012081e-002
7.521021e+002, 9.994720e-003
7.540305e+002, 9.871448e-003
7.559590e+002, 1.012717e-002
7.578875e+002, 1.031664e-002
7.598159e+002, 1.041370e-002
7.617444e+002, 1.079193e-002
7.636729e+002, 1.114807e-002
7.656013e+002, 1.145559e-002
7.675298e+002, 1.181212e-002
7.694583e+002, 1.207269e-002
7.713867e+002, 1.227185e-002
7.733152e+002, 1.247439e-002
7.752437e+002, 1.261238e-002
7.771721e+002, 1.283665e-002
7.791006e+002, 1.311438e-002
7.810291e+002, 1.334555e-002
7.829575e+002, 1.367084e-002
7.848860e+002, 1.382410e-002
7.868145e+002, 1.394563e-002
7.887429e+002, 1.418653e-002
7.906714e+002, 1.431749e-002
7.925999e+002, 1.437071e-002
7.945283e+002, 1.450570e-002
7.964568e+002, 1.477233e-002
7.983853e+002, 1.509694e-002
8.003137e+002, 1.524619e-002
8.022422e+002, 1.537711e-002
8.041707e+002, 1.551674e-002
8.060991e+002, 1.559692e-002
8.080276e+002, 1.567623e-002
8.099561e+002, 1.579723e-002
8.118845e+002, 1.620639e-002
8.138130e+002, 1.652294e-002
8.157415e+002, 1.643668e-002
8.176699e+002, 1.659318e-002
8.195984e+002, 1.686917e-002
8.215269e+002, 1.697274e-002
8.234553e+002, 1.690082e-002
8.253838e+002, 1.699241e-002
8.273123e+002, 1.733573e-002
8.292407e+002, 1.767023e-002
8.311692e+002, 1.786358e-002
8.330977e+002, 1.787054e-002
8.350261e+002, 1.806191e-002
8.369546e+002, 1.841265e-002
8.388831e+002, 1.849021e-002
8.408115e+002, 1.856813e-002
8.427400e+002, 1.877962e-002
8.446685e+002, 1.913684e-002
8.465969e+002, 1.938685e-002
8.485254e+002, 1.962499e-002
8.504539e+002, 1.998504e-002
8.523823e+002, 2.023490e-002
8.543108e+002, 2.046580e-002
8.562393e+002, 2.088697e-002
8.581677e+002, 2.149281e-002
8.600962e+002, 2.238158e-002
8.620247e+002, 2.333871e-002
8.639531e+002, 2.436119e-002
8.658816e+002, 2.555370e-002
8.678101e+002, 2.708108e-002
8.697385e+002, 2.901839e-002
8.716670e+002, 3.066124e-002
8.735955e+002, 3.137745e-002
8.755239e+002, 3.089963e-002
8.774524e+002, 2.927906e-002
8.793809e+002, 2.806121e-002
8.813093e+002, 2.761805e-002
8.832378e+002, 2.776737e-002
8.851663e+002, 2.835348e-002
8.870947e+002, 2.900304e-002
8.890232e+002, 2.949454e-002
8.909517e+002, 3.018450e-002
8.928801e+002, 3.088924e-002
8.948085e+002, 3.149842e-002
8.967370e+002, 3.220905e-002
8.986655e+002, 3.313164e-002
9.005939e+002, 3.412211e-002
9.025224e+002, 3.506710e-002
9.044509e+002, 3.594635e-002
9.063793e+002, 3.689159e-002
9.083078e+002, 3.766632e-002
9.102363e+002, 3.860715e-002
9.121647e+002, 3.956398e-002
9.140932e+002, 4.048968e-002
9.160217e+002, 4.167844e-002
9.179501e+002, 4.304102e-002
9.198786e+002, 4.416042e-002
9.218071e+002, 4.532339e-002
9.237355e+002, 4.650533e-002
9.256640e+002, 4.780837e-002
9.275925e+002, 4.924261e-002
9.295209e+002, 5.090233e-002
9.314494e+002, 5.263909e-002
9.333779e+002, 5.448898e-002
9.353063e+002, 5.626179e-002
9.372348e+002, 5.758603e-002
9.391633e+002, 5.916122e-002
9.410917e+002, 6.129152e-002
9.430202e+002, 6.377742e-002
9.449487e+002, 6.656370e-002
9.468771e+002, 6.904456e-002
9.488056e+002, 7.108633e-002
9.507341e+002, 7.372830e-002
9.526625e+002, 7.689912e-002
9.545910e+002, 8.049048e-002
9.565195e+002, 8.443569e-002
9.584479e+002, 8.888325e-002
9.603764e+002, 9.410751e-002
9.623049e+002, 1.004896e-001
9.642333e+002, 1.072799e-001
9.661618e+002, 1.127319e-001
9.680903e+002, 1.188946e-001
9.700187e+002, 1.276119e-001
9.719472e+002, 1.387375e-001
9.738757e+002, 1.528245e-001
9.758041e+002, 1.720189e-001
9.777326e+002, 2.006080e-001
9.796611e+002, 2.425698e-001
9.815895e+002, 2.797089e-001
9.835180e+002, 2.572263e-001
9.854465e+002, 1.841334e-001
9.873749e+002, 1.328359e-001
9.893034e+002, 1.190789e-001
9.912319e+002, 1.235165e-001
9.931603e+002, 1.336315e-001
9.950888e+002, 1.453199e-001
9.970173e+002, 1.569605e-001
9.989457e+002, 1.683046e-001
1.000874e+003, 1.798217e-001
1.002803e+003, 1.916557e-001
1.004731e+003, 2.036066e-001
1.006660e+003, 2.156320e-001
1.008588e+003, 2.281298e-001
1.010517e+003, 2.410001e-001
1.012445e+003, 2.541472e-001
1.014373e+003, 2.677844e-001
1.016302e+003, 2.818750e-001
1.018230e+003, 2.961531e-001
1.020159e+003, 3.105032e-001
1.022087e+003, 3.250276e-001
1.024016e+003, 3.399612e-001
1.025944e+003, 3.556713e-001
1.027873e+003, 3.717588e-001
1.029801e+003, 3.877594e-001
1.031730e+003, 4.040587e-001
1.033658e+003, 4.209432e-001
1.035587e+003, 4.377861e-001
1.037515e+003, 4.546950e-001
1.039444e+003, 4.717934e-001
1.041372e+003, 4.884838e-001
1.043301e+003, 5.047940e-001
1.045229e+003, 5.206274e-001
1.047157e+003, 5.356440e-001
1.049086e+003, 5.505316e-001
1.051014e+003, 5.644860e-001
1.052943e+003, 5.775619e-001
1.054871e+003, 5.898715e-001
1.056800e+003, 5.993479e-001
1.058728e+003, 6.053013e-001
1.060657e+003, 6.088216e-001
1.062585e+003, 6.104870e-001
1.064514e+003, 6.094440e-001
1.066442e+003, 6.049355e-001
1.068371e+003, 5.981601e-001
1.070299e+003, 5.892417e-001
1.072228e+003, 5.783847e-001
1.074156e+003, 5.674670e-001
1.076084e+003, 5.562748e-001
1.078013e+003, 5.443810e-001
1.079941e+003, 5.327120e-001
1.081870e+003, 5.212997e-001
1.083798e+003, 5.093945e-001
1.085727e+003, 4.967220e-001
1.087655e+003, 4.834473e-001
1.089584e+003, 4.699568e-001
1.091512e+003, 4.568132e-001
1.093441e+003, 4.446710e-001
1.095369e+003, 4.327672e-001
1.097298e+003, 4.204000e-001
1.099226e+003, 4.086997e-001
1.101155e+003, 3.978805e-001
1.103083e+003, 3.878241e-001
1.105011e+003, 3.779351e-001
1.106940e+003, 3.683507e-001
1.108868e+003, 3.590392e-001
1.110797e+003, 3.498051e-001
1.112725e+003, 3.406383e-001
1.114654e+003, 3.321532e-001
1.116582e+003, 3.239643e-001
1.118511e+003, 3.157459e-001
1.120439e+003, 3.076847e-001
1.122368e+003, 2.994168e-001
1.124296e+003, 2.910912e-001
1.126225e+003, 2.827995e-001
1.128153e+003, 2.745887e-001
1.130082e+003, 2.663379e-001
1.132010e+003, 2.581313e-001
1.133938e+003, 2.502059e-001
1.135867e+003, 2.423915e-001
1.137795e+003, 2.346274e-001
1.139724e+003, 2.267371e-001
1.141652e+003, 2.189863e-001
1.143581e+003, 2.115135e-001
1.145509e+003, 2.045944e-001
1.147438e+003, 1.986406e-001
1.149366e+003, 1.937117e-001
1.151295e+003, 1.895900e-001
1.153223e+003, 1.865175e-001
1.155152e+003, 1.846216e-001
1.157080e+003, 1.840288e-001
1.159009e+003, 1.841985e-001
1.160937e+003, 1.841867e-001
1.162865e+003, 1.841012e-001
1.164794e+003, 1.841718e-001
1.166722e+003, 1.846900e-001
1.168651e+003, 1.855243e-001
1.170579e+003, 1.863932e-001
1.172508e+003, 1.874545e-001
1.174436e+003, 1.883903e-001
1.176365e+003, 1.887930e-001
1.178293e+003, 1.883012e-001
1.180222e+003, 1.865412e-001
1.182150e+003, 1.839497e-001
1.184079e+003, 1.803489e-001
1.186007e+003, 1.759720e-001
1.187936e+003, 1.712349e-001
1.189864e+003, 1.657817e-001
1.191792e+003, 1.597240e-001
1.193721e+003, 1.534945e-001
1.195649e+003, 1.469877e-001
1.197578e+003, 1.402531e-001
1.199506e+003, 1.333628e-001
1.201435e+003, 1.264285e-001
1.203363e+003, 1.195449e-001
1.205292e+003, 1.125938e-001
1.207220e+003, 1.056202e-001
1.209149e+003, 9.862398e-002
1.211077e+003, 9.153076e-002
1.213006e+003, 8.457033e-002
1.214934e+003, 7.808104e-002
1.216863e+003, 7.208705e-002
1.218791e+003, 6.656746e-002
1.220719e+003, 6.157163e-002
1.222648e+003, 5.662100e-002
1.224576e+003, 5.109188e-002
1.226505e+003, 4.480431e-002
1.228433e+003, 3.839467e-002
1.230362e+003, 3.291476e-002
1.232290e+003, 2.844533e-002
1.234219e+003, 2.498641e-002
1.236147e+003, 2.257053e-002
1.238076e+003, 2.056161e-002
1.240004e+003, 1.861425e-002
1.241933e+003, 1.712823e-002
1.243861e+003, 1.593755e-002
1.245790e+003, 1.480596e-002
1.247718e+003, 1.368243e-002
1.249646e+003, 1.278800e-002
1.251575e+003, 1.196192e-002
1.253503e+003, 1.115283e-002
1.255432e+003, 1.037018e-002
1.257360e+003, 9.957786e-003
1.259289e+003, 9.693891e-003
1.261217e+003, 9.296314e-003
1.263146e+003, 8.784227e-003
1.265074e+003, 8.495891e-003
1.267003e+003, 8.187340e-003
1.268931e+003, 7.902039e-003
1.270860e+003, 7.554193e-003
1.272788e+003, 7.268879e-003
1.274717e+003, 7.026028e-003
1.276645e+003, 6.724078e-003
1.278573e+003, 6.405307e-003
1.280502e+003, 6.335869e-003
1.282430e+003, 5.989457e-003
1.284359e+003, 5.457317e-003
1.286287e+003, 5.234413e-003
1.288216e+003, 5.250061e-003
1.290144e+003, 5.105609e-003
1.292073e+003, 4.958471e-003
1.294001e+003, 4.750703e-003
1.295930e+003, 4.601658e-003
1.297858e+003, 4.516973e-003
1.299787e+003, 4.496120e-003
1.301715e+003, 4.462196e-003
1.303644e+003, 4.346842e-003
1.305572e+003, 4.347670e-003
1.307500e+003, 4.379225e-003
1.309429e+003, 4.221194e-003
1.311357e+003, 4.099542e-003
1.313286e+003, 4.104686e-003
1.315214e+003, 4.249186e-003
1.317143e+003, 4.207857e-003
1.319071e+003, 4.022238e-003
1.321000e+003, 3.964214e-003
1.322928e+003, 4.050630e-003
1.324857e+003, 3.879852e-003
1.326785e+003, 3.787720e-003
1.328714e+003, 3.984595e-003
1.330642e+003, 4.108198e-003
1.332571e+003, 4.029583e-003
1.334499e+003, 4.093600e-003
1.336427e+003, 4.013710e-003
1.338356e+003, 4.192965e-003
1.340284e+003, 4.403631e-003
1.342213e+003, 4.366443e-003
1.344141e+003, 4.372021e-003
1.346070e+003, 4.402896e-003
1.347998e+003, 4.352617e-003
1.349927e+003, 4.458033e-003
1.351855e+003, 4.571254e-003
1.353784e+003, 4.579480e-003
1.355712e+003, 4.530890e-003
1.357641e+003, 4.390057e-003
1.359569e+003, 4.400935e-003
1.361498e+003, 4.424715e-003
1.363426e+003, 4.412470e-003
1.365354e+003, 4.413386e-003
1.367283e+003, 4.478682e-003
1.369211e+003, 4.760535e-003
1.371140e+003, 4.804840e-003
1.373068e+003, 4.620119e-003
1.374997e+003, 4.699389e-003
1.376925e+003, 4.825475e-003
1.378854e+003, 4.781384e-003
1.380782e+003, 4.902557e-003
1.382711e+003, 4.983915e-003
1.384639e+003, 5.108773e-003
1.386568e+003, 5.274455e-003
1.388496e+003, 5.632101e-003
1.390424e+003, 6.041621e-003
1.392353e+003, 6.438962e-003
1.394281e+003, 6.708566e-003
1.396210e+003, 7.075306e-003
1.398138e+003, 7.689561e-003
1.400067e+003, 8.071328e-003
1.401995e+003, 7.883349e-003
1.403924e+003, 7.732191e-003
1.405852e+003, 7.691525e-003
1.407781e+003, 7.721446e-003
1.409709e+003, 7.574230e-003
1.411638e+003, 7.667911e-003
1.413566e+003, 7.941508e-003
1.415495e+003, 8.177913e-003
1.417423e+003, 8.549398e-003
1.419351e+003, 8.896065e-003
1.421280e+003, 9.299114e-003
1.423208e+003, 9.813514e-003
1.425137e+003, 1.036883e-002
1.427065e+003, 1.074865e-002
1.428994e+003, 1.111808e-002
1.430922e+003, 1.174146e-002
1.432851e+003, 1.246110e-002
1.434779e+003, 1.321001e-002
1.436708e+003, 1.368223e-002
1.438636e+003, 1.327546e-002
1.440565e+003, 1.280288e-002
1.442493e+003, 1.262647e-002
1.444422e+003, 1.251095e-002
1.446350e+003, 1.261775e-002
1.448278e+003, 1.269218e-002
1.450207e+003, 1.271233e-002
1.452135e+003, 1.256848e-002
1.454064e+003, 1.236738e-002
1.455992e+003, 1.233470e-002
1.457921e+003, 1.245868e-002
1.459849e+003, 1.223013e-002
1.461778e+003, 1.203211e-002
1.463706e+003, 1.199446e-002
1.465635e+003, 1.193130e-002
1.467563e+003, 1.155236e-002
1.469492e+003, 1.127861e-002
1.471420e+003, 1.129465e-002
1.473349e+003, 1.130302e-002
1.475277e+003, 1.121354e-002
1.477205e+003, 1.091162e-002
1.479134e+003, 1.065138e-002
1.481062e+003, 1.052052e-002
1.482991e+003, 1.025979e-002
1.484919e+003, 1.004804e-002
1.486848e+003, 9.873251e-003
1.488776e+003, 9.532350e-003
1.490705e+003, 9.293269e-003
1.492633e+003, 9.213448e-003
1.494562e+003, 9.134670e-003
1.496490e+003, 9.067497e-003
1.498419e+003, 8.791093e-003
1.500347e+003, 8.487082e-003
1.502276e+003, 8.345638e-003
1.504204e+003, 7.990456e-003
1.506132e+003, 7.697884e-003
1.508061e+003, 7.684940e-003
1.509989e+003, 7.453931e-003
1.511918e+003, 7.303788e-003
1.513846e+003, 7.277676e-003
1.515775e+003, 7.215592e-003
1.517703e+003, 7.102856e-003
1.519632e+003, 7.168982e-003
1.521560e+003, 7.079712e-003
1.523489e+003, 6.919995e-003
1.525417e+003, 6.952323e-003
1.527346e+003, 6.975115e-003
1.529274e+003, 7.037697e-003
1.531203e+003, 7.066391e-003
1.533131e+003, 7.031674e-003
1.535059e+003, 7.104211e-003
1.536988e+003, 7.322609e-003
1.538916e+003, 7.405469e-003
1.540845e+003, 7.264442e-003
1.542773e+003, 7.191152e-003
1.544702e+003, 7.235327e-003
1.546630e+003, 7.171388e-003
1.548559e+003, 7.148091e-003
1.550487e+003, 7.253302e-003
1.552416e+003, 7.383872e-003
1.554344e+003, 7.428052e-003
1.556273e+003, 7.436279e-003
1.558201e+003, 7.367027e-003
1.560130e+003, 7.474666e-003
1.562058e+003, 7.410275e-003
1.563986e+003, 7.471420e-003
1.565915e+003, 7.508073e-003
1.567843e+003, 7.410506e-003
1.569772e+003, 7.328449e-003
1.571700e+003, 7.330339e-003
1.573629e+003, 7.555827e-003
1.575557e+003, 7.846481e-003
1.577486e+003, 7.882296e-003
1.579414e+003, 7.917929e-003
1.581343e+003, 8.244947e-003
1.583271e+003, 8.229963e-003
1.585200e+003, 8.234347e-003
1.587128e+003, 8.512767e-003
1.589057e+003, 8.950663e-003
1.590985e+003, 8.832362e-003
1.592913e+003, 8.719057e-003
1.594842e+003, 8.849953e-003
1.596770e+003, 8.642012e-003
1.598699e+003, 8.390556e-003
1.600627e+003, 8.278931e-003
1.602556e+003, 8.158469e-003
1.604484e+003, 8.122049e-003
1.606413e+003, 7.935230e-003
1.608341e+003, 7.719182e-003
1.610270e+003, 7.701789e-003
1.612198e+003, 7.702333e-003
1.614127e+003, 7.690800e-003
1.616055e+003, 7.640819e-003
1.617984e+003, 7.477212e-003
1.619912e+003, 7.352422e-003
1.621840e+003, 7.241370e-003
1.623769e+003, 7.132979e-003
1.625697e+003, 7.176538e-003
1.627626e+003, 7.277723e-003
1.629554e+003, 7.415680e-003
1.631483e+003, 7.465508e-003
1.633411e+003, 7.208243e-003
1.635340e+003, 6.972501e-003
1.637268e+003, 6.996835e-003
1.639197e+003, 7.017588e-003
1.641125e+003, 6.989558e-003
1.643054e+003, 7.091882e-003
1.644982e+003, 6.928823e-003
1.646911e+003, 6.569873e-003
1.648839e+003, 6.528573e-003
1.650767e+003, 6.504799e-003
1.652696e+003, 6.375241e-003
1.654624e+003, 6.471406e-003
1.656553e+003, 6.538316e-003
1.658481e+003, 6.528933e-003
1.660410e+003, 6.482091e-003
1.662338e+003, 6.502827e-003
1.664267e+003, 6.629048e-003
1.666195e+003, 6.429637e-003
1.668124e+003, 6.391985e-003
1.670052e+003, 6.783773e-003
1.671981e+003, 6.719293e-003
1.673909e+003, 6.383779e-003
1.675838e+003, 6.462144e-003
1.677766e+003, 6.665277e-003
1.679694e+003, 6.672154e-003
1.681623e+003, 6.534469e-003
1.683551e+003, 6.504304e-003
1.685480e+003, 6.385999e-003
1.687408e+003, 6.487346e-003
1.689337e+003, 6.626054e-003
1.691265e+003, 6.575260e-003
1.693194e+003, 6.593713e-003
1.695122e+003, 6.606036e-003
1.697051e+003, 6.679346e-003
1.698979e+003, 6.744252e-003
1.700908e+003, 6.827237e-003
1.702836e+003, 6.754062e-003
1.704765e+003, 6.701231e-003
1.706693e+003, 6.529387e-003
1.708621e+003, 6.463393e-003
1.710550e+003, 6.627781e-003
1.712478e+003, 6.759190e-003
1.714407e+003, 6.770366e-003
1.716335e+003, 6.558971e-003
1.718264e+003, 6.692969e-003
1.720192e+003, 6.953649e-003
1.722121e+003, 6.934501e-003
1.724049e+003, 6.872897e-003
1.725978e+003, 6.823199e-003
1.727906e+003, 6.679487e-003
1.729835e+003, 6.461603e-003
1.731763e+003, 6.178803e-003
1.733692e+003, 6.177619e-003
1.735620e+003, 6.285923e-003
1.737548e+003, 6.066074e-003
1.739477e+003, 5.692190e-003
1.741405e+003, 5.463480e-003
1.743334e+003, 5.530330e-003
1.745262e+003, 5.752915e-003
1.747191e+003, 5.987846e-003
1.749119e+003, 5.944954e-003
1.751048e+003, 5.617721e-003
1.752976e+003, 5.949511e-003
1.754905e+003, 6.295643e-003
1.756833e+003, 6.351317e-003
1.758762e+003, 6.441598e-003
1.760690e+003, 6.411449e-003
1.762619e+003, 6.132854e-003
1.764547e+003, 5.902196e-003
1.766475e+003, 5.936236e-003
1.768404e+003, 6.155290e-003
1.770332e+003, 6.363291e-003
1.772261e+003, 6.211445e-003
1.774189e+003, 6.307296e-003
1.776118e+003, 6.712869e-003
1.778046e+003, 7.018514e-003
1.779975e+003, 6.804720e-003
1.781903e+003, 6.470722e-003
1.783832e+003, 6.472050e-003
1.785760e+003, 6.365124e-003
1.787689e+003, 6.339292e-003
1.789617e+003, 6.547649e-003
1.791546e+003, 6.589513e-003
1.793474e+003, 6.668416e-003
1.795402e+003, 6.570648e-003
1.797331e+003, 6.516092e-003
1.799259e+003, 6.709768e-003
1.801188e+003, 6.657309e-003
1.803116e+003, 6.670829e-003
1.805045e+003, 6.310808e-003
1.806973e+003, 6.381625e-003
1.808902e+003, 6.616559e-003
1.810830e+003, 6.489579e-003
1.812759e+003, 6.450769e-003
1.814687e+003, 6.589489e-003
1.816616e+003, 6.904081e-003
1.818544e+003, 6.896756e-003
1.820473e+003, 6.829875e-003
1.822401e+003, 6.658727e-003
1.824329e+003, 6.534779e-003
1.826258e+003, 6.554706e-003
1.828186e+003, 6.701350e-003
1.830115e+003, 6.972216e-003
1.832043e+003, 7.217713e-003
1.833972e+003, 6.818983e-003
1.835900e+003, 6.454833e-003
1.837829e+003, 6.427701e-003
1.839757e+003, 6.524956e-003
1.841686e+003, 6.612756e-003
1.843614e+003, 6.731048e-003
1.845543e+003, 6.732545e-003
1.847471e+003, 6.727785e-003
1.849400e+003, 6.649110e-003
1.851328e+003, 6.793566e-003
1.853256e+003, 6.810563e-003
1.855185e+003, 7.164252e-003
1.857113e+003, 7.033837e-003
1.859042e+003, 6.299949e-003
1.860970e+003, 6.137362e-003
1.862899e+003, 6.400912e-003
1.864827e+003, 6.323702e-003
1.866756e+003, 6.394276e-003
1.868684e+003, 6.523367e-003
1.870613e+003, 6.476762e-003
1.872541e+003, 6.293521e-003
1.874470e+003, 6.517044e-003
1.876398e+003, 6.482257e-003
1.878327e+003, 6.297387e-003
1.880255e+003, 6.409844e-003
1.882183e+003, 6.679572e-003
1.884112e+003, 6.644590e-003
1.886040e+003, 6.720569e-003
1.887969e+003, 6.860286e-003
1.889897e+003, 6.802641e-003
1.891826e+003, 6.531514e-003
1.893754e+003, 7.054071e-003
1.895683e+003, 6.946488e-003
1.897611e+003, 5.974814e-003
1.899540e+003, 5.701898e-003
1.901468e+003, 5.802964e-003
1.903397e+003, 5.732465e-003
1.905325e+003, 6.169194e-003
1.907254e+003, 6.938488e-003
1.909182e+003, 6.874761e-003
1.911110e+003, 5.772599e-003
1.913039e+003, 6.027343e-003
1.914967e+003, 6.507125e-003
1.916896e+003, 5.749414e-003
1.918824e+003, 5.171771e-003
1.920753e+003, 5.483594e-003
1.922681e+003, 5.408534e-003
1.924610e+003, 4.946855e-003
1.926538e+003, 4.913398e-003
1.928467e+003, 4.743265e-003
1.930395e+003, 5.326969e-003
1.932324e+003, 4.749455e-003
1.934252e+003, 4.282549e-003
1.936181e+003, 4.484158e-003
1.938109e+003, 3.946811e-003
1.940037e+003, 4.120079e-003
1.941966e+003, 4.594643e-003
1.943894e+003, 3.714949e-003
1.945823e+003, 3.238502e-003
1.947751e+003, 3.661267e-003
1.949680e+003, 2.674134e-003
1.951608e+003, 2.175458e-003
1.953537e+003, 2.136816e-003
1.955465e+003, 2.444964e-003
1.957394e+003, 2.238750e-003
1.959322e+003, 1.711155e-003
1.961251e+003, 1.295488e-003
1.963179e+003, 3.891987e-005
1.965108e+003, -1.207887e-003
1.967036e+003, -1.358788e-003
1.968964e+003, -4.080317e-004
1.970893e+003, 2.130021e-003
1.972821e+003, 2.389131e-003
1.974750e+003, 7.484740e-004
1.976678e+003, 1.036223e-003
1.978607e+003, 4.995680e-003
1.980535e+003, 4.508812e-003
1.982464e+003, 2.680470e-003
1.984392e+003, 2.731389e-003
1.986321e+003, 2.059118e-003
1.988249e+003, 1.965479e-003
1.990178e+003, 2.886625e-003
1.992106e+003, 1.804275e-003
1.994035e+003, 1.395986e-003
1.995963e+003, 1.534473e-003
1.997891e+003, 1.076269e-003
1.999820e+003, -1.217321e-004
2.001748e+003, 3.555342e-004
2.003677e+003, 2.210462e-003
2.005605e+003, 1.826935e-003
2.007534e+003, -7.051493e-004
2.009462e+003, -1.451938e-003
2.011391e+003, -4.234130e-004
2.013319e+003, 2.749879e-004
2.015248e+003, 6.517791e-004
2.017176e+003, 1.065806e-003
2.019105e+003, 1.198437e-003
2.021033e+003, -8.102893e-004
2.022962e+003, -1.730484e-003
2.024890e+003, -1.238734e-003
2.026818e+003, -2.803510e-003
2.028747e+003, -2.440047e-003
2.030675e+003, -1.601188e-003
2.032604e+003, -1.656801e-003
2.034532e+003, -8.142283e-004
2.036461e+003, 4.934909e-004
2.038389e+003, 1.534678e-003
2.040318e+003, 2.485314e-003
2.042246e+003, 2.744204e-003
2.044175e+003, 1.999330e-003
2.046103e+003, 3.749579e-003
2.048032e+003, 6.113576e-003
2.049960e+003, 6.845505e-003
2.051889e+003, 6.723803e-003
2.053817e+003, 5.048930e-003
2.055746e+003, 4.454914e-003
2.057674e+003, 4.384888e-003
2.059603e+003, 5.588399e-003
2.061531e+003, 6.007237e-003
2.063459e+003, 5.286103e-003
2.065388e+003, 5.306992e-003
2.067316e+003, 6.671096e-003
2.069245e+003, 6.474273e-003
2.071173e+003, 5.688998e-003
2.073102e+003, 5.245974e-003
2.075030e+003, 4.186354e-003
2.076959e+003, 3.868649e-003
2.078887e+003, 4.719359e-003
2.080816e+003, 4.648371e-003
2.082744e+003, 4.890731e-003
2.084673e+003, 5.057654e-003
2.086601e+003, 5.005452e-003
2.088530e+003, 5.307198e-003
2.090458e+003, 4.858369e-003
2.092386e+003, 4.200224e-003
2.094315e+003, 4.557346e-003
2.096243e+003, 4.594451e-003
2.098172e+003, 4.498389e-003
2.100100e+003, 5.142474e-003
2.102029e+003, 4.972539e-003
2.103957e+003, 3.211913e-003
2.105886e+003, 2.214901e-003
2.107814e+003, 2.516905e-003
2.109743e+003, 3.761277e-003
2.111671e+003, 4.055394e-003
2.113600e+003, 4.190292e-003
2.115528e+003, 3.734130e-003
2.117457e+003, 2.935640e-003
2.119385e+003, 3.836196e-003
2.121313e+003, 4.378260e-003
2.123242e+003, 3.231653e-003
2.125170e+003, 2.673381e-003
2.127099e+003, 2.337973e-003
2.129027e+003, 1.694795e-003
2.130956e+003, 2.939602e-004
2.132884e+003, -5.550812e-005
2.134813e+003, 4.709851e-004
2.136741e+003, 6.275467e-004
2.138670e+003, 4.893959e-005
2.140598e+003, -1.417566e-003
2.142527e+003, -1.937913e-003
2.144455e+003, -9.031580e-004
2.146384e+003, -1.869780e-003
2.148312e+003, -3.825702e-003
2.150240e+003, -2.721151e-003
2.152169e+003, -4.321341e-003
2.154097e+003, -7.759183e-003
2.156026e+003, -8.163312e-003
2.157954e+003, -7.330989e-003
2.159883e+003, -6.027375e-003
2.161811e+003, -5.041754e-003
2.163740e+003, -4.685857e-003
2.165668e+003, -3.775299e-003
2.167597e+003, -4.502965e-003
2.169525e+003, -5.353403e-003
2.171454e+003, -3.488968e-003
2.173382e+003, -1.965660e-003
2.175311e+003, -2.675594e-003
2.177239e+003, -2.184352e-003
2.179167e+003, -2.604804e-003
2.181096e+003, -2.883535e-003
2.183024e+003, -1.609446e-003
2.184953e+003, -9.358009e-004
2.186881e+003, -1.392739e-003
2.188810e+003, -2.609404e-003
2.190738e+003, -6.624422e-004
2.192667e+003, 1.129186e-003
2.194595e+003, 4.576742e-004
2.196524e+003, 5.911674e-004
2.198452e+003, 2.482130e-003
2.200381e+003, 3.348668e-003
2.202309e+003, 2.334907e-003
2.204238e+003, 6.895874e-004
2.206166e+003, -1.738404e-004
2.208094e+003, 4.580792e-004
2.210023e+003, 1.224798e-003
2.211951e+003, 1.041217e-003
2.213880e+003, 5.435132e-004
2.215808e+003, 1.005860e-003
2.217737e+003, 1.158153e-003
2.219665e+003, 9.159787e-004
2.221594e+003, 1.610119e-003
2.223522e+003, 2.556465e-003
2.225451e+003, 3.040896e-003
2.227379e+003, 2.865638e-003
2.229308e+003, 2.416718e-003
2.231236e+003, 3.066240e-003
2.233165e+003, 5.162227e-003
2.235093e+003, 4.859300e-003
2.237021e+003, 3.661103e-003
2.238950e+003, 3.674792e-003
2.240878e+003, 3.609458e-003
2.242807e+003, 4.098342e-003
2.244735e+003, 4.545091e-003
2.246664e+003, 3.772988e-003
2.248592e+003, 3.572907e-003
2.250521e+003, 3.627788e-003
2.252449e+003, 3.595338e-003
2.254378e+003, 3.756545e-003
2.256306e+003, 4.146438e-003
2.258235e+003, 4.936496e-003
2.260163e+003, 6.060980e-003
2.262092e+003, 6.118603e-003
2.264020e+003, 5.597366e-003
2.265948e+003, 5.333890e-003
2.267877e+003, 5.806176e-003
2.269805e+003, 6.870179e-003
2.271734e+003, 6.676123e-003
2.273662e+003, 6.656025e-003
2.275591e+003, 6.817030e-003
2.277519e+003, 6.913981e-003
2.279448e+003, 7.846114e-003
2.281376e+003, 8.079883e-003
2.283305e+003, 8.264634e-003
2.285233e+003, 8.680561e-003
2.287162e+003, 8.589719e-003
2.289090e+003, 9.151485e-003
2.291019e+003, 9.086322e-003
2.292947e+003, 8.894596e-003
2.294875e+003, 8.793948e-003
2.296804e+003, 8.699103e-003
2.298732e+003, 8.831752e-003
2.300661e+003, 8.902580e-003
2.302589e+003, 9.044196e-003
2.304518e+003, 8.740759e-003
2.306446e+003, 8.439051e-003
2.308375e+003, 8.786430e-003
2.310303e+003, 9.549294e-003
2.312232e+003, 9.822986e-003
2.314160e+003, 9.852622e-003
2.316089e+003, 9.223344e-003
2.318017e+003, 8.875926e-003
2.319946e+003, 9.342100e-003
2.321874e+003, 1.009591e-002
2.323802e+003, 1.041287e-002
2.325731e+003, 9.288305e-003
2.327659e+003, 8.563022e-003
2.329588e+003, 9.054804e-003
2.331516e+003, 8.930189e-003
2.333445e+003, 8.717125e-003
2.335373e+003, 8.710549e-003
2.337302e+003, 8.900926e-003
2.339230e+003, 9.115867e-003
2.341159e+003, 9.419159e-003
2.343087e+003, 9.131876e-003
2.345016e+003, 8.683424e-003
2.346944e+003, 8.680815e-003
2.348873e+003, 9.285075e-003
2.350801e+003, 9.503734e-003
2.352729e+003, 9.287818e-003
2.354658e+003, 9.315523e-003
2.356586e+003, 8.878917e-003
2.358515e+003, 8.318852e-003
2.360443e+003, 8.341120e-003
2.362372e+003, 8.362296e-003
2.364300e+003, 8.054279e-003
2.366229e+003, 8.062285e-003
2.368157e+003, 8.063294e-003
2.370086e+003, 7.615237e-003
2.372014e+003, 7.916697e-003
2.373942e+003, 7.972099e-003
2.375871e+003, 8.424164e-003
2.377799e+003, 8.497040e-003
2.379728e+003, 8.399394e-003
2.381656e+003, 8.963031e-003
2.383585e+003, 9.281815e-003
2.385513e+003, 8.910909e-003
2.387442e+003, 8.183805e-003
2.389370e+003, 8.174197e-003
2.391299e+003, 8.986576e-003
2.393227e+003, 8.624804e-003
2.395156e+003, 7.752061e-003
2.397084e+003, 8.381853e-003
2.399012e+003, 9.185531e-003
2.400941e+003, 9.199132e-003
2.402869e+003, 9.692058e-003
2.404798e+003, 9.935670e-003
2.406726e+003, 9.786977e-003
2.408655e+003, 1.001780e-002
2.410583e+003, 9.621989e-003
2.412512e+003, 9.843450e-003
2.414440e+003, 9.986851e-003
2.416369e+003, 9.587152e-003
2.418297e+003, 9.434834e-003
2.420226e+003, 9.785996e-003
2.422154e+003, 1.007787e-002
2.424083e+003, 1.004768e-002
2.426011e+003, 9.899163e-003
2.427939e+003, 9.642780e-003
2.429868e+003, 1.014023e-002
2.431796e+003, 1.048147e-002
2.433725e+003, 1.054631e-002
2.435653e+003, 1.056413e-002
2.437582e+003, 1.095886e-002
2.439510e+003, 1.029782e-002
2.441439e+003, 8.992746e-003
2.443367e+003, 9.237688e-003
2.445296e+003, 1.032799e-002
2.447224e+003, 1.104020e-002
2.449153e+003, 1.221949e-002
2.451081e+003, 1.228785e-002
2.453010e+003, 1.170623e-002
2.454938e+003, 1.165619e-002
2.456866e+003, 1.162192e-002
2.458795e+003, 1.133647e-002
2.460723e+003, 1.165783e-002
2.462652e+003, 1.157869e-002
2.464580e+003, 1.153468e-002
2.466509e+003, 1.151501e-002
2.468437e+003, 1.162396e-002
2.470366e+003, 1.173421e-002
2.472294e+003, 1.195551e-002
2.474223e+003, 1.254098e-002
2.476151e+003, 1.212239e-002
2.478080e+003, 1.210463e-002
2.480008e+003, 1.245828e-002
2.481937e+003, 1.180972e-002
2.483865e+003, 1.219057e-002
2.485793e+003, 1.291338e-002
2.487722e+003, 1.251745e-002
2.489650e+003, 1.165863e-002
2.491579e+003, 1.154751e-002
2.493507e+003, 1.233089e-002
2.495436e+003, 1.289637e-002
2.497364e+003, 1.232421e-002
2.499293e+003, 1.253880e-002
2.501221e+003, 1.258424e-002
2.503150e+003, 1.186852e-002
2.505078e+003, 1.136781e-002
2.507007e+003, 1.280924e-002
2.508935e+003, 1.435294e-002
2.510864e+003, 1.404469e-002
2.512792e+003, 1.264715e-002
2.514720e+003, 1.285823e-002
2.516649e+003, 1.352106e-002
2.518577e+003, 1.367884e-002
2.520506e+003, 1.308408e-002
2.522434e+003, 1.209333e-002
2.524363e+003, 1.280849e-002
2.526291e+003, 1.359002e-002
2.528220e+003, 1.267629e-002
2.530148e+003, 1.206340e-002
2.532077e+003, 1.214742e-002
2.534005e+003, 1.339681e-002
2.535934e+003, 1.445734e-002
2.537862e+003, 1.452440e-002
2.539791e+003, 1.476196e-002
2.541719e+003, 1.479448e-002
2.543647e+003, 1.428912e-002
2.545576e+003, 1.396269e-002
2.547504e+003, 1.407698e-002
2.549433e+003, 1.447071e-002
2.551361e+003, 1.418129e-002
2.553290e+003, 1.419503e-002
2.555218e+003, 1.397857e-002
2.557147e+003, 1.350527e-002
2.559075e+003, 1.309776e-002
2.561004e+003, 1.356057e-002
2.562932e+003, 1.435854e-002
2.564861e+003, 1.431611e-002
2.566789e+003, 1.383557e-002
2.568718e+003, 1.409449e-002
2.570646e+003, 1.511894e-002
2.572574e+003, 1.521649e-002
2.574503e+003, 1.448221e-002
2.576431e+003, 1.390891e-002
2.578360e+003, 1.365829e-002
2.580288e+003, 1.397820e-002
2.582217e+003, 1.456238e-002
2.584145e+003, 1.446781e-002
2.586074e+003, 1.490762e-002
2.588002e+003, 1.533863e-002
2.589931e+003, 1.514316e-002
2.591859e+003, 1.554224e-002
2.593788e+003, 1.533248e-002
2.595716e+003, 1.472142e-002
2.597645e+003, 1.391442e-002
2.599573e+003, 1.360147e-002
2.601501e+003, 1.430080e-002
2.603430e+003, 1.477962e-002
2.605358e+003, 1.407792e-002
2.607287e+003, 1.404002e-002
2.609215e+003, 1.441787e-002
2.611144e+003, 1.475909e-002
2.613072e+003, 1.505815e-002
2.615001e+003, 1.509674e-002
2.616929e+003, 1.474205e-002
2.618858e+003, 1.481568e-002
2.620786e+003, 1.431638e-002
2.622715e+003, 1.387161e-002
2.624643e+003, 1.426150e-002
2.626572e+003, 1.441786e-002
2.628500e+003, 1.448681e-002
2.630428e+003, 1.464573e-002
2.632357e+003, 1.478295e-002
2.634285e+003, 1.480214e-002
2.636214e+003, 1.463379e-002
2.638142e+003, 1.481903e-002
2.640071e+003, 1.466688e-002
2.641999e+003, 1.461370e-002
2.643928e+003, 1.425209e-002
2.645856e+003, 1.428294e-002
2.647785e+003, 1.522925e-002
2.649713e+003, 1.560594e-002
2.651642e+003, 1.545907e-002
2.653570e+003, 1.534131e-002
2.655499e+003, 1.470694e-002
2.657427e+003, 1.481063e-002
2.659355e+003, 1.494698e-002
2.661284e+003, 1.469983e-002
2.663212e+003, 1.455212e-002
2.665141e+003, 1.443370e-002
2.667069e+003, 1.463048e-002
2.668998e+003, 1.451438e-002
2.670926e+003, 1.408448e-002
2.672855e+003, 1.393855e-002
2.674783e+003, 1.441207e-002
2.676712e+003, 1.468148e-002
2.678640e+003, 1.430414e-002
2.680569e+003, 1.423252e-002
2.682497e+003, 1.434472e-002
2.684426e+003, 1.446872e-002
2.686354e+003, 1.481518e-002
2.688282e+003, 1.516868e-002
2.690211e+003, 1.487882e-002
2.692139e+003, 1.457978e-002
2.694068e+003, 1.481231e-002
2.695996e+003, 1.500045e-002
2.697925e+003, 1.466299e-002
2.699853e+003, 1.459779e-002
2.701782e+003, 1.470308e-002
2.703710e+003, 1.474374e-002
2.705639e+003, 1.460514e-002
2.707567e+003, 1.456487e-002
2.709496e+003, 1.427564e-002
2.711424e+003, 1.432931e-002
2.713353e+003, 1.429364e-002
2.715281e+003, 1.452907e-002
2.717209e+003, 1.482057e-002
2.719138e+003, 1.517324e-002
2.721066e+003, 1.629857e-002
2.722995e+003, 1.641395e-002
2.724923e+003, 1.597313e-002
2.726852e+003, 1.546787e-002
2.728780e+003, 1.469759e-002
2.730709e+003, 1.518851e-002
2.732637e+003, 1.532460e-002
2.734566e+003, 1.505677e-002
2.736494e+003, 1.524218e-002
2.738423e+003, 1.564031e-002
2.740351e+003, 1.511020e-002
2.742280e+003, 1.439424e-002
2.744208e+003, 1.491694e-002
2.746136e+003, 1.515792e-002
2.748065e+003, 1.477758e-002
2.749993e+003, 1.536559e-002
2.751922e+003, 1.564133e-002
2.753850e+003, 1.485499e-002
2.755779e+003, 1.485807e-002
2.757707e+003, 1.531016e-002
2.759636e+003, 1.584981e-002
2.761564e+003, 1.643582e-002
2.763493e+003, 1.624016e-002
2.765421e+003, 1.597132e-002
2.767350e+003, 1.567820e-002
2.769278e+003, 1.522720e-002
2.771207e+003, 1.531122e-002
2.773135e+003, 1.580494e-002
2.775063e+003, 1.651663e-002
2.776992e+003, 1.628675e-002
2.778920e+003, 1.551394e-002
2.780849e+003, 1.589852e-002
2.782777e+003, 1.571997e-002
2.784706e+003, 1.558838e-002
2.786634e+003, 1.575607e-002
2.788563e+003, 1.610833e-002
2.790491e+003, 1.604314e-002
2.792420e+003, 1.551723e-002
2.794348e+003, 1.501831e-002
2.796277e+003, 1.517643e-002
2.798205e+003, 1.550297e-002
2.800134e+003, 1.611557e-002
2.802062e+003, 1.632818e-002
2.803990e+003, 1.569282e-002
2.805919e+003, 1.509250e-002
2.807847e+003, 1.496273e-002
2.809776e+003, 1.523073e-002
2.811704e+003, 1.618373e-002
2.813633e+003, 1.677407e-002
2.815561e+003, 1.683128e-002
2.817490e+003, 1.610935e-002
2.819418e+003, 1.543316e-002
2.821347e+003, 1.570810e-002
2.823275e+003, 1.572505e-002
2.825204e+003, 1.571758e-002
2.827132e+003, 1.622784e-002
2.829061e+003, 1.577367e-002
2.830989e+003, 1.576447e-002
2.832917e+003, 1.572129e-002
2.834846e+003, 1.587779e-002
2.836774e+003, 1.699364e-002
2.838703e+003, 1.695478e-002
2.840631e+003, 1.588482e-002
2.842560e+003, 1.588495e-002
2.844488e+003, 1.583614e-002
2.846417e+003, 1.603386e-002
2.848345e+003, 1.554630e-002
2.850274e+003, 1.527125e-002
2.852202e+003, 1.553858e-002
2.854131e+003, 1.587452e-002
2.856059e+003, 1.584110e-002
2.857988e+003, 1.615930e-002
2.859916e+003, 1.593922e-002
2.861844e+003, 1.616411e-002
2.863773e+003, 1.665171e-002
2.865701e+003, 1.666259e-002
2.867630e+003, 1.655097e-002
2.869558e+003, 1.631532e-002
2.871487e+003, 1.641238e-002
2.873415e+003, 1.647694e-002
2.875344e+003, 1.671681e-002
2.877272e+003, 1.686895e-002
2.879201e+003, 1.662257e-002
2.881129e+003, 1.640151e-002
2.883058e+003, 1.642222e-002
2.884986e+003, 1.642383e-002
2.886915e+003, 1.589435e-002
2.888843e+003, 1.616284e-002
2.890771e+003, 1.660178e-002
2.892700e+003, 1.675011e-002
2.894628e+003, 1.606916e-002
2.896557e+003, 1.617752e-002
2.898485e+003, 1.628719e-002
2.900414e+003, 1.601806e-002
2.902342e+003, 1.638612e-002
2.904271e+003, 1.634749e-002
2.906199e+003, 1.596871e-002
2.908128e+003, 1.606862e-002
2.910056e+003, 1.661255e-002
2.911985e+003, 1.658824e-002
2.913913e+003, 1.621953e-002
2.915842e+003, 1.576888e-002
2.917770e+003, 1.571201e-002
2.919698e+003, 1.528531e-002
2.921627e+003, 1.491570e-002
2.923555e+003, 1.530803e-002
2.925484e+003, 1.562617e-002
2.927412e+003, 1.617607e-002
2.929341e+003, 1.677569e-002
2.931269e+003, 1.701716e-002
2.933198e+003, 1.666969e-002
2.935126e+003, 1.656525e-002
2.937055e+003, 1.691067e-002
2.938983e+003, 1.682650e-002
2.940912e+003, 1.676708e-002
2.942840e+003, 1.754024e-002
2.944769e+003, 1.751344e-002
2.946697e+003, 1.700497e-002
2.948625e+003, 1.741037e-002
2.950554e+003, 1.760559e-002
2.952482e+003, 1.718096e-002
2.954411e+003, 1.733050e-002
2.956339e+003, 1.725064e-002
2.958268e+003, 1.717777e-002
2.960196e+003, 1.684454e-002
2.962125e+003, 1.714362e-002
2.964053e+003, 1.745628e-002
2.965982e+003, 1.781791e-002
2.967910e+003, 1.686693e-002
2.969839e+003, 1.673594e-002
2.971767e+003, 1.685802e-002
2.973696e+003, 1.718548e-002
2.975624e+003, 1.715047e-002
2.977552e+003, 1.698775e-002
2.979481e+003, 1.721602e-002
2.981409e+003, 1.712913e-002
2.983338e+003, 1.676317e-002
2.985266e+003, 1.665877e-002
2.987195e+003, 1.714870e-002
2.989123e+003, 1.817990e-002
2.991052e+003, 1.796536e-002
2.992980e+003, 1.736202e-002
2.994909e+003, 1.712608e-002
2.996837e+003, 1.663947e-002
2.998766e+003, 1.673355e-002
3.000694e+003, 1.736268e-002
3.002623e+003, 1.714786e-002
3.004551e+003, 1.725704e-002
3.006479e+003, 1.745261e-002
3.008408e+003, 1.766622e-002
3.010336e+003, 1.748304e-002
3.012265e+003, 1.729885e-002
3.014193e+003, 1.729284e-002
3.016122e+003, 1.710066e-002
3.018050e+003, 1.759544e-002
3.019979e+003, 1.853731e-002
3.021907e+003, 1.794351e-002
3.023836e+003, 1.817075e-002
3.025764e+003, 1.834009e-002
3.027693e+003, 1.735213e-002
3.029621e+003, 1.713620e-002
3.031550e+003, 1.770829e-002
3.033478e+003, 1.764088e-002
3.035406e+003, 1.720277e-002
3.037335e+003, 1.631805e-002
3.039263e+003, 1.650819e-002
3.041192e+003, 1.828361e-002
3.043120e+003, 1.902813e-002
3.045049e+003, 1.811939e-002
3.046977e+003, 1.828555e-002
3.048906e+003, 1.835902e-002
3.050834e+003, 1.827798e-002
3.052763e+003, 1.818289e-002
3.054691e+003, 1.806938e-002
3.056620e+003, 1.817477e-002
3.058548e+003, 1.844398e-002
3.060477e+003, 1.894267e-002
3.062405e+003, 1.844834e-002
3.064333e+003, 1.852813e-002
3.066262e+003, 1.931373e-002
3.068190e+003, 1.932497e-002
3.070119e+003, 1.890346e-002
3.072047e+003, 1.854147e-002
3.073976e+003, 1.867187e-002
3.075904e+003, 1.896815e-002
3.077833e+003, 1.853239e-002
3.079761e+003, 1.782486e-002
3.081690e+003, 1.834802e-002
3.083618e+003, 1.866950e-002
3.085547e+003, 1.828296e-002
3.087475e+003, 1.807596e-002
3.089404e+003, 1.849188e-002
3.091332e+003, 1.905265e-002
3.093260e+003, 1.818754e-002
3.095189e+003, 1.778428e-002
3.097117e+003, 1.834345e-002
3.099046e+003, 1.793659e-002
3.100974e+003, 1.854869e-002
3.102903e+003, 1.881436e-002
3.104831e+003, 1.883905e-002
3.106760e+003, 1.947601e-002
3.108688e+003, 1.998143e-002
3.110617e+003, 2.001736e-002
3.112545e+003, 1.914978e-002
3.114474e+003, 1.817366e-002
3.116402e+003, 1.912233e-002
3.118331e+003, 1.899232e-002
3.120259e+003, 1.915120e-002
3.122188e+003, 1.973801e-002
3.124116e+003, 1.951410e-002
3.126044e+003, 1.873325e-002
3.127973e+003, 1.880040e-002
3.129901e+003, 1.868344e-002
3.131830e+003, 1.852361e-002
3.133758e+003, 1.940246e-002
3.135687e+003, 2.000659e-002
3.137615e+003, 1.908453e-002
3.139544e+003, 1.902607e-002
3.141472e+003, 1.997519e-002
3.143401e+003, 2.121183e-002
3.145329e+003, 2.086179e-002
3.147258e+003, 2.034617e-002
3.149186e+003, 2.089342e-002
3.151115e+003, 2.111945e-002
3.153043e+003, 2.021153e-002
3.154971e+003, 2.003239e-002
3.156900e+003, 2.020171e-002
3.158828e+003, 2.040765e-002
3.160757e+003, 2.004154e-002
3.162685e+003, 1.961137e-002
3.164614e+003, 1.939480e-002
3.166542e+003, 2.034458e-002
3.168471e+003, 2.025034e-002
3.170399e+003, 2.027008e-002
3.172328e+003, 2.079181e-002
3.174256e+003, 2.106139e-002
3.176185e+003, 2.086615e-002
3.178113e+003, 1.969658e-002
3.180042e+003, 1.960575e-002
3.181970e+003, 2.025169e-002
3.183898e+003, 2.018975e-002
3.185827e+003, 2.028438e-002
3.187755e+003, 1.985253e-002
3.189684e+003, 1.970361e-002
3.191612e+003, 1.982894e-002
3.193541e+003, 1.978424e-002
3.195469e+003, 2.011646e-002
3.197398e+003, 2.036915e-002
3.199326e+003, 2.019737e-002
3.201255e+003, 2.044429e-002
3.203183e+003, 1.984536e-002
3.205112e+003, 1.994152e-002
3.207040e+003, 1.996690e-002
3.208969e+003, 2.069708e-002
3.210897e+003, 2.042557e-002
3.212825e+003, 2.002184e-002
3.214754e+003, 2.042888e-002
3.216682e+003, 2.118441e-002
3.218611e+003, 2.164608e-002
3.220539e+003, 2.160257e-002
3.222468e+003, 2.092461e-002
3.224396e+003, 2.060232e-002
3.226325e+003, 2.112191e-002
3.228253e+003, 2.135600e-002
3.230182e+003, 2.059509e-002
3.232110e+003, 2.086866e-002
3.234039e+003, 2.185686e-002
3.235967e+003, 2.178664e-002
3.237896e+003, 2.020935e-002
3.239824e+003, 2.021639e-002
3.241752e+003, 2.155972e-002
3.243681e+003, 2.153687e-002
3.245609e+003, 2.182263e-002
3.247538e+003, 2.255681e-002
3.249466e+003, 2.171351e-002
3.251395e+003, 2.105180e-002
3.253323e+003, 2.110792e-002
3.255252e+003, 2.198654e-002
3.257180e+003, 2.199220e-002
3.259109e+003, 2.194646e-002
3.261037e+003, 2.204359e-002
3.262966e+003, 2.135549e-002
3.264894e+003, 2.142619e-002
3.266823e+003, 2.202305e-002
3.268751e+003, 2.219425e-002
3.270679e+003, 2.249007e-002
3.272608e+003, 2.309582e-002
3.274536e+003, 2.361855e-002
3.276465e+003, 2.164365e-002
3.278393e+003, 2.205275e-002
3.280322e+003, 2.288065e-002
3.282250e+003, 2.201517e-002
3.284179e+003, 2.252000e-002
3.286107e+003, 2.348635e-002
3.288036e+003, 2.253095e-002
3.289964e+003, 2.162865e-002
3.291893e+003, 2.102896e-002
3.293821e+003, 2.052199e-002
3.295750e+003, 2.029577e-002
3.297678e+003, 2.113981e-002
3.299606e+003, 2.269456e-002
3.301535e+003, 2.256688e-002
3.303463e+003, 2.291842e-002
3.305392e+003, 2.436525e-002
3.307320e+003, 2.382194e-002
3.309249e+003, 2.291007e-002
3.311177e+003, 2.244712e-002
3.313106e+003, 2.214740e-002
3.315034e+003, 2.171868e-002
3.316963e+003, 2.196992e-002
3.318891e+003, 2.297942e-002
3.320820e+003, 2.311750e-002
3.322748e+003, 2.263254e-002
3.324677e+003, 2.144570e-002
3.326605e+003, 2.244210e-002
3.328533e+003, 2.336844e-002
3.330462e+003, 2.227365e-002
3.332390e+003, 2.202016e-002
3.334319e+003, 2.178438e-002
3.336247e+003, 2.294491e-002
3.338176e+003, 2.413569e-002
3.340104e+003, 2.334394e-002
3.342033e+003, 2.312341e-002
3.343961e+003, 2.243681e-002
3.345890e+003, 2.211506e-002
3.347818e+003, 2.285554e-002
3.349747e+003, 2.433560e-002
3.351675e+003, 2.431219e-002
3.353604e+003, 2.249367e-002
3.355532e+003, 2.234268e-002
3.357460e+003, 2.220181e-002
3.359389e+003, 2.235199e-002
3.361317e+003, 2.284035e-002
3.363246e+003, 2.210426e-002
3.365174e+003, 2.186041e-002
3.367103e+003, 2.241878e-002
3.369031e+003, 2.315163e-002
3.370960e+003, 2.302996e-002
3.372888e+003, 2.285071e-002
3.374817e+003, 2.310834e-002
3.376745e+003, 2.301240e-002
3.378674e+003, 2.357773e-002
3.380602e+003, 2.384253e-002
3.382531e+003, 2.331364e-002
3.384459e+003, 2.312147e-002
3.386387e+003, 2.288081e-002
3.388316e+003, 2.305425e-002
3.390244e+003, 2.376677e-002
3.392173e+003, 2.344375e-002
3.394101e+003, 2.354007e-002
3.396030e+003, 2.391694e-002
3.397958e+003, 2.293603e-002
3.399887e+003, 2.259436e-002
3.401815e+003, 2.293226e-002
3.403744e+003, 2.297165e-002
3.405672e+003, 2.388911e-002
3.407601e+003, 2.393876e-002
3.409529e+003, 2.371023e-002
3.411458e+003, 2.324010e-002
3.413386e+003, 2.262888e-002
3.415314e+003, 2.270923e-002
3.417243e+003, 2.394973e-002
3.419171e+003, 2.402495e-002
3.421100e+003, 2.285068e-002
3.423028e+003, 2.274225e-002
3.424957e+003, 2.335252e-002
3.426885e+003, 2.325198e-002
3.428814e+003, 2.379186e-002
3.430742e+003, 2.421083e-002
3.432671e+003, 2.510972e-002
3.434599e+003, 2.465937e-002
3.436528e+003, 2.455260e-002
3.438456e+003, 2.406939e-002
3.440385e+003, 2.392293e-002
3.442313e+003, 2.565252e-002
3.444241e+003, 2.575641e-002
3.446170e+003, 2.387486e-002
3.448098e+003, 2.264256e-002
3.450027e+003, 2.348745e-002
3.451955e+003, 2.413762e-002
3.453884e+003, 2.358635e-002
3.455812e+003, 2.419551e-002
3.457741e+003, 2.440271e-002
3.459669e+003, 2.373224e-002
3.461598e+003, 2.388300e-002
3.463526e+003, 2.482183e-002
3.465455e+003, 2.413198e-002
3.467383e+003, 2.379500e-002
3.469312e+003, 2.377058e-002
3.471240e+003, 2.275098e-002
3.473168e+003, 2.269005e-002
3.475097e+003, 2.294058e-002
3.477025e+003, 2.305155e-002
3.478954e+003, 2.371856e-002
3.480882e+003, 2.346783e-002
3.482811e+003, 2.291754e-002
3.484739e+003, 2.354119e-002
3.486668e+003, 2.409763e-002
3.488596e+003, 2.453814e-002
3.490525e+003, 2.390783e-002
3.492453e+003, 2.271813e-002
3.494382e+003, 2.282033e-002
3.496310e+003, 2.367652e-002
3.498239e+003, 2.582795e-002
3.500167e+003, 2.596441e-002
3.502095e+003, 2.368735e-002
3.504024e+003, 2.268994e-002
3.505952e+003, 2.283430e-002
3.507881e+003, 2.249433e-002
3.509809e+003, 2.415553e-002
3.511738e+003, 2.426738e-002
3.513666e+003, 2.357859e-002
3.515595e+003, 2.332050e-002
3.517523e+003, 2.312551e-002
3.519452e+003, 2.410136e-002
3.521380e+003, 2.469555e-002
3.523309e+003, 2.377230e-002
3.525237e+003, 2.425276e-002
3.527166e+003, 2.387624e-002
3.529094e+003, 2.286337e-002
3.531022e+003, 2.224343e-002
3.532951e+003, 2.284790e-002
3.534879e+003, 2.220108e-002
3.536808e+003, 2.250526e-002
3.538736e+003, 2.319404e-002
3.540665e+003, 2.428559e-002
3.542593e+003, 2.428671e-002
3.544522e+003, 2.318495e-002
3.546450e+003, 2.286316e-002
3.548379e+003, 2.326682e-002
3.550307e+003, 2.409158e-002
3.552236e+003, 2.434147e-002
3.554164e+003, 2.398032e-002
3.556093e+003, 2.279204e-002
3.558021e+003, 2.194316e-002
3.559949e+003, 2.317801e-002
3.561878e+003, 2.371334e-002
3.563806e+003, 2.329262e-002
3.565735e+003, 2.355848e-002
3.567663e+003, 2.327455e-002
3.569592e+003, 2.276390e-002
3.571520e+003, 2.268589e-002
3.573449e+003, 2.181162e-002
3.575377e+003, 2.193997e-002
3.577306e+003, 2.198933e-002
3.579234e+003, 2.387084e-002
3.581163e+003, 2.458399e-002
3.583091e+003, 2.478186e-002
3.585020e+003, 2.674536e-002
3.586948e+003, 2.637449e-002
3.588876e+003, 2.374461e-002
3.590805e+003, 2.406273e-002
3.592733e+003, 2.389477e-002
3.594662e+003, 2.291832e-002
3.596590e+003, 2.143086e-002
3.598519e+003, 2.184644e-002
3.600447e+003, 2.285985e-002
3.602376e+003, 2.303902e-002
3.604304e+003, 2.208438e-002
3.606233e+003, 2.170472e-002
3.608161e+003, 2.250214e-002
3.610090e+003, 2.376620e-002
3.612018e+003, 2.318191e-002
3.613947e+003, 2.251493e-002
3.615875e+003, 2.251815e-002
3.617803e+003, 2.322410e-002
3.619732e+003, 2.281244e-002
3.621660e+003, 2.336980e-002
3.623589e+003, 2.526395e-002
3.625517e+003, 2.611589e-002
3.627446e+003, 2.413086e-002
3.629374e+003, 2.273365e-002
3.631303e+003, 2.284660e-002
3.633231e+003, 2.214547e-002
3.635160e+003, 2.318302e-002
3.637088e+003, 2.487299e-002
3.639017e+003, 2.469444e-002
3.640945e+003, 2.431609e-002
3.642874e+003, 2.460605e-002
3.644802e+003, 2.464329e-002
3.646730e+003, 2.408264e-002
3.648659e+003, 2.380386e-002
3.650587e+003, 2.282606e-002
3.652516e+003, 2.295160e-002
3.654444e+003, 2.264337e-002
3.656373e+003, 2.380648e-002
3.658301e+003, 2.446692e-002
3.660230e+003, 2.370713e-002
3.662158e+003, 2.195931e-002
3.664087e+003, 2.227771e-002
3.666015e+003, 2.378960e-002
3.667944e+003, 2.366375e-002
3.669872e+003, 2.146057e-002
3.671801e+003, 2.192945e-002
3.673729e+003, 2.254031e-002
3.675657e+003, 2.241850e-002
3.677586e+003, 2.171651e-002
3.679514e+003, 2.131297e-002
3.681443e+003, 2.123661e-002
3.683371e+003, 2.213071e-002
3.685300e+003, 2.438887e-002
3.687228e+003, 2.421626e-002
3.689157e+003, 2.349711e-002
3.691085e+003, 2.482308e-002
3.693014e+003, 2.545933e-002
3.694942e+003, 2.526888e-002
3.696871e+003, 2.479541e-002
3.698799e+003, 2.438490e-002
3.700728e+003, 2.317749e-002
3.702656e+003, 2.313639e-002
3.704584e+003, 2.334833e-002
3.706513e+003, 2.299489e-002
3.708441e+003, 2.347765e-002
3.710370e+003, 2.367339e-002
3.712298e+003, 2.372495e-002
3.714227e+003, 2.374285e-002
3.716155e+003, 2.326800e-002
3.718084e+003, 2.388913e-002
3.720012e+003, 2.294269e-002
3.721941e+003, 2.313549e-002
3.723869e+003, 2.448714e-002
3.725798e+003, 2.466474e-002
3.727726e+003, 2.304649e-002
3.729655e+003, 2.398476e-002
3.731583e+003, 2.450287e-002
3.733511e+003, 2.436113e-002
3.735440e+003, 2.338813e-002
3.737368e+003, 2.334573e-002
3.739297e+003, 2.396672e-002
3.741225e+003, 2.366460e-002
3.743154e+003, 2.495380e-002
3.745082e+003, 2.354163e-002
3.747011e+003, 2.258434e-002
3.748939e+003, 2.196340e-002
3.750868e+003, 2.358776e-002
3.752796e+003, 2.534936e-002
3.754725e+003, 2.676436e-002
3.756653e+003, 2.518821e-002
3.758582e+003, 2.434445e-002
3.760510e+003, 2.415897e-002
3.762438e+003, 2.268388e-002
3.764367e+003, 2.345811e-002
3.766295e+003, 2.344416e-002
3.768224e+003, 2.206019e-002
3.770152e+003, 2.189246e-002
3.772081e+003, 2.365139e-002
3.774009e+003, 2.367203e-002
3.775938e+003, 2.489971e-002
3.777866e+003, 2.526374e-002
3.779795e+003, 2.357423e-002
3.781723e+003, 2.205338e-002
3.783652e+003, 2.319018e-002
3.785580e+003, 2.301686e-002
3.787509e+003, 2.391180e-002
3.789437e+003, 2.311657e-002
3.791365e+003, 2.399640e-002
3.793294e+003, 2.475908e-002
3.795222e+003, 2.474762e-002
3.797151e+003, 2.540594e-002
3.799079e+003, 2.496433e-002
3.801008e+003, 2.369706e-002
3.802936e+003, 2.408788e-002
3.804865e+003, 2.475821e-002
3.806793e+003, 2.580713e-002
3.808722e+003, 2.580114e-002
3.810650e+003, 2.516965e-002
3.812579e+003, 2.494951e-002
3.814507e+003, 2.401778e-002
3.816436e+003, 2.207210e-002
3.818364e+003, 2.422677e-002
3.820292e+003, 2.552091e-002
3.822221e+003, 2.442675e-002
3.824149e+003, 2.435572e-002
3.826078e+003, 2.599530e-002
3.828006e+003, 2.255460e-002
3.829935e+003, 2.224599e-002
3.831863e+003, 2.448198e-002
3.833792e+003, 2.570334e-002
3.835720e+003, 2.565603e-002
3.837649e+003, 2.506314e-002
3.839577e+003, 2.540652e-002
3.841506e+003, 2.584930e-002
3.843434e+003, 2.442747e-002
3.845363e+003, 2.402941e-002
3.847291e+003, 2.601282e-002
3.849219e+003, 2.643580e-002
3.851148e+003, 2.574760e-002
3.853076e+003, 2.443853e-002
3.855005e+003, 2.277247e-002
3.856933e+003, 2.412688e-002
3.858862e+003, 2.501229e-002
3.860790e+003, 2.579087e-002
3.862719e+003, 2.456715e-002
3.864647e+003, 2.477028e-002
3.866576e+003, 2.452262e-002
3.868504e+003, 2.341741e-002
3.870433e+003, 2.138361e-002
3.872361e+003, 2.330080e-002
3.874290e+003, 2.446196e-002
3.876218e+003, 2.488462e-002
3.878146e+003, 2.507335e-002
3.880075e+003, 2.525068e-002
3.882003e+003, 2.403211e-002
3.883932e+003, 2.178292e-002
3.885860e+003, 1.993958e-002
3.887789e+003, 2.073383e-002
3.889717e+003, 2.272446e-002
3.891646e+003, 2.218703e-002
3.893574e+003, 2.240307e-002
3.895503e+003, 2.329055e-002
3.897431e+003, 2.345529e-002
3.899360e+003, 2.356198e-002
3.901288e+003, 2.463119e-002
3.903217e+003, 2.377021e-002
3.905145e+003, 2.330896e-002
3.907073e+003, 2.493388e-002
3.909002e+003, 2.523287e-002
3.910930e+003, 2.505505e-002
3.912859e+003, 2.632633e-002
3.914787e+003, 2.630549e-002
3.916716e+003, 2.614213e-002
3.918644e+003, 2.520199e-002
3.920573e+003, 2.278701e-002
3.922501e+003, 2.284081e-002
3.924430e+003, 2.608785e-002
3.926358e+003, 2.637134e-002
3.928287e+003, 2.414436e-002
3.930215e+003, 2.558918e-002
3.932144e+003, 2.669554e-002
3.934072e+003, 2.618882e-002
3.936000e+003, 2.361614e-002
3.937929e+003, 2.313281e-002
3.939857e+003, 2.425155e-002
3.941786e+003, 2.454356e-002
3.943714e+003, 2.499271e-002
3.945643e+003, 2.552470e-002
3.947571e+003, 2.578059e-002
3.949500e+003, 2.834246e-002
3.951428e+003, 2.810898e-002
3.953357e+003, 2.603131e-002
3.955285e+003, 2.567266e-002
3.957214e+003, 2.581556e-002
3.959142e+003, 2.673740e-002
3.961071e+003, 2.647926e-002
3.962999e+003, 2.509761e-002
3.964927e+003, 2.447283e-002
3.966856e+003, 2.463290e-002
3.968784e+003, 2.602444e-002
3.970713e+003, 2.787173e-002
3.972641e+003, 2.642231e-002
3.974570e+003, 2.581729e-002
3.976498e+003, 2.679386e-002
3.978427e+003, 2.496221e-002
3.980355e+003, 2.531028e-002
3.982284e+003, 2.562431e-002
3.984212e+003, 2.674643e-002
3.986141e+003, 2.764091e-002
3.988069e+003, 2.689517e-002
3.989998e+003, 2.578066e-002
3.991926e+003, 2.764868e-002
3.993854e+003, 2.948456e-002
3.995783e+003, 2.759543e-002
3.997711e+003, 2.738017e-002
3.999640e+003, 2.739503e-002
##END=



