##NAMES=Barysilite
##RRUFFID=R050002
##IDEAL CHEMISTRY=Pb^2+^_8_Mn^2+^(Si_2_O_7_)_3_
##LOCALITY=Franklin, Sussex County, New Jersey, USA
##OWNER=RRUFF
##SOURCE=University of Arizona Mineral Museum
##DESCRIPTION=A lamellar aggregate of platy crystals
##STATUS=The identification of this mineral has been confirmed by X-ray diffraction and chemical analysis
##URL=rruff.info/R050002
##MEASURED CHEMISTRY=Pb_8.00_Mn_1.00_(Si_2.00_O_7_)_3_
3.991926e+002, 0.000000e+000
4.011211e+002, 1.481659e-001
4.030496e+002, 1.488573e-001
4.049780e+002, 1.531499e-001
4.069065e+002, 1.606861e-001
4.088350e+002, 1.655046e-001
4.107634e+002, 1.695040e-001
4.126919e+002, 1.741690e-001
4.146204e+002, 1.771703e-001
4.165488e+002, 1.790503e-001
4.184773e+002, 1.783116e-001
4.204058e+002, 1.775736e-001
4.223342e+002, 1.769134e-001
4.242627e+002, 1.736782e-001
4.261912e+002, 1.722196e-001
4.281196e+002, 1.706517e-001
4.300481e+002, 1.683489e-001
4.319766e+002, 1.658848e-001
4.339050e+002, 1.634562e-001
4.358335e+002, 1.615403e-001
4.377620e+002, 1.613429e-001
4.396904e+002, 1.613829e-001
4.416189e+002, 1.597916e-001
4.435474e+002, 1.566896e-001
4.454758e+002, 1.510479e-001
4.474043e+002, 1.420115e-001
4.493328e+002, 1.332537e-001
4.512612e+002, 1.294383e-001
4.531897e+002, 1.313516e-001
4.551182e+002, 1.387987e-001
4.570466e+002, 1.518509e-001
4.589751e+002, 1.683415e-001
4.609036e+002, 1.747280e-001
4.628320e+002, 1.651736e-001
4.647605e+002, 1.494150e-001
4.666890e+002, 1.361642e-001
4.686174e+002, 1.288414e-001
4.705459e+002, 1.271572e-001
4.724744e+002, 1.305627e-001
4.744028e+002, 1.359959e-001
4.763313e+002, 1.382550e-001
4.782598e+002, 1.353214e-001
4.801882e+002, 1.269834e-001
4.821167e+002, 1.145101e-001
4.840452e+002, 1.016008e-001
4.859736e+002, 9.013660e-002
4.879021e+002, 7.949704e-002
4.898306e+002, 6.995604e-002
4.917590e+002, 6.322918e-002
4.936875e+002, 5.944422e-002
4.956160e+002, 5.697623e-002
4.975444e+002, 5.595269e-002
4.994729e+002, 5.644365e-002
5.014014e+002, 5.787135e-002
5.033298e+002, 6.025711e-002
5.052583e+002, 6.457876e-002
5.071868e+002, 7.114039e-002
5.091152e+002, 7.964871e-002
5.110437e+002, 9.022428e-002
5.129722e+002, 1.038318e-001
5.149006e+002, 1.211611e-001
5.168291e+002, 1.417825e-001
5.187576e+002, 1.633364e-001
5.206860e+002, 1.821553e-001
5.226145e+002, 1.913958e-001
5.245430e+002, 1.863112e-001
5.264714e+002, 1.686456e-001
5.283999e+002, 1.453008e-001
5.303284e+002, 1.215101e-001
5.322568e+002, 1.000599e-001
5.341853e+002, 8.514515e-002
5.361138e+002, 7.622678e-002
5.380422e+002, 7.266911e-002
5.399707e+002, 7.387519e-002
5.418992e+002, 7.895888e-002
5.438276e+002, 8.744283e-002
5.457561e+002, 9.894493e-002
5.476846e+002, 1.105919e-001
5.496130e+002, 1.174196e-001
5.515415e+002, 1.156672e-001
5.534700e+002, 1.063712e-001
5.553984e+002, 9.310374e-002
5.573269e+002, 7.902631e-002
5.592554e+002, 6.735639e-002
5.611838e+002, 5.868834e-002
5.631123e+002, 5.261291e-002
5.650408e+002, 4.917778e-002
5.669692e+002, 4.779566e-002
5.688977e+002, 4.740129e-002
5.708262e+002, 4.763813e-002
5.727546e+002, 4.889692e-002
5.746831e+002, 5.028782e-002
5.766116e+002, 5.092319e-002
5.785400e+002, 5.050632e-002
5.804685e+002, 4.937645e-002
5.823970e+002, 4.871865e-002
5.843254e+002, 4.847120e-002
5.862539e+002, 4.810555e-002
5.881824e+002, 4.799765e-002
5.901108e+002, 4.731763e-002
5.920393e+002, 4.598330e-002
5.939678e+002, 4.473856e-002
5.958962e+002, 4.431256e-002
5.978247e+002, 4.432249e-002
5.997532e+002, 4.407779e-002
6.016816e+002, 4.401768e-002
6.036101e+002, 4.484108e-002
6.055386e+002, 4.644231e-002
6.074670e+002, 4.855247e-002
6.093955e+002, 5.077837e-002
6.113240e+002, 5.289744e-002
6.132524e+002, 5.412578e-002
6.151809e+002, 5.399113e-002
6.171094e+002, 5.270645e-002
6.190378e+002, 5.077496e-002
6.209663e+002, 4.839283e-002
6.228948e+002, 4.571862e-002
6.248232e+002, 4.331170e-002
6.267517e+002, 4.194519e-002
6.286802e+002, 4.125538e-002
6.306086e+002, 4.050029e-002
6.325371e+002, 3.988437e-002
6.344656e+002, 3.973158e-002
6.363940e+002, 4.004740e-002
6.383225e+002, 4.062628e-002
6.402510e+002, 4.133233e-002
6.421794e+002, 4.218118e-002
6.441079e+002, 4.312141e-002
6.460364e+002, 4.417393e-002
6.479648e+002, 4.525020e-002
6.498933e+002, 4.609702e-002
6.518218e+002, 4.726578e-002
6.537502e+002, 4.880961e-002
6.556787e+002, 4.997770e-002
6.576072e+002, 5.107810e-002
6.595356e+002, 5.251785e-002
6.614641e+002, 5.453434e-002
6.633926e+002, 5.674364e-002
6.653210e+002, 5.884901e-002
6.672495e+002, 6.118807e-002
6.691780e+002, 6.391035e-002
6.711064e+002, 6.708822e-002
6.730349e+002, 7.064240e-002
6.749634e+002, 7.626855e-002
6.768918e+002, 8.356582e-002
6.788203e+002, 8.886879e-002
6.807488e+002, 9.086941e-002
6.826772e+002, 9.282923e-002
6.846057e+002, 9.798697e-002
6.865342e+002, 1.065102e-001
6.884626e+002, 1.173955e-001
6.903911e+002, 1.300350e-001
6.923196e+002, 1.446219e-001
6.942480e+002, 1.605267e-001
6.961765e+002, 1.759452e-001
6.981050e+002, 1.874061e-001
7.000334e+002, 1.858543e-001
7.019619e+002, 1.634652e-001
7.038904e+002, 1.274367e-001
7.058188e+002, 9.466098e-002
7.077473e+002, 7.268288e-002
7.096758e+002, 6.002132e-002
7.116042e+002, 5.334325e-002
7.135327e+002, 5.045616e-002
7.154612e+002, 5.027641e-002
7.173896e+002, 5.169632e-002
7.193181e+002, 5.393371e-002
7.212466e+002, 5.626705e-002
7.231750e+002, 5.900591e-002
7.251035e+002, 6.212766e-002
7.270320e+002, 6.520166e-002
7.289604e+002, 6.839970e-002
7.308889e+002, 7.162666e-002
7.328174e+002, 7.467760e-002
7.347458e+002, 7.777499e-002
7.366743e+002, 8.124615e-002
7.386028e+002, 8.496272e-002
7.405313e+002, 8.842023e-002
7.424597e+002, 9.192012e-002
7.443882e+002, 9.545548e-002
7.463167e+002, 9.946501e-002
7.482451e+002, 1.035167e-001
7.501736e+002, 1.075113e-001
7.521021e+002, 1.117977e-001
7.540305e+002, 1.161656e-001
7.559590e+002, 1.205040e-001
7.578875e+002, 1.248587e-001
7.598159e+002, 1.288679e-001
7.617444e+002, 1.327734e-001
7.636729e+002, 1.368431e-001
7.656013e+002, 1.409564e-001
7.675298e+002, 1.452735e-001
7.694583e+002, 1.500123e-001
7.713867e+002, 1.550164e-001
7.733152e+002, 1.600047e-001
7.752437e+002, 1.649184e-001
7.771721e+002, 1.698785e-001
7.791006e+002, 1.753702e-001
7.810291e+002, 1.811610e-001
7.829575e+002, 1.866826e-001
7.848860e+002, 1.919864e-001
7.868145e+002, 1.974775e-001
7.887429e+002, 2.031146e-001
7.906714e+002, 2.087592e-001
7.925999e+002, 2.149374e-001
7.945283e+002, 2.213217e-001
7.964568e+002, 2.272127e-001
7.983853e+002, 2.329376e-001
8.003137e+002, 2.389959e-001
8.022422e+002, 2.454040e-001
8.041707e+002, 2.521934e-001
8.060991e+002, 2.592681e-001
8.080276e+002, 2.670312e-001
8.099561e+002, 2.750875e-001
8.118845e+002, 2.830746e-001
8.138130e+002, 2.910479e-001
8.157415e+002, 2.988932e-001
8.176699e+002, 3.068657e-001
8.195984e+002, 3.140036e-001
8.215269e+002, 3.203713e-001
8.234553e+002, 3.251719e-001
8.253838e+002, 3.279313e-001
8.273123e+002, 3.291885e-001
8.292407e+002, 3.278996e-001
8.311692e+002, 3.231197e-001
8.330977e+002, 3.149770e-001
8.350261e+002, 3.036374e-001
8.369546e+002, 2.897450e-001
8.388831e+002, 2.741998e-001
8.408115e+002, 2.583426e-001
8.427400e+002, 2.445906e-001
8.446685e+002, 2.354423e-001
8.465969e+002, 2.316816e-001
8.485254e+002, 2.330533e-001
8.504539e+002, 2.383962e-001
8.523823e+002, 2.461475e-001
8.543108e+002, 2.554497e-001
8.562393e+002, 2.657458e-001
8.581677e+002, 2.762129e-001
8.600962e+002, 2.867872e-001
8.620247e+002, 2.972453e-001
8.639531e+002, 3.076830e-001
8.658816e+002, 3.171509e-001
8.678101e+002, 3.245357e-001
8.697385e+002, 3.295535e-001
8.716670e+002, 3.319343e-001
8.735955e+002, 3.330798e-001
8.755239e+002, 3.352234e-001
8.774524e+002, 3.389023e-001
8.793809e+002, 3.435777e-001
8.813093e+002, 3.479798e-001
8.832378e+002, 3.512774e-001
8.851663e+002, 3.527985e-001
8.870947e+002, 3.515548e-001
8.890232e+002, 3.475429e-001
8.909517e+002, 3.414721e-001
8.928801e+002, 3.335303e-001
8.948085e+002, 3.237318e-001
8.967370e+002, 3.135796e-001
8.986655e+002, 3.043319e-001
9.005939e+002, 2.960689e-001
9.025224e+002, 2.900932e-001
9.044509e+002, 2.875353e-001
9.063793e+002, 2.876005e-001
9.083078e+002, 2.892874e-001
9.102363e+002, 2.898726e-001
9.121647e+002, 2.860864e-001
9.140932e+002, 2.768550e-001
9.160217e+002, 2.637500e-001
9.179501e+002, 2.523088e-001
9.198786e+002, 2.483088e-001
9.218071e+002, 2.544801e-001
9.237355e+002, 2.684601e-001
9.256640e+002, 2.836191e-001
9.275925e+002, 2.931771e-001
9.295209e+002, 2.944833e-001
9.314494e+002, 2.894002e-001
9.333779e+002, 2.801899e-001
9.353063e+002, 2.685889e-001
9.372348e+002, 2.553147e-001
9.391633e+002, 2.417533e-001
9.410917e+002, 2.282931e-001
9.430202e+002, 2.146824e-001
9.449487e+002, 2.018477e-001
9.468771e+002, 1.898065e-001
9.488056e+002, 1.783633e-001
9.507341e+002, 1.676423e-001
9.526625e+002, 1.577666e-001
9.545910e+002, 1.488857e-001
9.565195e+002, 1.411564e-001
9.584479e+002, 1.347346e-001
9.603764e+002, 1.295941e-001
9.623049e+002, 1.259576e-001
9.642333e+002, 1.242497e-001
9.661618e+002, 1.236689e-001
9.680903e+002, 1.228874e-001
9.700187e+002, 1.210625e-001
9.719472e+002, 1.178501e-001
9.738757e+002, 1.130589e-001
9.758041e+002, 1.072599e-001
9.777326e+002, 1.007196e-001
9.796611e+002, 9.387100e-002
9.815895e+002, 8.699716e-002
9.835180e+002, 8.012397e-002
9.854465e+002, 7.367211e-002
9.873749e+002, 6.763666e-002
9.893034e+002, 6.204166e-002
9.912319e+002, 5.699354e-002
9.931603e+002, 5.256088e-002
9.950888e+002, 4.868766e-002
9.970173e+002, 4.528247e-002
9.989457e+002, 4.253202e-002
1.000874e+003, 4.019241e-002
1.002803e+003, 3.803338e-002
1.004731e+003, 3.606956e-002
1.006660e+003, 3.438085e-002
1.008588e+003, 3.294909e-002
1.010517e+003, 3.140477e-002
1.012445e+003, 2.983785e-002
1.014373e+003, 2.860365e-002
1.016302e+003, 2.756772e-002
1.018230e+003, 2.633027e-002
1.020159e+003, 2.507972e-002
1.022087e+003, 2.419247e-002
1.024016e+003, 2.345120e-002
1.025944e+003, 2.273653e-002
1.027873e+003, 2.207172e-002
1.029801e+003, 2.139606e-002
1.031730e+003, 2.087421e-002
1.033658e+003, 2.070448e-002
1.035587e+003, 2.044492e-002
1.037515e+003, 1.990683e-002
1.039444e+003, 1.923998e-002
1.041372e+003, 1.856168e-002
1.043301e+003, 1.800280e-002
1.045229e+003, 1.762239e-002
1.047157e+003, 1.735802e-002
1.049086e+003, 1.709774e-002
1.051014e+003, 1.720083e-002
1.052943e+003, 1.722887e-002
1.054871e+003, 1.675857e-002
1.056800e+003, 1.606428e-002
1.058728e+003, 1.558553e-002
1.060657e+003, 1.536347e-002
1.062585e+003, 1.528824e-002
1.064514e+003, 1.530297e-002
1.066442e+003, 1.530752e-002
1.068371e+003, 1.547689e-002
1.070299e+003, 1.558106e-002
1.072228e+003, 1.565234e-002
1.074156e+003, 1.579672e-002
1.076084e+003, 1.639903e-002
1.078013e+003, 1.715448e-002
1.079941e+003, 1.781715e-002
1.081870e+003, 1.849287e-002
1.083798e+003, 1.864095e-002
1.085727e+003, 1.864007e-002
1.087655e+003, 1.892409e-002
1.089584e+003, 1.898089e-002
1.091512e+003, 1.864343e-002
1.093441e+003, 1.800625e-002
1.095369e+003, 1.725990e-002
1.097298e+003, 1.669482e-002
1.099226e+003, 1.617229e-002
1.101155e+003, 1.586622e-002
1.103083e+003, 1.574326e-002
1.105011e+003, 1.543515e-002
1.106940e+003, 1.543992e-002
1.108868e+003, 1.546383e-002
1.110797e+003, 1.523771e-002
1.112725e+003, 1.502599e-002
1.114654e+003, 1.497948e-002
1.116582e+003, 1.503066e-002
1.118511e+003, 1.495236e-002
1.120439e+003, 1.497327e-002
1.122368e+003, 1.502640e-002
1.124296e+003, 1.520739e-002
1.126225e+003, 1.529091e-002
1.128153e+003, 1.513013e-002
1.130082e+003, 1.513213e-002
1.132010e+003, 1.531541e-002
1.133938e+003, 1.561302e-002
1.135867e+003, 1.578352e-002
1.137795e+003, 1.569935e-002
1.139724e+003, 1.573869e-002
1.141652e+003, 1.592520e-002
1.143581e+003, 1.613135e-002
1.145509e+003, 1.605427e-002
1.147438e+003, 1.586244e-002
1.149366e+003, 1.605024e-002
1.151295e+003, 1.616222e-002
1.153223e+003, 1.572738e-002
1.155152e+003, 1.530908e-002
1.157080e+003, 1.486051e-002
1.159009e+003, 1.438242e-002
1.160937e+003, 1.413332e-002
1.162865e+003, 1.386688e-002
1.164794e+003, 1.345524e-002
1.166722e+003, 1.307051e-002
1.168651e+003, 1.265020e-002
1.170579e+003, 1.236161e-002
1.172508e+003, 1.219928e-002
1.174436e+003, 1.193171e-002
1.176365e+003, 1.167611e-002
1.178293e+003, 1.150617e-002
1.180222e+003, 1.145974e-002
1.182150e+003, 1.144073e-002
1.184079e+003, 1.125607e-002
1.186007e+003, 1.112148e-002
1.187936e+003, 1.120153e-002
1.189864e+003, 1.121994e-002
1.191792e+003, 1.125366e-002
1.193721e+003, 1.120898e-002
1.195649e+003, 1.109721e-002
1.197578e+003, 1.122800e-002
1.199506e+003, 1.133866e-002
1.201435e+003, 1.123540e-002
1.203363e+003, 1.099283e-002
1.205292e+003, 1.075743e-002
1.207220e+003, 1.083484e-002
1.209149e+003, 1.101243e-002
1.211077e+003, 1.114822e-002
1.213006e+003, 1.111174e-002
1.214934e+003, 1.109287e-002
1.216863e+003, 1.110868e-002
1.218791e+003, 1.123560e-002
1.220719e+003, 1.138836e-002
1.222648e+003, 1.146669e-002
1.224576e+003, 1.135144e-002
1.226505e+003, 1.132509e-002
1.228433e+003, 1.150810e-002
1.230362e+003, 1.167336e-002
1.232290e+003, 1.161933e-002
1.234219e+003, 1.156360e-002
1.236147e+003, 1.163820e-002
1.238076e+003, 1.178482e-002
1.240004e+003, 1.195348e-002
1.241933e+003, 1.201738e-002
1.243861e+003, 1.184767e-002
1.245790e+003, 1.191614e-002
1.247718e+003, 1.217910e-002
1.249646e+003, 1.234114e-002
1.251575e+003, 1.228714e-002
1.253503e+003, 1.229256e-002
1.255432e+003, 1.246356e-002
1.257360e+003, 1.263860e-002
1.259289e+003, 1.277766e-002
1.261217e+003, 1.278790e-002
1.263146e+003, 1.291073e-002
1.265074e+003, 1.317507e-002
1.267003e+003, 1.339806e-002
1.268931e+003, 1.358252e-002
1.270860e+003, 1.386433e-002
1.272788e+003, 1.409908e-002
1.274717e+003, 1.426232e-002
1.276645e+003, 1.445998e-002
1.278573e+003, 1.476080e-002
1.280502e+003, 1.491565e-002
1.282430e+003, 1.505163e-002
1.284359e+003, 1.513291e-002
1.286287e+003, 1.523434e-002
1.288216e+003, 1.536329e-002
1.290144e+003, 1.561269e-002
1.292073e+003, 1.597787e-002
1.294001e+003, 1.627029e-002
1.295930e+003, 1.644346e-002
1.297858e+003, 1.659636e-002
1.299787e+003, 1.682636e-002
1.301715e+003, 1.708839e-002
1.303644e+003, 1.734987e-002
1.305572e+003, 1.757295e-002
1.307500e+003, 1.797539e-002
1.309429e+003, 1.824138e-002
1.311357e+003, 1.849700e-002
1.313286e+003, 1.881112e-002
1.315214e+003, 1.912373e-002
1.317143e+003, 1.924026e-002
1.319071e+003, 1.910588e-002
1.321000e+003, 1.921257e-002
1.322928e+003, 1.980766e-002
1.324857e+003, 2.016144e-002
1.326785e+003, 2.032667e-002
1.328714e+003, 2.059493e-002
1.330642e+003, 2.108329e-002
1.332571e+003, 2.158310e-002
1.334499e+003, 2.191492e-002
1.336427e+003, 2.205120e-002
1.338356e+003, 2.216916e-002
1.340284e+003, 2.250729e-002
1.342213e+003, 2.306410e-002
1.344141e+003, 2.347891e-002
1.346070e+003, 2.359458e-002
1.347998e+003, 2.385746e-002
1.349927e+003, 2.430502e-002
1.351855e+003, 2.478243e-002
1.353784e+003, 2.506963e-002
1.355712e+003, 2.518798e-002
1.357641e+003, 2.558448e-002
1.359569e+003, 2.589326e-002
1.361498e+003, 2.627333e-002
1.363426e+003, 2.690664e-002
1.365354e+003, 2.727356e-002
1.367283e+003, 2.755513e-002
1.369211e+003, 2.802775e-002
1.371140e+003, 2.867503e-002
1.373068e+003, 2.903034e-002
1.374997e+003, 2.934076e-002
1.376925e+003, 2.991137e-002
1.378854e+003, 3.041893e-002
1.380782e+003, 3.094399e-002
1.382711e+003, 3.153962e-002
1.384639e+003, 3.221735e-002
1.386568e+003, 3.282950e-002
1.388496e+003, 3.343459e-002
1.390424e+003, 3.417412e-002
1.392353e+003, 3.486372e-002
1.394281e+003, 3.530624e-002
1.396210e+003, 3.592908e-002
1.398138e+003, 3.654196e-002
1.400067e+003, 3.711282e-002
1.401995e+003, 3.749946e-002
1.403924e+003, 3.782360e-002
1.405852e+003, 3.800127e-002
1.407781e+003, 3.809175e-002
1.409709e+003, 3.797335e-002
1.411638e+003, 3.797116e-002
1.413566e+003, 3.810978e-002
1.415495e+003, 3.810997e-002
1.417423e+003, 3.808841e-002
1.419351e+003, 3.821360e-002
1.421280e+003, 3.831090e-002
1.423208e+003, 3.857782e-002
1.425137e+003, 3.884225e-002
1.427065e+003, 3.882203e-002
1.428994e+003, 3.915144e-002
1.430922e+003, 3.963929e-002
1.432851e+003, 3.981635e-002
1.434779e+003, 3.990238e-002
1.436708e+003, 4.019524e-002
1.438636e+003, 4.044323e-002
1.440565e+003, 4.055510e-002
1.442493e+003, 4.079767e-002
1.444422e+003, 4.076591e-002
1.446350e+003, 4.058599e-002
1.448278e+003, 4.043734e-002
1.450207e+003, 4.036655e-002
1.452135e+003, 4.025293e-002
1.454064e+003, 3.989996e-002
1.455992e+003, 3.954084e-002
1.457921e+003, 3.931485e-002
1.459849e+003, 3.921664e-002
1.461778e+003, 3.904514e-002
1.463706e+003, 3.876135e-002
1.465635e+003, 3.827055e-002
1.467563e+003, 3.815245e-002
1.469492e+003, 3.795255e-002
1.471420e+003, 3.726470e-002
1.473349e+003, 3.672043e-002
1.475277e+003, 3.624093e-002
1.477205e+003, 3.551595e-002
1.479134e+003, 3.497027e-002
1.481062e+003, 3.461184e-002
1.482991e+003, 3.406803e-002
1.484919e+003, 3.347457e-002
1.486848e+003, 3.309504e-002
1.488776e+003, 3.260385e-002
1.490705e+003, 3.198776e-002
1.492633e+003, 3.144583e-002
1.494562e+003, 3.088968e-002
1.496490e+003, 3.037463e-002
1.498419e+003, 2.985170e-002
1.500347e+003, 2.970263e-002
1.502276e+003, 2.964368e-002
1.504204e+003, 2.923161e-002
1.506132e+003, 2.892449e-002
1.508061e+003, 2.869677e-002
1.509989e+003, 2.841478e-002
1.511918e+003, 2.829044e-002
1.513846e+003, 2.831469e-002
1.515775e+003, 2.812050e-002
1.517703e+003, 2.796632e-002
1.519632e+003, 2.819114e-002
1.521560e+003, 2.838510e-002
1.523489e+003, 2.828602e-002
1.525417e+003, 2.815769e-002
1.527346e+003, 2.807359e-002
1.529274e+003, 2.799975e-002
1.531203e+003, 2.783169e-002
1.533131e+003, 2.771095e-002
1.535059e+003, 2.773346e-002
1.536988e+003, 2.758762e-002
1.538916e+003, 2.722316e-002
1.540845e+003, 2.708669e-002
1.542773e+003, 2.727513e-002
1.544702e+003, 2.749345e-002
1.546630e+003, 2.740829e-002
1.548559e+003, 2.749745e-002
1.550487e+003, 2.772645e-002
1.552416e+003, 2.780494e-002
1.554344e+003, 2.770267e-002
1.556273e+003, 2.759060e-002
1.558201e+003, 2.776960e-002
1.560130e+003, 2.802357e-002
1.562058e+003, 2.812474e-002
1.563986e+003, 2.806601e-002
1.565915e+003, 2.803863e-002
1.567843e+003, 2.805752e-002
1.569772e+003, 2.778142e-002
1.571700e+003, 2.760850e-002
1.573629e+003, 2.744793e-002
1.575557e+003, 2.736294e-002
1.577486e+003, 2.742278e-002
1.579414e+003, 2.751969e-002
1.581343e+003, 2.744765e-002
1.583271e+003, 2.733125e-002
1.585200e+003, 2.722909e-002
1.587128e+003, 2.708722e-002
1.589057e+003, 2.705865e-002
1.590985e+003, 2.691422e-002
1.592913e+003, 2.683752e-002
1.594842e+003, 2.672231e-002
1.596770e+003, 2.652709e-002
1.598699e+003, 2.648866e-002
1.600627e+003, 2.645685e-002
1.602556e+003, 2.657823e-002
1.604484e+003, 2.685746e-002
1.606413e+003, 2.676708e-002
1.608341e+003, 2.659687e-002
1.610270e+003, 2.669982e-002
1.612198e+003, 2.661245e-002
1.614127e+003, 2.629623e-002
1.616055e+003, 2.596630e-002
1.617984e+003, 2.568770e-002
1.619912e+003, 2.530826e-002
1.621840e+003, 2.513161e-002
1.623769e+003, 2.499016e-002
1.625697e+003, 2.493036e-002
1.627626e+003, 2.500183e-002
1.629554e+003, 2.505338e-002
1.631483e+003, 2.499846e-002
1.633411e+003, 2.456467e-002
1.635340e+003, 2.430143e-002
1.637268e+003, 2.427768e-002
1.639197e+003, 2.439404e-002
1.641125e+003, 2.423168e-002
1.643054e+003, 2.424398e-002
1.644982e+003, 2.421269e-002
1.646911e+003, 2.425169e-002
1.648839e+003, 2.444745e-002
1.650767e+003, 2.457179e-002
1.652696e+003, 2.459592e-002
1.654624e+003, 2.470213e-002
1.656553e+003, 2.478486e-002
1.658481e+003, 2.465445e-002
1.660410e+003, 2.465089e-002
1.662338e+003, 2.496098e-002
1.664267e+003, 2.500838e-002
1.666195e+003, 2.470516e-002
1.668124e+003, 2.456697e-002
1.670052e+003, 2.475658e-002
1.671981e+003, 2.498647e-002
1.673909e+003, 2.511380e-002
1.675838e+003, 2.502646e-002
1.677766e+003, 2.520176e-002
1.679694e+003, 2.556709e-002
1.681623e+003, 2.560163e-002
1.683551e+003, 2.546164e-002
1.685480e+003, 2.555899e-002
1.687408e+003, 2.571293e-002
1.689337e+003, 2.579669e-002
1.691265e+003, 2.593840e-002
1.693194e+003, 2.612615e-002
1.695122e+003, 2.618610e-002
1.697051e+003, 2.607803e-002
1.698979e+003, 2.598009e-002
1.700908e+003, 2.594747e-002
1.702836e+003, 2.615312e-002
1.704765e+003, 2.617122e-002
1.706693e+003, 2.632891e-002
1.708621e+003, 2.647602e-002
1.710550e+003, 2.637185e-002
1.712478e+003, 2.628013e-002
1.714407e+003, 2.635550e-002
1.716335e+003, 2.637187e-002
1.718264e+003, 2.656661e-002
1.720192e+003, 2.687395e-002
1.722121e+003, 2.710500e-002
1.724049e+003, 2.747065e-002
1.725978e+003, 2.800212e-002
1.727906e+003, 2.796924e-002
1.729835e+003, 2.753178e-002
1.731763e+003, 2.731261e-002
1.733692e+003, 2.728993e-002
1.735620e+003, 2.737737e-002
1.737548e+003, 2.746693e-002
1.739477e+003, 2.725110e-002
1.741405e+003, 2.717381e-002
1.743334e+003, 2.708954e-002
1.745262e+003, 2.697122e-002
1.747191e+003, 2.686677e-002
1.749119e+003, 2.699950e-002
1.751048e+003, 2.716574e-002
1.752976e+003, 2.683426e-002
1.754905e+003, 2.680507e-002
1.756833e+003, 2.686778e-002
1.758762e+003, 2.680146e-002
1.760690e+003, 2.689512e-002
1.762619e+003, 2.682554e-002
1.764547e+003, 2.695705e-002
1.766475e+003, 2.699251e-002
1.768404e+003, 2.719325e-002
1.770332e+003, 2.743270e-002
1.772261e+003, 2.719969e-002
1.774189e+003, 2.729350e-002
1.776118e+003, 2.751111e-002
1.778046e+003, 2.757490e-002
1.779975e+003, 2.773634e-002
1.781903e+003, 2.809956e-002
1.783832e+003, 2.861408e-002
1.785760e+003, 2.853907e-002
1.787689e+003, 2.839226e-002
1.789617e+003, 2.828141e-002
1.791546e+003, 2.835474e-002
1.793474e+003, 2.854750e-002
1.795402e+003, 2.835443e-002
1.797331e+003, 2.840603e-002
1.799259e+003, 2.856139e-002
1.801188e+003, 2.866880e-002
1.803116e+003, 2.889389e-002
1.805045e+003, 2.895448e-002
1.806973e+003, 2.886485e-002
1.808902e+003, 2.846537e-002
1.810830e+003, 2.849084e-002
1.812759e+003, 2.858218e-002
1.814687e+003, 2.828764e-002
1.816616e+003, 2.855032e-002
1.818544e+003, 2.878673e-002
1.820473e+003, 2.870387e-002
1.822401e+003, 2.849149e-002
1.824329e+003, 2.844577e-002
1.826258e+003, 2.846801e-002
1.828186e+003, 2.872591e-002
1.830115e+003, 2.897549e-002
1.832043e+003, 2.909243e-002
1.833972e+003, 2.873105e-002
1.835900e+003, 2.831986e-002
1.837829e+003, 2.821567e-002
1.839757e+003, 2.861235e-002
1.841686e+003, 2.855731e-002
1.843614e+003, 2.817618e-002
1.845543e+003, 2.832060e-002
1.847471e+003, 2.865606e-002
1.849400e+003, 2.873175e-002
1.851328e+003, 2.839719e-002
1.853256e+003, 2.834084e-002
1.855185e+003, 2.852442e-002
1.857113e+003, 2.823210e-002
1.859042e+003, 2.796015e-002
1.860970e+003, 2.839554e-002
1.862899e+003, 2.865780e-002
1.864827e+003, 2.850022e-002
1.866756e+003, 2.887016e-002
1.868684e+003, 2.876984e-002
1.870613e+003, 2.812844e-002
1.872541e+003, 2.814867e-002
1.874470e+003, 2.869748e-002
1.876398e+003, 2.879821e-002
1.878327e+003, 2.866435e-002
1.880255e+003, 2.892975e-002
1.882183e+003, 2.849766e-002
1.884112e+003, 2.811161e-002
1.886040e+003, 2.862113e-002
1.887969e+003, 2.925717e-002
1.889897e+003, 2.962834e-002
1.891826e+003, 2.938554e-002
1.893754e+003, 2.877389e-002
1.895683e+003, 2.837400e-002
1.897611e+003, 2.881956e-002
1.899540e+003, 2.888129e-002
1.901468e+003, 2.879812e-002
1.903397e+003, 2.916381e-002
1.905325e+003, 2.945906e-002
1.907254e+003, 3.020982e-002
1.909182e+003, 2.991545e-002
1.911110e+003, 2.941548e-002
1.913039e+003, 2.998799e-002
1.914967e+003, 3.002337e-002
1.916896e+003, 2.957633e-002
1.918824e+003, 2.892885e-002
1.920753e+003, 2.853556e-002
1.922681e+003, 2.884891e-002
1.924610e+003, 2.883047e-002
1.926538e+003, 2.907079e-002
1.928467e+003, 2.879583e-002
1.930395e+003, 2.881482e-002
1.932324e+003, 2.874670e-002
1.934252e+003, 2.869699e-002
1.936181e+003, 2.907069e-002
1.938109e+003, 2.890898e-002
1.940037e+003, 2.904145e-002
1.941966e+003, 2.952573e-002
1.943894e+003, 2.918696e-002
1.945823e+003, 2.797191e-002
1.947751e+003, 2.733626e-002
1.949680e+003, 2.755227e-002
1.951608e+003, 2.887703e-002
1.953537e+003, 2.953309e-002
1.955465e+003, 2.987691e-002
1.957394e+003, 2.946419e-002
1.959322e+003, 2.919206e-002
1.961251e+003, 3.008985e-002
1.963179e+003, 2.928056e-002
1.965108e+003, 3.009043e-002
1.967036e+003, 3.086179e-002
1.968964e+003, 3.007887e-002
1.970893e+003, 2.899852e-002
1.972821e+003, 2.944996e-002
1.974750e+003, 2.937500e-002
1.976678e+003, 2.903119e-002
1.978607e+003, 3.145844e-002
1.980535e+003, 3.251975e-002
1.982464e+003, 3.266247e-002
1.984392e+003, 3.267893e-002
1.986321e+003, 3.089766e-002
1.988249e+003, 2.980303e-002
1.990178e+003, 3.007718e-002
1.992106e+003, 3.107391e-002
1.994035e+003, 3.215974e-002
1.995963e+003, 3.246738e-002
1.997891e+003, 3.331233e-002
1.999820e+003, 3.271263e-002
2.001748e+003, 3.261688e-002
2.003677e+003, 3.268911e-002
2.005605e+003, 3.277575e-002
2.007534e+003, 3.317535e-002
2.009462e+003, 3.290791e-002
2.011391e+003, 3.477268e-002
2.013319e+003, 3.503690e-002
2.015248e+003, 3.347700e-002
2.017176e+003, 3.372214e-002
2.019105e+003, 3.307690e-002
2.021033e+003, 3.296351e-002
2.022962e+003, 3.419326e-002
2.024890e+003, 3.410192e-002
2.026818e+003, 3.494458e-002
2.028747e+003, 3.354211e-002
2.030675e+003, 3.289386e-002
2.032604e+003, 3.574821e-002
2.034532e+003, 3.645313e-002
2.036461e+003, 3.547604e-002
2.038389e+003, 3.444250e-002
2.040318e+003, 3.314681e-002
2.042246e+003, 3.296366e-002
2.044175e+003, 3.404535e-002
2.046103e+003, 3.521429e-002
2.048032e+003, 3.714178e-002
2.049960e+003, 3.891861e-002
2.051889e+003, 3.905146e-002
2.053817e+003, 3.849135e-002
2.055746e+003, 3.688623e-002
2.057674e+003, 3.663675e-002
2.059603e+003, 3.741220e-002
2.061531e+003, 3.669668e-002
2.063459e+003, 3.606026e-002
2.065388e+003, 3.554272e-002
2.067316e+003, 3.559123e-002
2.069245e+003, 3.631171e-002
2.071173e+003, 3.672635e-002
2.073102e+003, 3.697876e-002
2.075030e+003, 3.880692e-002
2.076959e+003, 3.824755e-002
2.078887e+003, 3.747003e-002
2.080816e+003, 3.745240e-002
2.082744e+003, 3.776241e-002
2.084673e+003, 3.801629e-002
2.086601e+003, 3.743139e-002
2.088530e+003, 3.704093e-002
2.090458e+003, 3.686418e-002
2.092386e+003, 3.632665e-002
2.094315e+003, 3.649473e-002
2.096243e+003, 3.770842e-002
2.098172e+003, 3.834251e-002
2.100100e+003, 3.849556e-002
2.102029e+003, 3.737988e-002
2.103957e+003, 3.734314e-002
2.105886e+003, 3.835974e-002
2.107814e+003, 3.818058e-002
2.109743e+003, 3.869741e-002
2.111671e+003, 3.871717e-002
2.113600e+003, 3.762977e-002
2.115528e+003, 3.719968e-002
2.117457e+003, 3.697143e-002
2.119385e+003, 3.685510e-002
2.121313e+003, 3.761278e-002
2.123242e+003, 3.829885e-002
2.125170e+003, 3.765796e-002
2.127099e+003, 3.794831e-002
2.129027e+003, 3.791299e-002
2.130956e+003, 3.682693e-002
2.132884e+003, 3.711453e-002
2.134813e+003, 3.759011e-002
2.136741e+003, 3.792767e-002
2.138670e+003, 3.828500e-002
2.140598e+003, 3.858330e-002
2.142527e+003, 3.922823e-002
2.144455e+003, 3.863152e-002
2.146384e+003, 3.691551e-002
2.148312e+003, 3.725986e-002
2.150240e+003, 3.724197e-002
2.152169e+003, 3.654800e-002
2.154097e+003, 3.682448e-002
2.156026e+003, 3.525031e-002
2.157954e+003, 3.643966e-002
2.159883e+003, 4.157937e-002
2.161811e+003, 4.342301e-002
2.163740e+003, 4.268747e-002
2.165668e+003, 4.072267e-002
2.167597e+003, 3.924858e-002
2.169525e+003, 3.827821e-002
2.171454e+003, 3.961158e-002
2.173382e+003, 4.084247e-002
2.175311e+003, 4.077708e-002
2.177239e+003, 4.120917e-002
2.179167e+003, 3.917594e-002
2.181096e+003, 3.863192e-002
2.183024e+003, 3.993851e-002
2.184953e+003, 4.048752e-002
2.186881e+003, 4.103550e-002
2.188810e+003, 4.108728e-002
2.190738e+003, 4.098495e-002
2.192667e+003, 4.215743e-002
2.194595e+003, 4.272237e-002
2.196524e+003, 4.071619e-002
2.198452e+003, 4.090998e-002
2.200381e+003, 4.246717e-002
2.202309e+003, 4.226443e-002
2.204238e+003, 4.063973e-002
2.206166e+003, 4.023114e-002
2.208094e+003, 4.124362e-002
2.210023e+003, 4.140239e-002
2.211951e+003, 4.184709e-002
2.213880e+003, 4.200168e-002
2.215808e+003, 4.184849e-002
2.217737e+003, 4.306727e-002
2.219665e+003, 4.371158e-002
2.221594e+003, 4.304907e-002
2.223522e+003, 4.389923e-002
2.225451e+003, 4.341242e-002
2.227379e+003, 4.285800e-002
2.229308e+003, 4.203071e-002
2.231236e+003, 4.193835e-002
2.233165e+003, 4.461280e-002
2.235093e+003, 4.566416e-002
2.237021e+003, 4.343223e-002
2.238950e+003, 4.257839e-002
2.240878e+003, 4.267668e-002
2.242807e+003, 4.315061e-002
2.244735e+003, 4.324381e-002
2.246664e+003, 4.329559e-002
2.248592e+003, 4.276235e-002
2.250521e+003, 4.266335e-002
2.252449e+003, 4.243106e-002
2.254378e+003, 4.232187e-002
2.256306e+003, 4.317898e-002
2.258235e+003, 4.396954e-002
2.260163e+003, 4.356617e-002
2.262092e+003, 4.344555e-002
2.264020e+003, 4.304500e-002
2.265948e+003, 4.284157e-002
2.267877e+003, 4.306483e-002
2.269805e+003, 4.288070e-002
2.271734e+003, 4.311189e-002
2.273662e+003, 4.428790e-002
2.275591e+003, 4.512824e-002
2.277519e+003, 4.448830e-002
2.279448e+003, 4.367336e-002
2.281376e+003, 4.403333e-002
2.283305e+003, 4.414713e-002
2.285233e+003, 4.420867e-002
2.287162e+003, 4.397719e-002
2.289090e+003, 4.414782e-002
2.291019e+003, 4.453642e-002
2.292947e+003, 4.480066e-002
2.294875e+003, 4.500200e-002
2.296804e+003, 4.533818e-002
2.298732e+003, 4.505223e-002
2.300661e+003, 4.452726e-002
2.302589e+003, 4.460110e-002
2.304518e+003, 4.471075e-002
2.306446e+003, 4.509221e-002
2.308375e+003, 4.610863e-002
2.310303e+003, 4.643746e-002
2.312232e+003, 4.597547e-002
2.314160e+003, 4.565550e-002
2.316089e+003, 4.581903e-002
2.318017e+003, 4.588776e-002
2.319946e+003, 4.602754e-002
2.321874e+003, 4.660566e-002
2.323802e+003, 4.654728e-002
2.325731e+003, 4.545141e-002
2.327659e+003, 4.522760e-002
2.329588e+003, 4.566867e-002
2.331516e+003, 4.567279e-002
2.333445e+003, 4.545797e-002
2.335373e+003, 4.558317e-002
2.337302e+003, 4.564916e-002
2.339230e+003, 4.528498e-002
2.341159e+003, 4.517992e-002
2.343087e+003, 4.576410e-002
2.345016e+003, 4.603042e-002
2.346944e+003, 4.557303e-002
2.348873e+003, 4.518994e-002
2.350801e+003, 4.555397e-002
2.352729e+003, 4.582171e-002
2.354658e+003, 4.603832e-002
2.356586e+003, 4.641375e-002
2.358515e+003, 4.631635e-002
2.360443e+003, 4.653320e-002
2.362372e+003, 4.665486e-002
2.364300e+003, 4.599290e-002
2.366229e+003, 4.581427e-002
2.368157e+003, 4.581869e-002
2.370086e+003, 4.555527e-002
2.372014e+003, 4.593428e-002
2.373942e+003, 4.619214e-002
2.375871e+003, 4.628197e-002
2.377799e+003, 4.654406e-002
2.379728e+003, 4.618737e-002
2.381656e+003, 4.601914e-002
2.383585e+003, 4.608552e-002
2.385513e+003, 4.563502e-002
2.387442e+003, 4.539318e-002
2.389370e+003, 4.660075e-002
2.391299e+003, 4.741920e-002
2.393227e+003, 4.675654e-002
2.395156e+003, 4.617983e-002
2.397084e+003, 4.626300e-002
2.399012e+003, 4.648804e-002
2.400941e+003, 4.667829e-002
2.402869e+003, 4.655764e-002
2.404798e+003, 4.662210e-002
2.406726e+003, 4.704507e-002
2.408655e+003, 4.693491e-002
2.410583e+003, 4.686994e-002
2.412512e+003, 4.673602e-002
2.414440e+003, 4.723939e-002
2.416369e+003, 4.754978e-002
2.418297e+003, 4.717698e-002
2.420226e+003, 4.676302e-002
2.422154e+003, 4.701563e-002
2.424083e+003, 4.738440e-002
2.426011e+003, 4.699470e-002
2.427939e+003, 4.724753e-002
2.429868e+003, 4.834257e-002
2.431796e+003, 4.849905e-002
2.433725e+003, 4.792279e-002
2.435653e+003, 4.747275e-002
2.437582e+003, 4.795116e-002
2.439510e+003, 4.808992e-002
2.441439e+003, 4.799236e-002
2.443367e+003, 4.764093e-002
2.445296e+003, 4.832733e-002
2.447224e+003, 4.872146e-002
2.449153e+003, 4.849979e-002
2.451081e+003, 4.861320e-002
2.453010e+003, 4.832619e-002
2.454938e+003, 4.811107e-002
2.456866e+003, 4.840046e-002
2.458795e+003, 4.852454e-002
2.460723e+003, 4.900524e-002
2.462652e+003, 4.910266e-002
2.464580e+003, 4.877523e-002
2.466509e+003, 4.848033e-002
2.468437e+003, 4.846850e-002
2.470366e+003, 4.849927e-002
2.472294e+003, 4.844974e-002
2.474223e+003, 4.868142e-002
2.476151e+003, 4.848324e-002
2.478080e+003, 4.824074e-002
2.480008e+003, 4.873603e-002
2.481937e+003, 4.898891e-002
2.483865e+003, 4.911907e-002
2.485793e+003, 4.947854e-002
2.487722e+003, 4.967864e-002
2.489650e+003, 4.926270e-002
2.491579e+003, 4.889397e-002
2.493507e+003, 4.866860e-002
2.495436e+003, 4.911261e-002
2.497364e+003, 4.996145e-002
2.499293e+003, 5.003721e-002
2.501221e+003, 4.950789e-002
2.503150e+003, 4.877274e-002
2.505078e+003, 4.834533e-002
2.507007e+003, 4.909714e-002
2.508935e+003, 4.965523e-002
2.510864e+003, 4.935211e-002
2.512792e+003, 4.861555e-002
2.514720e+003, 4.923446e-002
2.516649e+003, 5.008854e-002
2.518577e+003, 4.999892e-002
2.520506e+003, 4.966302e-002
2.522434e+003, 4.941002e-002
2.524363e+003, 4.982157e-002
2.526291e+003, 5.013447e-002
2.528220e+003, 4.979049e-002
2.530148e+003, 4.973176e-002
2.532077e+003, 4.924167e-002
2.534005e+003, 4.955148e-002
2.535934e+003, 4.997668e-002
2.537862e+003, 5.031003e-002
2.539791e+003, 5.047691e-002
2.541719e+003, 4.999855e-002
2.543647e+003, 5.019445e-002
2.545576e+003, 5.094624e-002
2.547504e+003, 5.120914e-002
2.549433e+003, 5.179755e-002
2.551361e+003, 5.201360e-002
2.553290e+003, 5.086878e-002
2.555218e+003, 5.036874e-002
2.557147e+003, 5.027673e-002
2.559075e+003, 5.068891e-002
2.561004e+003, 5.134896e-002
2.562932e+003, 5.135727e-002
2.564861e+003, 5.127854e-002
2.566789e+003, 5.160660e-002
2.568718e+003, 5.122489e-002
2.570646e+003, 5.079883e-002
2.572574e+003, 5.091846e-002
2.574503e+003, 5.157304e-002
2.576431e+003, 5.136781e-002
2.578360e+003, 5.135444e-002
2.580288e+003, 5.155502e-002
2.582217e+003, 5.088513e-002
2.584145e+003, 5.038169e-002
2.586074e+003, 5.148004e-002
2.588002e+003, 5.118346e-002
2.589931e+003, 5.065801e-002
2.591859e+003, 5.128194e-002
2.593788e+003, 5.201308e-002
2.595716e+003, 5.170235e-002
2.597645e+003, 5.167232e-002
2.599573e+003, 5.230773e-002
2.601501e+003, 5.243680e-002
2.603430e+003, 5.247483e-002
2.605358e+003, 5.284803e-002
2.607287e+003, 5.270269e-002
2.609215e+003, 5.225131e-002
2.611144e+003, 5.217326e-002
2.613072e+003, 5.217906e-002
2.615001e+003, 5.210043e-002
2.616929e+003, 5.203976e-002
2.618858e+003, 5.263984e-002
2.620786e+003, 5.304266e-002
2.622715e+003, 5.231867e-002
2.624643e+003, 5.249959e-002
2.626572e+003, 5.296936e-002
2.628500e+003, 5.294479e-002
2.630428e+003, 5.278510e-002
2.632357e+003, 5.237215e-002
2.634285e+003, 5.290809e-002
2.636214e+003, 5.337213e-002
2.638142e+003, 5.315710e-002
2.640071e+003, 5.336065e-002
2.641999e+003, 5.355358e-002
2.643928e+003, 5.331503e-002
2.645856e+003, 5.324001e-002
2.647785e+003, 5.332493e-002
2.649713e+003, 5.356673e-002
2.651642e+003, 5.419673e-002
2.653570e+003, 5.389382e-002
2.655499e+003, 5.342409e-002
2.657427e+003, 5.358525e-002
2.659355e+003, 5.376998e-002
2.661284e+003, 5.350691e-002
2.663212e+003, 5.370923e-002
2.665141e+003, 5.321244e-002
2.667069e+003, 5.307590e-002
2.668998e+003, 5.348891e-002
2.670926e+003, 5.301446e-002
2.672855e+003, 5.267753e-002
2.674783e+003, 5.303174e-002
2.676712e+003, 5.338497e-002
2.678640e+003, 5.373626e-002
2.680569e+003, 5.359533e-002
2.682497e+003, 5.340526e-002
2.684426e+003, 5.384060e-002
2.686354e+003, 5.408373e-002
2.688282e+003, 5.411091e-002
2.690211e+003, 5.393837e-002
2.692139e+003, 5.374962e-002
2.694068e+003, 5.360001e-002
2.695996e+003, 5.375113e-002
2.697925e+003, 5.376776e-002
2.699853e+003, 5.408661e-002
2.701782e+003, 5.448166e-002
2.703710e+003, 5.431513e-002
2.705639e+003, 5.419954e-002
2.707567e+003, 5.421975e-002
2.709496e+003, 5.388470e-002
2.711424e+003, 5.399303e-002
2.713353e+003, 5.396474e-002
2.715281e+003, 5.458890e-002
2.717209e+003, 5.527910e-002
2.719138e+003, 5.488506e-002
2.721066e+003, 5.426251e-002
2.722995e+003, 5.442851e-002
2.724923e+003, 5.540034e-002
2.726852e+003, 5.521486e-002
2.728780e+003, 5.437335e-002
2.730709e+003, 5.485598e-002
2.732637e+003, 5.535390e-002
2.734566e+003, 5.546428e-002
2.736494e+003, 5.510498e-002
2.738423e+003, 5.509511e-002
2.740351e+003, 5.533296e-002
2.742280e+003, 5.511819e-002
2.744208e+003, 5.521739e-002
2.746136e+003, 5.564934e-002
2.748065e+003, 5.599884e-002
2.749993e+003, 5.611036e-002
2.751922e+003, 5.572860e-002
2.753850e+003, 5.545581e-002
2.755779e+003, 5.594242e-002
2.757707e+003, 5.602937e-002
2.759636e+003, 5.568492e-002
2.761564e+003, 5.562259e-002
2.763493e+003, 5.619602e-002
2.765421e+003, 5.647423e-002
2.767350e+003, 5.612034e-002
2.769278e+003, 5.557947e-002
2.771207e+003, 5.562053e-002
2.773135e+003, 5.550956e-002
2.775063e+003, 5.571355e-002
2.776992e+003, 5.596827e-002
2.778920e+003, 5.584140e-002
2.780849e+003, 5.612512e-002
2.782777e+003, 5.615384e-002
2.784706e+003, 5.603777e-002
2.786634e+003, 5.638180e-002
2.788563e+003, 5.599567e-002
2.790491e+003, 5.558553e-002
2.792420e+003, 5.575320e-002
2.794348e+003, 5.581240e-002
2.796277e+003, 5.575918e-002
2.798205e+003, 5.612581e-002
2.800134e+003, 5.661991e-002
2.802062e+003, 5.712646e-002
2.803990e+003, 5.717270e-002
2.805919e+003, 5.666907e-002
2.807847e+003, 5.612417e-002
2.809776e+003, 5.606645e-002
2.811704e+003, 5.657121e-002
2.813633e+003, 5.734333e-002
2.815561e+003, 5.751757e-002
2.817490e+003, 5.739248e-002
2.819418e+003, 5.688486e-002
2.821347e+003, 5.653474e-002
2.823275e+003, 5.692686e-002
2.825204e+003, 5.740507e-002
2.827132e+003, 5.767483e-002
2.829061e+003, 5.756298e-002
2.830989e+003, 5.788095e-002
2.832917e+003, 5.812243e-002
2.834846e+003, 5.790227e-002
2.836774e+003, 5.833429e-002
2.838703e+003, 5.866634e-002
2.840631e+003, 5.885310e-002
2.842560e+003, 5.901833e-002
2.844488e+003, 5.849355e-002
2.846417e+003, 5.739466e-002
2.848345e+003, 5.719792e-002
2.850274e+003, 5.754730e-002
2.852202e+003, 5.739187e-002
2.854131e+003, 5.731887e-002
2.856059e+003, 5.798422e-002
2.857988e+003, 5.780520e-002
2.859916e+003, 5.778376e-002
2.861844e+003, 5.838060e-002
2.863773e+003, 5.854718e-002
2.865701e+003, 5.830790e-002
2.867630e+003, 5.801738e-002
2.869558e+003, 5.875391e-002
2.871487e+003, 5.883539e-002
2.873415e+003, 5.810735e-002
2.875344e+003, 5.810581e-002
2.877272e+003, 5.891748e-002
2.879201e+003, 5.931101e-002
2.881129e+003, 5.900009e-002
2.883058e+003, 5.905797e-002
2.884986e+003, 5.954066e-002
2.886915e+003, 5.887031e-002
2.888843e+003, 5.883705e-002
2.890771e+003, 6.004071e-002
2.892700e+003, 6.034584e-002
2.894628e+003, 5.974649e-002
2.896557e+003, 5.952082e-002
2.898485e+003, 5.972649e-002
2.900414e+003, 5.963087e-002
2.902342e+003, 5.979753e-002
2.904271e+003, 5.986183e-002
2.906199e+003, 6.010845e-002
2.908128e+003, 6.030518e-002
2.910056e+003, 6.008389e-002
2.911985e+003, 6.087191e-002
2.913913e+003, 6.130896e-002
2.915842e+003, 5.983146e-002
2.917770e+003, 5.919754e-002
2.919698e+003, 5.980922e-002
2.921627e+003, 6.058354e-002
2.923555e+003, 6.109386e-002
2.925484e+003, 6.122887e-002
2.927412e+003, 6.036195e-002
2.929341e+003, 5.916579e-002
2.931269e+003, 5.893422e-002
2.933198e+003, 5.956359e-002
2.935126e+003, 6.021463e-002
2.937055e+003, 6.025012e-002
2.938983e+003, 5.968947e-002
2.940912e+003, 5.967920e-002
2.942840e+003, 6.057298e-002
2.944769e+003, 6.064596e-002
2.946697e+003, 6.032050e-002
2.948625e+003, 6.031706e-002
2.950554e+003, 6.047097e-002
2.952482e+003, 6.019786e-002
2.954411e+003, 5.998089e-002
2.956339e+003, 6.037920e-002
2.958268e+003, 6.088515e-002
2.960196e+003, 6.032493e-002
2.962125e+003, 6.048601e-002
2.964053e+003, 6.108052e-002
2.965982e+003, 6.151277e-002
2.967910e+003, 6.080445e-002
2.969839e+003, 5.994427e-002
2.971767e+003, 6.035706e-002
2.973696e+003, 6.024493e-002
2.975624e+003, 5.954687e-002
2.977552e+003, 6.021479e-002
2.979481e+003, 6.156296e-002
2.981409e+003, 6.159702e-002
2.983338e+003, 6.124570e-002
2.985266e+003, 6.130212e-002
2.987195e+003, 6.128215e-002
2.989123e+003, 6.130117e-002
2.991052e+003, 6.040007e-002
2.992980e+003, 6.033803e-002
2.994909e+003, 6.181129e-002
2.996837e+003, 6.198198e-002
2.998766e+003, 6.181546e-002
3.000694e+003, 6.237351e-002
3.002623e+003, 6.209767e-002
3.004551e+003, 6.130910e-002
3.006479e+003, 6.131475e-002
3.008408e+003, 6.163790e-002
3.010336e+003, 6.170042e-002
3.012265e+003, 6.159690e-002
3.014193e+003, 6.174750e-002
3.016122e+003, 6.185444e-002
3.018050e+003, 6.177376e-002
3.019979e+003, 6.242015e-002
3.021907e+003, 6.282083e-002
3.023836e+003, 6.281777e-002
3.025764e+003, 6.193294e-002
3.027693e+003, 6.170877e-002
3.029621e+003, 6.225524e-002
3.031550e+003, 6.230531e-002
3.033478e+003, 6.211714e-002
3.035406e+003, 6.135467e-002
3.037335e+003, 6.085269e-002
3.039263e+003, 6.089652e-002
3.041192e+003, 6.118121e-002
3.043120e+003, 6.212910e-002
3.045049e+003, 6.275434e-002
3.046977e+003, 6.263869e-002
3.048906e+003, 6.279369e-002
3.050834e+003, 6.227364e-002
3.052763e+003, 6.240128e-002
3.054691e+003, 6.239851e-002
3.056620e+003, 6.243923e-002
3.058548e+003, 6.273942e-002
3.060477e+003, 6.344016e-002
3.062405e+003, 6.375397e-002
3.064333e+003, 6.320835e-002
3.066262e+003, 6.339446e-002
3.068190e+003, 6.361156e-002
3.070119e+003, 6.311170e-002
3.072047e+003, 6.271102e-002
3.073976e+003, 6.332647e-002
3.075904e+003, 6.355625e-002
3.077833e+003, 6.351287e-002
3.079761e+003, 6.369549e-002
3.081690e+003, 6.371678e-002
3.083618e+003, 6.338111e-002
3.085547e+003, 6.306387e-002
3.087475e+003, 6.312797e-002
3.089404e+003, 6.375588e-002
3.091332e+003, 6.377982e-002
3.093260e+003, 6.327689e-002
3.095189e+003, 6.354848e-002
3.097117e+003, 6.391373e-002
3.099046e+003, 6.358056e-002
3.100974e+003, 6.369333e-002
3.102903e+003, 6.358501e-002
3.104831e+003, 6.364471e-002
3.106760e+003, 6.404259e-002
3.108688e+003, 6.343160e-002
3.110617e+003, 6.305035e-002
3.112545e+003, 6.333556e-002
3.114474e+003, 6.422691e-002
3.116402e+003, 6.436598e-002
3.118331e+003, 6.333940e-002
3.120259e+003, 6.342333e-002
3.122188e+003, 6.421529e-002
3.124116e+003, 6.381440e-002
3.126044e+003, 6.321446e-002
3.127973e+003, 6.292767e-002
3.129901e+003, 6.241094e-002
3.131830e+003, 6.337433e-002
3.133758e+003, 6.362047e-002
3.135687e+003, 6.366824e-002
3.137615e+003, 6.394724e-002
3.139544e+003, 6.348691e-002
3.141472e+003, 6.402750e-002
3.143401e+003, 6.476933e-002
3.145329e+003, 6.453710e-002
3.147258e+003, 6.375738e-002
3.149186e+003, 6.354502e-002
3.151115e+003, 6.342475e-002
3.153043e+003, 6.424370e-002
3.154971e+003, 6.580598e-002
3.156900e+003, 6.560465e-002
3.158828e+003, 6.434041e-002
3.160757e+003, 6.358294e-002
3.162685e+003, 6.447948e-002
3.164614e+003, 6.500266e-002
3.166542e+003, 6.421871e-002
3.168471e+003, 6.448387e-002
3.170399e+003, 6.486475e-002
3.172328e+003, 6.515797e-002
3.174256e+003, 6.532222e-002
3.176185e+003, 6.463385e-002
3.178113e+003, 6.391525e-002
3.180042e+003, 6.362978e-002
3.181970e+003, 6.437771e-002
3.183898e+003, 6.483455e-002
3.185827e+003, 6.551611e-002
3.187755e+003, 6.522111e-002
3.189684e+003, 6.441883e-002
3.191612e+003, 6.474423e-002
3.193541e+003, 6.519632e-002
3.195469e+003, 6.530677e-002
3.197398e+003, 6.473916e-002
3.199326e+003, 6.461380e-002
3.201255e+003, 6.412935e-002
3.203183e+003, 6.298979e-002
3.205112e+003, 6.302529e-002
3.207040e+003, 6.334578e-002
3.208969e+003, 6.348450e-002
3.210897e+003, 6.391183e-002
3.212825e+003, 6.510006e-002
3.214754e+003, 6.432806e-002
3.216682e+003, 6.266358e-002
3.218611e+003, 6.300275e-002
3.220539e+003, 6.356983e-002
3.222468e+003, 6.423002e-002
3.224396e+003, 6.445638e-002
3.226325e+003, 6.521073e-002
3.228253e+003, 6.561144e-002
3.230182e+003, 6.527950e-002
3.232110e+003, 6.599537e-002
3.234039e+003, 6.547683e-002
3.235967e+003, 6.555840e-002
3.237896e+003, 6.619724e-002
3.239824e+003, 6.552216e-002
3.241752e+003, 6.468901e-002
3.243681e+003, 6.426477e-002
3.245609e+003, 6.429952e-002
3.247538e+003, 6.396423e-002
3.249466e+003, 6.455722e-002
3.251395e+003, 6.481373e-002
3.253323e+003, 6.435418e-002
3.255252e+003, 6.498135e-002
3.257180e+003, 6.500377e-002
3.259109e+003, 6.413908e-002
3.261037e+003, 6.445651e-002
3.262966e+003, 6.561377e-002
3.264894e+003, 6.502579e-002
3.266823e+003, 6.404326e-002
3.268751e+003, 6.485051e-002
3.270679e+003, 6.533686e-002
3.272608e+003, 6.547461e-002
3.274536e+003, 6.645728e-002
3.276465e+003, 6.588776e-002
3.278393e+003, 6.557118e-002
3.280322e+003, 6.578474e-002
3.282250e+003, 6.580759e-002
3.284179e+003, 6.558608e-002
3.286107e+003, 6.597002e-002
3.288036e+003, 6.646310e-002
3.289964e+003, 6.590254e-002
3.291893e+003, 6.519832e-002
3.293821e+003, 6.636297e-002
3.295750e+003, 6.750482e-002
3.297678e+003, 6.697182e-002
3.299606e+003, 6.601411e-002
3.301535e+003, 6.555957e-002
3.303463e+003, 6.568048e-002
3.305392e+003, 6.544401e-002
3.307320e+003, 6.508382e-002
3.309249e+003, 6.533666e-002
3.311177e+003, 6.597228e-002
3.313106e+003, 6.656408e-002
3.315034e+003, 6.551003e-002
3.316963e+003, 6.487242e-002
3.318891e+003, 6.583237e-002
3.320820e+003, 6.627090e-002
3.322748e+003, 6.597068e-002
3.324677e+003, 6.567279e-002
3.326605e+003, 6.442467e-002
3.328533e+003, 6.480985e-002
3.330462e+003, 6.549910e-002
3.332390e+003, 6.629286e-002
3.334319e+003, 6.677072e-002
3.336247e+003, 6.559635e-002
3.338176e+003, 6.550594e-002
3.340104e+003, 6.638498e-002
3.342033e+003, 6.711256e-002
3.343961e+003, 6.680056e-002
3.345890e+003, 6.637627e-002
3.347818e+003, 6.648300e-002
3.349747e+003, 6.677482e-002
3.351675e+003, 6.763577e-002
3.353604e+003, 6.773449e-002
3.355532e+003, 6.666201e-002
3.357460e+003, 6.667077e-002
3.359389e+003, 6.704381e-002
3.361317e+003, 6.743855e-002
3.363246e+003, 6.753480e-002
3.365174e+003, 6.751481e-002
3.367103e+003, 6.658800e-002
3.369031e+003, 6.617630e-002
3.370960e+003, 6.623826e-002
3.372888e+003, 6.597419e-002
3.374817e+003, 6.686825e-002
3.376745e+003, 6.754687e-002
3.378674e+003, 6.672781e-002
3.380602e+003, 6.628649e-002
3.382531e+003, 6.716175e-002
3.384459e+003, 6.796440e-002
3.386387e+003, 6.770318e-002
3.388316e+003, 6.737845e-002
3.390244e+003, 6.736830e-002
3.392173e+003, 6.724911e-002
3.394101e+003, 6.614694e-002
3.396030e+003, 6.611339e-002
3.397958e+003, 6.702787e-002
3.399887e+003, 6.780819e-002
3.401815e+003, 6.808075e-002
3.403744e+003, 6.827917e-002
3.405672e+003, 6.848492e-002
3.407601e+003, 6.724600e-002
3.409529e+003, 6.677428e-002
3.411458e+003, 6.692241e-002
3.413386e+003, 6.731423e-002
3.415314e+003, 6.826646e-002
3.417243e+003, 6.758834e-002
3.419171e+003, 6.719753e-002
3.421100e+003, 6.735486e-002
3.423028e+003, 6.832933e-002
3.424957e+003, 6.925027e-002
3.426885e+003, 6.865967e-002
3.428814e+003, 6.800777e-002
3.430742e+003, 6.697261e-002
3.432671e+003, 6.814602e-002
3.434599e+003, 6.885106e-002
3.436528e+003, 6.828499e-002
3.438456e+003, 6.866555e-002
3.440385e+003, 6.929247e-002
3.442313e+003, 6.815987e-002
3.444241e+003, 6.788247e-002
3.446170e+003, 6.860289e-002
3.448098e+003, 6.821186e-002
3.450027e+003, 6.775702e-002
3.451955e+003, 6.773300e-002
3.453884e+003, 6.776221e-002
3.455812e+003, 6.812330e-002
3.457741e+003, 6.721435e-002
3.459669e+003, 6.813144e-002
3.461598e+003, 7.042649e-002
3.463526e+003, 6.997006e-002
3.465455e+003, 6.971308e-002
3.467383e+003, 6.971984e-002
3.469312e+003, 6.949543e-002
3.471240e+003, 6.912559e-002
3.473168e+003, 6.891949e-002
3.475097e+003, 7.051408e-002
3.477025e+003, 7.164575e-002
3.478954e+003, 7.091963e-002
3.480882e+003, 7.011206e-002
3.482811e+003, 7.070369e-002
3.484739e+003, 7.153651e-002
3.486668e+003, 7.027996e-002
3.488596e+003, 6.909181e-002
3.490525e+003, 6.900065e-002
3.492453e+003, 6.876722e-002
3.494382e+003, 6.856705e-002
3.496310e+003, 6.899562e-002
3.498239e+003, 7.105793e-002
3.500167e+003, 7.100670e-002
3.502095e+003, 6.913358e-002
3.504024e+003, 6.938116e-002
3.505952e+003, 7.029957e-002
3.507881e+003, 7.093132e-002
3.509809e+003, 7.075042e-002
3.511738e+003, 7.056002e-002
3.513666e+003, 7.043725e-002
3.515595e+003, 7.080694e-002
3.517523e+003, 7.036618e-002
3.519452e+003, 6.963698e-002
3.521380e+003, 6.948541e-002
3.523309e+003, 6.963789e-002
3.525237e+003, 7.054465e-002
3.527166e+003, 7.042635e-002
3.529094e+003, 7.023234e-002
3.531022e+003, 7.118050e-002
3.532951e+003, 7.090896e-002
3.534879e+003, 6.982804e-002
3.536808e+003, 7.096539e-002
3.538736e+003, 7.061443e-002
3.540665e+003, 7.009772e-002
3.542593e+003, 7.101993e-002
3.544522e+003, 7.201812e-002
3.546450e+003, 7.332268e-002
3.548379e+003, 7.291722e-002
3.550307e+003, 7.188408e-002
3.552236e+003, 7.126534e-002
3.554164e+003, 7.159498e-002
3.556093e+003, 7.158202e-002
3.558021e+003, 7.081039e-002
3.559949e+003, 7.140794e-002
3.561878e+003, 7.223629e-002
3.563806e+003, 7.235913e-002
3.565735e+003, 7.115852e-002
3.567663e+003, 7.142028e-002
3.569592e+003, 7.277886e-002
3.571520e+003, 7.263779e-002
3.573449e+003, 7.211003e-002
3.575377e+003, 7.158335e-002
3.577306e+003, 7.154305e-002
3.579234e+003, 7.169708e-002
3.581163e+003, 7.221431e-002
3.583091e+003, 7.207868e-002
3.585020e+003, 7.209370e-002
3.586948e+003, 7.250557e-002
3.588876e+003, 7.313923e-002
3.590805e+003, 7.326739e-002
3.592733e+003, 7.300423e-002
3.594662e+003, 7.263011e-002
3.596590e+003, 7.177346e-002
3.598519e+003, 7.247554e-002
3.600447e+003, 7.323291e-002
3.602376e+003, 7.392152e-002
3.604304e+003, 7.378057e-002
3.606233e+003, 7.326445e-002
3.608161e+003, 7.274130e-002
3.610090e+003, 7.321910e-002
3.612018e+003, 7.312208e-002
3.613947e+003, 7.159492e-002
3.615875e+003, 7.011793e-002
3.617803e+003, 7.075075e-002
3.619732e+003, 7.175427e-002
3.621660e+003, 7.189794e-002
3.623589e+003, 7.311390e-002
3.625517e+003, 7.284358e-002
3.627446e+003, 7.114136e-002
3.629374e+003, 7.328204e-002
3.631303e+003, 7.478818e-002
3.633231e+003, 7.211070e-002
3.635160e+003, 7.237084e-002
3.637088e+003, 7.338338e-002
3.639017e+003, 7.194085e-002
3.640945e+003, 7.081737e-002
3.642874e+003, 7.281908e-002
3.644802e+003, 7.336769e-002
3.646730e+003, 7.284644e-002
3.648659e+003, 7.425082e-002
3.650587e+003, 7.320622e-002
3.652516e+003, 7.154390e-002
3.654444e+003, 7.115489e-002
3.656373e+003, 7.152345e-002
3.658301e+003, 7.245243e-002
3.660230e+003, 7.357282e-002
3.662158e+003, 7.356162e-002
3.664087e+003, 7.389542e-002
3.666015e+003, 7.378098e-002
3.667944e+003, 7.298978e-002
3.669872e+003, 7.346135e-002
3.671801e+003, 7.391145e-002
3.673729e+003, 7.407475e-002
3.675657e+003, 7.534922e-002
3.677586e+003, 7.494522e-002
3.679514e+003, 7.315243e-002
3.681443e+003, 7.353808e-002
3.683371e+003, 7.475072e-002
3.685300e+003, 7.494895e-002
3.687228e+003, 7.388511e-002
3.689157e+003, 7.303243e-002
3.691085e+003, 7.329845e-002
3.693014e+003, 7.462066e-002
3.694942e+003, 7.444721e-002
3.696871e+003, 7.420842e-002
3.698799e+003, 7.351016e-002
3.700728e+003, 7.307939e-002
3.702656e+003, 7.265663e-002
3.704584e+003, 7.303520e-002
3.706513e+003, 7.308455e-002
3.708441e+003, 7.324539e-002
3.710370e+003, 7.431470e-002
3.712298e+003, 7.451620e-002
3.714227e+003, 7.438170e-002
3.716155e+003, 7.529081e-002
3.718084e+003, 7.464697e-002
3.720012e+003, 7.450598e-002
3.721941e+003, 7.488486e-002
3.723869e+003, 7.519214e-002
3.725798e+003, 7.399440e-002
3.727726e+003, 7.277637e-002
3.729655e+003, 7.404757e-002
3.731583e+003, 7.496709e-002
3.733511e+003, 7.533510e-002
3.735440e+003, 7.646555e-002
3.737368e+003, 7.615325e-002
3.739297e+003, 7.460123e-002
3.741225e+003, 7.472201e-002
3.743154e+003, 7.482525e-002
3.745082e+003, 7.517293e-002
3.747011e+003, 7.428048e-002
3.748939e+003, 7.507744e-002
3.750868e+003, 7.430496e-002
3.752796e+003, 7.327679e-002
3.754725e+003, 7.369661e-002
3.756653e+003, 7.588571e-002
3.758582e+003, 7.736065e-002
3.760510e+003, 7.747541e-002
3.762438e+003, 7.610849e-002
3.764367e+003, 7.454268e-002
3.766295e+003, 7.560761e-002
3.768224e+003, 7.584926e-002
3.770152e+003, 7.503823e-002
3.772081e+003, 7.556558e-002
3.774009e+003, 7.574584e-002
3.775938e+003, 7.586970e-002
3.777866e+003, 7.640067e-002
3.779795e+003, 7.599615e-002
3.781723e+003, 7.673969e-002
3.783652e+003, 7.781006e-002
3.785580e+003, 7.804609e-002
3.787509e+003, 7.666525e-002
3.789437e+003, 7.446305e-002
3.791365e+003, 7.542118e-002
3.793294e+003, 7.633116e-002
3.795222e+003, 7.568253e-002
3.797151e+003, 7.634357e-002
3.799079e+003, 7.723560e-002
3.801008e+003, 7.773911e-002
3.802936e+003, 7.721882e-002
3.804865e+003, 7.609729e-002
3.806793e+003, 7.545638e-002
3.808722e+003, 7.618470e-002
3.810650e+003, 7.875540e-002
3.812579e+003, 7.933256e-002
3.814507e+003, 7.787690e-002
3.816436e+003, 7.632551e-002
3.818364e+003, 7.619702e-002
3.820292e+003, 7.836600e-002
3.822221e+003, 7.875213e-002
3.824149e+003, 7.801238e-002
3.826078e+003, 7.680868e-002
3.828006e+003, 7.578637e-002
3.829935e+003, 7.598511e-002
3.831863e+003, 7.637917e-002
3.833792e+003, 7.616007e-002
3.835720e+003, 7.579575e-002
3.837649e+003, 7.616639e-002
3.839577e+003, 7.688386e-002
3.841506e+003, 7.796780e-002
3.843434e+003, 7.763481e-002
3.845363e+003, 7.647661e-002
3.847291e+003, 7.614373e-002
3.849219e+003, 7.613319e-002
3.851148e+003, 7.636533e-002
3.853076e+003, 7.691162e-002
3.855005e+003, 7.710069e-002
3.856933e+003, 7.715619e-002
3.858862e+003, 7.710095e-002
3.860790e+003, 7.604938e-002
3.862719e+003, 7.594638e-002
3.864647e+003, 7.614923e-002
3.866576e+003, 7.713895e-002
3.868504e+003, 7.766823e-002
3.870433e+003, 7.779104e-002
3.872361e+003, 7.705027e-002
3.874290e+003, 7.651037e-002
3.876218e+003, 7.608746e-002
3.878146e+003, 7.703537e-002
3.880075e+003, 7.757515e-002
3.882003e+003, 7.718749e-002
3.883932e+003, 7.719086e-002
3.885860e+003, 7.908094e-002
3.887789e+003, 7.914596e-002
3.889717e+003, 7.877442e-002
3.891646e+003, 7.833745e-002
3.893574e+003, 7.581232e-002
3.895503e+003, 7.532106e-002
3.897431e+003, 7.708532e-002
3.899360e+003, 7.717765e-002
3.901288e+003, 7.783156e-002
3.903217e+003, 7.841234e-002
3.905145e+003, 7.712176e-002
3.907073e+003, 7.761787e-002
3.909002e+003, 7.795384e-002
3.910930e+003, 7.750675e-002
3.912859e+003, 7.833292e-002
3.914787e+003, 7.805632e-002
3.916716e+003, 7.708097e-002
3.918644e+003, 7.677708e-002
3.920573e+003, 7.727771e-002
3.922501e+003, 7.740165e-002
3.924430e+003, 7.909296e-002
3.926358e+003, 7.888902e-002
3.928287e+003, 7.678876e-002
3.930215e+003, 7.644105e-002
3.932144e+003, 7.783555e-002
3.934072e+003, 7.940358e-002
3.936000e+003, 7.827168e-002
3.937929e+003, 7.713351e-002
3.939857e+003, 7.721057e-002
3.941786e+003, 7.576485e-002
3.943714e+003, 7.623918e-002
3.945643e+003, 7.833237e-002
3.947571e+003, 7.877910e-002
3.949500e+003, 7.727073e-002
3.951428e+003, 7.642097e-002
3.953357e+003, 7.761673e-002
3.955285e+003, 7.891061e-002
3.957214e+003, 7.843134e-002
3.959142e+003, 7.790888e-002
3.961071e+003, 7.818263e-002
3.962999e+003, 7.837107e-002
3.964927e+003, 7.919519e-002
3.966856e+003, 8.040313e-002
3.968784e+003, 8.091383e-002
3.970713e+003, 8.054047e-002
3.972641e+003, 8.136959e-002
3.974570e+003, 8.136851e-002
3.976498e+003, 7.983179e-002
3.978427e+003, 7.776134e-002
3.980355e+003, 7.747174e-002
3.982284e+003, 7.746888e-002
3.984212e+003, 7.838343e-002
3.986141e+003, 7.939078e-002
3.988069e+003, 8.073884e-002
3.989998e+003, 7.975071e-002
3.991926e+003, 7.960659e-002
3.993854e+003, 8.048443e-002
3.995783e+003, 8.061428e-002
3.997711e+003, 8.105838e-002
3.999640e+003, 8.109679e-002
4.001568e+003, 0.000000e+000
##END=



