##NAMES=Baryte
##RRUFFID=R050375
##IDEAL CHEMISTRY=BaS^6+^O_4_
##LOCALITY=unknown
##OWNER=RRUFF
##SOURCE=Eugene Schlepp
##DESCRIPTION=Pale green tabular crystals
##STATUS=The identification of this mineral has been confirmed by X-ray diffraction and chemical analysis
##URL=rruff.info/R050375
##MEASURED CHEMISTRY=Ba_1.00_SO_4_
399.1926, 2.2751500E-03
401.1211, 2.6845790E-03
403.0496, 2.6974860E-03
404.9780, 3.5901391E-03
406.9065, 5.0223451E-03
408.8350, 6.8326970E-03
410.7634, 7.0308582E-03
412.6919, 3.8945349E-03
414.6204, 6.0943640E-03
416.5488, 3.8781459E-03
418.4773, 1.8602880E-03
420.4058, 4.5315670E-03
422.3342, 5.4538571E-03
424.2627, 6.2455582E-03
426.1912, 5.2787508E-03
428.1196, 5.8185798E-03
430.0481, 5.4985350E-03
431.9766, 5.8266111E-03
433.9050, 7.2570299E-03
435.8335, 7.2265640E-03
437.7620, 7.3075970E-03
439.6904, 8.8239070E-03
441.6189, 8.8353623E-03
443.5474, 8.6449469E-03
445.4758, 9.6847201E-03
447.4043, 9.5151262E-03
449.3328, 8.5354429E-03
451.2612, 8.5740583E-03
453.1897, 8.0839125E-03
455.1182, 8.0449991E-03
457.0466, 8.6871171E-03
458.9751, 8.8581331E-03
460.9036, 9.3050478E-03
462.8320, 9.4145676E-03
464.7605, 9.5463973E-03
466.6890, 9.4811954E-03
468.6174, 9.9284630E-03
470.5459, 1.0495750E-02
472.4744, 1.1126070E-02
474.4028, 1.1208160E-02
476.3313, 1.0505640E-02
478.2598, 9.8448321E-03
480.1882, 9.9918107E-03
482.1167, 1.1329980E-02
484.0452, 1.1872310E-02
485.9736, 1.1116390E-02
487.9021, 1.1267750E-02
489.8306, 1.1501590E-02
491.7590, 1.1513430E-02
493.6875, 1.2808440E-02
495.6160, 1.3405080E-02
497.5444, 1.2955120E-02
499.4729, 1.3145150E-02
501.4014, 1.3806550E-02
503.3298, 1.4002210E-02
505.2583, 1.4097950E-02
507.1868, 1.4572810E-02
509.1152, 1.4986940E-02
511.0437, 1.5561090E-02
512.9722, 1.6334400E-02
514.9006, 1.7107360E-02
516.8291, 1.7644219E-02
518.7576, 1.7786549E-02
520.6860, 1.7788060E-02
522.6145, 1.8549491E-02
524.5430, 2.0023650E-02
526.4714, 2.0572091E-02
528.3999, 2.1128461E-02
530.3284, 2.2737520E-02
532.2568, 2.4006050E-02
534.1853, 2.4661159E-02
536.1138, 2.5194710E-02
538.0422, 2.6157210E-02
539.9707, 2.7556960E-02
541.8992, 2.9078960E-02
543.8276, 3.0558340E-02
545.7561, 3.1538729E-02
547.6846, 3.2248620E-02
549.6130, 3.2883521E-02
551.5415, 3.3920940E-02
553.4700, 3.5728261E-02
555.3984, 3.7706301E-02
557.3269, 4.0359829E-02
559.2554, 4.3684531E-02
561.1838, 4.6669949E-02
563.1123, 4.9198020E-02
565.0408, 5.2350771E-02
566.9692, 5.7222672E-02
568.8977, 6.3455813E-02
570.8262, 6.9309853E-02
572.7546, 7.6805018E-02
574.6831, 8.6167097E-02
576.6116, 9.6437410E-02
578.5400, 0.1101418
580.4685, 0.1265557
582.3970, 0.1449394
584.3254, 0.1661359
586.2539, 0.1911906
588.1824, 0.2199353
590.1108, 0.2496482
592.0393, 0.2809978
593.9678, 0.3140793
595.8962, 0.3462722
597.8247, 0.3752681
599.7532, 0.3964684
601.6816, 0.4061612
603.6101, 0.4046085
605.5386, 0.3917673
607.4670, 0.3638649
609.3955, 0.3234304
611.3240, 0.2794273
613.2524, 0.2393840
615.1809, 0.2054145
617.1094, 0.1769493
619.0378, 0.1545563
620.9663, 0.1391755
622.8948, 0.1322445
624.8232, 0.1342079
626.7517, 0.1450968
628.6802, 0.1608804
630.6086, 0.1732927
632.5371, 0.1758971
634.4656, 0.1691110
636.3940, 0.1567550
638.3225, 0.1414498
640.2510, 0.1249110
642.1794, 0.1086973
644.1079, 9.3038343E-02
646.0364, 7.7611372E-02
647.9648, 6.3100033E-02
649.8933, 5.0510600E-02
651.8218, 4.0161371E-02
653.7502, 3.2482680E-02
655.6787, 2.7074860E-02
657.6072, 2.2763491E-02
659.5356, 1.9166941E-02
661.4641, 1.6293701E-02
663.3926, 1.4170230E-02
665.3210, 1.2550810E-02
667.2495, 1.1508600E-02
669.1780, 1.0121480E-02
671.1064, 9.0645589E-03
673.0349, 8.7407278E-03
674.9634, 8.1122611E-03
676.8918, 7.7433758E-03
678.8203, 7.9345470E-03
680.7488, 7.5458982E-03
682.6772, 7.6368260E-03
684.6057, 8.0552585E-03
686.5342, 8.0515612E-03
688.4626, 8.1827790E-03
690.3911, 8.4770350E-03
692.3196, 8.6156772E-03
694.2480, 8.3821407E-03
696.1765, 8.2385223E-03
698.1050, 8.7523060E-03
700.0334, 8.9854822E-03
701.9619, 9.0587987E-03
703.8904, 9.1858851E-03
705.8188, 9.1701802E-03
707.7473, 8.9344373E-03
709.6758, 8.8487538E-03
711.6042, 9.0601100E-03
713.5327, 9.0515539E-03
715.4612, 8.7447222E-03
717.3896, 8.5777994E-03
719.3181, 8.5181128E-03
721.2466, 8.9165000E-03
723.1750, 9.4914623E-03
725.1035, 9.5892856E-03
727.0320, 9.4310688E-03
728.9604, 9.4056474E-03
730.8889, 9.7086914E-03
732.8174, 9.8090973E-03
734.7458, 9.9982740E-03
736.6743, 1.0286560E-02
738.6028, 1.0368030E-02
740.5313, 1.0331190E-02
742.4597, 1.0431980E-02
744.3882, 1.0454970E-02
746.3167, 1.0385830E-02
748.2451, 1.0362190E-02
750.1736, 1.0537670E-02
752.1021, 1.0847260E-02
754.0305, 1.0969470E-02
755.9590, 1.0831120E-02
757.8875, 1.0937140E-02
759.8159, 1.1220420E-02
761.7444, 1.1183250E-02
763.6729, 1.1175580E-02
765.6013, 1.1462780E-02
767.5298, 1.1709020E-02
769.4583, 1.1936500E-02
771.3867, 1.2511070E-02
773.3152, 1.2876870E-02
775.2437, 1.2964460E-02
777.1721, 1.3364500E-02
779.1006, 1.3507130E-02
781.0291, 1.3429920E-02
782.9575, 1.3812130E-02
784.8860, 1.4213830E-02
786.8145, 1.4438990E-02
788.7429, 1.4800260E-02
790.6714, 1.4764240E-02
792.5999, 1.4523050E-02
794.5283, 1.4758270E-02
796.4568, 1.5247090E-02
798.3853, 1.5776290E-02
800.3137, 1.6008129E-02
802.2422, 1.6047509E-02
804.1707, 1.6258620E-02
806.0991, 1.6481381E-02
808.0276, 1.6697491E-02
809.9561, 1.6781280E-02
811.8845, 1.6911590E-02
813.8130, 1.6838791E-02
815.7415, 1.7177010E-02
817.6699, 1.7713530E-02
819.5984, 1.7908690E-02
821.5269, 1.8336680E-02
823.4553, 1.8440790E-02
825.3838, 1.8443840E-02
827.3123, 1.8300630E-02
829.2407, 1.8410690E-02
831.1692, 1.8908771E-02
833.0977, 1.9296771E-02
835.0261, 1.9451240E-02
836.9546, 1.9115349E-02
838.8831, 1.8999550E-02
840.8115, 1.8952399E-02
842.7400, 1.8816130E-02
844.6685, 1.9092459E-02
846.5969, 1.9267989E-02
848.5254, 1.9457109E-02
850.4539, 1.9692190E-02
852.3823, 1.9926559E-02
854.3108, 2.0212490E-02
856.2393, 2.0593630E-02
858.1677, 2.0639921E-02
860.0962, 2.0901190E-02
862.0247, 2.1625349E-02
863.9531, 2.2151951E-02
865.8816, 2.2634881E-02
867.8101, 2.3365321E-02
869.7385, 2.3753490E-02
871.6670, 2.4454881E-02
873.5955, 2.5675129E-02
875.5239, 2.6528399E-02
877.4524, 2.6488770E-02
879.3809, 2.6776670E-02
881.3093, 2.7457420E-02
883.2378, 2.8242670E-02
885.1663, 2.8775871E-02
887.0947, 2.8948851E-02
889.0232, 2.9467169E-02
890.9517, 3.0518129E-02
892.8801, 3.1164849E-02
894.8085, 3.1444240E-02
896.7370, 3.2234780E-02
898.6655, 3.3117440E-02
900.5939, 3.4009371E-02
902.5224, 3.5045270E-02
904.4509, 3.5973661E-02
906.3793, 3.6855750E-02
908.3078, 3.7602808E-02
910.2363, 3.8679250E-02
912.1647, 3.9884862E-02
914.0932, 4.0852081E-02
916.0217, 4.2129800E-02
917.9501, 4.3770831E-02
919.8786, 4.4831861E-02
921.8071, 4.5542181E-02
923.7355, 4.6670120E-02
925.6640, 4.7998250E-02
927.5925, 4.9276639E-02
929.5209, 5.0806250E-02
931.4494, 5.2720010E-02
933.3779, 5.4481041E-02
935.3063, 5.6172721E-02
937.2348, 5.8075991E-02
939.1633, 6.0229119E-02
941.0917, 6.2919043E-02
943.0202, 6.5589070E-02
944.9487, 6.8085663E-02
946.8771, 7.0779428E-02
948.8056, 7.3736228E-02
950.7341, 7.7048369E-02
952.6625, 8.0842197E-02
954.5910, 8.4597848E-02
956.5195, 8.8535063E-02
958.4479, 9.3506671E-02
960.3764, 9.9235639E-02
962.3049, 0.1060443
964.2333, 0.1129270
966.1618, 0.1185073
968.0903, 0.1250967
970.0187, 0.1345802
971.9472, 0.1469975
973.8757, 0.1621853
975.8041, 0.1822036
977.7326, 0.2114022
979.6611, 0.2532416
981.5895, 0.2903078
983.5180, 0.2662924
985.4465, 0.1909425
987.3749, 0.1389594
989.3034, 0.1257518
991.2319, 0.1311915
993.1603, 0.1414037
995.0888, 0.1522528
997.0173, 0.1639862
998.9457, 0.1763639
1000.874, 0.1883872
1002.803, 0.2007547
1004.731, 0.2136047
1006.660, 0.2263077
1008.588, 0.2393197
1010.517, 0.2529624
1012.445, 0.2669261
1014.373, 0.2809194
1016.302, 0.2953873
1018.230, 0.3099464
1020.159, 0.3251275
1022.087, 0.3405033
1024.016, 0.3562157
1025.944, 0.3727720
1027.873, 0.3900379
1029.801, 0.4068631
1031.730, 0.4240787
1033.658, 0.4422005
1035.587, 0.4597978
1037.515, 0.4774668
1039.444, 0.4953302
1041.372, 0.5129630
1043.301, 0.5303783
1045.229, 0.5472592
1047.157, 0.5625337
1049.086, 0.5768571
1051.014, 0.5915600
1052.943, 0.6052614
1054.871, 0.6171235
1056.800, 0.6261513
1058.728, 0.6317104
1060.657, 0.6339058
1062.585, 0.6337260
1064.514, 0.6306837
1066.442, 0.6246891
1068.371, 0.6154624
1070.299, 0.6042203
1072.228, 0.5913498
1074.156, 0.5776007
1076.084, 0.5639654
1078.013, 0.5505799
1079.941, 0.5368435
1081.870, 0.5237924
1083.798, 0.5106269
1085.727, 0.4966542
1087.655, 0.4823910
1089.584, 0.4688257
1091.512, 0.4554341
1093.441, 0.4424594
1095.369, 0.4304045
1097.298, 0.4190127
1099.226, 0.4082752
1101.155, 0.3984474
1103.083, 0.3885570
1105.011, 0.3791393
1106.940, 0.3698493
1108.868, 0.3602537
1110.797, 0.3507105
1112.725, 0.3416944
1114.654, 0.3331746
1116.582, 0.3248197
1118.511, 0.3160014
1120.439, 0.3070532
1122.368, 0.2986063
1124.296, 0.2902516
1126.225, 0.2820669
1128.153, 0.2736398
1130.082, 0.2649708
1132.010, 0.2567831
1133.938, 0.2489114
1135.867, 0.2412208
1137.795, 0.2332451
1139.724, 0.2253806
1141.652, 0.2178723
1143.581, 0.2107642
1145.509, 0.2043685
1147.438, 0.1986678
1149.366, 0.1937348
1151.295, 0.1902866
1153.223, 0.1878639
1155.152, 0.1861313
1157.080, 0.1858099
1159.009, 0.1868471
1160.937, 0.1878722
1162.865, 0.1885707
1164.794, 0.1892437
1166.722, 0.1902277
1168.651, 0.1916629
1170.579, 0.1930029
1172.508, 0.1938872
1174.436, 0.1942952
1176.365, 0.1944001
1178.293, 0.1937017
1180.222, 0.1916100
1182.150, 0.1882213
1184.079, 0.1837175
1186.007, 0.1788119
1187.936, 0.1733529
1189.864, 0.1673335
1191.792, 0.1607882
1193.721, 0.1537656
1195.649, 0.1467969
1197.578, 0.1401649
1199.506, 0.1335268
1201.435, 0.1267636
1203.363, 0.1198610
1205.292, 0.1129866
1207.220, 0.1060182
1209.149, 9.8823652E-02
1211.077, 9.1562152E-02
1213.006, 8.4595717E-02
1214.934, 7.8071691E-02
1216.863, 7.2028898E-02
1218.791, 6.6697039E-02
1220.719, 6.1496548E-02
1222.648, 5.6329489E-02
1224.576, 5.0843328E-02
1226.505, 4.4332739E-02
1228.433, 3.8084589E-02
1230.362, 3.2859530E-02
1232.290, 2.8474880E-02
1234.219, 2.5227880E-02
1236.147, 2.2793669E-02
1238.076, 2.0668359E-02
1240.004, 1.8686449E-02
1241.933, 1.7241290E-02
1243.861, 1.6026219E-02
1245.790, 1.4895730E-02
1247.718, 1.3917700E-02
1249.646, 1.2819920E-02
1251.575, 1.2014250E-02
1253.503, 1.1490670E-02
1255.432, 1.0814710E-02
1257.360, 1.0133310E-02
1259.289, 9.2694927E-03
1261.217, 8.7111676E-03
1263.146, 8.3673997E-03
1265.074, 8.1490306E-03
1267.003, 8.0711748E-03
1268.931, 7.7329408E-03
1270.860, 7.4338969E-03
1272.788, 7.3343520E-03
1274.717, 7.0583471E-03
1276.645, 6.6981711E-03
1278.573, 6.3541341E-03
1280.502, 5.9176930E-03
1282.430, 5.5742529E-03
1284.359, 5.6155622E-03
1286.287, 5.5449591E-03
1288.216, 4.9788719E-03
1290.144, 4.6580750E-03
1292.073, 4.3523652E-03
1294.001, 4.2062672E-03
1295.930, 4.3324698E-03
1297.858, 4.1818051E-03
1299.787, 3.7471959E-03
1301.715, 3.7155040E-03
1303.644, 3.9163530E-03
1305.572, 3.7948370E-03
1307.500, 3.7912850E-03
1309.429, 3.6715360E-03
1311.357, 3.3205079E-03
1313.286, 3.3063509E-03
1315.214, 3.3702950E-03
1317.143, 3.3237881E-03
1319.071, 3.3128290E-03
1321.000, 3.2307750E-03
1322.928, 3.0156991E-03
1324.857, 2.9141949E-03
1326.785, 3.1261879E-03
1328.714, 3.1643310E-03
1330.642, 3.4235341E-03
1332.571, 3.3932740E-03
1334.499, 3.3654061E-03
1336.427, 3.4069710E-03
1338.356, 3.2538690E-03
1340.284, 3.2042561E-03
1342.213, 3.3491200E-03
1344.141, 3.5402130E-03
1346.070, 3.5436321E-03
1347.998, 3.4036720E-03
1349.927, 3.3123179E-03
1351.855, 3.3315551E-03
1353.784, 3.4865481E-03
1355.712, 3.7433971E-03
1357.641, 3.5066630E-03
1359.569, 3.2586490E-03
1361.498, 3.5106800E-03
1363.426, 3.7689251E-03
1365.354, 3.6050051E-03
1367.283, 3.2799169E-03
1369.211, 3.2689881E-03
1371.140, 3.3732781E-03
1373.068, 3.2721569E-03
1374.997, 3.0601120E-03
1376.925, 3.0618811E-03
1378.854, 3.3436459E-03
1380.782, 3.2992810E-03
1382.711, 3.1917710E-03
1384.639, 3.5392460E-03
1386.568, 4.0001539E-03
1388.496, 4.4459919E-03
1390.424, 4.6611931E-03
1392.353, 4.7364691E-03
1394.281, 5.3962669E-03
1396.210, 6.6136168E-03
1398.138, 8.0874702E-03
1400.067, 8.6589837E-03
1401.995, 7.3969401E-03
1403.924, 5.7703368E-03
1405.852, 4.7415020E-03
1407.781, 4.1133831E-03
1409.709, 3.7858440E-03
1411.638, 3.7088559E-03
1413.566, 3.5569340E-03
1415.495, 3.4403270E-03
1417.423, 3.4362290E-03
1419.351, 3.6525731E-03
1421.280, 3.5984181E-03
1423.208, 3.5117620E-03
1425.137, 3.7656070E-03
1427.065, 4.2824182E-03
1428.994, 4.7183982E-03
1430.922, 5.3848759E-03
1432.851, 6.7365910E-03
1434.779, 8.4279701E-03
1436.708, 9.1143725E-03
1438.636, 7.9034828E-03
1440.565, 6.1426288E-03
1442.493, 4.9531362E-03
1444.422, 4.4864202E-03
1446.350, 4.4690482E-03
1448.278, 4.4441740E-03
1450.207, 4.2626960E-03
1452.135, 4.1651921E-03
1454.064, 4.0343609E-03
1455.992, 4.1154101E-03
1457.921, 3.8628259E-03
1459.849, 3.6242111E-03
1461.778, 3.6606621E-03
1463.706, 3.8920131E-03
1465.635, 4.0238001E-03
1467.563, 3.5705951E-03
1469.492, 3.5265700E-03
1471.420, 3.7992690E-03
1473.349, 3.9364640E-03
1475.277, 3.9823418E-03
1477.205, 4.0262602E-03
1479.134, 3.8972860E-03
1481.062, 3.5739280E-03
1482.991, 3.6125281E-03
1484.919, 3.9352998E-03
1486.848, 4.1910200E-03
1488.776, 4.3335562E-03
1490.705, 4.2829821E-03
1492.633, 3.9250422E-03
1494.562, 3.7966049E-03
1496.490, 3.8939810E-03
1498.419, 4.2043962E-03
1500.347, 4.3553752E-03
1502.276, 4.0609310E-03
1504.204, 3.9570238E-03
1506.132, 4.1771210E-03
1508.061, 4.2058029E-03
1509.989, 4.3206098E-03
1511.918, 4.4644638E-03
1513.846, 4.5313202E-03
1515.775, 4.6788580E-03
1517.703, 4.7582518E-03
1519.632, 5.0144279E-03
1521.560, 5.1368289E-03
1523.489, 5.1471042E-03
1525.417, 5.2801110E-03
1527.346, 5.3071911E-03
1529.274, 5.1348871E-03
1531.203, 5.2001118E-03
1533.131, 5.4729418E-03
1535.059, 5.4069571E-03
1536.988, 5.6764651E-03
1538.916, 6.1168368E-03
1540.845, 5.9731938E-03
1542.773, 5.8623631E-03
1544.702, 5.7091862E-03
1546.630, 5.7394179E-03
1548.559, 5.6314389E-03
1550.487, 5.5121612E-03
1552.416, 5.6540752E-03
1554.344, 5.9055509E-03
1556.273, 6.0513150E-03
1558.201, 6.1917701E-03
1560.130, 5.8631860E-03
1562.058, 5.5514178E-03
1563.986, 5.7356209E-03
1565.915, 5.8476138E-03
1567.843, 5.7900539E-03
1569.772, 6.1086849E-03
1571.700, 6.1467192E-03
1573.629, 6.1208000E-03
1575.557, 6.3512549E-03
1577.486, 6.1264681E-03
1579.414, 5.9581478E-03
1581.343, 5.7008360E-03
1583.271, 5.4180780E-03
1585.200, 5.9339851E-03
1587.128, 6.4525190E-03
1589.057, 6.6175330E-03
1590.985, 6.9245859E-03
1592.913, 6.9278069E-03
1594.842, 6.7733121E-03
1596.770, 6.9084582E-03
1598.699, 7.0747570E-03
1600.627, 6.9982661E-03
1602.556, 7.0204288E-03
1604.484, 6.9084871E-03
1606.413, 6.8259481E-03
1608.341, 6.8727280E-03
1610.270, 6.7995032E-03
1612.198, 6.7569441E-03
1614.127, 6.8154112E-03
1616.055, 7.0255869E-03
1617.984, 7.3373290E-03
1619.912, 7.1752458E-03
1621.840, 7.2273831E-03
1623.769, 7.4718711E-03
1625.697, 7.1701258E-03
1627.626, 6.8642958E-03
1629.554, 6.8607619E-03
1631.483, 6.9455220E-03
1633.411, 7.0522260E-03
1635.340, 6.9934060E-03
1637.268, 7.0781382E-03
1639.197, 7.2781700E-03
1641.125, 7.3995241E-03
1643.054, 7.2179688E-03
1644.982, 7.1834400E-03
1646.911, 7.3707490E-03
1648.839, 7.3536029E-03
1650.767, 7.3539140E-03
1652.696, 7.3075690E-03
1654.624, 7.2661950E-03
1656.553, 7.0245350E-03
1658.481, 7.0979740E-03
1660.410, 7.4570691E-03
1662.338, 7.3810322E-03
1664.267, 6.9814632E-03
1666.195, 6.9596739E-03
1668.124, 7.2789141E-03
1670.052, 7.1316240E-03
1671.981, 6.9805402E-03
1673.909, 7.0664901E-03
1675.838, 7.0872470E-03
1677.766, 6.9557521E-03
1679.694, 6.8143550E-03
1681.623, 6.6260342E-03
1683.551, 6.5408712E-03
1685.480, 6.4267730E-03
1687.408, 6.4908140E-03
1689.337, 6.7509902E-03
1691.265, 6.7878240E-03
1693.194, 6.2889042E-03
1695.122, 5.7648369E-03
1697.051, 6.0427352E-03
1698.979, 6.5775220E-03
1700.908, 6.8426770E-03
1702.836, 6.5648449E-03
1704.765, 6.7207520E-03
1706.693, 6.8267412E-03
1708.621, 7.0202332E-03
1710.550, 7.1310960E-03
1712.478, 7.0548099E-03
1714.407, 6.9490452E-03
1716.335, 7.2211321E-03
1718.264, 7.1998141E-03
1720.192, 6.9511519E-03
1722.121, 6.7199091E-03
1724.049, 6.6337171E-03
1725.978, 6.1384141E-03
1727.906, 5.7167988E-03
1729.835, 5.5658151E-03
1731.763, 5.7052192E-03
1733.692, 6.1247279E-03
1735.620, 5.8714980E-03
1737.548, 5.0661480E-03
1739.477, 4.9829409E-03
1741.405, 4.7950782E-03
1743.334, 4.7636498E-03
1745.262, 4.9514910E-03
1747.191, 4.3427451E-03
1749.119, 4.1395952E-03
1751.048, 4.7919690E-03
1752.976, 4.9851872E-03
1754.905, 5.0900010E-03
1756.833, 5.2533061E-03
1758.762, 5.3341840E-03
1760.690, 5.3256401E-03
1762.619, 5.3097131E-03
1764.547, 5.3885290E-03
1766.475, 5.7144891E-03
1768.404, 5.8611189E-03
1770.332, 5.7803909E-03
1772.261, 5.7352162E-03
1774.189, 5.5700168E-03
1776.118, 5.6313202E-03
1778.046, 5.8796611E-03
1779.975, 6.1083329E-03
1781.903, 5.8781970E-03
1783.832, 5.8631180E-03
1785.760, 6.3853320E-03
1787.689, 6.4852219E-03
1789.617, 6.2422571E-03
1791.546, 6.0365209E-03
1793.474, 5.9446301E-03
1795.402, 5.7513118E-03
1797.331, 5.4832459E-03
1799.259, 5.8751432E-03
1801.188, 5.7969000E-03
1803.116, 5.7439432E-03
1805.045, 5.7149008E-03
1806.973, 5.3878031E-03
1808.902, 5.5438359E-03
1810.830, 5.7664011E-03
1812.759, 6.1148992E-03
1814.687, 6.1962442E-03
1816.616, 5.8428529E-03
1818.544, 5.6615029E-03
1820.473, 5.9399740E-03
1822.401, 6.2504578E-03
1824.329, 6.2839412E-03
1826.258, 5.7923649E-03
1828.186, 5.3796340E-03
1830.115, 5.8493740E-03
1832.043, 6.6379262E-03
1833.972, 6.3246270E-03
1835.900, 5.2263979E-03
1837.829, 4.5359391E-03
1839.757, 4.3013971E-03
1841.686, 4.9879379E-03
1843.614, 5.4225731E-03
1845.543, 5.4943692E-03
1847.471, 5.6209238E-03
1849.400, 5.7201618E-03
1851.328, 6.2077260E-03
1853.256, 6.5502189E-03
1855.185, 5.7311850E-03
1857.113, 5.0814250E-03
1859.042, 5.3485772E-03
1860.970, 5.6682681E-03
1862.899, 5.8667981E-03
1864.827, 5.8220229E-03
1866.756, 5.9307809E-03
1868.684, 6.3528470E-03
1870.613, 7.0884828E-03
1872.541, 6.8111881E-03
1874.470, 6.1809290E-03
1876.398, 6.1844061E-03
1878.327, 6.1579649E-03
1880.255, 5.8452152E-03
1882.183, 5.8828052E-03
1884.112, 6.2549338E-03
1886.040, 5.2135279E-03
1887.969, 4.7168159E-03
1889.897, 5.5233361E-03
1891.826, 5.7540429E-03
1893.754, 5.4080850E-03
1895.683, 4.5898538E-03
1897.611, 4.6920250E-03
1899.540, 5.0153742E-03
1901.468, 5.1133968E-03
1903.397, 5.0738459E-03
1905.325, 5.3381249E-03
1907.254, 5.8757458E-03
1909.182, 6.0908711E-03
1911.110, 5.2455491E-03
1913.039, 4.5771892E-03
1914.967, 5.6215818E-03
1916.896, 6.3087940E-03
1918.824, 5.6459620E-03
1920.753, 5.0802198E-03
1922.681, 5.6379410E-03
1924.610, 5.5075628E-03
1926.538, 5.4415679E-03
1928.467, 5.1211300E-03
1930.395, 4.8459722E-03
1932.324, 3.8895970E-03
1934.252, 3.7211960E-03
1936.181, 3.3777200E-03
1938.109, 3.4689689E-03
1940.037, 3.6149521E-03
1941.966, 3.2552551E-03
1943.894, 4.2445180E-03
1945.823, 4.8116222E-03
1947.751, 3.8818801E-03
1949.680, 1.1249940E-03
1951.608, -4.1446381E-04
1953.537, 2.6180269E-04
1955.465, 2.2692750E-03
1957.394, 1.9450610E-03
1959.322, 1.5621810E-03
1961.251, 9.6920511E-04
1963.179, 7.1452698E-04
1965.108, -1.5423450E-03
1967.036, -3.9183660E-03
1968.964, -2.8585240E-03
1970.893, 6.5210927E-04
1972.821, 2.0139201E-03
1974.750, 8.0321979E-04
1976.678, 2.7081771E-03
1978.607, 6.0872468E-03
1980.535, 5.2957162E-03
1982.464, 3.0957299E-04
1984.392, 7.4376661E-04
1986.321, 1.3267280E-03
1988.249, 7.3591538E-04
1990.178, 1.9434680E-03
1992.106, -6.5117329E-04
1994.035, -2.7757899E-03
1995.963, -2.2552200E-03
1997.891, -1.4672340E-03
1999.820, -1.7273910E-03
2001.748, -1.1313820E-03
2003.677, -1.3041809E-03
2005.605, -1.6167820E-03
2007.534, -3.6874490E-03
2009.462, -4.3697781E-03
2011.391, -3.3068140E-03
2013.319, -2.4806689E-03
2015.248, -2.4595410E-03
2017.176, -2.8816860E-03
2019.105, -2.6660331E-03
2021.033, -1.7928290E-03
2022.962, -3.6521759E-03
2024.890, -4.2986460E-03
2026.818, -2.0641901E-03
2028.747, -3.2344239E-03
2030.675, -3.0965069E-03
2032.604, -1.0736880E-03
2034.532, -1.5032810E-05
2036.461, 9.2943269E-04
2038.389, 2.5270350E-04
2040.318, 1.1646349E-03
2042.246, 3.7903830E-03
2044.175, 2.2990140E-03
2046.103, 1.5123840E-03
2048.032, 3.9343652E-03
2049.960, 5.2904892E-03
2051.889, 4.6722172E-03
2053.817, 5.1103570E-03
2055.746, 5.6687919E-03
2057.674, 5.6840600E-03
2059.603, 6.4701200E-03
2061.531, 6.0429629E-03
2063.459, 4.5554792E-03
2065.388, 4.4428119E-03
2067.316, 4.2460430E-03
2069.245, 2.4266129E-03
2071.173, 3.0209890E-03
2073.102, 4.4660331E-03
2075.030, 4.7829011E-03
2076.959, 4.9531260E-03
2078.887, 3.5160270E-03
2080.816, 3.2298099E-03
2082.744, 4.7104261E-03
2084.673, 4.5707920E-03
2086.601, 4.5616790E-03
2088.530, 5.6111482E-03
2090.458, 5.6930669E-03
2092.386, 5.5950708E-03
2094.315, 3.8086241E-03
2096.243, 2.1628190E-03
2098.172, 3.8996260E-03
2100.100, 5.1512700E-03
2102.029, 4.0387250E-03
2103.957, 3.7964771E-03
2105.886, 4.8920428E-03
2107.814, 4.4554691E-03
2109.743, 3.9617112E-03
2111.671, 4.6410998E-03
2113.600, 4.1097049E-03
2115.528, 2.6990820E-03
2117.457, 3.2057140E-03
2119.385, 3.8162069E-03
2121.313, 4.3503088E-03
2123.242, 5.1837661E-03
2125.170, 3.7371831E-03
2127.099, 3.3725260E-03
2129.027, 2.9036009E-03
2130.956, 6.8316469E-04
2132.884, 6.8765497E-05
2134.813, 5.4496090E-04
2136.741, -1.6084110E-04
2138.670, -1.2583790E-03
2140.598, -9.8968029E-04
2142.527, -1.2281070E-03
2144.455, -1.6361540E-03
2146.384, -4.5713549E-03
2148.312, -7.0676138E-03
2150.240, -5.4301671E-03
2152.169, -5.6625162E-03
2154.097, -8.4043182E-03
2156.026, -1.0420520E-02
2157.954, -9.4049666E-03
2159.883, -5.7740011E-03
2161.811, -5.5835759E-03
2163.740, -2.7071121E-03
2165.668, -7.9631282E-04
2167.597, -2.1695159E-03
2169.525, -3.0293250E-03
2171.454, -3.8726800E-03
2173.382, -5.1743230E-03
2175.311, -3.9258571E-03
2177.239, -2.0053319E-03
2179.167, -3.4812889E-03
2181.096, -5.3372858E-03
2183.024, -4.1864570E-03
2184.953, -2.4621149E-03
2186.881, -5.3982012E-04
2188.810, 2.0284860E-03
2190.738, 6.7385542E-04
2192.667, -6.4367407E-05
2194.595, 1.2897600E-03
2196.524, 1.2340500E-03
2198.452, 3.3747120E-04
2200.381, 1.4932620E-04
2202.309, 8.5451180E-04
2204.238, 4.8726951E-04
2206.166, 3.6732081E-04
2208.094, 5.1425491E-04
2210.023, -3.4366589E-04
2211.951, -2.0519260E-04
2213.880, 1.5797450E-03
2215.808, 3.2609771E-03
2217.737, 3.4760390E-03
2219.665, 2.2527850E-03
2221.594, 2.8372100E-03
2223.522, 3.6652430E-03
2225.451, 3.1200261E-03
2227.379, 7.7766972E-04
2229.308, 1.0562890E-05
2231.236, 1.3580821E-03
2233.165, 2.1349960E-03
2235.093, 2.0649971E-03
2237.021, 1.3784530E-03
2238.950, 1.4939070E-03
2240.878, 2.3133871E-03
2242.807, 3.6942719E-03
2244.735, 4.3838881E-03
2246.664, 3.0201271E-03
2248.592, 2.9339381E-03
2250.521, 3.3282989E-03
2252.449, 2.2411000E-03
2254.378, 3.3417980E-03
2256.306, 5.6077288E-03
2258.235, 6.8713492E-03
2260.163, 6.3869162E-03
2262.092, 5.0703129E-03
2264.020, 5.4433560E-03
2265.948, 5.7335640E-03
2267.877, 4.9522412E-03
2269.805, 4.6919328E-03
2271.734, 5.8593540E-03
2273.662, 5.9735388E-03
2275.591, 5.2517829E-03
2277.519, 5.1303809E-03
2279.448, 6.2127700E-03
2281.376, 7.5939689E-03
2283.305, 8.4287468E-03
2285.233, 8.8781202E-03
2287.162, 8.9911381E-03
2289.090, 8.6746393E-03
2291.019, 8.6835558E-03
2292.947, 8.0333529E-03
2294.875, 7.9205362E-03
2296.804, 8.1499042E-03
2298.732, 8.2596531E-03
2300.661, 8.2381424E-03
2302.589, 8.1048990E-03
2304.518, 8.5444050E-03
2306.446, 9.9065611E-03
2308.375, 9.4552608E-03
2310.303, 9.3370536E-03
2312.232, 9.4676549E-03
2314.160, 9.9722976E-03
2316.089, 1.0471810E-02
2318.017, 1.0183720E-02
2319.946, 1.0980650E-02
2321.874, 1.2832420E-02
2323.802, 1.3110760E-02
2325.731, 1.2041350E-02
2327.659, 1.1832820E-02
2329.588, 1.1430900E-02
2331.516, 1.1003480E-02
2333.445, 1.1170320E-02
2335.373, 1.0532730E-02
2337.302, 1.0054970E-02
2339.230, 1.0513240E-02
2341.159, 1.0179520E-02
2343.087, 1.0104010E-02
2345.016, 1.0100630E-02
2346.944, 9.4498945E-03
2348.873, 9.1970563E-03
2350.801, 9.6619083E-03
2352.729, 1.0510820E-02
2354.658, 1.0891960E-02
2356.586, 1.0755910E-02
2358.515, 1.1247900E-02
2360.443, 1.1927080E-02
2362.372, 1.1210820E-02
2364.300, 9.8817404E-03
2366.229, 9.6838446E-03
2368.157, 9.8383632E-03
2370.086, 9.7399801E-03
2372.014, 9.3909297E-03
2373.942, 9.1276001E-03
2375.871, 9.3322396E-03
2377.799, 8.7500783E-03
2379.728, 7.9215886E-03
2381.656, 7.6099732E-03
2383.585, 7.7207629E-03
2385.513, 7.7476348E-03
2387.442, 7.7603529E-03
2389.370, 7.8399284E-03
2391.299, 7.5774090E-03
2393.227, 8.5677626E-03
2395.156, 8.8194702E-03
2397.084, 8.7411869E-03
2399.012, 9.9571608E-03
2400.941, 1.0027810E-02
2402.869, 9.6245324E-03
2404.798, 9.8227058E-03
2406.726, 9.7752018E-03
2408.655, 8.6337766E-03
2410.583, 8.5379323E-03
2412.512, 9.6813068E-03
2414.440, 9.8262373E-03
2416.369, 9.4927661E-03
2418.297, 8.5293055E-03
2420.226, 8.2286960E-03
2422.154, 9.3958052E-03
2424.083, 9.5406584E-03
2426.011, 8.0380710E-03
2427.939, 9.3345651E-03
2429.868, 1.1404650E-02
2431.796, 1.1687000E-02
2433.725, 1.1454870E-02
2435.653, 1.0416700E-02
2437.582, 9.0424065E-03
2439.510, 9.6884137E-03
2441.439, 1.0138070E-02
2443.367, 1.0115670E-02
2445.296, 1.0086850E-02
2447.224, 9.9554043E-03
2449.153, 1.0280710E-02
2451.081, 1.1029470E-02
2453.010, 1.1439240E-02
2454.938, 1.0921250E-02
2456.866, 1.0889780E-02
2458.795, 1.1530780E-02
2460.723, 1.1000860E-02
2462.652, 1.0335650E-02
2464.580, 1.1636580E-02
2466.509, 1.2663620E-02
2468.437, 1.2929460E-02
2470.366, 1.2314330E-02
2472.294, 1.1717730E-02
2474.223, 1.1279900E-02
2476.151, 1.0460320E-02
2478.080, 1.0293870E-02
2480.008, 1.0685400E-02
2481.937, 1.1606640E-02
2483.865, 1.2439980E-02
2485.793, 1.3032290E-02
2487.722, 1.2997930E-02
2489.650, 1.2125950E-02
2491.579, 1.1337250E-02
2493.507, 1.1596280E-02
2495.436, 1.2511060E-02
2497.364, 1.2896230E-02
2499.293, 1.3293170E-02
2501.221, 1.2994900E-02
2503.150, 1.2475990E-02
2505.078, 1.2173310E-02
2507.007, 1.2004020E-02
2508.935, 1.2991570E-02
2510.864, 1.3616170E-02
2512.792, 1.3652170E-02
2514.720, 1.2576560E-02
2516.649, 1.2242690E-02
2518.577, 1.2093180E-02
2520.506, 1.1532680E-02
2522.434, 1.2487400E-02
2524.363, 1.2131780E-02
2526.291, 1.1866690E-02
2528.220, 1.3425070E-02
2530.148, 1.4498080E-02
2532.077, 1.3742670E-02
2534.005, 1.2314900E-02
2535.934, 1.2334300E-02
2537.862, 1.2015400E-02
2539.791, 1.2162280E-02
2541.719, 1.2768920E-02
2543.647, 1.4620870E-02
2545.576, 1.4304230E-02
2547.504, 1.2142290E-02
2549.433, 1.1479720E-02
2551.361, 1.1845000E-02
2553.290, 1.2081000E-02
2555.218, 1.2742530E-02
2557.147, 1.3127520E-02
2559.075, 1.3258410E-02
2561.004, 1.3336410E-02
2562.932, 1.3011060E-02
2564.861, 1.3234030E-02
2566.789, 1.3160500E-02
2568.718, 1.3209920E-02
2570.646, 1.3262240E-02
2572.574, 1.2934970E-02
2574.503, 1.3021990E-02
2576.431, 1.2744610E-02
2578.360, 1.2906930E-02
2580.288, 1.4561820E-02
2582.217, 1.5463070E-02
2584.145, 1.4671720E-02
2586.074, 1.3887030E-02
2588.002, 1.4030310E-02
2589.931, 1.4028260E-02
2591.859, 1.4879800E-02
2593.788, 1.4145310E-02
2595.716, 1.2940050E-02
2597.645, 1.2595280E-02
2599.573, 1.2893760E-02
2601.501, 1.3017020E-02
2603.430, 1.2910880E-02
2605.358, 1.3260600E-02
2607.287, 1.2858970E-02
2609.215, 1.3345400E-02
2611.144, 1.3921540E-02
2613.072, 1.4517570E-02
2615.001, 1.5091850E-02
2616.929, 1.6104169E-02
2618.858, 1.5538650E-02
2620.786, 1.3647200E-02
2622.715, 1.3770790E-02
2624.643, 1.4853540E-02
2626.572, 1.5295250E-02
2628.500, 1.4634600E-02
2630.428, 1.4632270E-02
2632.357, 1.5059360E-02
2634.285, 1.4952770E-02
2636.214, 1.4335640E-02
2638.142, 1.4109380E-02
2640.071, 1.4604490E-02
2641.999, 1.4725370E-02
2643.928, 1.4229990E-02
2645.856, 1.3845540E-02
2647.785, 1.4432940E-02
2649.713, 1.4621990E-02
2651.642, 1.4701240E-02
2653.570, 1.4785490E-02
2655.499, 1.4830190E-02
2657.427, 1.4757040E-02
2659.355, 1.4165210E-02
2661.284, 1.4197260E-02
2663.212, 1.4241940E-02
2665.141, 1.4517980E-02
2667.069, 1.4537440E-02
2668.998, 1.4339130E-02
2670.926, 1.4601840E-02
2672.855, 1.4534980E-02
2674.783, 1.4493510E-02
2676.712, 1.5372240E-02
2678.640, 1.5851879E-02
2680.569, 1.5049560E-02
2682.497, 1.4947660E-02
2684.426, 1.5430240E-02
2686.354, 1.4601990E-02
2688.282, 1.4038520E-02
2690.211, 1.3996450E-02
2692.139, 1.3709600E-02
2694.068, 1.4053920E-02
2695.996, 1.4064340E-02
2697.925, 1.3374260E-02
2699.853, 1.3714040E-02
2701.782, 1.4701080E-02
2703.710, 1.4798660E-02
2705.639, 1.5329630E-02
2707.567, 1.5011580E-02
2709.496, 1.4634700E-02
2711.424, 1.4971360E-02
2713.353, 1.4804010E-02
2715.281, 1.4395250E-02
2717.209, 1.4341950E-02
2719.138, 1.4114490E-02
2721.066, 1.4139920E-02
2722.995, 1.4900290E-02
2724.923, 1.5561470E-02
2726.852, 1.4682890E-02
2728.780, 1.4208000E-02
2730.709, 1.4501490E-02
2732.637, 1.4338880E-02
2734.566, 1.4804970E-02
2736.494, 1.4804760E-02
2738.423, 1.4632010E-02
2740.351, 1.5134210E-02
2742.280, 1.5477210E-02
2744.208, 1.5315570E-02
2746.136, 1.5082760E-02
2748.065, 1.4661870E-02
2749.993, 1.5294610E-02
2751.922, 1.5323710E-02
2753.850, 1.4997340E-02
2755.779, 1.4966970E-02
2757.707, 1.5435060E-02
2759.636, 1.5656220E-02
2761.564, 1.5960891E-02
2763.493, 1.6141670E-02
2765.421, 1.6317790E-02
2767.350, 1.5969889E-02
2769.278, 1.6321391E-02
2771.207, 1.6577380E-02
2773.135, 1.6024129E-02
2775.063, 1.5214080E-02
2776.992, 1.5208900E-02
2778.920, 1.5842689E-02
2780.849, 1.5991580E-02
2782.777, 1.5109030E-02
2784.706, 1.4746590E-02
2786.634, 1.5581440E-02
2788.563, 1.5566580E-02
2790.491, 1.4625610E-02
2792.420, 1.4926620E-02
2794.348, 1.5091700E-02
2796.277, 1.4504210E-02
2798.205, 1.4819010E-02
2800.134, 1.4896560E-02
2802.062, 1.4520410E-02
2803.990, 1.4832530E-02
2805.919, 1.5377120E-02
2807.847, 1.6025979E-02
2809.776, 1.5936719E-02
2811.704, 1.5401940E-02
2813.633, 1.4849190E-02
2815.561, 1.5259350E-02
2817.490, 1.5596440E-02
2819.418, 1.5983179E-02
2821.347, 1.6191689E-02
2823.275, 1.5664371E-02
2825.204, 1.5353220E-02
2827.132, 1.6323900E-02
2829.061, 1.6424621E-02
2830.989, 1.6107220E-02
2832.917, 1.5528210E-02
2834.846, 1.5695650E-02
2836.774, 1.6018249E-02
2838.703, 1.6184749E-02
2840.631, 1.6099051E-02
2842.560, 1.6018091E-02
2844.488, 1.5098280E-02
2846.417, 1.3754210E-02
2848.345, 1.3219110E-02
2850.274, 1.2760980E-02
2852.202, 1.2976360E-02
2854.131, 1.2591940E-02
2856.059, 1.1564690E-02
2857.988, 1.1350670E-02
2859.916, 1.3158070E-02
2861.844, 1.5145190E-02
2863.773, 1.5654391E-02
2865.701, 1.6347431E-02
2867.630, 1.5604180E-02
2869.558, 1.5456010E-02
2871.487, 1.5883390E-02
2873.415, 1.6187521E-02
2875.344, 1.5984051E-02
2877.272, 1.6407641E-02
2879.201, 1.5799010E-02
2881.129, 1.4374660E-02
2883.058, 1.4864150E-02
2884.986, 1.6138060E-02
2886.915, 1.6113190E-02
2888.843, 1.6014099E-02
2890.771, 1.6467160E-02
2892.700, 1.7360911E-02
2894.628, 1.6675141E-02
2896.557, 1.5610370E-02
2898.485, 1.5596360E-02
2900.414, 1.5751820E-02
2902.342, 1.5666381E-02
2904.271, 1.5106930E-02
2906.199, 1.5314810E-02
2908.128, 1.5654489E-02
2910.056, 1.4426720E-02
2911.985, 1.3949380E-02
2913.913, 1.3917330E-02
2915.842, 1.2396980E-02
2917.770, 1.2313900E-02
2919.698, 1.3363020E-02
2921.627, 1.3534150E-02
2923.555, 1.3314200E-02
2925.484, 1.3148240E-02
2927.412, 1.3635950E-02
2929.341, 1.4057650E-02
2931.269, 1.2999870E-02
2933.198, 1.2726560E-02
2935.126, 1.3732050E-02
2937.055, 1.4498260E-02
2938.983, 1.4737480E-02
2940.912, 1.4033470E-02
2942.840, 1.4606110E-02
2944.769, 1.6297741E-02
2946.697, 1.6658820E-02
2948.625, 1.5549360E-02
2950.554, 1.5749350E-02
2952.482, 1.6325271E-02
2954.411, 1.6447080E-02
2956.339, 1.5723510E-02
2958.268, 1.4659280E-02
2960.196, 1.5681960E-02
2962.125, 1.7231259E-02
2964.053, 1.7724421E-02
2965.982, 1.7976200E-02
2967.910, 1.8078340E-02
2969.839, 1.7538549E-02
2971.767, 1.6297080E-02
2973.696, 1.7039960E-02
2975.624, 1.8144930E-02
2977.552, 1.7939890E-02
2979.481, 1.8030290E-02
2981.409, 1.8152559E-02
2983.338, 1.8021660E-02
2985.266, 1.7382730E-02
2987.195, 1.6942920E-02
2989.123, 1.6632801E-02
2991.052, 1.7540369E-02
2992.980, 1.8686211E-02
2994.909, 1.7944450E-02
2996.837, 1.7502530E-02
2998.766, 1.7851209E-02
3000.694, 1.7478710E-02
3002.623, 1.7591380E-02
3004.551, 1.6736699E-02
3006.479, 1.6433571E-02
3008.408, 1.7816139E-02
3010.336, 1.8429831E-02
3012.265, 1.7825730E-02
3014.193, 1.7645910E-02
3016.122, 1.7607570E-02
3018.050, 1.6668471E-02
3019.979, 1.8356130E-02
3021.907, 1.8697090E-02
3023.836, 1.8919609E-02
3025.764, 1.8971341E-02
3027.693, 1.7750051E-02
3029.621, 1.6423650E-02
3031.550, 1.6447321E-02
3033.478, 1.7560059E-02
3035.406, 1.7872650E-02
3037.335, 1.7137989E-02
3039.263, 1.5642080E-02
3041.192, 1.6821690E-02
3043.120, 1.8166760E-02
3045.049, 1.9045070E-02
3046.977, 1.8183850E-02
3048.906, 1.7687039E-02
3050.834, 1.7377410E-02
3052.763, 1.7410120E-02
3054.691, 1.8609511E-02
3056.620, 1.8736510E-02
3058.548, 1.8837851E-02
3060.477, 1.7882740E-02
3062.405, 1.7965181E-02
3064.333, 1.9746659E-02
3066.262, 1.8631170E-02
3068.190, 1.7921731E-02
3070.119, 1.8364960E-02
3072.047, 1.8140189E-02
3073.976, 1.7047079E-02
3075.904, 1.6930610E-02
3077.833, 1.7174659E-02
3079.761, 1.7226759E-02
3081.690, 1.8947560E-02
3083.618, 2.0962510E-02
3085.547, 2.1869959E-02
3087.475, 2.0024549E-02
3089.404, 1.7808281E-02
3091.332, 1.8067701E-02
3093.260, 1.8789500E-02
3095.189, 1.8580539E-02
3097.117, 1.7463669E-02
3099.046, 1.7623000E-02
3100.974, 1.8855941E-02
3102.903, 1.8658331E-02
3104.831, 1.8490421E-02
3106.760, 1.9138141E-02
3108.688, 1.9266929E-02
3110.617, 1.8366480E-02
3112.545, 1.7641660E-02
3114.474, 1.8868649E-02
3116.402, 2.0187421E-02
3118.331, 2.0999510E-02
3120.259, 2.0127200E-02
3122.188, 1.9153539E-02
3124.116, 1.9729260E-02
3126.044, 2.0062231E-02
3127.973, 1.9311281E-02
3129.901, 1.9044140E-02
3131.830, 2.0848781E-02
3133.758, 2.0957779E-02
3135.687, 2.1033671E-02
3137.615, 2.2447949E-02
3139.544, 2.1669460E-02
3141.472, 2.0254729E-02
3143.401, 1.8831840E-02
3145.329, 1.9794179E-02
3147.258, 1.9802190E-02
3149.186, 1.9327519E-02
3151.115, 1.9060880E-02
3153.043, 2.0089930E-02
3154.971, 2.0467080E-02
3156.900, 1.9368390E-02
3158.828, 1.9628439E-02
3160.757, 2.1261390E-02
3162.685, 2.1057479E-02
3164.614, 2.0850250E-02
3166.542, 2.1377349E-02
3168.471, 2.1280980E-02
3170.399, 2.2050429E-02
3172.328, 2.2094389E-02
3174.256, 2.2081960E-02
3176.185, 2.0904159E-02
3178.113, 1.8493900E-02
3180.042, 1.9330630E-02
3181.970, 2.1916870E-02
3183.898, 2.3501471E-02
3185.827, 2.3880061E-02
3187.755, 2.3043459E-02
3189.684, 2.0863280E-02
3191.612, 1.9596590E-02
3193.541, 2.0379540E-02
3195.469, 2.1505430E-02
3197.398, 2.0714350E-02
3199.326, 2.0625491E-02
3201.255, 2.2453230E-02
3203.183, 2.3751020E-02
3205.112, 2.2753909E-02
3207.040, 2.1059440E-02
3208.969, 2.0911170E-02
3210.897, 2.1818141E-02
3212.825, 2.0504870E-02
3214.754, 1.9914679E-02
3216.682, 2.0712070E-02
3218.611, 2.1185661E-02
3220.539, 2.0974539E-02
3222.468, 2.0751709E-02
3224.396, 1.9554861E-02
3226.325, 1.9553440E-02
3228.253, 2.2034630E-02
3230.182, 2.2788830E-02
3232.110, 2.2586830E-02
3234.039, 2.1918351E-02
3235.967, 2.0478049E-02
3237.896, 1.8248560E-02
3239.824, 2.0015109E-02
3241.752, 2.3677040E-02
3243.681, 2.4306390E-02
3245.609, 2.2841711E-02
3247.538, 2.2021759E-02
3249.466, 2.2738861E-02
3251.395, 2.4080230E-02
3253.323, 2.2822380E-02
3255.252, 2.0935791E-02
3257.180, 2.1987719E-02
3259.109, 2.4850979E-02
3261.037, 2.6357710E-02
3262.966, 2.5389370E-02
3264.894, 2.2737110E-02
3266.823, 2.2058530E-02
3268.751, 2.1769181E-02
3270.679, 2.0568520E-02
3272.608, 2.2535000E-02
3274.536, 2.3532670E-02
3276.465, 2.2902310E-02
3278.393, 2.3243900E-02
3280.322, 2.4010800E-02
3282.250, 2.3662191E-02
3284.179, 2.3812730E-02
3286.107, 2.3902120E-02
3288.036, 2.4700500E-02
3289.964, 2.6314680E-02
3291.893, 2.5690749E-02
3293.821, 2.4359699E-02
3295.750, 2.3390491E-02
3297.678, 2.2906579E-02
3299.606, 2.3269851E-02
3301.535, 2.2861451E-02
3303.463, 2.2877701E-02
3305.392, 2.3095271E-02
3307.320, 2.3801031E-02
3309.249, 2.4289001E-02
3311.177, 2.5539011E-02
3313.106, 2.6077500E-02
3315.034, 2.4700049E-02
3316.963, 2.4816841E-02
3318.891, 2.4175020E-02
3320.820, 2.2547070E-02
3322.748, 2.1695530E-02
3324.677, 2.3131950E-02
3326.605, 2.4132460E-02
3328.533, 2.5770999E-02
3330.462, 2.4957471E-02
3332.390, 2.3483429E-02
3334.319, 2.3727000E-02
3336.247, 2.2494070E-02
3338.176, 2.0896479E-02
3340.104, 2.1601250E-02
3342.033, 2.2851059E-02
3343.961, 2.3893271E-02
3345.890, 2.6022309E-02
3347.818, 2.4810379E-02
3349.747, 2.3768069E-02
3351.675, 2.5282530E-02
3353.604, 2.6054019E-02
3355.532, 2.5380069E-02
3357.460, 2.4230400E-02
3359.389, 2.4156271E-02
3361.317, 2.6400270E-02
3363.246, 2.6954509E-02
3365.174, 2.5899310E-02
3367.103, 2.5254861E-02
3369.031, 2.5920359E-02
3370.960, 2.5644859E-02
3372.888, 2.3518840E-02
3374.817, 2.2713801E-02
3376.745, 2.5012231E-02
3378.674, 2.5284810E-02
3380.602, 2.4782181E-02
3382.531, 2.6653510E-02
3384.459, 2.5473921E-02
3386.387, 2.3618100E-02
3388.316, 2.3554079E-02
3390.244, 2.4731999E-02
3392.173, 2.6127120E-02
3394.101, 2.6713420E-02
3396.030, 2.5468390E-02
3397.958, 2.4567660E-02
3399.887, 2.4496609E-02
3401.815, 2.3867389E-02
3403.744, 2.3624660E-02
3405.672, 2.2065271E-02
3407.601, 2.2128411E-02
3409.529, 2.5295410E-02
3411.458, 2.6379440E-02
3413.386, 2.4668850E-02
3415.314, 2.4635840E-02
3417.243, 2.4303161E-02
3419.171, 2.2236099E-02
3421.100, 2.2948051E-02
3423.028, 2.3084469E-02
3424.957, 2.5700681E-02
3426.885, 2.7739380E-02
3428.814, 2.5585489E-02
3430.742, 2.3612579E-02
3432.671, 2.3364261E-02
3434.599, 2.4201609E-02
3436.528, 2.5436290E-02
3438.456, 2.5702760E-02
3440.385, 2.5709290E-02
3442.313, 2.5111150E-02
3444.241, 2.4583571E-02
3446.170, 2.4082970E-02
3448.098, 2.4494151E-02
3450.027, 2.4397461E-02
3451.955, 2.2692790E-02
3453.884, 2.2724990E-02
3455.812, 2.3124849E-02
3457.741, 2.4369340E-02
3459.669, 2.3419600E-02
3461.598, 2.3613930E-02
3463.526, 2.6965840E-02
3465.455, 2.6775120E-02
3467.383, 2.5764480E-02
3469.312, 2.5924871E-02
3471.240, 2.5232339E-02
3473.168, 2.5215110E-02
3475.097, 2.5497960E-02
3477.025, 2.5567770E-02
3478.954, 2.4824539E-02
3480.882, 2.4955550E-02
3482.811, 2.4527730E-02
3484.739, 2.2923080E-02
3486.668, 2.4501940E-02
3488.596, 2.6236210E-02
3490.525, 2.5950549E-02
3492.453, 2.5887201E-02
3494.382, 2.5762049E-02
3496.310, 2.6788060E-02
3498.239, 2.7424799E-02
3500.167, 2.6471211E-02
3502.095, 2.6002809E-02
3504.024, 2.4719359E-02
3505.952, 2.4102850E-02
3507.881, 2.5322109E-02
3509.809, 2.5201360E-02
3511.738, 2.4664870E-02
3513.666, 2.4982531E-02
3515.595, 2.7455190E-02
3517.523, 2.6253600E-02
3519.452, 2.5013940E-02
3521.380, 2.5389429E-02
3523.309, 2.5694281E-02
3525.237, 2.6035979E-02
3527.166, 2.2704739E-02
3529.094, 2.1005800E-02
3531.022, 2.1713451E-02
3532.951, 2.2434650E-02
3534.879, 2.4296600E-02
3536.808, 2.3075961E-02
3538.736, 2.0713160E-02
3540.665, 2.2504469E-02
3542.593, 2.4669491E-02
3544.522, 2.4114359E-02
3546.450, 2.3471599E-02
3548.379, 2.4554590E-02
3550.307, 2.5387140E-02
3552.236, 2.6250109E-02
3554.164, 2.6577150E-02
3556.093, 2.4871379E-02
3558.021, 2.3828300E-02
3559.949, 2.2100350E-02
3561.878, 2.3051441E-02
3563.806, 2.6904320E-02
3565.735, 2.5273470E-02
3567.663, 2.3496890E-02
3569.592, 2.5124460E-02
3571.520, 2.5019450E-02
3573.449, 2.2689290E-02
3575.377, 2.3363320E-02
3577.306, 2.3499141E-02
3579.234, 2.2972260E-02
3581.163, 2.3206601E-02
3583.091, 2.4572860E-02
3585.020, 2.7986240E-02
3586.948, 2.8279509E-02
3588.876, 2.3664851E-02
3590.805, 1.9912010E-02
3592.733, 2.1670520E-02
3594.662, 2.3251399E-02
3596.590, 2.3342021E-02
3598.519, 2.4770839E-02
3600.447, 2.6094761E-02
3602.376, 2.6464390E-02
3604.304, 2.5701510E-02
3606.233, 2.7130380E-02
3608.161, 2.7086750E-02
3610.090, 2.5969800E-02
3612.018, 2.6609600E-02
3613.947, 2.7023340E-02
3615.875, 2.6992779E-02
3617.803, 2.6639899E-02
3619.732, 2.5797131E-02
3621.660, 2.4832120E-02
3623.589, 2.6419360E-02
3625.517, 2.8419189E-02
3627.446, 2.7452020E-02
3629.374, 2.5505019E-02
3631.303, 2.2771209E-02
3633.231, 2.1619180E-02
3635.160, 2.2896821E-02
3637.088, 2.3435440E-02
3639.017, 2.2091519E-02
3640.945, 2.4564980E-02
3642.874, 2.7857071E-02
3644.802, 2.6555730E-02
3646.730, 2.2892339E-02
3648.659, 1.8337229E-02
3650.587, 1.8902689E-02
3652.516, 2.6279921E-02
3654.444, 2.9433850E-02
3656.373, 2.4992719E-02
3658.301, 2.1868881E-02
3660.230, 2.3747651E-02
3662.158, 2.6259741E-02
3664.087, 2.5256731E-02
3666.015, 2.4395259E-02
3667.944, 2.5298500E-02
3669.872, 2.8283710E-02
3671.801, 2.6977010E-02
3673.729, 2.5889959E-02
3675.657, 2.6977470E-02
3677.586, 2.4913309E-02
3679.514, 2.2125481E-02
3681.443, 2.2974370E-02
3683.371, 2.3622800E-02
3685.300, 2.1506930E-02
3687.228, 2.2901289E-02
3689.157, 2.5922030E-02
3691.085, 2.5703670E-02
3693.014, 2.5207991E-02
3694.942, 2.5732270E-02
3696.871, 2.5375310E-02
3698.799, 2.6301330E-02
3700.728, 2.5074810E-02
3702.656, 2.6136341E-02
3704.584, 2.6697110E-02
3706.513, 2.4214990E-02
3708.441, 2.1417079E-02
3710.370, 2.2705220E-02
3712.298, 2.3470679E-02
3714.227, 2.2683140E-02
3716.155, 2.3230720E-02
3718.084, 2.2642480E-02
3720.012, 2.2828110E-02
3721.941, 2.3723731E-02
3723.869, 2.4908431E-02
3725.798, 2.3517819E-02
3727.726, 2.3345660E-02
3729.655, 2.4975481E-02
3731.583, 2.3788830E-02
3733.511, 2.5497239E-02
3735.440, 2.3644749E-02
3737.368, 2.1417120E-02
3739.297, 2.3905270E-02
3741.225, 2.5819680E-02
3743.154, 2.5427150E-02
3745.082, 2.5143441E-02
3747.011, 2.7986370E-02
3748.939, 2.8992590E-02
3750.868, 2.7379200E-02
3752.796, 2.7555900E-02
3754.725, 2.8809261E-02
3756.653, 2.8847370E-02
3758.582, 2.9146530E-02
3760.510, 2.6188640E-02
3762.438, 2.4834249E-02
3764.367, 2.7981250E-02
3766.295, 2.7372390E-02
3768.224, 2.3707461E-02
3770.152, 2.2567781E-02
3772.081, 2.4572549E-02
3774.009, 2.5210150E-02
3775.938, 2.3184109E-02
3777.866, 2.3157740E-02
3779.795, 2.5374331E-02
3781.723, 2.5883650E-02
3783.652, 2.4128400E-02
3785.580, 2.6262291E-02
3787.509, 2.6668459E-02
3789.437, 2.5821140E-02
3791.365, 2.7837319E-02
3793.294, 2.4870619E-02
3795.222, 2.1615120E-02
3797.151, 2.6140580E-02
3799.079, 2.9062340E-02
3801.008, 2.7435910E-02
3802.936, 2.8031079E-02
3804.865, 2.8633069E-02
3806.793, 2.8262479E-02
3808.722, 2.6581969E-02
3810.650, 2.5239900E-02
3812.579, 2.4823811E-02
3814.507, 2.5970271E-02
3816.436, 2.6081160E-02
3818.364, 2.6104361E-02
3820.292, 2.6232120E-02
3822.221, 2.4959089E-02
3824.149, 2.4455190E-02
3826.078, 2.5229720E-02
3828.006, 2.7191080E-02
3829.935, 2.5006890E-02
3831.863, 2.3881270E-02
3833.792, 2.5752950E-02
3835.720, 2.4878630E-02
3837.649, 2.5157690E-02
3839.577, 2.6879409E-02
3841.506, 2.7966630E-02
3843.434, 2.8427901E-02
3845.363, 2.7438320E-02
3847.291, 2.8830040E-02
3849.219, 2.8776361E-02
3851.148, 2.6763970E-02
3853.076, 2.7582390E-02
3855.005, 2.7474791E-02
3856.933, 2.6659651E-02
3858.862, 2.5800340E-02
3860.790, 2.7178600E-02
3862.719, 2.7492680E-02
3864.647, 2.4819050E-02
3866.576, 2.6519859E-02
3868.504, 2.6925091E-02
3870.433, 2.5350209E-02
3872.361, 2.6027409E-02
3874.290, 2.4863251E-02
3876.218, 2.1334579E-02
3878.146, 2.0164739E-02
3880.075, 2.2458460E-02
3882.003, 2.4899179E-02
3883.932, 3.0384811E-02
3885.860, 3.2103140E-02
3887.789, 2.7028561E-02
3889.717, 2.6320649E-02
3891.646, 2.7376151E-02
3893.574, 2.5353920E-02
3895.503, 2.5573639E-02
3897.431, 2.7944939E-02
3899.360, 2.8359830E-02
3901.288, 2.9021630E-02
3903.217, 2.9282279E-02
3905.145, 2.6361041E-02
3907.073, 2.5563121E-02
3909.002, 2.9244110E-02
3910.930, 2.8361229E-02
3912.859, 2.6289999E-02
3914.787, 2.8893780E-02
3916.716, 3.1438909E-02
3918.644, 2.8636880E-02
3920.573, 2.8412400E-02
3922.501, 2.8738420E-02
3924.430, 2.8606430E-02
3926.358, 2.6389550E-02
3928.287, 2.3883371E-02
3930.215, 2.5129640E-02
3932.144, 2.6561420E-02
3934.072, 2.8633770E-02
3936.000, 2.4895210E-02
3937.929, 2.0462509E-02
3939.857, 2.2279231E-02
3941.786, 2.6560890E-02
3943.714, 2.6420470E-02
3945.643, 2.6857110E-02
3947.571, 2.6109351E-02
3949.500, 2.9029390E-02
3951.428, 3.2923348E-02
3953.357, 3.1546891E-02
3955.285, 2.9570499E-02
3957.214, 2.6672170E-02
3959.142, 2.2641340E-02
3961.071, 2.4346780E-02
3962.999, 3.2236218E-02
3964.927, 3.3316679E-02
3966.856, 3.0113591E-02
3968.784, 2.9802540E-02
3970.713, 3.2194819E-02
3972.641, 3.1176100E-02
3974.570, 2.7178820E-02
3976.498, 2.7155470E-02
3978.427, 2.6570160E-02
3980.355, 2.5363510E-02
3982.284, 2.7287871E-02
3984.212, 3.0592781E-02
3986.141, 3.5695821E-02
3988.069, 3.4664199E-02
3989.998, 2.9766001E-02
3991.926, 2.7877400E-02
3993.854, 2.6760010E-02
3995.783, 2.3948319E-02
3997.711, 2.8902059E-02
3999.640, 2.8916011E-02
##END=



