##NAMES=Benitoite
##RRUFFID=R050320
##IDEAL CHEMISTRY=BaTi^4+^Si_3_O_9_
##LOCALITY=San Benito County, California, USA
##OWNER=RRUFF
##SOURCE=American Museum of Natural History
##DESCRIPTION=Blue fragment
##STATUS=The identification of this mineral has been confirmed by X-ray diffraction and chemical analysis
##URL=rruff.info/R050320
##MEASURED CHEMISTRY=Ba_1.00_Ti_1.00_(Si_2.99_Al_0.01_)_Î£=3_O_9_
399.1926, 0.1322723
401.1211, 0.1081863
403.0496, 0.1087064
404.9780, 0.1019499
406.9065, 9.3720339E-02
408.8350, 9.0465821E-02
410.7634, 9.2664666E-02
412.6919, 9.9008098E-02
414.6204, 0.1027107
416.5488, 0.1088492
418.4773, 0.1184562
420.4058, 0.1296926
422.3342, 0.1412754
424.2627, 0.1560321
426.1912, 0.1744551
428.1196, 0.1928051
430.0481, 0.2083738
431.9766, 0.2204325
433.9050, 0.2308803
435.8335, 0.2378176
437.7620, 0.2405615
439.6904, 0.2355793
441.6189, 0.2256823
443.5474, 0.2145495
445.4758, 0.2023413
447.4043, 0.1907248
449.3328, 0.1787302
451.2612, 0.1639272
453.1897, 0.1506345
455.1182, 0.1394747
457.0466, 0.1252499
458.9751, 0.1119220
460.9036, 0.1011332
462.8320, 9.0803169E-02
464.7605, 8.6504802E-02
466.6890, 8.9778364E-02
468.6174, 9.9804640E-02
470.5459, 0.1166799
472.4744, 0.1389740
474.4028, 0.1589485
476.3313, 0.1727038
478.2598, 0.1815280
480.1882, 0.1811228
482.1167, 0.1746928
484.0452, 0.1665656
485.9736, 0.1569418
487.9021, 0.1465569
489.8306, 0.1365786
491.7590, 0.1282490
493.6875, 0.1195777
495.6160, 0.1108597
497.5444, 0.1033087
499.4729, 9.5844887E-02
501.4014, 8.9025520E-02
503.3298, 8.3164968E-02
505.2583, 7.7161103E-02
507.1868, 7.0491381E-02
509.1152, 6.4156629E-02
511.0437, 5.8568090E-02
512.9722, 5.4217141E-02
514.9006, 5.0512090E-02
516.8291, 4.6778809E-02
518.7576, 4.3431722E-02
520.6860, 4.0926360E-02
522.6145, 3.9094221E-02
524.5430, 3.7557900E-02
526.4714, 3.5443820E-02
528.3999, 3.2954048E-02
530.3284, 3.1794470E-02
532.2568, 3.2161940E-02
534.1853, 3.2217789E-02
536.1138, 3.2261360E-02
538.0422, 3.2850720E-02
539.9707, 3.2911830E-02
541.8992, 3.2357059E-02
543.8276, 3.2494951E-02
545.7561, 3.3567749E-02
547.6846, 3.4918949E-02
549.6130, 3.5574809E-02
551.5415, 3.5342950E-02
553.4700, 3.6612891E-02
555.3984, 3.8908988E-02
557.3269, 4.1279688E-02
559.2554, 4.4093870E-02
561.1838, 4.7378160E-02
563.1123, 5.2398190E-02
565.0408, 5.9472982E-02
566.9692, 6.6762947E-02
568.8977, 7.2225884E-02
570.8262, 7.3851883E-02
572.7546, 7.0946343E-02
574.6831, 6.4308487E-02
576.6116, 5.6790959E-02
578.5400, 5.0454259E-02
580.4685, 4.5752201E-02
582.3970, 4.2214539E-02
584.3254, 3.9762281E-02
586.2539, 3.8069151E-02
588.1824, 3.6834281E-02
590.1108, 3.6471959E-02
592.0393, 3.6607750E-02
593.9678, 3.7090801E-02
595.8962, 3.7608162E-02
597.8247, 3.8381450E-02
599.7532, 3.9113410E-02
601.6816, 4.0057551E-02
603.6101, 4.1118130E-02
605.5386, 4.1881680E-02
607.4670, 4.3118499E-02
609.3955, 4.4477198E-02
611.3240, 4.5964580E-02
613.2524, 4.7053639E-02
615.1809, 4.7729019E-02
617.1094, 4.8746191E-02
619.0378, 4.9633481E-02
620.9663, 5.0591901E-02
622.8948, 5.1568110E-02
624.8232, 5.2318349E-02
626.7517, 5.2932460E-02
628.6802, 5.3347621E-02
630.6086, 5.4755390E-02
632.5371, 5.6637160E-02
634.4656, 5.8840539E-02
636.3940, 6.1124541E-02
638.3225, 6.3753881E-02
640.2510, 6.6266596E-02
642.1794, 6.8161286E-02
644.1079, 7.0059776E-02
646.0364, 7.2642222E-02
647.9648, 7.5253628E-02
649.8933, 7.7652916E-02
651.8218, 8.0086082E-02
653.7502, 8.2550041E-02
655.6787, 8.5198827E-02
657.6072, 8.8064857E-02
659.5356, 9.0774953E-02
661.4641, 9.3245693E-02
663.3926, 9.5928878E-02
665.3210, 9.8836400E-02
667.2495, 0.1019195
669.1780, 0.1054743
671.1064, 0.1088764
673.0349, 0.1116966
674.9634, 0.1148893
676.8918, 0.1190647
678.8203, 0.1227339
680.7488, 0.1261536
682.6772, 0.1303996
684.6057, 0.1352025
686.5342, 0.1400530
688.4626, 0.1447127
690.3911, 0.1494636
692.3196, 0.1546093
694.2480, 0.1597887
696.1765, 0.1655117
698.1050, 0.1715823
700.0334, 0.1774392
701.9619, 0.1833992
703.8904, 0.1889860
705.8188, 0.1950077
707.7473, 0.2010111
709.6758, 0.2069324
711.6042, 0.2140459
713.5327, 0.2210212
715.4612, 0.2279186
717.3896, 0.2349027
719.3181, 0.2427384
721.2466, 0.2510581
723.1750, 0.2592925
725.1035, 0.2682920
727.0320, 0.2768103
728.9604, 0.2851752
730.8889, 0.2938151
732.8174, 0.3027345
734.7458, 0.3115222
736.6743, 0.3190935
738.6028, 0.3264415
740.5313, 0.3325479
742.4597, 0.3373131
744.3882, 0.3408805
746.3167, 0.3432277
748.2451, 0.3449241
750.1736, 0.3452230
752.1021, 0.3422004
754.0305, 0.3347210
755.9590, 0.3234338
757.8875, 0.3098871
759.8159, 0.2944306
761.7444, 0.2786713
763.6729, 0.2620520
765.6013, 0.2453764
767.5298, 0.2292549
769.4583, 0.2129388
771.3867, 0.1970431
773.3152, 0.1814796
775.2437, 0.1660184
777.1721, 0.1512376
779.1006, 0.1370267
781.0291, 0.1235563
782.9575, 0.1109376
784.8860, 9.9101797E-02
786.8145, 8.8720590E-02
788.7429, 8.1160828E-02
790.6714, 7.5937264E-02
792.5999, 7.2678387E-02
794.5283, 7.0686556E-02
796.4568, 6.9845296E-02
798.3853, 6.9637187E-02
800.3137, 6.9768593E-02
802.2422, 7.0276290E-02
804.1707, 7.0723638E-02
806.0991, 7.1086213E-02
808.0276, 7.2189741E-02
809.9561, 7.4055783E-02
811.8845, 7.6192833E-02
813.8130, 7.8479968E-02
815.7415, 8.1060924E-02
817.6699, 8.3739862E-02
819.5984, 8.7117173E-02
821.5269, 9.0145707E-02
823.4553, 9.3404099E-02
825.3838, 9.7454973E-02
827.3123, 0.1018661
829.2407, 0.1064653
831.1692, 0.1114740
833.0977, 0.1174465
835.0261, 0.1233319
836.9546, 0.1292219
838.8831, 0.1360759
840.8115, 0.1436799
842.7400, 0.1517438
844.6685, 0.1598843
846.5969, 0.1685983
848.5254, 0.1779015
850.4539, 0.1871112
852.3823, 0.1965927
854.3108, 0.2067259
856.2393, 0.2168696
858.1677, 0.2262409
860.0962, 0.2351693
862.0247, 0.2450063
863.9531, 0.2554520
865.8816, 0.2654020
867.8101, 0.2747880
869.7385, 0.2844736
871.6670, 0.2937531
873.5955, 0.3029156
875.5239, 0.3120588
877.4524, 0.3212350
879.3809, 0.3299942
881.3093, 0.3384922
883.2378, 0.3471203
885.1663, 0.3565074
887.0947, 0.3659905
889.0232, 0.3741478
890.9517, 0.3816089
892.8801, 0.3889531
894.8085, 0.3962774
896.7370, 0.4032330
898.6655, 0.4093524
900.5939, 0.4150904
902.5224, 0.4203168
904.4509, 0.4240097
906.3793, 0.4254361
908.3078, 0.4245102
910.2363, 0.4223692
912.1647, 0.4186042
914.0932, 0.4129899
916.0217, 0.4051786
917.9501, 0.3948184
919.8786, 0.3837540
921.8071, 0.3726509
923.7355, 0.3628216
925.6640, 0.3543191
927.5925, 0.3449453
929.5209, 0.3334104
931.4494, 0.3195116
933.3779, 0.3055564
935.3063, 0.2929306
937.2348, 0.2812261
939.1633, 0.2697601
941.0917, 0.2591672
943.0202, 0.2493066
944.9487, 0.2398777
946.8771, 0.2308647
948.8056, 0.2220722
950.7341, 0.2137786
952.6625, 0.2054816
954.5910, 0.1974806
956.5195, 0.1895653
958.4479, 0.1816816
960.3764, 0.1744032
962.3049, 0.1680679
964.2333, 0.1624275
966.1618, 0.1573597
968.0903, 0.1538587
970.0187, 0.1523403
971.9472, 0.1522037
973.8757, 0.1535696
975.8041, 0.1562931
977.7326, 0.1592261
979.6611, 0.1622156
981.5895, 0.1652901
983.5180, 0.1685462
985.4465, 0.1719865
987.3749, 0.1754711
989.3034, 0.1789506
991.2319, 0.1824774
993.1603, 0.1860171
995.0888, 0.1899570
997.0173, 0.1948084
998.9457, 0.2003563
1000.874, 0.2064945
1002.803, 0.2130911
1004.731, 0.2202989
1006.660, 0.2274633
1008.588, 0.2343686
1010.517, 0.2406975
1012.445, 0.2465026
1014.373, 0.2505500
1016.302, 0.2519745
1018.230, 0.2518651
1020.159, 0.2513874
1022.087, 0.2502450
1024.016, 0.2478581
1025.944, 0.2438087
1027.873, 0.2382837
1029.801, 0.2321884
1031.730, 0.2258319
1033.658, 0.2189925
1035.587, 0.2116960
1037.515, 0.2039115
1039.444, 0.1953311
1041.372, 0.1863182
1043.301, 0.1769890
1045.229, 0.1678167
1047.157, 0.1589520
1049.086, 0.1501854
1051.014, 0.1416892
1052.943, 0.1337281
1054.871, 0.1260402
1056.800, 0.1187393
1058.728, 0.1118017
1060.657, 0.1051208
1062.585, 9.8548032E-02
1064.514, 9.2787728E-02
1066.442, 8.7318733E-02
1068.371, 8.1366599E-02
1070.299, 7.5870149E-02
1072.228, 7.0781320E-02
1074.156, 6.5794833E-02
1076.084, 6.1339259E-02
1078.013, 5.7091519E-02
1079.941, 5.3056289E-02
1081.870, 4.9275558E-02
1083.798, 4.5360669E-02
1085.727, 4.1434269E-02
1087.655, 3.8295619E-02
1089.584, 3.5828941E-02
1091.512, 3.3567630E-02
1093.441, 3.1716879E-02
1095.369, 2.9885840E-02
1097.298, 2.8056620E-02
1099.226, 2.6692411E-02
1101.155, 2.5563680E-02
1103.083, 2.4524011E-02
1105.011, 2.3448391E-02
1106.940, 2.2147629E-02
1108.868, 2.1274870E-02
1110.797, 2.0835560E-02
1112.725, 2.0219781E-02
1114.654, 1.9281819E-02
1116.582, 1.8551171E-02
1118.511, 1.8043760E-02
1120.439, 1.7554039E-02
1122.368, 1.7113879E-02
1124.296, 1.6666669E-02
1126.225, 1.6270470E-02
1128.153, 1.5969230E-02
1130.082, 1.5506440E-02
1132.010, 1.4689090E-02
1133.938, 1.3995650E-02
1135.867, 1.3552040E-02
1137.795, 1.3115880E-02
1139.724, 1.2586740E-02
1141.652, 1.2236570E-02
1143.581, 1.1831680E-02
1145.509, 1.1335240E-02
1147.438, 1.1021530E-02
1149.366, 1.0493900E-02
1151.295, 1.0164900E-02
1153.223, 1.0009170E-02
1155.152, 9.9943979E-03
1157.080, 9.8276893E-03
1159.009, 9.3882056E-03
1160.937, 8.9680562E-03
1162.865, 8.7114144E-03
1164.794, 8.3442647E-03
1166.722, 8.1178090E-03
1168.651, 7.8871734E-03
1170.579, 7.7361800E-03
1172.508, 7.4478472E-03
1174.436, 7.2139530E-03
1176.365, 7.0475768E-03
1178.293, 6.9086538E-03
1180.222, 6.5641841E-03
1182.150, 6.2335068E-03
1184.079, 6.1119660E-03
1186.007, 5.9313518E-03
1187.936, 5.6122928E-03
1189.864, 5.3092241E-03
1191.792, 5.0065690E-03
1193.721, 4.8872861E-03
1195.649, 4.8959418E-03
1197.578, 4.9683340E-03
1199.506, 4.9535031E-03
1201.435, 4.6558799E-03
1203.363, 4.3805349E-03
1205.292, 4.2543919E-03
1207.220, 4.1373712E-03
1209.149, 4.0682699E-03
1211.077, 3.7426490E-03
1213.006, 3.4055409E-03
1214.934, 3.3218260E-03
1216.863, 3.2522450E-03
1218.791, 3.1901561E-03
1220.719, 3.1607391E-03
1222.648, 2.9753251E-03
1224.576, 2.5396079E-03
1226.505, 2.3885849E-03
1228.433, 2.3218570E-03
1230.362, 2.2269171E-03
1232.290, 2.2204849E-03
1234.219, 2.0099741E-03
1236.147, 1.8510740E-03
1238.076, 1.8810070E-03
1240.004, 1.9918480E-03
1241.933, 2.0264189E-03
1243.861, 1.7945149E-03
1245.790, 1.4837080E-03
1247.718, 1.4193900E-03
1249.646, 1.5247570E-03
1251.575, 1.6046320E-03
1253.503, 1.6203930E-03
1255.432, 1.4986950E-03
1257.360, 1.4644030E-03
1259.289, 1.3775430E-03
1261.217, 1.2185490E-03
1263.146, 1.0177650E-03
1265.074, 1.0446840E-03
1267.003, 1.1208560E-03
1268.931, 9.0891722E-04
1270.860, 8.2544237E-04
1272.788, 1.1002390E-03
1274.717, 1.2652880E-03
1276.645, 1.3774460E-03
1278.573, 1.3687820E-03
1280.502, 1.2614620E-03
1282.430, 1.2910460E-03
1284.359, 1.2681620E-03
1286.287, 1.3858840E-03
1288.216, 1.5487890E-03
1290.144, 1.7133800E-03
1292.073, 1.7508970E-03
1294.001, 1.8024570E-03
1295.930, 1.8506780E-03
1297.858, 1.5952690E-03
1299.787, 1.4782340E-03
1301.715, 1.7830010E-03
1303.644, 1.8697981E-03
1305.572, 1.8941350E-03
1307.500, 2.0138300E-03
1309.429, 2.0632171E-03
1311.357, 2.2407600E-03
1313.286, 2.2558500E-03
1315.214, 2.1230690E-03
1317.143, 2.1577231E-03
1319.071, 2.3230540E-03
1321.000, 2.3667070E-03
1322.928, 2.1260181E-03
1324.857, 2.0343510E-03
1326.785, 2.3216750E-03
1328.714, 2.4330930E-03
1330.642, 2.6374499E-03
1332.571, 2.9889459E-03
1334.499, 3.1124889E-03
1336.427, 3.1344830E-03
1338.356, 2.8947301E-03
1340.284, 2.5372810E-03
1342.213, 2.5662589E-03
1344.141, 2.5638179E-03
1346.070, 2.8261221E-03
1347.998, 3.4626180E-03
1349.927, 3.7468250E-03
1351.855, 3.6195680E-03
1353.784, 3.4404790E-03
1355.712, 3.5160959E-03
1357.641, 3.7166721E-03
1359.569, 3.8035561E-03
1361.498, 3.6627699E-03
1363.426, 3.4936119E-03
1365.354, 3.5066090E-03
1367.283, 3.7095600E-03
1369.211, 3.7184451E-03
1371.140, 3.7229960E-03
1373.068, 3.8060651E-03
1374.997, 4.0560751E-03
1376.925, 3.9356882E-03
1378.854, 3.9311289E-03
1380.782, 4.1619572E-03
1382.711, 4.2293160E-03
1384.639, 4.1624019E-03
1386.568, 4.5345188E-03
1388.496, 4.5920489E-03
1390.424, 4.6142102E-03
1392.353, 4.7799922E-03
1394.281, 4.7852630E-03
1396.210, 4.8638340E-03
1398.138, 5.0311708E-03
1400.067, 5.0267442E-03
1401.995, 4.9572778E-03
1403.924, 5.1485752E-03
1405.852, 5.1445141E-03
1407.781, 5.0886339E-03
1409.709, 5.2794619E-03
1411.638, 5.2989982E-03
1413.566, 5.3203632E-03
1415.495, 5.1198280E-03
1417.423, 5.0320001E-03
1419.351, 5.0152340E-03
1421.280, 4.8000361E-03
1423.208, 4.6858951E-03
1425.137, 4.4082110E-03
1427.065, 4.2263810E-03
1428.994, 4.4389288E-03
1430.922, 4.4995509E-03
1432.851, 4.3745032E-03
1434.779, 4.4472292E-03
1436.708, 4.6571018E-03
1438.636, 4.2561861E-03
1440.565, 4.0698331E-03
1442.493, 4.0582991E-03
1444.422, 3.9939778E-03
1446.350, 3.9026660E-03
1448.278, 3.8654751E-03
1450.207, 3.9577018E-03
1452.135, 3.9312998E-03
1454.064, 3.7713700E-03
1455.992, 4.0522879E-03
1457.921, 3.9502680E-03
1459.849, 3.1749110E-03
1461.778, 3.0728511E-03
1463.706, 3.5551630E-03
1465.635, 3.2572420E-03
1467.563, 2.7470731E-03
1469.492, 2.9293420E-03
1471.420, 3.8022120E-03
1473.349, 4.6130470E-03
1475.277, 4.7282982E-03
1477.205, 4.4858162E-03
1479.134, 4.4540172E-03
1481.062, 4.6252371E-03
1482.991, 4.6999082E-03
1484.919, 4.6056160E-03
1486.848, 4.5374222E-03
1488.776, 4.8486451E-03
1490.705, 5.0720861E-03
1492.633, 4.8870179E-03
1494.562, 4.8664878E-03
1496.490, 5.0862241E-03
1498.419, 5.1115928E-03
1500.347, 4.7710380E-03
1502.276, 4.4985400E-03
1504.204, 5.2584810E-03
1506.132, 6.0840379E-03
1508.061, 5.7460358E-03
1509.989, 5.1013450E-03
1511.918, 4.9546501E-03
1513.846, 5.0438601E-03
1515.775, 5.2945772E-03
1517.703, 5.3551518E-03
1519.632, 5.5026342E-03
1521.560, 5.8442638E-03
1523.489, 5.9439582E-03
1525.417, 5.8073229E-03
1527.346, 5.7831150E-03
1529.274, 5.6497641E-03
1531.203, 5.4622730E-03
1533.131, 5.8920900E-03
1535.059, 6.0255420E-03
1536.988, 6.6006361E-03
1538.916, 7.7718101E-03
1540.845, 7.7944621E-03
1542.773, 7.3875571E-03
1544.702, 7.2763809E-03
1546.630, 7.0596859E-03
1548.559, 7.0574959E-03
1550.487, 7.1879341E-03
1552.416, 7.3391851E-03
1554.344, 7.8873429E-03
1556.273, 8.3099324E-03
1558.201, 9.1685513E-03
1560.130, 9.5840124E-03
1562.058, 8.8546714E-03
1563.986, 8.6589344E-03
1565.915, 9.0481881E-03
1567.843, 9.2487726E-03
1569.772, 9.1701541E-03
1571.700, 8.9895315E-03
1573.629, 9.6786786E-03
1575.557, 1.0659720E-02
1577.486, 1.0678130E-02
1579.414, 1.0512290E-02
1581.343, 1.0536400E-02
1583.271, 1.0332420E-02
1585.200, 1.0345480E-02
1587.128, 1.0413060E-02
1589.057, 1.0594800E-02
1590.985, 1.0432480E-02
1592.913, 1.0415010E-02
1594.842, 1.0577090E-02
1596.770, 1.0298290E-02
1598.699, 9.9731153E-03
1600.627, 9.8671662E-03
1602.556, 9.7926166E-03
1604.484, 9.5312595E-03
1606.413, 9.0448447E-03
1608.341, 8.8837771E-03
1610.270, 9.0403454E-03
1612.198, 9.1180056E-03
1614.127, 9.1176424E-03
1616.055, 9.3698697E-03
1617.984, 8.7534841E-03
1619.912, 7.9524415E-03
1621.840, 8.2770400E-03
1623.769, 8.7062335E-03
1625.697, 8.7365331E-03
1627.626, 8.4884614E-03
1629.554, 8.4338216E-03
1631.483, 8.6987214E-03
1633.411, 9.1366051E-03
1635.340, 9.3587954E-03
1637.268, 9.0641622E-03
1639.197, 8.9270957E-03
1641.125, 8.9496579E-03
1643.054, 8.9813992E-03
1644.982, 8.9789694E-03
1646.911, 8.8026347E-03
1648.839, 8.6956425E-03
1650.767, 9.2899827E-03
1652.696, 1.0542040E-02
1654.624, 1.0276220E-02
1656.553, 9.2440303E-03
1658.481, 9.3248207E-03
1660.410, 9.4645293E-03
1662.338, 9.2412224E-03
1664.267, 8.8139558E-03
1666.195, 8.6869830E-03
1668.124, 8.5960748E-03
1670.052, 8.4814876E-03
1671.981, 8.2582030E-03
1673.909, 8.2328916E-03
1675.838, 8.5777277E-03
1677.766, 8.1344191E-03
1679.694, 7.6810699E-03
1681.623, 7.6932111E-03
1683.551, 8.1793908E-03
1685.480, 8.0028120E-03
1687.408, 7.5349370E-03
1689.337, 7.9064826E-03
1691.265, 7.4927150E-03
1693.194, 6.8148160E-03
1695.122, 7.1563818E-03
1697.051, 7.6660570E-03
1698.979, 7.9261186E-03
1700.908, 7.9966420E-03
1702.836, 7.0707961E-03
1704.765, 7.0118550E-03
1706.693, 6.9938689E-03
1708.621, 6.5428838E-03
1710.550, 5.9363008E-03
1712.478, 5.7078390E-03
1714.407, 5.7414570E-03
1716.335, 6.3656801E-03
1718.264, 6.2358379E-03
1720.192, 5.1307152E-03
1722.121, 4.7126911E-03
1724.049, 4.3045860E-03
1725.978, 3.7716830E-03
1727.906, 4.0018391E-03
1729.835, 4.3109041E-03
1731.763, 4.0206360E-03
1733.692, 3.6842800E-03
1735.620, 2.7945470E-03
1737.548, 1.8728940E-03
1739.477, 1.3941150E-03
1741.405, 8.6310430E-04
1743.334, 3.2343020E-04
1745.262, 1.9259031E-04
1747.191, 1.9656710E-04
1749.119, 7.9335982E-04
1751.048, 1.4694810E-03
1752.976, 1.8615170E-03
1754.905, 2.5196029E-03
1756.833, 3.1917379E-03
1758.762, 3.7007220E-03
1760.690, 4.5658960E-03
1762.619, 5.2378508E-03
1764.547, 5.2725449E-03
1766.475, 5.2649300E-03
1768.404, 5.4894732E-03
1770.332, 5.7863020E-03
1772.261, 5.9075132E-03
1774.189, 5.8872839E-03
1776.118, 6.0633039E-03
1778.046, 5.7408800E-03
1779.975, 5.8776001E-03
1781.903, 5.9221028E-03
1783.832, 5.6285691E-03
1785.760, 4.8103351E-03
1787.689, 4.7045578E-03
1789.617, 5.3835199E-03
1791.546, 5.9765209E-03
1793.474, 5.9406180E-03
1795.402, 5.6584268E-03
1797.331, 5.7250331E-03
1799.259, 5.7091960E-03
1801.188, 5.2932790E-03
1803.116, 5.0058891E-03
1805.045, 4.8332149E-03
1806.973, 4.8721149E-03
1808.902, 4.6233931E-03
1810.830, 4.3666088E-03
1812.759, 4.8600952E-03
1814.687, 5.0446689E-03
1816.616, 5.1337532E-03
1818.544, 5.1167030E-03
1820.473, 5.0776280E-03
1822.401, 5.5856341E-03
1824.329, 5.8900742E-03
1826.258, 4.9127880E-03
1828.186, 4.3952428E-03
1830.115, 5.1311320E-03
1832.043, 5.8479551E-03
1833.972, 6.0318378E-03
1835.900, 5.9816092E-03
1837.829, 5.8501051E-03
1839.757, 5.5840109E-03
1841.686, 5.9237950E-03
1843.614, 6.1121779E-03
1845.543, 5.5087772E-03
1847.471, 5.8759260E-03
1849.400, 6.1913170E-03
1851.328, 6.2904418E-03
1853.256, 6.2997178E-03
1855.185, 6.6061178E-03
1857.113, 6.3425968E-03
1859.042, 6.5738340E-03
1860.970, 6.8455851E-03
1862.899, 6.4126258E-03
1864.827, 6.1050551E-03
1866.756, 5.8921520E-03
1868.684, 5.9527508E-03
1870.613, 5.5658850E-03
1872.541, 4.5491718E-03
1874.470, 4.3560159E-03
1876.398, 4.7813361E-03
1878.327, 4.8166132E-03
1880.255, 4.8917509E-03
1882.183, 5.1197112E-03
1884.112, 5.2122809E-03
1886.040, 5.1863589E-03
1887.969, 5.0151600E-03
1889.897, 4.9443659E-03
1891.826, 4.5898440E-03
1893.754, 3.4951861E-03
1895.683, 4.3947040E-03
1897.611, 5.2124830E-03
1899.540, 5.1577371E-03
1901.468, 5.4164170E-03
1903.397, 4.6952940E-03
1905.325, 4.2101112E-03
1907.254, 4.3945271E-03
1909.182, 5.3392532E-03
1911.110, 6.5881591E-03
1913.039, 6.6063711E-03
1914.967, 5.7197092E-03
1916.896, 4.9269530E-03
1918.824, 4.2012152E-03
1920.753, 4.3614609E-03
1922.681, 4.4006780E-03
1924.610, 4.0277150E-03
1926.538, 3.5033210E-03
1928.467, 3.3756820E-03
1930.395, 3.3116289E-03
1932.324, 4.1581248E-03
1934.252, 5.3206119E-03
1936.181, 6.8796580E-03
1938.109, 7.1380180E-03
1940.037, 5.4850671E-03
1941.966, 5.5074878E-03
1943.894, 4.7006910E-03
1945.823, 3.1522820E-03
1947.751, 3.0381661E-03
1949.680, 3.4966201E-03
1951.608, 4.9515180E-03
1953.537, 3.9466042E-03
1955.465, 3.5128519E-03
1957.394, 3.1399750E-03
1959.322, 2.4328551E-03
1961.251, 2.8941720E-03
1963.179, 1.1577960E-03
1965.108, -1.6706340E-03
1967.036, 5.5834837E-04
1968.964, 2.0276390E-03
1970.893, 2.5935411E-03
1972.821, 3.7137230E-03
1974.750, 2.5073960E-03
1976.678, 1.4186220E-03
1978.607, 3.1726889E-03
1980.535, 2.2244139E-03
1982.464, 3.3918540E-03
1984.392, 2.7137981E-03
1986.321, 9.5385488E-04
1988.249, 3.1819351E-03
1990.178, 4.5195678E-03
1992.106, 4.1773911E-03
1994.035, 2.7024620E-03
1995.963, 1.5640981E-03
1997.891, 2.7305330E-03
1999.820, 4.6047461E-03
2001.748, 5.8220571E-04
2003.677, -3.0037330E-03
2005.605, -1.8306720E-03
2007.534, -3.6796479E-04
2009.462, 1.5582680E-03
2011.391, 3.3727670E-03
2013.319, 2.9901520E-03
2015.248, 2.0862790E-03
2017.176, 1.6047599E-03
2019.105, 1.5196360E-03
2021.033, 7.4758061E-04
2022.962, 4.3056501E-04
2024.890, -2.0400039E-03
2026.818, -2.4727250E-03
2028.747, 4.1942179E-04
2030.675, 2.9140550E-03
2032.604, 1.6106230E-03
2034.532, 2.3145960E-03
2036.461, 2.4280190E-03
2038.389, 5.8042689E-04
2040.318, -6.7603710E-06
2042.246, 2.4630080E-03
2044.175, 4.5539560E-03
2046.103, 3.4336960E-03
2048.032, 2.3496849E-03
2049.960, 1.6411840E-03
2051.889, 1.5146170E-03
2053.817, 1.5074520E-03
2055.746, 2.0392430E-03
2057.674, 1.7902650E-03
2059.603, 3.3593499E-03
2061.531, 3.9414992E-03
2063.459, 4.8611248E-03
2065.388, 5.9029120E-03
2067.316, 7.0626442E-03
2069.245, 6.6208588E-03
2071.173, 6.4466088E-03
2073.102, 5.8957110E-03
2075.030, 5.2488209E-03
2076.959, 6.6831862E-03
2078.887, 6.6277022E-03
2080.816, 6.7138649E-03
2082.744, 7.0517790E-03
2084.673, 6.6259680E-03
2086.601, 6.5811882E-03
2088.530, 5.5965949E-03
2090.458, 4.6239952E-03
2092.386, 4.5774630E-03
2094.315, 5.2205478E-03
2096.243, 4.8729950E-03
2098.172, 5.3154002E-03
2100.100, 4.9845958E-03
2102.029, 4.4067060E-03
2103.957, 5.7570492E-03
2105.886, 5.7577621E-03
2107.814, 5.3219139E-03
2109.743, 5.6043458E-03
2111.671, 6.3507021E-03
2113.600, 7.1181371E-03
2115.528, 7.1086669E-03
2117.457, 6.4131040E-03
2119.385, 6.4364122E-03
2121.313, 5.6355782E-03
2123.242, 4.5798449E-03
2125.170, 5.3518540E-03
2127.099, 5.3340248E-03
2129.027, 5.1550441E-03
2130.956, 6.2986459E-03
2132.884, 6.1567849E-03
2134.813, 4.7806911E-03
2136.741, 3.8372921E-03
2138.670, 4.5317281E-03
2140.598, 5.8991360E-03
2142.527, 5.7512899E-03
2144.455, 4.5406311E-03
2146.384, 4.6783648E-03
2148.312, 3.6323741E-03
2150.240, 3.2250341E-03
2152.169, 6.2390850E-03
2154.097, 5.4739490E-03
2156.026, 4.0149009E-03
2157.954, 5.2202670E-03
2159.883, 5.9939828E-03
2161.811, 8.4716976E-03
2163.740, 1.0070200E-02
2165.668, 9.8361569E-03
2167.597, 9.7949840E-03
2169.525, 9.5838532E-03
2171.454, 8.0987234E-03
2173.382, 8.3521772E-03
2175.311, 8.7684942E-03
2177.239, 7.5086351E-03
2179.167, 7.2633540E-03
2181.096, 8.5785557E-03
2183.024, 9.1432203E-03
2184.953, 8.5459482E-03
2186.881, 1.0057060E-02
2188.810, 1.1530120E-02
2190.738, 1.0341280E-02
2192.667, 9.7495681E-03
2194.595, 9.9666566E-03
2196.524, 1.1199320E-02
2198.452, 1.2217660E-02
2200.381, 1.1740820E-02
2202.309, 1.0041360E-02
2204.238, 9.4466852E-03
2206.166, 1.0528730E-02
2208.094, 1.2989820E-02
2210.023, 1.2812350E-02
2211.951, 1.0246210E-02
2213.880, 9.5621673E-03
2215.808, 9.2016598E-03
2217.737, 1.0268250E-02
2219.665, 1.0576430E-02
2221.594, 1.1371240E-02
2223.522, 1.2615960E-02
2225.451, 1.1018360E-02
2227.379, 1.0271350E-02
2229.308, 1.1124650E-02
2231.236, 1.0880040E-02
2233.165, 1.0250690E-02
2235.093, 9.3184561E-03
2237.021, 9.5691467E-03
2238.950, 9.9147428E-03
2240.878, 1.0395740E-02
2242.807, 1.1680530E-02
2244.735, 1.2457020E-02
2246.664, 1.1842190E-02
2248.592, 1.1947230E-02
2250.521, 1.1717990E-02
2252.449, 1.2231130E-02
2254.378, 1.1330310E-02
2256.306, 1.0961840E-02
2258.235, 1.2348170E-02
2260.163, 1.1258250E-02
2262.092, 9.9604325E-03
2264.020, 1.1231630E-02
2265.948, 1.2372860E-02
2267.877, 1.2855140E-02
2269.805, 1.3067320E-02
2271.734, 1.1680510E-02
2273.662, 1.1718940E-02
2275.591, 1.2875410E-02
2277.519, 1.3069980E-02
2279.448, 1.4099290E-02
2281.376, 1.3803880E-02
2283.305, 1.2792910E-02
2285.233, 1.2660060E-02
2287.162, 1.3304330E-02
2289.090, 1.3127700E-02
2291.019, 1.3731370E-02
2292.947, 1.3512100E-02
2294.875, 1.3697980E-02
2296.804, 1.4132780E-02
2298.732, 1.3713510E-02
2300.661, 1.3310930E-02
2302.589, 1.3311730E-02
2304.518, 1.4187290E-02
2306.446, 1.4811780E-02
2308.375, 1.4355340E-02
2310.303, 1.3862400E-02
2312.232, 1.3594290E-02
2314.160, 1.4025960E-02
2316.089, 1.4335430E-02
2318.017, 1.4537320E-02
2319.946, 1.4613130E-02
2321.874, 1.5134500E-02
2323.802, 1.5622170E-02
2325.731, 1.5032300E-02
2327.659, 1.4664700E-02
2329.588, 1.5034270E-02
2331.516, 1.5773360E-02
2333.445, 1.5259050E-02
2335.373, 1.5022760E-02
2337.302, 1.5768761E-02
2339.230, 1.5917500E-02
2341.159, 1.5257520E-02
2343.087, 1.4935280E-02
2345.016, 1.4674320E-02
2346.944, 1.4163780E-02
2348.873, 1.4554920E-02
2350.801, 1.4848270E-02
2352.729, 1.4662960E-02
2354.658, 1.4823710E-02
2356.586, 1.5737491E-02
2358.515, 1.6105801E-02
2360.443, 1.5687320E-02
2362.372, 1.5775811E-02
2364.300, 1.6165679E-02
2366.229, 1.5781980E-02
2368.157, 1.5622670E-02
2370.086, 1.4833990E-02
2372.014, 1.4058900E-02
2373.942, 1.3613760E-02
2375.871, 1.4190450E-02
2377.799, 1.4297030E-02
2379.728, 1.3887860E-02
2381.656, 1.3348190E-02
2383.585, 1.2730200E-02
2385.513, 1.3478780E-02
2387.442, 1.4652460E-02
2389.370, 1.4355680E-02
2391.299, 1.3194210E-02
2393.227, 1.3215690E-02
2395.156, 1.3591230E-02
2397.084, 1.2705330E-02
2399.012, 1.2319090E-02
2400.941, 1.2627040E-02
2402.869, 1.2436710E-02
2404.798, 1.2892860E-02
2406.726, 1.3709970E-02
2408.655, 1.3406050E-02
2410.583, 1.2147300E-02
2412.512, 1.2433310E-02
2414.440, 1.3489790E-02
2416.369, 1.4059170E-02
2418.297, 1.4260350E-02
2420.226, 1.4938180E-02
2422.154, 1.4265280E-02
2424.083, 1.3653420E-02
2426.011, 1.3449000E-02
2427.939, 1.2949410E-02
2429.868, 1.2804360E-02
2431.796, 1.2715190E-02
2433.725, 1.2851130E-02
2435.653, 1.3145550E-02
2437.582, 1.3315190E-02
2439.510, 1.3863640E-02
2441.439, 1.4164540E-02
2443.367, 1.3723250E-02
2445.296, 1.3652170E-02
2447.224, 1.3241910E-02
2449.153, 1.2687100E-02
2451.081, 1.2469700E-02
2453.010, 1.2547930E-02
2454.938, 1.2016610E-02
2456.866, 1.2132090E-02
2458.795, 1.2736880E-02
2460.723, 1.2960020E-02
2462.652, 1.2797160E-02
2464.580, 1.2451370E-02
2466.509, 1.2010840E-02
2468.437, 1.1887000E-02
2470.366, 1.2749110E-02
2472.294, 1.3597890E-02
2474.223, 1.4079930E-02
2476.151, 1.3488650E-02
2478.080, 1.4011620E-02
2480.008, 1.4647080E-02
2481.937, 1.4571440E-02
2483.865, 1.4095450E-02
2485.793, 1.3841390E-02
2487.722, 1.3191910E-02
2489.650, 1.2628360E-02
2491.579, 1.3121030E-02
2493.507, 1.3181190E-02
2495.436, 1.2777340E-02
2497.364, 1.3316170E-02
2499.293, 1.4288880E-02
2501.221, 1.4903180E-02
2503.150, 1.4287830E-02
2505.078, 1.3880090E-02
2507.007, 1.3685170E-02
2508.935, 1.3731140E-02
2510.864, 1.5579130E-02
2512.792, 1.5308210E-02
2514.720, 1.4323560E-02
2516.649, 1.4208670E-02
2518.577, 1.3847720E-02
2520.506, 1.3510670E-02
2522.434, 1.4419330E-02
2524.363, 1.5141550E-02
2526.291, 1.5356910E-02
2528.220, 1.4281720E-02
2530.148, 1.3631790E-02
2532.077, 1.3940880E-02
2534.005, 1.4321970E-02
2535.934, 1.4573210E-02
2537.862, 1.4775520E-02
2539.791, 1.4470790E-02
2541.719, 1.5152160E-02
2543.647, 1.3643590E-02
2545.576, 1.2135150E-02
2547.504, 1.2855030E-02
2549.433, 1.4481230E-02
2551.361, 1.6078521E-02
2553.290, 1.4723270E-02
2555.218, 1.3240740E-02
2557.147, 1.2807260E-02
2559.075, 1.3271790E-02
2561.004, 1.3371880E-02
2562.932, 1.3376280E-02
2564.861, 1.3987380E-02
2566.789, 1.4428170E-02
2568.718, 1.4663030E-02
2570.646, 1.4606550E-02
2572.574, 1.4504470E-02
2574.503, 1.4541090E-02
2576.431, 1.3991790E-02
2578.360, 1.3405440E-02
2580.288, 1.3173660E-02
2582.217, 1.4808840E-02
2584.145, 1.6401540E-02
2586.074, 1.6791200E-02
2588.002, 1.6441770E-02
2589.931, 1.4353800E-02
2591.859, 1.3360040E-02
2593.788, 1.4022870E-02
2595.716, 1.5171010E-02
2597.645, 1.5558770E-02
2599.573, 1.5349570E-02
2601.501, 1.5396690E-02
2603.430, 1.4903660E-02
2605.358, 1.4695520E-02
2607.287, 1.4853960E-02
2609.215, 1.5057850E-02
2611.144, 1.4746200E-02
2613.072, 1.5062560E-02
2615.001, 1.5482820E-02
2616.929, 1.4786430E-02
2618.858, 1.5191500E-02
2620.786, 1.6448190E-02
2622.715, 1.6431380E-02
2624.643, 1.4740510E-02
2626.572, 1.4021500E-02
2628.500, 1.5239750E-02
2630.428, 1.5750980E-02
2632.357, 1.5016490E-02
2634.285, 1.4585030E-02
2636.214, 1.5453740E-02
2638.142, 1.6138161E-02
2640.071, 1.6228210E-02
2641.999, 1.6523151E-02
2643.928, 1.6763110E-02
2645.856, 1.7083971E-02
2647.785, 1.6436430E-02
2649.713, 1.5198420E-02
2651.642, 1.5732359E-02
2653.570, 1.6782319E-02
2655.499, 1.6528411E-02
2657.427, 1.5929610E-02
2659.355, 1.6371150E-02
2661.284, 1.6856691E-02
2663.212, 1.6683670E-02
2665.141, 1.5979961E-02
2667.069, 1.5053180E-02
2668.998, 1.5122120E-02
2670.926, 1.5650950E-02
2672.855, 1.5000870E-02
2674.783, 1.5346610E-02
2676.712, 1.5440630E-02
2678.640, 1.4839780E-02
2680.569, 1.5364330E-02
2682.497, 1.5403930E-02
2684.426, 1.5711751E-02
2686.354, 1.5729809E-02
2688.282, 1.5844380E-02
2690.211, 1.6105250E-02
2692.139, 1.5999051E-02
2694.068, 1.6283469E-02
2695.996, 1.6358180E-02
2697.925, 1.6395081E-02
2699.853, 1.6024850E-02
2701.782, 1.6266650E-02
2703.710, 1.5586170E-02
2705.639, 1.5558240E-02
2707.567, 1.5950579E-02
2709.496, 1.5755771E-02
2711.424, 1.6065270E-02
2713.353, 1.6878551E-02
2715.281, 1.7366560E-02
2717.209, 1.7993620E-02
2719.138, 1.8826030E-02
2721.066, 1.8247509E-02
2722.995, 1.7073359E-02
2724.923, 1.6480820E-02
2726.852, 1.5903709E-02
2728.780, 1.6007250E-02
2730.709, 1.6637210E-02
2732.637, 1.6414110E-02
2734.566, 1.5501530E-02
2736.494, 1.6769640E-02
2738.423, 1.6967680E-02
2740.351, 1.6162951E-02
2742.280, 1.6423820E-02
2744.208, 1.6071189E-02
2746.136, 1.6109450E-02
2748.065, 1.6703900E-02
2749.993, 1.8037111E-02
2751.922, 1.7938700E-02
2753.850, 1.8137289E-02
2755.779, 1.8154031E-02
2757.707, 1.7887609E-02
2759.636, 1.8122431E-02
2761.564, 1.8366469E-02
2763.493, 1.7701831E-02
2765.421, 1.7605510E-02
2767.350, 1.7737770E-02
2769.278, 1.8253559E-02
2771.207, 1.8461220E-02
2773.135, 1.7770940E-02
2775.063, 1.8258350E-02
2776.992, 1.8051030E-02
2778.920, 1.7602401E-02
2780.849, 1.7709561E-02
2782.777, 1.8013779E-02
2784.706, 1.9026781E-02
2786.634, 1.8872850E-02
2788.563, 1.8395251E-02
2790.491, 1.8197009E-02
2792.420, 1.8170130E-02
2794.348, 1.8474450E-02
2796.277, 1.7749920E-02
2798.205, 1.7215310E-02
2800.134, 1.7360089E-02
2802.062, 1.8187249E-02
2803.990, 1.8863579E-02
2805.919, 1.8402420E-02
2807.847, 1.8616810E-02
2809.776, 1.8827870E-02
2811.704, 1.9397210E-02
2813.633, 2.0144900E-02
2815.561, 1.9384870E-02
2817.490, 1.7766500E-02
2819.418, 1.7902840E-02
2821.347, 1.9210629E-02
2823.275, 1.9826440E-02
2825.204, 1.9406291E-02
2827.132, 1.8745860E-02
2829.061, 1.8730501E-02
2830.989, 1.9133270E-02
2832.917, 1.8131031E-02
2834.846, 1.6967930E-02
2836.774, 1.7423280E-02
2838.703, 1.7916940E-02
2840.631, 1.7329970E-02
2842.560, 1.7565690E-02
2844.488, 1.8840360E-02
2846.417, 1.9626079E-02
2848.345, 1.9028200E-02
2850.274, 1.8207479E-02
2852.202, 1.7786410E-02
2854.131, 1.9486630E-02
2856.059, 2.0135600E-02
2857.988, 1.9386310E-02
2859.916, 1.9113339E-02
2861.844, 1.9934241E-02
2863.773, 2.0974310E-02
2865.701, 2.1144930E-02
2867.630, 2.0284841E-02
2869.558, 1.8746480E-02
2871.487, 1.9452341E-02
2873.415, 2.0689961E-02
2875.344, 2.0936379E-02
2877.272, 2.1274200E-02
2879.201, 2.0851471E-02
2881.129, 2.0398580E-02
2883.058, 1.8788939E-02
2884.986, 1.8179910E-02
2886.915, 1.9307209E-02
2888.843, 2.0823430E-02
2890.771, 2.0564670E-02
2892.700, 1.9976750E-02
2894.628, 1.9903380E-02
2896.557, 2.0401470E-02
2898.485, 2.1790611E-02
2900.414, 2.3265790E-02
2902.342, 2.2571919E-02
2904.271, 2.0572091E-02
2906.199, 1.9789200E-02
2908.128, 2.1010891E-02
2910.056, 2.0891750E-02
2911.985, 2.0443000E-02
2913.913, 2.1337710E-02
2915.842, 2.1943720E-02
2917.770, 2.1448961E-02
2919.698, 2.2419550E-02
2921.627, 2.3015689E-02
2923.555, 2.1769609E-02
2925.484, 2.1322820E-02
2927.412, 1.9612530E-02
2929.341, 1.9920209E-02
2931.269, 2.1980880E-02
2933.198, 2.3525620E-02
2935.126, 2.2815481E-02
2937.055, 2.1489250E-02
2938.983, 2.1101059E-02
2940.912, 2.2099869E-02
2942.840, 2.2229580E-02
2944.769, 2.1657269E-02
2946.697, 2.0149929E-02
2948.625, 1.9782029E-02
2950.554, 1.9994959E-02
2952.482, 2.0385550E-02
2954.411, 2.0758251E-02
2956.339, 2.1769561E-02
2958.268, 2.2284010E-02
2960.196, 2.1248819E-02
2962.125, 2.0412330E-02
2964.053, 2.1470100E-02
2965.982, 2.2279071E-02
2967.910, 2.2428710E-02
2969.839, 2.3477679E-02
2971.767, 2.4450900E-02
2973.696, 2.4172351E-02
2975.624, 2.3777731E-02
2977.552, 2.3418130E-02
2979.481, 2.3208130E-02
2981.409, 2.3400290E-02
2983.338, 2.2862179E-02
2985.266, 2.3034360E-02
2987.195, 2.3932241E-02
2989.123, 2.3849931E-02
2991.052, 2.2761520E-02
2992.980, 2.1312751E-02
2994.909, 2.1395860E-02
2996.837, 2.3700960E-02
2998.766, 2.3435559E-02
3000.694, 2.3411149E-02
3002.623, 2.3491019E-02
3004.551, 2.3111200E-02
3006.479, 2.3517480E-02
3008.408, 2.3489529E-02
3010.336, 2.3237441E-02
3012.265, 2.2279670E-02
3014.193, 2.1019310E-02
3016.122, 2.2235811E-02
3018.050, 2.3208540E-02
3019.979, 2.3340089E-02
3021.907, 2.2506000E-02
3023.836, 2.1379059E-02
3025.764, 2.1340931E-02
3027.693, 2.2380350E-02
3029.621, 2.2664109E-02
3031.550, 2.1192171E-02
3033.478, 2.0655019E-02
3035.406, 2.2544291E-02
3037.335, 2.1720840E-02
3039.263, 2.1977380E-02
3041.192, 2.2461651E-02
3043.120, 2.2567000E-02
3045.049, 2.3077959E-02
3046.977, 2.3172529E-02
3048.906, 2.2113699E-02
3050.834, 2.1471171E-02
3052.763, 2.2304820E-02
3054.691, 2.3454400E-02
3056.620, 2.2852130E-02
3058.548, 2.2708870E-02
3060.477, 2.3775540E-02
3062.405, 2.3791250E-02
3064.333, 2.2688620E-02
3066.262, 2.2192821E-02
3068.190, 2.2704180E-02
3070.119, 2.2175990E-02
3072.047, 2.1341080E-02
3073.976, 2.1767881E-02
3075.904, 2.2045270E-02
3077.833, 2.2135630E-02
3079.761, 2.2066740E-02
3081.690, 2.2794500E-02
3083.618, 2.2095900E-02
3085.547, 2.2167729E-02
3087.475, 2.3326660E-02
3089.404, 2.3301290E-02
3091.332, 2.2343339E-02
3093.260, 2.4013549E-02
3095.189, 2.5631011E-02
3097.117, 2.5497571E-02
3099.046, 2.4427250E-02
3100.974, 2.5130611E-02
3102.903, 2.5420809E-02
3104.831, 2.3190100E-02
3106.760, 2.1872509E-02
3108.688, 2.2401780E-02
3110.617, 2.3283491E-02
3112.545, 2.3431391E-02
3114.474, 2.3992350E-02
3116.402, 2.3715930E-02
3118.331, 2.4011031E-02
3120.259, 2.4264030E-02
3122.188, 2.3527760E-02
3124.116, 2.4389289E-02
3126.044, 2.5945591E-02
3127.973, 2.3436069E-02
3129.901, 2.2394380E-02
3131.830, 2.3404680E-02
3133.758, 2.4510430E-02
3135.687, 2.5859000E-02
3137.615, 2.5982451E-02
3139.544, 2.5673380E-02
3141.472, 2.3855070E-02
3143.401, 2.2861971E-02
3145.329, 2.4429230E-02
3147.258, 2.4346320E-02
3149.186, 2.3231030E-02
3151.115, 2.2679970E-02
3153.043, 2.3493810E-02
3154.971, 2.4072990E-02
3156.900, 2.3058571E-02
3158.828, 2.3253400E-02
3160.757, 2.5047300E-02
3162.685, 2.4842750E-02
3164.614, 2.3986610E-02
3166.542, 2.4639741E-02
3168.471, 2.6178870E-02
3170.399, 2.6108731E-02
3172.328, 2.5844080E-02
3174.256, 2.4742380E-02
3176.185, 2.3714960E-02
3178.113, 2.4491470E-02
3180.042, 2.3898659E-02
3181.970, 2.3450131E-02
3183.898, 2.4646340E-02
3185.827, 2.5976000E-02
3187.755, 2.5931019E-02
3189.684, 2.4291391E-02
3191.612, 2.3727190E-02
3193.541, 2.5310431E-02
3195.469, 2.4426291E-02
3197.398, 2.3765130E-02
3199.326, 2.4206139E-02
3201.255, 2.4770331E-02
3203.183, 2.5028691E-02
3205.112, 2.4470489E-02
3207.040, 2.4979850E-02
3208.969, 2.4753500E-02
3210.897, 2.5988430E-02
3212.825, 2.7919181E-02
3214.754, 2.5378540E-02
3216.682, 2.3689371E-02
3218.611, 2.5434511E-02
3220.539, 2.6125619E-02
3222.468, 2.6336109E-02
3224.396, 2.9417001E-02
3226.325, 3.0457780E-02
3228.253, 2.9252080E-02
3230.182, 2.9158629E-02
3232.110, 2.8144671E-02
3234.039, 2.7097890E-02
3235.967, 2.6511781E-02
3237.896, 2.5695181E-02
3239.824, 2.5473369E-02
3241.752, 2.7377060E-02
3243.681, 2.7382720E-02
3245.609, 2.5355600E-02
3247.538, 2.4976529E-02
3249.466, 2.4805181E-02
3251.395, 2.4346219E-02
3253.323, 2.4865450E-02
3255.252, 2.4785019E-02
3257.180, 2.4206730E-02
3259.109, 2.4351461E-02
3261.037, 2.5937591E-02
3262.966, 2.7027501E-02
3264.894, 2.6925050E-02
3266.823, 2.7256500E-02
3268.751, 2.7862409E-02
3270.679, 2.6342571E-02
3272.608, 2.5064830E-02
3274.536, 2.5198421E-02
3276.465, 2.6107850E-02
3278.393, 2.5922200E-02
3280.322, 2.5261421E-02
3282.250, 2.4588659E-02
3284.179, 2.4557600E-02
3286.107, 2.5308629E-02
3288.036, 2.6363950E-02
3289.964, 2.6058540E-02
3291.893, 2.5217300E-02
3293.821, 2.5199860E-02
3295.750, 2.5702721E-02
3297.678, 2.6591970E-02
3299.606, 2.7087759E-02
3301.535, 2.5673110E-02
3303.463, 2.5390610E-02
3305.392, 2.6252680E-02
3307.320, 2.4635550E-02
3309.249, 2.3002209E-02
3311.177, 2.4756251E-02
3313.106, 2.6345139E-02
3315.034, 2.7421501E-02
3316.963, 2.7914060E-02
3318.891, 2.7444560E-02
3320.820, 2.7336130E-02
3322.748, 2.6494140E-02
3324.677, 2.6406741E-02
3326.605, 2.5536390E-02
3328.533, 2.6261710E-02
3330.462, 2.7669810E-02
3332.390, 2.6195681E-02
3334.319, 2.5640359E-02
3336.247, 2.5357950E-02
3338.176, 2.5486860E-02
3340.104, 2.7220380E-02
3342.033, 2.6220730E-02
3343.961, 2.3770720E-02
3345.890, 2.5865771E-02
3347.818, 2.8510230E-02
3349.747, 2.9266531E-02
3351.675, 2.9192610E-02
3353.604, 2.6847120E-02
3355.532, 2.4378370E-02
3357.460, 2.4654290E-02
3359.389, 2.5976701E-02
3361.317, 2.6829129E-02
3363.246, 2.7376730E-02
3365.174, 2.7163630E-02
3367.103, 2.6495241E-02
3369.031, 2.7668839E-02
3370.960, 2.7233539E-02
3372.888, 2.6420830E-02
3374.817, 2.7719431E-02
3376.745, 2.8777231E-02
3378.674, 2.7762171E-02
3380.602, 2.6833029E-02
3382.531, 2.5458150E-02
3384.459, 2.6418069E-02
3386.387, 2.6753601E-02
3388.316, 2.7334990E-02
3390.244, 2.8397691E-02
3392.173, 2.7293051E-02
3394.101, 2.6548071E-02
3396.030, 2.9360941E-02
3397.958, 3.0887309E-02
3399.887, 2.8130971E-02
3401.815, 2.5807220E-02
3403.744, 2.6079411E-02
3405.672, 2.7184300E-02
3407.601, 2.6077241E-02
3409.529, 2.4931969E-02
3411.458, 2.4752609E-02
3413.386, 2.5007330E-02
3415.314, 2.6387610E-02
3417.243, 2.8631570E-02
3419.171, 2.8469291E-02
3421.100, 2.6929140E-02
3423.028, 2.6607580E-02
3424.957, 2.6294030E-02
3426.885, 2.6207371E-02
3428.814, 2.8399730E-02
3430.742, 2.7477849E-02
3432.671, 2.4657890E-02
3434.599, 2.5695350E-02
3436.528, 2.6978111E-02
3438.456, 2.6676930E-02
3440.385, 2.7162891E-02
3442.313, 2.5828950E-02
3444.241, 2.2657720E-02
3446.170, 2.2278860E-02
3448.098, 2.4966190E-02
3450.027, 2.7075941E-02
3451.955, 2.6154660E-02
3453.884, 2.4300739E-02
3455.812, 2.4689440E-02
3457.741, 2.6680071E-02
3459.669, 2.6199920E-02
3461.598, 2.6298910E-02
3463.526, 2.6250269E-02
3465.455, 2.5974080E-02
3467.383, 2.6427399E-02
3469.312, 2.8602419E-02
3471.240, 2.9567400E-02
3473.168, 2.9362621E-02
3475.097, 2.9563030E-02
3477.025, 3.0194839E-02
3478.954, 2.9238289E-02
3480.882, 2.7357090E-02
3482.811, 2.6971251E-02
3484.739, 2.8254390E-02
3486.668, 2.9619990E-02
3488.596, 2.9006351E-02
3490.525, 2.6819780E-02
3492.453, 2.6258269E-02
3494.382, 2.6816299E-02
3496.310, 2.6775330E-02
3498.239, 2.4171820E-02
3500.167, 2.5199220E-02
3502.095, 2.5959140E-02
3504.024, 2.6497660E-02
3505.952, 2.7091090E-02
3507.881, 2.5474209E-02
3509.809, 2.5590040E-02
3511.738, 2.6146971E-02
3513.666, 2.7591029E-02
3515.595, 2.7318930E-02
3517.523, 2.5867229E-02
3519.452, 2.6093369E-02
3521.380, 2.3220969E-02
3523.309, 2.3891540E-02
3525.237, 2.7997941E-02
3527.166, 2.8390860E-02
3529.094, 2.5253881E-02
3531.022, 2.4952989E-02
3532.951, 2.7039010E-02
3534.879, 2.7215069E-02
3536.808, 2.5905591E-02
3538.736, 2.5292240E-02
3540.665, 2.5358031E-02
3542.593, 2.5849720E-02
3544.522, 2.7072459E-02
3546.450, 2.7853381E-02
3548.379, 2.8203530E-02
3550.307, 2.7529029E-02
3552.236, 2.6046241E-02
3554.164, 2.3290461E-02
3556.093, 2.2943079E-02
3558.021, 2.5786189E-02
3559.949, 2.8434860E-02
3561.878, 3.0023171E-02
3563.806, 2.8390979E-02
3565.735, 2.6204580E-02
3567.663, 2.5987450E-02
3569.592, 2.6412301E-02
3571.520, 2.5702810E-02
3573.449, 2.5498580E-02
3575.377, 2.7294390E-02
3577.306, 2.5270550E-02
3579.234, 2.2607490E-02
3581.163, 2.1984469E-02
3583.091, 2.0234710E-02
3585.020, 2.1363970E-02
3586.948, 2.6401700E-02
3588.876, 2.8060909E-02
3590.805, 2.3963280E-02
3592.733, 2.2599149E-02
3594.662, 2.4127761E-02
3596.590, 2.4397301E-02
3598.519, 2.3192970E-02
3600.447, 2.1231931E-02
3602.376, 2.3337880E-02
3604.304, 2.5883621E-02
3606.233, 2.5931969E-02
3608.161, 2.5343070E-02
3610.090, 2.3730410E-02
3612.018, 2.3245839E-02
3613.947, 2.4828261E-02
3615.875, 2.6892111E-02
3617.803, 2.5455270E-02
3619.732, 2.2793319E-02
3621.660, 2.2536170E-02
3623.589, 2.1582980E-02
3625.517, 2.2319630E-02
3627.446, 2.4203410E-02
3629.374, 2.3989029E-02
3631.303, 2.3975641E-02
3633.231, 2.3690900E-02
3635.160, 2.0676531E-02
3637.088, 2.2796240E-02
3639.017, 2.4458660E-02
3640.945, 2.2268640E-02
3642.874, 2.3766629E-02
3644.802, 2.4946140E-02
3646.730, 2.3568081E-02
3648.659, 2.2034699E-02
3650.587, 2.1541830E-02
3652.516, 2.2594970E-02
3654.444, 2.4720380E-02
3656.373, 2.6973080E-02
3658.301, 2.7007280E-02
3660.230, 2.7783060E-02
3662.158, 2.5284359E-02
3664.087, 1.8755261E-02
3666.015, 2.0305820E-02
3667.944, 2.6854610E-02
3669.872, 2.8119709E-02
3671.801, 2.5833460E-02
3673.729, 2.3329221E-02
3675.657, 2.4567271E-02
3677.586, 2.3879061E-02
3679.514, 2.2135369E-02
3681.443, 2.2633860E-02
3683.371, 2.2277130E-02
3685.300, 2.1767210E-02
3687.228, 2.4116410E-02
3689.157, 2.4764249E-02
3691.085, 2.2287320E-02
3693.014, 2.1814389E-02
3694.942, 2.3000371E-02
3696.871, 2.3401851E-02
3698.799, 2.4591140E-02
3700.728, 2.5280830E-02
3702.656, 2.3740880E-02
3704.584, 2.0698490E-02
3706.513, 1.9891771E-02
3708.441, 2.1872010E-02
3710.370, 2.2158699E-02
3712.298, 2.0742210E-02
3714.227, 2.0213170E-02
3716.155, 2.0837970E-02
3718.084, 2.1193011E-02
3720.012, 2.1786829E-02
3721.941, 2.3601471E-02
3723.869, 2.2780949E-02
3725.798, 2.3421630E-02
3727.726, 2.6168689E-02
3729.655, 2.6238620E-02
3731.583, 2.6017601E-02
3733.511, 2.5628321E-02
3735.440, 2.5035471E-02
3737.368, 2.3643009E-02
3739.297, 2.4367791E-02
3741.225, 2.1980811E-02
3743.154, 2.4064239E-02
3745.082, 2.7297091E-02
3747.011, 2.5064230E-02
3748.939, 2.6597001E-02
3750.868, 2.7498379E-02
3752.796, 2.5774211E-02
3754.725, 2.2751059E-02
3756.653, 2.2686630E-02
3758.582, 2.2909939E-02
3760.510, 2.4578771E-02
3762.438, 2.5126910E-02
3764.367, 2.5146380E-02
3766.295, 2.3316929E-02
3768.224, 2.2614470E-02
3770.152, 2.5523510E-02
3772.081, 2.6123300E-02
3774.009, 2.6941890E-02
3775.938, 2.7405450E-02
3777.866, 2.5350830E-02
3779.795, 2.2895981E-02
3781.723, 2.2724580E-02
3783.652, 2.7159849E-02
3785.580, 2.9743349E-02
3787.509, 3.0307950E-02
3789.437, 2.7910629E-02
3791.365, 2.4671530E-02
3793.294, 2.4958409E-02
3795.222, 2.3861630E-02
3797.151, 2.0750830E-02
3799.079, 1.9166941E-02
3801.008, 2.0787980E-02
3802.936, 2.1798220E-02
3804.865, 2.3094000E-02
3806.793, 2.6359079E-02
3808.722, 2.5907431E-02
3810.650, 2.3837060E-02
3812.579, 2.3006950E-02
3814.507, 2.3153421E-02
3816.436, 2.3684811E-02
3818.364, 2.1218229E-02
3820.292, 2.2335520E-02
3822.221, 2.3176990E-02
3824.149, 2.1271041E-02
3826.078, 2.1763230E-02
3828.006, 2.1973919E-02
3829.935, 2.2901701E-02
3831.863, 2.5952769E-02
3833.792, 2.7157029E-02
3835.720, 2.7778219E-02
3837.649, 2.8377350E-02
3839.577, 2.8837981E-02
3841.506, 2.9820280E-02
3843.434, 2.9418619E-02
3845.363, 2.5881009E-02
3847.291, 2.2021070E-02
3849.219, 2.3375761E-02
3851.148, 2.6984410E-02
3853.076, 2.6354510E-02
3855.005, 2.5245139E-02
3856.933, 2.7589081E-02
3858.862, 2.8768450E-02
3860.790, 2.6927430E-02
3862.719, 2.6429171E-02
3864.647, 2.6553471E-02
3866.576, 2.7163990E-02
3868.504, 2.5898259E-02
3870.433, 2.5402021E-02
3872.361, 2.2723559E-02
3874.290, 2.1721059E-02
3876.218, 2.3702919E-02
3878.146, 2.4802851E-02
3880.075, 2.6342239E-02
3882.003, 2.5038339E-02
3883.932, 2.3796160E-02
3885.860, 2.7502701E-02
3887.789, 2.9697031E-02
3889.717, 2.7100500E-02
3891.646, 2.6096661E-02
3893.574, 2.7465239E-02
3895.503, 2.6734650E-02
3897.431, 2.6534580E-02
3899.360, 2.4204411E-02
3901.288, 2.4563380E-02
3903.217, 2.7802490E-02
3905.145, 2.7889751E-02
3907.073, 2.6386149E-02
3909.002, 2.4682781E-02
3910.930, 2.0782201E-02
3912.859, 2.3734750E-02
3914.787, 2.7604470E-02
3916.716, 2.6478561E-02
3918.644, 2.7838860E-02
3920.573, 2.7824439E-02
3922.501, 2.6172901E-02
3924.430, 2.1605730E-02
3926.358, 2.0607000E-02
3928.287, 2.2135470E-02
3930.215, 2.6998021E-02
3932.144, 3.0365121E-02
3934.072, 3.2518581E-02
3936.000, 3.3330109E-02
3937.929, 2.8813900E-02
3939.857, 2.6187170E-02
3941.786, 2.5520841E-02
3943.714, 2.7705910E-02
3945.643, 2.8549820E-02
3947.571, 2.5693320E-02
3949.500, 2.6372720E-02
3951.428, 2.7133230E-02
3953.357, 2.6376121E-02
3955.285, 2.7617119E-02
3957.214, 2.4570581E-02
3959.142, 2.3736831E-02
3961.071, 2.2649581E-02
3962.999, 2.0857651E-02
3964.927, 2.0590970E-02
3966.856, 2.1466751E-02
3968.784, 2.1097749E-02
3970.713, 2.0612620E-02
3972.641, 1.9682281E-02
3974.570, 2.4667259E-02
3976.498, 2.7519030E-02
3978.427, 2.6030770E-02
3980.355, 2.5562800E-02
3982.284, 2.7854851E-02
3984.212, 2.7144710E-02
3986.141, 2.7762640E-02
3988.069, 3.1336460E-02
3989.998, 3.1344611E-02
3991.926, 2.9930690E-02
3993.854, 2.6640670E-02
3995.783, 2.4717530E-02
3997.711, 2.2603560E-02
3999.640, 2.2614470E-02
##END=



