##NAMES=Beryl
##RRUFFID=R050065
##IDEAL CHEMISTRY=Be_3_Al_2_Si_6_O_18_
##LOCALITY=Xuebaoding, Sichuan Province, China
##OWNER=RRUFF
##SOURCE=Rock Currier
##DESCRIPTION=Light blue colored tabular single crystal
##STATUS=The identification of this mineral has been confirmed by X-ray diffraction and chemical analysis
##URL=rruff.info/R050065
##MEASURED CHEMISTRY=(Be_2.78_Li_0.22_)_Σ=3_Al_2.00_Si_6.00_O_18_·Na_0.22_
3.741225e+002, 1.753131e-001
3.760510e+002, 1.705012e-001
3.779795e+002, 1.645711e-001
3.799079e+002, 1.584486e-001
3.818364e+002, 1.565636e-001
3.837649e+002, 1.579579e-001
3.856933e+002, 1.566654e-001
3.876218e+002, 1.574592e-001
3.895503e+002, 1.605277e-001
3.914787e+002, 1.625100e-001
3.934072e+002, 1.644098e-001
3.953357e+002, 1.667072e-001
3.972641e+002, 1.730722e-001
3.991926e+002, 1.785049e-001
4.011211e+002, 1.832409e-001
4.030495e+002, 1.913698e-001
4.049780e+002, 1.968763e-001
4.069065e+002, 1.998303e-001
4.088349e+002, 2.030497e-001
4.107634e+002, 2.093235e-001
4.126919e+002, 2.156572e-001
4.146203e+002, 2.194791e-001
4.165488e+002, 2.227029e-001
4.184773e+002, 2.256060e-001
4.204057e+002, 2.259603e-001
4.223342e+002, 2.270337e-001
4.242627e+002, 2.316014e-001
4.261911e+002, 2.344256e-001
4.281196e+002, 2.349826e-001
4.300481e+002, 2.343300e-001
4.319765e+002, 2.342595e-001
4.339050e+002, 2.347368e-001
4.358335e+002, 2.310539e-001
4.377619e+002, 2.249343e-001
4.396904e+002, 2.205677e-001
4.416189e+002, 2.173384e-001
4.435473e+002, 2.122166e-001
4.454758e+002, 2.056142e-001
4.474043e+002, 2.008809e-001
4.493327e+002, 1.952193e-001
4.512612e+002, 1.880807e-001
4.531897e+002, 1.823246e-001
4.551181e+002, 1.770867e-001
4.570466e+002, 1.725475e-001
4.589751e+002, 1.682448e-001
4.609035e+002, 1.638792e-001
4.628320e+002, 1.620316e-001
4.647605e+002, 1.614748e-001
4.666889e+002, 1.615621e-001
4.686174e+002, 1.624675e-001
4.705459e+002, 1.652208e-001
4.724743e+002, 1.696799e-001
4.744028e+002, 1.737974e-001
4.763313e+002, 1.775226e-001
4.782597e+002, 1.814633e-001
4.801882e+002, 1.860774e-001
4.821167e+002, 1.901244e-001
4.840451e+002, 1.937090e-001
4.859736e+002, 1.968569e-001
4.879021e+002, 1.996073e-001
4.898305e+002, 2.025378e-001
4.917590e+002, 2.035535e-001
4.936875e+002, 2.011749e-001
4.956159e+002, 1.968663e-001
4.975444e+002, 1.905667e-001
4.994729e+002, 1.823195e-001
5.014013e+002, 1.738486e-001
5.033298e+002, 1.668549e-001
5.052583e+002, 1.640614e-001
5.071867e+002, 1.672066e-001
5.091152e+002, 1.740318e-001
5.110437e+002, 1.819850e-001
5.129721e+002, 1.894661e-001
5.149006e+002, 1.948051e-001
5.168290e+002, 1.983196e-001
5.187575e+002, 1.991058e-001
5.206860e+002, 1.974927e-001
5.226144e+002, 1.944499e-001
5.245429e+002, 1.896020e-001
5.264714e+002, 1.839095e-001
5.283998e+002, 1.775280e-001
5.303283e+002, 1.700368e-001
5.322568e+002, 1.614250e-001
5.341852e+002, 1.526971e-001
5.361137e+002, 1.435100e-001
5.380422e+002, 1.347029e-001
5.399706e+002, 1.269031e-001
5.418991e+002, 1.198557e-001
5.438276e+002, 1.132767e-001
5.457560e+002, 1.064359e-001
5.476845e+002, 9.988030e-002
5.496130e+002, 9.420329e-002
5.515414e+002, 8.936018e-002
5.534699e+002, 8.536535e-002
5.553984e+002, 8.234314e-002
5.573268e+002, 8.073184e-002
5.592553e+002, 7.996396e-002
5.611838e+002, 7.990203e-002
5.631122e+002, 8.037759e-002
5.650407e+002, 8.073145e-002
5.669692e+002, 8.039343e-002
5.688976e+002, 7.895769e-002
5.708261e+002, 7.644293e-002
5.727546e+002, 7.350487e-002
5.746830e+002, 7.123423e-002
5.766115e+002, 6.981204e-002
5.785400e+002, 7.037131e-002
5.804684e+002, 7.352847e-002
5.823969e+002, 7.970087e-002
5.843254e+002, 8.779681e-002
5.862538e+002, 9.624726e-002
5.881823e+002, 1.035161e-001
5.901108e+002, 1.082970e-001
5.920392e+002, 1.102191e-001
5.939677e+002, 1.095339e-001
5.958962e+002, 1.068095e-001
5.978246e+002, 1.028583e-001
5.997531e+002, 9.786409e-002
6.016816e+002, 9.171383e-002
6.036100e+002, 8.513239e-002
6.055385e+002, 7.868873e-002
6.074670e+002, 7.215132e-002
6.093954e+002, 6.601434e-002
6.113239e+002, 6.048231e-002
6.132524e+002, 5.578504e-002
6.151808e+002, 5.235967e-002
6.171093e+002, 5.029173e-002
6.190378e+002, 4.923885e-002
6.209662e+002, 4.893749e-002
6.228947e+002, 4.912563e-002
6.248232e+002, 4.970217e-002
6.267516e+002, 5.080297e-002
6.286801e+002, 5.243897e-002
6.306086e+002, 5.463808e-002
6.325370e+002, 5.766719e-002
6.344655e+002, 6.155071e-002
6.363940e+002, 6.646886e-002
6.383224e+002, 7.265513e-002
6.402509e+002, 7.975605e-002
6.421794e+002, 8.742739e-002
6.441078e+002, 9.522566e-002
6.460363e+002, 1.021949e-001
6.479648e+002, 1.071061e-001
6.498932e+002, 1.091499e-001
6.518217e+002, 1.086229e-001
6.537502e+002, 1.068648e-001
6.556786e+002, 1.061464e-001
6.576071e+002, 1.081093e-001
6.595356e+002, 1.131683e-001
6.614641e+002, 1.210165e-001
6.633925e+002, 1.302423e-001
6.653210e+002, 1.393280e-001
6.672495e+002, 1.474124e-001
6.691779e+002, 1.538346e-001
6.711064e+002, 1.583088e-001
6.730349e+002, 1.612379e-001
6.749633e+002, 1.623427e-001
6.768918e+002, 1.614236e-001
6.788203e+002, 1.585890e-001
6.807487e+002, 1.539055e-001
6.826772e+002, 1.483068e-001
6.846057e+002, 1.424149e-001
6.865341e+002, 1.364538e-001
6.884626e+002, 1.310089e-001
6.903911e+002, 1.261020e-001
6.923195e+002, 1.216857e-001
6.942480e+002, 1.175307e-001
6.961765e+002, 1.132965e-001
6.981049e+002, 1.089731e-001
7.000334e+002, 1.046787e-001
7.019619e+002, 1.002403e-001
7.038903e+002, 9.584023e-002
7.058188e+002, 9.186672e-002
7.077473e+002, 8.854458e-002
7.096757e+002, 8.581980e-002
7.116042e+002, 8.408981e-002
7.135327e+002, 8.315752e-002
7.154611e+002, 8.305852e-002
7.173896e+002, 8.384333e-002
7.193181e+002, 8.523239e-002
7.212465e+002, 8.728503e-002
7.231750e+002, 8.988728e-002
7.251035e+002, 9.295606e-002
7.270319e+002, 9.630124e-002
7.289604e+002, 9.981395e-002
7.308889e+002, 1.032103e-001
7.328173e+002, 1.061514e-001
7.347458e+002, 1.086975e-001
7.366743e+002, 1.105667e-001
7.386027e+002, 1.118406e-001
7.405312e+002, 1.126593e-001
7.424597e+002, 1.128599e-001
7.443881e+002, 1.124237e-001
7.463166e+002, 1.111517e-001
7.482451e+002, 1.089749e-001
7.501735e+002, 1.061451e-001
7.521020e+002, 1.028154e-001
7.540305e+002, 9.907891e-002
7.559589e+002, 9.504445e-002
7.578874e+002, 9.091802e-002
7.598159e+002, 8.659844e-002
7.617443e+002, 8.226517e-002
7.636728e+002, 7.834235e-002
7.656013e+002, 7.520235e-002
7.675297e+002, 7.310040e-002
7.694582e+002, 7.178146e-002
7.713867e+002, 7.116108e-002
7.733151e+002, 7.137239e-002
7.752436e+002, 7.238767e-002
7.771721e+002, 7.407308e-002
7.791005e+002, 7.638013e-002
7.810290e+002, 7.935703e-002
7.829575e+002, 8.303811e-002
7.848859e+002, 8.705156e-002
7.868144e+002, 9.154433e-002
7.887429e+002, 9.682619e-002
7.906713e+002, 1.028907e-001
7.925998e+002, 1.093660e-001
7.945283e+002, 1.160876e-001
7.964567e+002, 1.222237e-001
7.983852e+002, 1.268599e-001
8.003137e+002, 1.300579e-001
8.022421e+002, 1.324160e-001
8.041706e+002, 1.341123e-001
8.060991e+002, 1.352245e-001
8.080275e+002, 1.357844e-001
8.099560e+002, 1.357346e-001
8.118845e+002, 1.349427e-001
8.138129e+002, 1.335939e-001
8.157414e+002, 1.319302e-001
8.176699e+002, 1.298424e-001
8.195983e+002, 1.273454e-001
8.215268e+002, 1.243227e-001
8.234553e+002, 1.208903e-001
8.253837e+002, 1.171176e-001
8.273122e+002, 1.129171e-001
8.292407e+002, 1.086211e-001
8.311691e+002, 1.041915e-001
8.330976e+002, 9.969991e-002
8.350261e+002, 9.544683e-002
8.369545e+002, 9.144911e-002
8.388830e+002, 8.776883e-002
8.408115e+002, 8.439283e-002
8.427399e+002, 8.136293e-002
8.446684e+002, 7.862819e-002
8.465969e+002, 7.619408e-002
8.485253e+002, 7.426602e-002
8.504538e+002, 7.288466e-002
8.523823e+002, 7.195470e-002
8.543107e+002, 7.144488e-002
8.562392e+002, 7.143503e-002
8.581677e+002, 7.199036e-002
8.600961e+002, 7.292118e-002
8.620246e+002, 7.428166e-002
8.639531e+002, 7.602321e-002
8.658815e+002, 7.819584e-002
8.678100e+002, 8.080178e-002
8.697385e+002, 8.365932e-002
8.716669e+002, 8.696266e-002
8.735954e+002, 9.077264e-002
8.755239e+002, 9.493874e-002
8.774523e+002, 9.914301e-002
8.793808e+002, 1.035605e-001
8.813093e+002, 1.084351e-001
8.832377e+002, 1.134123e-001
8.851662e+002, 1.183198e-001
8.870947e+002, 1.234156e-001
8.890231e+002, 1.285764e-001
8.909516e+002, 1.338880e-001
8.928801e+002, 1.393828e-001
8.948085e+002, 1.446339e-001
8.967370e+002, 1.498169e-001
8.986655e+002, 1.551434e-001
9.005939e+002, 1.605248e-001
9.025224e+002, 1.658334e-001
9.044509e+002, 1.708477e-001
9.063793e+002, 1.758198e-001
9.083078e+002, 1.808023e-001
9.102363e+002, 1.858119e-001
9.121647e+002, 1.907607e-001
9.140932e+002, 1.955328e-001
9.160217e+002, 1.999723e-001
9.179501e+002, 2.042868e-001
9.198786e+002, 2.086406e-001
9.218071e+002, 2.126250e-001
9.237355e+002, 2.163857e-001
9.256640e+002, 2.199778e-001
9.275925e+002, 2.232787e-001
9.295209e+002, 2.263388e-001
9.314494e+002, 2.289781e-001
9.333779e+002, 2.312627e-001
9.353063e+002, 2.331058e-001
9.372348e+002, 2.347768e-001
9.391633e+002, 2.361602e-001
9.410917e+002, 2.372727e-001
9.430202e+002, 2.378866e-001
9.449487e+002, 2.381061e-001
9.468771e+002, 2.378838e-001
9.488056e+002, 2.370597e-001
9.507341e+002, 2.355091e-001
9.526625e+002, 2.330277e-001
9.545910e+002, 2.295329e-001
9.565195e+002, 2.248025e-001
9.584479e+002, 2.192347e-001
9.603764e+002, 2.126535e-001
9.623049e+002, 2.051692e-001
9.642333e+002, 1.973797e-001
9.661618e+002, 1.892979e-001
9.680903e+002, 1.810940e-001
9.700187e+002, 1.732141e-001
9.719472e+002, 1.655531e-001
9.738757e+002, 1.580556e-001
9.758041e+002, 1.508774e-001
9.777326e+002, 1.439766e-001
9.796611e+002, 1.373522e-001
9.815895e+002, 1.309394e-001
9.835180e+002, 1.248166e-001
9.854465e+002, 1.190323e-001
9.873749e+002, 1.136583e-001
9.893034e+002, 1.092350e-001
9.912319e+002, 1.057520e-001
9.931603e+002, 1.032700e-001
9.950888e+002, 1.019366e-001
9.970173e+002, 1.016504e-001
9.989457e+002, 1.021795e-001
1.000874e+003, 1.033811e-001
1.002803e+003, 1.048784e-001
1.004731e+003, 1.065373e-001
1.006660e+003, 1.082022e-001
1.008588e+003, 1.096501e-001
1.010517e+003, 1.106904e-001
1.012445e+003, 1.113689e-001
1.014373e+003, 1.116882e-001
1.016302e+003, 1.117457e-001
1.018230e+003, 1.116258e-001
1.020159e+003, 1.114504e-001
1.022087e+003, 1.112039e-001
1.024016e+003, 1.109360e-001
1.025944e+003, 1.106063e-001
1.027873e+003, 1.102116e-001
1.029801e+003, 1.096805e-001
1.031730e+003, 1.091565e-001
1.033658e+003, 1.084128e-001
1.035587e+003, 1.074768e-001
1.037515e+003, 1.065943e-001
1.039443e+003, 1.059525e-001
1.041372e+003, 1.054246e-001
1.043300e+003, 1.049696e-001
1.045229e+003, 1.045415e-001
1.047157e+003, 1.046136e-001
1.049086e+003, 1.049806e-001
1.051014e+003, 1.053223e-001
1.052943e+003, 1.057622e-001
1.054871e+003, 1.060226e-001
1.056800e+003, 1.061409e-001
1.058728e+003, 1.060139e-001
1.060657e+003, 1.052739e-001
1.062585e+003, 1.040810e-001
1.064514e+003, 1.027598e-001
1.066442e+003, 1.009684e-001
1.068370e+003, 9.840865e-002
1.070299e+003, 9.567845e-002
1.072227e+003, 9.270433e-002
1.074156e+003, 8.951122e-002
1.076084e+003, 8.637090e-002
1.078013e+003, 8.318076e-002
1.079941e+003, 7.997170e-002
1.081870e+003, 7.684606e-002
1.083798e+003, 7.364447e-002
1.085727e+003, 7.062621e-002
1.087655e+003, 6.791703e-002
1.089584e+003, 6.540152e-002
1.091512e+003, 6.298365e-002
1.093441e+003, 6.077796e-002
1.095369e+003, 5.920822e-002
1.097297e+003, 5.807799e-002
1.099226e+003, 5.719223e-002
1.101154e+003, 5.658139e-002
1.103083e+003, 5.637230e-002
1.105011e+003, 5.682160e-002
1.106940e+003, 5.763555e-002
1.108868e+003, 5.854397e-002
1.110797e+003, 5.987099e-002
1.112725e+003, 6.185872e-002
1.114654e+003, 6.430535e-002
1.116582e+003, 6.714059e-002
1.118511e+003, 7.036824e-002
1.120439e+003, 7.392689e-002
1.122368e+003, 7.787141e-002
1.124296e+003, 8.194958e-002
1.126224e+003, 8.597710e-002
1.128153e+003, 8.986557e-002
1.130081e+003, 9.373873e-002
1.132010e+003, 9.736244e-002
1.133938e+003, 1.001522e-001
1.135867e+003, 1.022391e-001
1.137795e+003, 1.038959e-001
1.139724e+003, 1.050259e-001
1.141652e+003, 1.057238e-001
1.143581e+003, 1.061406e-001
1.145509e+003, 1.062527e-001
1.147438e+003, 1.062925e-001
1.149366e+003, 1.064951e-001
1.151295e+003, 1.066697e-001
1.153223e+003, 1.069290e-001
1.155151e+003, 1.075886e-001
1.157080e+003, 1.085375e-001
1.159008e+003, 1.096729e-001
1.160937e+003, 1.109435e-001
1.162865e+003, 1.122928e-001
1.164794e+003, 1.135624e-001
1.166722e+003, 1.148993e-001
1.168651e+003, 1.160414e-001
1.170579e+003, 1.168886e-001
1.172508e+003, 1.174313e-001
1.174436e+003, 1.175399e-001
1.176365e+003, 1.173036e-001
1.178293e+003, 1.166948e-001
1.180222e+003, 1.157040e-001
1.182150e+003, 1.144518e-001
1.184078e+003, 1.129795e-001
1.186007e+003, 1.114933e-001
1.187935e+003, 1.097473e-001
1.189864e+003, 1.077932e-001
1.191792e+003, 1.056422e-001
1.193721e+003, 1.034014e-001
1.195649e+003, 1.008032e-001
1.197578e+003, 9.771834e-002
1.199506e+003, 9.450258e-002
1.201435e+003, 9.124701e-002
1.203363e+003, 8.773114e-002
1.205292e+003, 8.418922e-002
1.207220e+003, 8.087897e-002
1.209149e+003, 7.776569e-002
1.211077e+003, 7.483032e-002
1.213005e+003, 7.183232e-002
1.214934e+003, 6.875100e-002
1.216862e+003, 6.586803e-002
1.218791e+003, 6.305472e-002
1.220719e+003, 6.025933e-002
1.222648e+003, 5.742578e-002
1.224576e+003, 5.467515e-002
1.226505e+003, 5.208734e-002
1.228433e+003, 4.953344e-002
1.230362e+003, 4.710194e-002
1.232290e+003, 4.476342e-002
1.234219e+003, 4.244743e-002
1.236147e+003, 4.014663e-002
1.238076e+003, 3.791457e-002
1.240004e+003, 3.583336e-002
1.241932e+003, 3.389185e-002
1.243861e+003, 3.205265e-002
1.245789e+003, 3.017868e-002
1.247718e+003, 2.838441e-002
1.249646e+003, 2.668442e-002
1.251575e+003, 2.499706e-002
1.253503e+003, 2.329434e-002
1.255432e+003, 2.162311e-002
1.257360e+003, 1.995634e-002
1.259289e+003, 1.828109e-002
1.261217e+003, 1.664410e-002
1.263146e+003, 1.510058e-002
1.265074e+003, 1.359457e-002
1.267003e+003, 1.207167e-002
1.268931e+003, 1.066205e-002
1.270859e+003, 9.345749e-003
1.272788e+003, 8.062552e-003
1.274716e+003, 6.946988e-003
1.276645e+003, 6.061787e-003
1.278573e+003, 5.366622e-003
1.280502e+003, 4.738686e-003
1.282430e+003, 4.206185e-003
1.284359e+003, 3.840484e-003
1.286287e+003, 3.483392e-003
1.288216e+003, 3.184380e-003
1.290144e+003, 2.896614e-003
1.292073e+003, 2.727402e-003
1.294001e+003, 2.563888e-003
1.295930e+003, 2.347791e-003
1.297858e+003, 2.137904e-003
1.299786e+003, 1.999160e-003
1.301715e+003, 1.987785e-003
1.303643e+003, 1.958943e-003
1.305572e+003, 1.747603e-003
1.307500e+003, 1.661615e-003
1.309429e+003, 1.574593e-003
1.311357e+003, 1.435705e-003
1.313286e+003, 1.434879e-003
1.315214e+003, 1.478389e-003
1.317143e+003, 1.333241e-003
1.319071e+003, 1.138517e-003
1.321000e+003, 9.960746e-004
1.322928e+003, 1.003794e-003
1.324857e+003, 9.873009e-004
1.326785e+003, 9.744548e-004
1.328714e+003, 9.532821e-004
1.330642e+003, 8.423611e-004
1.332570e+003, 8.765092e-004
1.334499e+003, 9.298422e-004
1.336427e+003, 7.194788e-004
1.338356e+003, 6.902228e-004
1.340284e+003, 7.322439e-004
1.342213e+003, 5.967788e-004
1.344141e+003, 4.987040e-004
1.346070e+003, 3.936256e-004
1.347998e+003, 3.952953e-004
1.349927e+003, 4.171990e-004
1.351855e+003, 2.749916e-004
1.353784e+003, 2.004788e-004
1.355712e+003, 2.193540e-004
1.357641e+003, 2.338303e-004
1.359569e+003, 2.450574e-004
1.361497e+003, 2.809575e-004
1.363426e+003, 2.817065e-004
1.365354e+003, 1.915786e-004
1.367283e+003, 1.014379e-004
1.369211e+003, 7.543579e-005
1.371140e+003, 1.066543e-004
1.373068e+003, 1.504330e-004
1.374997e+003, 4.975170e-005
1.376925e+003, -4.261909e-005
1.378854e+003, -5.744590e-005
1.380782e+003, -7.473796e-005
1.382711e+003, -2.940809e-005
1.384639e+003, -8.923326e-005
1.386568e+003, -1.404438e-004
1.388496e+003, -1.325067e-004
1.390424e+003, -5.996957e-005
1.392353e+003, 3.968943e-006
1.394281e+003, 4.439037e-005
1.396210e+003, -1.256472e-004
1.398138e+003, -1.637160e-004
1.400067e+003, -8.742375e-005
1.401995e+003, -1.681026e-005
1.403924e+003, 4.195506e-005
1.405852e+003, -2.316209e-005
1.407781e+003, -1.960966e-005
1.409709e+003, -4.579903e-005
1.411638e+003, -1.456209e-004
1.413566e+003, -1.525227e-004
1.415495e+003, -9.975125e-005
1.417423e+003, 3.431998e-005
1.419351e+003, 1.413640e-004
1.421280e+003, -1.834301e-005
1.423208e+003, -5.553063e-005
1.425137e+003, 4.349881e-005
1.427065e+003, 6.251172e-005
1.428994e+003, 5.359355e-005
1.430922e+003, -9.501920e-005
1.432851e+003, -1.848609e-004
1.434779e+003, 7.918024e-005
1.436708e+003, 2.912256e-004
1.438636e+003, 1.110361e-004
1.440565e+003, -4.629234e-005
1.442493e+003, -5.868917e-005
1.444422e+003, -1.463417e-004
1.446350e+003, -1.287663e-004
1.448278e+003, -5.908459e-005
1.450207e+003, -1.316669e-004
1.452135e+003, -1.963987e-004
1.454064e+003, -1.120352e-004
1.455992e+003, 1.628513e-004
1.457921e+003, 1.336840e-004
1.459849e+003, -1.447025e-004
1.461778e+003, -3.804784e-004
1.463706e+003, -3.539885e-004
1.465635e+003, -2.528187e-004
1.467563e+003, -4.289873e-004
1.469492e+003, -5.713237e-004
1.471420e+003, -4.331437e-004
1.473349e+003, -3.131595e-004
1.475277e+003, -4.219257e-004
1.477205e+003, -4.961917e-004
1.479134e+003, -5.919854e-004
1.481062e+003, -6.463933e-004
1.482991e+003, -7.079552e-004
1.484919e+003, -7.024420e-004
1.486848e+003, -6.503045e-004
1.488776e+003, -6.049246e-004
1.490705e+003, -6.453852e-004
1.492633e+003, -8.070210e-004
1.494562e+003, -8.089058e-004
1.496490e+003, -5.820095e-004
1.498419e+003, -5.185729e-004
1.500347e+003, -6.109296e-004
1.502276e+003, -8.044866e-004
1.504204e+003, -7.104368e-004
1.506132e+003, -4.026585e-004
1.508061e+003, -5.319531e-004
1.509989e+003, -7.323159e-004
1.511918e+003, -7.073305e-004
1.513846e+003, -8.536716e-004
1.515775e+003, -8.740695e-004
1.517703e+003, -7.584594e-004
1.519632e+003, -6.332761e-004
1.521560e+003, -5.517298e-004
1.523489e+003, -6.707418e-004
1.525417e+003, -6.407392e-004
1.527346e+003, -7.327477e-004
1.529274e+003, -7.414159e-004
1.531203e+003, -7.432619e-004
1.533131e+003, -7.232909e-004
1.535059e+003, -6.619629e-004
1.536988e+003, -4.173251e-004
1.538916e+003, 1.405285e-004
1.540845e+003, 2.105663e-004
1.542773e+003, -3.564313e-005
1.544702e+003, -8.071672e-005
1.546630e+003, -1.495795e-004
1.548559e+003, -1.854708e-004
1.550487e+003, -1.380878e-004
1.552416e+003, -1.498278e-004
1.554344e+003, -1.035146e-004
1.556273e+003, -4.403763e-005
1.558201e+003, 3.378920e-004
1.560130e+003, 2.905224e-004
1.562058e+003, -1.713426e-004
1.563986e+003, -3.502629e-004
1.565915e+003, -4.027544e-004
1.567843e+003, -2.018289e-004
1.569772e+003, -1.088368e-004
1.571700e+003, -3.104394e-004
1.573629e+003, -2.925801e-004
1.575557e+003, -1.412375e-005
1.577486e+003, -4.147179e-005
1.579414e+003, -1.643223e-004
1.581343e+003, -6.110650e-005
1.583271e+003, -1.033489e-004
1.585200e+003, -1.963638e-004
1.587128e+003, -1.814568e-004
1.589057e+003, -1.091390e-004
1.590985e+003, 6.384445e-005
1.592913e+003, 3.222469e-004
1.594842e+003, 4.639718e-004
1.596770e+003, 7.347555e-004
1.598699e+003, 1.052344e-003
1.600627e+003, 1.204961e-003
1.602556e+003, 1.070684e-003
1.604484e+003, 8.355610e-004
1.606413e+003, 6.884936e-004
1.608341e+003, 6.860726e-004
1.610270e+003, 8.466589e-004
1.612198e+003, 1.218092e-003
1.614127e+003, 1.858140e-003
1.616055e+003, 3.065617e-003
1.617984e+003, 4.598997e-003
1.619912e+003, 6.872750e-003
1.621840e+003, 9.245653e-003
1.623769e+003, 1.039448e-002
1.625697e+003, 1.016640e-002
1.627626e+003, 9.453801e-003
1.629554e+003, 8.814031e-003
1.631483e+003, 8.026781e-003
1.633411e+003, 7.010800e-003
1.635340e+003, 5.678488e-003
1.637268e+003, 3.845264e-003
1.639197e+003, 2.253078e-003
1.641125e+003, 1.309664e-003
1.643054e+003, 7.600142e-004
1.644982e+003, 5.780449e-004
1.646911e+003, 3.673577e-004
1.648839e+003, -2.646840e-005
1.650767e+003, 1.462540e-004
1.652696e+003, 6.546708e-004
1.654624e+003, 2.574392e-004
1.656553e+003, -1.436775e-004
1.658481e+003, -1.624053e-004
1.660410e+003, -1.902508e-004
1.662338e+003, -1.865526e-004
1.664267e+003, -3.163563e-004
1.666195e+003, -5.480038e-004
1.668124e+003, -4.635748e-004
1.670052e+003, -2.350686e-004
1.671981e+003, -3.564935e-004
1.673909e+003, -4.338906e-004
1.675838e+003, -3.894844e-004
1.677766e+003, -5.903585e-004
1.679694e+003, -5.766234e-004
1.681623e+003, -3.290407e-004
1.683551e+003, 1.921439e-005
1.685480e+003, -9.461737e-005
1.687408e+003, -4.678836e-004
1.689337e+003, -5.512472e-004
1.691265e+003, -6.389897e-004
1.693194e+003, -6.441352e-004
1.695122e+003, -2.685040e-004
1.697051e+003, -1.781269e-004
1.698979e+003, -1.449991e-004
1.700908e+003, -1.234018e-004
1.702836e+003, -4.208174e-004
1.704765e+003, -4.331934e-004
1.706693e+003, -4.917111e-004
1.708621e+003, -5.647289e-004
1.710550e+003, -6.819539e-004
1.712478e+003, -6.774381e-004
1.714407e+003, -5.907836e-004
1.716335e+003, -3.428476e-004
1.718264e+003, -3.406023e-004
1.720192e+003, -8.017207e-004
1.722121e+003, -9.173987e-004
1.724049e+003, -8.745939e-004
1.725978e+003, -9.322212e-004
1.727906e+003, -7.903979e-004
1.729835e+003, -7.673905e-004
1.731763e+003, -7.955168e-004
1.733692e+003, -6.837376e-004
1.735620e+003, -8.678072e-004
1.737548e+003, -1.145945e-003
1.739477e+003, -1.266605e-003
1.741405e+003, -1.463416e-003
1.743334e+003, -1.676056e-003
1.745262e+003, -1.761785e-003
1.747191e+003, -1.668355e-003
1.749119e+003, -1.524679e-003
1.751048e+003, -1.562591e-003
1.752976e+003, -1.654541e-003
1.754905e+003, -1.448140e-003
1.756833e+003, -1.176946e-003
1.758762e+003, -1.405168e-003
1.760690e+003, -1.548939e-003
1.762619e+003, -1.370680e-003
1.764547e+003, -1.360667e-003
1.766475e+003, -1.421556e-003
1.768404e+003, -1.420109e-003
1.770332e+003, -1.336331e-003
1.772261e+003, -1.227850e-003
1.774189e+003, -1.325126e-003
1.776118e+003, -1.487626e-003
1.778046e+003, -1.567014e-003
1.779975e+003, -1.565342e-003
1.781903e+003, -1.572855e-003
1.783832e+003, -1.353963e-003
1.785760e+003, -1.211158e-003
1.787689e+003, -1.484512e-003
1.789617e+003, -1.489234e-003
1.791546e+003, -1.378777e-003
1.793474e+003, -1.441993e-003
1.795402e+003, -1.436935e-003
1.797331e+003, -1.448329e-003
1.799259e+003, -1.500325e-003
1.801188e+003, -1.567082e-003
1.803116e+003, -1.604755e-003
1.805045e+003, -1.593979e-003
1.806973e+003, -1.611318e-003
1.808902e+003, -1.637962e-003
1.810830e+003, -1.707585e-003
1.812759e+003, -1.621698e-003
1.814687e+003, -1.794822e-003
1.816616e+003, -2.152574e-003
1.818544e+003, -2.032305e-003
1.820473e+003, -1.782493e-003
1.822401e+003, -1.914426e-003
1.824329e+003, -1.855526e-003
1.826258e+003, -1.902926e-003
1.828186e+003, -1.833006e-003
1.830115e+003, -1.730916e-003
1.832043e+003, -1.896184e-003
1.833972e+003, -2.171100e-003
1.835900e+003, -2.263081e-003
1.837829e+003, -2.030350e-003
1.839757e+003, -1.850455e-003
1.841686e+003, -1.928113e-003
1.843614e+003, -1.973194e-003
1.845543e+003, -1.973652e-003
1.847471e+003, -2.131147e-003
1.849400e+003, -2.449011e-003
1.851328e+003, -2.339195e-003
1.853256e+003, -2.300526e-003
1.855185e+003, -2.215432e-003
1.857113e+003, -1.997877e-003
1.859042e+003, -1.948377e-003
1.860970e+003, -2.181939e-003
1.862899e+003, -2.461946e-003
1.864827e+003, -2.509380e-003
1.866756e+003, -2.106057e-003
1.868684e+003, -1.934663e-003
1.870613e+003, -2.131513e-003
1.872541e+003, -2.321108e-003
1.874470e+003, -2.555873e-003
1.876398e+003, -2.633193e-003
1.878327e+003, -2.358166e-003
1.880255e+003, -2.255843e-003
1.882183e+003, -2.666797e-003
1.884112e+003, -2.944579e-003
1.886040e+003, -2.619850e-003
1.887969e+003, -2.483911e-003
1.889897e+003, -2.647909e-003
1.891826e+003, -2.668937e-003
1.893754e+003, -2.541469e-003
1.895683e+003, -2.319396e-003
1.897611e+003, -2.230862e-003
1.899540e+003, -2.218734e-003
1.901468e+003, -2.044110e-003
1.903397e+003, -2.171584e-003
1.905325e+003, -2.523482e-003
1.907254e+003, -2.583918e-003
1.909182e+003, -2.562168e-003
1.911110e+003, -2.498207e-003
1.913039e+003, -2.254842e-003
1.914967e+003, -1.947253e-003
1.916896e+003, -2.082742e-003
1.918824e+003, -2.182785e-003
1.920753e+003, -2.180703e-003
1.922681e+003, -2.520631e-003
1.924610e+003, -2.844026e-003
1.926538e+003, -2.299244e-003
1.928467e+003, -2.174750e-003
1.930395e+003, -2.280526e-003
1.932324e+003, -2.407800e-003
1.934252e+003, -2.875248e-003
1.936181e+003, -3.225786e-003
1.938109e+003, -3.039877e-003
1.940037e+003, -2.403435e-003
1.941966e+003, -2.434860e-003
1.943894e+003, -2.626046e-003
1.945823e+003, -2.954947e-003
1.947751e+003, -2.707365e-003
1.949680e+003, -2.383083e-003
1.951608e+003, -2.167186e-003
1.953537e+003, -2.925440e-003
1.955465e+003, -4.253156e-003
1.957394e+003, -3.952544e-003
1.959322e+003, -3.255425e-003
1.961251e+003, -2.330301e-003
1.963179e+003, -2.024807e-003
1.965108e+003, -2.501594e-003
1.967036e+003, -2.907330e-003
1.968964e+003, -3.243924e-003
1.970893e+003, -3.208873e-003
1.972821e+003, -3.263944e-003
1.974750e+003, -3.305427e-003
1.976678e+003, -2.723942e-003
1.978607e+003, -6.369216e-004
1.980535e+003, -1.739586e-004
1.982464e+003, -8.456943e-004
1.984392e+003, -1.425065e-003
1.986321e+003, -1.378060e-003
1.988249e+003, -9.870782e-004
1.990178e+003, -1.028612e-003
1.992106e+003, -6.970832e-004
1.994035e+003, -8.739457e-004
1.995963e+003, -1.348665e-003
1.997891e+003, -1.721495e-003
1.999820e+003, -2.886131e-003
2.001748e+003, -3.636429e-003
2.003677e+003, -3.603233e-003
2.005605e+003, -2.953654e-003
2.007534e+003, -2.406129e-003
2.009462e+003, -1.582026e-003
2.011391e+003, -1.358998e-003
2.013319e+003, -1.988187e-003
2.015248e+003, -2.637439e-003
2.017176e+003, -2.802175e-003
2.019105e+003, -3.046225e-003
2.021033e+003, -3.529341e-003
2.022962e+003, -2.892820e-003
2.024890e+003, -2.458041e-003
2.026818e+003, -3.073956e-003
2.028747e+003, -2.367648e-003
2.030675e+003, -1.082832e-003
2.032604e+003, 2.704636e-004
2.034532e+003, 7.464291e-004
2.036461e+003, -1.401149e-004
2.038389e+003, -3.095235e-004
2.040318e+003, -2.364346e-004
2.042246e+003, -9.427150e-004
2.044175e+003, -1.545916e-003
2.046103e+003, -1.056797e-003
2.048031e+003, -7.049064e-005
2.049960e+003, 1.988429e-004
2.051888e+003, -5.750539e-004
2.053817e+003, -1.260554e-003
2.055745e+003, -1.017890e-003
2.057674e+003, -1.012334e-003
2.059602e+003, -8.416090e-004
2.061531e+003, -9.704028e-004
2.063459e+003, -1.540921e-003
2.065388e+003, -1.491172e-003
2.067316e+003, -1.489020e-003
2.069245e+003, -1.263975e-003
2.071173e+003, -7.445003e-004
2.073102e+003, -5.844521e-004
2.075030e+003, -5.051803e-004
2.076958e+003, -7.193774e-004
2.078887e+003, -7.980948e-004
2.080815e+003, -5.578445e-004
2.082744e+003, -6.572661e-004
2.084672e+003, -6.341963e-004
2.086601e+003, -6.177852e-004
2.088529e+003, -7.998577e-004
2.090458e+003, -6.727175e-004
2.092386e+003, -9.820231e-004
2.094315e+003, -1.541282e-003
2.096243e+003, -1.048344e-003
2.098172e+003, -5.303432e-004
2.100100e+003, -9.287804e-004
2.102029e+003, -1.015850e-003
2.103957e+003, -6.076277e-004
2.105885e+003, -3.106040e-004
2.107814e+003, -6.696907e-004
2.109742e+003, -5.362903e-004
2.111671e+003, -7.571342e-004
2.113599e+003, -1.110835e-003
2.115528e+003, -1.162966e-003
2.117456e+003, -1.203039e-003
2.119385e+003, -1.482996e-003
2.121313e+003, -1.951886e-003
2.123242e+003, -1.944004e-003
2.125170e+003, -1.280501e-003
2.127099e+003, -1.276347e-003
2.129027e+003, -1.671571e-003
2.130956e+003, -2.300624e-003
2.132884e+003, -2.734621e-003
2.134813e+003, -2.924164e-003
2.136741e+003, -3.032612e-003
2.138669e+003, -2.801804e-003
2.140598e+003, -2.489618e-003
2.142526e+003, -2.075879e-003
2.144455e+003, -2.249292e-003
2.146383e+003, -2.619310e-003
2.148312e+003, -2.302413e-003
2.150240e+003, -2.911679e-003
2.152169e+003, -3.470801e-003
2.154097e+003, -3.733567e-003
2.156026e+003, -3.607195e-003
2.157954e+003, -2.062410e-003
2.159883e+003, 4.900869e-004
2.161811e+003, 1.728144e-003
2.163740e+003, 1.465676e-003
2.165668e+003, 9.410846e-004
2.167596e+003, 5.927775e-004
2.169525e+003, 1.740110e-004
2.171453e+003, -8.138956e-005
2.173382e+003, -4.234803e-004
2.175310e+003, -8.225341e-004
2.177239e+003, -6.657612e-004
2.179167e+003, -3.059207e-004
2.181096e+003, -1.632040e-004
2.183024e+003, 2.380825e-004
2.184953e+003, 2.585459e-004
2.186881e+003, 1.095888e-003
2.188810e+003, 1.354156e-003
2.190738e+003, 6.350451e-004
2.192667e+003, 4.137947e-004
2.194595e+003, 4.797000e-004
2.196523e+003, 3.842827e-004
2.198452e+003, 2.685845e-004
2.200380e+003, 5.224635e-004
2.202309e+003, 4.110031e-005
2.204237e+003, -4.599675e-004
2.206166e+003, 4.122993e-004
2.208094e+003, 5.421491e-004
2.210023e+003, 2.598829e-004
2.211951e+003, 1.652481e-005
2.213880e+003, -5.178056e-004
2.215808e+003, -4.834853e-004
2.217737e+003, -2.519573e-004
2.219665e+003, 1.964740e-004
2.221594e+003, 3.484375e-004
2.223522e+003, 4.344083e-004
2.225450e+003, 2.234842e-004
2.227379e+003, 3.834133e-004
2.229307e+003, 6.020629e-004
2.231236e+003, 2.617170e-004
2.233164e+003, 1.218157e-004
2.235093e+003, 2.302746e-004
2.237021e+003, 9.147642e-005
2.238950e+003, -2.542182e-004
2.240878e+003, -2.040353e-005
2.242807e+003, -1.668778e-004
2.244735e+003, -4.411080e-004
2.246664e+003, -9.864802e-005
2.248592e+003, -8.307974e-005
2.250521e+003, -5.192097e-004
2.252449e+003, -6.343464e-004
2.254377e+003, -6.411424e-004
2.256306e+003, -2.372153e-004
2.258234e+003, 1.731459e-004
2.260163e+003, -3.716425e-004
2.262091e+003, -7.103023e-004
2.264020e+003, -8.989848e-004
2.265948e+003, -9.359483e-004
2.267877e+003, -6.286250e-004
2.269805e+003, -5.346689e-004
2.271734e+003, -9.205345e-004
2.273662e+003, -5.886358e-004
2.275591e+003, 2.419433e-004
2.277519e+003, 6.151549e-004
2.279448e+003, 4.439783e-004
2.281376e+003, 1.073053e-004
2.283304e+003, 1.803570e-004
2.285233e+003, 5.775794e-004
2.287161e+003, 5.874370e-004
2.289090e+003, 1.004539e-004
2.291018e+003, -1.028058e-004
2.292947e+003, 5.805487e-005
2.294875e+003, -3.582798e-005
2.296804e+003, 9.013337e-005
2.298732e+003, 1.240843e-004
2.300661e+003, 1.576944e-004
2.302589e+003, 3.071805e-004
2.304518e+003, 1.822326e-004
2.306446e+003, -1.299870e-004
2.308375e+003, -2.673957e-004
2.310303e+003, 1.737171e-005
2.312231e+003, 3.421781e-004
2.314160e+003, 5.243819e-004
2.316088e+003, 7.180530e-004
2.318017e+003, 9.206267e-004
2.319945e+003, 1.111597e-003
2.321874e+003, 1.409081e-003
2.323802e+003, 1.699143e-003
2.325731e+003, 1.050596e-003
2.327659e+003, 4.442639e-004
2.329588e+003, 3.452772e-004
2.331516e+003, 3.693757e-004
2.333445e+003, 5.039258e-004
2.335373e+003, 6.596807e-004
2.337302e+003, 6.227766e-004
2.339230e+003, 5.166541e-004
2.341158e+003, 2.990852e-004
2.343087e+003, 1.029283e-004
2.345015e+003, -1.806762e-004
2.346944e+003, -2.695793e-004
2.348872e+003, -3.661634e-004
2.350801e+003, -4.567577e-004
2.352729e+003, 8.186967e-005
2.354658e+003, 9.062718e-004
2.356586e+003, 1.314714e-003
2.358515e+003, 1.327582e-003
2.360443e+003, 1.017593e-003
2.362372e+003, 4.029830e-004
2.364300e+003, -1.455325e-004
2.366229e+003, -2.034376e-004
2.368157e+003, -9.404022e-005
2.370085e+003, -1.878569e-004
2.372014e+003, -5.001570e-004
2.373942e+003, -8.690800e-004
2.375871e+003, -9.376447e-004
2.377799e+003, -9.721823e-004
2.379728e+003, -1.401781e-003
2.381656e+003, -1.449452e-003
2.383585e+003, -1.194487e-003
2.385513e+003, -1.178211e-003
2.387442e+003, -1.348411e-003
2.389370e+003, -1.411542e-003
2.391299e+003, -1.444858e-003
2.393227e+003, -1.471334e-003
2.395156e+003, -1.387579e-003
2.397084e+003, -1.555625e-003
2.399012e+003, -1.661925e-003
2.400941e+003, -1.410530e-003
2.402869e+003, -1.262913e-003
2.404798e+003, -1.432554e-003
2.406726e+003, -1.170104e-003
2.408655e+003, -1.021415e-003
2.410583e+003, -1.265177e-003
2.412512e+003, -1.081043e-003
2.414440e+003, -8.007588e-004
2.416369e+003, -9.413484e-004
2.418297e+003, -1.333397e-003
2.420226e+003, -1.530358e-003
2.422154e+003, -1.355340e-003
2.424083e+003, -1.063175e-003
2.426011e+003, -1.334621e-003
2.427939e+003, -1.549901e-003
2.429868e+003, -1.289997e-003
2.431796e+003, -1.280536e-003
2.433725e+003, -1.406874e-003
2.435653e+003, -1.577252e-003
2.437582e+003, -1.326959e-003
2.439510e+003, -7.843509e-004
2.441439e+003, -4.303246e-004
2.443367e+003, -6.199539e-004
2.445296e+003, -8.300928e-004
2.447224e+003, -9.950707e-004
2.449153e+003, -1.057655e-003
2.451081e+003, -1.101435e-003
2.453010e+003, -1.212011e-003
2.454938e+003, -9.938444e-004
2.456866e+003, -8.170129e-004
2.458795e+003, -9.816221e-004
2.460723e+003, -7.941517e-004
2.462652e+003, -9.606241e-004
2.464580e+003, -1.150588e-003
2.466509e+003, -6.422268e-004
2.468437e+003, -3.998840e-004
2.470366e+003, -4.556121e-004
2.472294e+003, -5.019308e-004
2.474223e+003, -7.756675e-004
2.476151e+003, -6.439654e-004
2.478080e+003, -3.142427e-004
2.480008e+003, -2.660434e-004
2.481937e+003, -6.139094e-004
2.483865e+003, -8.983075e-004
2.485793e+003, -8.759086e-004
2.487722e+003, -6.043779e-004
2.489650e+003, -5.272825e-004
2.491579e+003, -3.312349e-004
2.493507e+003, -4.909909e-004
2.495436e+003, -7.555829e-004
2.497364e+003, -6.488555e-004
2.499293e+003, -2.009776e-004
2.501221e+003, 2.529579e-006
2.503150e+003, -4.128272e-005
2.505078e+003, -3.870610e-004
2.507007e+003, -1.122487e-004
2.508935e+003, 2.485253e-004
2.510864e+003, 3.502365e-005
2.512792e+003, -4.799039e-004
2.514720e+003, -6.513448e-004
2.516649e+003, -3.837490e-004
2.518577e+003, -2.027802e-004
2.520506e+003, -3.153410e-004
2.522434e+003, -7.018805e-005
2.524363e+003, -3.915237e-005
2.526291e+003, -2.419176e-004
2.528220e+003, 2.339463e-005
2.530148e+003, 3.459426e-004
2.532077e+003, 8.001148e-005
2.534005e+003, 7.517893e-005
2.535934e+003, 5.004822e-004
2.537862e+003, 7.918712e-004
2.539791e+003, 6.925779e-004
2.541719e+003, 2.136102e-004
2.543647e+003, 2.084336e-004
2.545576e+003, 6.281688e-004
2.547504e+003, 8.970541e-004
2.549433e+003, 6.699776e-004
2.551361e+003, 1.221367e-004
2.553290e+003, 1.696676e-004
2.555218e+003, 5.316532e-004
2.557147e+003, 6.529967e-004
2.559075e+003, 4.197538e-004
2.561004e+003, 5.428003e-004
2.562932e+003, 7.250113e-004
2.564861e+003, 9.405309e-004
2.566789e+003, 6.590827e-004
2.568718e+003, 5.354822e-004
2.570646e+003, 1.013676e-003
2.572574e+003, 1.242401e-003
2.574503e+003, 1.029319e-003
2.576431e+003, 7.996464e-004
2.578360e+003, 6.876357e-004
2.580288e+003, 1.055690e-003
2.582217e+003, 1.016121e-003
2.584145e+003, 5.296716e-004
2.586074e+003, 6.833327e-004
2.588002e+003, 1.029053e-003
2.589931e+003, 1.296437e-003
2.591859e+003, 1.773790e-003
2.593788e+003, 1.665254e-003
2.595716e+003, 1.120350e-003
2.597645e+003, 7.693535e-004
2.599573e+003, 7.394766e-004
2.601501e+003, 1.184980e-003
2.603430e+003, 1.551593e-003
2.605358e+003, 1.416925e-003
2.607287e+003, 1.149579e-003
2.609215e+003, 1.107310e-003
2.611144e+003, 1.153659e-003
2.613072e+003, 9.587210e-004
2.615001e+003, 1.108912e-003
2.616929e+003, 1.172894e-003
2.618858e+003, 1.332616e-003
2.620786e+003, 1.460854e-003
2.622715e+003, 1.318260e-003
2.624643e+003, 1.383283e-003
2.626572e+003, 1.579385e-003
2.628500e+003, 1.823172e-003
2.630428e+003, 1.777781e-003
2.632357e+003, 1.540782e-003
2.634285e+003, 1.550186e-003
2.636214e+003, 1.620311e-003
2.638142e+003, 1.684413e-003
2.640071e+003, 1.536969e-003
2.641999e+003, 1.694020e-003
2.643928e+003, 1.820517e-003
2.645856e+003, 1.587137e-003
2.647785e+003, 1.525196e-003
2.649713e+003, 1.646465e-003
2.651642e+003, 1.621066e-003
2.653570e+003, 1.677340e-003
2.655499e+003, 1.375547e-003
2.657427e+003, 1.143289e-003
2.659355e+003, 1.121518e-003
2.661284e+003, 1.006508e-003
2.663212e+003, 1.046964e-003
2.665141e+003, 1.227927e-003
2.667069e+003, 1.156610e-003
2.668998e+003, 1.203186e-003
2.670926e+003, 1.029083e-003
2.672855e+003, 8.172651e-004
2.674783e+003, 8.658088e-004
2.676712e+003, 9.476246e-004
2.678640e+003, 8.939208e-004
2.680569e+003, 1.041479e-003
2.682497e+003, 1.122802e-003
2.684426e+003, 1.116732e-003
2.686354e+003, 9.646370e-004
2.688282e+003, 9.374052e-004
2.690211e+003, 1.144769e-003
2.692139e+003, 1.091009e-003
2.694068e+003, 9.521269e-004
2.695996e+003, 1.003026e-003
2.697925e+003, 1.186609e-003
2.699853e+003, 1.291045e-003
2.701782e+003, 1.255019e-003
2.703710e+003, 1.129003e-003
2.705639e+003, 1.058446e-003
2.707567e+003, 9.436217e-004
2.709496e+003, 8.748175e-004
2.711424e+003, 8.965463e-004
2.713353e+003, 1.067041e-003
2.715281e+003, 1.014650e-003
2.717209e+003, 1.014718e-003
2.719138e+003, 1.110637e-003
2.721066e+003, 1.097055e-003
2.722995e+003, 1.091033e-003
2.724923e+003, 1.196527e-003
2.726852e+003, 1.160538e-003
2.728780e+003, 1.218627e-003
2.730709e+003, 1.162499e-003
2.732637e+003, 1.185589e-003
2.734566e+003, 1.148947e-003
2.736494e+003, 1.140201e-003
2.738423e+003, 1.101205e-003
2.740351e+003, 1.096778e-003
2.742280e+003, 1.291440e-003
2.744208e+003, 1.365148e-003
2.746136e+003, 1.131538e-003
2.748065e+003, 1.072798e-003
2.749993e+003, 1.489830e-003
2.751922e+003, 1.657569e-003
2.753850e+003, 1.445828e-003
2.755779e+003, 1.119583e-003
2.757707e+003, 1.156746e-003
2.759636e+003, 1.370343e-003
2.761564e+003, 1.501824e-003
2.763493e+003, 1.362861e-003
2.765421e+003, 1.392783e-003
2.767350e+003, 1.471760e-003
2.769278e+003, 1.518699e-003
2.771207e+003, 1.333947e-003
2.773135e+003, 1.119714e-003
2.775063e+003, 1.135933e-003
2.776992e+003, 1.295576e-003
2.778920e+003, 1.238018e-003
2.780849e+003, 1.413647e-003
2.782777e+003, 1.641713e-003
2.784706e+003, 1.403280e-003
2.786634e+003, 1.198753e-003
2.788563e+003, 1.376778e-003
2.790491e+003, 1.581738e-003
2.792420e+003, 1.510087e-003
2.794348e+003, 1.225151e-003
2.796277e+003, 1.169403e-003
2.798205e+003, 1.245265e-003
2.800134e+003, 1.213225e-003
2.802062e+003, 1.187553e-003
2.803990e+003, 9.944616e-004
2.805919e+003, 1.005453e-003
2.807847e+003, 1.297124e-003
2.809776e+003, 1.164357e-003
2.811704e+003, 1.213062e-003
2.813633e+003, 1.367392e-003
2.815561e+003, 1.497666e-003
2.817490e+003, 1.693473e-003
2.819418e+003, 1.564775e-003
2.821347e+003, 1.426831e-003
2.823275e+003, 1.625318e-003
2.825204e+003, 1.676837e-003
2.827132e+003, 1.686116e-003
2.829061e+003, 1.782429e-003
2.830989e+003, 1.803721e-003
2.832917e+003, 1.710366e-003
2.834846e+003, 1.504310e-003
2.836774e+003, 1.424853e-003
2.838703e+003, 1.359887e-003
2.840631e+003, 1.177722e-003
2.842560e+003, 1.056803e-003
2.844488e+003, 1.046364e-003
2.846417e+003, 9.335990e-004
2.848345e+003, 4.327930e-004
2.850274e+003, 2.281707e-004
2.852202e+003, 3.603575e-004
2.854131e+003, 4.614184e-004
2.856059e+003, 2.304602e-004
2.857988e+003, 2.937657e-004
2.859916e+003, 6.772050e-004
2.861844e+003, 1.064122e-003
2.863773e+003, 8.933176e-004
2.865701e+003, 8.186409e-004
2.867630e+003, 9.468715e-004
2.869558e+003, 1.135140e-003
2.871487e+003, 1.449698e-003
2.873415e+003, 1.488779e-003
2.875344e+003, 1.607844e-003
2.877272e+003, 1.830000e-003
2.879201e+003, 1.765378e-003
2.881129e+003, 1.845123e-003
2.883058e+003, 1.635505e-003
2.884986e+003, 1.056676e-003
2.886915e+003, 8.990267e-004
2.888843e+003, 1.185462e-003
2.890771e+003, 1.455854e-003
2.892700e+003, 1.459583e-003
2.894628e+003, 1.239616e-003
2.896557e+003, 1.314780e-003
2.898485e+003, 1.183929e-003
2.900414e+003, 1.131407e-003
2.902342e+003, 1.214625e-003
2.904271e+003, 1.020760e-003
2.906199e+003, 8.671329e-004
2.908128e+003, 6.386079e-004
2.910056e+003, 8.208692e-004
2.911985e+003, 6.619022e-004
2.913913e+003, -1.050607e-005
2.915842e+003, -1.042476e-004
2.917770e+003, -7.610454e-005
2.919698e+003, -3.376257e-004
2.921627e+003, -3.653535e-004
2.923555e+003, -1.656243e-004
2.925484e+003, -1.771947e-004
2.927412e+003, -2.031286e-004
2.929341e+003, -1.112522e-005
2.931269e+003, 2.521743e-004
2.933198e+003, 1.971033e-004
2.935126e+003, 3.932198e-004
2.937055e+003, 5.929295e-004
2.938983e+003, 5.923293e-004
2.940912e+003, 9.774447e-004
2.942840e+003, 1.348925e-003
2.944769e+003, 1.037075e-003
2.946697e+003, 6.440033e-004
2.948625e+003, 8.250555e-004
2.950554e+003, 1.229067e-003
2.952482e+003, 1.384965e-003
2.954411e+003, 1.471698e-003
2.956339e+003, 1.489893e-003
2.958268e+003, 1.403217e-003
2.960196e+003, 1.535982e-003
2.962125e+003, 1.951406e-003
2.964053e+003, 1.997602e-003
2.965982e+003, 1.555061e-003
2.967910e+003, 1.330508e-003
2.969839e+003, 1.507976e-003
2.971767e+003, 1.494642e-003
2.973696e+003, 1.416971e-003
2.975624e+003, 1.769097e-003
2.977552e+003, 1.826236e-003
2.979481e+003, 1.715098e-003
2.981409e+003, 1.653478e-003
2.983338e+003, 1.440457e-003
2.985266e+003, 1.569610e-003
2.987195e+003, 1.676835e-003
2.989123e+003, 1.373486e-003
2.991052e+003, 1.144902e-003
2.992980e+003, 1.201204e-003
2.994909e+003, 1.535830e-003
2.996837e+003, 1.859630e-003
2.998766e+003, 1.590985e-003
3.000694e+003, 1.318362e-003
3.002623e+003, 1.308036e-003
3.004551e+003, 1.577745e-003
3.006479e+003, 1.738520e-003
3.008408e+003, 1.703879e-003
3.010336e+003, 1.776862e-003
3.012265e+003, 1.808664e-003
3.014193e+003, 1.912712e-003
3.016122e+003, 1.915522e-003
3.018050e+003, 1.723656e-003
3.019979e+003, 1.573754e-003
3.021907e+003, 1.856259e-003
3.023836e+003, 2.052485e-003
3.025764e+003, 1.960295e-003
3.027693e+003, 1.833831e-003
3.029621e+003, 1.850058e-003
3.031550e+003, 1.926152e-003
3.033478e+003, 1.973560e-003
3.035406e+003, 2.080259e-003
3.037335e+003, 2.311696e-003
3.039263e+003, 2.439854e-003
3.041192e+003, 2.073660e-003
3.043120e+003, 1.910159e-003
3.045049e+003, 2.006225e-003
3.046977e+003, 2.198791e-003
3.048906e+003, 2.393247e-003
3.050834e+003, 2.394028e-003
3.052763e+003, 2.424098e-003
3.054691e+003, 2.370953e-003
3.056620e+003, 2.340979e-003
3.058548e+003, 2.433905e-003
3.060477e+003, 2.496884e-003
3.062405e+003, 2.634974e-003
3.064333e+003, 2.739975e-003
3.066262e+003, 2.788614e-003
3.068190e+003, 2.748174e-003
3.070119e+003, 2.810432e-003
3.072047e+003, 2.495696e-003
3.073976e+003, 2.369288e-003
3.075904e+003, 2.619794e-003
3.077833e+003, 2.712356e-003
3.079761e+003, 2.857707e-003
3.081690e+003, 2.694942e-003
3.083618e+003, 2.800834e-003
3.085547e+003, 3.166615e-003
3.087475e+003, 3.093517e-003
3.089404e+003, 2.883061e-003
3.091332e+003, 2.426500e-003
3.093260e+003, 2.268856e-003
3.095189e+003, 2.197210e-003
3.097117e+003, 1.995982e-003
3.099046e+003, 2.081940e-003
3.100974e+003, 2.191787e-003
3.102903e+003, 2.287149e-003
3.104831e+003, 2.371818e-003
3.106760e+003, 2.762089e-003
3.108688e+003, 3.298737e-003
3.110617e+003, 3.153131e-003
3.112545e+003, 2.778637e-003
3.114474e+003, 2.293384e-003
3.116402e+003, 2.203866e-003
3.118331e+003, 2.610958e-003
3.120259e+003, 2.752194e-003
3.122188e+003, 2.923263e-003
3.124116e+003, 3.264415e-003
3.126044e+003, 3.101332e-003
3.127973e+003, 2.912104e-003
3.129901e+003, 2.936429e-003
3.131830e+003, 3.019129e-003
3.133758e+003, 3.270953e-003
3.135687e+003, 3.111629e-003
3.137615e+003, 2.740961e-003
3.139544e+003, 2.643290e-003
3.141472e+003, 2.865592e-003
3.143401e+003, 3.344602e-003
3.145329e+003, 3.706066e-003
3.147258e+003, 3.863810e-003
3.149186e+003, 3.155423e-003
3.151115e+003, 2.665156e-003
3.153043e+003, 2.998625e-003
3.154971e+003, 3.129622e-003
3.156900e+003, 3.132455e-003
3.158828e+003, 3.500616e-003
3.160757e+003, 3.577803e-003
3.162685e+003, 3.376052e-003
3.164614e+003, 3.177761e-003
3.166542e+003, 3.003959e-003
3.168471e+003, 3.410588e-003
3.170399e+003, 3.587884e-003
3.172328e+003, 3.286256e-003
3.174256e+003, 3.239313e-003
3.176185e+003, 3.597325e-003
3.178113e+003, 3.517671e-003
3.180042e+003, 3.367782e-003
3.181970e+003, 3.422228e-003
3.183898e+003, 3.448709e-003
3.185827e+003, 3.603595e-003
3.187755e+003, 3.755182e-003
3.189684e+003, 3.421860e-003
3.191612e+003, 3.594387e-003
3.193541e+003, 4.001854e-003
3.195469e+003, 4.392624e-003
3.197398e+003, 4.304176e-003
3.199326e+003, 4.056571e-003
3.201255e+003, 4.118354e-003
3.203183e+003, 4.137636e-003
3.205112e+003, 3.541951e-003
3.207040e+003, 3.616822e-003
3.208969e+003, 3.840195e-003
3.210897e+003, 3.814635e-003
3.212825e+003, 3.572379e-003
3.214754e+003, 3.544924e-003
3.216682e+003, 3.753908e-003
3.218611e+003, 3.574690e-003
3.220539e+003, 3.610834e-003
3.222468e+003, 3.963926e-003
3.224396e+003, 3.983954e-003
3.226325e+003, 3.725621e-003
3.228253e+003, 3.566639e-003
3.230182e+003, 3.471755e-003
3.232110e+003, 3.764456e-003
3.234039e+003, 4.163739e-003
3.235967e+003, 4.318486e-003
3.237896e+003, 3.954337e-003
3.239824e+003, 3.798116e-003
3.241752e+003, 3.834496e-003
3.243681e+003, 3.853898e-003
3.245609e+003, 3.864475e-003
3.247538e+003, 3.546650e-003
3.249466e+003, 3.861794e-003
3.251395e+003, 4.054309e-003
3.253323e+003, 3.923085e-003
3.255252e+003, 4.190942e-003
3.257180e+003, 4.183773e-003
3.259109e+003, 3.772672e-003
3.261037e+003, 3.708038e-003
3.262966e+003, 3.807991e-003
3.264894e+003, 3.675073e-003
3.266823e+003, 3.598983e-003
3.268751e+003, 3.339325e-003
3.270679e+003, 3.441868e-003
3.272608e+003, 4.210937e-003
3.274536e+003, 4.681619e-003
3.276465e+003, 4.406423e-003
3.278393e+003, 4.034541e-003
3.280322e+003, 4.317157e-003
3.282250e+003, 4.025833e-003
3.284179e+003, 3.875741e-003
3.286107e+003, 3.965011e-003
3.288036e+003, 3.707334e-003
3.289964e+003, 3.551244e-003
3.291893e+003, 3.617599e-003
3.293821e+003, 3.780880e-003
3.295750e+003, 3.980495e-003
3.297678e+003, 4.364375e-003
3.299606e+003, 4.362628e-003
3.301535e+003, 4.234263e-003
3.303463e+003, 4.234194e-003
3.305392e+003, 4.092207e-003
3.307320e+003, 3.872053e-003
3.309249e+003, 3.939816e-003
3.311177e+003, 4.058053e-003
3.313106e+003, 3.977502e-003
3.315034e+003, 3.978919e-003
3.316963e+003, 4.346490e-003
3.318891e+003, 4.682910e-003
3.320820e+003, 4.569935e-003
3.322748e+003, 4.052688e-003
3.324677e+003, 3.663464e-003
3.326605e+003, 4.153740e-003
3.328533e+003, 4.122950e-003
3.330462e+003, 3.989983e-003
3.332390e+003, 4.231778e-003
3.334319e+003, 4.654542e-003
3.336247e+003, 4.726081e-003
3.338176e+003, 4.923224e-003
3.340104e+003, 5.291880e-003
3.342033e+003, 4.618352e-003
3.343961e+003, 3.710846e-003
3.345890e+003, 4.171739e-003
3.347818e+003, 4.669360e-003
3.349747e+003, 4.445010e-003
3.351675e+003, 4.466711e-003
3.353604e+003, 4.618399e-003
3.355532e+003, 4.725661e-003
3.357460e+003, 4.465326e-003
3.359389e+003, 4.620727e-003
3.361317e+003, 4.719561e-003
3.363246e+003, 4.606765e-003
3.365174e+003, 4.420929e-003
3.367103e+003, 4.358314e-003
3.369031e+003, 4.648787e-003
3.370960e+003, 4.814587e-003
3.372888e+003, 4.432783e-003
3.374817e+003, 4.816803e-003
3.376745e+003, 5.289161e-003
3.378674e+003, 5.616224e-003
3.380602e+003, 6.239092e-003
3.382531e+003, 5.823433e-003
3.384459e+003, 4.700973e-003
3.386387e+003, 4.328284e-003
3.388316e+003, 4.895409e-003
3.390244e+003, 5.086630e-003
3.392173e+003, 4.512953e-003
3.394101e+003, 4.405629e-003
3.396030e+003, 4.697291e-003
3.397958e+003, 4.509978e-003
3.399887e+003, 4.516475e-003
3.401815e+003, 4.778855e-003
3.403744e+003, 4.746016e-003
3.405672e+003, 4.688011e-003
3.407601e+003, 4.484629e-003
3.409529e+003, 4.253177e-003
3.411458e+003, 4.218724e-003
3.413386e+003, 4.345968e-003
3.415314e+003, 4.584721e-003
3.417243e+003, 4.744146e-003
3.419171e+003, 4.945826e-003
3.421100e+003, 4.515910e-003
3.423028e+003, 4.334382e-003
3.424957e+003, 4.437758e-003
3.426885e+003, 4.111832e-003
3.428814e+003, 3.920130e-003
3.430742e+003, 4.373600e-003
3.432671e+003, 4.590056e-003
3.434599e+003, 4.443994e-003
3.436528e+003, 4.082889e-003
3.438456e+003, 3.960755e-003
3.440385e+003, 3.999992e-003
3.442313e+003, 3.922052e-003
3.444241e+003, 4.595225e-003
3.446170e+003, 4.653566e-003
3.448098e+003, 3.994684e-003
3.450027e+003, 3.736284e-003
3.451955e+003, 3.901064e-003
3.453884e+003, 4.229578e-003
3.455812e+003, 4.425190e-003
3.457741e+003, 3.990483e-003
3.459669e+003, 3.961775e-003
3.461598e+003, 4.397914e-003
3.463526e+003, 3.882505e-003
3.465455e+003, 3.139541e-003
3.467383e+003, 3.533331e-003
3.469312e+003, 3.924548e-003
3.471240e+003, 3.422523e-003
3.473168e+003, 3.383463e-003
3.475097e+003, 4.227641e-003
3.477025e+003, 4.268326e-003
3.478954e+003, 3.966799e-003
3.480882e+003, 4.171592e-003
3.482811e+003, 3.652896e-003
3.484739e+003, 3.593212e-003
3.486668e+003, 4.515504e-003
3.488596e+003, 4.719372e-003
3.490525e+003, 4.458286e-003
3.492453e+003, 4.578765e-003
3.494382e+003, 4.249407e-003
3.496310e+003, 3.828817e-003
3.498239e+003, 3.802327e-003
3.500167e+003, 3.877073e-003
3.502095e+003, 3.769489e-003
3.504024e+003, 3.874557e-003
3.505952e+003, 3.647372e-003
3.507881e+003, 3.327950e-003
3.509809e+003, 3.758835e-003
3.511738e+003, 3.671649e-003
3.513666e+003, 3.804594e-003
3.515595e+003, 3.858744e-003
3.517523e+003, 4.006672e-003
3.519452e+003, 4.034336e-003
3.521380e+003, 3.654392e-003
3.523309e+003, 3.319042e-003
3.525237e+003, 3.568440e-003
3.527166e+003, 3.250263e-003
3.529094e+003, 2.885874e-003
3.531022e+003, 3.144277e-003
3.532951e+003, 3.673211e-003
3.534879e+003, 3.740361e-003
3.536808e+003, 4.025283e-003
3.538736e+003, 4.359955e-003
3.540665e+003, 4.173617e-003
3.542593e+003, 3.663731e-003
3.544522e+003, 3.342593e-003
3.546450e+003, 3.224748e-003
3.548379e+003, 3.629007e-003
3.550307e+003, 4.394867e-003
3.552236e+003, 5.090849e-003
3.554164e+003, 4.906573e-003
3.556093e+003, 4.502889e-003
3.558021e+003, 4.156679e-003
3.559949e+003, 3.481597e-003
3.561878e+003, 3.427164e-003
3.563806e+003, 4.191324e-003
3.565735e+003, 4.751298e-003
3.567663e+003, 5.077353e-003
3.569592e+003, 4.744181e-003
3.571520e+003, 4.187274e-003
3.573449e+003, 4.368681e-003
3.575377e+003, 4.789491e-003
3.577306e+003, 5.338714e-003
3.579234e+003, 5.661009e-003
3.581163e+003, 6.167162e-003
3.583091e+003, 6.318030e-003
3.585020e+003, 6.416832e-003
3.586948e+003, 7.799251e-003
3.588876e+003, 9.587655e-003
3.590805e+003, 9.844319e-003
3.592733e+003, 9.793887e-003
3.594662e+003, 9.990543e-003
3.596590e+003, 9.010702e-003
3.598519e+003, 7.689025e-003
3.600447e+003, 6.095516e-003
3.602376e+003, 4.173500e-003
3.604304e+003, 3.226198e-003
3.606233e+003, 3.582243e-003
3.608161e+003, 4.234927e-003
3.610090e+003, 4.077663e-003
3.612018e+003, 3.341331e-003
3.613947e+003, 2.706869e-003
3.615875e+003, 2.915936e-003
3.617803e+003, 3.885489e-003
3.619732e+003, 4.533084e-003
3.621660e+003, 4.187116e-003
3.623589e+003, 3.722918e-003
3.625517e+003, 3.404140e-003
3.627446e+003, 3.583606e-003
3.629374e+003, 4.034890e-003
3.631303e+003, 4.324012e-003
3.633231e+003, 4.295148e-003
3.635160e+003, 4.192216e-003
3.637088e+003, 4.683019e-003
3.639017e+003, 4.612082e-003
3.640945e+003, 4.272865e-003
3.642874e+003, 4.364433e-003
3.644802e+003, 5.353509e-003
3.646730e+003, 6.322535e-003
3.648659e+003, 6.051573e-003
3.650587e+003, 5.812298e-003
3.652516e+003, 6.108355e-003
3.654444e+003, 6.409757e-003
3.656373e+003, 5.804677e-003
3.658301e+003, 4.956345e-003
3.660230e+003, 4.858092e-003
3.662158e+003, 5.034933e-003
3.664087e+003, 4.897152e-003
3.666015e+003, 4.538976e-003
3.667944e+003, 4.875329e-003
3.669872e+003, 5.222721e-003
3.671801e+003, 4.422737e-003
3.673729e+003, 4.366704e-003
3.675657e+003, 4.442618e-003
3.677586e+003, 3.804531e-003
3.679514e+003, 3.268645e-003
3.681443e+003, 2.807520e-003
3.683371e+003, 3.032969e-003
3.685300e+003, 3.419830e-003
3.687228e+003, 3.895736e-003
3.689157e+003, 4.021027e-003
3.691085e+003, 4.140698e-003
3.693014e+003, 4.396200e-003
3.694942e+003, 4.074412e-003
3.696871e+003, 3.409229e-003
3.698799e+003, 3.189693e-003
3.700728e+003, 3.827159e-003
3.702656e+003, 3.483732e-003
3.704584e+003, 2.765081e-003
3.706513e+003, 2.277315e-003
3.708441e+003, 2.189031e-003
3.710370e+003, 2.525652e-003
3.712298e+003, 2.606161e-003
3.714227e+003, 2.340898e-003
3.716155e+003, 2.090193e-003
3.718084e+003, 2.045252e-003
3.720012e+003, 2.045433e-003
3.721941e+003, 2.795419e-003
3.723869e+003, 3.205405e-003
3.725798e+003, 3.037963e-003
3.727726e+003, 2.246256e-003
3.729655e+003, 1.993113e-003
3.731583e+003, 2.494456e-003
3.733511e+003, 3.101566e-003
3.735440e+003, 3.637211e-003
3.737368e+003, 3.574015e-003
3.739297e+003, 3.030796e-003
3.741225e+003, 2.600310e-003
3.743154e+003, 3.155984e-003
3.745082e+003, 3.027773e-003
3.747011e+003, 2.205824e-003
3.748939e+003, 3.307726e-003
3.750868e+003, 3.996333e-003
3.752796e+003, 2.678839e-003
3.754725e+003, 1.578718e-003
3.756653e+003, 2.007267e-003
3.758582e+003, 2.046538e-003
3.760510e+003, 1.430614e-003
3.762438e+003, 1.845233e-003
3.764367e+003, 2.610641e-003
3.766295e+003, 2.108921e-003
3.768224e+003, 1.979199e-003
3.770152e+003, 2.394080e-003
3.772081e+003, 2.482133e-003
3.774009e+003, 1.928402e-003
3.775938e+003, 1.807226e-003
3.777866e+003, 2.163036e-003
3.779795e+003, 2.323494e-003
3.781723e+003, 2.365297e-003
3.783652e+003, 2.204763e-003
3.785580e+003, 1.978534e-003
3.787509e+003, 1.742422e-003
3.789437e+003, 1.871608e-003
3.791365e+003, 2.055522e-003
3.793294e+003, 2.199364e-003
3.795222e+003, 2.698906e-003
3.797151e+003, 2.597784e-003
3.799079e+003, 2.262980e-003
3.801008e+003, 3.180820e-003
3.802936e+003, 2.845977e-003
3.804865e+003, 2.607455e-003
3.806793e+003, 2.161324e-003
3.808722e+003, 1.522099e-003
3.810650e+003, 1.817316e-003
3.812579e+003, 2.072033e-003
3.814507e+003, 2.475259e-003
3.816436e+003, 2.517381e-003
3.818364e+003, 2.102559e-003
3.820292e+003, 2.294465e-003
3.822221e+003, 1.825658e-003
3.824149e+003, 1.666210e-003
3.826078e+003, 2.287801e-003
3.828006e+003, 1.897891e-003
3.829935e+003, 1.988764e-003
3.831863e+003, 2.145837e-003
3.833792e+003, 1.831470e-003
3.835720e+003, 1.890758e-003
3.837649e+003, 2.692458e-003
3.839577e+003, 2.538069e-003
3.841506e+003, 2.275064e-003
3.843434e+003, 2.199916e-003
3.845363e+003, 2.056184e-003
3.847291e+003, 1.679558e-003
3.849219e+003, 1.551427e-003
3.851148e+003, 2.411836e-003
3.853076e+003, 3.739747e-003
3.855005e+003, 3.744526e-003
3.856933e+003, 2.689768e-003
3.858862e+003, 1.761581e-003
3.860790e+003, 1.327729e-003
3.862719e+003, 1.714336e-003
3.864647e+003, 2.275020e-003
3.866576e+003, 2.178883e-003
3.868504e+003, 2.501983e-003
3.870433e+003, 2.567160e-003
3.872361e+003, 2.563263e-003
3.874290e+003, 2.637407e-003
3.876218e+003, 2.482403e-003
3.878146e+003, 2.312842e-003
3.880075e+003, 1.883640e-003
3.882003e+003, 1.706461e-003
3.883932e+003, 2.349572e-003
3.885860e+003, 2.561012e-003
3.887789e+003, 2.445241e-003
3.889717e+003, 2.405381e-003
3.891646e+003, 2.601665e-003
3.893574e+003, 1.932335e-003
3.895503e+003, 1.539436e-003
3.897431e+003, 1.899924e-003
3.899360e+003, 2.142726e-003
3.901288e+003, 1.775829e-003
3.903217e+003, 2.093250e-003
3.905145e+003, 2.165376e-003
3.907073e+003, 1.895397e-003
3.909002e+003, 1.895003e-003
3.910930e+003, 2.311614e-003
3.912859e+003, 1.766632e-003
3.914787e+003, 1.297620e-003
3.916716e+003, 1.783777e-003
3.918644e+003, 1.839998e-003
3.920573e+003, 9.916320e-004
3.922501e+003, 9.157530e-004
3.924430e+003, 1.295987e-003
3.926358e+003, 1.117192e-003
3.928287e+003, 1.495858e-003
3.930215e+003, 2.013305e-003
3.932144e+003, 1.617242e-003
3.934072e+003, 1.467055e-003
3.936000e+003, 1.801666e-003
3.937929e+003, 2.281825e-003
3.939857e+003, 1.822584e-003
3.941786e+003, 5.936935e-004
3.943714e+003, 6.544806e-004
3.945643e+003, 1.142800e-003
3.947571e+003, 1.138359e-003
3.949500e+003, 1.063328e-003
3.951428e+003, 1.284721e-003
3.953357e+003, 1.950331e-003
3.955285e+003, 2.070657e-003
3.957214e+003, 1.865806e-003
3.959142e+003, 1.842921e-003
3.961071e+003, 1.521924e-003
3.962999e+003, 1.541035e-003
3.964927e+003, 1.990471e-003
3.966856e+003, 1.685226e-003
3.968784e+003, 1.462394e-003
3.970713e+003, 1.899907e-003
3.972641e+003, 2.137754e-003
3.974570e+003, 1.976854e-003
3.976498e+003, 1.529220e-003
3.978427e+003, 1.454339e-003
3.980355e+003, 1.596786e-003
3.982284e+003, 1.916387e-003
3.984212e+003, 2.020248e-003
3.986141e+003, 1.861342e-003
3.988069e+003, 1.710232e-003
3.989998e+003, 1.021433e-003
3.991926e+003, 8.830767e-004
3.993854e+003, 1.427066e-003
3.995783e+003, 2.317342e-003
3.997711e+003, 2.023604e-003
3.999640e+003, 1.176545e-003
##END=



