##NAMES=Beryl
##RRUFFID=R050121
##IDEAL CHEMISTRY=Be_3_Al_2_Si_6_O_18_
##LOCALITY=Cruziero mine, San Jose, Minas Gerais, Brazil
##OWNER=RRUFF
##SOURCE=Carlos and Paulo Vasconcelos
##DESCRIPTION=Light blue fragment, variety aquamarine
##STATUS=The identification of this mineral has been confirmed by X-ray diffraction and chemical analysis
##URL=rruff.info/R050121
##MEASURED CHEMISTRY=(Be_0.96_Li_0.04_)_3_Al_2.00_Si_6.00_O_18_Î‡Na_0.09_Mg_0.03_
3.991926e+002, 1.610583e-001
4.011211e+002, 1.705343e-001
4.030495e+002, 1.802208e-001
4.049780e+002, 1.816807e-001
4.069065e+002, 1.813775e-001
4.088349e+002, 1.825604e-001
4.107634e+002, 1.865743e-001
4.126919e+002, 1.946488e-001
4.146203e+002, 2.013202e-001
4.165488e+002, 2.063638e-001
4.184773e+002, 2.124612e-001
4.204057e+002, 2.164863e-001
4.223342e+002, 2.209694e-001
4.242627e+002, 2.256099e-001
4.261911e+002, 2.303505e-001
4.281196e+002, 2.327709e-001
4.300481e+002, 2.325799e-001
4.319765e+002, 2.303270e-001
4.339050e+002, 2.288982e-001
4.358335e+002, 2.283233e-001
4.377619e+002, 2.248548e-001
4.396904e+002, 2.201147e-001
4.416189e+002, 2.162419e-001
4.435473e+002, 2.101191e-001
4.454758e+002, 2.024932e-001
4.474043e+002, 1.955922e-001
4.493327e+002, 1.887298e-001
4.512612e+002, 1.828887e-001
4.531897e+002, 1.754293e-001
4.551181e+002, 1.685818e-001
4.570466e+002, 1.634692e-001
4.589751e+002, 1.592471e-001
4.609035e+002, 1.545466e-001
4.628320e+002, 1.499012e-001
4.647605e+002, 1.471156e-001
4.666889e+002, 1.472085e-001
4.686174e+002, 1.476461e-001
4.705459e+002, 1.491736e-001
4.724743e+002, 1.519470e-001
4.744028e+002, 1.555509e-001
4.763313e+002, 1.606142e-001
4.782597e+002, 1.653382e-001
4.801882e+002, 1.713262e-001
4.821167e+002, 1.770348e-001
4.840451e+002, 1.827285e-001
4.859736e+002, 1.885116e-001
4.879021e+002, 1.937236e-001
4.898305e+002, 1.976336e-001
4.917590e+002, 1.994832e-001
4.936875e+002, 1.966494e-001
4.956159e+002, 1.880746e-001
4.975444e+002, 1.748019e-001
4.994729e+002, 1.571477e-001
5.014013e+002, 1.399256e-001
5.033298e+002, 1.297525e-001
5.052583e+002, 1.328100e-001
5.071867e+002, 1.467319e-001
5.091152e+002, 1.620014e-001
5.110437e+002, 1.751736e-001
5.129721e+002, 1.853632e-001
5.149006e+002, 1.922441e-001
5.168290e+002, 1.965052e-001
5.187575e+002, 1.975589e-001
5.206860e+002, 1.951285e-001
5.226144e+002, 1.911185e-001
5.245429e+002, 1.871681e-001
5.264714e+002, 1.824700e-001
5.283998e+002, 1.770888e-001
5.303283e+002, 1.706120e-001
5.322568e+002, 1.633338e-001
5.341852e+002, 1.555022e-001
5.361137e+002, 1.464466e-001
5.380422e+002, 1.369652e-001
5.399706e+002, 1.274642e-001
5.418991e+002, 1.182353e-001
5.438276e+002, 1.095788e-001
5.457560e+002, 1.014748e-001
5.476845e+002, 9.405623e-002
5.496130e+002, 8.692092e-002
5.515414e+002, 8.045338e-002
5.534699e+002, 7.397053e-002
5.553984e+002, 6.769513e-002
5.573268e+002, 6.244373e-002
5.592553e+002, 5.794551e-002
5.611838e+002, 5.432171e-002
5.631122e+002, 5.164013e-002
5.650407e+002, 5.059984e-002
5.669692e+002, 5.083698e-002
5.688976e+002, 5.225347e-002
5.708261e+002, 5.543630e-002
5.727546e+002, 5.899533e-002
5.746830e+002, 6.253236e-002
5.766115e+002, 6.685470e-002
5.785400e+002, 7.401282e-002
5.804684e+002, 8.493510e-002
5.823969e+002, 9.973776e-002
5.843254e+002, 1.175883e-001
5.862538e+002, 1.363273e-001
5.881823e+002, 1.505626e-001
5.901108e+002, 1.558176e-001
5.920392e+002, 1.510855e-001
5.939677e+002, 1.395802e-001
5.958962e+002, 1.257701e-001
5.978246e+002, 1.110728e-001
5.997531e+002, 9.717812e-002
6.016816e+002, 8.414411e-002
6.036100e+002, 7.164756e-002
6.055385e+002, 6.109418e-002
6.074670e+002, 5.256921e-002
6.093954e+002, 4.600658e-002
6.113239e+002, 4.220695e-002
6.132524e+002, 4.004051e-002
6.151808e+002, 3.891521e-002
6.171093e+002, 3.877307e-002
6.190378e+002, 3.922885e-002
6.209662e+002, 3.974200e-002
6.228947e+002, 4.037827e-002
6.248232e+002, 4.138477e-002
6.267516e+002, 4.260953e-002
6.286801e+002, 4.401270e-002
6.306086e+002, 4.610597e-002
6.325370e+002, 4.897114e-002
6.344655e+002, 5.286304e-002
6.363940e+002, 5.775972e-002
6.383224e+002, 6.340934e-002
6.402509e+002, 6.998111e-002
6.421794e+002, 7.805640e-002
6.441078e+002, 8.786865e-002
6.460363e+002, 9.869726e-002
6.479648e+002, 1.098287e-001
6.498932e+002, 1.194634e-001
6.518217e+002, 1.243240e-001
6.537502e+002, 1.223588e-001
6.556786e+002, 1.168600e-001
6.576071e+002, 1.135702e-001
6.595356e+002, 1.155296e-001
6.614641e+002, 1.224426e-001
6.633925e+002, 1.323857e-001
6.653210e+002, 1.438407e-001
6.672495e+002, 1.557928e-001
6.691779e+002, 1.673396e-001
6.711064e+002, 1.778552e-001
6.730349e+002, 1.864733e-001
6.749633e+002, 1.927440e-001
6.768918e+002, 1.954172e-001
6.788203e+002, 1.940099e-001
6.807487e+002, 1.886710e-001
6.826772e+002, 1.798030e-001
6.846057e+002, 1.688626e-001
6.865341e+002, 1.574681e-001
6.884626e+002, 1.463702e-001
6.903911e+002, 1.357178e-001
6.923195e+002, 1.255551e-001
6.942480e+002, 1.158638e-001
6.961765e+002, 1.067941e-001
6.981049e+002, 9.870869e-002
7.000334e+002, 9.181836e-002
7.019619e+002, 8.577374e-002
7.038903e+002, 8.120351e-002
7.058188e+002, 7.808950e-002
7.077473e+002, 7.605924e-002
7.096757e+002, 7.504483e-002
7.116042e+002, 7.534435e-002
7.135327e+002, 7.658461e-002
7.154611e+002, 7.829957e-002
7.173896e+002, 8.046795e-002
7.193181e+002, 8.324093e-002
7.212465e+002, 8.640824e-002
7.231750e+002, 8.964830e-002
7.251035e+002, 9.336172e-002
7.270319e+002, 9.722463e-002
7.289604e+002, 1.012681e-001
7.308889e+002, 1.049958e-001
7.328173e+002, 1.081153e-001
7.347458e+002, 1.108662e-001
7.366743e+002, 1.131436e-001
7.386027e+002, 1.143297e-001
7.405312e+002, 1.147163e-001
7.424597e+002, 1.140932e-001
7.443881e+002, 1.125568e-001
7.463166e+002, 1.102859e-001
7.482451e+002, 1.073136e-001
7.501735e+002, 1.036865e-001
7.521020e+002, 9.957550e-002
7.540305e+002, 9.486328e-002
7.559589e+002, 9.010638e-002
7.578874e+002, 8.548253e-002
7.598159e+002, 8.084866e-002
7.617443e+002, 7.646476e-002
7.636728e+002, 7.290365e-002
7.656013e+002, 7.025926e-002
7.675297e+002, 6.847219e-002
7.694582e+002, 6.753483e-002
7.713867e+002, 6.744838e-002
7.733151e+002, 6.810181e-002
7.752436e+002, 6.942979e-002
7.771721e+002, 7.132624e-002
7.791005e+002, 7.417941e-002
7.810290e+002, 7.756484e-002
7.829575e+002, 8.125812e-002
7.848859e+002, 8.552705e-002
7.868144e+002, 9.067273e-002
7.887429e+002, 9.635311e-002
7.906713e+002, 1.024957e-001
7.925998e+002, 1.088182e-001
7.945283e+002, 1.154586e-001
7.964567e+002, 1.219357e-001
7.983852e+002, 1.279644e-001
8.003137e+002, 1.332405e-001
8.022421e+002, 1.370714e-001
8.041706e+002, 1.394587e-001
8.060991e+002, 1.399623e-001
8.080275e+002, 1.382555e-001
8.099560e+002, 1.353592e-001
8.118845e+002, 1.314164e-001
8.138129e+002, 1.265590e-001
8.157414e+002, 1.215409e-001
8.176699e+002, 1.160223e-001
8.195983e+002, 1.102501e-001
8.215268e+002, 1.047520e-001
8.234553e+002, 9.927153e-002
8.253837e+002, 9.382713e-002
8.273122e+002, 8.866136e-002
8.292407e+002, 8.362117e-002
8.311691e+002, 7.915369e-002
8.330976e+002, 7.516849e-002
8.350261e+002, 7.167424e-002
8.369545e+002, 6.881191e-002
8.388830e+002, 6.633279e-002
8.408115e+002, 6.417270e-002
8.427399e+002, 6.235090e-002
8.446684e+002, 6.117805e-002
8.465969e+002, 6.040002e-002
8.485253e+002, 5.975947e-002
8.504538e+002, 5.937853e-002
8.523823e+002, 5.963243e-002
8.543107e+002, 6.014669e-002
8.562392e+002, 6.088130e-002
8.581677e+002, 6.191223e-002
8.600961e+002, 6.321824e-002
8.620246e+002, 6.468204e-002
8.639531e+002, 6.618357e-002
8.658815e+002, 6.805062e-002
8.678100e+002, 7.037196e-002
8.697385e+002, 7.261088e-002
8.716669e+002, 7.520624e-002
8.735954e+002, 7.806900e-002
8.755239e+002, 8.081596e-002
8.774523e+002, 8.397400e-002
8.793808e+002, 8.767054e-002
8.813093e+002, 9.131871e-002
8.832377e+002, 9.504910e-002
8.851662e+002, 9.910635e-002
8.870947e+002, 1.033550e-001
8.890231e+002, 1.077030e-001
8.909516e+002, 1.121557e-001
8.928801e+002, 1.170111e-001
8.948085e+002, 1.219408e-001
8.967370e+002, 1.269048e-001
8.986655e+002, 1.323207e-001
9.005939e+002, 1.379040e-001
9.025224e+002, 1.436087e-001
9.044509e+002, 1.496236e-001
9.063793e+002, 1.558553e-001
9.083078e+002, 1.616910e-001
9.102363e+002, 1.673228e-001
9.121647e+002, 1.729983e-001
9.140932e+002, 1.785538e-001
9.160217e+002, 1.841433e-001
9.179501e+002, 1.895826e-001
9.198786e+002, 1.946858e-001
9.218071e+002, 1.995162e-001
9.237355e+002, 2.041477e-001
9.256640e+002, 2.081837e-001
9.275925e+002, 2.120914e-001
9.295209e+002, 2.158451e-001
9.314494e+002, 2.194373e-001
9.333779e+002, 2.224990e-001
9.353063e+002, 2.251779e-001
9.372348e+002, 2.279306e-001
9.391633e+002, 2.306580e-001
9.410917e+002, 2.328749e-001
9.430202e+002, 2.349281e-001
9.449487e+002, 2.368397e-001
9.468771e+002, 2.384207e-001
9.488056e+002, 2.394558e-001
9.507341e+002, 2.395061e-001
9.526625e+002, 2.391058e-001
9.545910e+002, 2.381840e-001
9.565195e+002, 2.359498e-001
9.584479e+002, 2.325914e-001
9.603764e+002, 2.284429e-001
9.623049e+002, 2.229741e-001
9.642333e+002, 2.165943e-001
9.661618e+002, 2.095508e-001
9.680903e+002, 2.018411e-001
9.700187e+002, 1.943220e-001
9.719472e+002, 1.868805e-001
9.738757e+002, 1.792420e-001
9.758041e+002, 1.719365e-001
9.777326e+002, 1.649813e-001
9.796611e+002, 1.582448e-001
9.815895e+002, 1.513712e-001
9.835180e+002, 1.446110e-001
9.854465e+002, 1.384253e-001
9.873749e+002, 1.324491e-001
9.893034e+002, 1.266333e-001
9.912319e+002, 1.210979e-001
9.931603e+002, 1.161618e-001
9.950888e+002, 1.121550e-001
9.970173e+002, 1.094132e-001
9.989457e+002, 1.076780e-001
1.000874e+003, 1.068920e-001
1.002803e+003, 1.068154e-001
1.004731e+003, 1.072282e-001
1.006660e+003, 1.083435e-001
1.008588e+003, 1.101488e-001
1.010517e+003, 1.121590e-001
1.012445e+003, 1.141596e-001
1.014373e+003, 1.153349e-001
1.016302e+003, 1.152492e-001
1.018230e+003, 1.141966e-001
1.020159e+003, 1.116962e-001
1.022087e+003, 1.077693e-001
1.024016e+003, 1.031088e-001
1.025944e+003, 9.850817e-002
1.027873e+003, 9.408984e-002
1.029801e+003, 8.957448e-002
1.031730e+003, 8.515977e-002
1.033658e+003, 8.113616e-002
1.035587e+003, 7.739069e-002
1.037515e+003, 7.370925e-002
1.039443e+003, 7.050005e-002
1.041372e+003, 6.809008e-002
1.043300e+003, 6.598664e-002
1.045229e+003, 6.383180e-002
1.047157e+003, 6.204913e-002
1.049086e+003, 6.058650e-002
1.051014e+003, 5.914283e-002
1.052943e+003, 5.801416e-002
1.054871e+003, 5.691662e-002
1.056800e+003, 5.579211e-002
1.058728e+003, 5.486969e-002
1.060657e+003, 5.420304e-002
1.062585e+003, 5.353167e-002
1.064514e+003, 5.240037e-002
1.066442e+003, 5.110983e-002
1.068370e+003, 4.990673e-002
1.070299e+003, 4.870293e-002
1.072227e+003, 4.733817e-002
1.074156e+003, 4.576203e-002
1.076084e+003, 4.454067e-002
1.078013e+003, 4.353632e-002
1.079941e+003, 4.226843e-002
1.081870e+003, 4.074895e-002
1.083798e+003, 3.926900e-002
1.085727e+003, 3.780060e-002
1.087655e+003, 3.654879e-002
1.089584e+003, 3.549232e-002
1.091512e+003, 3.464194e-002
1.093441e+003, 3.372046e-002
1.095369e+003, 3.298983e-002
1.097297e+003, 3.239654e-002
1.099226e+003, 3.207317e-002
1.101154e+003, 3.191017e-002
1.103083e+003, 3.171439e-002
1.105011e+003, 3.163494e-002
1.106940e+003, 3.160491e-002
1.108868e+003, 3.172076e-002
1.110797e+003, 3.213836e-002
1.112725e+003, 3.264903e-002
1.114654e+003, 3.324002e-002
1.116582e+003, 3.382310e-002
1.118511e+003, 3.443681e-002
1.120439e+003, 3.558112e-002
1.122368e+003, 3.693220e-002
1.124296e+003, 3.807049e-002
1.126224e+003, 3.939943e-002
1.128153e+003, 4.115583e-002
1.130081e+003, 4.327380e-002
1.132010e+003, 4.585700e-002
1.133938e+003, 4.871237e-002
1.135867e+003, 5.178504e-002
1.137795e+003, 5.512947e-002
1.139724e+003, 5.854529e-002
1.141652e+003, 6.155293e-002
1.143581e+003, 6.429919e-002
1.145509e+003, 6.696441e-002
1.147438e+003, 6.898225e-002
1.149366e+003, 7.044910e-002
1.151295e+003, 7.146624e-002
1.153223e+003, 7.223409e-002
1.155151e+003, 7.326641e-002
1.157080e+003, 7.501576e-002
1.159008e+003, 7.762995e-002
1.160937e+003, 8.107229e-002
1.162865e+003, 8.513404e-002
1.164794e+003, 8.991250e-002
1.166722e+003, 9.518048e-002
1.168651e+003, 1.006137e-001
1.170579e+003, 1.059441e-001
1.172508e+003, 1.110319e-001
1.174436e+003, 1.158558e-001
1.176365e+003, 1.203808e-001
1.178293e+003, 1.245649e-001
1.180222e+003, 1.283175e-001
1.182150e+003, 1.317512e-001
1.184078e+003, 1.350453e-001
1.186007e+003, 1.385356e-001
1.187935e+003, 1.426484e-001
1.189864e+003, 1.474451e-001
1.191792e+003, 1.527563e-001
1.193721e+003, 1.579440e-001
1.195649e+003, 1.621625e-001
1.197578e+003, 1.651163e-001
1.199506e+003, 1.661674e-001
1.201435e+003, 1.653330e-001
1.203363e+003, 1.628266e-001
1.205292e+003, 1.587023e-001
1.207220e+003, 1.537819e-001
1.209149e+003, 1.484903e-001
1.211077e+003, 1.431019e-001
1.213005e+003, 1.377953e-001
1.214934e+003, 1.325833e-001
1.216862e+003, 1.271909e-001
1.218791e+003, 1.218135e-001
1.220719e+003, 1.166738e-001
1.222648e+003, 1.116915e-001
1.224576e+003, 1.068323e-001
1.226505e+003, 1.021596e-001
1.228433e+003, 9.768248e-002
1.230362e+003, 9.337587e-002
1.232290e+003, 8.915101e-002
1.234219e+003, 8.490258e-002
1.236147e+003, 8.074424e-002
1.238076e+003, 7.686013e-002
1.240004e+003, 7.326701e-002
1.241932e+003, 6.973928e-002
1.243861e+003, 6.613371e-002
1.245789e+003, 6.269297e-002
1.247718e+003, 5.940459e-002
1.249646e+003, 5.607649e-002
1.251575e+003, 5.286194e-002
1.253503e+003, 4.996051e-002
1.255432e+003, 4.701551e-002
1.257360e+003, 4.406979e-002
1.259289e+003, 4.130556e-002
1.261217e+003, 3.870459e-002
1.263146e+003, 3.625222e-002
1.265074e+003, 3.373257e-002
1.267003e+003, 3.108880e-002
1.268931e+003, 2.882050e-002
1.270859e+003, 2.665518e-002
1.272788e+003, 2.435621e-002
1.274716e+003, 2.199781e-002
1.276645e+003, 1.959625e-002
1.278573e+003, 1.728994e-002
1.280502e+003, 1.505194e-002
1.282430e+003, 1.318796e-002
1.284359e+003, 1.175847e-002
1.286287e+003, 1.042724e-002
1.288216e+003, 9.335736e-003
1.290144e+003, 8.626968e-003
1.292073e+003, 8.161329e-003
1.294001e+003, 7.711801e-003
1.295930e+003, 7.296764e-003
1.297858e+003, 6.883746e-003
1.299786e+003, 6.545981e-003
1.301715e+003, 6.323138e-003
1.303643e+003, 6.126509e-003
1.305572e+003, 5.973186e-003
1.307500e+003, 5.811470e-003
1.309429e+003, 5.494554e-003
1.311357e+003, 5.219579e-003
1.313286e+003, 5.069979e-003
1.315214e+003, 5.044232e-003
1.317143e+003, 4.920618e-003
1.319071e+003, 4.787260e-003
1.321000e+003, 4.667032e-003
1.322928e+003, 4.477236e-003
1.324857e+003, 4.423863e-003
1.326785e+003, 4.446201e-003
1.328714e+003, 4.311123e-003
1.330642e+003, 4.220293e-003
1.332570e+003, 4.225829e-003
1.334499e+003, 4.178320e-003
1.336427e+003, 4.101368e-003
1.338356e+003, 3.859713e-003
1.340284e+003, 3.730561e-003
1.342213e+003, 3.780244e-003
1.344141e+003, 3.722162e-003
1.346070e+003, 3.669656e-003
1.347998e+003, 3.585038e-003
1.349927e+003, 3.577843e-003
1.351855e+003, 3.702614e-003
1.353784e+003, 3.693233e-003
1.355712e+003, 3.464718e-003
1.357641e+003, 3.381382e-003
1.359569e+003, 3.381799e-003
1.361497e+003, 3.248790e-003
1.363426e+003, 3.227919e-003
1.365354e+003, 3.354082e-003
1.367283e+003, 3.164736e-003
1.369211e+003, 3.114438e-003
1.371140e+003, 3.120883e-003
1.373068e+003, 2.945218e-003
1.374997e+003, 2.879093e-003
1.376925e+003, 2.926189e-003
1.378854e+003, 2.911930e-003
1.380782e+003, 2.943087e-003
1.382711e+003, 2.910335e-003
1.384639e+003, 2.854336e-003
1.386568e+003, 2.716633e-003
1.388496e+003, 2.918616e-003
1.390424e+003, 3.063838e-003
1.392353e+003, 2.852396e-003
1.394281e+003, 2.576917e-003
1.396210e+003, 2.629558e-003
1.398138e+003, 2.630501e-003
1.400067e+003, 2.738187e-003
1.401995e+003, 2.991244e-003
1.403924e+003, 2.862489e-003
1.405852e+003, 2.958731e-003
1.407781e+003, 3.119138e-003
1.409709e+003, 3.002836e-003
1.411638e+003, 2.872031e-003
1.413566e+003, 2.935688e-003
1.415495e+003, 2.918978e-003
1.417423e+003, 2.504189e-003
1.419351e+003, 2.232204e-003
1.421280e+003, 2.555490e-003
1.423208e+003, 2.655674e-003
1.425137e+003, 2.710694e-003
1.427065e+003, 2.746102e-003
1.428994e+003, 2.711362e-003
1.430922e+003, 2.850524e-003
1.432851e+003, 2.969480e-003
1.434779e+003, 2.665011e-003
1.436708e+003, 2.151856e-003
1.438636e+003, 2.539868e-003
1.440565e+003, 2.739863e-003
1.442493e+003, 2.753923e-003
1.444422e+003, 2.982432e-003
1.446350e+003, 2.979312e-003
1.448278e+003, 2.878695e-003
1.450207e+003, 2.903448e-003
1.452135e+003, 2.752776e-003
1.454064e+003, 2.586881e-003
1.455992e+003, 1.762138e-003
1.457921e+003, 1.716587e-003
1.459849e+003, 2.403105e-003
1.461778e+003, 2.673268e-003
1.463706e+003, 2.519142e-003
1.465635e+003, 2.411438e-003
1.467563e+003, 2.525299e-003
1.469492e+003, 2.297184e-003
1.471420e+003, 1.724256e-003
1.473349e+003, 1.737014e-003
1.475277e+003, 2.192411e-003
1.477205e+003, 2.278988e-003
1.479134e+003, 2.379578e-003
1.481062e+003, 2.369462e-003
1.482991e+003, 2.338797e-003
1.484919e+003, 2.232895e-003
1.486848e+003, 2.012520e-003
1.488776e+003, 1.841012e-003
1.490705e+003, 1.796319e-003
1.492633e+003, 1.937798e-003
1.494562e+003, 1.674619e-003
1.496490e+003, 1.417522e-003
1.498419e+003, 1.680594e-003
1.500347e+003, 1.965641e-003
1.502276e+003, 1.922422e-003
1.504204e+003, 1.300252e-003
1.506132e+003, 4.963186e-004
1.508061e+003, 8.855774e-004
1.509989e+003, 1.418751e-003
1.511918e+003, 1.369394e-003
1.513846e+003, 1.289857e-003
1.515775e+003, 1.125147e-003
1.517703e+003, 1.285155e-003
1.519632e+003, 9.178495e-004
1.521560e+003, 4.076347e-004
1.523489e+003, 7.851931e-004
1.525417e+003, 1.083930e-003
1.527346e+003, 1.420068e-003
1.529274e+003, 1.746806e-003
1.531203e+003, 1.738162e-003
1.533131e+003, 1.607680e-003
1.535059e+003, 1.920705e-003
1.536988e+003, 1.679487e-003
1.538916e+003, 8.199434e-004
1.540845e+003, 1.184490e-003
1.542773e+003, 2.243961e-003
1.544702e+003, 2.790654e-003
1.546630e+003, 3.050634e-003
1.548559e+003, 2.926452e-003
1.550487e+003, 2.546835e-003
1.552416e+003, 2.260768e-003
1.554344e+003, 1.901075e-003
1.556273e+003, 1.559231e-003
1.558201e+003, 4.937288e-004
1.560130e+003, 4.805615e-004
1.562058e+003, 1.637416e-003
1.563986e+003, 2.113125e-003
1.565915e+003, 2.255011e-003
1.567843e+003, 2.096333e-003
1.569772e+003, 2.026808e-003
1.571700e+003, 2.323412e-003
1.573629e+003, 2.134218e-003
1.575557e+003, 1.347807e-003
1.577486e+003, 1.721118e-003
1.579414e+003, 2.404309e-003
1.581343e+003, 2.622058e-003
1.583271e+003, 2.693027e-003
1.585200e+003, 2.377263e-003
1.587128e+003, 2.325908e-003
1.589057e+003, 2.538903e-003
1.590985e+003, 2.711680e-003
1.592913e+003, 2.799905e-003
1.594842e+003, 3.080621e-003
1.596770e+003, 3.472653e-003
1.598699e+003, 3.631992e-003
1.600627e+003, 3.481304e-003
1.602556e+003, 3.175935e-003
1.604484e+003, 2.854490e-003
1.606413e+003, 2.752963e-003
1.608341e+003, 2.582948e-003
1.610270e+003, 2.425731e-003
1.612198e+003, 2.643027e-003
1.614127e+003, 2.593258e-003
1.616055e+003, 2.080221e-003
1.617984e+003, 2.449552e-003
1.619912e+003, 3.163627e-003
1.621840e+003, 3.308401e-003
1.623769e+003, 3.574817e-003
1.625697e+003, 4.198354e-003
1.627626e+003, 4.868474e-003
1.629554e+003, 5.482748e-003
1.631483e+003, 5.804730e-003
1.633411e+003, 5.047708e-003
1.635340e+003, 3.660202e-003
1.637268e+003, 3.389043e-003
1.639197e+003, 3.304801e-003
1.641125e+003, 2.997420e-003
1.643054e+003, 2.761798e-003
1.644982e+003, 2.104720e-003
1.646911e+003, 1.869162e-003
1.648839e+003, 2.287049e-003
1.650767e+003, 1.686519e-003
1.652696e+003, 2.766755e-004
1.654624e+003, 1.106937e-003
1.656553e+003, 2.441596e-003
1.658481e+003, 2.637011e-003
1.660410e+003, 2.320671e-003
1.662338e+003, 1.992960e-003
1.664267e+003, 2.125289e-003
1.666195e+003, 2.275997e-003
1.668124e+003, 1.864242e-003
1.670052e+003, 1.556243e-003
1.671981e+003, 1.678697e-003
1.673909e+003, 1.500994e-003
1.675838e+003, 1.386061e-003
1.677766e+003, 1.870096e-003
1.679694e+003, 1.993455e-003
1.681623e+003, 1.584037e-003
1.683551e+003, 3.823706e-004
1.685480e+003, 5.473316e-004
1.687408e+003, 1.553095e-003
1.689337e+003, 1.718912e-003
1.691265e+003, 1.840533e-003
1.693194e+003, 1.593644e-003
1.695122e+003, 6.116566e-004
1.697051e+003, 7.617340e-004
1.698979e+003, 5.353246e-004
1.700908e+003, 4.021233e-004
1.702836e+003, 1.642514e-003
1.704765e+003, 1.743857e-003
1.706693e+003, 1.717331e-003
1.708621e+003, 1.791114e-003
1.710550e+003, 1.905306e-003
1.712478e+003, 1.872141e-003
1.714407e+003, 1.539088e-003
1.716335e+003, 8.132512e-004
1.718264e+003, 7.444776e-004
1.720192e+003, 1.463567e-003
1.722121e+003, 1.655503e-003
1.724049e+003, 1.502238e-003
1.725978e+003, 1.438038e-003
1.727906e+003, 1.364060e-003
1.729835e+003, 1.132624e-003
1.731763e+003, 5.509637e-004
1.733692e+003, -3.170851e-004
1.735620e+003, 2.990934e-004
1.737548e+003, 8.237173e-004
1.739477e+003, 6.056578e-004
1.741405e+003, 8.891761e-004
1.743334e+003, 1.031413e-003
1.745262e+003, 8.835362e-004
1.747191e+003, 9.299699e-004
1.749119e+003, 7.882152e-004
1.751048e+003, 5.928790e-004
1.752976e+003, 9.814758e-004
1.754905e+003, 1.005862e-003
1.756833e+003, 8.125647e-004
1.758762e+003, 9.858191e-004
1.760690e+003, 9.375026e-004
1.762619e+003, 9.964283e-004
1.764547e+003, 1.368139e-003
1.766475e+003, 1.280241e-003
1.768404e+003, 9.260706e-004
1.770332e+003, 5.336631e-004
1.772261e+003, 2.913798e-004
1.774189e+003, 8.518269e-004
1.776118e+003, 1.288733e-003
1.778046e+003, 1.208426e-003
1.779975e+003, 1.119978e-003
1.781903e+003, 1.162838e-003
1.783832e+003, 1.111734e-003
1.785760e+003, 1.045233e-003
1.787689e+003, 1.244621e-003
1.789617e+003, 1.049305e-003
1.791546e+003, 5.987217e-004
1.793474e+003, 7.079290e-004
1.795402e+003, 1.180073e-003
1.797331e+003, 1.325055e-003
1.799259e+003, 1.118831e-003
1.801188e+003, 9.869564e-004
1.803116e+003, 8.316849e-004
1.805045e+003, 7.500998e-004
1.806973e+003, 9.684977e-004
1.808902e+003, 7.746686e-004
1.810830e+003, 6.053313e-004
1.812759e+003, 6.173615e-004
1.814687e+003, 5.745877e-004
1.816616e+003, 4.531365e-004
1.818544e+003, 5.942510e-004
1.820473e+003, 8.842259e-004
1.822401e+003, 1.078351e-003
1.824329e+003, 6.994864e-004
1.826258e+003, 6.510756e-004
1.828186e+003, 6.321369e-004
1.830115e+003, 5.501187e-004
1.832043e+003, 6.367442e-004
1.833972e+003, 3.218031e-004
1.835900e+003, -3.824395e-006
1.837829e+003, 1.714698e-005
1.839757e+003, -1.056308e-004
1.841686e+003, -3.315046e-004
1.843614e+003, -5.034461e-004
1.845543e+003, -1.418392e-004
1.847471e+003, 4.038500e-004
1.849400e+003, 5.800297e-004
1.851328e+003, 2.715232e-004
1.853256e+003, 2.195636e-004
1.855185e+003, 2.883709e-004
1.857113e+003, 7.568625e-005
1.859042e+003, -1.968132e-004
1.860970e+003, -2.030899e-004
1.862899e+003, -3.953829e-005
1.864827e+003, -2.115417e-004
1.866756e+003, -3.606800e-004
1.868684e+003, -4.153070e-004
1.870613e+003, -2.013950e-004
1.872541e+003, -5.435891e-004
1.874470e+003, -8.040114e-004
1.876398e+003, -3.348043e-004
1.878327e+003, -6.827919e-006
1.880255e+003, -4.762038e-006
1.882183e+003, -4.674418e-004
1.884112e+003, -1.014886e-003
1.886040e+003, -6.405670e-004
1.887969e+003, -4.692114e-004
1.889897e+003, -1.150661e-003
1.891826e+003, -1.327502e-003
1.893754e+003, -1.216302e-003
1.895683e+003, -1.008109e-003
1.897611e+003, -6.362253e-004
1.899540e+003, -4.497717e-004
1.901468e+003, -9.116078e-004
1.903397e+003, -8.780779e-004
1.905325e+003, -2.977602e-004
1.907254e+003, -2.364616e-004
1.909182e+003, -5.075431e-004
1.911110e+003, -7.565295e-004
1.913039e+003, -9.789630e-004
1.914967e+003, -5.943514e-004
1.916896e+003, -3.870739e-004
1.918824e+003, -9.258363e-004
1.920753e+003, -1.025401e-003
1.922681e+003, -5.160192e-004
1.924610e+003, -4.321792e-004
1.926538e+003, -5.810495e-004
1.928467e+003, -8.173256e-004
1.930395e+003, -8.434276e-004
1.932324e+003, -1.411132e-004
1.934252e+003, -3.573787e-004
1.936181e+003, -8.806360e-004
1.938109e+003, -3.658632e-004
1.940037e+003, -2.888592e-004
1.941966e+003, -1.891037e-004
1.943894e+003, -6.208624e-004
1.945823e+003, -8.210448e-004
1.947751e+003, -6.481551e-005
1.949680e+003, 7.080962e-005
1.951608e+003, -5.605379e-004
1.953537e+003, -8.373454e-004
1.955465e+003, -9.515667e-004
1.957394e+003, -3.927746e-004
1.959322e+003, -2.421015e-004
1.961251e+003, -4.761806e-005
1.963179e+003, 3.583007e-005
1.965108e+003, -2.909815e-004
1.967036e+003, -7.225040e-004
1.968964e+003, 1.847139e-005
1.970893e+003, -6.134135e-004
1.972821e+003, -7.960761e-004
1.974750e+003, -1.780782e-004
1.976678e+003, 3.030319e-004
1.978607e+003, 2.361946e-003
1.980535e+003, 3.528082e-003
1.982464e+003, 2.059705e-003
1.984392e+003, 3.846125e-004
1.986321e+003, 1.077666e-004
1.988249e+003, -2.718735e-004
1.990178e+003, 1.844624e-004
1.992106e+003, 9.543221e-004
1.994035e+003, 9.095042e-004
1.995963e+003, 3.068170e-004
1.997891e+003, 7.355213e-004
1.999820e+003, 1.621331e-003
2.001748e+003, 1.954819e-003
2.003677e+003, 9.511861e-004
2.005605e+003, -3.378137e-004
2.007534e+003, -5.496037e-004
2.009462e+003, 6.068707e-004
2.011391e+003, 2.245276e-003
2.013319e+003, 2.641904e-003
2.015248e+003, 9.125620e-004
2.017176e+003, -5.012653e-004
2.019105e+003, 1.721503e-004
2.021033e+003, 3.841124e-004
2.022962e+003, -5.384814e-004
2.024890e+003, -1.822091e-004
2.026818e+003, -4.622475e-004
2.028747e+003, -6.326749e-004
2.030675e+003, 3.885245e-005
2.032604e+003, 6.966866e-004
2.034532e+003, 1.313617e-003
2.036461e+003, 1.054576e-003
2.038389e+003, 1.309648e-003
2.040318e+003, 1.517197e-003
2.042246e+003, 1.499252e-003
2.044175e+003, 1.722882e-003
2.046103e+003, 1.765582e-003
2.048031e+003, 2.172400e-003
2.049960e+003, 2.707394e-003
2.051888e+003, 2.451151e-003
2.053817e+003, 1.978710e-003
2.055745e+003, 1.726035e-003
2.057674e+003, 1.878607e-003
2.059602e+003, 9.754982e-004
2.061531e+003, -7.328345e-006
2.063459e+003, 8.655760e-004
2.065388e+003, 1.832162e-003
2.067316e+003, 1.365334e-003
2.069245e+003, 8.071809e-004
2.071173e+003, 1.137823e-003
2.073102e+003, 1.080944e-003
2.075030e+003, 1.373800e-003
2.076958e+003, 1.192517e-003
2.078887e+003, 7.421311e-004
2.080815e+003, 1.066405e-003
2.082744e+003, 9.432380e-004
2.084672e+003, 1.038027e-003
2.086601e+003, 6.505057e-004
2.088529e+003, 3.072403e-004
2.090458e+003, 7.065444e-004
2.092386e+003, 1.105762e-003
2.094315e+003, 1.417081e-003
2.096243e+003, 1.079464e-003
2.098172e+003, 4.295594e-004
2.100100e+003, 8.740398e-004
2.102029e+003, 1.091640e-003
2.103957e+003, 1.228022e-003
2.105885e+003, 2.022285e-003
2.107814e+003, 1.931286e-003
2.109742e+003, 7.523542e-004
2.111671e+003, 5.703343e-004
2.113599e+003, 9.468311e-004
2.115528e+003, 1.079338e-003
2.117456e+003, 1.020914e-003
2.119385e+003, 1.306473e-003
2.121313e+003, 1.284386e-003
2.123242e+003, 7.337717e-004
2.125170e+003, 4.759162e-004
2.127099e+003, 2.935793e-004
2.129027e+003, 5.687963e-004
2.130956e+003, 3.606041e-004
2.132884e+003, -1.679880e-004
2.134813e+003, 1.037258e-003
2.136741e+003, 1.723128e-003
2.138669e+003, 1.081036e-003
2.140598e+003, 1.131459e-003
2.142526e+003, 1.624382e-003
2.144455e+003, 1.681321e-003
2.146383e+003, 7.910996e-004
2.148312e+003, 1.084176e-004
2.150240e+003, 1.499630e-004
2.152169e+003, 1.740960e-003
2.154097e+003, 2.417664e-003
2.156026e+003, 1.917067e-003
2.157954e+003, 2.847183e-003
2.159883e+003, 6.376160e-003
2.161811e+003, 7.296083e-003
2.163740e+003, 6.436590e-003
2.165668e+003, 7.318927e-003
2.167596e+003, 8.059835e-003
2.169525e+003, 6.836391e-003
2.171453e+003, 5.427930e-003
2.173382e+003, 5.096366e-003
2.175310e+003, 4.799160e-003
2.177239e+003, 5.656525e-003
2.179167e+003, 6.522431e-003
2.181096e+003, 5.697198e-003
2.183024e+003, 5.716795e-003
2.184953e+003, 6.379136e-003
2.186881e+003, 5.442869e-003
2.188810e+003, 3.898712e-003
2.190738e+003, 4.197752e-003
2.192667e+003, 5.384683e-003
2.194595e+003, 6.102297e-003
2.196523e+003, 5.855265e-003
2.198452e+003, 5.418503e-003
2.200380e+003, 5.710152e-003
2.202309e+003, 6.438926e-003
2.204237e+003, 6.167577e-003
2.206166e+003, 5.111872e-003
2.208094e+003, 4.998790e-003
2.210023e+003, 4.687793e-003
2.211951e+003, 4.160602e-003
2.213880e+003, 3.887304e-003
2.215808e+003, 4.665892e-003
2.217737e+003, 5.216757e-003
2.219665e+003, 4.663934e-003
2.221594e+003, 4.460905e-003
2.223522e+003, 4.574554e-003
2.225450e+003, 4.798353e-003
2.227379e+003, 5.362047e-003
2.229307e+003, 5.098852e-003
2.231236e+003, 3.970637e-003
2.233164e+003, 3.920495e-003
2.235093e+003, 4.487336e-003
2.237021e+003, 4.805819e-003
2.238950e+003, 5.590321e-003
2.240878e+003, 5.089251e-003
2.242807e+003, 4.345617e-003
2.244735e+003, 4.252145e-003
2.246664e+003, 3.892324e-003
2.248592e+003, 3.519355e-003
2.250521e+003, 3.639927e-003
2.252449e+003, 3.251379e-003
2.254377e+003, 2.879686e-003
2.256306e+003, 3.449947e-003
2.258234e+003, 3.373700e-003
2.260163e+003, 3.227151e-003
2.262091e+003, 3.196248e-003
2.264020e+003, 3.214275e-003
2.265948e+003, 3.150463e-003
2.267877e+003, 3.095787e-003
2.269805e+003, 3.320982e-003
2.271734e+003, 4.308762e-003
2.273662e+003, 5.097253e-003
2.275591e+003, 4.931869e-003
2.277519e+003, 4.348808e-003
2.279448e+003, 3.627401e-003
2.281376e+003, 3.705117e-003
2.283304e+003, 3.786401e-003
2.285233e+003, 3.420620e-003
2.287161e+003, 3.066428e-003
2.289090e+003, 3.001272e-003
2.291018e+003, 3.047671e-003
2.292947e+003, 2.804186e-003
2.294875e+003, 2.644456e-003
2.296804e+003, 2.228713e-003
2.298732e+003, 2.061781e-003
2.300661e+003, 2.244296e-003
2.302589e+003, 2.529916e-003
2.304518e+003, 2.545040e-003
2.306446e+003, 2.197341e-003
2.308375e+003, 1.661108e-003
2.310303e+003, 1.617471e-003
2.312231e+003, 2.194378e-003
2.314160e+003, 2.193776e-003
2.316088e+003, 1.999464e-003
2.318017e+003, 2.252156e-003
2.319945e+003, 2.643595e-003
2.321874e+003, 3.203526e-003
2.323802e+003, 3.302606e-003
2.325731e+003, 2.255359e-003
2.327659e+003, 1.668323e-003
2.329588e+003, 1.233085e-003
2.331516e+003, 8.810058e-004
2.333445e+003, 1.004477e-003
2.335373e+003, 1.083930e-003
2.337302e+003, 8.365473e-004
2.339230e+003, 7.327126e-004
2.341158e+003, 7.973167e-004
2.343087e+003, 1.012847e-003
2.345015e+003, 9.860144e-004
2.346944e+003, 1.098987e-003
2.348872e+003, 1.420218e-003
2.350801e+003, 1.216762e-003
2.352729e+003, 6.071199e-004
2.354658e+003, 4.372650e-004
2.356586e+003, 7.531992e-004
2.358515e+003, 7.055633e-004
2.360443e+003, 4.357799e-004
2.362372e+003, 4.259519e-004
2.364300e+003, 3.554942e-004
2.366229e+003, 2.635121e-004
2.368157e+003, 2.063505e-004
2.370085e+003, 1.191819e-005
2.372014e+003, -4.366081e-005
2.373942e+003, 2.610376e-004
2.375871e+003, 3.814354e-004
2.377799e+003, -2.697182e-005
2.379728e+003, -5.240089e-004
2.381656e+003, -4.742365e-004
2.383585e+003, -4.274126e-004
2.385513e+003, -5.831743e-004
2.387442e+003, -2.622075e-004
2.389370e+003, 5.728108e-005
2.391299e+003, -1.195858e-004
2.393227e+003, -6.393121e-005
2.395156e+003, 5.345033e-005
2.397084e+003, -2.615833e-004
2.399012e+003, -6.643168e-004
2.400941e+003, -8.666636e-004
2.402869e+003, -8.753716e-004
2.404798e+003, -8.390503e-004
2.406726e+003, -3.994168e-004
2.408655e+003, 1.018832e-004
2.410583e+003, 1.831620e-004
2.412512e+003, -3.422110e-004
2.414440e+003, -1.073223e-004
2.416369e+003, 3.923539e-004
2.418297e+003, 6.348411e-004
2.420226e+003, 7.104769e-004
2.422154e+003, 2.921587e-004
2.424083e+003, -2.008706e-005
2.426011e+003, -1.263905e-004
2.427939e+003, -4.403834e-005
2.429868e+003, 1.620434e-004
2.431796e+003, 5.611236e-004
2.433725e+003, 5.526780e-004
2.435653e+003, 2.937971e-004
2.437582e+003, 2.717263e-004
2.439510e+003, 4.610037e-004
2.441439e+003, 6.166704e-004
2.443367e+003, 5.509820e-004
2.445296e+003, 5.205189e-004
2.447224e+003, 6.731679e-004
2.449153e+003, 7.992245e-004
2.451081e+003, 7.480361e-004
2.453010e+003, 8.465911e-004
2.454938e+003, 1.111060e-003
2.456866e+003, 1.382988e-003
2.458795e+003, 1.514594e-003
2.460723e+003, 2.020144e-003
2.462652e+003, 1.635301e-003
2.464580e+003, 1.373585e-003
2.466509e+003, 1.494407e-003
2.468437e+003, 1.615300e-003
2.470366e+003, 2.309100e-003
2.472294e+003, 2.317680e-003
2.474223e+003, 1.816057e-003
2.476151e+003, 1.675535e-003
2.478080e+003, 1.499103e-003
2.480008e+003, 1.267651e-003
2.481937e+003, 1.243185e-003
2.483865e+003, 1.873142e-003
2.485793e+003, 2.372162e-003
2.487722e+003, 2.318859e-003
2.489650e+003, 1.602769e-003
2.491579e+003, 1.427271e-003
2.493507e+003, 1.901676e-003
2.495436e+003, 2.093901e-003
2.497364e+003, 1.790643e-003
2.499293e+003, 1.308487e-003
2.501221e+003, 1.452337e-003
2.503150e+003, 1.778365e-003
2.505078e+003, 1.749722e-003
2.507007e+003, 1.919511e-003
2.508935e+003, 2.347215e-003
2.510864e+003, 2.076271e-003
2.512792e+003, 1.647969e-003
2.514720e+003, 2.098554e-003
2.516649e+003, 2.142535e-003
2.518577e+003, 2.239498e-003
2.520506e+003, 2.075512e-003
2.522434e+003, 1.946030e-003
2.524363e+003, 2.312747e-003
2.526291e+003, 2.205844e-003
2.528220e+003, 2.064857e-003
2.530148e+003, 2.350815e-003
2.532077e+003, 2.627932e-003
2.534005e+003, 2.470407e-003
2.535934e+003, 2.326366e-003
2.537862e+003, 2.423358e-003
2.539791e+003, 2.698998e-003
2.541719e+003, 2.605119e-003
2.543647e+003, 2.813826e-003
2.545576e+003, 2.966809e-003
2.547504e+003, 2.446881e-003
2.549433e+003, 2.437785e-003
2.551361e+003, 2.624435e-003
2.553290e+003, 2.628977e-003
2.555218e+003, 3.410603e-003
2.557147e+003, 3.641570e-003
2.559075e+003, 3.303614e-003
2.561004e+003, 3.218540e-003
2.562932e+003, 3.661028e-003
2.564861e+003, 3.680711e-003
2.566789e+003, 3.177588e-003
2.568718e+003, 3.121529e-003
2.570646e+003, 3.424631e-003
2.572574e+003, 3.682340e-003
2.574503e+003, 3.520098e-003
2.576431e+003, 3.403762e-003
2.578360e+003, 3.864982e-003
2.580288e+003, 3.916398e-003
2.582217e+003, 3.536434e-003
2.584145e+003, 3.381708e-003
2.586074e+003, 3.454885e-003
2.588002e+003, 3.643059e-003
2.589931e+003, 3.713295e-003
2.591859e+003, 3.876538e-003
2.593788e+003, 3.916382e-003
2.595716e+003, 3.276329e-003
2.597645e+003, 3.313931e-003
2.599573e+003, 3.602411e-003
2.601501e+003, 3.910959e-003
2.603430e+003, 4.170369e-003
2.605358e+003, 4.339549e-003
2.607287e+003, 4.308915e-003
2.609215e+003, 4.176904e-003
2.611144e+003, 4.488273e-003
2.613072e+003, 4.289092e-003
2.615001e+003, 3.907469e-003
2.616929e+003, 4.029626e-003
2.618858e+003, 4.305441e-003
2.620786e+003, 4.531283e-003
2.622715e+003, 4.240946e-003
2.624643e+003, 3.886631e-003
2.626572e+003, 3.961261e-003
2.628500e+003, 4.236608e-003
2.630428e+003, 4.548433e-003
2.632357e+003, 4.280402e-003
2.634285e+003, 4.009681e-003
2.636214e+003, 3.685455e-003
2.638142e+003, 3.441387e-003
2.640071e+003, 3.554631e-003
2.641999e+003, 3.996628e-003
2.643928e+003, 4.135536e-003
2.645856e+003, 3.648655e-003
2.647785e+003, 3.514835e-003
2.649713e+003, 3.757842e-003
2.651642e+003, 3.708831e-003
2.653570e+003, 3.671235e-003
2.655499e+003, 3.572166e-003
2.657427e+003, 3.411543e-003
2.659355e+003, 3.151888e-003
2.661284e+003, 3.165150e-003
2.663212e+003, 3.052960e-003
2.665141e+003, 2.821017e-003
2.667069e+003, 2.902361e-003
2.668998e+003, 3.037720e-003
2.670926e+003, 2.936099e-003
2.672855e+003, 2.904098e-003
2.674783e+003, 3.032784e-003
2.676712e+003, 3.111643e-003
2.678640e+003, 2.962510e-003
2.680569e+003, 2.677467e-003
2.682497e+003, 2.633432e-003
2.684426e+003, 2.998437e-003
2.686354e+003, 2.830385e-003
2.688282e+003, 2.776283e-003
2.690211e+003, 3.060565e-003
2.692139e+003, 3.315539e-003
2.694068e+003, 3.178252e-003
2.695996e+003, 3.136739e-003
2.697925e+003, 3.121901e-003
2.699853e+003, 2.773794e-003
2.701782e+003, 2.487132e-003
2.703710e+003, 2.869282e-003
2.705639e+003, 3.309414e-003
2.707567e+003, 3.248594e-003
2.709496e+003, 2.957072e-003
2.711424e+003, 2.870540e-003
2.713353e+003, 3.126342e-003
2.715281e+003, 3.423401e-003
2.717209e+003, 3.362141e-003
2.719138e+003, 3.338949e-003
2.721066e+003, 3.287949e-003
2.722995e+003, 3.357270e-003
2.724923e+003, 3.306439e-003
2.726852e+003, 3.314421e-003
2.728780e+003, 3.120103e-003
2.730709e+003, 3.329091e-003
2.732637e+003, 3.394079e-003
2.734566e+003, 3.484551e-003
2.736494e+003, 3.371745e-003
2.738423e+003, 3.408217e-003
2.740351e+003, 3.657556e-003
2.742280e+003, 3.523875e-003
2.744208e+003, 3.274480e-003
2.746136e+003, 3.252425e-003
2.748065e+003, 3.356137e-003
2.749993e+003, 3.507633e-003
2.751922e+003, 3.634822e-003
2.753850e+003, 3.736199e-003
2.755779e+003, 3.600626e-003
2.757707e+003, 3.854466e-003
2.759636e+003, 3.854869e-003
2.761564e+003, 3.798596e-003
2.763493e+003, 3.540533e-003
2.765421e+003, 3.327386e-003
2.767350e+003, 3.513678e-003
2.769278e+003, 3.469520e-003
2.771207e+003, 3.566364e-003
2.773135e+003, 3.859513e-003
2.775063e+003, 3.812115e-003
2.776992e+003, 3.791483e-003
2.778920e+003, 3.773452e-003
2.780849e+003, 3.895824e-003
2.782777e+003, 4.142697e-003
2.784706e+003, 4.410652e-003
2.786634e+003, 4.180278e-003
2.788563e+003, 3.784966e-003
2.790491e+003, 3.593170e-003
2.792420e+003, 3.414316e-003
2.794348e+003, 3.788293e-003
2.796277e+003, 3.877281e-003
2.798205e+003, 3.871845e-003
2.800134e+003, 4.044925e-003
2.802062e+003, 3.835892e-003
2.803990e+003, 3.309920e-003
2.805919e+003, 3.392055e-003
2.807847e+003, 3.630996e-003
2.809776e+003, 3.735198e-003
2.811704e+003, 3.798378e-003
2.813633e+003, 3.691968e-003
2.815561e+003, 3.624650e-003
2.817490e+003, 3.812823e-003
2.819418e+003, 3.907652e-003
2.821347e+003, 3.947041e-003
2.823275e+003, 4.326508e-003
2.825204e+003, 4.052640e-003
2.827132e+003, 3.712148e-003
2.829061e+003, 3.873066e-003
2.830989e+003, 4.224696e-003
2.832917e+003, 4.482433e-003
2.834846e+003, 4.605834e-003
2.836774e+003, 4.074449e-003
2.838703e+003, 3.670707e-003
2.840631e+003, 3.620846e-003
2.842560e+003, 3.735044e-003
2.844488e+003, 3.732682e-003
2.846417e+003, 3.759535e-003
2.848345e+003, 3.438120e-003
2.850274e+003, 3.338663e-003
2.852202e+003, 3.261025e-003
2.854131e+003, 3.476368e-003
2.856059e+003, 3.642241e-003
2.857988e+003, 3.569484e-003
2.859916e+003, 3.601532e-003
2.861844e+003, 3.613373e-003
2.863773e+003, 3.635539e-003
2.865701e+003, 3.729363e-003
2.867630e+003, 3.647310e-003
2.869558e+003, 3.370985e-003
2.871487e+003, 3.153240e-003
2.873415e+003, 3.399760e-003
2.875344e+003, 3.613404e-003
2.877272e+003, 3.854621e-003
2.879201e+003, 3.526426e-003
2.881129e+003, 3.035850e-003
2.883058e+003, 3.343430e-003
2.884986e+003, 3.805681e-003
2.886915e+003, 4.023524e-003
2.888843e+003, 3.890625e-003
2.890771e+003, 3.788059e-003
2.892700e+003, 3.964805e-003
2.894628e+003, 3.863935e-003
2.896557e+003, 3.425175e-003
2.898485e+003, 3.505435e-003
2.900414e+003, 3.524565e-003
2.902342e+003, 3.580327e-003
2.904271e+003, 4.011706e-003
2.906199e+003, 4.081441e-003
2.908128e+003, 3.327454e-003
2.910056e+003, 3.175493e-003
2.911985e+003, 3.862587e-003
2.913913e+003, 3.657105e-003
2.915842e+003, 3.541088e-003
2.917770e+003, 3.322969e-003
2.919698e+003, 3.116221e-003
2.921627e+003, 3.584865e-003
2.923555e+003, 3.909507e-003
2.925484e+003, 3.488130e-003
2.927412e+003, 3.232194e-003
2.929341e+003, 3.430399e-003
2.931269e+003, 3.321062e-003
2.933198e+003, 3.589377e-003
2.935126e+003, 3.635039e-003
2.937055e+003, 3.343999e-003
2.938983e+003, 3.496285e-003
2.940912e+003, 3.772221e-003
2.942840e+003, 3.697089e-003
2.944769e+003, 3.298934e-003
2.946697e+003, 3.343583e-003
2.948625e+003, 3.517713e-003
2.950554e+003, 3.624611e-003
2.952482e+003, 3.527762e-003
2.954411e+003, 3.320014e-003
2.956339e+003, 3.179094e-003
2.958268e+003, 3.348272e-003
2.960196e+003, 3.373234e-003
2.962125e+003, 2.797623e-003
2.964053e+003, 2.851393e-003
2.965982e+003, 3.123856e-003
2.967910e+003, 2.912022e-003
2.969839e+003, 2.935772e-003
2.971767e+003, 2.811648e-003
2.973696e+003, 2.713279e-003
2.975624e+003, 3.307308e-003
2.977552e+003, 3.752861e-003
2.979481e+003, 3.449655e-003
2.981409e+003, 3.040725e-003
2.983338e+003, 3.448113e-003
2.985266e+003, 3.496252e-003
2.987195e+003, 3.112432e-003
2.989123e+003, 3.177620e-003
2.991052e+003, 3.201273e-003
2.992980e+003, 3.236089e-003
2.994909e+003, 3.113383e-003
2.996837e+003, 2.901857e-003
2.998766e+003, 3.274047e-003
3.000694e+003, 3.878430e-003
3.002623e+003, 3.214486e-003
3.004551e+003, 3.259300e-003
3.006479e+003, 3.518220e-003
3.008408e+003, 3.617889e-003
3.010336e+003, 3.389787e-003
3.012265e+003, 3.246200e-003
3.014193e+003, 3.440764e-003
3.016122e+003, 3.228804e-003
3.018050e+003, 3.196756e-003
3.019979e+003, 3.467868e-003
3.021907e+003, 3.685887e-003
3.023836e+003, 3.784271e-003
3.025764e+003, 3.625725e-003
3.027693e+003, 3.288542e-003
3.029621e+003, 3.121285e-003
3.031550e+003, 3.289272e-003
3.033478e+003, 3.544156e-003
3.035406e+003, 3.783529e-003
3.037335e+003, 3.612238e-003
3.039263e+003, 3.453037e-003
3.041192e+003, 3.470970e-003
3.043120e+003, 3.584833e-003
3.045049e+003, 4.185138e-003
3.046977e+003, 3.993457e-003
3.048906e+003, 4.043994e-003
3.050834e+003, 3.774720e-003
3.052763e+003, 3.742371e-003
3.054691e+003, 4.053989e-003
3.056620e+003, 3.529926e-003
3.058548e+003, 3.293433e-003
3.060477e+003, 3.721128e-003
3.062405e+003, 3.889603e-003
3.064333e+003, 4.040813e-003
3.066262e+003, 3.973525e-003
3.068190e+003, 3.251760e-003
3.070119e+003, 3.095489e-003
3.072047e+003, 3.747786e-003
3.073976e+003, 4.271350e-003
3.075904e+003, 4.038528e-003
3.077833e+003, 3.423445e-003
3.079761e+003, 3.257037e-003
3.081690e+003, 3.298486e-003
3.083618e+003, 3.672566e-003
3.085547e+003, 4.063874e-003
3.087475e+003, 4.036092e-003
3.089404e+003, 3.794010e-003
3.091332e+003, 3.884379e-003
3.093260e+003, 3.719364e-003
3.095189e+003, 3.767601e-003
3.097117e+003, 3.886216e-003
3.099046e+003, 3.750607e-003
3.100974e+003, 4.005248e-003
3.102903e+003, 3.879732e-003
3.104831e+003, 3.780690e-003
3.106760e+003, 3.844630e-003
3.108688e+003, 3.818734e-003
3.110617e+003, 3.877519e-003
3.112545e+003, 4.263281e-003
3.114474e+003, 4.028299e-003
3.116402e+003, 3.494419e-003
3.118331e+003, 3.549965e-003
3.120259e+003, 4.142911e-003
3.122188e+003, 4.211192e-003
3.124116e+003, 3.876339e-003
3.126044e+003, 4.002877e-003
3.127973e+003, 4.018961e-003
3.129901e+003, 3.596199e-003
3.131830e+003, 3.763206e-003
3.133758e+003, 3.843989e-003
3.135687e+003, 3.608905e-003
3.137615e+003, 3.979660e-003
3.139544e+003, 4.807773e-003
3.141472e+003, 4.918395e-003
3.143401e+003, 4.460428e-003
3.145329e+003, 4.675795e-003
3.147258e+003, 4.450851e-003
3.149186e+003, 3.994369e-003
3.151115e+003, 4.127019e-003
3.153043e+003, 3.907164e-003
3.154971e+003, 4.187839e-003
3.156900e+003, 4.449673e-003
3.158828e+003, 4.228525e-003
3.160757e+003, 4.065711e-003
3.162685e+003, 4.270904e-003
3.164614e+003, 4.438343e-003
3.166542e+003, 4.618241e-003
3.168471e+003, 4.160963e-003
3.170399e+003, 4.158266e-003
3.172328e+003, 4.322390e-003
3.174256e+003, 4.252606e-003
3.176185e+003, 3.878711e-003
3.178113e+003, 3.837154e-003
3.180042e+003, 4.374896e-003
3.181970e+003, 4.778911e-003
3.183898e+003, 4.089271e-003
3.185827e+003, 3.573818e-003
3.187755e+003, 4.213274e-003
3.189684e+003, 4.542623e-003
3.191612e+003, 4.451957e-003
3.193541e+003, 4.270341e-003
3.195469e+003, 4.494636e-003
3.197398e+003, 4.095060e-003
3.199326e+003, 3.653760e-003
3.201255e+003, 3.953216e-003
3.203183e+003, 4.512228e-003
3.205112e+003, 4.768354e-003
3.207040e+003, 4.270401e-003
3.208969e+003, 3.953870e-003
3.210897e+003, 3.992709e-003
3.212825e+003, 4.229756e-003
3.214754e+003, 4.467341e-003
3.216682e+003, 4.639671e-003
3.218611e+003, 4.385513e-003
3.220539e+003, 3.971233e-003
3.222468e+003, 4.010447e-003
3.224396e+003, 3.885200e-003
3.226325e+003, 3.008579e-003
3.228253e+003, 3.697425e-003
3.230182e+003, 4.908963e-003
3.232110e+003, 5.069603e-003
3.234039e+003, 4.730807e-003
3.235967e+003, 4.622783e-003
3.237896e+003, 5.093958e-003
3.239824e+003, 5.249389e-003
3.241752e+003, 4.943523e-003
3.243681e+003, 4.744860e-003
3.245609e+003, 4.719662e-003
3.247538e+003, 4.531072e-003
3.249466e+003, 4.115464e-003
3.251395e+003, 3.625301e-003
3.253323e+003, 3.342632e-003
3.255252e+003, 3.686077e-003
3.257180e+003, 3.886547e-003
3.259109e+003, 4.128872e-003
3.261037e+003, 4.361145e-003
3.262966e+003, 4.101235e-003
3.264894e+003, 3.587024e-003
3.266823e+003, 4.097854e-003
3.268751e+003, 4.765297e-003
3.270679e+003, 4.793982e-003
3.272608e+003, 4.670128e-003
3.274536e+003, 4.430382e-003
3.276465e+003, 4.336809e-003
3.278393e+003, 4.416143e-003
3.280322e+003, 4.328243e-003
3.282250e+003, 3.815970e-003
3.284179e+003, 2.886985e-003
3.286107e+003, 2.869152e-003
3.288036e+003, 3.632895e-003
3.289964e+003, 3.448249e-003
3.291893e+003, 2.879947e-003
3.293821e+003, 3.148807e-003
3.295750e+003, 3.722462e-003
3.297678e+003, 3.940930e-003
3.299606e+003, 4.214647e-003
3.301535e+003, 4.431279e-003
3.303463e+003, 4.019158e-003
3.305392e+003, 3.647924e-003
3.307320e+003, 3.591678e-003
3.309249e+003, 3.858059e-003
3.311177e+003, 4.073921e-003
3.313106e+003, 3.784795e-003
3.315034e+003, 3.736974e-003
3.316963e+003, 3.952077e-003
3.318891e+003, 3.475746e-003
3.320820e+003, 3.232199e-003
3.322748e+003, 3.827016e-003
3.324677e+003, 3.599940e-003
3.326605e+003, 3.365497e-003
3.328533e+003, 3.810913e-003
3.330462e+003, 3.622046e-003
3.332390e+003, 3.729166e-003
3.334319e+003, 3.848530e-003
3.336247e+003, 4.031465e-003
3.338176e+003, 4.254595e-003
3.340104e+003, 3.901998e-003
3.342033e+003, 3.665379e-003
3.343961e+003, 3.554510e-003
3.345890e+003, 3.570962e-003
3.347818e+003, 3.486559e-003
3.349747e+003, 3.674547e-003
3.351675e+003, 3.882055e-003
3.353604e+003, 3.799318e-003
3.355532e+003, 2.966019e-003
3.357460e+003, 2.798188e-003
3.359389e+003, 3.326951e-003
3.361317e+003, 3.257221e-003
3.363246e+003, 3.421315e-003
3.365174e+003, 3.902027e-003
3.367103e+003, 3.827169e-003
3.369031e+003, 3.498597e-003
3.370960e+003, 3.713157e-003
3.372888e+003, 4.361764e-003
3.374817e+003, 4.306589e-003
3.376745e+003, 3.420033e-003
3.378674e+003, 3.033996e-003
3.380602e+003, 3.265922e-003
3.382531e+003, 3.499107e-003
3.384459e+003, 4.072816e-003
3.386387e+003, 4.310598e-003
3.388316e+003, 3.937121e-003
3.390244e+003, 4.037776e-003
3.392173e+003, 4.188398e-003
3.394101e+003, 3.919006e-003
3.396030e+003, 3.641010e-003
3.397958e+003, 3.750021e-003
3.399887e+003, 3.529797e-003
3.401815e+003, 3.737249e-003
3.403744e+003, 4.040975e-003
3.405672e+003, 4.458106e-003
3.407601e+003, 5.107129e-003
3.409529e+003, 4.911735e-003
3.411458e+003, 4.272850e-003
3.413386e+003, 3.930370e-003
3.415314e+003, 4.038949e-003
3.417243e+003, 4.113485e-003
3.419171e+003, 3.546671e-003
3.421100e+003, 3.470995e-003
3.423028e+003, 4.115082e-003
3.424957e+003, 4.488355e-003
3.426885e+003, 4.168019e-003
3.428814e+003, 3.514509e-003
3.430742e+003, 3.815471e-003
3.432671e+003, 3.842476e-003
3.434599e+003, 3.467150e-003
3.436528e+003, 3.274684e-003
3.438456e+003, 3.495045e-003
3.440385e+003, 3.657794e-003
3.442313e+003, 4.282911e-003
3.444241e+003, 4.371619e-003
3.446170e+003, 3.746745e-003
3.448098e+003, 3.576287e-003
3.450027e+003, 3.388788e-003
3.451955e+003, 3.229979e-003
3.453884e+003, 3.975116e-003
3.455812e+003, 4.425067e-003
3.457741e+003, 4.079958e-003
3.459669e+003, 3.655977e-003
3.461598e+003, 3.670123e-003
3.463526e+003, 4.030462e-003
3.465455e+003, 3.425892e-003
3.467383e+003, 3.478224e-003
3.469312e+003, 4.219250e-003
3.471240e+003, 4.201376e-003
3.473168e+003, 4.125943e-003
3.475097e+003, 4.191044e-003
3.477025e+003, 3.442468e-003
3.478954e+003, 3.559757e-003
3.480882e+003, 4.046010e-003
3.482811e+003, 4.173514e-003
3.484739e+003, 4.000647e-003
3.486668e+003, 3.475967e-003
3.488596e+003, 2.681467e-003
3.490525e+003, 2.759593e-003
3.492453e+003, 3.660183e-003
3.494382e+003, 3.948817e-003
3.496310e+003, 3.548512e-003
3.498239e+003, 3.202118e-003
3.500167e+003, 3.621307e-003
3.502095e+003, 3.867349e-003
3.504024e+003, 3.562972e-003
3.505952e+003, 2.714808e-003
3.507881e+003, 2.616183e-003
3.509809e+003, 3.137162e-003
3.511738e+003, 3.288320e-003
3.513666e+003, 3.222919e-003
3.515595e+003, 3.566304e-003
3.517523e+003, 3.868939e-003
3.519452e+003, 3.690054e-003
3.521380e+003, 3.665694e-003
3.523309e+003, 3.042375e-003
3.525237e+003, 2.852682e-003
3.527166e+003, 3.706400e-003
3.529094e+003, 3.653909e-003
3.531022e+003, 3.298304e-003
3.532951e+003, 3.794340e-003
3.534879e+003, 3.371683e-003
3.536808e+003, 2.603911e-003
3.538736e+003, 2.880863e-003
3.540665e+003, 3.560015e-003
3.542593e+003, 3.796587e-003
3.544522e+003, 3.791702e-003
3.546450e+003, 3.563215e-003
3.548379e+003, 3.495073e-003
3.550307e+003, 3.374624e-003
3.552236e+003, 2.789534e-003
3.554164e+003, 2.777126e-003
3.556093e+003, 3.245425e-003
3.558021e+003, 3.490367e-003
3.559949e+003, 3.013831e-003
3.561878e+003, 2.723280e-003
3.563806e+003, 3.316854e-003
3.565735e+003, 4.324847e-003
3.567663e+003, 3.967377e-003
3.569592e+003, 3.224388e-003
3.571520e+003, 2.962093e-003
3.573449e+003, 2.834496e-003
3.575377e+003, 2.655140e-003
3.577306e+003, 2.806002e-003
3.579234e+003, 3.158713e-003
3.581163e+003, 3.974481e-003
3.583091e+003, 4.872248e-003
3.585020e+003, 4.661718e-003
3.586948e+003, 4.127522e-003
3.588876e+003, 3.735307e-003
3.590805e+003, 4.265031e-003
3.592733e+003, 5.031826e-003
3.594662e+003, 4.695930e-003
3.596590e+003, 4.057336e-003
3.598519e+003, 4.099765e-003
3.600447e+003, 4.132021e-003
3.602376e+003, 3.593127e-003
3.604304e+003, 3.201147e-003
3.606233e+003, 4.101594e-003
3.608161e+003, 4.189551e-003
3.610090e+003, 3.697035e-003
3.612018e+003, 3.004999e-003
3.613947e+003, 2.736859e-003
3.615875e+003, 2.952995e-003
3.617803e+003, 2.808493e-003
3.619732e+003, 2.472867e-003
3.621660e+003, 2.741308e-003
3.623589e+003, 3.719021e-003
3.625517e+003, 3.839615e-003
3.627446e+003, 3.233420e-003
3.629374e+003, 3.223164e-003
3.631303e+003, 3.415219e-003
3.633231e+003, 4.232011e-003
3.635160e+003, 3.930412e-003
3.637088e+003, 3.552612e-003
3.639017e+003, 3.736936e-003
3.640945e+003, 4.140087e-003
3.642874e+003, 4.049679e-003
3.644802e+003, 3.794582e-003
3.646730e+003, 3.825594e-003
3.648659e+003, 3.801881e-003
3.650587e+003, 4.179383e-003
3.652516e+003, 4.307162e-003
3.654444e+003, 4.151423e-003
3.656373e+003, 4.393135e-003
3.658301e+003, 4.088323e-003
3.660230e+003, 3.418070e-003
3.662158e+003, 2.969753e-003
3.664087e+003, 3.068390e-003
3.666015e+003, 3.053359e-003
3.667944e+003, 3.320108e-003
3.669872e+003, 3.211792e-003
3.671801e+003, 4.223620e-003
3.673729e+003, 4.924156e-003
3.675657e+003, 4.329067e-003
3.677586e+003, 4.541735e-003
3.679514e+003, 3.952256e-003
3.681443e+003, 3.513683e-003
3.683371e+003, 4.219181e-003
3.685300e+003, 5.020475e-003
3.687228e+003, 5.104098e-003
3.689157e+003, 4.718730e-003
3.691085e+003, 5.314867e-003
3.693014e+003, 6.465705e-003
3.694942e+003, 7.306599e-003
3.696871e+003, 8.485690e-003
3.698799e+003, 8.426207e-003
3.700728e+003, 6.095232e-003
3.702656e+003, 4.327567e-003
3.704584e+003, 4.348788e-003
3.706513e+003, 4.267005e-003
3.708441e+003, 3.818335e-003
3.710370e+003, 2.809951e-003
3.712298e+003, 2.160273e-003
3.714227e+003, 2.711327e-003
3.716155e+003, 3.729345e-003
3.718084e+003, 3.529750e-003
3.720012e+003, 2.647302e-003
3.721941e+003, 2.767271e-003
3.723869e+003, 2.972974e-003
3.725798e+003, 2.856627e-003
3.727726e+003, 2.806100e-003
3.729655e+003, 2.784868e-003
3.731583e+003, 3.419001e-003
3.733511e+003, 3.710737e-003
3.735440e+003, 3.507048e-003
3.737368e+003, 3.005497e-003
3.739297e+003, 3.460251e-003
3.741225e+003, 3.338903e-003
3.743154e+003, 3.063170e-003
3.745082e+003, 2.338995e-003
3.747011e+003, 1.919471e-003
3.748939e+003, 2.287787e-003
3.750868e+003, 1.615745e-003
3.752796e+003, 4.325810e-004
3.754725e+003, 1.533535e-003
3.756653e+003, 3.409911e-003
3.758582e+003, 3.637092e-003
3.760510e+003, 3.286177e-003
3.762438e+003, 3.970165e-003
3.764367e+003, 3.398922e-003
3.766295e+003, 2.435695e-003
3.768224e+003, 3.070259e-003
3.770152e+003, 2.614611e-003
3.772081e+003, 1.156798e-003
3.774009e+003, 7.618648e-004
3.775938e+003, 1.362327e-003
3.777866e+003, 1.619805e-003
3.779795e+003, 1.889826e-003
3.781723e+003, 1.010951e-003
3.783652e+003, 1.144167e-003
3.785580e+003, 1.512021e-003
3.787509e+003, 2.493109e-003
3.789437e+003, 3.186148e-003
3.791365e+003, 2.245671e-003
3.793294e+003, 2.257032e-003
3.795222e+003, 3.355152e-003
3.797151e+003, 3.053392e-003
3.799079e+003, 1.909424e-003
3.801008e+003, 1.383264e-003
3.802936e+003, 1.601227e-003
3.804865e+003, 2.294834e-003
3.806793e+003, 2.671862e-003
3.808722e+003, 3.238682e-003
3.810650e+003, 3.161531e-003
3.812579e+003, 2.742725e-003
3.814507e+003, 2.533246e-003
3.816436e+003, 3.064453e-003
3.818364e+003, 3.426474e-003
3.820292e+003, 2.832122e-003
3.822221e+003, 3.378587e-003
3.824149e+003, 3.757329e-003
3.826078e+003, 2.755323e-003
3.828006e+003, 2.039220e-003
3.829935e+003, 2.895519e-003
3.831863e+003, 2.692120e-003
3.833792e+003, 1.992719e-003
3.835720e+003, 1.343100e-003
3.837649e+003, 1.543494e-003
3.839577e+003, 2.436494e-003
3.841506e+003, 2.039451e-003
3.843434e+003, 1.437443e-003
3.845363e+003, 1.561045e-003
3.847291e+003, 2.039195e-003
3.849219e+003, 2.159698e-003
3.851148e+003, 2.937554e-003
3.853076e+003, 2.672034e-003
3.855005e+003, 1.891486e-003
3.856933e+003, 2.643372e-003
3.858862e+003, 2.625983e-003
3.860790e+003, 2.259172e-003
3.862719e+003, 2.947058e-003
3.864647e+003, 2.163797e-003
3.866576e+003, 1.072874e-003
3.868504e+003, 1.956957e-003
3.870433e+003, 2.835995e-003
3.872361e+003, 2.816614e-003
3.874290e+003, 2.394184e-003
3.876218e+003, 2.113979e-003
3.878146e+003, 1.900428e-003
3.880075e+003, 1.530831e-003
3.882003e+003, 2.096372e-003
3.883932e+003, 2.613785e-003
3.885860e+003, 1.661388e-003
3.887789e+003, 1.684392e-003
3.889717e+003, 3.040483e-003
3.891646e+003, 3.411032e-003
3.893574e+003, 2.834353e-003
3.895503e+003, 3.117448e-003
3.897431e+003, 2.943359e-003
3.899360e+003, 2.068795e-003
3.901288e+003, 1.647412e-003
3.903217e+003, 1.524966e-003
3.905145e+003, 1.392659e-003
3.907073e+003, 1.147591e-003
3.909002e+003, 1.454938e-003
3.910930e+003, 1.846723e-003
3.912859e+003, 2.359872e-003
3.914787e+003, 2.261868e-003
3.916716e+003, 2.120011e-003
3.918644e+003, 2.842815e-003
3.920573e+003, 2.874779e-003
3.922501e+003, 2.731588e-003
3.924430e+003, 2.713346e-003
3.926358e+003, 2.106977e-003
3.928287e+003, 1.822219e-003
3.930215e+003, 1.999240e-003
3.932144e+003, 2.947613e-003
3.934072e+003, 2.810740e-003
3.936000e+003, 2.031971e-003
3.937929e+003, 1.403081e-003
3.939857e+003, 1.887221e-003
3.941786e+003, 2.455916e-003
3.943714e+003, 2.074799e-003
3.945643e+003, 1.609482e-003
3.947571e+003, 2.056522e-003
3.949500e+003, 1.627176e-003
3.951428e+003, 1.883062e-003
3.953357e+003, 2.524824e-003
3.955285e+003, 2.694843e-003
3.957214e+003, 3.385472e-003
3.959142e+003, 3.131892e-003
3.961071e+003, 1.287620e-003
3.962999e+003, 1.628020e-003
3.964927e+003, 2.090376e-003
3.966856e+003, 1.873696e-003
3.968784e+003, 2.215305e-003
3.970713e+003, 1.695409e-003
3.972641e+003, 1.656568e-003
3.974570e+003, 2.924317e-003
3.976498e+003, 3.130091e-003
3.978427e+003, 1.760522e-003
3.980355e+003, 8.696088e-004
3.982284e+003, 1.472011e-003
3.984212e+003, 2.483283e-003
3.986141e+003, 2.542408e-003
3.988069e+003, 2.233051e-003
3.989998e+003, 2.675242e-003
3.991926e+003, 3.061267e-003
3.993854e+003, 2.609103e-003
3.995783e+003, 1.649890e-003
3.997711e+003, 1.108760e-003
3.999640e+003, 1.129956e-003
4.001568e+003, 0.000000e+000
##END=



