##NAMES=Beryl
##RRUFFID=R050121
##IDEAL CHEMISTRY=Be_3_Al_2_Si_6_O_18_
##LOCALITY=Cruziero mine, San Jose, Minas Gerais, Brazil
##OWNER=RRUFF
##SOURCE=Carlos and Paulo Vasconcelos
##DESCRIPTION=Light blue fragment, variety aquamarine
##STATUS=The identification of this mineral has been confirmed by X-ray diffraction and chemical analysis
##URL=rruff.info/R050121
##MEASURED CHEMISTRY=(Be_0.96_Li_0.04_)_3_Al_2.00_Si_6.00_O_18_Î‡Na_0.09_Mg_0.03_
5.014013e+001, 2.154854e-002
5.206860e+001, 1.840852e-002
5.399707e+001, 1.615353e-002
5.592553e+001, 1.801484e-002
5.785400e+001, 2.672669e-002
5.978246e+001, 2.782356e-002
6.171093e+001, 2.286803e-002
6.363940e+001, 2.818933e-002
6.556786e+001, 2.686989e-002
6.749633e+001, 2.554834e-002
6.942480e+001, 2.879949e-002
7.135326e+001, 3.095479e-002
7.328172e+001, 2.978387e-002
7.521019e+001, 3.012140e-002
7.713866e+001, 3.096984e-002
7.906712e+001, 3.312982e-002
8.099559e+001, 3.295934e-002
8.292406e+001, 3.630153e-002
8.485252e+001, 3.840230e-002
8.678099e+001, 3.712952e-002
8.870946e+001, 3.708579e-002
9.063792e+001, 4.005861e-002
9.256638e+001, 4.032197e-002
9.449485e+001, 3.954743e-002
9.642332e+001, 4.182319e-002
9.835178e+001, 4.499767e-002
1.002803e+002, 4.459107e-002
1.022087e+002, 4.483773e-002
1.041372e+002, 4.585312e-002
1.060657e+002, 4.808781e-002
1.079941e+002, 4.884852e-002
1.099226e+002, 4.875693e-002
1.118510e+002, 4.812783e-002
1.137795e+002, 4.887664e-002
1.157080e+002, 5.021048e-002
1.176364e+002, 5.087150e-002
1.195649e+002, 5.179866e-002
1.214934e+002, 5.270954e-002
1.234218e+002, 5.243382e-002
1.253503e+002, 5.299615e-002
1.272788e+002, 5.323328e-002
1.292072e+002, 5.439264e-002
1.311357e+002, 5.535904e-002
1.330642e+002, 5.644543e-002
1.349926e+002, 5.549570e-002
1.369211e+002, 5.559834e-002
1.388496e+002, 5.672313e-002
1.407780e+002, 5.800959e-002
1.427065e+002, 5.869046e-002
1.446350e+002, 5.986979e-002
1.465634e+002, 6.036149e-002
1.484919e+002, 6.062508e-002
1.504204e+002, 6.052636e-002
1.523488e+002, 6.198481e-002
1.542773e+002, 6.219501e-002
1.562058e+002, 6.198273e-002
1.581342e+002, 6.231515e-002
1.600627e+002, 6.241437e-002
1.619912e+002, 6.203888e-002
1.639196e+002, 6.262459e-002
1.658481e+002, 6.271240e-002
1.677766e+002, 6.302760e-002
1.697050e+002, 6.361981e-002
1.716335e+002, 6.411272e-002
1.735620e+002, 6.432275e-002
1.754904e+002, 6.499862e-002
1.774189e+002, 6.523585e-002
1.793474e+002, 6.583750e-002
1.812758e+002, 6.649876e-002
1.832043e+002, 6.680810e-002
1.851328e+002, 6.742664e-002
1.870612e+002, 6.811574e-002
1.889897e+002, 6.833850e-002
1.909182e+002, 6.932283e-002
1.928466e+002, 7.037818e-002
1.947751e+002, 7.109188e-002
1.967036e+002, 7.135046e-002
1.986320e+002, 7.237686e-002
2.005605e+002, 7.365270e-002
2.024890e+002, 7.506876e-002
2.044174e+002, 7.622693e-002
2.063459e+002, 7.607148e-002
2.082744e+002, 7.207783e-002
2.102028e+002, 6.555933e-002
2.121313e+002, 6.111243e-002
2.140598e+002, 6.032114e-002
2.159882e+002, 6.177632e-002
2.179167e+002, 6.416258e-002
2.198452e+002, 6.583956e-002
2.217736e+002, 6.689630e-002
2.237021e+002, 6.796720e-002
2.256305e+002, 6.949240e-002
2.275590e+002, 7.040845e-002
2.294875e+002, 7.098676e-002
2.314159e+002, 7.249748e-002
2.333444e+002, 7.416160e-002
2.352729e+002, 7.500070e-002
2.372013e+002, 7.635709e-002
2.391298e+002, 7.775964e-002
2.410583e+002, 7.900285e-002
2.429867e+002, 8.031983e-002
2.449152e+002, 8.168871e-002
2.468437e+002, 8.337695e-002
2.487721e+002, 8.556546e-002
2.507006e+002, 8.798108e-002
2.526291e+002, 9.033152e-002
2.545575e+002, 9.230943e-002
2.564860e+002, 9.160701e-002
2.584145e+002, 8.424363e-002
2.603429e+002, 7.154439e-002
2.622714e+002, 6.077146e-002
2.641999e+002, 5.699923e-002
2.661283e+002, 5.864875e-002
2.680568e+002, 6.229733e-002
2.699853e+002, 6.535836e-002
2.719137e+002, 6.826997e-002
2.738422e+002, 7.097311e-002
2.757707e+002, 7.301512e-002
2.776991e+002, 7.475607e-002
2.796276e+002, 7.654250e-002
2.815561e+002, 7.792690e-002
2.834845e+002, 7.931617e-002
2.854130e+002, 8.065692e-002
2.873415e+002, 8.204647e-002
2.892699e+002, 8.291043e-002
2.911984e+002, 8.368862e-002
2.931269e+002, 8.468553e-002
2.950553e+002, 8.566799e-002
2.969838e+002, 8.628358e-002
2.989123e+002, 8.661363e-002
3.008407e+002, 8.670315e-002
3.027692e+002, 8.737674e-002
3.046977e+002, 8.781593e-002
3.066261e+002, 8.845397e-002
3.085546e+002, 8.890841e-002
3.104831e+002, 8.957299e-002
3.124115e+002, 9.066143e-002
3.143400e+002, 9.205471e-002
3.162685e+002, 9.279036e-002
3.181969e+002, 9.365594e-002
3.201254e+002, 9.472492e-002
3.220539e+002, 9.584530e-002
3.239823e+002, 9.658198e-002
3.259108e+002, 9.772421e-002
3.278392e+002, 9.906761e-002
3.297677e+002, 1.001023e-001
3.316962e+002, 1.008212e-001
3.336246e+002, 1.020832e-001
3.355531e+002, 1.037020e-001
3.374816e+002, 1.056433e-001
3.394100e+002, 1.073044e-001
3.413385e+002, 1.090444e-001
3.432670e+002, 1.111913e-001
3.451954e+002, 1.135973e-001
3.471239e+002, 1.149784e-001
3.490524e+002, 1.150227e-001
3.509808e+002, 1.127778e-001
3.529093e+002, 1.117469e-001
3.548378e+002, 1.140215e-001
3.567662e+002, 1.177498e-001
3.586947e+002, 1.209069e-001
3.606232e+002, 1.235790e-001
3.625516e+002, 1.255475e-001
3.644801e+002, 1.260678e-001
3.664086e+002, 1.239624e-001
3.683370e+002, 1.196068e-001
3.702655e+002, 1.132414e-001
3.721940e+002, 1.070076e-001
3.741224e+002, 1.031156e-001
3.760509e+002, 1.022967e-001
3.779794e+002, 1.028698e-001
3.799078e+002, 1.014199e-001
3.818363e+002, 9.825568e-002
3.837648e+002, 9.740538e-002
3.856932e+002, 9.869879e-002
3.876217e+002, 9.962728e-002
3.895502e+002, 9.935609e-002
3.914786e+002, 9.981094e-002
3.934071e+002, 1.018836e-001
3.953356e+002, 1.053823e-001
3.972640e+002, 1.090691e-001
3.991925e+002, 1.126696e-001
4.011210e+002, 1.159834e-001
4.030494e+002, 1.190673e-001
4.049779e+002, 1.220885e-001
4.069064e+002, 1.251832e-001
4.088348e+002, 1.280833e-001
4.107633e+002, 1.310359e-001
4.126917e+002, 1.339574e-001
4.146202e+002, 1.368591e-001
4.165487e+002, 1.396566e-001
4.184771e+002, 1.425289e-001
4.204056e+002, 1.449992e-001
4.223341e+002, 1.474529e-001
4.242625e+002, 1.499821e-001
4.261910e+002, 1.520565e-001
4.281195e+002, 1.530621e-001
4.300479e+002, 1.536767e-001
4.319764e+002, 1.539241e-001
4.339049e+002, 1.536940e-001
4.358333e+002, 1.528309e-001
4.377618e+002, 1.514171e-001
4.396903e+002, 1.493862e-001
4.416187e+002, 1.471806e-001
4.435472e+002, 1.441614e-001
4.454757e+002, 1.405113e-001
4.474041e+002, 1.367202e-001
4.493326e+002, 1.331129e-001
4.512611e+002, 1.291447e-001
4.531895e+002, 1.252067e-001
4.551180e+002, 1.212456e-001
4.570465e+002, 1.178103e-001
4.589749e+002, 1.147088e-001
4.609034e+002, 1.123259e-001
4.628319e+002, 1.102966e-001
4.647603e+002, 1.085409e-001
4.666888e+002, 1.078616e-001
4.686173e+002, 1.085776e-001
4.705457e+002, 1.100018e-001
4.724742e+002, 1.118870e-001
4.744027e+002, 1.144741e-001
4.763311e+002, 1.174358e-001
4.782596e+002, 1.208291e-001
4.801881e+002, 1.246044e-001
4.821165e+002, 1.281253e-001
4.840450e+002, 1.314975e-001
4.859735e+002, 1.349924e-001
4.879019e+002, 1.386101e-001
4.898304e+002, 1.413998e-001
4.917589e+002, 1.432652e-001
4.936873e+002, 1.431180e-001
4.956158e+002, 1.399992e-001
4.975443e+002, 1.329313e-001
4.994727e+002, 1.227224e-001
5.014012e+002, 1.120384e-001
5.033297e+002, 1.060966e-001
5.052581e+002, 1.082689e-001
5.071866e+002, 1.163130e-001
5.091151e+002, 1.253074e-001
5.110435e+002, 1.328045e-001
5.129720e+002, 1.386259e-001
5.149005e+002, 1.429731e-001
5.168289e+002, 1.459466e-001
5.187574e+002, 1.472220e-001
5.206859e+002, 1.469705e-001
5.226143e+002, 1.459711e-001
5.245428e+002, 1.443716e-001
5.264713e+002, 1.423228e-001
5.283997e+002, 1.393310e-001
5.303282e+002, 1.356546e-001
5.322567e+002, 1.315979e-001
5.341851e+002, 1.270051e-001
5.361136e+002, 1.216053e-001
5.380421e+002, 1.162370e-001
5.399705e+002, 1.102889e-001
5.418990e+002, 1.041955e-001
5.438275e+002, 9.827496e-002
5.457559e+002, 9.319966e-002
5.476844e+002, 8.824645e-002
5.496129e+002, 8.328234e-002
5.515413e+002, 7.823307e-002
5.534698e+002, 7.329229e-002
5.553983e+002, 6.877442e-002
5.573267e+002, 6.494167e-002
5.592552e+002, 6.137658e-002
5.611837e+002, 5.878292e-002
5.631121e+002, 5.700248e-002
5.650406e+002, 5.634231e-002
5.669691e+002, 5.713625e-002
5.688975e+002, 5.880732e-002
5.708260e+002, 6.141666e-002
5.727545e+002, 6.484683e-002
5.746829e+002, 6.793084e-002
5.766114e+002, 7.160781e-002
5.785399e+002, 7.733275e-002
5.804683e+002, 8.554608e-002
5.823968e+002, 9.562132e-002
5.843253e+002, 1.067387e-001
5.862537e+002, 1.177986e-001
5.881822e+002, 1.263791e-001
5.901107e+002, 1.294552e-001
5.920391e+002, 1.269090e-001
5.939676e+002, 1.199927e-001
5.958961e+002, 1.107285e-001
5.978245e+002, 1.009320e-001
5.997530e+002, 9.109853e-002
6.016815e+002, 8.096334e-002
6.036099e+002, 7.201237e-002
6.055384e+002, 6.407203e-002
6.074669e+002, 5.698525e-002
6.093953e+002, 5.231101e-002
6.113238e+002, 5.001446e-002
6.132523e+002, 4.852830e-002
6.151807e+002, 4.811488e-002
6.171091e+002, 4.843701e-002
6.190376e+002, 4.957285e-002
6.209661e+002, 5.040747e-002
6.228945e+002, 5.168015e-002
6.248230e+002, 5.374991e-002
6.267515e+002, 5.604105e-002
6.286799e+002, 5.882053e-002
6.306084e+002, 6.208203e-002
6.325369e+002, 6.540264e-002
6.344653e+002, 6.885201e-002
6.363938e+002, 7.300227e-002
6.383223e+002, 7.771441e-002
6.402507e+002, 8.292604e-002
6.421792e+002, 8.930901e-002
6.441077e+002, 9.628010e-002
6.460361e+002, 1.030225e-001
6.479646e+002, 1.092864e-001
6.498931e+002, 1.146943e-001
6.518215e+002, 1.173208e-001
6.537500e+002, 1.161355e-001
6.556785e+002, 1.125760e-001
6.576069e+002, 1.105719e-001
6.595354e+002, 1.121013e-001
6.614639e+002, 1.167311e-001
6.633923e+002, 1.225054e-001
6.653208e+002, 1.287174e-001
6.672493e+002, 1.354791e-001
6.691777e+002, 1.419971e-001
6.711062e+002, 1.477680e-001
6.730347e+002, 1.531103e-001
6.749631e+002, 1.573458e-001
6.768916e+002, 1.600095e-001
6.788201e+002, 1.597767e-001
6.807485e+002, 1.575363e-001
6.826770e+002, 1.531248e-001
6.846055e+002, 1.471810e-001
6.865339e+002, 1.406318e-001
6.884624e+002, 1.336421e-001
6.903909e+002, 1.258719e-001
6.923193e+002, 1.185386e-001
6.942478e+002, 1.119269e-001
6.961763e+002, 1.063244e-001
6.981047e+002, 1.001127e-001
7.000332e+002, 9.563689e-002
##END=



