##NAMES=Beryl
##RRUFFID=R050305
##IDEAL CHEMISTRY=Be_3_Al_2_Si_6_O_18_
##LOCALITY=Conselheiro Pena, Minas Gerais, Brazil
##OWNER=RRUFF
##SOURCE=Eugene Schlepp
##DESCRIPTION=Light blue fragment, variety aquamarine
##STATUS=The identification of this mineral has been confirmed by X-ray diffraction and chemical analysis
##URL=rruff.info/R050305
##MEASURED CHEMISTRY=(Be_0.91_Li_0.09_)_3_(Al_0.99_Fe^3+^_0.01_)_2_Si_6.00_O_18_Î‡Na_0.27_
399.1926, 0.1477095
401.1211, 0.1467602
403.0496, 0.1474658
404.9780, 0.1504477
406.9065, 0.1578736
408.8350, 0.1597483
410.7634, 0.1683171
412.6919, 0.1749760
414.6204, 0.1766692
416.5488, 0.1778078
418.4773, 0.1807194
420.4058, 0.1826017
422.3342, 0.1823348
424.2627, 0.1823568
426.1912, 0.1868044
428.1196, 0.1901589
430.0481, 0.1935315
431.9766, 0.1904794
433.9050, 0.1873633
435.8335, 0.1866575
437.7620, 0.1856751
439.6904, 0.1828829
441.6189, 0.1803630
443.5474, 0.1765047
445.4758, 0.1702140
447.4043, 0.1644947
449.3328, 0.1604389
451.2612, 0.1549939
453.1897, 0.1509981
455.1182, 0.1470724
457.0466, 0.1429684
458.9751, 0.1386083
460.9036, 0.1364876
462.8320, 0.1343080
464.7605, 0.1315356
466.6890, 0.1307191
468.6174, 0.1310723
470.5459, 0.1320406
472.4744, 0.1354389
474.4028, 0.1385995
476.3313, 0.1416377
478.2598, 0.1460227
480.1882, 0.1502329
482.1167, 0.1538702
484.0452, 0.1573965
485.9736, 0.1600110
487.9021, 0.1627398
489.8306, 0.1653257
491.7590, 0.1661411
493.6875, 0.1646070
495.6160, 0.1625696
497.5444, 0.1579105
499.4729, 0.1519784
501.4014, 0.1455423
503.3298, 0.1401971
505.2583, 0.1383046
507.1868, 0.1399559
509.1152, 0.1444483
511.0437, 0.1510545
512.9722, 0.1571318
514.9006, 0.1612777
516.8291, 0.1640818
518.7576, 0.1656358
520.6860, 0.1643892
522.6145, 0.1616769
524.5430, 0.1580841
526.4714, 0.1531658
528.3999, 0.1474203
530.3284, 0.1418715
532.2568, 0.1355129
534.1853, 0.1285419
536.1138, 0.1203090
538.0422, 0.1132358
539.9707, 0.1077229
541.8992, 0.1023721
543.8276, 9.7227238E-02
545.7561, 9.1959961E-02
547.6846, 8.7413847E-02
549.6130, 8.3610043E-02
551.5415, 8.0388390E-02
553.4700, 7.7507921E-02
555.3984, 7.4695803E-02
557.3269, 7.3110908E-02
559.2554, 7.2603971E-02
561.1838, 7.3428847E-02
563.1123, 7.4497640E-02
565.0408, 7.4024089E-02
566.9692, 7.1588889E-02
568.8977, 6.9649689E-02
570.8262, 6.8256982E-02
572.7546, 6.6088781E-02
574.6831, 6.4013012E-02
576.6116, 6.3018523E-02
578.5400, 6.3638873E-02
580.4685, 6.6643812E-02
582.3970, 7.1826577E-02
584.3254, 7.8249060E-02
586.2539, 8.4547669E-02
588.1824, 8.9791767E-02
590.1108, 9.3394198E-02
592.0393, 9.4495550E-02
593.9678, 9.3910642E-02
595.8962, 9.2712149E-02
597.8247, 9.0688363E-02
599.7532, 8.7058522E-02
601.6816, 8.2491651E-02
603.6101, 7.7724896E-02
605.5386, 7.2199628E-02
607.4670, 6.7391239E-02
609.3955, 6.2985130E-02
611.3240, 5.8403961E-02
613.2524, 5.4906510E-02
615.1809, 5.2127220E-02
617.1094, 5.0230149E-02
619.0378, 4.9001709E-02
620.9663, 4.8478272E-02
622.8948, 4.8444320E-02
624.8232, 4.8355121E-02
626.7517, 4.9289111E-02
628.6802, 5.0819729E-02
630.6086, 5.2828029E-02
632.5371, 5.5972401E-02
634.4656, 5.9798099E-02
636.3940, 6.3902646E-02
638.3225, 6.9248527E-02
640.2510, 7.5224183E-02
642.1794, 8.0997497E-02
644.1079, 8.6415723E-02
646.0364, 9.1269583E-02
647.9648, 9.5093891E-02
649.8933, 9.6339159E-02
651.8218, 9.5140241E-02
653.7502, 9.3637548E-02
655.6787, 9.3553513E-02
657.6072, 9.5330939E-02
659.5356, 9.9260412E-02
661.4641, 0.1049339
663.3926, 0.1113840
665.3210, 0.1183066
667.2495, 0.1245825
669.1780, 0.1293929
671.1064, 0.1327846
673.0349, 0.1352100
674.9634, 0.1360996
676.8918, 0.1355440
678.8203, 0.1334205
680.7488, 0.1298540
682.6772, 0.1263100
684.6057, 0.1218803
686.5342, 0.1173393
688.4626, 0.1132180
690.3911, 0.1095164
692.3196, 0.1063241
694.2480, 0.1031850
696.1765, 0.1000061
698.1050, 9.6596941E-02
700.0334, 9.2763148E-02
701.9619, 8.9197218E-02
703.8904, 8.5677162E-02
705.8188, 8.2257330E-02
707.7473, 7.9334103E-02
709.6758, 7.6904878E-02
711.6042, 7.5200208E-02
713.5327, 7.4322768E-02
715.4612, 7.4348979E-02
717.3896, 7.4985527E-02
719.3181, 7.6057948E-02
721.2466, 7.7100359E-02
723.1750, 7.8882873E-02
725.1035, 8.1543878E-02
727.0320, 8.4038779E-02
728.9604, 8.6708076E-02
730.8889, 8.9361623E-02
732.8174, 9.1668829E-02
734.7458, 9.3645900E-02
736.6743, 9.4899289E-02
738.6028, 9.5708087E-02
740.5313, 9.6709207E-02
742.4597, 9.6736602E-02
744.3882, 9.5733874E-02
746.3167, 9.4519153E-02
748.2451, 9.2814043E-02
750.1736, 9.0097137E-02
752.1021, 8.7114267E-02
754.0305, 8.3880574E-02
755.9590, 8.0353968E-02
757.8875, 7.6614417E-02
759.8159, 7.2758920E-02
761.7444, 6.9226913E-02
763.6729, 6.6109143E-02
765.6013, 6.3463308E-02
767.5298, 6.1346930E-02
769.4583, 6.0018141E-02
771.3867, 5.9652060E-02
773.3152, 5.9332430E-02
775.2437, 5.9747271E-02
777.1721, 6.0888428E-02
779.1006, 6.2598556E-02
781.0291, 6.4669266E-02
782.9575, 6.7264616E-02
784.8860, 6.9892853E-02
786.8145, 7.2862446E-02
788.7429, 7.6460242E-02
790.6714, 8.0115452E-02
792.5999, 8.3375052E-02
794.5283, 8.7033771E-02
796.4568, 9.1265470E-02
798.3853, 9.5421270E-02
800.3137, 9.8798282E-02
802.2422, 0.1019155
804.1707, 0.1048839
806.0991, 0.1071102
808.0276, 0.1084265
809.9561, 0.1091626
811.8845, 0.1098758
813.8130, 0.1100534
815.7415, 0.1094670
817.6699, 0.1084677
819.5984, 0.1066312
821.5269, 0.1045253
823.4553, 0.1023221
825.3838, 9.9637620E-02
827.3123, 9.6779428E-02
829.2407, 9.3324907E-02
831.1692, 8.9495979E-02
833.0977, 8.5894011E-02
835.0261, 8.2421787E-02
836.9546, 7.9199292E-02
838.8831, 7.5988598E-02
840.8115, 7.2977759E-02
842.7400, 7.0420571E-02
844.6685, 6.8341173E-02
846.5969, 6.6154458E-02
848.5254, 6.4567603E-02
850.4539, 6.3486584E-02
852.3823, 6.2739223E-02
854.3108, 6.2324431E-02
856.2393, 6.2252350E-02
858.1677, 6.2500574E-02
860.0962, 6.2904492E-02
862.0247, 6.3945740E-02
863.9531, 6.5312877E-02
865.8816, 6.6645540E-02
867.8101, 6.8356477E-02
869.7385, 7.0570551E-02
871.6670, 7.3293947E-02
873.5955, 7.6032408E-02
875.5239, 7.8754976E-02
877.4524, 8.1837237E-02
879.3809, 8.5491769E-02
881.3093, 8.9060508E-02
883.2378, 9.2943013E-02
885.1663, 9.7152427E-02
887.0947, 0.1012592
889.0232, 0.1059087
890.9517, 0.1109118
892.8801, 0.1157770
894.8085, 0.1206254
896.7370, 0.1253310
898.6655, 0.1304302
900.5939, 0.1358840
902.5224, 0.1411025
904.4509, 0.1460974
906.3793, 0.1508755
908.3078, 0.1553794
910.2363, 0.1605631
912.1647, 0.1658181
914.0932, 0.1701667
916.0217, 0.1743199
917.9501, 0.1790077
919.8786, 0.1828563
921.8071, 0.1862496
923.7355, 0.1900510
925.6640, 0.1932930
927.5925, 0.1957988
929.5209, 0.1983632
931.4494, 0.2004264
933.3779, 0.2019131
935.3063, 0.2030954
937.2348, 0.2042231
939.1633, 0.2052950
941.0917, 0.2061906
943.0202, 0.2064784
944.9487, 0.2064874
946.8771, 0.2061602
948.8056, 0.2054544
950.7341, 0.2037744
952.6625, 0.2011525
954.5910, 0.1977582
956.5195, 0.1934203
958.4479, 0.1882173
960.3764, 0.1824041
962.3049, 0.1759622
964.2333, 0.1687454
966.1618, 0.1617451
968.0903, 0.1550074
970.0187, 0.1483099
971.9472, 0.1418540
973.8757, 0.1356849
975.8041, 0.1300269
977.7326, 0.1243223
979.6611, 0.1185933
981.5895, 0.1135377
983.5180, 0.1088876
985.4465, 0.1041766
987.3749, 9.9935196E-02
989.3034, 9.6661419E-02
991.2319, 9.4106764E-02
993.1603, 9.2777468E-02
995.0888, 9.2395581E-02
997.0173, 9.2370778E-02
998.9457, 9.3091957E-02
1000.874, 9.4353668E-02
1002.803, 9.6070431E-02
1004.731, 9.7923927E-02
1006.660, 9.9491343E-02
1008.588, 0.1006716
1010.517, 0.1017895
1012.445, 0.1023865
1014.373, 0.1022710
1016.302, 0.1020861
1018.230, 0.1021506
1020.159, 0.1022676
1022.087, 0.1020702
1024.016, 0.1014378
1025.944, 0.1011946
1027.873, 0.1011152
1029.801, 0.1005144
1031.730, 9.9459171E-02
1033.658, 9.8746888E-02
1035.587, 9.8323293E-02
1037.515, 9.7563230E-02
1039.444, 9.6810743E-02
1041.372, 9.6425399E-02
1043.301, 9.6332207E-02
1045.229, 9.6382163E-02
1047.157, 9.6229188E-02
1049.086, 9.6438177E-02
1051.014, 9.7111814E-02
1052.943, 9.7528003E-02
1054.871, 9.7527057E-02
1056.800, 9.7549193E-02
1058.728, 9.7018838E-02
1060.657, 9.6193798E-02
1062.585, 9.5395193E-02
1064.514, 9.4091438E-02
1066.442, 9.2057317E-02
1068.371, 8.9634784E-02
1070.299, 8.7108463E-02
1072.228, 8.4503673E-02
1074.156, 8.1513859E-02
1076.084, 7.8770608E-02
1078.013, 7.6387398E-02
1079.941, 7.3646657E-02
1081.870, 7.0774421E-02
1083.798, 6.7882381E-02
1085.727, 6.5490447E-02
1087.655, 6.3463673E-02
1089.584, 6.1230350E-02
1091.512, 5.8801860E-02
1093.441, 5.6754839E-02
1095.369, 5.5207219E-02
1097.298, 5.4029141E-02
1099.226, 5.3237028E-02
1101.155, 5.3128809E-02
1103.083, 5.3129010E-02
1105.011, 5.3469051E-02
1106.940, 5.4000620E-02
1108.868, 5.4861169E-02
1110.797, 5.6694672E-02
1112.725, 5.8679249E-02
1114.654, 6.1046090E-02
1116.582, 6.4148873E-02
1118.511, 6.7507207E-02
1120.439, 7.1006298E-02
1122.368, 7.4702159E-02
1124.296, 7.8539290E-02
1126.225, 8.2655966E-02
1128.153, 8.6907282E-02
1130.082, 9.0648510E-02
1132.010, 9.3829192E-02
1133.938, 9.6376948E-02
1135.867, 9.8217748E-02
1137.795, 9.9523112E-02
1139.724, 0.1001946
1141.652, 0.1006055
1143.581, 0.1011868
1145.509, 0.1013949
1147.438, 0.1014803
1149.366, 0.1016098
1151.295, 0.1021089
1153.223, 0.1027337
1155.152, 0.1031467
1157.080, 0.1036914
1159.009, 0.1041775
1160.937, 0.1051330
1162.865, 0.1060462
1164.794, 0.1068449
1166.722, 0.1074867
1168.651, 0.1077118
1170.579, 0.1077638
1172.508, 0.1077164
1174.436, 0.1072962
1176.365, 0.1063505
1178.293, 0.1052142
1180.222, 0.1037572
1182.150, 0.1019813
1184.079, 9.9997208E-02
1186.007, 9.8404281E-02
1187.936, 9.6638598E-02
1189.864, 9.3953438E-02
1191.792, 9.1374613E-02
1193.721, 8.9137889E-02
1195.649, 8.6646467E-02
1197.578, 8.3866186E-02
1199.506, 8.0803193E-02
1201.435, 7.7918537E-02
1203.363, 7.5173616E-02
1205.292, 7.2528981E-02
1207.220, 6.9837563E-02
1209.149, 6.7061923E-02
1211.077, 6.4520583E-02
1213.006, 6.2173940E-02
1214.934, 5.9928861E-02
1216.863, 5.7166521E-02
1218.791, 5.4512370E-02
1220.719, 5.2130599E-02
1222.648, 4.9765080E-02
1224.576, 4.7609359E-02
1226.505, 4.5444191E-02
1228.433, 4.3212108E-02
1230.362, 4.1091140E-02
1232.290, 3.9225180E-02
1234.219, 3.7195109E-02
1236.147, 3.5250399E-02
1238.076, 3.3518650E-02
1240.004, 3.1941049E-02
1241.933, 3.0240560E-02
1243.861, 2.8506409E-02
1245.790, 2.7112359E-02
1247.718, 2.5651559E-02
1249.646, 2.4170499E-02
1251.575, 2.2476221E-02
1253.503, 2.1046000E-02
1255.432, 1.9632110E-02
1257.360, 1.8101459E-02
1259.289, 1.6666340E-02
1261.217, 1.5074570E-02
1263.146, 1.3554390E-02
1265.074, 1.2325560E-02
1267.003, 1.0967790E-02
1268.931, 9.6894884E-03
1270.860, 8.5588843E-03
1272.788, 7.9169357E-03
1274.717, 7.1867402E-03
1276.645, 6.5283952E-03
1278.573, 6.1530662E-03
1280.502, 5.7270718E-03
1282.430, 5.3522321E-03
1284.359, 5.0208159E-03
1286.287, 4.6153571E-03
1288.216, 4.1053710E-03
1290.144, 3.7689300E-03
1292.073, 3.6275671E-03
1294.001, 3.7327181E-03
1295.930, 3.9475751E-03
1297.858, 3.7310310E-03
1299.787, 3.5212371E-03
1301.715, 3.3113200E-03
1303.644, 3.2536630E-03
1305.572, 3.2926740E-03
1307.500, 3.2531810E-03
1309.429, 3.2939790E-03
1311.357, 3.2794271E-03
1313.286, 3.1918669E-03
1315.214, 3.2326221E-03
1317.143, 3.0602941E-03
1319.071, 2.9197440E-03
1321.000, 2.7219851E-03
1322.928, 2.8374409E-03
1324.857, 3.0917211E-03
1326.785, 2.8607789E-03
1328.714, 2.6342911E-03
1330.642, 2.6385130E-03
1332.571, 2.7973361E-03
1334.499, 2.7815229E-03
1336.427, 2.6909560E-03
1338.356, 2.7824340E-03
1340.284, 2.6109701E-03
1342.213, 2.5759970E-03
1344.141, 2.4732850E-03
1346.070, 2.3280601E-03
1347.998, 2.3794239E-03
1349.927, 2.5171260E-03
1351.855, 2.5686340E-03
1353.784, 2.3948611E-03
1355.712, 2.4399040E-03
1357.641, 2.6452790E-03
1359.569, 2.4349489E-03
1361.498, 2.3788840E-03
1363.426, 2.3093680E-03
1365.354, 2.1676819E-03
1367.283, 2.2633721E-03
1369.211, 2.4986861E-03
1371.140, 2.5027071E-03
1373.068, 2.5196590E-03
1374.997, 2.4413529E-03
1376.925, 2.2846919E-03
1378.854, 2.3877879E-03
1380.782, 2.4073420E-03
1382.711, 2.2727691E-03
1384.639, 2.4886010E-03
1386.568, 2.8656770E-03
1388.496, 2.6620980E-03
1390.424, 2.5528960E-03
1392.353, 2.7652350E-03
1394.281, 2.9074750E-03
1396.210, 2.7976199E-03
1398.138, 2.5329129E-03
1400.067, 2.6012550E-03
1401.995, 2.9763081E-03
1403.924, 3.1999131E-03
1405.852, 3.0867381E-03
1407.781, 2.8193989E-03
1409.709, 2.7422260E-03
1411.638, 2.9806099E-03
1413.566, 3.0649330E-03
1415.495, 2.9777249E-03
1417.423, 3.0016510E-03
1419.351, 3.1646860E-03
1421.280, 2.8941240E-03
1423.208, 2.7098940E-03
1425.137, 2.6382550E-03
1427.065, 2.5038919E-03
1428.994, 2.5048980E-03
1430.922, 2.5952100E-03
1432.851, 2.3193001E-03
1434.779, 2.6225899E-03
1436.708, 3.0113959E-03
1438.636, 2.5367809E-03
1440.565, 2.1414689E-03
1442.493, 2.1727760E-03
1444.422, 2.2006079E-03
1446.350, 2.0346220E-03
1448.278, 2.0602031E-03
1450.207, 1.7327050E-03
1452.135, 1.5906210E-03
1454.064, 1.7806990E-03
1455.992, 2.0331340E-03
1457.921, 1.7582460E-03
1459.849, 1.1430139E-03
1461.778, 9.6724893E-04
1463.706, 9.5881062E-04
1465.635, 1.0056470E-03
1467.563, 1.0005900E-03
1469.492, 1.2017820E-03
1471.420, 1.9430220E-03
1473.349, 2.4748240E-03
1475.277, 2.5396501E-03
1477.205, 2.6037600E-03
1479.134, 2.5789631E-03
1481.062, 2.7468619E-03
1482.991, 2.6622100E-03
1484.919, 2.5359481E-03
1486.848, 2.6447959E-03
1488.776, 2.6870109E-03
1490.705, 2.7909861E-03
1492.633, 2.9806891E-03
1494.562, 2.9518071E-03
1496.490, 2.8289589E-03
1498.419, 2.8626740E-03
1500.347, 2.7104400E-03
1502.276, 2.4478640E-03
1504.204, 2.8473961E-03
1506.132, 3.3642990E-03
1508.061, 3.3570540E-03
1509.989, 3.0963270E-03
1511.918, 2.8148540E-03
1513.846, 2.3833960E-03
1515.775, 2.4062430E-03
1517.703, 2.7105880E-03
1519.632, 2.9964650E-03
1521.560, 3.2982789E-03
1523.489, 3.1411001E-03
1525.417, 2.9285189E-03
1527.346, 2.8665001E-03
1529.274, 2.8704749E-03
1531.203, 2.9370270E-03
1533.131, 3.2294290E-03
1535.059, 3.1338860E-03
1536.988, 3.2594569E-03
1538.916, 3.8854301E-03
1540.845, 3.8286280E-03
1542.773, 3.2852360E-03
1544.702, 3.2240760E-03
1546.630, 3.0484670E-03
1548.559, 3.0907721E-03
1550.487, 3.3713100E-03
1552.416, 3.2422440E-03
1554.344, 2.9780010E-03
1556.273, 3.4545821E-03
1558.201, 4.3930290E-03
1560.130, 4.1257269E-03
1562.058, 3.2019010E-03
1563.986, 3.1387960E-03
1565.915, 3.2840970E-03
1567.843, 3.2474259E-03
1569.772, 3.3836551E-03
1571.700, 3.2587640E-03
1573.629, 3.3639870E-03
1575.557, 3.9139339E-03
1577.486, 3.9838082E-03
1579.414, 3.7988410E-03
1581.343, 3.8180209E-03
1583.271, 3.8703671E-03
1585.200, 4.0116352E-03
1587.128, 4.0783011E-03
1589.057, 4.2671720E-03
1590.985, 4.2409510E-03
1592.913, 4.4049448E-03
1594.842, 5.0322441E-03
1596.770, 5.5521070E-03
1598.699, 5.7325349E-03
1600.627, 5.4212930E-03
1602.556, 4.8993519E-03
1604.484, 4.8584030E-03
1606.413, 5.2109030E-03
1608.341, 5.5219708E-03
1610.270, 5.9988792E-03
1612.198, 6.9067422E-03
1614.127, 7.8882854E-03
1616.055, 9.2940098E-03
1617.984, 1.0891770E-02
1619.912, 1.2783310E-02
1621.840, 1.4620270E-02
1623.769, 1.5238250E-02
1625.697, 1.4399190E-02
1627.626, 1.3045490E-02
1629.554, 1.2146240E-02
1631.483, 1.1820720E-02
1633.411, 1.1208930E-02
1635.340, 1.0075330E-02
1637.268, 8.1016766E-03
1639.197, 6.4431890E-03
1641.125, 5.3462940E-03
1643.054, 4.9439440E-03
1644.982, 5.2198260E-03
1646.911, 5.4128100E-03
1648.839, 5.0116358E-03
1650.767, 5.1839161E-03
1652.696, 6.0316771E-03
1654.624, 5.4948968E-03
1656.553, 4.6647871E-03
1658.481, 4.5394781E-03
1660.410, 4.5779748E-03
1662.338, 4.5318538E-03
1664.267, 4.3250560E-03
1666.195, 4.1206041E-03
1668.124, 4.1744588E-03
1670.052, 4.3382542E-03
1671.981, 4.4306559E-03
1673.909, 4.5045190E-03
1675.838, 4.4064070E-03
1677.766, 3.9837491E-03
1679.694, 3.8704849E-03
1681.623, 4.1154982E-03
1683.551, 4.5733508E-03
1685.480, 4.3121511E-03
1687.408, 3.7972080E-03
1689.337, 3.8239430E-03
1691.265, 3.7646000E-03
1693.194, 4.0443558E-03
1695.122, 4.3999869E-03
1697.051, 4.2950911E-03
1698.979, 4.2611859E-03
1700.908, 3.9748359E-03
1702.836, 3.4980071E-03
1704.765, 3.5067359E-03
1706.693, 3.5875810E-03
1708.621, 3.5063650E-03
1710.550, 2.9611690E-03
1712.478, 2.9293010E-03
1714.407, 3.0020650E-03
1716.335, 3.3277781E-03
1718.264, 3.0631260E-03
1720.192, 2.4060060E-03
1722.121, 2.2902719E-03
1724.049, 2.0783369E-03
1725.978, 1.9632799E-03
1727.906, 2.0013510E-03
1729.835, 1.4028100E-03
1731.763, 9.3168707E-04
1733.692, 1.1586790E-03
1735.620, 9.5483649E-04
1737.548, 7.1565380E-05
1739.477, -4.6348089E-04
1741.405, -1.0838060E-03
1743.334, -1.6785990E-03
1745.262, -2.1258809E-03
1747.191, -1.8971619E-03
1749.119, -8.3600997E-04
1751.048, 1.0281710E-04
1752.976, 5.5251352E-04
1754.905, 1.1029760E-03
1756.833, 1.5528430E-03
1758.762, 2.0327079E-03
1760.690, 2.9821941E-03
1762.619, 2.8122840E-03
1764.547, 2.5289890E-03
1766.475, 3.2364700E-03
1768.404, 3.5276180E-03
1770.332, 3.1720281E-03
1772.261, 3.2023720E-03
1774.189, 2.9249189E-03
1776.118, 2.7549721E-03
1778.046, 3.2552441E-03
1779.975, 3.4061449E-03
1781.903, 3.0261851E-03
1783.832, 2.7086311E-03
1785.760, 2.7231970E-03
1787.689, 2.9062079E-03
1789.617, 3.0775040E-03
1791.546, 3.3900100E-03
1793.474, 3.4678499E-03
1795.402, 3.0844070E-03
1797.331, 2.9956510E-03
1799.259, 3.3276081E-03
1801.188, 3.6770781E-03
1803.116, 3.4483890E-03
1805.045, 3.0830789E-03
1806.973, 3.0769960E-03
1808.902, 2.9641569E-03
1810.830, 3.0401349E-03
1812.759, 3.2103520E-03
1814.687, 2.7636890E-03
1816.616, 2.5947981E-03
1818.544, 2.7835311E-03
1820.473, 2.5445111E-03
1822.401, 2.1708631E-03
1824.329, 2.2237741E-03
1826.258, 2.5769409E-03
1828.186, 2.6270661E-03
1830.115, 2.5567110E-03
1832.043, 2.7984681E-03
1833.972, 2.6470241E-03
1835.900, 2.6604279E-03
1837.829, 2.8430540E-03
1839.757, 2.7543399E-03
1841.686, 2.7034660E-03
1843.614, 3.7854780E-03
1845.543, 3.1166440E-03
1847.471, 2.4277510E-03
1849.400, 2.9312479E-03
1851.328, 2.6512111E-03
1853.256, 2.4230350E-03
1855.185, 2.9148760E-03
1857.113, 2.7127769E-03
1859.042, 2.2654070E-03
1860.970, 2.1700650E-03
1862.899, 2.4638739E-03
1864.827, 3.0634899E-03
1866.756, 3.4834349E-03
1868.684, 3.4418269E-03
1870.613, 3.6272779E-03
1872.541, 3.4325439E-03
1874.470, 2.7423049E-03
1876.398, 2.2025800E-03
1878.327, 2.1382601E-03
1880.255, 2.6097570E-03
1882.183, 3.2644861E-03
1884.112, 3.1696821E-03
1886.040, 1.8190400E-03
1887.969, 1.8030320E-03
1889.897, 2.6178011E-03
1891.826, 2.6518521E-03
1893.754, 2.6455531E-03
1895.683, 2.7168719E-03
1897.611, 2.4610979E-03
1899.540, 2.5954200E-03
1901.468, 2.3356830E-03
1903.397, 1.8562590E-03
1905.325, 2.3385850E-03
1907.254, 2.6968089E-03
1909.182, 2.1286090E-03
1911.110, 1.9724411E-03
1913.039, 2.3774840E-03
1914.967, 2.5872849E-03
1916.896, 3.2517430E-03
1918.824, 3.6688449E-03
1920.753, 3.0525811E-03
1922.681, 2.0003479E-03
1924.610, 2.3618711E-03
1926.538, 2.6827070E-03
1928.467, 2.7582811E-03
1930.395, 2.0630651E-03
1932.324, 1.7891190E-03
1934.252, 3.1436370E-03
1936.181, 3.4031630E-03
1938.109, 3.0166809E-03
1940.037, 3.5538180E-03
1941.966, 3.5262059E-03
1943.894, 2.4744191E-03
1945.823, 2.2938349E-03
1947.751, 2.7784819E-03
1949.680, 2.6054771E-03
1951.608, 8.4384118E-04
1953.537, 7.5895822E-04
1955.465, 1.2417480E-03
1957.394, 2.7049400E-04
1959.322, 5.3959351E-04
1961.251, 1.0518980E-03
1963.179, -3.7303401E-04
1965.108, -2.3925290E-04
1967.036, 1.7603220E-03
1968.964, 2.5433011E-03
1970.893, 2.7859421E-03
1972.821, 3.1878189E-03
1974.750, 1.9291900E-03
1976.678, 2.5237701E-03
1978.607, 4.1292538E-03
1980.535, 4.2535611E-03
1982.464, 4.0183081E-03
1984.392, 4.0802839E-03
1986.321, 4.8099700E-03
1988.249, 4.9566850E-03
1990.178, 4.6561989E-03
1992.106, 4.9138572E-03
1994.035, 2.7399759E-03
1995.963, 1.6838270E-03
1997.891, 9.9963916E-04
1999.820, 1.6294550E-03
2001.748, 1.7997610E-03
2003.677, 4.1085129E-04
2005.605, -3.8235771E-04
2007.534, 7.4045692E-04
2009.462, 2.5744241E-04
2011.391, 2.3435699E-04
2013.319, 1.0579170E-03
2015.248, 1.1085380E-03
2017.176, 8.6396240E-04
2019.105, 1.4487350E-03
2021.033, 3.5049781E-04
2022.962, -6.5685846E-05
2024.890, 3.0995620E-04
2026.818, -1.9201300E-03
2028.747, -1.4864040E-03
2030.675, 6.0105522E-04
2032.604, 4.9070199E-04
2034.532, 3.4407401E-03
2036.461, 3.5134370E-03
2038.389, 1.3661730E-03
2040.318, 2.7626110E-03
2042.246, 4.0071951E-03
2044.175, 2.7109680E-03
2046.103, 3.0774151E-03
2048.032, 2.5334090E-03
2049.960, 1.6198850E-03
2051.889, 2.3083710E-03
2053.817, 2.9009050E-03
2055.746, 1.7724120E-03
2057.674, 6.4240937E-04
2059.603, 1.7551560E-03
2061.531, 2.4579780E-03
2063.459, 3.1693859E-03
2065.388, 3.7699691E-03
2067.316, 4.8262728E-03
2069.245, 4.9667880E-03
2071.173, 4.2623081E-03
2073.102, 2.9858961E-03
2075.030, 1.7897270E-03
2076.959, 3.1019319E-03
2078.887, 3.2367711E-03
2080.816, 2.6573520E-03
2082.744, 3.4498109E-03
2084.673, 3.4907949E-03
2086.601, 3.6091730E-03
2088.530, 3.9638560E-03
2090.458, 3.4017509E-03
2092.386, 3.2257140E-03
2094.315, 3.8636059E-03
2096.243, 4.1499161E-03
2098.172, 5.2414192E-03
2100.100, 5.0679292E-03
2102.029, 3.4172940E-03
2103.957, 2.4245421E-03
2105.886, 3.4033239E-03
2107.814, 4.4657150E-03
2109.743, 5.3673540E-03
2111.671, 3.8248000E-03
2113.600, 1.9829981E-03
2115.528, 2.8474310E-03
2117.457, 4.8947991E-03
2119.385, 4.9562319E-03
2121.313, 2.9123300E-03
2123.242, 2.2543559E-03
2125.170, 2.1221549E-03
2127.099, 1.9557569E-03
2129.027, 1.1431550E-03
2130.956, -1.8821959E-04
2132.884, 5.5295421E-04
2134.813, 1.7867880E-03
2136.741, 2.1192329E-03
2138.670, 2.4960900E-03
2140.598, 2.4122221E-03
2142.527, 1.7373400E-03
2144.455, -2.9561069E-04
2146.384, -8.8209019E-04
2148.312, 1.4720710E-03
2150.240, 3.8885069E-03
2152.169, 1.4950690E-03
2154.097, -5.7882491E-05
2156.026, -3.9396831E-04
2157.954, 1.3035249E-03
2159.883, 5.4311370E-03
2161.811, 4.6063159E-03
2163.740, 4.1029979E-03
2165.668, 6.5542092E-03
2167.597, 4.9205250E-03
2169.525, 2.1134920E-03
2171.454, 2.3591351E-03
2173.382, 4.6324912E-03
2175.311, 6.3652368E-03
2177.239, 8.7570446E-03
2179.167, 9.5831202E-03
2181.096, 7.3061232E-03
2183.024, 6.2995530E-03
2184.953, 6.1209709E-03
2186.881, 5.5004829E-03
2188.810, 6.1482731E-03
2190.738, 5.9518502E-03
2192.667, 4.7137509E-03
2194.595, 5.6746588E-03
2196.524, 5.6580468E-03
2198.452, 5.7824631E-03
2200.381, 5.0355489E-03
2202.309, 4.6577030E-03
2204.238, 6.1438289E-03
2206.166, 7.7290940E-03
2208.094, 7.9673240E-03
2210.023, 8.4737036E-03
2211.951, 7.6593761E-03
2213.880, 6.2946682E-03
2215.808, 5.3975061E-03
2217.737, 5.9695961E-03
2219.665, 7.2478252E-03
2221.594, 8.9447303E-03
2223.522, 8.7599941E-03
2225.451, 7.0389551E-03
2227.379, 6.5331259E-03
2229.308, 6.1018290E-03
2231.236, 2.6566109E-03
2233.165, 2.3042371E-03
2235.093, 5.1761880E-03
2237.021, 6.5029049E-03
2238.950, 5.1690852E-03
2240.878, 4.1127368E-03
2242.807, 3.3606631E-03
2244.735, 2.8735530E-03
2246.664, 3.6017699E-03
2248.592, 5.3120959E-03
2250.521, 5.1041190E-03
2252.449, 3.1392339E-03
2254.378, 2.3209590E-03
2256.306, 3.5316900E-03
2258.235, 5.2858251E-03
2260.163, 5.6998669E-03
2262.092, 3.7830679E-03
2264.020, 3.3429940E-03
2265.948, 3.7181459E-03
2267.877, 2.9478699E-03
2269.805, 3.5824080E-03
2271.734, 5.4172478E-03
2273.662, 6.4586550E-03
2275.591, 4.6061669E-03
2277.519, 3.8907640E-03
2279.448, 5.3151278E-03
2281.376, 4.4587110E-03
2283.305, 4.7888621E-03
2285.233, 7.2654169E-03
2287.162, 7.4134739E-03
2289.090, 6.3170572E-03
2291.019, 6.1931270E-03
2292.947, 6.5733930E-03
2294.875, 6.8320790E-03
2296.804, 6.5599359E-03
2298.732, 6.6681858E-03
2300.661, 6.2608449E-03
2302.589, 5.8216718E-03
2304.518, 6.8091978E-03
2306.446, 7.1739792E-03
2308.375, 6.7634550E-03
2310.303, 6.3356920E-03
2312.232, 5.8284821E-03
2314.160, 6.2292209E-03
2316.089, 6.5407841E-03
2318.017, 7.2983932E-03
2319.946, 8.1599467E-03
2321.874, 8.0927424E-03
2323.802, 8.0390014E-03
2325.731, 7.3132101E-03
2327.659, 6.7634340E-03
2329.588, 6.9022360E-03
2331.516, 6.8517928E-03
2333.445, 7.2701811E-03
2335.373, 7.3895948E-03
2337.302, 7.1983500E-03
2339.230, 6.8682190E-03
2341.159, 6.8193702E-03
2343.087, 6.5553770E-03
2345.016, 5.9296428E-03
2346.944, 6.1337589E-03
2348.873, 6.0340432E-03
2350.801, 5.6413510E-03
2352.729, 6.2690349E-03
2354.658, 7.1905171E-03
2356.586, 7.9803737E-03
2358.515, 7.9936786E-03
2360.443, 7.8675626E-03
2362.372, 7.4323690E-03
2364.300, 6.6758329E-03
2366.229, 6.3669318E-03
2368.157, 7.0335749E-03
2370.086, 7.0376419E-03
2372.014, 5.6408900E-03
2373.942, 5.2879700E-03
2375.871, 5.1408280E-03
2377.799, 5.1455549E-03
2379.728, 5.3708418E-03
2381.656, 5.6176400E-03
2383.585, 6.1386279E-03
2385.513, 6.2901461E-03
2387.442, 6.6952328E-03
2389.370, 6.8079801E-03
2391.299, 6.7558130E-03
2393.227, 5.8206711E-03
2395.156, 5.8520171E-03
2397.084, 6.0363780E-03
2399.012, 5.7378639E-03
2400.941, 5.1522208E-03
2402.869, 5.2687009E-03
2404.798, 6.5811188E-03
2406.726, 6.9243792E-03
2408.655, 6.5631652E-03
2410.583, 7.1094022E-03
2412.512, 6.6806641E-03
2414.440, 5.8605992E-03
2416.369, 6.2244278E-03
2418.297, 6.7196670E-03
2420.226, 6.0843299E-03
2422.154, 5.8372770E-03
2424.083, 5.6930808E-03
2426.011, 5.5355802E-03
2427.939, 6.5572639E-03
2429.868, 7.6517770E-03
2431.796, 7.9238499E-03
2433.725, 8.0321021E-03
2435.653, 8.1095407E-03
2437.582, 7.5782030E-03
2439.510, 6.2882681E-03
2441.439, 6.0388059E-03
2443.367, 6.5324591E-03
2445.296, 7.3523400E-03
2447.224, 6.5866648E-03
2449.153, 6.3818600E-03
2451.081, 7.3145372E-03
2453.010, 7.3496718E-03
2454.938, 6.3143698E-03
2456.866, 6.3681379E-03
2458.795, 8.1303576E-03
2460.723, 7.8775603E-03
2462.652, 7.0157940E-03
2464.580, 7.1015172E-03
2466.509, 7.3919282E-03
2468.437, 7.2042728E-03
2470.366, 7.2169872E-03
2472.294, 7.6491591E-03
2474.223, 7.9892427E-03
2476.151, 7.6453909E-03
2478.080, 7.3585641E-03
2480.008, 7.5627109E-03
2481.937, 7.1853870E-03
2483.865, 7.1200519E-03
2485.793, 7.9462836E-03
2487.722, 8.0240294E-03
2489.650, 7.9756500E-03
2491.579, 8.5126478E-03
2493.507, 7.8318743E-03
2495.436, 7.1877609E-03
2497.364, 7.2213882E-03
2499.293, 6.5384228E-03
2501.221, 6.7490931E-03
2503.150, 7.5166868E-03
2505.078, 7.0024878E-03
2507.007, 7.0728408E-03
2508.935, 8.0380151E-03
2510.864, 8.5900240E-03
2512.792, 7.7773910E-03
2514.720, 8.0633489E-03
2516.649, 8.1187608E-03
2518.577, 8.0800047E-03
2520.506, 7.9202913E-03
2522.434, 7.8186002E-03
2524.363, 8.8725360E-03
2526.291, 9.5732743E-03
2528.220, 8.3115539E-03
2530.148, 8.2670432E-03
2532.077, 9.4283978E-03
2534.005, 8.3886106E-03
2535.934, 7.0250621E-03
2537.862, 7.5408272E-03
2539.791, 8.4698368E-03
2541.719, 9.1664484E-03
2543.647, 8.0065932E-03
2545.576, 7.4552200E-03
2547.504, 8.1296097E-03
2549.433, 8.3597591E-03
2551.361, 8.6505264E-03
2553.290, 9.0301577E-03
2555.218, 8.9345546E-03
2557.147, 8.3847968E-03
2559.075, 8.0621587E-03
2561.004, 8.5822232E-03
2562.932, 8.4970361E-03
2564.861, 9.3208617E-03
2566.789, 8.9648115E-03
2568.718, 7.3253312E-03
2570.646, 7.3641818E-03
2572.574, 8.2517741E-03
2574.503, 8.0150459E-03
2576.431, 8.9348927E-03
2578.360, 9.7253434E-03
2580.288, 9.0133371E-03
2582.217, 8.0137253E-03
2584.145, 8.9789927E-03
2586.074, 9.9509209E-03
2588.002, 9.8588550E-03
2589.931, 1.0576130E-02
2591.859, 1.0454930E-02
2593.788, 1.0460200E-02
2595.716, 1.0828380E-02
2597.645, 1.0637520E-02
2599.573, 9.5120687E-03
2601.501, 8.8965464E-03
2603.430, 8.7359603E-03
2605.358, 8.9567220E-03
2607.287, 1.0367550E-02
2609.215, 1.0718070E-02
2611.144, 1.0340540E-02
2613.072, 1.0257130E-02
2615.001, 1.1221090E-02
2616.929, 1.1292420E-02
2618.858, 1.0754440E-02
2620.786, 9.8901009E-03
2622.715, 8.5681826E-03
2624.643, 8.1418017E-03
2626.572, 8.4326919E-03
2628.500, 9.5320214E-03
2630.428, 1.0628900E-02
2632.357, 1.0624370E-02
2634.285, 1.0440110E-02
2636.214, 1.0218590E-02
2638.142, 1.0466330E-02
2640.071, 1.1055010E-02
2641.999, 1.0733880E-02
2643.928, 9.9230846E-03
2645.856, 9.4686402E-03
2647.785, 9.3914215E-03
2649.713, 9.7797383E-03
2651.642, 9.5750988E-03
2653.570, 9.4026336E-03
2655.499, 9.4365235E-03
2657.427, 9.6003404E-03
2659.355, 9.5052226E-03
2661.284, 9.0508638E-03
2663.212, 9.3062064E-03
2665.141, 9.5034633E-03
2667.069, 8.9325858E-03
2668.998, 8.3943866E-03
2670.926, 8.3820894E-03
2672.855, 8.8760154E-03
2674.783, 9.1629643E-03
2676.712, 9.0163630E-03
2678.640, 8.8523878E-03
2680.569, 9.3441131E-03
2682.497, 1.0121630E-02
2684.426, 9.8071229E-03
2686.354, 9.0932464E-03
2688.282, 9.0442067E-03
2690.211, 9.4213057E-03
2692.139, 1.0028000E-02
2694.068, 8.9895464E-03
2695.996, 8.4137982E-03
2697.925, 8.9595374E-03
2699.853, 9.3324333E-03
2701.782, 8.7611871E-03
2703.710, 7.9922471E-03
2705.639, 9.0943379E-03
2707.567, 1.0233260E-02
2709.496, 1.0192470E-02
2711.424, 9.8320283E-03
2713.353, 1.0269820E-02
2715.281, 1.0654490E-02
2717.209, 1.0131320E-02
2719.138, 9.3706017E-03
2721.066, 9.5971497E-03
2722.995, 9.9950768E-03
2724.923, 9.6792104E-03
2726.852, 1.0658230E-02
2728.780, 1.0802800E-02
2730.709, 9.8147504E-03
2732.637, 1.0035950E-02
2734.566, 1.0381140E-02
2736.494, 1.0560850E-02
2738.423, 1.0990040E-02
2740.351, 1.0471670E-02
2742.280, 9.7953919E-03
2744.208, 1.0216970E-02
2746.136, 1.0465020E-02
2748.065, 1.0419540E-02
2749.993, 1.1216150E-02
2751.922, 1.1194330E-02
2753.850, 1.1232550E-02
2755.779, 1.0846290E-02
2757.707, 1.1655580E-02
2759.636, 1.1324440E-02
2761.564, 1.0318180E-02
2763.493, 1.0962770E-02
2765.421, 1.1387410E-02
2767.350, 1.0823800E-02
2769.278, 1.0603620E-02
2771.207, 1.0587150E-02
2773.135, 1.0719060E-02
2775.063, 1.1796030E-02
2776.992, 1.2426160E-02
2778.920, 1.1726830E-02
2780.849, 1.0913440E-02
2782.777, 1.0575000E-02
2784.706, 1.0871270E-02
2786.634, 1.0977340E-02
2788.563, 1.0603590E-02
2790.491, 1.0992060E-02
2792.420, 1.1534290E-02
2794.348, 1.1667870E-02
2796.277, 1.1562890E-02
2798.205, 1.1704740E-02
2800.134, 1.1197210E-02
2802.062, 1.1226860E-02
2803.990, 1.1294380E-02
2805.919, 1.1767490E-02
2807.847, 1.2811000E-02
2809.776, 1.3283160E-02
2811.704, 1.2061430E-02
2813.633, 1.0399490E-02
2815.561, 1.0122510E-02
2817.490, 1.0621050E-02
2819.418, 1.1014010E-02
2821.347, 1.1501100E-02
2823.275, 1.2769560E-02
2825.204, 1.2619320E-02
2827.132, 1.0683800E-02
2829.061, 9.7576352E-03
2830.989, 1.1197310E-02
2832.917, 1.2745490E-02
2834.846, 1.1514240E-02
2836.774, 1.1009330E-02
2838.703, 1.2933210E-02
2840.631, 1.2951870E-02
2842.560, 1.1953710E-02
2844.488, 1.1874420E-02
2846.417, 1.1445100E-02
2848.345, 1.0377650E-02
2850.274, 1.0446720E-02
2852.202, 1.1091510E-02
2854.131, 1.0998170E-02
2856.059, 1.0358660E-02
2857.988, 1.0405030E-02
2859.916, 1.1450360E-02
2861.844, 1.2627190E-02
2863.773, 1.2417370E-02
2865.701, 1.1684130E-02
2867.630, 1.0702050E-02
2869.558, 1.0196040E-02
2871.487, 1.1194380E-02
2873.415, 1.2689080E-02
2875.344, 1.2190020E-02
2877.272, 1.1592030E-02
2879.201, 1.1946250E-02
2881.129, 1.2702650E-02
2883.058, 1.2723400E-02
2884.986, 1.2255060E-02
2886.915, 1.2438140E-02
2888.843, 1.2040460E-02
2890.771, 1.3449650E-02
2892.700, 1.4919780E-02
2894.628, 1.4755240E-02
2896.557, 1.4644970E-02
2898.485, 1.4391910E-02
2900.414, 1.3370990E-02
2902.342, 1.0754090E-02
2904.271, 1.0294030E-02
2906.199, 1.2342810E-02
2908.128, 1.3615350E-02
2910.056, 1.3108030E-02
2911.985, 1.2930420E-02
2913.913, 1.3237360E-02
2915.842, 1.2274780E-02
2917.770, 1.1996120E-02
2919.698, 1.4106150E-02
2921.627, 1.4283060E-02
2923.555, 1.2347840E-02
2925.484, 1.2150200E-02
2927.412, 1.1606690E-02
2929.341, 1.1044620E-02
2931.269, 1.1387220E-02
2933.198, 1.2439420E-02
2935.126, 1.1940160E-02
2937.055, 1.1454580E-02
2938.983, 1.1531350E-02
2940.912, 1.0860780E-02
2942.840, 1.0822020E-02
2944.769, 1.0199550E-02
2946.697, 8.1165889E-03
2948.625, 9.5645553E-03
2950.554, 1.1925290E-02
2952.482, 1.2141730E-02
2954.411, 1.0300500E-02
2956.339, 1.1295250E-02
2958.268, 1.2692860E-02
2960.196, 1.1102770E-02
2962.125, 1.0377410E-02
2964.053, 1.1694990E-02
2965.982, 1.1541120E-02
2967.910, 1.1528610E-02
2969.839, 1.3561740E-02
2971.767, 1.3903280E-02
2973.696, 1.2400720E-02
2975.624, 1.2834250E-02
2977.552, 1.3872730E-02
2979.481, 1.4258170E-02
2981.409, 1.3032050E-02
2983.338, 1.2862660E-02
2985.266, 1.4982090E-02
2987.195, 1.6402511E-02
2989.123, 1.5730331E-02
2991.052, 1.3221880E-02
2992.980, 1.3258720E-02
2994.909, 1.3164160E-02
2996.837, 1.2537710E-02
2998.766, 1.3807440E-02
3000.694, 1.4692460E-02
3002.623, 1.3934790E-02
3004.551, 1.4469630E-02
3006.479, 1.4776200E-02
3008.408, 1.3825740E-02
3010.336, 1.3235920E-02
3012.265, 1.3790040E-02
3014.193, 1.3693820E-02
3016.122, 1.2753780E-02
3018.050, 1.1699300E-02
3019.979, 1.1949260E-02
3021.907, 1.3647160E-02
3023.836, 1.5389050E-02
3025.764, 1.6614979E-02
3027.693, 1.5289350E-02
3029.621, 1.4211800E-02
3031.550, 1.2294580E-02
3033.478, 1.1552480E-02
3035.406, 1.3813060E-02
3037.335, 1.4036490E-02
3039.263, 1.3595500E-02
3041.192, 1.3243080E-02
3043.120, 1.3747720E-02
3045.049, 1.3311540E-02
3046.977, 1.3515700E-02
3048.906, 1.2638230E-02
3050.834, 1.1747870E-02
3052.763, 1.2085610E-02
3054.691, 1.3787220E-02
3056.620, 1.5391230E-02
3058.548, 1.4657700E-02
3060.477, 1.2488250E-02
3062.405, 1.2346860E-02
3064.333, 1.2914190E-02
3066.262, 1.2770120E-02
3068.190, 1.3475510E-02
3070.119, 1.1638520E-02
3072.047, 1.1101010E-02
3073.976, 1.2435340E-02
3075.904, 1.1904430E-02
3077.833, 1.1833380E-02
3079.761, 1.2123090E-02
3081.690, 1.2204670E-02
3083.618, 1.2633060E-02
3085.547, 1.3940010E-02
3087.475, 1.4612710E-02
3089.404, 1.4965030E-02
3091.332, 1.4397970E-02
3093.260, 1.4964260E-02
3095.189, 1.4564470E-02
3097.117, 1.3934390E-02
3099.046, 1.4057020E-02
3100.974, 1.3705360E-02
3102.903, 1.2932210E-02
3104.831, 1.2497830E-02
3106.760, 1.2813870E-02
3108.688, 1.3462390E-02
3110.617, 1.3804940E-02
3112.545, 1.4162560E-02
3114.474, 1.3974860E-02
3116.402, 1.5250110E-02
3118.331, 1.5529540E-02
3120.259, 1.5741020E-02
3122.188, 1.4781370E-02
3124.116, 1.3257960E-02
3126.044, 1.5125230E-02
3127.973, 1.4781100E-02
3129.901, 1.4036510E-02
3131.830, 1.5156380E-02
3133.758, 1.4871050E-02
3135.687, 1.5314120E-02
3137.615, 1.5532150E-02
3139.544, 1.3490270E-02
3141.472, 1.2932740E-02
3143.401, 1.4321490E-02
3145.329, 1.5652450E-02
3147.258, 1.5534470E-02
3149.186, 1.4727730E-02
3151.115, 1.3532020E-02
3153.043, 1.2524080E-02
3154.971, 1.1179930E-02
3156.900, 1.1199940E-02
3158.828, 1.4697710E-02
3160.757, 1.6038800E-02
3162.685, 1.4272770E-02
3164.614, 1.2354920E-02
3166.542, 1.2329840E-02
3168.471, 1.3372680E-02
3170.399, 1.2836440E-02
3172.328, 1.3664620E-02
3174.256, 1.3854270E-02
3176.185, 1.3128960E-02
3178.113, 1.3378600E-02
3180.042, 1.4312980E-02
3181.970, 1.5039540E-02
3183.898, 1.5112960E-02
3185.827, 1.5223720E-02
3187.755, 1.5620210E-02
3189.684, 1.4589830E-02
3191.612, 1.4264080E-02
3193.541, 1.5184620E-02
3195.469, 1.6717870E-02
3197.398, 1.6529489E-02
3199.326, 1.5037230E-02
3201.255, 1.4400840E-02
3203.183, 1.4113680E-02
3205.112, 1.4247160E-02
3207.040, 1.6108099E-02
3208.969, 1.6563920E-02
3210.897, 1.5229500E-02
3212.825, 1.3212610E-02
3214.754, 1.2352920E-02
3216.682, 1.4523120E-02
3218.611, 1.6587360E-02
3220.539, 1.5880249E-02
3222.468, 1.6264871E-02
3224.396, 1.6302601E-02
3226.325, 1.6782571E-02
3228.253, 1.6797690E-02
3230.182, 1.5124050E-02
3232.110, 1.4063940E-02
3234.039, 1.4588600E-02
3235.967, 1.4210360E-02
3237.896, 1.3410370E-02
3239.824, 1.6344219E-02
3241.752, 1.7236060E-02
3243.681, 1.5869791E-02
3245.609, 1.5334130E-02
3247.538, 1.3949570E-02
3249.466, 1.3734090E-02
3251.395, 1.5504140E-02
3253.323, 1.6305121E-02
3255.252, 1.4990250E-02
3257.180, 1.2577030E-02
3259.109, 1.3233660E-02
3261.037, 1.5457920E-02
3262.966, 1.6652940E-02
3264.894, 1.7038601E-02
3266.823, 1.8183080E-02
3268.751, 1.6996250E-02
3270.679, 1.5362080E-02
3272.608, 1.4407520E-02
3274.536, 1.3933290E-02
3276.465, 1.4562140E-02
3278.393, 1.4351900E-02
3280.322, 1.4245950E-02
3282.250, 1.5438310E-02
3284.179, 1.4333590E-02
3286.107, 1.2728610E-02
3288.036, 1.3836820E-02
3289.964, 1.5443410E-02
3291.893, 1.5194360E-02
3293.821, 1.5071350E-02
3295.750, 1.4755320E-02
3297.678, 1.5353700E-02
3299.606, 1.5332740E-02
3301.535, 1.6218901E-02
3303.463, 1.6852640E-02
3305.392, 1.6732059E-02
3307.320, 1.6500371E-02
3309.249, 1.6849320E-02
3311.177, 1.7863320E-02
3313.106, 1.8702351E-02
3315.034, 1.6806651E-02
3316.963, 1.6029160E-02
3318.891, 1.6379790E-02
3320.820, 1.5799699E-02
3322.748, 1.6134599E-02
3324.677, 1.5223000E-02
3326.605, 1.3268430E-02
3328.533, 1.4450870E-02
3330.462, 1.5598260E-02
3332.390, 1.5141270E-02
3334.319, 1.4338960E-02
3336.247, 1.4249790E-02
3338.176, 1.6366901E-02
3340.104, 1.6265219E-02
3342.033, 1.5068260E-02
3343.961, 1.6063061E-02
3345.890, 1.7364129E-02
3347.818, 1.9190401E-02
3349.747, 1.9018941E-02
3351.675, 1.7015669E-02
3353.604, 1.6174771E-02
3355.532, 1.5026340E-02
3357.460, 1.3803820E-02
3359.389, 1.4499500E-02
3361.317, 1.5883841E-02
3363.246, 1.6037270E-02
3365.174, 1.7358139E-02
3367.103, 1.7627550E-02
3369.031, 1.5277410E-02
3370.960, 1.6217930E-02
3372.888, 1.7530140E-02
3374.817, 1.8382151E-02
3376.745, 1.7361330E-02
3378.674, 1.6280740E-02
3380.602, 1.7850369E-02
3382.531, 1.6458901E-02
3384.459, 1.3964970E-02
3386.387, 1.3954350E-02
3388.316, 1.4843770E-02
3390.244, 1.5799560E-02
3392.173, 1.6839569E-02
3394.101, 1.7055960E-02
3396.030, 1.6118061E-02
3397.958, 1.6918400E-02
3399.887, 1.7220650E-02
3401.815, 1.6476359E-02
3403.744, 1.7348820E-02
3405.672, 1.6076211E-02
3407.601, 1.4110730E-02
3409.529, 1.6261401E-02
3411.458, 1.7835161E-02
3413.386, 1.7520869E-02
3415.314, 1.7033201E-02
3417.243, 1.5466970E-02
3419.171, 1.4070350E-02
3421.100, 1.5427500E-02
3423.028, 1.6855201E-02
3424.957, 1.7547309E-02
3426.885, 1.6159009E-02
3428.814, 1.4665810E-02
3430.742, 1.7764101E-02
3432.671, 1.9789631E-02
3434.599, 1.9151511E-02
3436.528, 1.9453051E-02
3438.456, 1.9118311E-02
3440.385, 1.8761100E-02
3442.313, 1.8235110E-02
3444.241, 1.7629830E-02
3446.170, 1.9779051E-02
3448.098, 2.0480501E-02
3450.027, 1.9975530E-02
3451.955, 2.0740321E-02
3453.884, 2.1263940E-02
3455.812, 2.0763950E-02
3457.741, 1.9214280E-02
3459.669, 1.8312780E-02
3461.598, 1.8759480E-02
3463.526, 1.9139960E-02
3465.455, 1.9159570E-02
3467.383, 1.6985871E-02
3469.312, 1.6420890E-02
3471.240, 1.9488050E-02
3473.168, 2.1533011E-02
3475.097, 2.0640859E-02
3477.025, 2.1426860E-02
3478.954, 2.1062080E-02
3480.882, 1.8536210E-02
3482.811, 1.7979991E-02
3484.739, 1.9510390E-02
3486.668, 1.9690409E-02
3488.596, 1.8287580E-02
3490.525, 1.8506659E-02
3492.453, 1.5897419E-02
3494.382, 1.5861740E-02
3496.310, 1.7278260E-02
3498.239, 1.6321819E-02
3500.167, 1.6154990E-02
3502.095, 1.6288210E-02
3504.024, 1.5941059E-02
3505.952, 1.5135480E-02
3507.881, 1.6490061E-02
3509.809, 1.7154310E-02
3511.738, 1.7003709E-02
3513.666, 2.0410899E-02
3515.595, 2.1139329E-02
3517.523, 1.7857051E-02
3519.452, 1.6281949E-02
3521.380, 1.7871089E-02
3523.309, 1.8463170E-02
3525.237, 1.9083191E-02
3527.166, 1.8891411E-02
3529.094, 1.8318210E-02
3531.022, 1.8882100E-02
3532.951, 1.8851170E-02
3534.879, 1.9707831E-02
3536.808, 2.0916400E-02
3538.736, 1.7904600E-02
3540.665, 1.7145790E-02
3542.593, 2.0856859E-02
3544.522, 2.2616809E-02
3546.450, 2.0422600E-02
3548.379, 1.9848950E-02
3550.307, 2.0789471E-02
3552.236, 2.1982379E-02
3554.164, 2.0411650E-02
3556.093, 1.9800199E-02
3558.021, 1.9635649E-02
3559.949, 1.7648229E-02
3561.878, 1.5714761E-02
3563.806, 1.5784230E-02
3565.735, 1.9407930E-02
3567.663, 2.1614360E-02
3569.592, 2.0972410E-02
3571.520, 1.9369200E-02
3573.449, 1.9051669E-02
3575.377, 1.8114081E-02
3577.306, 1.5795279E-02
3579.234, 1.5405250E-02
3581.163, 1.6748670E-02
3583.091, 2.0650079E-02
3585.020, 2.2313470E-02
3586.948, 2.1412451E-02
3588.876, 2.2207441E-02
3590.805, 2.3848509E-02
3592.733, 2.2983270E-02
3594.662, 2.0584609E-02
3596.590, 2.0766040E-02
3598.519, 2.2697970E-02
3600.447, 2.0745151E-02
3602.376, 1.8041600E-02
3604.304, 1.5130490E-02
3606.233, 1.5254420E-02
3608.161, 1.6083101E-02
3610.090, 1.4326820E-02
3612.018, 1.4865510E-02
3613.947, 1.6502731E-02
3615.875, 1.5341900E-02
3617.803, 1.5173600E-02
3619.732, 1.6636539E-02
3621.660, 1.6883491E-02
3623.589, 1.6019531E-02
3625.517, 1.5638189E-02
3627.446, 1.6882030E-02
3629.374, 1.4930020E-02
3631.303, 1.2674500E-02
3633.231, 1.5700880E-02
3635.160, 2.0379281E-02
3637.088, 2.0601431E-02
3639.017, 1.6739549E-02
3640.945, 1.4548250E-02
3642.874, 1.5958101E-02
3644.802, 1.7580220E-02
3646.730, 1.8943859E-02
3648.659, 1.9334920E-02
3650.587, 1.9739700E-02
3652.516, 2.0010790E-02
3654.444, 2.0550940E-02
3656.373, 1.6931670E-02
3658.301, 1.6087521E-02
3660.230, 1.7940270E-02
3662.158, 1.7982120E-02
3664.087, 1.8086631E-02
3666.015, 1.7727990E-02
3667.944, 1.4366200E-02
3669.872, 1.3555800E-02
3671.801, 1.5360030E-02
3673.729, 1.7807759E-02
3675.657, 1.9255480E-02
3677.586, 1.7180409E-02
3679.514, 1.7750120E-02
3681.443, 1.5814239E-02
3683.371, 1.3438400E-02
3685.300, 1.3948780E-02
3687.228, 1.4934310E-02
3689.157, 1.6565289E-02
3691.085, 1.8425250E-02
3693.014, 1.9361639E-02
3694.942, 2.0600591E-02
3696.871, 2.0253800E-02
3698.799, 1.9312950E-02
3700.728, 1.7737269E-02
3702.656, 1.5104280E-02
3704.584, 1.4755220E-02
3706.513, 1.7998589E-02
3708.441, 1.4779630E-02
3710.370, 1.3126710E-02
3712.298, 1.6563941E-02
3714.227, 1.5499240E-02
3716.155, 1.4730720E-02
3718.084, 1.3986620E-02
3720.012, 1.4296650E-02
3721.941, 1.4734740E-02
3723.869, 1.4158120E-02
3725.798, 1.4782900E-02
3727.726, 1.5751250E-02
3729.655, 1.4648430E-02
3731.583, 1.4161260E-02
3733.511, 1.2099970E-02
3735.440, 1.1905720E-02
3737.368, 1.1811320E-02
3739.297, 9.3253925E-03
3741.225, 8.7091867E-03
3743.154, 1.4821600E-02
3745.082, 2.1312959E-02
3747.011, 2.2829970E-02
3748.939, 2.1360710E-02
3750.868, 1.9167149E-02
3752.796, 1.7367249E-02
3754.725, 1.6023999E-02
3756.653, 1.8658379E-02
3758.582, 1.7795481E-02
3760.510, 1.5540410E-02
3762.438, 1.4415060E-02
3764.367, 1.4438430E-02
3766.295, 1.6582729E-02
3768.224, 1.7628331E-02
3770.152, 1.4914130E-02
3772.081, 1.3080950E-02
3774.009, 1.4515400E-02
3775.938, 1.6147129E-02
3777.866, 1.3332950E-02
3779.795, 9.8742433E-03
3781.723, 1.0468590E-02
3783.652, 1.2753870E-02
3785.580, 1.1776450E-02
3787.509, 1.3034770E-02
3789.437, 1.3369100E-02
3791.365, 1.5208120E-02
3793.294, 1.5136700E-02
3795.222, 1.2994770E-02
3797.151, 1.4281900E-02
3799.079, 1.7250551E-02
3801.008, 1.6377211E-02
3802.936, 1.2079970E-02
3804.865, 1.1912630E-02
3806.793, 1.5396810E-02
3808.722, 1.5157130E-02
3810.650, 1.6002581E-02
3812.579, 1.6015900E-02
3814.507, 1.5060890E-02
3816.436, 1.3379950E-02
3818.364, 1.4739610E-02
3820.292, 1.7781191E-02
3822.221, 1.6325360E-02
3824.149, 1.5968300E-02
3826.078, 1.5305400E-02
3828.006, 1.2739010E-02
3829.935, 1.3469750E-02
3831.863, 1.5876301E-02
3833.792, 1.3431840E-02
3835.720, 1.1859210E-02
3837.649, 1.5373760E-02
3839.577, 1.7496791E-02
3841.506, 1.8993169E-02
3843.434, 1.6602069E-02
3845.363, 1.3216280E-02
3847.291, 1.2193260E-02
3849.219, 9.6802143E-03
3851.148, 1.2687440E-02
3853.076, 1.7667720E-02
3855.005, 1.7057961E-02
3856.933, 1.4512940E-02
3858.862, 1.6168630E-02
3860.790, 1.7739030E-02
3862.719, 1.7086919E-02
3864.647, 1.7905710E-02
3866.576, 2.0115590E-02
3868.504, 2.0599451E-02
3870.433, 1.8214850E-02
3872.361, 1.5162180E-02
3874.290, 1.4053260E-02
3876.218, 1.3276110E-02
3878.146, 1.2642120E-02
3880.075, 1.3408020E-02
3882.003, 1.6801929E-02
3883.932, 1.7037749E-02
3885.860, 1.7348370E-02
3887.789, 1.9308271E-02
3889.717, 2.0223200E-02
3891.646, 1.9871010E-02
3893.574, 1.8923771E-02
3895.503, 1.5884969E-02
3897.431, 1.5151530E-02
3899.360, 1.7434491E-02
3901.288, 1.5794391E-02
3903.217, 1.3944190E-02
3905.145, 1.5722640E-02
3907.073, 1.4477810E-02
3909.002, 1.4660010E-02
3910.930, 1.5407860E-02
3912.859, 1.4140740E-02
3914.787, 1.5587470E-02
3916.716, 1.5746171E-02
3918.644, 1.3467360E-02
3920.573, 1.4328950E-02
3922.501, 1.5374240E-02
3924.430, 1.5798310E-02
3926.358, 1.5889190E-02
3928.287, 1.3326150E-02
3930.215, 1.1356760E-02
3932.144, 1.3497730E-02
3934.072, 1.7430730E-02
3936.000, 1.9230340E-02
3937.929, 1.8134071E-02
3939.857, 1.6372509E-02
3941.786, 1.4023510E-02
3943.714, 1.3963710E-02
3945.643, 1.1116430E-02
3947.571, 8.3143534E-03
3949.500, 9.9033173E-03
3951.428, 1.3273500E-02
3953.357, 1.5771180E-02
3955.285, 1.6920030E-02
3957.214, 1.7721640E-02
3959.142, 1.7694620E-02
3961.071, 1.5661160E-02
3962.999, 1.5213410E-02
3964.927, 1.4475030E-02
3966.856, 1.4536290E-02
3968.784, 1.4679160E-02
3970.713, 1.3769370E-02
3972.641, 1.3534860E-02
3974.570, 1.4883460E-02
3976.498, 1.4945970E-02
3978.427, 1.5031400E-02
3980.355, 1.4382670E-02
3982.284, 1.5293560E-02
3984.212, 1.5244900E-02
3986.141, 1.6905179E-02
3988.069, 1.4292090E-02
3989.998, 1.4427510E-02
3991.926, 1.2532140E-02
3993.854, 1.0061650E-02
3995.783, 1.4633470E-02
3997.711, 1.7391570E-02
3999.640, 1.7399959E-02
##END=



