##NAMES=Beryl
##RRUFFID=R040002
##IDEAL CHEMISTRY=Be_3_Al_2_Si_6_O_18_
##LOCALITY=Usakos, Namibia
##OWNER=RRUFF
##SOURCE=University of Arizona Mineral Museum
##DESCRIPTION=Light blue hexagonal prism, variety aquamarine
##STATUS=The identification of this mineral has been confirmed by X-ray diffraction and chemical analysis
##URL=rruff.info/R040002
##MEASURED CHEMISTRY=(Be_0.97_Li_0.03_)_3_(Al_0.97_Fe^3+^_0.03_)_2_Si_6_O_18_Î‡Na_0.01_
3.741225e+002, 1.829299e-001
3.760510e+002, 1.828266e-001
3.779795e+002, 1.941573e-001
3.799079e+002, 1.902918e-001
3.818364e+002, 1.717192e-001
3.837649e+002, 1.719588e-001
3.856933e+002, 1.762788e-001
3.876218e+002, 1.657776e-001
3.895503e+002, 1.648718e-001
3.914787e+002, 1.721865e-001
3.934072e+002, 1.783163e-001
3.953357e+002, 1.899388e-001
3.972641e+002, 2.023104e-001
3.991926e+002, 2.127532e-001
4.011211e+002, 2.204864e-001
4.030495e+002, 2.311651e-001
4.049780e+002, 2.384860e-001
4.069065e+002, 2.350900e-001
4.088349e+002, 2.396189e-001
4.107634e+002, 2.491251e-001
4.126919e+002, 2.542236e-001
4.146203e+002, 2.578231e-001
4.165488e+002, 2.641967e-001
4.184773e+002, 2.691532e-001
4.204057e+002, 2.756361e-001
4.223342e+002, 2.798060e-001
4.242627e+002, 2.793643e-001
4.261911e+002, 2.764693e-001
4.281196e+002, 2.759850e-001
4.300481e+002, 2.741354e-001
4.319765e+002, 2.710810e-001
4.339050e+002, 2.667490e-001
4.358335e+002, 2.637224e-001
4.377619e+002, 2.590418e-001
4.396904e+002, 2.514845e-001
4.416189e+002, 2.445082e-001
4.435473e+002, 2.386223e-001
4.454758e+002, 2.313422e-001
4.474043e+002, 2.248353e-001
4.493327e+002, 2.182445e-001
4.512612e+002, 2.121184e-001
4.531897e+002, 2.067478e-001
4.551181e+002, 2.020670e-001
4.570466e+002, 1.973006e-001
4.589751e+002, 1.916834e-001
4.609035e+002, 1.867866e-001
4.628320e+002, 1.837436e-001
4.647605e+002, 1.827619e-001
4.666889e+002, 1.837026e-001
4.686174e+002, 1.850275e-001
4.705459e+002, 1.877842e-001
4.724743e+002, 1.925740e-001
4.744028e+002, 1.979241e-001
4.763313e+002, 2.035513e-001
4.782597e+002, 2.095161e-001
4.801882e+002, 2.150394e-001
4.821167e+002, 2.193546e-001
4.840451e+002, 2.238744e-001
4.859736e+002, 2.276116e-001
4.879021e+002, 2.298975e-001
4.898305e+002, 2.295346e-001
4.917590e+002, 2.264017e-001
4.936875e+002, 2.184124e-001
4.956159e+002, 2.046850e-001
4.975444e+002, 1.852693e-001
4.994729e+002, 1.605048e-001
5.014013e+002, 1.379174e-001
5.033298e+002, 1.314475e-001
5.052583e+002, 1.465075e-001
5.071867e+002, 1.730228e-001
5.091152e+002, 1.965713e-001
5.110437e+002, 2.119429e-001
5.129721e+002, 2.214361e-001
5.149006e+002, 2.267323e-001
5.168290e+002, 2.276588e-001
5.187575e+002, 2.241877e-001
5.206860e+002, 2.197286e-001
5.226144e+002, 2.146672e-001
5.245429e+002, 2.083389e-001
5.264714e+002, 2.019441e-001
5.283998e+002, 1.945492e-001
5.303283e+002, 1.870198e-001
5.322568e+002, 1.796913e-001
5.341852e+002, 1.711819e-001
5.361137e+002, 1.610072e-001
5.380422e+002, 1.491877e-001
5.399706e+002, 1.371560e-001
5.418991e+002, 1.255193e-001
5.438276e+002, 1.152489e-001
5.457560e+002, 1.066824e-001
5.476845e+002, 9.902406e-002
5.496130e+002, 9.188090e-002
5.515414e+002, 8.436003e-002
5.534699e+002, 7.683817e-002
5.553984e+002, 6.978838e-002
5.573268e+002, 6.327491e-002
5.592553e+002, 5.693331e-002
5.611838e+002, 5.175363e-002
5.631122e+002, 4.828593e-002
5.650407e+002, 4.587330e-002
5.669692e+002, 4.461110e-002
5.688976e+002, 4.494289e-002
5.708261e+002, 4.671171e-002
5.727546e+002, 5.017293e-002
5.746830e+002, 5.610751e-002
5.766115e+002, 6.590302e-002
5.785400e+002, 8.133823e-002
5.804684e+002, 1.036290e-001
5.823969e+002, 1.318487e-001
5.843254e+002, 1.621532e-001
5.862538e+002, 1.873949e-001
5.881823e+002, 2.007023e-001
5.901108e+002, 1.973907e-001
5.920392e+002, 1.808426e-001
5.939677e+002, 1.592427e-001
5.958962e+002, 1.376806e-001
5.978246e+002, 1.179683e-001
5.997531e+002, 1.004595e-001
6.016816e+002, 8.428868e-002
6.036100e+002, 6.929418e-002
6.055385e+002, 5.654822e-002
6.074670e+002, 4.730295e-002
6.093954e+002, 4.160950e-002
6.113239e+002, 3.863372e-002
6.132524e+002, 3.737683e-002
6.151808e+002, 3.677446e-002
6.171093e+002, 3.666214e-002
6.190378e+002, 3.718454e-002
6.209662e+002, 3.783277e-002
6.228947e+002, 3.894618e-002
6.248232e+002, 4.038297e-002
6.267516e+002, 4.213973e-002
6.286801e+002, 4.428239e-002
6.306086e+002, 4.704560e-002
6.325370e+002, 5.069312e-002
6.344655e+002, 5.547755e-002
6.363940e+002, 6.147811e-002
6.383224e+002, 6.887958e-002
6.402509e+002, 7.818844e-002
6.421794e+002, 9.002662e-002
6.441078e+002, 1.047993e-001
6.460363e+002, 1.223031e-001
6.479648e+002, 1.407432e-001
6.498932e+002, 1.553902e-001
6.518217e+002, 1.584744e-001
6.537502e+002, 1.482868e-001
6.556786e+002, 1.348296e-001
6.576071e+002, 1.289327e-001
6.595356e+002, 1.329784e-001
6.614641e+002, 1.444250e-001
6.633925e+002, 1.601991e-001
6.653210e+002, 1.778868e-001
6.672495e+002, 1.956266e-001
6.691779e+002, 2.122409e-001
6.711064e+002, 2.269325e-001
6.730349e+002, 2.381752e-001
6.749633e+002, 2.452418e-001
6.768918e+002, 2.479751e-001
6.788203e+002, 2.449889e-001
6.807487e+002, 2.363380e-001
6.826772e+002, 2.235799e-001
6.846057e+002, 2.083137e-001
6.865341e+002, 1.922319e-001
6.884626e+002, 1.767879e-001
6.903911e+002, 1.624388e-001
6.923195e+002, 1.487056e-001
6.942480e+002, 1.358502e-001
6.961765e+002, 1.241271e-001
6.981049e+002, 1.133694e-001
7.000334e+002, 1.038466e-001
7.019619e+002, 9.601811e-002
7.038903e+002, 9.045550e-002
7.058188e+002, 8.710704e-002
7.077473e+002, 8.591031e-002
7.096757e+002, 8.619587e-002
7.116042e+002, 8.758952e-002
7.135327e+002, 9.002956e-002
7.154611e+002, 9.319311e-002
7.173896e+002, 9.683276e-002
7.193181e+002, 1.009393e-001
7.212465e+002, 1.053559e-001
7.231750e+002, 1.100092e-001
7.251035e+002, 1.146703e-001
7.270319e+002, 1.193062e-001
7.289604e+002, 1.237700e-001
7.308889e+002, 1.279983e-001
7.328173e+002, 1.315146e-001
7.347458e+002, 1.342373e-001
7.366743e+002, 1.357504e-001
7.386027e+002, 1.361505e-001
7.405312e+002, 1.353325e-001
7.424597e+002, 1.337052e-001
7.443881e+002, 1.312397e-001
7.463166e+002, 1.276514e-001
7.482451e+002, 1.231939e-001
7.501735e+002, 1.181900e-001
7.521020e+002, 1.125185e-001
7.540305e+002, 1.069211e-001
7.559589e+002, 1.013114e-001
7.578874e+002, 9.566826e-002
7.598159e+002, 9.038747e-002
7.617443e+002, 8.575202e-002
7.636728e+002, 8.213040e-002
7.656013e+002, 7.947699e-002
7.675297e+002, 7.821479e-002
7.694582e+002, 7.818414e-002
7.713867e+002, 7.906059e-002
7.733151e+002, 8.121125e-002
7.752436e+002, 8.437863e-002
7.771721e+002, 8.831786e-002
7.791005e+002, 9.297221e-002
7.810290e+002, 9.834744e-002
7.829575e+002, 1.043933e-001
7.848859e+002, 1.112968e-001
7.868144e+002, 1.191052e-001
7.887429e+002, 1.276866e-001
7.906713e+002, 1.366179e-001
7.925998e+002, 1.457396e-001
7.945283e+002, 1.549053e-001
7.964567e+002, 1.634932e-001
7.983852e+002, 1.709019e-001
8.003137e+002, 1.769712e-001
8.022421e+002, 1.807585e-001
8.041706e+002, 1.816551e-001
8.060991e+002, 1.798226e-001
8.080275e+002, 1.756460e-001
8.099560e+002, 1.698256e-001
8.118845e+002, 1.632358e-001
8.138129e+002, 1.558112e-001
8.157414e+002, 1.476757e-001
8.176699e+002, 1.394529e-001
8.195983e+002, 1.316054e-001
8.215268e+002, 1.239568e-001
8.234553e+002, 1.165354e-001
8.253837e+002, 1.096011e-001
8.273122e+002, 1.032493e-001
8.292407e+002, 9.752873e-002
8.311691e+002, 9.234889e-002
8.330976e+002, 8.783774e-002
8.350261e+002, 8.407886e-002
8.369545e+002, 8.100061e-002
8.388830e+002, 7.868525e-002
8.408115e+002, 7.705820e-002
8.427399e+002, 7.580177e-002
8.446684e+002, 7.499312e-002
8.465969e+002, 7.478511e-002
8.485253e+002, 7.507902e-002
8.504538e+002, 7.563767e-002
8.523823e+002, 7.665925e-002
8.543107e+002, 7.803619e-002
8.562392e+002, 7.962020e-002
8.581677e+002, 8.161567e-002
8.600961e+002, 8.382588e-002
8.620246e+002, 8.630255e-002
8.639531e+002, 8.922600e-002
8.658815e+002, 9.238704e-002
8.678100e+002, 9.565779e-002
8.697385e+002, 9.907550e-002
8.716669e+002, 1.029778e-001
8.735954e+002, 1.070902e-001
8.755239e+002, 1.114229e-001
8.774523e+002, 1.160190e-001
8.793808e+002, 1.205607e-001
8.813093e+002, 1.253210e-001
8.832377e+002, 1.303040e-001
8.851662e+002, 1.355204e-001
8.870947e+002, 1.407409e-001
8.890231e+002, 1.459985e-001
8.909516e+002, 1.516218e-001
8.928801e+002, 1.575187e-001
8.948085e+002, 1.634143e-001
8.967370e+002, 1.696316e-001
8.986655e+002, 1.762575e-001
9.005939e+002, 1.829745e-001
9.025224e+002, 1.895783e-001
9.044509e+002, 1.962558e-001
9.063793e+002, 2.031453e-001
9.083078e+002, 2.099525e-001
9.102363e+002, 2.164699e-001
9.121647e+002, 2.228193e-001
9.140932e+002, 2.290353e-001
9.160217e+002, 2.348936e-001
9.179501e+002, 2.403494e-001
9.198786e+002, 2.453718e-001
9.218071e+002, 2.499989e-001
9.237355e+002, 2.542486e-001
9.256640e+002, 2.578575e-001
9.275925e+002, 2.612843e-001
9.295209e+002, 2.643243e-001
9.314494e+002, 2.672766e-001
9.333779e+002, 2.700267e-001
9.353063e+002, 2.722610e-001
9.372348e+002, 2.740947e-001
9.391633e+002, 2.757915e-001
9.410917e+002, 2.773766e-001
9.430202e+002, 2.786414e-001
9.449487e+002, 2.796943e-001
9.468771e+002, 2.805485e-001
9.488056e+002, 2.807435e-001
9.507341e+002, 2.804628e-001
9.526625e+002, 2.796700e-001
9.545910e+002, 2.780279e-001
9.565195e+002, 2.753142e-001
9.584479e+002, 2.718278e-001
9.603764e+002, 2.672657e-001
9.623049e+002, 2.615093e-001
9.642333e+002, 2.547033e-001
9.661618e+002, 2.468799e-001
9.680903e+002, 2.383891e-001
9.700187e+002, 2.296447e-001
9.719472e+002, 2.207918e-001
9.738757e+002, 2.120405e-001
9.758041e+002, 2.031527e-001
9.777326e+002, 1.944653e-001
9.796611e+002, 1.863671e-001
9.815895e+002, 1.787094e-001
9.835180e+002, 1.710152e-001
9.854465e+002, 1.632236e-001
9.873749e+002, 1.556745e-001
9.893034e+002, 1.481908e-001
9.912319e+002, 1.410154e-001
9.931603e+002, 1.346001e-001
9.950888e+002, 1.289633e-001
9.970173e+002, 1.245703e-001
9.989457e+002, 1.214407e-001
1.000874e+003, 1.192956e-001
1.002803e+003, 1.181812e-001
1.004731e+003, 1.183444e-001
1.006660e+003, 1.196186e-001
1.008588e+003, 1.217962e-001
1.010517e+003, 1.245408e-001
1.012445e+003, 1.273107e-001
1.014373e+003, 1.296467e-001
1.016302e+003, 1.307071e-001
1.018230e+003, 1.293353e-001
1.020159e+003, 1.255746e-001
1.022087e+003, 1.199222e-001
1.024016e+003, 1.131668e-001
1.025944e+003, 1.061813e-001
1.027873e+003, 9.927288e-002
1.029801e+003, 9.284884e-002
1.031730e+003, 8.723123e-002
1.033658e+003, 8.223771e-002
1.035587e+003, 7.806790e-002
1.037515e+003, 7.466566e-002
1.039443e+003, 7.168101e-002
1.041372e+003, 6.914128e-002
1.043300e+003, 6.687360e-002
1.045229e+003, 6.487561e-002
1.047157e+003, 6.306271e-002
1.049086e+003, 6.158667e-002
1.051014e+003, 6.037520e-002
1.052943e+003, 5.896615e-002
1.054871e+003, 5.751885e-002
1.056800e+003, 5.604707e-002
1.058728e+003, 5.436806e-002
1.060657e+003, 5.280022e-002
1.062585e+003, 5.113198e-002
1.064514e+003, 4.949544e-002
1.066442e+003, 4.821971e-002
1.068370e+003, 4.691963e-002
1.070299e+003, 4.562503e-002
1.072227e+003, 4.426274e-002
1.074156e+003, 4.287869e-002
1.076084e+003, 4.167484e-002
1.078013e+003, 4.073656e-002
1.079941e+003, 3.963869e-002
1.081870e+003, 3.841883e-002
1.083798e+003, 3.741717e-002
1.085727e+003, 3.657694e-002
1.087655e+003, 3.576747e-002
1.089584e+003, 3.511948e-002
1.091512e+003, 3.455686e-002
1.093441e+003, 3.408803e-002
1.095369e+003, 3.368562e-002
1.097297e+003, 3.342276e-002
1.099226e+003, 3.332744e-002
1.101154e+003, 3.331995e-002
1.103083e+003, 3.330789e-002
1.105011e+003, 3.340804e-002
1.106940e+003, 3.344137e-002
1.108868e+003, 3.363353e-002
1.110797e+003, 3.403030e-002
1.112725e+003, 3.446218e-002
1.114654e+003, 3.490337e-002
1.116582e+003, 3.555603e-002
1.118511e+003, 3.634728e-002
1.120439e+003, 3.716546e-002
1.122368e+003, 3.794908e-002
1.124296e+003, 3.890616e-002
1.126224e+003, 4.010184e-002
1.128153e+003, 4.118580e-002
1.130081e+003, 4.241636e-002
1.132010e+003, 4.396350e-002
1.133938e+003, 4.560224e-002
1.135867e+003, 4.756134e-002
1.137795e+003, 4.984445e-002
1.139724e+003, 5.232032e-002
1.141652e+003, 5.490959e-002
1.143581e+003, 5.755476e-002
1.145509e+003, 6.050244e-002
1.147438e+003, 6.369428e-002
1.149366e+003, 6.700534e-002
1.151295e+003, 7.060827e-002
1.153223e+003, 7.433197e-002
1.155151e+003, 7.816675e-002
1.157080e+003, 8.242983e-002
1.159008e+003, 8.704870e-002
1.160937e+003, 9.204662e-002
1.162865e+003, 9.743615e-002
1.164794e+003, 1.033045e-001
1.166722e+003, 1.094419e-001
1.168651e+003, 1.154891e-001
1.170579e+003, 1.215579e-001
1.172508e+003, 1.275629e-001
1.174436e+003, 1.334297e-001
1.176365e+003, 1.393193e-001
1.178293e+003, 1.456295e-001
1.180222e+003, 1.523077e-001
1.182150e+003, 1.589960e-001
1.184078e+003, 1.655076e-001
1.186007e+003, 1.718858e-001
1.187935e+003, 1.779999e-001
1.189864e+003, 1.840258e-001
1.191792e+003, 1.898731e-001
1.193721e+003, 1.952640e-001
1.195649e+003, 1.995354e-001
1.197578e+003, 2.027185e-001
1.199506e+003, 2.052682e-001
1.201435e+003, 2.065681e-001
1.203363e+003, 2.060921e-001
1.205292e+003, 2.040481e-001
1.207220e+003, 2.003493e-001
1.209149e+003, 1.954113e-001
1.211077e+003, 1.894139e-001
1.213005e+003, 1.827096e-001
1.214934e+003, 1.756581e-001
1.216862e+003, 1.687266e-001
1.218791e+003, 1.618339e-001
1.220719e+003, 1.549078e-001
1.222648e+003, 1.480196e-001
1.224576e+003, 1.415288e-001
1.226505e+003, 1.353300e-001
1.228433e+003, 1.293492e-001
1.230362e+003, 1.235195e-001
1.232290e+003, 1.178464e-001
1.234219e+003, 1.124137e-001
1.236147e+003, 1.070943e-001
1.238076e+003, 1.018308e-001
1.240004e+003, 9.679894e-002
1.241932e+003, 9.208925e-002
1.243861e+003, 8.746470e-002
1.245789e+003, 8.291128e-002
1.247718e+003, 7.859565e-002
1.249646e+003, 7.446554e-002
1.251575e+003, 7.064479e-002
1.253503e+003, 6.703722e-002
1.255432e+003, 6.335127e-002
1.257360e+003, 5.965922e-002
1.259289e+003, 5.608152e-002
1.261217e+003, 5.251238e-002
1.263146e+003, 4.905320e-002
1.265074e+003, 4.587924e-002
1.267003e+003, 4.268066e-002
1.268931e+003, 3.955976e-002
1.270859e+003, 3.678894e-002
1.272788e+003, 3.419949e-002
1.274716e+003, 3.166988e-002
1.276645e+003, 2.917146e-002
1.278573e+003, 2.673800e-002
1.280502e+003, 2.432617e-002
1.282430e+003, 2.170082e-002
1.284359e+003, 1.881382e-002
1.286287e+003, 1.602398e-002
1.288216e+003, 1.356127e-002
1.290144e+003, 1.150308e-002
1.292073e+003, 9.998448e-003
1.294001e+003, 8.928281e-003
1.295930e+003, 7.999509e-003
1.297858e+003, 7.190928e-003
1.299786e+003, 6.694975e-003
1.301715e+003, 6.322047e-003
1.303643e+003, 5.906122e-003
1.305572e+003, 5.450429e-003
1.307500e+003, 5.149532e-003
1.309429e+003, 4.888326e-003
1.311357e+003, 4.679287e-003
1.313286e+003, 4.518246e-003
1.315214e+003, 4.311138e-003
1.317143e+003, 4.126648e-003
1.319071e+003, 3.967057e-003
1.321000e+003, 3.775571e-003
1.322928e+003, 3.589354e-003
1.324857e+003, 3.496575e-003
1.326785e+003, 3.385839e-003
1.328714e+003, 3.304676e-003
1.330642e+003, 3.227311e-003
1.332570e+003, 3.246241e-003
1.334499e+003, 3.144719e-003
1.336427e+003, 3.035610e-003
1.338356e+003, 2.955967e-003
1.340284e+003, 2.861725e-003
1.342213e+003, 2.709172e-003
1.344141e+003, 2.592268e-003
1.346070e+003, 2.450139e-003
1.347998e+003, 2.348705e-003
1.349927e+003, 2.291532e-003
1.351855e+003, 2.186667e-003
1.353784e+003, 2.223150e-003
1.355712e+003, 2.230691e-003
1.357641e+003, 2.050609e-003
1.359569e+003, 2.117490e-003
1.361497e+003, 2.161332e-003
1.363426e+003, 2.128620e-003
1.365354e+003, 2.086548e-003
1.367283e+003, 2.000849e-003
1.369211e+003, 1.927565e-003
1.371140e+003, 1.880282e-003
1.373068e+003, 1.897166e-003
1.374997e+003, 1.767805e-003
1.376925e+003, 1.691540e-003
1.378854e+003, 1.696245e-003
1.380782e+003, 1.611818e-003
1.382711e+003, 1.594591e-003
1.384639e+003, 1.527589e-003
1.386568e+003, 1.597888e-003
1.388496e+003, 1.654637e-003
1.390424e+003, 1.533001e-003
1.392353e+003, 1.388713e-003
1.394281e+003, 1.406519e-003
1.396210e+003, 1.426178e-003
1.398138e+003, 1.403537e-003
1.400067e+003, 1.408961e-003
1.401995e+003, 1.432273e-003
1.403924e+003, 1.466231e-003
1.405852e+003, 1.508356e-003
1.407781e+003, 1.474093e-003
1.409709e+003, 1.386923e-003
1.411638e+003, 1.402228e-003
1.413566e+003, 1.423578e-003
1.415495e+003, 1.343259e-003
1.417423e+003, 1.434947e-003
1.419351e+003, 1.520482e-003
1.421280e+003, 1.343321e-003
1.423208e+003, 1.303557e-003
1.425137e+003, 1.422358e-003
1.427065e+003, 1.302115e-003
1.428994e+003, 1.204384e-003
1.430922e+003, 1.270143e-003
1.432851e+003, 1.247641e-003
1.434779e+003, 1.194827e-003
1.436708e+003, 1.300799e-003
1.438636e+003, 1.161743e-003
1.440565e+003, 9.793142e-004
1.442493e+003, 1.016050e-003
1.444422e+003, 1.155387e-003
1.446350e+003, 1.200670e-003
1.448278e+003, 1.219820e-003
1.450207e+003, 1.214030e-003
1.452135e+003, 1.365975e-003
1.454064e+003, 1.391400e-003
1.455992e+003, 1.516935e-003
1.457921e+003, 1.414359e-003
1.459849e+003, 1.051289e-003
1.461778e+003, 8.791638e-004
1.463706e+003, 9.980092e-004
1.465635e+003, 1.163160e-003
1.467563e+003, 9.872459e-004
1.469492e+003, 8.592297e-004
1.471420e+003, 1.029882e-003
1.473349e+003, 1.124485e-003
1.475277e+003, 9.596343e-004
1.477205e+003, 7.607257e-004
1.479134e+003, 5.521844e-004
1.481062e+003, 4.189303e-004
1.482991e+003, 2.407203e-004
1.484919e+003, 1.730645e-004
1.486848e+003, 2.997995e-004
1.488776e+003, 3.391776e-004
1.490705e+003, 2.246786e-004
1.492633e+003, 8.942436e-005
1.494562e+003, 1.113820e-004
1.496490e+003, 1.906814e-004
1.498419e+003, 8.257096e-005
1.500347e+003, -3.067193e-005
1.502276e+003, -5.002342e-005
1.504204e+003, 1.090598e-004
1.506132e+003, 5.294987e-004
1.508061e+003, 3.276232e-004
1.509989e+003, -5.833477e-005
1.511918e+003, -9.056723e-005
1.513846e+003, -7.297852e-005
1.515775e+003, -1.396205e-005
1.517703e+003, 5.104393e-005
1.519632e+003, 1.439707e-004
1.521560e+003, 1.424390e-004
1.523489e+003, -1.494524e-004
1.525417e+003, -1.374633e-004
1.527346e+003, -8.769635e-005
1.529274e+003, -1.235245e-004
1.531203e+003, -1.285499e-004
1.533131e+003, -2.844728e-006
1.535059e+003, -3.422974e-005
1.536988e+003, 1.745993e-004
1.538916e+003, 7.816827e-004
1.540845e+003, 8.504941e-004
1.542773e+003, 6.931138e-004
1.544702e+003, 6.240990e-004
1.546630e+003, 3.215438e-004
1.548559e+003, 1.608248e-004
1.550487e+003, 1.208936e-004
1.552416e+003, 2.006887e-004
1.554344e+003, 3.167067e-004
1.556273e+003, 4.431453e-004
1.558201e+003, 9.252650e-004
1.560130e+003, 8.846377e-004
1.562058e+003, 2.317570e-004
1.563986e+003, 6.545331e-005
1.565915e+003, 2.322773e-004
1.567843e+003, 4.003326e-004
1.569772e+003, 4.693697e-004
1.571700e+003, 3.842786e-004
1.573629e+003, 4.602965e-004
1.575557e+003, 7.207504e-004
1.577486e+003, 6.346240e-004
1.579414e+003, 4.869162e-004
1.581343e+003, 4.958477e-004
1.583271e+003, 4.158201e-004
1.585200e+003, 4.412385e-004
1.587128e+003, 4.079403e-004
1.589057e+003, 4.827231e-004
1.590985e+003, 6.473891e-004
1.592913e+003, 5.894303e-004
1.594842e+003, 6.073858e-004
1.596770e+003, 7.987274e-004
1.598699e+003, 8.248829e-004
1.600627e+003, 8.412235e-004
1.602556e+003, 8.506369e-004
1.604484e+003, 8.456990e-004
1.606413e+003, 8.502860e-004
1.608341e+003, 7.795470e-004
1.610270e+003, 7.388198e-004
1.612198e+003, 7.407206e-004
1.614127e+003, 1.005819e-003
1.616055e+003, 1.330282e-003
1.617984e+003, 1.047093e-003
1.619912e+003, 8.767242e-004
1.621840e+003, 1.116811e-003
1.623769e+003, 1.111026e-003
1.625697e+003, 1.133710e-003
1.627626e+003, 1.246662e-003
1.629554e+003, 1.197405e-003
1.631483e+003, 1.148357e-003
1.633411e+003, 1.269852e-003
1.635340e+003, 1.524950e-003
1.637268e+003, 1.399924e-003
1.639197e+003, 1.076106e-003
1.641125e+003, 8.971341e-004
1.643054e+003, 9.081636e-004
1.644982e+003, 1.273551e-003
1.646911e+003, 1.389087e-003
1.648839e+003, 1.245287e-003
1.650767e+003, 1.506778e-003
1.652696e+003, 1.976012e-003
1.654624e+003, 1.457009e-003
1.656553e+003, 9.798191e-004
1.658481e+003, 7.995034e-004
1.660410e+003, 6.865424e-004
1.662338e+003, 8.731600e-004
1.664267e+003, 7.741382e-004
1.666195e+003, 6.424619e-004
1.668124e+003, 7.646448e-004
1.670052e+003, 7.326809e-004
1.671981e+003, 6.546181e-004
1.673909e+003, 6.560949e-004
1.675838e+003, 5.469825e-004
1.677766e+003, 3.638794e-004
1.679694e+003, 2.876264e-004
1.681623e+003, 5.063265e-004
1.683551e+003, 1.088297e-003
1.685480e+003, 9.203745e-004
1.687408e+003, 4.254358e-004
1.689337e+003, 3.325082e-004
1.691265e+003, 3.093974e-004
1.693194e+003, 4.135906e-004
1.695122e+003, 9.302512e-004
1.697051e+003, 9.628952e-004
1.698979e+003, 9.615655e-004
1.700908e+003, 9.452763e-004
1.702836e+003, 4.820560e-004
1.704765e+003, 4.393069e-004
1.706693e+003, 3.541984e-004
1.708621e+003, 2.643190e-004
1.710550e+003, 2.473815e-004
1.712478e+003, 3.217362e-004
1.714407e+003, 4.452020e-004
1.716335e+003, 8.387225e-004
1.718264e+003, 8.067213e-004
1.720192e+003, 5.091559e-004
1.722121e+003, 6.320445e-004
1.724049e+003, 7.476787e-004
1.725978e+003, 6.620217e-004
1.727906e+003, 7.533058e-004
1.729835e+003, 1.036479e-003
1.731763e+003, 1.413112e-003
1.733692e+003, 1.776603e-003
1.735620e+003, 1.477565e-003
1.737548e+003, 1.142979e-003
1.739477e+003, 1.071462e-003
1.741405e+003, 6.803557e-004
1.743334e+003, 2.239252e-004
1.745262e+003, -7.869926e-005
1.747191e+003, -2.698421e-004
1.749119e+003, -1.946472e-004
1.751048e+003, -1.393495e-004
1.752976e+003, -3.058627e-004
1.754905e+003, -3.415376e-004
1.756833e+003, -2.907084e-004
1.758762e+003, -5.082792e-004
1.760690e+003, -4.662763e-004
1.762619e+003, -3.747950e-004
1.764547e+003, -3.468622e-004
1.766475e+003, -4.245211e-004
1.768404e+003, -4.682606e-004
1.770332e+003, -3.942584e-004
1.772261e+003, -8.255894e-005
1.774189e+003, -1.342557e-004
1.776118e+003, -3.170184e-004
1.778046e+003, -2.912740e-004
1.779975e+003, -1.545063e-004
1.781903e+003, -9.770776e-005
1.783832e+003, 8.452140e-006
1.785760e+003, 1.899362e-005
1.787689e+003, -1.330859e-004
1.789617e+003, -2.204952e-004
1.791546e+003, -6.755004e-005
1.793474e+003, -1.026203e-004
1.795402e+003, -2.993504e-004
1.797331e+003, -3.167568e-004
1.799259e+003, -1.561206e-004
1.801188e+003, -9.261887e-005
1.803116e+003, -2.970532e-004
1.805045e+003, -4.092221e-004
1.806973e+003, -3.460456e-004
1.808902e+003, -2.888395e-004
1.810830e+003, -2.507605e-004
1.812759e+003, -9.105178e-005
1.814687e+003, -2.299557e-004
1.816616e+003, -6.428274e-004
1.818544e+003, -5.139947e-004
1.820473e+003, -3.719035e-004
1.822401e+003, -5.442305e-004
1.824329e+003, -5.388262e-004
1.826258e+003, -3.722387e-004
1.828186e+003, -2.755693e-004
1.830115e+003, -3.749038e-004
1.832043e+003, -4.623618e-004
1.833972e+003, -7.327547e-004
1.835900e+003, -1.036491e-003
1.837829e+003, -8.671564e-004
1.839757e+003, -7.591224e-004
1.841686e+003, -1.006725e-003
1.843614e+003, -1.027973e-003
1.845543e+003, -8.020126e-004
1.847471e+003, -7.157642e-004
1.849400e+003, -8.189927e-004
1.851328e+003, -8.368823e-004
1.853256e+003, -9.188440e-004
1.855185e+003, -1.170517e-003
1.857113e+003, -1.218000e-003
1.859042e+003, -1.100122e-003
1.860970e+003, -9.623323e-004
1.862899e+003, -9.815783e-004
1.864827e+003, -1.023510e-003
1.866756e+003, -8.845123e-004
1.868684e+003, -7.708726e-004
1.870613e+003, -8.493767e-004
1.872541e+003, -9.170641e-004
1.874470e+003, -1.164575e-003
1.876398e+003, -1.255293e-003
1.878327e+003, -1.080830e-003
1.880255e+003, -1.009017e-003
1.882183e+003, -1.254618e-003
1.884112e+003, -1.365477e-003
1.886040e+003, -1.177630e-003
1.887969e+003, -9.031244e-004
1.889897e+003, -9.981807e-004
1.891826e+003, -1.362619e-003
1.893754e+003, -1.807406e-003
1.895683e+003, -1.526101e-003
1.897611e+003, -9.181626e-004
1.899540e+003, -1.054757e-003
1.901468e+003, -1.178392e-003
1.903397e+003, -1.191427e-003
1.905325e+003, -1.486853e-003
1.907254e+003, -1.390008e-003
1.909182e+003, -1.152598e-003
1.911110e+003, -1.350336e-003
1.913039e+003, -1.131379e-003
1.914967e+003, -7.138936e-004
1.916896e+003, -3.418919e-004
1.918824e+003, -2.636815e-004
1.920753e+003, -4.834141e-004
1.922681e+003, -8.880380e-004
1.924610e+003, -1.514570e-003
1.926538e+003, -1.883980e-003
1.928467e+003, -1.713330e-003
1.930395e+003, -1.383056e-003
1.932324e+003, -1.326204e-003
1.934252e+003, -9.954902e-004
1.936181e+003, -9.935993e-004
1.938109e+003, -1.101185e-003
1.940037e+003, -1.744201e-003
1.941966e+003, -1.833323e-003
1.943894e+003, -1.186740e-003
1.945823e+003, -1.096811e-003
1.947751e+003, -1.540705e-003
1.949680e+003, -2.260655e-003
1.951608e+003, -2.916591e-003
1.953537e+003, -2.306442e-003
1.955465e+003, -2.018929e-003
1.957394e+003, -2.761439e-003
1.959322e+003, -2.398666e-003
1.961251e+003, -1.947167e-003
1.963179e+003, -1.570699e-003
1.965108e+003, -1.493923e-003
1.967036e+003, -2.480702e-003
1.968964e+003, -3.345335e-003
1.970893e+003, -3.140626e-003
1.972821e+003, -2.156178e-003
1.974750e+003, -1.955804e-003
1.976678e+003, -1.935235e-003
1.978607e+003, -2.037995e-004
1.980535e+003, 1.209891e-003
1.982464e+003, 4.360095e-004
1.984392e+003, -5.640241e-004
1.986321e+003, -3.823652e-004
1.988249e+003, -8.226968e-004
1.990178e+003, -1.373943e-003
1.992106e+003, -8.732216e-004
1.994035e+003, -2.888778e-004
1.995963e+003, -3.184444e-004
1.997891e+003, -1.107054e-003
1.999820e+003, -1.224853e-003
2.001748e+003, -1.352330e-003
2.003677e+003, -2.166922e-003
2.005605e+003, -3.021724e-003
2.007534e+003, -1.703782e-003
2.009462e+003, -1.356411e-003
2.011391e+003, -1.835620e-003
2.013319e+003, -2.089974e-003
2.015248e+003, -2.646693e-003
2.017176e+003, -2.518678e-003
2.019105e+003, -1.557812e-003
2.021033e+003, -2.080011e-003
2.022962e+003, -2.712757e-003
2.024890e+003, -2.679224e-003
2.026818e+003, -2.114171e-003
2.028747e+003, -2.461470e-003
2.030675e+003, -2.764754e-003
2.032604e+003, -2.640951e-003
2.034532e+003, -1.852434e-003
2.036461e+003, -1.279637e-003
2.038389e+003, -1.148584e-003
2.040318e+003, -8.299907e-004
2.042246e+003, -1.554195e-004
2.044175e+003, -4.893626e-004
2.046103e+003, -8.250291e-004
2.048031e+003, -1.877476e-004
2.049960e+003, 8.145710e-004
2.051888e+003, 8.111863e-004
2.053817e+003, 3.246104e-005
2.055745e+003, -3.488176e-004
2.057674e+003, -8.446118e-004
2.059602e+003, -1.191342e-003
2.061531e+003, -8.547935e-004
2.063459e+003, -6.738137e-004
2.065388e+003, -2.364789e-004
2.067316e+003, 5.353386e-004
2.069245e+003, 6.652332e-004
2.071173e+003, 2.153065e-004
2.073102e+003, 1.638411e-004
2.075030e+003, 2.225158e-004
2.076958e+003, 3.816767e-004
2.078887e+003, 1.132578e-003
2.080815e+003, 1.445709e-003
2.082744e+003, 7.568012e-004
2.084672e+003, 6.686032e-004
2.086601e+003, 8.043571e-004
2.088529e+003, 6.891618e-004
2.090458e+003, 5.089656e-004
2.092386e+003, -4.256714e-005
2.094315e+003, -1.977489e-004
2.096243e+003, 3.432517e-004
2.098172e+003, 6.103198e-004
2.100100e+003, 1.142463e-003
2.102029e+003, 1.384202e-003
2.103957e+003, 1.315866e-003
2.105885e+003, 1.217922e-003
2.107814e+003, 1.022126e-003
2.109742e+003, 1.089057e-003
2.111671e+003, 1.343533e-003
2.113599e+003, 1.590756e-003
2.115528e+003, 1.232413e-003
2.117456e+003, 5.369500e-004
2.119385e+003, 6.636386e-005
2.121313e+003, -1.514575e-004
2.123242e+003, -1.899297e-004
2.125170e+003, -6.294405e-004
2.127099e+003, -8.540266e-004
2.129027e+003, -8.366877e-004
2.130956e+003, -9.616641e-004
2.132884e+003, -1.511974e-003
2.134813e+003, -1.787234e-003
2.136741e+003, -1.166103e-003
2.138669e+003, -3.463126e-004
2.140598e+003, -3.817198e-004
2.142526e+003, -1.256678e-003
2.144455e+003, -1.925715e-003
2.146383e+003, -2.141614e-003
2.148312e+003, -1.833702e-003
2.150240e+003, -1.699028e-003
2.152169e+003, -1.784612e-003
2.154097e+003, -2.603450e-003
2.156026e+003, -3.532644e-003
2.157954e+003, -1.335130e-003
2.159883e+003, 3.355265e-003
2.161811e+003, 4.584578e-003
2.163740e+003, 4.236005e-003
2.165668e+003, 4.378403e-003
2.167596e+003, 4.103892e-003
2.169525e+003, 3.740409e-003
2.171453e+003, 3.051325e-003
2.173382e+003, 1.682929e-003
2.175310e+003, 1.583268e-003
2.177239e+003, 2.278205e-003
2.179167e+003, 1.123810e-003
2.181096e+003, 1.083997e-003
2.183024e+003, 2.050597e-003
2.184953e+003, 2.632285e-003
2.186881e+003, 2.914978e-003
2.188810e+003, 1.914823e-003
2.190738e+003, 2.037911e-003
2.192667e+003, 2.902941e-003
2.194595e+003, 2.969754e-003
2.196523e+003, 2.647684e-003
2.198452e+003, 2.068812e-003
2.200380e+003, 1.834216e-003
2.202309e+003, 2.067250e-003
2.204237e+003, 1.809552e-003
2.206166e+003, 1.702237e-003
2.208094e+003, 1.984332e-003
2.210023e+003, 2.111771e-003
2.211951e+003, 1.841952e-003
2.213880e+003, 1.243140e-003
2.215808e+003, 1.106174e-003
2.217737e+003, 1.504775e-003
2.219665e+003, 1.672057e-003
2.221594e+003, 1.714141e-003
2.223522e+003, 1.900676e-003
2.225450e+003, 2.083651e-003
2.227379e+003, 2.122512e-003
2.229307e+003, 2.377116e-003
2.231236e+003, 1.775795e-003
2.233164e+003, 1.718547e-003
2.235093e+003, 1.986480e-003
2.237021e+003, 1.924618e-003
2.238950e+003, 1.933859e-003
2.240878e+003, 2.299246e-003
2.242807e+003, 2.166930e-003
2.244735e+003, 1.900477e-003
2.246664e+003, 1.668011e-003
2.248592e+003, 1.197059e-003
2.250521e+003, 1.384232e-003
2.252449e+003, 1.381382e-003
2.254377e+003, 1.234393e-003
2.256306e+003, 1.095106e-003
2.258234e+003, 1.065705e-003
2.260163e+003, 1.275727e-003
2.262091e+003, 1.398029e-003
2.264020e+003, 8.081056e-004
2.265948e+003, 7.534912e-004
2.267877e+003, 1.735850e-003
2.269805e+003, 2.032931e-003
2.271734e+003, 1.466554e-003
2.273662e+003, 1.078566e-003
2.275591e+003, 1.537083e-003
2.277519e+003, 1.999461e-003
2.279448e+003, 1.971412e-003
2.281376e+003, 1.884617e-003
2.283304e+003, 2.149571e-003
2.285233e+003, 2.542111e-003
2.287161e+003, 2.081890e-003
2.289090e+003, 1.863785e-003
2.291018e+003, 2.162919e-003
2.292947e+003, 2.396613e-003
2.294875e+003, 1.928299e-003
2.296804e+003, 1.531518e-003
2.298732e+003, 1.485662e-003
2.300661e+003, 1.307898e-003
2.302589e+003, 1.204722e-003
2.304518e+003, 1.284784e-003
2.306446e+003, 1.566956e-003
2.308375e+003, 1.824315e-003
2.310303e+003, 1.814259e-003
2.312231e+003, 1.498530e-003
2.314160e+003, 1.363483e-003
2.316088e+003, 1.632385e-003
2.318017e+003, 2.070494e-003
2.319945e+003, 2.328981e-003
2.321874e+003, 2.868062e-003
2.323802e+003, 3.466884e-003
2.325731e+003, 2.664422e-003
2.327659e+003, 1.507292e-003
2.329588e+003, 1.193500e-003
2.331516e+003, 1.497566e-003
2.333445e+003, 1.662817e-003
2.335373e+003, 1.260690e-003
2.337302e+003, 1.002856e-003
2.339230e+003, 7.757650e-004
2.341158e+003, 8.500017e-004
2.343087e+003, 1.006815e-003
2.345015e+003, 6.596520e-004
2.346944e+003, -4.922325e-005
2.348872e+003, -1.477061e-004
2.350801e+003, 2.079136e-004
2.352729e+003, 4.173807e-004
2.354658e+003, 5.460470e-004
2.356586e+003, 5.136041e-004
2.358515e+003, 7.099782e-004
2.360443e+003, 6.099145e-004
2.362372e+003, 2.967831e-004
2.364300e+003, 2.886407e-004
2.366229e+003, -6.554258e-005
2.368157e+003, -6.979590e-004
2.370085e+003, -8.506050e-004
2.372014e+003, -7.969533e-004
2.373942e+003, -1.236160e-003
2.375871e+003, -1.813660e-003
2.377799e+003, -2.029582e-003
2.379728e+003, -1.903735e-003
2.381656e+003, -1.692659e-003
2.383585e+003, -1.685198e-003
2.385513e+003, -1.960828e-003
2.387442e+003, -1.844130e-003
2.389370e+003, -1.841194e-003
2.391299e+003, -2.043161e-003
2.393227e+003, -2.037765e-003
2.395156e+003, -2.342483e-003
2.397084e+003, -2.532166e-003
2.399012e+003, -2.468227e-003
2.400941e+003, -2.343934e-003
2.402869e+003, -2.406268e-003
2.404798e+003, -2.281950e-003
2.406726e+003, -2.060879e-003
2.408655e+003, -2.020952e-003
2.410583e+003, -2.479335e-003
2.412512e+003, -2.792287e-003
2.414440e+003, -2.762364e-003
2.416369e+003, -2.929854e-003
2.418297e+003, -2.844053e-003
2.420226e+003, -2.596130e-003
2.422154e+003, -2.547681e-003
2.424083e+003, -2.569580e-003
2.426011e+003, -2.705850e-003
2.427939e+003, -2.045242e-003
2.429868e+003, -1.689224e-003
2.431796e+003, -1.862304e-003
2.433725e+003, -1.789319e-003
2.435653e+003, -2.004941e-003
2.437582e+003, -2.176610e-003
2.439510e+003, -2.145421e-003
2.441439e+003, -1.890845e-003
2.443367e+003, -1.570810e-003
2.445296e+003, -1.572455e-003
2.447224e+003, -1.668098e-003
2.449153e+003, -1.663822e-003
2.451081e+003, -1.498322e-003
2.453010e+003, -1.397960e-003
2.454938e+003, -1.316521e-003
2.456866e+003, -1.165015e-003
2.458795e+003, -9.671787e-004
2.460723e+003, -1.098265e-003
2.462652e+003, -1.211283e-003
2.464580e+003, -1.242738e-003
2.466509e+003, -1.319461e-003
2.468437e+003, -1.449226e-003
2.470366e+003, -1.136502e-003
2.472294e+003, -1.003016e-003
2.474223e+003, -8.590633e-004
2.476151e+003, -7.402004e-004
2.478080e+003, -7.418435e-004
2.480008e+003, -7.926747e-004
2.481937e+003, -8.407057e-004
2.483865e+003, -1.259203e-003
2.485793e+003, -1.447654e-003
2.487722e+003, -1.100846e-003
2.489650e+003, -6.972465e-004
2.491579e+003, -3.565835e-004
2.493507e+003, -4.544003e-005
2.495436e+003, -1.412148e-004
2.497364e+003, -5.103509e-004
2.499293e+003, -5.622284e-004
2.501221e+003, -5.067487e-004
2.503150e+003, -1.605589e-004
2.505078e+003, -1.365319e-004
2.507007e+003, -2.085619e-004
2.508935e+003, 1.725939e-004
2.510864e+003, 4.317909e-005
2.512792e+003, -6.357466e-004
2.514720e+003, -9.677825e-004
2.516649e+003, -3.239929e-004
2.518577e+003, 1.065717e-004
2.520506e+003, 2.051309e-004
2.522434e+003, 2.922292e-004
2.524363e+003, 2.522107e-004
2.526291e+003, 1.131767e-004
2.528220e+003, 1.951861e-005
2.530148e+003, 1.468870e-004
2.532077e+003, 4.037910e-004
2.534005e+003, 6.168725e-004
2.535934e+003, 5.734568e-004
2.537862e+003, 8.245549e-004
2.539791e+003, 6.284692e-004
2.541719e+003, -3.284474e-006
2.543647e+003, -2.132297e-005
2.545576e+003, 4.078843e-004
2.547504e+003, 4.445877e-004
2.549433e+003, 5.076945e-005
2.551361e+003, 4.311391e-006
2.553290e+003, 4.236772e-004
2.555218e+003, 5.849333e-004
2.557147e+003, 6.314924e-004
2.559075e+003, 2.212457e-004
2.561004e+003, 2.905014e-004
2.562932e+003, 6.133785e-004
2.564861e+003, 9.270533e-004
2.566789e+003, 7.967600e-004
2.568718e+003, 5.401663e-004
2.570646e+003, 7.506519e-004
2.572574e+003, 1.095015e-003
2.574503e+003, 9.380515e-004
2.576431e+003, 7.523413e-004
2.578360e+003, 8.254868e-004
2.580288e+003, 1.022307e-003
2.582217e+003, 1.180055e-003
2.584145e+003, 1.245738e-003
2.586074e+003, 1.428884e-003
2.588002e+003, 1.500357e-003
2.589931e+003, 1.481453e-003
2.591859e+003, 1.262181e-003
2.593788e+003, 9.460242e-004
2.595716e+003, 9.847751e-004
2.597645e+003, 9.840422e-004
2.599573e+003, 1.215321e-003
2.601501e+003, 1.588284e-003
2.603430e+003, 1.656497e-003
2.605358e+003, 1.348439e-003
2.607287e+003, 1.185199e-003
2.609215e+003, 1.427647e-003
2.611144e+003, 1.741641e-003
2.613072e+003, 1.997897e-003
2.615001e+003, 1.767904e-003
2.616929e+003, 1.755227e-003
2.618858e+003, 1.860205e-003
2.620786e+003, 1.697544e-003
2.622715e+003, 1.736391e-003
2.624643e+003, 2.177596e-003
2.626572e+003, 2.228985e-003
2.628500e+003, 1.941730e-003
2.630428e+003, 1.934948e-003
2.632357e+003, 1.968694e-003
2.634285e+003, 1.827101e-003
2.636214e+003, 1.587435e-003
2.638142e+003, 1.657224e-003
2.640071e+003, 1.865635e-003
2.641999e+003, 2.165070e-003
2.643928e+003, 2.375209e-003
2.645856e+003, 2.268014e-003
2.647785e+003, 2.091761e-003
2.649713e+003, 2.203410e-003
2.651642e+003, 2.174820e-003
2.653570e+003, 1.982621e-003
2.655499e+003, 2.064712e-003
2.657427e+003, 1.985503e-003
2.659355e+003, 1.573752e-003
2.661284e+003, 1.291928e-003
2.663212e+003, 1.218041e-003
2.665141e+003, 9.838918e-004
2.667069e+003, 9.104000e-004
2.668998e+003, 1.058516e-003
2.670926e+003, 1.210053e-003
2.672855e+003, 1.095858e-003
2.674783e+003, 9.817746e-004
2.676712e+003, 1.080217e-003
2.678640e+003, 1.279385e-003
2.680569e+003, 1.161965e-003
2.682497e+003, 9.701950e-004
2.684426e+003, 1.106033e-003
2.686354e+003, 1.067894e-003
2.688282e+003, 8.182501e-004
2.690211e+003, 8.022460e-004
2.692139e+003, 9.246710e-004
2.694068e+003, 9.831352e-004
2.695996e+003, 1.039092e-003
2.697925e+003, 8.868474e-004
2.699853e+003, 8.639365e-004
2.701782e+003, 9.914156e-004
2.703710e+003, 1.197285e-003
2.705639e+003, 1.303319e-003
2.707567e+003, 1.059535e-003
2.709496e+003, 8.241679e-004
2.711424e+003, 8.791472e-004
2.713353e+003, 8.389262e-004
2.715281e+003, 8.419533e-004
2.717209e+003, 9.116572e-004
2.719138e+003, 8.841729e-004
2.721066e+003, 6.374223e-004
2.722995e+003, 5.749558e-004
2.724923e+003, 7.270394e-004
2.726852e+003, 7.290909e-004
2.728780e+003, 6.538845e-004
2.730709e+003, 6.533508e-004
2.732637e+003, 8.887436e-004
2.734566e+003, 1.171404e-003
2.736494e+003, 1.107701e-003
2.738423e+003, 1.166153e-003
2.740351e+003, 1.264865e-003
2.742280e+003, 1.359538e-003
2.744208e+003, 1.095443e-003
2.746136e+003, 1.044028e-003
2.748065e+003, 9.494385e-004
2.749993e+003, 8.595557e-004
2.751922e+003, 1.022500e-003
2.753850e+003, 1.139478e-003
2.755779e+003, 1.188717e-003
2.757707e+003, 1.075040e-003
2.759636e+003, 7.923883e-004
2.761564e+003, 8.513601e-004
2.763493e+003, 9.564183e-004
2.765421e+003, 1.178660e-003
2.767350e+003, 1.280172e-003
2.769278e+003, 1.053285e-003
2.771207e+003, 8.815315e-004
2.773135e+003, 1.006379e-003
2.775063e+003, 1.021159e-003
2.776992e+003, 1.111569e-003
2.778920e+003, 1.299536e-003
2.780849e+003, 1.100754e-003
2.782777e+003, 1.047438e-003
2.784706e+003, 1.347595e-003
2.786634e+003, 1.401587e-003
2.788563e+003, 1.437154e-003
2.790491e+003, 1.584880e-003
2.792420e+003, 1.721615e-003
2.794348e+003, 1.565284e-003
2.796277e+003, 1.556531e-003
2.798205e+003, 1.413626e-003
2.800134e+003, 1.313450e-003
2.802062e+003, 1.315284e-003
2.803990e+003, 1.330140e-003
2.805919e+003, 1.307135e-003
2.807847e+003, 1.400427e-003
2.809776e+003, 1.586790e-003
2.811704e+003, 1.537041e-003
2.813633e+003, 1.760555e-003
2.815561e+003, 1.996562e-003
2.817490e+003, 1.736137e-003
2.819418e+003, 1.637136e-003
2.821347e+003, 1.437297e-003
2.823275e+003, 1.243208e-003
2.825204e+003, 1.376189e-003
2.827132e+003, 1.424582e-003
2.829061e+003, 1.409881e-003
2.830989e+003, 1.666304e-003
2.832917e+003, 2.117749e-003
2.834846e+003, 1.998853e-003
2.836774e+003, 1.643073e-003
2.838703e+003, 1.699948e-003
2.840631e+003, 2.006609e-003
2.842560e+003, 2.220629e-003
2.844488e+003, 2.374821e-003
2.846417e+003, 2.386070e-003
2.848345e+003, 2.080973e-003
2.850274e+003, 1.894899e-003
2.852202e+003, 1.905267e-003
2.854131e+003, 1.861946e-003
2.856059e+003, 1.953812e-003
2.857988e+003, 2.028924e-003
2.859916e+003, 1.920575e-003
2.861844e+003, 1.388911e-003
2.863773e+003, 1.526077e-003
2.865701e+003, 2.097934e-003
2.867630e+003, 2.324648e-003
2.869558e+003, 2.327259e-003
2.871487e+003, 1.956171e-003
2.873415e+003, 1.642941e-003
2.875344e+003, 1.784190e-003
2.877272e+003, 2.124835e-003
2.879201e+003, 2.645842e-003
2.881129e+003, 2.401108e-003
2.883058e+003, 1.742389e-003
2.884986e+003, 1.623617e-003
2.886915e+003, 1.830740e-003
2.888843e+003, 1.882099e-003
2.890771e+003, 2.433040e-003
2.892700e+003, 2.812801e-003
2.894628e+003, 2.600622e-003
2.896557e+003, 2.207721e-003
2.898485e+003, 2.249310e-003
2.900414e+003, 2.482464e-003
2.902342e+003, 2.438153e-003
2.904271e+003, 2.604174e-003
2.906199e+003, 2.519063e-003
2.908128e+003, 2.297336e-003
2.910056e+003, 2.300695e-003
2.911985e+003, 2.434363e-003
2.913913e+003, 2.545485e-003
2.915842e+003, 2.717176e-003
2.917770e+003, 2.732828e-003
2.919698e+003, 2.774675e-003
2.921627e+003, 2.532823e-003
2.923555e+003, 2.321557e-003
2.925484e+003, 2.380968e-003
2.927412e+003, 2.187126e-003
2.929341e+003, 2.043996e-003
2.931269e+003, 2.001372e-003
2.933198e+003, 2.422884e-003
2.935126e+003, 2.514708e-003
2.937055e+003, 2.342416e-003
2.938983e+003, 1.994057e-003
2.940912e+003, 1.626406e-003
2.942840e+003, 1.744246e-003
2.944769e+003, 2.068053e-003
2.946697e+003, 2.262173e-003
2.948625e+003, 2.217263e-003
2.950554e+003, 2.379725e-003
2.952482e+003, 2.722007e-003
2.954411e+003, 2.660513e-003
2.956339e+003, 2.560757e-003
2.958268e+003, 3.057625e-003
2.960196e+003, 3.408494e-003
2.962125e+003, 3.299814e-003
2.964053e+003, 3.042144e-003
2.965982e+003, 2.631344e-003
2.967910e+003, 2.267031e-003
2.969839e+003, 2.190927e-003
2.971767e+003, 2.212176e-003
2.973696e+003, 1.952775e-003
2.975624e+003, 1.809785e-003
2.977552e+003, 1.758695e-003
2.979481e+003, 1.503129e-003
2.981409e+003, 1.588467e-003
2.983338e+003, 1.649176e-003
2.985266e+003, 1.375435e-003
2.987195e+003, 1.052363e-003
2.989123e+003, 1.368388e-003
2.991052e+003, 1.829985e-003
2.992980e+003, 1.407184e-003
2.994909e+003, 1.175951e-003
2.996837e+003, 1.614085e-003
2.998766e+003, 1.802566e-003
3.000694e+003, 1.444055e-003
3.002623e+003, 1.317900e-003
3.004551e+003, 1.560529e-003
3.006479e+003, 1.667654e-003
3.008408e+003, 1.522613e-003
3.010336e+003, 1.283246e-003
3.012265e+003, 1.046012e-003
3.014193e+003, 9.788157e-004
3.016122e+003, 1.114864e-003
3.018050e+003, 9.891751e-004
3.019979e+003, 9.622691e-004
3.021907e+003, 1.251295e-003
3.023836e+003, 1.165849e-003
3.025764e+003, 1.228908e-003
3.027693e+003, 1.321774e-003
3.029621e+003, 1.275892e-003
3.031550e+003, 1.414357e-003
3.033478e+003, 1.027225e-003
3.035406e+003, 1.115047e-003
3.037335e+003, 1.670964e-003
3.039263e+003, 1.762271e-003
3.041192e+003, 1.509142e-003
3.043120e+003, 1.275117e-003
3.045049e+003, 1.375911e-003
3.046977e+003, 1.279765e-003
3.048906e+003, 1.169246e-003
3.050834e+003, 1.456445e-003
3.052763e+003, 1.925378e-003
3.054691e+003, 1.913519e-003
3.056620e+003, 1.745866e-003
3.058548e+003, 1.637379e-003
3.060477e+003, 1.535564e-003
3.062405e+003, 1.639241e-003
3.064333e+003, 2.090698e-003
3.066262e+003, 2.038999e-003
3.068190e+003, 1.531191e-003
3.070119e+003, 1.720473e-003
3.072047e+003, 1.839787e-003
3.073976e+003, 1.917847e-003
3.075904e+003, 2.075421e-003
3.077833e+003, 1.834878e-003
3.079761e+003, 2.031113e-003
3.081690e+003, 2.365398e-003
3.083618e+003, 2.328087e-003
3.085547e+003, 2.007590e-003
3.087475e+003, 1.771685e-003
3.089404e+003, 2.011125e-003
3.091332e+003, 1.990633e-003
3.093260e+003, 1.561454e-003
3.095189e+003, 1.926358e-003
3.097117e+003, 2.485288e-003
3.099046e+003, 2.515024e-003
3.100974e+003, 2.298477e-003
3.102903e+003, 2.168295e-003
3.104831e+003, 1.946267e-003
3.106760e+003, 2.055105e-003
3.108688e+003, 2.327513e-003
3.110617e+003, 2.658246e-003
3.112545e+003, 2.742977e-003
3.114474e+003, 2.444629e-003
3.116402e+003, 1.866971e-003
3.118331e+003, 1.788460e-003
3.120259e+003, 1.990727e-003
3.122188e+003, 1.998381e-003
3.124116e+003, 1.976497e-003
3.126044e+003, 2.133320e-003
3.127973e+003, 2.244675e-003
3.129901e+003, 2.135329e-003
3.131830e+003, 2.298999e-003
3.133758e+003, 2.573155e-003
3.135687e+003, 2.621686e-003
3.137615e+003, 2.762466e-003
3.139544e+003, 3.055641e-003
3.141472e+003, 2.905215e-003
3.143401e+003, 2.671443e-003
3.145329e+003, 2.762157e-003
3.147258e+003, 2.640137e-003
3.149186e+003, 2.567841e-003
3.151115e+003, 2.495878e-003
3.153043e+003, 2.445912e-003
3.154971e+003, 2.831275e-003
3.156900e+003, 2.769802e-003
3.158828e+003, 2.190812e-003
3.160757e+003, 2.220576e-003
3.162685e+003, 2.524256e-003
3.164614e+003, 2.696616e-003
3.166542e+003, 3.100110e-003
3.168471e+003, 3.139142e-003
3.170399e+003, 2.841120e-003
3.172328e+003, 2.982521e-003
3.174256e+003, 3.206438e-003
3.176185e+003, 3.011776e-003
3.178113e+003, 3.141307e-003
3.180042e+003, 2.812595e-003
3.181970e+003, 2.511023e-003
3.183898e+003, 2.913792e-003
3.185827e+003, 3.036682e-003
3.187755e+003, 2.810421e-003
3.189684e+003, 2.611981e-003
3.191612e+003, 2.879416e-003
3.193541e+003, 3.428192e-003
3.195469e+003, 3.038127e-003
3.197398e+003, 2.864677e-003
3.199326e+003, 2.896892e-003
3.201255e+003, 2.822960e-003
3.203183e+003, 2.926442e-003
3.205112e+003, 3.324682e-003
3.207040e+003, 3.341381e-003
3.208969e+003, 3.065667e-003
3.210897e+003, 2.692776e-003
3.212825e+003, 2.603308e-003
3.214754e+003, 2.763248e-003
3.216682e+003, 2.753478e-003
3.218611e+003, 2.778424e-003
3.220539e+003, 2.883165e-003
3.222468e+003, 2.741634e-003
3.224396e+003, 2.787058e-003
3.226325e+003, 2.618638e-003
3.228253e+003, 2.584517e-003
3.230182e+003, 2.799137e-003
3.232110e+003, 2.909192e-003
3.234039e+003, 2.847575e-003
3.235967e+003, 2.639247e-003
3.237896e+003, 2.541399e-003
3.239824e+003, 2.822444e-003
3.241752e+003, 2.727477e-003
3.243681e+003, 1.897266e-003
3.245609e+003, 2.335017e-003
3.247538e+003, 2.828625e-003
3.249466e+003, 2.760397e-003
3.251395e+003, 2.732891e-003
3.253323e+003, 3.190905e-003
3.255252e+003, 3.389667e-003
3.257180e+003, 2.837996e-003
3.259109e+003, 2.853202e-003
3.261037e+003, 2.905995e-003
3.262966e+003, 2.703620e-003
3.264894e+003, 2.638779e-003
3.266823e+003, 2.146133e-003
3.268751e+003, 2.148160e-003
3.270679e+003, 2.423721e-003
3.272608e+003, 2.225086e-003
3.274536e+003, 2.254543e-003
3.276465e+003, 2.661074e-003
3.278393e+003, 2.553815e-003
3.280322e+003, 2.435004e-003
3.282250e+003, 2.482627e-003
3.284179e+003, 2.714328e-003
3.286107e+003, 2.896586e-003
3.288036e+003, 2.797200e-003
3.289964e+003, 2.621910e-003
3.291893e+003, 2.670326e-003
3.293821e+003, 2.534673e-003
3.295750e+003, 2.611314e-003
3.297678e+003, 2.691330e-003
3.299606e+003, 2.672312e-003
3.301535e+003, 2.479241e-003
3.303463e+003, 2.652077e-003
3.305392e+003, 2.739652e-003
3.307320e+003, 2.883880e-003
3.309249e+003, 2.707584e-003
3.311177e+003, 2.424608e-003
3.313106e+003, 2.613078e-003
3.315034e+003, 2.878830e-003
3.316963e+003, 2.784589e-003
3.318891e+003, 2.547135e-003
3.320820e+003, 2.694563e-003
3.322748e+003, 2.827172e-003
3.324677e+003, 2.615030e-003
3.326605e+003, 2.972597e-003
3.328533e+003, 3.157123e-003
3.330462e+003, 2.671984e-003
3.332390e+003, 2.149730e-003
3.334319e+003, 2.043986e-003
3.336247e+003, 2.336116e-003
3.338176e+003, 2.573237e-003
3.340104e+003, 2.658764e-003
3.342033e+003, 2.891624e-003
3.343961e+003, 2.705459e-003
3.345890e+003, 2.492337e-003
3.347818e+003, 2.603117e-003
3.349747e+003, 2.544576e-003
3.351675e+003, 2.520565e-003
3.353604e+003, 2.755787e-003
3.355532e+003, 3.414293e-003
3.357460e+003, 3.451379e-003
3.359389e+003, 2.377406e-003
3.361317e+003, 2.074701e-003
3.363246e+003, 2.809376e-003
3.365174e+003, 2.744182e-003
3.367103e+003, 2.378618e-003
3.369031e+003, 2.242682e-003
3.370960e+003, 2.439183e-003
3.372888e+003, 2.624066e-003
3.374817e+003, 2.304323e-003
3.376745e+003, 2.069658e-003
3.378674e+003, 2.712906e-003
3.380602e+003, 2.943065e-003
3.382531e+003, 2.339787e-003
3.384459e+003, 2.277212e-003
3.386387e+003, 2.243897e-003
3.388316e+003, 2.521016e-003
3.390244e+003, 2.752696e-003
3.392173e+003, 2.623756e-003
3.394101e+003, 2.601927e-003
3.396030e+003, 2.782533e-003
3.397958e+003, 2.634321e-003
3.399887e+003, 2.094108e-003
3.401815e+003, 2.211562e-003
3.403744e+003, 2.302048e-003
3.405672e+003, 2.507027e-003
3.407601e+003, 2.338016e-003
3.409529e+003, 2.121881e-003
3.411458e+003, 2.104970e-003
3.413386e+003, 2.188276e-003
3.415314e+003, 2.763981e-003
3.417243e+003, 2.254477e-003
3.419171e+003, 1.454802e-003
3.421100e+003, 1.848380e-003
3.423028e+003, 2.277037e-003
3.424957e+003, 2.793955e-003
3.426885e+003, 2.608064e-003
3.428814e+003, 1.847088e-003
3.430742e+003, 1.358004e-003
3.432671e+003, 1.542520e-003
3.434599e+003, 1.559107e-003
3.436528e+003, 1.399956e-003
3.438456e+003, 1.395838e-003
3.440385e+003, 2.158778e-003
3.442313e+003, 2.493670e-003
3.444241e+003, 1.955040e-003
3.446170e+003, 2.099631e-003
3.448098e+003, 2.480695e-003
3.450027e+003, 2.560175e-003
3.451955e+003, 2.519100e-003
3.453884e+003, 2.203236e-003
3.455812e+003, 1.791469e-003
3.457741e+003, 1.648749e-003
3.459669e+003, 2.117040e-003
3.461598e+003, 1.971897e-003
3.463526e+003, 1.730667e-003
3.465455e+003, 2.110116e-003
3.467383e+003, 2.715307e-003
3.469312e+003, 2.802843e-003
3.471240e+003, 2.005951e-003
3.473168e+003, 1.959475e-003
3.475097e+003, 2.289647e-003
3.477025e+003, 2.154657e-003
3.478954e+003, 2.151812e-003
3.480882e+003, 2.100684e-003
3.482811e+003, 1.779816e-003
3.484739e+003, 1.411391e-003
3.486668e+003, 1.070393e-003
3.488596e+003, 1.382987e-003
3.490525e+003, 1.669476e-003
3.492453e+003, 1.906165e-003
3.494382e+003, 2.285539e-003
3.496310e+003, 2.565162e-003
3.498239e+003, 2.203322e-003
3.500167e+003, 1.747467e-003
3.502095e+003, 1.689067e-003
3.504024e+003, 1.607475e-003
3.505952e+003, 1.135252e-003
3.507881e+003, 1.262551e-003
3.509809e+003, 1.571828e-003
3.511738e+003, 1.625457e-003
3.513666e+003, 1.896411e-003
3.515595e+003, 1.659777e-003
3.517523e+003, 1.627085e-003
3.519452e+003, 1.520699e-003
3.521380e+003, 1.001071e-003
3.523309e+003, 8.309578e-004
3.525237e+003, 1.555235e-003
3.527166e+003, 1.831969e-003
3.529094e+003, 1.399393e-003
3.531022e+003, 9.156581e-004
3.532951e+003, 4.509850e-004
3.534879e+003, 1.601463e-003
3.536808e+003, 1.829468e-003
3.538736e+003, 1.667651e-003
3.540665e+003, 1.764749e-003
3.542593e+003, 1.892749e-003
3.544522e+003, 2.120743e-003
3.546450e+003, 2.146372e-003
3.548379e+003, 2.056532e-003
3.550307e+003, 2.256498e-003
3.552236e+003, 2.214111e-003
3.554164e+003, 1.561985e-003
3.556093e+003, 1.746369e-003
3.558021e+003, 2.079474e-003
3.559949e+003, 1.991546e-003
3.561878e+003, 1.950910e-003
3.563806e+003, 1.727932e-003
3.565735e+003, 1.512787e-003
3.567663e+003, 1.111346e-003
3.569592e+003, 8.279095e-004
3.571520e+003, 1.213330e-003
3.573449e+003, 1.731185e-003
3.575377e+003, 1.509762e-003
3.577306e+003, 1.112215e-003
3.579234e+003, 1.341764e-003
3.581163e+003, 1.225512e-003
3.583091e+003, 7.843584e-004
3.585020e+003, 1.126857e-003
3.586948e+003, 1.666932e-003
3.588876e+003, 1.677709e-003
3.590805e+003, 9.730667e-004
3.592733e+003, 7.914713e-004
3.594662e+003, 9.737543e-004
3.596590e+003, 4.326454e-004
3.598519e+003, 4.040152e-004
3.600447e+003, 5.971973e-004
3.602376e+003, 3.645718e-004
3.604304e+003, 5.216165e-004
3.606233e+003, 9.982907e-004
3.608161e+003, 1.146215e-003
3.610090e+003, 6.241653e-004
3.612018e+003, 9.208546e-004
3.613947e+003, 1.567162e-003
3.615875e+003, 9.611585e-004
3.617803e+003, 6.307755e-004
3.619732e+003, 1.364388e-003
3.621660e+003, 1.268554e-003
3.623589e+003, 1.090200e-003
3.625517e+003, 1.056159e-003
3.627446e+003, 1.442844e-003
3.629374e+003, 1.759964e-003
3.631303e+003, 1.491346e-003
3.633231e+003, 1.478040e-003
3.635160e+003, 1.590588e-003
3.637088e+003, 1.546798e-003
3.639017e+003, 1.865195e-003
3.640945e+003, 1.444953e-003
3.642874e+003, 1.030416e-003
3.644802e+003, 6.516722e-004
3.646730e+003, 1.099701e-003
3.648659e+003, 1.594800e-003
3.650587e+003, 9.354077e-004
3.652516e+003, 4.657634e-004
3.654444e+003, 2.637483e-004
3.656373e+003, -8.504530e-005
3.658301e+003, -2.787927e-006
3.660230e+003, -7.046107e-005
3.662158e+003, -4.213653e-004
3.664087e+003, -3.789844e-004
3.666015e+003, -3.340072e-004
3.667944e+003, 8.253066e-004
3.669872e+003, 1.692200e-003
3.671801e+003, 7.804066e-004
3.673729e+003, 6.852181e-004
3.675657e+003, 1.026040e-003
3.677586e+003, 2.966184e-004
3.679514e+003, 6.236061e-004
3.681443e+003, 1.048405e-003
3.683371e+003, 5.411169e-004
3.685300e+003, -1.755829e-004
3.687228e+003, 4.166634e-004
3.689157e+003, 1.323514e-003
3.691085e+003, 1.351869e-003
3.693014e+003, 1.709853e-003
3.694942e+003, 2.326846e-003
3.696871e+003, 2.767033e-003
3.698799e+003, 2.454345e-003
3.700728e+003, 1.517772e-003
3.702656e+003, 7.430229e-004
3.704584e+003, 9.583323e-004
3.706513e+003, 1.236944e-003
3.708441e+003, 1.033347e-003
3.710370e+003, 1.300118e-003
3.712298e+003, 1.878495e-003
3.714227e+003, 9.001195e-004
3.716155e+003, 5.382964e-004
3.718084e+003, 4.910073e-004
3.720012e+003, -1.209126e-004
3.721941e+003, -2.198698e-004
3.723869e+003, -2.251653e-004
3.725798e+003, -4.900252e-004
3.727726e+003, -3.629688e-004
3.729655e+003, 4.842530e-004
3.731583e+003, 1.247290e-003
3.733511e+003, 1.417552e-003
3.735440e+003, 1.510204e-003
3.737368e+003, 7.648559e-004
3.739297e+003, 2.676219e-005
3.741225e+003, 1.508687e-004
3.743154e+003, 9.829536e-004
3.745082e+003, 1.554718e-003
3.747011e+003, 1.123357e-003
3.748939e+003, 1.489428e-003
3.750868e+003, 2.004525e-003
3.752796e+003, 1.099708e-003
3.754725e+003, 1.930945e-004
3.756653e+003, -1.594422e-004
3.758582e+003, 1.576714e-004
3.760510e+003, 8.573545e-004
3.762438e+003, 1.982290e-004
3.764367e+003, -5.084398e-004
3.766295e+003, -6.824730e-004
3.768224e+003, -2.305937e-004
3.770152e+003, 1.200529e-004
3.772081e+003, 6.367936e-004
3.774009e+003, 3.625548e-004
3.775938e+003, -6.258163e-004
3.777866e+003, -1.048264e-003
3.779795e+003, -3.801842e-004
3.781723e+003, -2.599848e-004
3.783652e+003, -6.786004e-004
3.785580e+003, -1.279280e-003
3.787509e+003, -1.235917e-003
3.789437e+003, -8.592295e-004
3.791365e+003, -4.134998e-004
3.793294e+003, -2.636705e-004
3.795222e+003, -4.121604e-004
3.797151e+003, -5.658186e-004
3.799079e+003, -5.418195e-004
3.801008e+003, 2.563134e-004
3.802936e+003, -3.402144e-005
3.804865e+003, -1.357724e-004
3.806793e+003, 5.842318e-004
3.808722e+003, -6.788077e-004
3.810650e+003, -8.510412e-004
3.812579e+003, -5.016914e-004
3.814507e+003, 4.209323e-004
3.816436e+003, 1.220224e-003
3.818364e+003, 4.146507e-004
3.820292e+003, 5.500888e-004
3.822221e+003, 9.404835e-004
3.824149e+003, -1.242974e-004
3.826078e+003, -8.696915e-004
3.828006e+003, -6.773001e-004
3.829935e+003, 5.962888e-004
3.831863e+003, 1.052874e-003
3.833792e+003, -4.128391e-005
3.835720e+003, 1.418417e-004
3.837649e+003, 1.011458e-003
3.839577e+003, 7.544358e-005
3.841506e+003, -7.556448e-004
3.843434e+003, -9.381674e-004
3.845363e+003, -8.212258e-004
3.847291e+003, -3.270722e-004
3.849219e+003, -4.690270e-004
3.851148e+003, -1.415070e-004
3.853076e+003, 1.024338e-003
3.855005e+003, 4.196519e-004
3.856933e+003, -8.893503e-004
3.858862e+003, -1.148170e-003
3.860790e+003, -1.160505e-003
3.862719e+003, -1.054158e-003
3.864647e+003, 1.479059e-004
3.866576e+003, 5.721321e-004
3.868504e+003, 1.335680e-004
3.870433e+003, -3.133968e-004
3.872361e+003, -4.624830e-004
3.874290e+003, -3.527262e-004
3.876218e+003, -5.835064e-004
3.878146e+003, -1.510595e-003
3.880075e+003, -1.134825e-003
3.882003e+003, -7.366114e-004
3.883932e+003, -1.605979e-004
3.885860e+003, -1.281056e-004
3.887789e+003, -8.499858e-004
3.889717e+003, -1.173064e-003
3.891646e+003, -6.144447e-004
3.893574e+003, -3.116591e-004
3.895503e+003, -7.928433e-004
3.897431e+003, -6.018035e-004
3.899360e+003, -4.126194e-004
3.901288e+003, -2.555385e-004
3.903217e+003, -4.390162e-004
3.905145e+003, -9.686199e-004
3.907073e+003, -6.396566e-004
3.909002e+003, -4.443285e-004
3.910930e+003, -4.804329e-004
3.912859e+003, 3.876544e-005
3.914787e+003, -4.624927e-004
3.916716e+003, -5.626184e-004
3.918644e+003, -3.697456e-004
3.920573e+003, -7.057543e-004
3.922501e+003, -7.028536e-004
3.924430e+003, -4.079923e-004
3.926358e+003, -4.234102e-004
3.928287e+003, -8.885012e-004
3.930215e+003, -7.181639e-004
3.932144e+003, -2.076661e-004
3.934072e+003, -7.627782e-004
3.936000e+003, -1.727394e-003
3.937929e+003, -1.938739e-003
3.939857e+003, -1.569847e-003
3.941786e+003, -1.223223e-003
3.943714e+003, -5.760324e-004
3.945643e+003, -6.423118e-004
3.947571e+003, -1.407342e-003
3.949500e+003, -1.181677e-003
3.951428e+003, -1.070778e-003
3.953357e+003, -1.862332e-003
3.955285e+003, -2.601559e-003
3.957214e+003, -1.846991e-003
3.959142e+003, -1.014921e-003
3.961071e+003, -8.645643e-004
3.962999e+003, 1.733382e-004
3.964927e+003, -1.686760e-004
3.966856e+003, -1.328851e-003
3.968784e+003, -1.219906e-003
3.970713e+003, -9.655539e-004
3.972641e+003, -1.213199e-003
3.974570e+003, -1.467759e-003
3.976498e+003, -1.775704e-003
3.978427e+003, -1.795396e-003
3.980355e+003, -1.528006e-003
3.982284e+003, -1.403501e-003
3.984212e+003, -1.047075e-003
3.986141e+003, -9.599332e-004
3.988069e+003, -1.241283e-003
3.989998e+003, -7.226126e-004
3.991926e+003, -1.818598e-004
3.993854e+003, -7.795281e-004
3.995783e+003, -1.076049e-003
3.997711e+003, -1.440703e-003
3.999640e+003, -1.923452e-003
##END=



