##NAMES=Beryl
##RRUFFID=R050368
##IDEAL CHEMISTRY=Be_3_Al_2_Si_6_O_18_
##LOCALITY=Wah Wah Mountains, Utah, USA
##OWNER=RRUFF
##SOURCE=Eugene Schlepp
##DESCRIPTION=Red-violet hexagonal prism
##STATUS=The identification of this mineral has been confirmed by X-ray diffraction and chemical analysis
##URL=rruff.info/R050368
##MEASURED CHEMISTRY=(Be_0.99_Li_0.01_)_3_(Al_0.95_Fe^3+^_0.05_)_2_Si_6.00_O_18_Î‡K_0.02_Na_0.01_
3.991926e+002, 3.437107e-001
4.011211e+002, 3.193276e-001
4.030496e+002, 3.208628e-001
4.049780e+002, 3.265218e-001
4.069065e+002, 3.409995e-001
4.088350e+002, 3.512040e-001
4.107634e+002, 3.580259e-001
4.126919e+002, 3.701816e-001
4.146204e+002, 3.755594e-001
4.165488e+002, 3.753297e-001
4.184773e+002, 3.889687e-001
4.204058e+002, 3.962731e-001
4.223342e+002, 3.963583e-001
4.242627e+002, 3.978516e-001
4.261912e+002, 3.973866e-001
4.281196e+002, 3.839493e-001
4.300481e+002, 3.743370e-001
4.319766e+002, 3.611319e-001
4.339050e+002, 3.509245e-001
4.358335e+002, 3.439266e-001
4.377620e+002, 3.340318e-001
4.396904e+002, 3.253629e-001
4.416189e+002, 3.208187e-001
4.435474e+002, 3.089831e-001
4.454758e+002, 2.939244e-001
4.474043e+002, 2.852035e-001
4.493328e+002, 2.747657e-001
4.512612e+002, 2.636414e-001
4.531897e+002, 2.583549e-001
4.551182e+002, 2.556680e-001
4.570466e+002, 2.522708e-001
4.589751e+002, 2.483143e-001
4.609036e+002, 2.454652e-001
4.628320e+002, 2.455049e-001
4.647605e+002, 2.490524e-001
4.666890e+002, 2.514897e-001
4.686174e+002, 2.557224e-001
4.705459e+002, 2.615122e-001
4.724744e+002, 2.681573e-001
4.744028e+002, 2.737532e-001
4.763313e+002, 2.774293e-001
4.782598e+002, 2.834263e-001
4.801882e+002, 2.902710e-001
4.821167e+002, 2.953447e-001
4.840452e+002, 2.980079e-001
4.859736e+002, 2.967319e-001
4.879021e+002, 2.920481e-001
4.898306e+002, 2.842487e-001
4.917590e+002, 2.731199e-001
4.936875e+002, 2.564670e-001
4.956160e+002, 2.355128e-001
4.975444e+002, 2.127478e-001
4.994729e+002, 1.914407e-001
5.014014e+002, 1.798506e-001
5.033298e+002, 1.872667e-001
5.052583e+002, 2.103214e-001
5.071868e+002, 2.363955e-001
5.091152e+002, 2.571214e-001
5.110437e+002, 2.714352e-001
5.129722e+002, 2.757274e-001
5.149006e+002, 2.742543e-001
5.168291e+002, 2.701556e-001
5.187576e+002, 2.642624e-001
5.206860e+002, 2.556517e-001
5.226145e+002, 2.452891e-001
5.245430e+002, 2.358870e-001
5.264714e+002, 2.256946e-001
5.283999e+002, 2.144798e-001
5.303284e+002, 2.039225e-001
5.322568e+002, 1.940582e-001
5.341853e+002, 1.831177e-001
5.361138e+002, 1.714397e-001
5.380422e+002, 1.591653e-001
5.399707e+002, 1.486075e-001
5.418992e+002, 1.392623e-001
5.438276e+002, 1.302180e-001
5.457561e+002, 1.222569e-001
5.476846e+002, 1.141984e-001
5.496130e+002, 1.063986e-001
5.515415e+002, 9.844586e-002
5.534700e+002, 9.116749e-002
5.553984e+002, 8.562465e-002
5.573269e+002, 8.067343e-002
5.592554e+002, 7.768391e-002
5.611838e+002, 7.735503e-002
5.631123e+002, 7.784781e-002
5.650408e+002, 7.834573e-002
5.669692e+002, 8.070902e-002
5.688977e+002, 8.461218e-002
5.708262e+002, 9.088980e-002
5.727546e+002, 9.816754e-002
5.746831e+002, 1.078004e-001
5.766116e+002, 1.210291e-001
5.785400e+002, 1.391310e-001
5.804685e+002, 1.627158e-001
5.823970e+002, 1.892542e-001
5.843254e+002, 2.138483e-001
5.862539e+002, 2.304635e-001
5.881824e+002, 2.325210e-001
5.901108e+002, 2.194155e-001
5.920393e+002, 1.990126e-001
5.939678e+002, 1.758857e-001
5.958962e+002, 1.530119e-001
5.978247e+002, 1.318868e-001
5.997532e+002, 1.138090e-001
6.016816e+002, 9.912036e-002
6.036101e+002, 8.748459e-002
6.055386e+002, 7.959542e-002
6.074670e+002, 7.473607e-002
6.093955e+002, 7.262428e-002
6.113240e+002, 7.226544e-002
6.132524e+002, 7.239451e-002
6.151809e+002, 7.371327e-002
6.171094e+002, 7.518572e-002
6.190378e+002, 7.644961e-002
6.209663e+002, 7.817542e-002
6.228948e+002, 7.979424e-002
6.248232e+002, 8.151845e-002
6.267517e+002, 8.326934e-002
6.286802e+002, 8.634894e-002
6.306086e+002, 9.136057e-002
6.325371e+002, 9.745252e-002
6.344656e+002, 1.054577e-001
6.363940e+002, 1.152057e-001
6.383225e+002, 1.261760e-001
6.402510e+002, 1.394359e-001
6.421794e+002, 1.561967e-001
6.441079e+002, 1.749014e-001
6.460364e+002, 1.926018e-001
6.479648e+002, 2.054888e-001
6.498933e+002, 2.069066e-001
6.518218e+002, 1.946994e-001
6.537502e+002, 1.800312e-001
6.556787e+002, 1.728667e-001
6.576072e+002, 1.752467e-001
6.595356e+002, 1.850503e-001
6.614641e+002, 1.996681e-001
6.633926e+002, 2.176278e-001
6.653210e+002, 2.367703e-001
6.672495e+002, 2.560854e-001
6.691780e+002, 2.745683e-001
6.711064e+002, 2.894489e-001
6.730349e+002, 3.006310e-001
6.749634e+002, 3.067774e-001
6.768918e+002, 3.058409e-001
6.788203e+002, 2.978555e-001
6.807488e+002, 2.834677e-001
6.826772e+002, 2.639745e-001
6.846057e+002, 2.437651e-001
6.865342e+002, 2.248307e-001
6.884626e+002, 2.067506e-001
6.903911e+002, 1.894172e-001
6.923196e+002, 1.737491e-001
6.942480e+002, 1.600776e-001
6.961765e+002, 1.474888e-001
6.981050e+002, 1.370592e-001
7.000334e+002, 1.293210e-001
7.019619e+002, 1.230083e-001
7.038904e+002, 1.187019e-001
7.058188e+002, 1.170430e-001
7.077473e+002, 1.173369e-001
7.096758e+002, 1.190956e-001
7.116042e+002, 1.217719e-001
7.135327e+002, 1.250538e-001
7.154612e+002, 1.293152e-001
7.173896e+002, 1.340153e-001
7.193181e+002, 1.392907e-001
7.212466e+002, 1.459192e-001
7.231750e+002, 1.528233e-001
7.251035e+002, 1.595411e-001
7.270320e+002, 1.662889e-001
7.289604e+002, 1.725783e-001
7.308889e+002, 1.779894e-001
7.328174e+002, 1.823916e-001
7.347458e+002, 1.854127e-001
7.366743e+002, 1.863975e-001
7.386028e+002, 1.859325e-001
7.405313e+002, 1.841478e-001
7.424597e+002, 1.798057e-001
7.443882e+002, 1.738108e-001
7.463167e+002, 1.669922e-001
7.482451e+002, 1.587962e-001
7.501736e+002, 1.504691e-001
7.521021e+002, 1.427466e-001
7.540305e+002, 1.354720e-001
7.559590e+002, 1.288297e-001
7.578875e+002, 1.226507e-001
7.598159e+002, 1.175055e-001
7.617444e+002, 1.139812e-001
7.636729e+002, 1.123028e-001
7.656013e+002, 1.119933e-001
7.675298e+002, 1.124520e-001
7.694583e+002, 1.141591e-001
7.713867e+002, 1.170175e-001
7.733152e+002, 1.208257e-001
7.752437e+002, 1.252457e-001
7.771721e+002, 1.308125e-001
7.791006e+002, 1.376891e-001
7.810291e+002, 1.451621e-001
7.829575e+002, 1.531373e-001
7.848860e+002, 1.621833e-001
7.868145e+002, 1.729079e-001
7.887429e+002, 1.844217e-001
7.906714e+002, 1.960885e-001
7.925999e+002, 2.075717e-001
7.945283e+002, 2.182936e-001
7.964568e+002, 2.281435e-001
7.983853e+002, 2.355579e-001
8.003137e+002, 2.398642e-001
8.022422e+002, 2.420118e-001
8.041707e+002, 2.407866e-001
8.060991e+002, 2.365071e-001
8.080276e+002, 2.306728e-001
8.099561e+002, 2.230282e-001
8.118845e+002, 2.143407e-001
8.138130e+002, 2.052222e-001
8.157415e+002, 1.956091e-001
8.176699e+002, 1.856144e-001
8.195984e+002, 1.758370e-001
8.215269e+002, 1.663080e-001
8.234553e+002, 1.569624e-001
8.253838e+002, 1.484905e-001
8.273123e+002, 1.410564e-001
8.292407e+002, 1.341051e-001
8.311692e+002, 1.278059e-001
8.330977e+002, 1.223562e-001
8.350261e+002, 1.175000e-001
8.369546e+002, 1.133920e-001
8.388831e+002, 1.102754e-001
8.408115e+002, 1.082448e-001
8.427400e+002, 1.067789e-001
8.446685e+002, 1.060124e-001
8.465969e+002, 1.060568e-001
8.485254e+002, 1.062153e-001
8.504539e+002, 1.070453e-001
8.523823e+002, 1.082119e-001
8.543108e+002, 1.096841e-001
8.562393e+002, 1.118208e-001
8.581677e+002, 1.141860e-001
8.600962e+002, 1.168161e-001
8.620247e+002, 1.201752e-001
8.639531e+002, 1.240545e-001
8.658816e+002, 1.282206e-001
8.678101e+002, 1.328359e-001
8.697385e+002, 1.378848e-001
8.716670e+002, 1.430698e-001
8.735955e+002, 1.481989e-001
8.755239e+002, 1.533716e-001
8.774524e+002, 1.591094e-001
8.793809e+002, 1.645041e-001
8.813093e+002, 1.699143e-001
8.832378e+002, 1.764928e-001
8.851663e+002, 1.835946e-001
8.870947e+002, 1.909056e-001
8.890232e+002, 1.988654e-001
8.909517e+002, 2.072068e-001
8.928801e+002, 2.154410e-001
8.948085e+002, 2.238411e-001
8.967370e+002, 2.331801e-001
8.986655e+002, 2.432027e-001
9.005939e+002, 2.530575e-001
9.025224e+002, 2.627915e-001
9.044509e+002, 2.728027e-001
9.063793e+002, 2.822157e-001
9.083078e+002, 2.911457e-001
9.102363e+002, 2.996637e-001
9.121647e+002, 3.080995e-001
9.140932e+002, 3.163203e-001
9.160217e+002, 3.241753e-001
9.179501e+002, 3.312389e-001
9.198786e+002, 3.378473e-001
9.218071e+002, 3.441367e-001
9.237355e+002, 3.498392e-001
9.256640e+002, 3.549327e-001
9.275925e+002, 3.593866e-001
9.295209e+002, 3.629170e-001
9.314494e+002, 3.657984e-001
9.333779e+002, 3.687258e-001
9.353063e+002, 3.717463e-001
9.372348e+002, 3.742519e-001
9.391633e+002, 3.762873e-001
9.410917e+002, 3.779155e-001
9.430202e+002, 3.781256e-001
9.449487e+002, 3.779095e-001
9.468771e+002, 3.772326e-001
9.488056e+002, 3.758591e-001
9.507341e+002, 3.733571e-001
9.526625e+002, 3.690269e-001
9.545910e+002, 3.639669e-001
9.565195e+002, 3.575702e-001
9.584479e+002, 3.495296e-001
9.603764e+002, 3.399693e-001
9.623049e+002, 3.289207e-001
9.642333e+002, 3.172313e-001
9.661618e+002, 3.050219e-001
9.680903e+002, 2.922805e-001
9.700187e+002, 2.800175e-001
9.719472e+002, 2.682464e-001
9.738757e+002, 2.563421e-001
9.758041e+002, 2.452052e-001
9.777326e+002, 2.343080e-001
9.796611e+002, 2.239068e-001
9.815895e+002, 2.148399e-001
9.835180e+002, 2.059265e-001
9.854465e+002, 1.969966e-001
9.873749e+002, 1.890193e-001
9.893034e+002, 1.819413e-001
9.912319e+002, 1.756878e-001
9.931603e+002, 1.704527e-001
9.950888e+002, 1.667040e-001
9.970173e+002, 1.639355e-001
9.989457e+002, 1.621926e-001
1.000874e+003, 1.611559e-001
1.002803e+003, 1.610597e-001
1.004731e+003, 1.620759e-001
1.006660e+003, 1.635015e-001
1.008588e+003, 1.651750e-001
1.010517e+003, 1.667314e-001
1.012445e+003, 1.672221e-001
1.014373e+003, 1.664195e-001
1.016302e+003, 1.639591e-001
1.018230e+003, 1.592415e-001
1.020159e+003, 1.529276e-001
1.022087e+003, 1.455025e-001
1.024016e+003, 1.378886e-001
1.025944e+003, 1.304113e-001
1.027873e+003, 1.232017e-001
1.029801e+003, 1.167279e-001
1.031730e+003, 1.112915e-001
1.033658e+003, 1.063595e-001
1.035587e+003, 1.016800e-001
1.037515e+003, 9.769037e-002
1.039444e+003, 9.434085e-002
1.041372e+003, 9.144474e-002
1.043301e+003, 8.884147e-002
1.045229e+003, 8.647381e-002
1.047157e+003, 8.455964e-002
1.049086e+003, 8.272459e-002
1.051014e+003, 8.089326e-002
1.052943e+003, 7.905573e-002
1.054871e+003, 7.749161e-002
1.056800e+003, 7.564903e-002
1.058728e+003, 7.353550e-002
1.060657e+003, 7.174654e-002
1.062585e+003, 7.042155e-002
1.064514e+003, 6.886043e-002
1.066442e+003, 6.721256e-002
1.068371e+003, 6.545529e-002
1.070299e+003, 6.372690e-002
1.072228e+003, 6.238435e-002
1.074156e+003, 6.107978e-002
1.076084e+003, 5.963487e-002
1.078013e+003, 5.816161e-002
1.079941e+003, 5.682037e-002
1.081870e+003, 5.553328e-002
1.083798e+003, 5.457916e-002
1.085727e+003, 5.358978e-002
1.087655e+003, 5.264949e-002
1.089584e+003, 5.205880e-002
1.091512e+003, 5.141254e-002
1.093441e+003, 5.083801e-002
1.095369e+003, 5.074710e-002
1.097298e+003, 5.037347e-002
1.099226e+003, 4.986554e-002
1.101155e+003, 4.977820e-002
1.103083e+003, 4.994593e-002
1.105011e+003, 4.986878e-002
1.106940e+003, 4.978265e-002
1.108868e+003, 4.988833e-002
1.110797e+003, 5.009206e-002
1.112725e+003, 5.042405e-002
1.114654e+003, 5.080445e-002
1.116582e+003, 5.118397e-002
1.118511e+003, 5.179547e-002
1.120439e+003, 5.236746e-002
1.122368e+003, 5.307157e-002
1.124296e+003, 5.400929e-002
1.126225e+003, 5.508445e-002
1.128153e+003, 5.602607e-002
1.130082e+003, 5.710890e-002
1.132010e+003, 5.850047e-002
1.133938e+003, 5.999493e-002
1.135867e+003, 6.187974e-002
1.137795e+003, 6.411209e-002
1.139724e+003, 6.659021e-002
1.141652e+003, 6.901795e-002
1.143581e+003, 7.146823e-002
1.145509e+003, 7.423154e-002
1.147438e+003, 7.755870e-002
1.149366e+003, 8.127402e-002
1.151295e+003, 8.572529e-002
1.153223e+003, 9.069219e-002
1.155152e+003, 9.597187e-002
1.157080e+003, 1.014067e-001
1.159009e+003, 1.075926e-001
1.160937e+003, 1.146470e-001
1.162865e+003, 1.217825e-001
1.164794e+003, 1.289918e-001
1.166722e+003, 1.362591e-001
1.168651e+003, 1.430588e-001
1.170579e+003, 1.494735e-001
1.172508e+003, 1.555114e-001
1.174436e+003, 1.615694e-001
1.176365e+003, 1.683632e-001
1.178293e+003, 1.763973e-001
1.180222e+003, 1.853203e-001
1.182150e+003, 1.947600e-001
1.184079e+003, 2.048100e-001
1.186007e+003, 2.150166e-001
1.187936e+003, 2.251422e-001
1.189864e+003, 2.348022e-001
1.191792e+003, 2.434648e-001
1.193721e+003, 2.511359e-001
1.195649e+003, 2.574241e-001
1.197578e+003, 2.623557e-001
1.199506e+003, 2.653576e-001
1.201435e+003, 2.653415e-001
1.203363e+003, 2.629808e-001
1.205292e+003, 2.583272e-001
1.207220e+003, 2.514394e-001
1.209149e+003, 2.435641e-001
1.211077e+003, 2.349666e-001
1.213006e+003, 2.253973e-001
1.214934e+003, 2.156070e-001
1.216863e+003, 2.061334e-001
1.218791e+003, 1.970462e-001
1.220719e+003, 1.885011e-001
1.222648e+003, 1.801401e-001
1.224576e+003, 1.722737e-001
1.226505e+003, 1.649492e-001
1.228433e+003, 1.578963e-001
1.230362e+003, 1.508666e-001
1.232290e+003, 1.441431e-001
1.234219e+003, 1.375234e-001
1.236147e+003, 1.311454e-001
1.238076e+003, 1.250678e-001
1.240004e+003, 1.189380e-001
1.241933e+003, 1.127749e-001
1.243861e+003, 1.067718e-001
1.245790e+003, 1.011929e-001
1.247718e+003, 9.577933e-002
1.249646e+003, 9.068225e-002
1.251575e+003, 8.543536e-002
1.253503e+003, 8.001449e-002
1.255432e+003, 7.469774e-002
1.257360e+003, 6.941628e-002
1.259289e+003, 6.430252e-002
1.261217e+003, 5.955243e-002
1.263146e+003, 5.487137e-002
1.265074e+003, 5.032201e-002
1.267003e+003, 4.653443e-002
1.268931e+003, 4.329755e-002
1.270860e+003, 3.991177e-002
1.272788e+003, 3.655535e-002
1.274717e+003, 3.346367e-002
1.276645e+003, 3.042417e-002
1.278573e+003, 2.740535e-002
1.280502e+003, 2.445801e-002
1.282430e+003, 2.158428e-002
1.284359e+003, 1.881193e-002
1.286287e+003, 1.628834e-002
1.288216e+003, 1.440141e-002
1.290144e+003, 1.291057e-002
1.292073e+003, 1.168334e-002
1.294001e+003, 1.063572e-002
1.295930e+003, 9.671810e-003
1.297858e+003, 9.102331e-003
1.299787e+003, 8.471996e-003
1.301715e+003, 7.847134e-003
1.303644e+003, 7.515701e-003
1.305572e+003, 7.214872e-003
1.307500e+003, 7.042897e-003
1.309429e+003, 6.859112e-003
1.311357e+003, 6.445074e-003
1.313286e+003, 6.033313e-003
1.315214e+003, 6.119736e-003
1.317143e+003, 6.088349e-003
1.319071e+003, 5.718774e-003
1.321000e+003, 5.688452e-003
1.322928e+003, 5.823296e-003
1.324857e+003, 5.910547e-003
1.326785e+003, 5.803992e-003
1.328714e+003, 5.365265e-003
1.330642e+003, 5.278894e-003
1.332571e+003, 5.423623e-003
1.334499e+003, 5.082765e-003
1.336427e+003, 4.988536e-003
1.338356e+003, 5.013314e-003
1.340284e+003, 4.887515e-003
1.342213e+003, 4.945273e-003
1.344141e+003, 4.983281e-003
1.346070e+003, 4.648614e-003
1.347998e+003, 4.358659e-003
1.349927e+003, 4.210891e-003
1.351855e+003, 4.213838e-003
1.353784e+003, 4.608521e-003
1.355712e+003, 4.889599e-003
1.357641e+003, 4.691249e-003
1.359569e+003, 4.434243e-003
1.361498e+003, 4.572267e-003
1.363426e+003, 4.854789e-003
1.365354e+003, 4.841587e-003
1.367283e+003, 4.695205e-003
1.369211e+003, 4.503357e-003
1.371140e+003, 4.526042e-003
1.373068e+003, 4.711724e-003
1.374997e+003, 4.865398e-003
1.376925e+003, 4.704864e-003
1.378854e+003, 4.591926e-003
1.380782e+003, 4.625089e-003
1.382711e+003, 4.751416e-003
1.384639e+003, 5.076974e-003
1.386568e+003, 5.187235e-003
1.388496e+003, 5.392072e-003
1.390424e+003, 5.761920e-003
1.392353e+003, 5.827810e-003
1.394281e+003, 6.013254e-003
1.396210e+003, 6.216488e-003
1.398138e+003, 6.415921e-003
1.400067e+003, 6.415816e-003
1.401995e+003, 6.462962e-003
1.403924e+003, 6.944905e-003
1.405852e+003, 7.192705e-003
1.407781e+003, 7.278990e-003
1.409709e+003, 7.332922e-003
1.411638e+003, 7.259551e-003
1.413566e+003, 7.450403e-003
1.415495e+003, 7.870877e-003
1.417423e+003, 8.146671e-003
1.419351e+003, 8.371907e-003
1.421280e+003, 8.421854e-003
1.423208e+003, 8.385240e-003
1.425137e+003, 8.498851e-003
1.427065e+003, 8.470037e-003
1.428994e+003, 8.266433e-003
1.430922e+003, 8.367782e-003
1.432851e+003, 8.444889e-003
1.434779e+003, 8.336709e-003
1.436708e+003, 8.255242e-003
1.438636e+003, 8.244781e-003
1.440565e+003, 8.497321e-003
1.442493e+003, 8.611852e-003
1.444422e+003, 8.515948e-003
1.446350e+003, 8.522800e-003
1.448278e+003, 8.687651e-003
1.450207e+003, 8.691472e-003
1.452135e+003, 8.520409e-003
1.454064e+003, 8.410969e-003
1.455992e+003, 8.259051e-003
1.457921e+003, 8.261374e-003
1.459849e+003, 8.209333e-003
1.461778e+003, 8.267577e-003
1.463706e+003, 8.341723e-003
1.465635e+003, 8.193658e-003
1.467563e+003, 8.003998e-003
1.469492e+003, 7.955499e-003
1.471420e+003, 7.909073e-003
1.473349e+003, 7.765693e-003
1.475277e+003, 7.678886e-003
1.477205e+003, 7.815798e-003
1.479134e+003, 7.694150e-003
1.481062e+003, 7.564688e-003
1.482991e+003, 7.410238e-003
1.484919e+003, 7.210772e-003
1.486848e+003, 7.258997e-003
1.488776e+003, 7.392392e-003
1.490705e+003, 7.292113e-003
1.492633e+003, 7.177015e-003
1.494562e+003, 7.140373e-003
1.496490e+003, 7.317706e-003
1.498419e+003, 7.258602e-003
1.500347e+003, 7.035485e-003
1.502276e+003, 7.151862e-003
1.504204e+003, 7.446866e-003
1.506132e+003, 7.240360e-003
1.508061e+003, 6.647102e-003
1.509989e+003, 6.552958e-003
1.511918e+003, 6.595988e-003
1.513846e+003, 6.453383e-003
1.515775e+003, 6.437310e-003
1.517703e+003, 6.272357e-003
1.519632e+003, 6.154578e-003
1.521560e+003, 6.108043e-003
1.523489e+003, 6.220184e-003
1.525417e+003, 6.180356e-003
1.527346e+003, 6.011757e-003
1.529274e+003, 5.885906e-003
1.531203e+003, 5.826431e-003
1.533131e+003, 5.602383e-003
1.535059e+003, 5.534495e-003
1.536988e+003, 5.599992e-003
1.538916e+003, 5.422086e-003
1.540845e+003, 5.233116e-003
1.542773e+003, 5.031764e-003
1.544702e+003, 4.922139e-003
1.546630e+003, 4.872378e-003
1.548559e+003, 4.734685e-003
1.550487e+003, 4.509822e-003
1.552416e+003, 4.421348e-003
1.554344e+003, 4.455042e-003
1.556273e+003, 4.313377e-003
1.558201e+003, 4.576753e-003
1.560130e+003, 4.840345e-003
1.562058e+003, 4.340507e-003
1.563986e+003, 4.236716e-003
1.565915e+003, 4.369240e-003
1.567843e+003, 4.094437e-003
1.569772e+003, 3.626762e-003
1.571700e+003, 3.512749e-003
1.573629e+003, 3.931431e-003
1.575557e+003, 4.147407e-003
1.577486e+003, 4.167261e-003
1.579414e+003, 4.066955e-003
1.581343e+003, 3.556842e-003
1.583271e+003, 3.401049e-003
1.585200e+003, 3.422082e-003
1.587128e+003, 3.516731e-003
1.589057e+003, 3.580966e-003
1.590985e+003, 3.600043e-003
1.592913e+003, 3.541698e-003
1.594842e+003, 3.598838e-003
1.596770e+003, 3.518634e-003
1.598699e+003, 3.519635e-003
1.600627e+003, 3.688826e-003
1.602556e+003, 3.535865e-003
1.604484e+003, 3.228831e-003
1.606413e+003, 3.302499e-003
1.608341e+003, 3.370612e-003
1.610270e+003, 3.585062e-003
1.612198e+003, 3.928187e-003
1.614127e+003, 3.867811e-003
1.616055e+003, 3.958155e-003
1.617984e+003, 3.955007e-003
1.619912e+003, 3.979693e-003
1.621840e+003, 4.194960e-003
1.623769e+003, 3.906335e-003
1.625697e+003, 3.463712e-003
1.627626e+003, 3.853090e-003
1.629554e+003, 4.393906e-003
1.631483e+003, 4.526781e-003
1.633411e+003, 4.298174e-003
1.635340e+003, 3.995580e-003
1.637268e+003, 3.642063e-003
1.639197e+003, 3.708863e-003
1.641125e+003, 3.762259e-003
1.643054e+003, 4.005175e-003
1.644982e+003, 4.093413e-003
1.646911e+003, 3.961953e-003
1.648839e+003, 3.948243e-003
1.650767e+003, 3.542741e-003
1.652696e+003, 3.784821e-003
1.654624e+003, 4.179277e-003
1.656553e+003, 4.081467e-003
1.658481e+003, 3.735318e-003
1.660410e+003, 3.445071e-003
1.662338e+003, 3.319524e-003
1.664267e+003, 3.347806e-003
1.666195e+003, 3.428618e-003
1.668124e+003, 3.390882e-003
1.670052e+003, 3.287066e-003
1.671981e+003, 3.399056e-003
1.673909e+003, 3.854979e-003
1.675838e+003, 3.823751e-003
1.677766e+003, 3.316936e-003
1.679694e+003, 3.163158e-003
1.681623e+003, 3.239711e-003
1.683551e+003, 2.995755e-003
1.685480e+003, 2.654232e-003
1.687408e+003, 2.459046e-003
1.689337e+003, 2.484041e-003
1.691265e+003, 2.420980e-003
1.693194e+003, 2.498888e-003
1.695122e+003, 2.656733e-003
1.697051e+003, 2.613933e-003
1.698979e+003, 2.478337e-003
1.700908e+003, 2.445413e-003
1.702836e+003, 2.404541e-003
1.704765e+003, 2.512507e-003
1.706693e+003, 2.487603e-003
1.708621e+003, 2.273967e-003
1.710550e+003, 2.265788e-003
1.712478e+003, 2.194755e-003
1.714407e+003, 2.434387e-003
1.716335e+003, 2.493327e-003
1.718264e+003, 2.285600e-003
1.720192e+003, 2.150165e-003
1.722121e+003, 1.625888e-003
1.724049e+003, 1.072141e-003
1.725978e+003, 1.282407e-003
1.727906e+003, 1.274033e-003
1.729835e+003, 1.027239e-003
1.731763e+003, 8.214459e-004
1.733692e+003, 7.311600e-004
1.735620e+003, 8.288598e-004
1.737548e+003, 7.057596e-004
1.739477e+003, 7.689020e-005
1.741405e+003, -1.411782e-004
1.743334e+003, 3.860754e-004
1.745262e+003, 3.107713e-004
1.747191e+003, 2.939720e-004
1.749119e+003, 6.207820e-004
1.751048e+003, 5.763498e-004
1.752976e+003, 4.119793e-004
1.754905e+003, 5.708110e-004
1.756833e+003, 6.586504e-004
1.758762e+003, 7.636077e-004
1.760690e+003, 1.067820e-003
1.762619e+003, 1.146894e-003
1.764547e+003, 1.073555e-003
1.766475e+003, 1.248417e-003
1.768404e+003, 1.511346e-003
1.770332e+003, 1.327409e-003
1.772261e+003, 7.821067e-004
1.774189e+003, 9.190213e-004
1.776118e+003, 7.478746e-004
1.778046e+003, 4.840112e-004
1.779975e+003, 1.123458e-003
1.781903e+003, 1.356903e-003
1.783832e+003, 1.087773e-003
1.785760e+003, 1.055235e-003
1.787689e+003, 8.591810e-004
1.789617e+003, 9.847207e-004
1.791546e+003, 9.144614e-004
1.793474e+003, 6.621575e-004
1.795402e+003, 8.780155e-004
1.797331e+003, 1.315856e-003
1.799259e+003, 1.095868e-003
1.801188e+003, 1.061842e-003
1.803116e+003, 1.466906e-003
1.805045e+003, 1.233202e-003
1.806973e+003, 1.041511e-003
1.808902e+003, 1.069090e-003
1.810830e+003, 8.760095e-004
1.812759e+003, 6.464340e-004
1.814687e+003, 3.820251e-004
1.816616e+003, 1.802349e-004
1.818544e+003, 3.068817e-004
1.820473e+003, 3.536727e-004
1.822401e+003, 3.821991e-004
1.824329e+003, 5.494155e-004
1.826258e+003, 6.033456e-004
1.828186e+003, 5.965263e-004
1.830115e+003, -2.060250e-004
1.832043e+003, -6.542914e-004
1.833972e+003, -2.872541e-004
1.835900e+003, 1.709364e-005
1.837829e+003, 1.690007e-004
1.839757e+003, -3.394063e-004
1.841686e+003, -3.670881e-004
1.843614e+003, -1.207587e-004
1.845543e+003, -4.622851e-004
1.847471e+003, -5.840766e-004
1.849400e+003, -7.648763e-004
1.851328e+003, -1.821836e-005
1.853256e+003, 8.867497e-005
1.855185e+003, -9.907136e-004
1.857113e+003, -7.222049e-004
1.859042e+003, -5.553574e-004
1.860970e+003, -9.275959e-004
1.862899e+003, -8.348984e-004
1.864827e+003, -9.527241e-004
1.866756e+003, -8.767890e-004
1.868684e+003, -5.757482e-004
1.870613e+003, -2.415039e-004
1.872541e+003, -9.108665e-004
1.874470e+003, -1.439463e-003
1.876398e+003, -1.348527e-003
1.878327e+003, -9.457582e-004
1.880255e+003, -9.692556e-004
1.882183e+003, -1.688142e-003
1.884112e+003, -1.790417e-003
1.886040e+003, -8.881565e-004
1.887969e+003, -1.065762e-003
1.889897e+003, -1.600507e-003
1.891826e+003, -1.455920e-003
1.893754e+003, -1.545655e-003
1.895683e+003, -9.592654e-004
1.897611e+003, -2.929947e-005
1.899540e+003, 1.287212e-004
1.901468e+003, -1.016374e-003
1.903397e+003, -1.762048e-003
1.905325e+003, -1.633294e-003
1.907254e+003, -1.291457e-003
1.909182e+003, -1.617280e-003
1.911110e+003, -1.746757e-003
1.913039e+003, -5.555255e-004
1.914967e+003, -1.026568e-003
1.916896e+003, -1.675477e-003
1.918824e+003, -1.110674e-003
1.920753e+003, -1.613743e-003
1.922681e+003, -2.442170e-003
1.924610e+003, -2.037138e-003
1.926538e+003, -1.352570e-003
1.928467e+003, -1.317432e-003
1.930395e+003, -1.984048e-003
1.932324e+003, -2.746620e-003
1.934252e+003, -3.711995e-003
1.936181e+003, -3.831421e-003
1.938109e+003, -3.721187e-003
1.940037e+003, -3.436018e-003
1.941966e+003, -3.405853e-003
1.943894e+003, -4.088241e-003
1.945823e+003, -4.995786e-003
1.947751e+003, -4.827369e-003
1.949680e+003, -4.763993e-003
1.951608e+003, -4.556161e-003
1.953537e+003, -3.450515e-003
1.955465e+003, -3.158002e-003
1.957394e+003, -3.921947e-003
1.959322e+003, -4.828610e-003
1.961251e+003, -5.118469e-003
1.963179e+003, -4.724725e-003
1.965108e+003, -4.484956e-003
1.967036e+003, -4.902317e-003
1.968964e+003, -5.280802e-003
1.970893e+003, -5.083327e-003
1.972821e+003, -4.932659e-003
1.974750e+003, -6.505712e-003
1.976678e+003, -6.190969e-003
1.978607e+003, -4.227464e-003
1.980535e+003, -3.340155e-003
1.982464e+003, -3.163253e-003
1.984392e+003, -3.735880e-003
1.986321e+003, -3.126914e-003
1.988249e+003, -2.720848e-003
1.990178e+003, -4.759273e-003
1.992106e+003, -5.990034e-003
1.994035e+003, -4.758705e-003
1.995963e+003, -5.064491e-003
1.997891e+003, -5.868310e-003
1.999820e+003, -6.967007e-003
2.001748e+003, -6.488806e-003
2.003677e+003, -6.254041e-003
2.005605e+003, -6.130536e-003
2.007534e+003, -7.682506e-003
2.009462e+003, -8.523234e-003
2.011391e+003, -5.820974e-003
2.013319e+003, -4.125833e-003
2.015248e+003, -4.643561e-003
2.017176e+003, -6.567872e-003
2.019105e+003, -8.068901e-003
2.021033e+003, -8.544990e-003
2.022962e+003, -9.313856e-003
2.024890e+003, -1.000929e-002
2.026818e+003, -9.272671e-003
2.028747e+003, -6.713556e-003
2.030675e+003, -4.819515e-003
2.032604e+003, -7.482058e-003
2.034532e+003, -8.140439e-003
2.036461e+003, -6.381156e-003
2.038389e+003, -6.143488e-003
2.040318e+003, -6.046173e-003
2.042246e+003, -7.043386e-003
2.044175e+003, -7.638749e-003
2.046103e+003, -5.301436e-003
2.048032e+003, -3.410521e-003
2.049960e+003, -1.779852e-003
2.051889e+003, -6.084830e-004
2.053817e+003, -5.967459e-004
2.055746e+003, -6.248741e-004
2.057674e+003, -2.150573e-003
2.059603e+003, -2.768831e-003
2.061531e+003, -2.236099e-003
2.063459e+003, -1.364871e-003
2.065388e+003, -1.304579e-003
2.067316e+003, -4.230843e-004
2.069245e+003, -2.883274e-004
2.071173e+003, -1.104823e-003
2.073102e+003, -9.729521e-004
2.075030e+003, -1.145129e-003
2.076959e+003, -1.091688e-003
2.078887e+003, -1.414003e-003
2.080816e+003, -2.015795e-003
2.082744e+003, -2.198736e-003
2.084673e+003, -1.302689e-003
2.086601e+003, -4.508028e-004
2.088530e+003, -9.006936e-004
2.090458e+003, -2.205912e-003
2.092386e+003, -2.011578e-003
2.094315e+003, -8.329604e-004
2.096243e+003, 1.234741e-003
2.098172e+003, 2.424567e-003
2.100100e+003, 1.290110e-003
2.102029e+003, -4.195370e-004
2.103957e+003, -9.187683e-004
2.105886e+003, -1.326535e-003
2.107814e+003, -1.301249e-003
2.109743e+003, -4.578986e-004
2.111671e+003, 8.023964e-004
2.113600e+003, 1.690800e-003
2.115528e+003, 1.315381e-003
2.117457e+003, 1.348572e-004
2.119385e+003, -1.901464e-004
2.121313e+003, -5.428125e-004
2.123242e+003, -1.516798e-003
2.125170e+003, -1.789704e-003
2.127099e+003, -1.724500e-003
2.129027e+003, -2.326199e-003
2.130956e+003, -3.678516e-003
2.132884e+003, -4.574461e-003
2.134813e+003, -4.193785e-003
2.136741e+003, -3.359195e-003
2.138670e+003, -3.794875e-003
2.140598e+003, -5.073135e-003
2.142527e+003, -5.238316e-003
2.144455e+003, -3.600183e-003
2.146384e+003, -2.512990e-003
2.148312e+003, -3.466109e-003
2.150240e+003, -2.863690e-003
2.152169e+003, -2.966740e-004
2.154097e+003, -1.042121e-003
2.156026e+003, -5.779877e-003
2.157954e+003, -6.554755e-003
2.159883e+003, -2.071969e-003
2.161811e+003, 1.169149e-003
2.163740e+003, -1.045232e-004
2.165668e+003, 4.572053e-004
2.167597e+003, 3.159227e-004
2.169525e+003, 7.997021e-004
2.171454e+003, 1.793451e-003
2.173382e+003, -5.552004e-004
2.175311e+003, -2.340604e-003
2.177239e+003, -5.414775e-004
2.179167e+003, 1.593091e-003
2.181096e+003, 8.860650e-004
2.183024e+003, 2.342121e-003
2.184953e+003, 2.855622e-003
2.186881e+003, 3.049160e-003
2.188810e+003, 3.587713e-003
2.190738e+003, 1.576974e-003
2.192667e+003, 6.749601e-005
2.194595e+003, 9.401700e-004
2.196524e+003, 1.344023e-003
2.198452e+003, 2.629776e-003
2.200381e+003, 1.691127e-003
2.202309e+003, 7.710346e-004
2.204238e+003, 1.232753e-003
2.206166e+003, 1.133927e-003
2.208094e+003, 1.220625e-003
2.210023e+003, 1.085985e-003
2.211951e+003, 1.685705e-005
2.213880e+003, -1.876051e-003
2.215808e+003, -1.862590e-003
2.217737e+003, -1.451656e-003
2.219665e+003, -9.550426e-004
2.221594e+003, -6.109468e-005
2.223522e+003, 2.505250e-004
2.225451e+003, 5.825596e-004
2.227379e+003, 8.775356e-004
2.229308e+003, 1.176735e-003
2.231236e+003, 4.220096e-004
2.233165e+003, 9.956530e-004
2.235093e+003, 1.363692e-003
2.237021e+003, -3.461415e-005
2.238950e+003, -5.103826e-005
2.240878e+003, 7.348262e-004
2.242807e+003, -1.368754e-004
2.244735e+003, -4.317382e-004
2.246664e+003, 2.196397e-003
2.248592e+003, 3.264371e-003
2.250521e+003, 1.146945e-003
2.252449e+003, -2.896068e-004
2.254378e+003, 1.924208e-003
2.256306e+003, 2.577467e-003
2.258235e+003, 9.745486e-004
2.260163e+003, 1.867919e-003
2.262092e+003, 2.629016e-003
2.264020e+003, 2.096609e-003
2.265948e+003, 2.357707e-003
2.267877e+003, 2.688860e-003
2.269805e+003, 2.522235e-003
2.271734e+003, 3.112120e-003
2.273662e+003, 3.172048e-003
2.275591e+003, 2.822763e-003
2.277519e+003, 2.863223e-003
2.279448e+003, 3.106474e-003
2.281376e+003, 3.950855e-003
2.283305e+003, 4.296898e-003
2.285233e+003, 3.772440e-003
2.287162e+003, 3.757138e-003
2.289090e+003, 2.978639e-003
2.291019e+003, 2.884076e-003
2.292947e+003, 3.925204e-003
2.294875e+003, 3.873467e-003
2.296804e+003, 4.579302e-003
2.298732e+003, 4.290743e-003
2.300661e+003, 3.720854e-003
2.302589e+003, 4.945691e-003
2.304518e+003, 5.158348e-003
2.306446e+003, 4.302916e-003
2.308375e+003, 4.180008e-003
2.310303e+003, 2.988890e-003
2.312232e+003, 3.157224e-003
2.314160e+003, 3.897396e-003
2.316089e+003, 3.937700e-003
2.318017e+003, 4.309692e-003
2.319946e+003, 5.239782e-003
2.321874e+003, 6.296355e-003
2.323802e+003, 6.948201e-003
2.325731e+003, 6.829592e-003
2.327659e+003, 5.415217e-003
2.329588e+003, 4.654824e-003
2.331516e+003, 5.165978e-003
2.333445e+003, 4.935278e-003
2.335373e+003, 4.647650e-003
2.337302e+003, 4.210224e-003
2.339230e+003, 3.880795e-003
2.341159e+003, 3.781680e-003
2.343087e+003, 3.879868e-003
2.345016e+003, 3.476702e-003
2.346944e+003, 2.114255e-003
2.348873e+003, 1.328059e-003
2.350801e+003, 1.569708e-003
2.352729e+003, 2.261650e-003
2.354658e+003, 3.102459e-003
2.356586e+003, 3.378923e-003
2.358515e+003, 4.055335e-003
2.360443e+003, 4.418263e-003
2.362372e+003, 4.426039e-003
2.364300e+003, 3.848155e-003
2.366229e+003, 2.714906e-003
2.368157e+003, 2.447695e-003
2.370086e+003, 2.626897e-003
2.372014e+003, 2.170469e-003
2.373942e+003, 2.048093e-003
2.375871e+003, 1.345846e-003
2.377799e+003, 2.226735e-004
2.379728e+003, 9.763875e-004
2.381656e+003, 8.057090e-004
2.383585e+003, -5.092815e-004
2.385513e+003, -1.096755e-003
2.387442e+003, -1.364622e-003
2.389370e+003, -4.157940e-004
2.391299e+003, 3.695310e-004
2.393227e+003, -1.581860e-004
2.395156e+003, -5.320599e-004
2.397084e+003, -7.806940e-004
2.399012e+003, -1.036974e-003
2.400941e+003, -1.484751e-003
2.402869e+003, -1.972630e-003
2.404798e+003, -1.555005e-003
2.406726e+003, -9.379333e-004
2.408655e+003, -1.063944e-003
2.410583e+003, -1.044289e-003
2.412512e+003, -1.058381e-003
2.414440e+003, -1.052354e-003
2.416369e+003, -3.637480e-004
2.418297e+003, -2.156022e-004
2.420226e+003, -7.270886e-004
2.422154e+003, -9.588599e-004
2.424083e+003, -1.202582e-003
2.426011e+003, -9.483401e-004
2.427939e+003, -1.191359e-004
2.429868e+003, 5.374695e-004
2.431796e+003, 6.006175e-004
2.433725e+003, 4.198907e-004
2.435653e+003, -4.511951e-004
2.437582e+003, -6.528801e-004
2.439510e+003, 8.705838e-005
2.441439e+003, 4.804618e-004
2.443367e+003, 9.063950e-004
2.445296e+003, 9.220763e-005
2.447224e+003, 7.938657e-005
2.449153e+003, -2.887748e-004
2.451081e+003, -7.717426e-004
2.453010e+003, 2.202052e-004
2.454938e+003, 9.511496e-004
2.456866e+003, 1.157324e-003
2.458795e+003, 1.349504e-003
2.460723e+003, 4.795258e-004
2.462652e+003, 4.082291e-004
2.464580e+003, 8.607315e-004
2.466509e+003, 2.093192e-004
2.468437e+003, 4.461717e-004
2.470366e+003, 4.714962e-004
2.472294e+003, 7.484097e-004
2.474223e+003, 1.253646e-003
2.476151e+003, 1.910470e-003
2.478080e+003, 1.848048e-003
2.480008e+003, 6.326690e-004
2.481937e+003, -2.763617e-004
2.483865e+003, 3.388020e-004
2.485793e+003, 4.858121e-004
2.487722e+003, 3.058132e-005
2.489650e+003, 2.904115e-004
2.491579e+003, 9.069282e-004
2.493507e+003, 1.492732e-003
2.495436e+003, 6.435541e-004
2.497364e+003, 2.824549e-004
2.499293e+003, 9.404854e-004
2.501221e+003, 1.092020e-003
2.503150e+003, 7.708638e-004
2.505078e+003, 1.482038e-003
2.507007e+003, 1.212876e-003
2.508935e+003, 1.194335e-003
2.510864e+003, 2.321865e-003
2.512792e+003, 1.318286e-003
2.514720e+003, 7.054724e-004
2.516649e+003, 1.567460e-003
2.518577e+003, 2.555237e-003
2.520506e+003, 2.199308e-003
2.522434e+003, 1.884391e-003
2.524363e+003, 2.778771e-003
2.526291e+003, 3.282423e-003
2.528220e+003, 2.598522e-003
2.530148e+003, 2.173282e-003
2.532077e+003, 2.444901e-003
2.534005e+003, 2.700669e-003
2.535934e+003, 3.017208e-003
2.537862e+003, 2.771375e-003
2.539791e+003, 3.489976e-003
2.541719e+003, 3.779572e-003
2.543647e+003, 3.302861e-003
2.545576e+003, 3.620451e-003
2.547504e+003, 3.825104e-003
2.549433e+003, 3.062492e-003
2.551361e+003, 2.096045e-003
2.553290e+003, 1.452108e-003
2.555218e+003, 2.472337e-003
2.557147e+003, 3.253170e-003
2.559075e+003, 3.280116e-003
2.561004e+003, 2.180229e-003
2.562932e+003, 3.236087e-003
2.564861e+003, 4.443667e-003
2.566789e+003, 4.458023e-003
2.568718e+003, 4.137809e-003
2.570646e+003, 4.842515e-003
2.572574e+003, 4.952053e-003
2.574503e+003, 4.803432e-003
2.576431e+003, 5.211258e-003
2.578360e+003, 4.323995e-003
2.580288e+003, 3.590138e-003
2.582217e+003, 4.745303e-003
2.584145e+003, 5.497177e-003
2.586074e+003, 4.952735e-003
2.588002e+003, 3.906994e-003
2.589931e+003, 3.705060e-003
2.591859e+003, 4.928363e-003
2.593788e+003, 5.458358e-003
2.595716e+003, 5.033661e-003
2.597645e+003, 5.161384e-003
2.599573e+003, 5.461618e-003
2.601501e+003, 4.529130e-003
2.603430e+003, 5.241429e-003
2.605358e+003, 6.303790e-003
2.607287e+003, 5.914123e-003
2.609215e+003, 4.708362e-003
2.611144e+003, 4.353874e-003
2.613072e+003, 5.141766e-003
2.615001e+003, 6.257244e-003
2.616929e+003, 6.452033e-003
2.618858e+003, 5.971947e-003
2.620786e+003, 5.773316e-003
2.622715e+003, 5.592324e-003
2.624643e+003, 5.939506e-003
2.626572e+003, 6.244940e-003
2.628500e+003, 5.987106e-003
2.630428e+003, 5.610787e-003
2.632357e+003, 5.147382e-003
2.634285e+003, 5.705064e-003
2.636214e+003, 6.293952e-003
2.638142e+003, 5.972866e-003
2.640071e+003, 5.510576e-003
2.641999e+003, 5.866679e-003
2.643928e+003, 6.274403e-003
2.645856e+003, 6.906590e-003
2.647785e+003, 7.599999e-003
2.649713e+003, 7.484552e-003
2.651642e+003, 6.037344e-003
2.653570e+003, 5.984816e-003
2.655499e+003, 5.676906e-003
2.657427e+003, 5.293526e-003
2.659355e+003, 6.038343e-003
2.661284e+003, 6.568396e-003
2.663212e+003, 6.146277e-003
2.665141e+003, 5.003760e-003
2.667069e+003, 5.238341e-003
2.668998e+003, 6.022989e-003
2.670926e+003, 5.580405e-003
2.672855e+003, 4.824178e-003
2.674783e+003, 5.437349e-003
2.676712e+003, 6.586494e-003
2.678640e+003, 6.518049e-003
2.680569e+003, 5.584130e-003
2.682497e+003, 5.283463e-003
2.684426e+003, 5.579563e-003
2.686354e+003, 5.781780e-003
2.688282e+003, 5.423177e-003
2.690211e+003, 4.738522e-003
2.692139e+003, 4.726961e-003
2.694068e+003, 4.876180e-003
2.695996e+003, 4.912681e-003
2.697925e+003, 4.937111e-003
2.699853e+003, 5.151053e-003
2.701782e+003, 5.028138e-003
2.703710e+003, 4.482772e-003
2.705639e+003, 5.585371e-003
2.707567e+003, 5.878557e-003
2.709496e+003, 5.211019e-003
2.711424e+003, 5.047797e-003
2.713353e+003, 5.652967e-003
2.715281e+003, 5.049828e-003
2.717209e+003, 4.257096e-003
2.719138e+003, 4.475340e-003
2.721066e+003, 5.017216e-003
2.722995e+003, 5.351898e-003
2.724923e+003, 5.793838e-003
2.726852e+003, 6.198866e-003
2.728780e+003, 6.238607e-003
2.730709e+003, 5.613579e-003
2.732637e+003, 5.499830e-003
2.734566e+003, 5.958939e-003
2.736494e+003, 5.360852e-003
2.738423e+003, 5.287615e-003
2.740351e+003, 6.089181e-003
2.742280e+003, 6.322175e-003
2.744208e+003, 7.049258e-003
2.746136e+003, 6.715324e-003
2.748065e+003, 5.454316e-003
2.749993e+003, 5.208186e-003
2.751922e+003, 5.954240e-003
2.753850e+003, 6.383434e-003
2.755779e+003, 6.592083e-003
2.757707e+003, 5.902753e-003
2.759636e+003, 4.948946e-003
2.761564e+003, 5.092255e-003
2.763493e+003, 6.015073e-003
2.765421e+003, 6.192319e-003
2.767350e+003, 6.368082e-003
2.769278e+003, 5.949097e-003
2.771207e+003, 5.997718e-003
2.773135e+003, 6.196385e-003
2.775063e+003, 6.096814e-003
2.776992e+003, 5.475774e-003
2.778920e+003, 5.606395e-003
2.780849e+003, 5.786366e-003
2.782777e+003, 5.133223e-003
2.784706e+003, 5.244643e-003
2.786634e+003, 6.225435e-003
2.788563e+003, 6.859492e-003
2.790491e+003, 6.498021e-003
2.792420e+003, 5.810349e-003
2.794348e+003, 6.324103e-003
2.796277e+003, 6.799175e-003
2.798205e+003, 6.196208e-003
2.800134e+003, 5.592427e-003
2.802062e+003, 5.428588e-003
2.803990e+003, 5.946456e-003
2.805919e+003, 6.665094e-003
2.807847e+003, 7.087427e-003
2.809776e+003, 6.574003e-003
2.811704e+003, 6.140703e-003
2.813633e+003, 6.779690e-003
2.815561e+003, 6.885187e-003
2.817490e+003, 6.739325e-003
2.819418e+003, 7.375906e-003
2.821347e+003, 8.062891e-003
2.823275e+003, 7.534795e-003
2.825204e+003, 7.534856e-003
2.827132e+003, 7.318058e-003
2.829061e+003, 6.461933e-003
2.830989e+003, 6.446159e-003
2.832917e+003, 6.460646e-003
2.834846e+003, 7.214625e-003
2.836774e+003, 7.650267e-003
2.838703e+003, 7.659821e-003
2.840631e+003, 7.017674e-003
2.842560e+003, 6.887182e-003
2.844488e+003, 6.864748e-003
2.846417e+003, 6.870351e-003
2.848345e+003, 6.715483e-003
2.850274e+003, 6.539818e-003
2.852202e+003, 6.588421e-003
2.854131e+003, 7.187226e-003
2.856059e+003, 6.678200e-003
2.857988e+003, 6.452328e-003
2.859916e+003, 6.355906e-003
2.861844e+003, 7.236314e-003
2.863773e+003, 8.264850e-003
2.865701e+003, 7.598345e-003
2.867630e+003, 6.715192e-003
2.869558e+003, 7.277336e-003
2.871487e+003, 7.773654e-003
2.873415e+003, 7.372257e-003
2.875344e+003, 6.680765e-003
2.877272e+003, 6.475070e-003
2.879201e+003, 5.986223e-003
2.881129e+003, 6.464271e-003
2.883058e+003, 7.706743e-003
2.884986e+003, 6.916922e-003
2.886915e+003, 6.050991e-003
2.888843e+003, 5.515568e-003
2.890771e+003, 5.976596e-003
2.892700e+003, 7.838123e-003
2.894628e+003, 7.831573e-003
2.896557e+003, 7.065205e-003
2.898485e+003, 7.744310e-003
2.900414e+003, 8.082624e-003
2.902342e+003, 6.867834e-003
2.904271e+003, 6.856530e-003
2.906199e+003, 7.631803e-003
2.908128e+003, 7.663915e-003
2.910056e+003, 8.429290e-003
2.911985e+003, 8.407388e-003
2.913913e+003, 7.538417e-003
2.915842e+003, 8.637664e-003
2.917770e+003, 9.196677e-003
2.919698e+003, 7.894924e-003
2.921627e+003, 7.927706e-003
2.923555e+003, 9.725625e-003
2.925484e+003, 8.940406e-003
2.927412e+003, 8.404867e-003
2.929341e+003, 8.491501e-003
2.931269e+003, 7.778548e-003
2.933198e+003, 7.611577e-003
2.935126e+003, 7.942024e-003
2.937055e+003, 8.251726e-003
2.938983e+003, 7.724264e-003
2.940912e+003, 6.909820e-003
2.942840e+003, 6.100608e-003
2.944769e+003, 6.544288e-003
2.946697e+003, 6.498034e-003
2.948625e+003, 6.107398e-003
2.950554e+003, 6.547515e-003
2.952482e+003, 8.154768e-003
2.954411e+003, 8.815198e-003
2.956339e+003, 7.562547e-003
2.958268e+003, 6.884177e-003
2.960196e+003, 7.110162e-003
2.962125e+003, 6.630804e-003
2.964053e+003, 6.409667e-003
2.965982e+003, 7.310645e-003
2.967910e+003, 7.440313e-003
2.969839e+003, 6.794864e-003
2.971767e+003, 6.618243e-003
2.973696e+003, 7.422906e-003
2.975624e+003, 7.171905e-003
2.977552e+003, 6.385021e-003
2.979481e+003, 6.979100e-003
2.981409e+003, 8.574416e-003
2.983338e+003, 8.784067e-003
2.985266e+003, 8.782474e-003
2.987195e+003, 9.020355e-003
2.989123e+003, 8.763508e-003
2.991052e+003, 8.621601e-003
2.992980e+003, 8.903119e-003
2.994909e+003, 8.422059e-003
2.996837e+003, 7.385200e-003
2.998766e+003, 8.044236e-003
3.000694e+003, 8.729166e-003
3.002623e+003, 7.905033e-003
3.004551e+003, 8.487351e-003
3.006479e+003, 8.870156e-003
3.008408e+003, 8.155158e-003
3.010336e+003, 7.822586e-003
3.012265e+003, 7.506534e-003
3.014193e+003, 7.351438e-003
3.016122e+003, 7.788962e-003
3.018050e+003, 8.936615e-003
3.019979e+003, 9.072196e-003
3.021907e+003, 8.407385e-003
3.023836e+003, 9.175289e-003
3.025764e+003, 9.613619e-003
3.027693e+003, 9.490703e-003
3.029621e+003, 9.271695e-003
3.031550e+003, 7.684921e-003
3.033478e+003, 6.250833e-003
3.035406e+003, 7.518077e-003
3.037335e+003, 8.932009e-003
3.039263e+003, 7.804962e-003
3.041192e+003, 7.212505e-003
3.043120e+003, 8.871771e-003
3.045049e+003, 9.732113e-003
3.046977e+003, 9.671662e-003
3.048906e+003, 9.260517e-003
3.050834e+003, 8.088916e-003
3.052763e+003, 8.115197e-003
3.054691e+003, 9.853782e-003
3.056620e+003, 1.068234e-002
3.058548e+003, 9.630807e-003
3.060477e+003, 8.203962e-003
3.062405e+003, 7.959627e-003
3.064333e+003, 8.156988e-003
3.066262e+003, 8.358710e-003
3.068190e+003, 8.879872e-003
3.070119e+003, 9.338059e-003
3.072047e+003, 8.852506e-003
3.073976e+003, 8.769480e-003
3.075904e+003, 8.285413e-003
3.077833e+003, 7.544290e-003
3.079761e+003, 7.290124e-003
3.081690e+003, 8.648215e-003
3.083618e+003, 1.083242e-002
3.085547e+003, 1.243015e-002
3.087475e+003, 1.202724e-002
3.089404e+003, 1.054484e-002
3.091332e+003, 8.449624e-003
3.093260e+003, 6.950317e-003
3.095189e+003, 7.509895e-003
3.097117e+003, 7.113927e-003
3.099046e+003, 6.832341e-003
3.100974e+003, 8.457472e-003
3.102903e+003, 8.399623e-003
3.104831e+003, 8.321410e-003
3.106760e+003, 8.433681e-003
3.108688e+003, 9.467509e-003
3.110617e+003, 9.309399e-003
3.112545e+003, 9.611887e-003
3.114474e+003, 1.090638e-002
3.116402e+003, 1.158117e-002
3.118331e+003, 1.050372e-002
3.120259e+003, 1.044708e-002
3.122188e+003, 9.128214e-003
3.124116e+003, 7.249413e-003
3.126044e+003, 7.464774e-003
3.127973e+003, 8.046637e-003
3.129901e+003, 7.490981e-003
3.131830e+003, 7.677062e-003
3.133758e+003, 9.621867e-003
3.135687e+003, 1.089708e-002
3.137615e+003, 1.199998e-002
3.139544e+003, 1.240579e-002
3.141472e+003, 1.251299e-002
3.143401e+003, 1.240905e-002
3.145329e+003, 1.062019e-002
3.147258e+003, 1.132313e-002
3.149186e+003, 1.120088e-002
3.151115e+003, 1.043203e-002
3.153043e+003, 9.778721e-003
3.154971e+003, 1.030702e-002
3.156900e+003, 1.108763e-002
3.158828e+003, 1.129891e-002
3.160757e+003, 1.153381e-002
3.162685e+003, 1.177303e-002
3.164614e+003, 1.172702e-002
3.166542e+003, 1.184443e-002
3.168471e+003, 1.126873e-002
3.170399e+003, 9.173566e-003
3.172328e+003, 9.267927e-003
3.174256e+003, 1.059523e-002
3.176185e+003, 1.139007e-002
3.178113e+003, 1.101342e-002
3.180042e+003, 1.064597e-002
3.181970e+003, 1.052897e-002
3.183898e+003, 1.023657e-002
3.185827e+003, 1.078204e-002
3.187755e+003, 1.046286e-002
3.189684e+003, 1.037346e-002
3.191612e+003, 1.216361e-002
3.193541e+003, 1.410807e-002
3.195469e+003, 1.300154e-002
3.197398e+003, 1.045224e-002
3.199326e+003, 9.460894e-003
3.201255e+003, 9.886899e-003
3.203183e+003, 9.772287e-003
3.205112e+003, 1.125364e-002
3.207040e+003, 1.246148e-002
3.208969e+003, 1.209740e-002
3.210897e+003, 1.197954e-002
3.212825e+003, 1.129951e-002
3.214754e+003, 1.176167e-002
3.216682e+003, 1.220400e-002
3.218611e+003, 1.206125e-002
3.220539e+003, 1.196299e-002
3.222468e+003, 1.135764e-002
3.224396e+003, 1.133697e-002
3.226325e+003, 1.136940e-002
3.228253e+003, 1.061454e-002
3.230182e+003, 1.013600e-002
3.232110e+003, 1.077053e-002
3.234039e+003, 1.123941e-002
3.235967e+003, 1.135150e-002
3.237896e+003, 1.145906e-002
3.239824e+003, 1.193881e-002
3.241752e+003, 1.254022e-002
3.243681e+003, 1.150988e-002
3.245609e+003, 1.099824e-002
3.247538e+003, 1.004718e-002
3.249466e+003, 1.024152e-002
3.251395e+003, 1.053617e-002
3.253323e+003, 1.032425e-002
3.255252e+003, 1.056128e-002
3.257180e+003, 9.778351e-003
3.259109e+003, 1.191535e-002
3.261037e+003, 1.164838e-002
3.262966e+003, 1.052825e-002
3.264894e+003, 1.178847e-002
3.266823e+003, 1.336856e-002
3.268751e+003, 1.291963e-002
3.270679e+003, 1.210399e-002
3.272608e+003, 1.107606e-002
3.274536e+003, 1.055181e-002
3.276465e+003, 1.223424e-002
3.278393e+003, 1.132414e-002
3.280322e+003, 9.984965e-003
3.282250e+003, 9.668995e-003
3.284179e+003, 1.081048e-002
3.286107e+003, 1.209806e-002
3.288036e+003, 1.096392e-002
3.289964e+003, 9.697645e-003
3.291893e+003, 1.014376e-002
3.293821e+003, 1.067508e-002
3.295750e+003, 1.219457e-002
3.297678e+003, 1.404831e-002
3.299606e+003, 1.255302e-002
3.301535e+003, 1.149913e-002
3.303463e+003, 1.329720e-002
3.305392e+003, 1.312115e-002
3.307320e+003, 1.322004e-002
3.309249e+003, 1.363937e-002
3.311177e+003, 1.322339e-002
3.313106e+003, 1.392769e-002
3.315034e+003, 1.418980e-002
3.316963e+003, 1.424057e-002
3.318891e+003, 1.501815e-002
3.320820e+003, 1.483665e-002
3.322748e+003, 1.403671e-002
3.324677e+003, 1.391816e-002
3.326605e+003, 1.163145e-002
3.328533e+003, 9.815108e-003
3.330462e+003, 1.111106e-002
3.332390e+003, 1.189735e-002
3.334319e+003, 1.221917e-002
3.336247e+003, 1.227273e-002
3.338176e+003, 1.215969e-002
3.340104e+003, 1.149268e-002
3.342033e+003, 1.165257e-002
3.343961e+003, 1.227876e-002
3.345890e+003, 1.239865e-002
3.347818e+003, 1.310151e-002
3.349747e+003, 1.260931e-002
3.351675e+003, 1.074992e-002
3.353604e+003, 1.173660e-002
3.355532e+003, 1.187427e-002
3.357460e+003, 1.032317e-002
3.359389e+003, 1.083028e-002
3.361317e+003, 1.242471e-002
3.363246e+003, 1.116474e-002
3.365174e+003, 1.171595e-002
3.367103e+003, 1.176416e-002
3.369031e+003, 1.122747e-002
3.370960e+003, 1.296048e-002
3.372888e+003, 1.194425e-002
3.374817e+003, 1.196179e-002
3.376745e+003, 1.314235e-002
3.378674e+003, 1.238319e-002
3.380602e+003, 1.148187e-002
3.382531e+003, 1.035262e-002
3.384459e+003, 9.271489e-003
3.386387e+003, 1.048150e-002
3.388316e+003, 1.060077e-002
3.390244e+003, 1.132658e-002
3.392173e+003, 1.255928e-002
3.394101e+003, 1.202379e-002
3.396030e+003, 1.169917e-002
3.397958e+003, 1.075977e-002
3.399887e+003, 1.240890e-002
3.401815e+003, 1.362461e-002
3.403744e+003, 1.501526e-002
3.405672e+003, 1.577326e-002
3.407601e+003, 1.282332e-002
3.409529e+003, 9.916896e-003
3.411458e+003, 1.154793e-002
3.413386e+003, 1.263668e-002
3.415314e+003, 1.289801e-002
3.417243e+003, 1.207221e-002
3.419171e+003, 1.007656e-002
3.421100e+003, 1.046804e-002
3.423028e+003, 1.283608e-002
3.424957e+003, 1.422499e-002
3.426885e+003, 1.489874e-002
3.428814e+003, 1.377080e-002
3.430742e+003, 1.265301e-002
3.432671e+003, 1.254462e-002
3.434599e+003, 1.271739e-002
3.436528e+003, 1.238970e-002
3.438456e+003, 1.109402e-002
3.440385e+003, 1.091559e-002
3.442313e+003, 1.150341e-002
3.444241e+003, 1.130539e-002
3.446170e+003, 9.659457e-003
3.448098e+003, 9.437891e-003
3.450027e+003, 1.237001e-002
3.451955e+003, 1.287014e-002
3.453884e+003, 1.244950e-002
3.455812e+003, 1.159018e-002
3.457741e+003, 1.070062e-002
3.459669e+003, 9.241632e-003
3.461598e+003, 1.028347e-002
3.463526e+003, 1.162727e-002
3.465455e+003, 1.166336e-002
3.467383e+003, 1.187724e-002
3.469312e+003, 1.291989e-002
3.471240e+003, 1.230274e-002
3.473168e+003, 1.164143e-002
3.475097e+003, 9.736134e-003
3.477025e+003, 9.126645e-003
3.478954e+003, 9.382224e-003
3.480882e+003, 1.023823e-002
3.482811e+003, 1.141374e-002
3.484739e+003, 1.047383e-002
3.486668e+003, 9.311311e-003
3.488596e+003, 8.400610e-003
3.490525e+003, 9.326265e-003
3.492453e+003, 1.159272e-002
3.494382e+003, 1.303299e-002
3.496310e+003, 1.046428e-002
3.498239e+003, 8.788223e-003
3.500167e+003, 1.081568e-002
3.502095e+003, 1.286351e-002
3.504024e+003, 1.388117e-002
3.505952e+003, 1.295582e-002
3.507881e+003, 1.011146e-002
3.509809e+003, 7.358336e-003
3.511738e+003, 8.357585e-003
3.513666e+003, 1.019271e-002
3.515595e+003, 1.188588e-002
3.517523e+003, 1.219572e-002
3.519452e+003, 9.306055e-003
3.521380e+003, 8.915483e-003
3.523309e+003, 1.038816e-002
3.525237e+003, 8.816222e-003
3.527166e+003, 6.391807e-003
3.529094e+003, 6.893016e-003
3.531022e+003, 8.338192e-003
3.532951e+003, 8.265538e-003
3.534879e+003, 8.711232e-003
3.536808e+003, 9.376472e-003
3.538736e+003, 9.545690e-003
3.540665e+003, 7.826242e-003
3.542593e+003, 7.216899e-003
3.544522e+003, 1.016494e-002
3.546450e+003, 9.368340e-003
3.548379e+003, 6.632859e-003
3.550307e+003, 7.040095e-003
3.552236e+003, 1.007747e-002
3.554164e+003, 9.775611e-003
3.556093e+003, 1.020251e-002
3.558021e+003, 1.090505e-002
3.559949e+003, 1.007419e-002
3.561878e+003, 1.083748e-002
3.563806e+003, 9.582305e-003
3.565735e+003, 6.864777e-003
3.567663e+003, 9.381681e-003
3.569592e+003, 1.232307e-002
3.571520e+003, 1.172079e-002
3.573449e+003, 9.165696e-003
3.575377e+003, 7.382597e-003
3.577306e+003, 8.964084e-003
3.579234e+003, 8.566039e-003
3.581163e+003, 6.392908e-003
3.583091e+003, 6.765950e-003
3.585020e+003, 8.732062e-003
3.586948e+003, 1.028840e-002
3.588876e+003, 1.003504e-002
3.590805e+003, 9.125720e-003
3.592733e+003, 8.886728e-003
3.594662e+003, 8.256881e-003
3.596590e+003, 8.217585e-003
3.598519e+003, 6.002278e-003
3.600447e+003, 4.413186e-003
3.602376e+003, 4.964584e-003
3.604304e+003, 6.591798e-003
3.606233e+003, 6.186921e-003
3.608161e+003, 6.624064e-003
3.610090e+003, 7.264389e-003
3.612018e+003, 6.070209e-003
3.613947e+003, 4.651541e-003
3.615875e+003, 3.459205e-003
3.617803e+003, 4.804995e-003
3.619732e+003, 7.202339e-003
3.621660e+003, 8.293202e-003
3.623589e+003, 9.069314e-003
3.625517e+003, 7.743483e-003
3.627446e+003, 7.842542e-003
3.629374e+003, 5.875212e-003
3.631303e+003, 3.374244e-003
3.633231e+003, 6.684717e-003
3.635160e+003, 1.080829e-002
3.637088e+003, 1.331183e-002
3.639017e+003, 9.998923e-003
3.640945e+003, 5.671153e-003
3.642874e+003, 4.729693e-003
3.644802e+003, 6.050989e-003
3.646730e+003, 1.039383e-002
3.648659e+003, 1.243068e-002
3.650587e+003, 8.110063e-003
3.652516e+003, 2.873014e-003
3.654444e+003, 5.764730e-003
3.656373e+003, 8.838364e-003
3.658301e+003, 6.332474e-003
3.660230e+003, 3.248722e-003
3.662158e+003, 2.316165e-003
3.664087e+003, -8.650254e-004
3.666015e+003, -1.193602e-003
3.667944e+003, 2.694251e-003
3.669872e+003, 5.497416e-003
3.671801e+003, 5.815675e-003
3.673729e+003, 5.537029e-003
3.675657e+003, 6.623598e-003
3.677586e+003, 4.718543e-003
3.679514e+003, 2.920144e-003
3.681443e+003, 3.020419e-003
3.683371e+003, 2.517815e-003
3.685300e+003, 2.167556e-003
3.687228e+003, 1.573503e-003
3.689157e+003, 9.296351e-004
3.691085e+003, 2.284367e-003
3.693014e+003, 4.728764e-003
3.694942e+003, 8.253394e-003
3.696871e+003, 5.300405e-003
3.698799e+003, 1.830929e-003
3.700728e+003, 2.653726e-003
3.702656e+003, 3.057982e-003
3.704584e+003, 2.468511e-003
3.706513e+003, 1.324947e-003
3.708441e+003, -1.531408e-003
3.710370e+003, -1.723520e-004
3.712298e+003, 4.335299e-003
3.714227e+003, 4.627811e-003
3.716155e+003, 2.279907e-003
3.718084e+003, 4.845753e-003
3.720012e+003, 4.390531e-003
3.721941e+003, 3.807019e-003
3.723869e+003, 5.787067e-003
3.725798e+003, 5.868613e-003
3.727726e+003, 1.669420e-003
3.729655e+003, 2.627927e-003
3.731583e+003, 4.574419e-003
3.733511e+003, 6.374234e-003
3.735440e+003, 8.568053e-003
3.737368e+003, 7.302928e-003
3.739297e+003, 2.987822e-003
3.741225e+003, 1.449761e-003
3.743154e+003, -6.211266e-004
3.745082e+003, -1.936136e-003
3.747011e+003, -5.624061e-005
3.748939e+003, 2.093541e-003
3.750868e+003, 3.444121e-003
3.752796e+003, 4.147214e-003
3.754725e+003, 5.522285e-003
3.756653e+003, 6.097867e-003
3.758582e+003, 5.294675e-003
3.760510e+003, 5.274015e-003
3.762438e+003, 3.527580e-003
3.764367e+003, 2.642641e-003
3.766295e+003, 1.778387e-003
3.768224e+003, 1.400365e-003
3.770152e+003, 4.165517e-003
3.772081e+003, 6.391399e-003
3.774009e+003, 5.621667e-003
3.775938e+003, 3.539108e-003
3.777866e+003, 3.125114e-003
3.779795e+003, 1.471351e-003
3.781723e+003, 1.647066e-003
3.783652e+003, 4.128650e-003
3.785580e+003, 4.698978e-003
3.787509e+003, 6.706578e-003
3.789437e+003, 6.560099e-003
3.791365e+003, 3.115135e-003
3.793294e+003, 3.689779e-003
3.795222e+003, 3.127250e-003
3.797151e+003, 1.807063e-003
3.799079e+003, 2.910745e-003
3.801008e+003, 1.431582e-003
3.802936e+003, -1.659424e-004
3.804865e+003, 1.871063e-003
3.806793e+003, 3.452623e-003
3.808722e+003, 7.389301e-004
3.810650e+003, -1.388826e-004
3.812579e+003, 1.556438e-003
3.814507e+003, 4.308800e-003
3.816436e+003, 5.068047e-003
3.818364e+003, 3.619954e-003
3.820292e+003, 3.347157e-003
3.822221e+003, 4.635618e-003
3.824149e+003, 5.002416e-003
3.826078e+003, 4.723439e-003
3.828006e+003, 4.555256e-003
3.829935e+003, 5.183354e-003
3.831863e+003, 5.400199e-003
3.833792e+003, 3.563926e-003
3.835720e+003, 2.334298e-003
3.837649e+003, 3.179280e-003
3.839577e+003, 7.385974e-003
3.841506e+003, 8.493008e-003
3.843434e+003, 7.484599e-003
3.845363e+003, 4.584341e-003
3.847291e+003, 4.139691e-003
3.849219e+003, 5.172223e-003
3.851148e+003, 7.352607e-003
3.853076e+003, 6.941899e-003
3.855005e+003, 2.928258e-003
3.856933e+003, 3.935294e-004
3.858862e+003, 2.894428e-003
3.860790e+003, 6.589354e-003
3.862719e+003, 6.268236e-003
3.864647e+003, 4.176209e-003
3.866576e+003, 3.693394e-003
3.868504e+003, 2.786233e-003
3.870433e+003, 2.998688e-003
3.872361e+003, 2.756367e-003
3.874290e+003, -9.279938e-004
3.876218e+003, -9.946901e-004
3.878146e+003, 3.468149e-003
3.880075e+003, 8.182527e-003
3.882003e+003, 9.444433e-003
3.883932e+003, 5.200665e-003
3.885860e+003, -5.217603e-004
3.887789e+003, -1.728885e-003
3.889717e+003, 3.425418e-003
3.891646e+003, 4.150317e-003
3.893574e+003, 4.802108e-003
3.895503e+003, 6.371446e-003
3.897431e+003, 7.645141e-003
3.899360e+003, 8.170876e-003
3.901288e+003, 5.981705e-003
3.903217e+003, 5.905105e-003
3.905145e+003, 6.913708e-003
3.907073e+003, 3.100351e-003
3.909002e+003, 3.249553e-003
3.910930e+003, 2.634170e-003
3.912859e+003, 8.871591e-004
3.914787e+003, 2.351761e-003
3.916716e+003, 5.808715e-003
3.918644e+003, 6.830055e-003
3.920573e+003, 4.308661e-003
3.922501e+003, 1.865547e-003
3.924430e+003, -3.998022e-004
3.926358e+003, 1.853966e-003
3.928287e+003, 6.529592e-003
3.930215e+003, 9.706176e-003
3.932144e+003, 8.205272e-003
3.934072e+003, 6.709585e-003
3.936000e+003, 5.541201e-003
3.937929e+003, 3.784698e-003
3.939857e+003, 4.579188e-003
3.941786e+003, 1.481466e-003
3.943714e+003, -7.342147e-004
3.945643e+003, 1.062160e-003
3.947571e+003, 2.766537e-003
3.949500e+003, 3.815229e-003
3.951428e+003, 3.951333e-003
3.953357e+003, 4.932984e-003
3.955285e+003, 6.223641e-003
3.957214e+003, 5.407169e-003
3.959142e+003, 5.129134e-003
3.961071e+003, 3.990969e-003
3.962999e+003, 4.285780e-003
3.964927e+003, 4.578556e-003
3.966856e+003, 5.162198e-003
3.968784e+003, 7.487650e-003
3.970713e+003, 3.659962e-003
3.972641e+003, 1.394014e-004
3.974570e+003, -3.028686e-004
3.976498e+003, 4.216374e-003
3.978427e+003, 4.700018e-003
3.980355e+003, -9.504994e-004
3.982284e+003, 1.771533e-003
3.984212e+003, 3.956462e-003
3.986141e+003, 4.360460e-003
3.988069e+003, 6.168338e-003
3.989998e+003, 7.107208e-003
3.991926e+003, 5.257707e-003
3.993854e+003, 4.233451e-003
3.995783e+003, 5.708782e-003
3.997711e+003, 6.195349e-003
3.999640e+003, 6.198337e-003
4.001568e+003, 0.000000e+000
##END=



