##NAMES=Beryllonite
##RRUFFID=R070249
##IDEAL CHEMISTRY=NaBePO_4_
##LOCALITY=Melrose Farm Beryllonite prospects (McAllister prospects),  Stoneham, Oxford County, Maine, USA
##OWNER=RRUFF
##SOURCE=Michael Scott
##DESCRIPTION=Two colorless single crystal fragments
##STATUS=The identification of this mineral has been confirmed by X-ray diffraction and chemical analysis
##URL=rruff.info/R070249
##MEASURED CHEMISTRY=Na_1.00_Be_1.00_P_1.00_O_4_; Be estimated by difference
3.741225e+002, 1.222749e-002
3.760510e+002, 1.259102e-002
3.779795e+002, 1.040714e-002
3.799079e+002, 9.908305e-003
3.818364e+002, 1.455260e-002
3.837649e+002, 2.040309e-002
3.856933e+002, 1.977157e-002
3.876218e+002, 1.642711e-002
3.895503e+002, 1.642156e-002
3.914787e+002, 2.101714e-002
3.934072e+002, 2.374058e-002
3.953357e+002, 2.406702e-002
3.972641e+002, 2.474771e-002
3.991926e+002, 2.475048e-002
4.011211e+002, 2.527520e-002
4.030495e+002, 2.709440e-002
4.049780e+002, 2.899560e-002
4.069065e+002, 2.981437e-002
4.088349e+002, 3.162593e-002
4.107634e+002, 3.350989e-002
4.126919e+002, 3.370643e-002
4.146203e+002, 3.510096e-002
4.165488e+002, 3.629240e-002
4.184773e+002, 3.880271e-002
4.204057e+002, 4.111458e-002
4.223342e+002, 4.078447e-002
4.242627e+002, 3.889595e-002
4.261911e+002, 3.832942e-002
4.281196e+002, 3.800220e-002
4.300481e+002, 3.789494e-002
4.319765e+002, 3.883931e-002
4.339050e+002, 4.073124e-002
4.358335e+002, 4.257341e-002
4.377619e+002, 4.333526e-002
4.396904e+002, 4.428466e-002
4.416189e+002, 4.567259e-002
4.435473e+002, 4.769016e-002
4.454758e+002, 4.991694e-002
4.474043e+002, 5.260917e-002
4.493327e+002, 5.472507e-002
4.512612e+002, 5.596620e-002
4.531897e+002, 5.760930e-002
4.551181e+002, 6.066336e-002
4.570466e+002, 6.402045e-002
4.589751e+002, 6.652833e-002
4.609035e+002, 6.923889e-002
4.628320e+002, 7.312048e-002
4.647605e+002, 7.533141e-002
4.666889e+002, 7.186556e-002
4.686174e+002, 6.672554e-002
4.705459e+002, 6.613678e-002
4.724743e+002, 6.840687e-002
4.744028e+002, 6.841863e-002
4.763313e+002, 6.831424e-002
4.782597e+002, 7.048933e-002
4.801882e+002, 7.320103e-002
4.821167e+002, 7.423910e-002
4.840451e+002, 7.258995e-002
4.859736e+002, 7.012629e-002
4.879021e+002, 6.917056e-002
4.898305e+002, 7.097103e-002
4.917590e+002, 7.370197e-002
4.936875e+002, 7.659815e-002
4.956159e+002, 7.918816e-002
4.975444e+002, 8.187518e-002
4.994729e+002, 8.465853e-002
5.014013e+002, 8.814363e-002
5.033298e+002, 9.203465e-002
5.052583e+002, 9.484257e-002
5.071867e+002, 9.338137e-002
5.091152e+002, 8.745456e-002
5.110437e+002, 8.322115e-002
5.129721e+002, 8.438398e-002
5.149006e+002, 8.858562e-002
5.168290e+002, 9.131633e-002
5.187575e+002, 8.895086e-002
5.206860e+002, 8.531475e-002
5.226144e+002, 8.523589e-002
5.245429e+002, 8.972315e-002
5.264714e+002, 9.609056e-002
5.283998e+002, 1.023074e-001
5.303283e+002, 1.076312e-001
5.322568e+002, 1.086695e-001
5.341852e+002, 1.048863e-001
5.361137e+002, 1.020304e-001
5.380422e+002, 1.044587e-001
5.399706e+002, 1.108172e-001
5.418991e+002, 1.170889e-001
5.438276e+002, 1.208479e-001
5.457560e+002, 1.198780e-001
5.476845e+002, 1.159850e-001
5.496130e+002, 1.140755e-001
5.515414e+002, 1.153300e-001
5.534699e+002, 1.176034e-001
5.553984e+002, 1.209067e-001
5.573268e+002, 1.252579e-001
5.592553e+002, 1.268906e-001
5.611838e+002, 1.258008e-001
5.631122e+002, 1.234069e-001
5.650407e+002, 1.205065e-001
5.669692e+002, 1.173723e-001
5.688976e+002, 1.147124e-001
5.708261e+002, 1.126223e-001
5.727546e+002, 1.105900e-001
5.746830e+002, 1.071274e-001
5.766115e+002, 1.014535e-001
5.785400e+002, 9.495459e-002
5.804684e+002, 9.078159e-002
5.823969e+002, 9.258873e-002
5.843254e+002, 9.660472e-002
5.862538e+002, 9.516580e-002
5.881823e+002, 8.815657e-002
5.901108e+002, 7.985018e-002
5.920392e+002, 7.165930e-002
5.939677e+002, 6.401587e-002
5.958962e+002, 5.695907e-002
5.978246e+002, 5.006070e-002
5.997531e+002, 4.328204e-002
6.016816e+002, 3.653530e-002
6.036100e+002, 2.986684e-002
6.055385e+002, 2.386462e-002
6.074670e+002, 1.950280e-002
6.093954e+002, 1.674870e-002
6.113239e+002, 1.562637e-002
6.132524e+002, 1.559239e-002
6.151808e+002, 1.601868e-002
6.171093e+002, 1.695593e-002
6.190378e+002, 1.845034e-002
6.209662e+002, 2.030919e-002
6.228947e+002, 2.263058e-002
6.248232e+002, 2.560267e-002
6.267516e+002, 2.923598e-002
6.286801e+002, 3.286410e-002
6.306086e+002, 3.571891e-002
6.325370e+002, 3.818510e-002
6.344655e+002, 3.957290e-002
6.363940e+002, 3.832675e-002
6.383224e+002, 3.428430e-002
6.402509e+002, 2.946826e-002
6.421794e+002, 2.663181e-002
6.441078e+002, 2.659831e-002
6.460363e+002, 2.818309e-002
6.479648e+002, 3.050974e-002
6.498932e+002, 3.314851e-002
6.518217e+002, 3.597612e-002
6.537502e+002, 3.934573e-002
6.556786e+002, 4.322615e-002
6.576071e+002, 4.707188e-002
6.595356e+002, 5.098297e-002
6.614641e+002, 5.530127e-002
6.633925e+002, 6.001206e-002
6.653210e+002, 6.492811e-002
6.672495e+002, 6.980042e-002
6.691779e+002, 7.501720e-002
6.711064e+002, 8.013171e-002
6.730349e+002, 8.541242e-002
6.749633e+002, 9.083230e-002
6.768918e+002, 9.555505e-002
6.788203e+002, 9.909487e-002
6.807487e+002, 1.010725e-001
6.826772e+002, 1.009828e-001
6.846057e+002, 9.930678e-002
6.865341e+002, 9.691700e-002
6.884626e+002, 9.414505e-002
6.903911e+002, 9.114865e-002
6.923195e+002, 8.870170e-002
6.942480e+002, 8.784157e-002
6.961765e+002, 8.754971e-002
6.981049e+002, 8.664247e-002
7.000334e+002, 8.492771e-002
7.019619e+002, 8.289560e-002
7.038903e+002, 8.278310e-002
7.058188e+002, 8.585133e-002
7.077473e+002, 9.077321e-002
7.096757e+002, 9.509677e-002
7.116042e+002, 9.784968e-002
7.135327e+002, 9.897766e-002
7.154611e+002, 9.908380e-002
7.173896e+002, 9.850920e-002
7.193181e+002, 9.742773e-002
7.212465e+002, 9.591776e-002
7.231750e+002, 9.431002e-002
7.251035e+002, 9.273554e-002
7.270319e+002, 9.144506e-002
7.289604e+002, 9.134637e-002
7.308889e+002, 9.240261e-002
7.328173e+002, 9.351232e-002
7.347458e+002, 9.454387e-002
7.366743e+002, 9.538034e-002
7.386027e+002, 9.514616e-002
7.405312e+002, 9.341697e-002
7.424597e+002, 8.986457e-002
7.443881e+002, 8.466276e-002
7.463166e+002, 7.859303e-002
7.482451e+002, 7.296311e-002
7.501735e+002, 6.946033e-002
7.521020e+002, 6.914819e-002
7.540305e+002, 7.193978e-002
7.559589e+002, 7.629473e-002
7.578874e+002, 8.093321e-002
7.598159e+002, 8.563162e-002
7.617443e+002, 8.987907e-002
7.636728e+002, 9.361602e-002
7.656013e+002, 9.655864e-002
7.675297e+002, 9.850750e-002
7.694582e+002, 9.917090e-002
7.713867e+002, 9.817712e-002
7.733151e+002, 9.555206e-002
7.752436e+002, 9.153128e-002
7.771721e+002, 8.658306e-002
7.791005e+002, 8.115198e-002
7.810290e+002, 7.539733e-002
7.829575e+002, 7.013559e-002
7.848859e+002, 6.593125e-002
7.868144e+002, 6.324117e-002
7.887429e+002, 6.152048e-002
7.906713e+002, 5.967636e-002
7.925998e+002, 5.667163e-002
7.945283e+002, 5.250770e-002
7.964567e+002, 4.756742e-002
7.983852e+002, 4.274567e-002
8.003137e+002, 3.886706e-002
8.022421e+002, 3.616079e-002
8.041706e+002, 3.423433e-002
8.060991e+002, 3.222236e-002
8.080275e+002, 2.986138e-002
8.099560e+002, 2.728833e-002
8.118845e+002, 2.435139e-002
8.138129e+002, 2.149553e-002
8.157414e+002, 1.905468e-002
8.176699e+002, 1.708550e-002
8.195983e+002, 1.539213e-002
8.215268e+002, 1.401178e-002
8.234553e+002, 1.290967e-002
8.253837e+002, 1.204997e-002
8.273122e+002, 1.138566e-002
8.292407e+002, 1.082681e-002
8.311691e+002, 1.030147e-002
8.330976e+002, 9.865435e-003
8.350261e+002, 9.609015e-003
8.369545e+002, 9.354613e-003
8.388830e+002, 8.889453e-003
8.408115e+002, 8.609447e-003
8.427399e+002, 8.320953e-003
8.446684e+002, 8.131178e-003
8.465969e+002, 8.143336e-003
8.485253e+002, 8.120271e-003
8.504538e+002, 8.056620e-003
8.523823e+002, 8.087642e-003
8.543107e+002, 8.071738e-003
8.562392e+002, 7.998038e-003
8.581677e+002, 8.023614e-003
8.600961e+002, 7.907476e-003
8.620246e+002, 7.872446e-003
8.639531e+002, 7.974172e-003
8.658815e+002, 8.039067e-003
8.678100e+002, 8.068172e-003
8.697385e+002, 7.995464e-003
8.716669e+002, 8.001899e-003
8.735954e+002, 8.069322e-003
8.755239e+002, 8.293254e-003
8.774523e+002, 8.485109e-003
8.793808e+002, 8.636946e-003
8.813093e+002, 8.698835e-003
8.832377e+002, 8.666744e-003
8.851662e+002, 8.750078e-003
8.870947e+002, 9.068175e-003
8.890231e+002, 9.356814e-003
8.909516e+002, 9.323964e-003
8.928801e+002, 9.327183e-003
8.948085e+002, 9.706989e-003
8.967370e+002, 9.980830e-003
8.986655e+002, 1.026900e-002
9.005939e+002, 1.048036e-002
9.025224e+002, 1.068304e-002
9.044509e+002, 1.105275e-002
9.063793e+002, 1.137875e-002
9.083078e+002, 1.175727e-002
9.102363e+002, 1.219456e-002
9.121647e+002, 1.260067e-002
9.140932e+002, 1.297556e-002
9.160217e+002, 1.331547e-002
9.179501e+002, 1.382508e-002
9.198786e+002, 1.437742e-002
9.218071e+002, 1.497817e-002
9.237355e+002, 1.544905e-002
9.256640e+002, 1.584801e-002
9.275925e+002, 1.651899e-002
9.295209e+002, 1.730101e-002
9.314494e+002, 1.789469e-002
9.333779e+002, 1.855949e-002
9.353063e+002, 1.941898e-002
9.372348e+002, 2.044016e-002
9.391633e+002, 2.164253e-002
9.410917e+002, 2.299548e-002
9.430202e+002, 2.422093e-002
9.449487e+002, 2.540940e-002
9.468771e+002, 2.703975e-002
9.488056e+002, 2.880200e-002
9.507341e+002, 3.027626e-002
9.526625e+002, 3.129606e-002
9.545910e+002, 3.202672e-002
9.565195e+002, 3.298336e-002
9.584479e+002, 3.440315e-002
9.603764e+002, 3.592889e-002
9.623049e+002, 3.762418e-002
9.642333e+002, 3.957525e-002
9.661618e+002, 4.175969e-002
9.680903e+002, 4.411588e-002
9.700187e+002, 4.667849e-002
9.719472e+002, 4.926747e-002
9.738757e+002, 5.213260e-002
9.758041e+002, 5.522263e-002
9.777326e+002, 5.845067e-002
9.796611e+002, 6.178672e-002
9.815895e+002, 6.519683e-002
9.835180e+002, 6.892534e-002
9.854465e+002, 7.271682e-002
9.873749e+002, 7.652207e-002
9.893034e+002, 8.050076e-002
9.912319e+002, 8.459808e-002
9.931603e+002, 8.865889e-002
9.950888e+002, 9.280965e-002
9.970173e+002, 9.717786e-002
9.989457e+002, 1.015063e-001
1.000874e+003, 1.058642e-001
1.002803e+003, 1.103008e-001
1.004731e+003, 1.146916e-001
1.006660e+003, 1.188795e-001
1.008588e+003, 1.227277e-001
1.010517e+003, 1.263612e-001
1.012445e+003, 1.297448e-001
1.014373e+003, 1.319936e-001
1.016302e+003, 1.328221e-001
1.018230e+003, 1.324751e-001
1.020159e+003, 1.312259e-001
1.022087e+003, 1.300967e-001
1.024016e+003, 1.295331e-001
1.025944e+003, 1.298413e-001
1.027873e+003, 1.308665e-001
1.029801e+003, 1.326341e-001
1.031730e+003, 1.352193e-001
1.033658e+003, 1.381088e-001
1.035587e+003, 1.411539e-001
1.037515e+003, 1.440963e-001
1.039443e+003, 1.464566e-001
1.041372e+003, 1.480581e-001
1.043300e+003, 1.490375e-001
1.045229e+003, 1.494278e-001
1.047157e+003, 1.495523e-001
1.049086e+003, 1.496122e-001
1.051014e+003, 1.492069e-001
1.052943e+003, 1.480020e-001
1.054871e+003, 1.458097e-001
1.056800e+003, 1.425094e-001
1.058728e+003, 1.382626e-001
1.060657e+003, 1.344078e-001
1.062585e+003, 1.332368e-001
1.064514e+003, 1.347656e-001
1.066442e+003, 1.364665e-001
1.068370e+003, 1.372096e-001
1.070299e+003, 1.376483e-001
1.072227e+003, 1.372132e-001
1.074156e+003, 1.354272e-001
1.076084e+003, 1.325733e-001
1.078013e+003, 1.291735e-001
1.079941e+003, 1.257980e-001
1.081870e+003, 1.227913e-001
1.083798e+003, 1.197372e-001
1.085727e+003, 1.164688e-001
1.087655e+003, 1.133185e-001
1.089584e+003, 1.103005e-001
1.091512e+003, 1.074811e-001
1.093441e+003, 1.044512e-001
1.095369e+003, 1.013444e-001
1.097297e+003, 9.833030e-002
1.099226e+003, 9.525823e-002
1.101154e+003, 9.208838e-002
1.103083e+003, 8.875029e-002
1.105011e+003, 8.557712e-002
1.106940e+003, 8.268110e-002
1.108868e+003, 7.970491e-002
1.110797e+003, 7.676151e-002
1.112725e+003, 7.394012e-002
1.114654e+003, 7.158066e-002
1.116582e+003, 6.920337e-002
1.118511e+003, 6.690692e-002
1.120439e+003, 6.432338e-002
1.122368e+003, 6.131501e-002
1.124296e+003, 5.812323e-002
1.126224e+003, 5.521190e-002
1.128153e+003, 5.225034e-002
1.130081e+003, 4.941359e-002
1.132010e+003, 4.693484e-002
1.133938e+003, 4.527935e-002
1.135867e+003, 4.468433e-002
1.137795e+003, 4.519104e-002
1.139724e+003, 4.607362e-002
1.141652e+003, 4.690364e-002
1.143581e+003, 4.776981e-002
1.145509e+003, 4.842665e-002
1.147438e+003, 4.796332e-002
1.149366e+003, 4.592616e-002
1.151295e+003, 4.290060e-002
1.153223e+003, 3.963887e-002
1.155151e+003, 3.670501e-002
1.157080e+003, 3.438217e-002
1.159008e+003, 3.281357e-002
1.160937e+003, 3.173666e-002
1.162865e+003, 3.017721e-002
1.164794e+003, 2.784333e-002
1.166722e+003, 2.494011e-002
1.168651e+003, 2.187058e-002
1.170579e+003, 1.901792e-002
1.172508e+003, 1.664929e-002
1.174436e+003, 1.469385e-002
1.176365e+003, 1.306429e-002
1.178293e+003, 1.186036e-002
1.180222e+003, 1.082466e-002
1.182150e+003, 9.915448e-003
1.184078e+003, 9.191402e-003
1.186007e+003, 8.561573e-003
1.187935e+003, 8.165129e-003
1.189864e+003, 7.795011e-003
1.191792e+003, 7.456309e-003
1.193721e+003, 7.173724e-003
1.195649e+003, 6.880363e-003
1.197578e+003, 6.642977e-003
1.199506e+003, 6.484143e-003
1.201435e+003, 6.203754e-003
1.203363e+003, 5.963683e-003
1.205292e+003, 5.760281e-003
1.207220e+003, 5.581712e-003
1.209149e+003, 5.432885e-003
1.211077e+003, 5.349676e-003
1.213005e+003, 5.231321e-003
1.214934e+003, 5.043176e-003
1.216862e+003, 4.874984e-003
1.218791e+003, 4.699574e-003
1.220719e+003, 4.537274e-003
1.222648e+003, 4.414721e-003
1.224576e+003, 4.167549e-003
1.226505e+003, 4.060992e-003
1.228433e+003, 4.089966e-003
1.230362e+003, 4.084955e-003
1.232290e+003, 3.870050e-003
1.234219e+003, 3.651288e-003
1.236147e+003, 3.625643e-003
1.238076e+003, 3.629520e-003
1.240004e+003, 3.627969e-003
1.241932e+003, 3.512732e-003
1.243861e+003, 3.474003e-003
1.245789e+003, 3.553123e-003
1.247718e+003, 3.519336e-003
1.249646e+003, 3.345390e-003
1.251575e+003, 3.134332e-003
1.253503e+003, 3.083184e-003
1.255432e+003, 3.104614e-003
1.257360e+003, 3.130327e-003
1.259289e+003, 3.032026e-003
1.261217e+003, 2.970025e-003
1.263146e+003, 2.876523e-003
1.265074e+003, 2.770527e-003
1.267003e+003, 2.744370e-003
1.268931e+003, 2.757459e-003
1.270859e+003, 2.824659e-003
1.272788e+003, 2.892485e-003
1.274716e+003, 2.719553e-003
1.276645e+003, 2.565051e-003
1.278573e+003, 2.579731e-003
1.280502e+003, 2.543935e-003
1.282430e+003, 2.446140e-003
1.284359e+003, 2.528725e-003
1.286287e+003, 2.579187e-003
1.288216e+003, 2.506386e-003
1.290144e+003, 2.524136e-003
1.292073e+003, 2.541323e-003
1.294001e+003, 2.525735e-003
1.295930e+003, 2.499090e-003
1.297858e+003, 2.452060e-003
1.299786e+003, 2.430747e-003
1.301715e+003, 2.373283e-003
1.303643e+003, 2.393717e-003
1.305572e+003, 2.342350e-003
1.307500e+003, 2.271909e-003
1.309429e+003, 2.235795e-003
1.311357e+003, 2.212832e-003
1.313286e+003, 2.174811e-003
1.315214e+003, 2.145463e-003
1.317143e+003, 2.134551e-003
1.319071e+003, 2.021043e-003
1.321000e+003, 1.985833e-003
1.322928e+003, 1.978972e-003
1.324857e+003, 1.939705e-003
1.326785e+003, 1.972215e-003
1.328714e+003, 2.051120e-003
1.330642e+003, 2.085738e-003
1.332570e+003, 2.027837e-003
1.334499e+003, 1.953973e-003
1.336427e+003, 1.882787e-003
1.338356e+003, 1.870959e-003
1.340284e+003, 1.828489e-003
1.342213e+003, 1.787988e-003
1.344141e+003, 1.776578e-003
1.346070e+003, 1.771350e-003
1.347998e+003, 1.691740e-003
1.349927e+003, 1.773569e-003
1.351855e+003, 1.817935e-003
1.353784e+003, 1.831785e-003
1.355712e+003, 1.759786e-003
1.357641e+003, 1.694986e-003
1.359569e+003, 1.697944e-003
1.361497e+003, 1.737143e-003
1.363426e+003, 1.817048e-003
1.365354e+003, 1.742851e-003
1.367283e+003, 1.729374e-003
1.369211e+003, 1.725226e-003
1.371140e+003, 1.682421e-003
1.373068e+003, 1.692280e-003
1.374997e+003, 1.747804e-003
1.376925e+003, 1.822381e-003
1.378854e+003, 1.734580e-003
1.380782e+003, 1.772803e-003
1.382711e+003, 1.862279e-003
1.384639e+003, 1.889460e-003
1.386568e+003, 1.761372e-003
1.388496e+003, 1.785197e-003
1.390424e+003, 1.890178e-003
1.392353e+003, 1.847740e-003
1.394281e+003, 1.762183e-003
1.396210e+003, 1.783424e-003
1.398138e+003, 1.842722e-003
1.400067e+003, 1.904094e-003
1.401995e+003, 1.956685e-003
1.403924e+003, 1.945481e-003
1.405852e+003, 2.050233e-003
1.407781e+003, 2.060267e-003
1.409709e+003, 1.939954e-003
1.411638e+003, 2.005308e-003
1.413566e+003, 2.115678e-003
1.415495e+003, 2.041686e-003
1.417423e+003, 1.902194e-003
1.419351e+003, 1.839844e-003
1.421280e+003, 1.897010e-003
1.423208e+003, 1.863039e-003
1.425137e+003, 1.912846e-003
1.427065e+003, 1.938783e-003
1.428994e+003, 1.928169e-003
1.430922e+003, 1.927551e-003
1.432851e+003, 1.889118e-003
1.434779e+003, 1.756463e-003
1.436708e+003, 1.641277e-003
1.438636e+003, 1.837800e-003
1.440565e+003, 1.883415e-003
1.442493e+003, 1.852448e-003
1.444422e+003, 1.871212e-003
1.446350e+003, 1.868923e-003
1.448278e+003, 1.806271e-003
1.450207e+003, 1.847292e-003
1.452135e+003, 1.905796e-003
1.454064e+003, 1.874763e-003
1.455992e+003, 1.485714e-003
1.457921e+003, 1.515443e-003
1.459849e+003, 1.864477e-003
1.461778e+003, 2.007410e-003
1.463706e+003, 1.897994e-003
1.465635e+003, 1.763959e-003
1.467563e+003, 1.845151e-003
1.469492e+003, 2.002359e-003
1.471420e+003, 1.908766e-003
1.473349e+003, 1.829867e-003
1.475277e+003, 1.863662e-003
1.477205e+003, 1.959338e-003
1.479134e+003, 2.020764e-003
1.481062e+003, 2.052319e-003
1.482991e+003, 2.199806e-003
1.484919e+003, 2.249885e-003
1.486848e+003, 2.107011e-003
1.488776e+003, 1.981702e-003
1.490705e+003, 2.097012e-003
1.492633e+003, 2.285639e-003
1.494562e+003, 2.074468e-003
1.496490e+003, 1.880718e-003
1.498419e+003, 2.060146e-003
1.500347e+003, 2.313913e-003
1.502276e+003, 2.318511e-003
1.504204e+003, 1.937649e-003
1.506132e+003, 1.471746e-003
1.508061e+003, 1.747893e-003
1.509989e+003, 2.292659e-003
1.511918e+003, 2.378013e-003
1.513846e+003, 2.215976e-003
1.515775e+003, 2.135937e-003
1.517703e+003, 2.166985e-003
1.519632e+003, 2.001973e-003
1.521560e+003, 1.749117e-003
1.523489e+003, 1.956271e-003
1.525417e+003, 2.115128e-003
1.527346e+003, 2.275180e-003
1.529274e+003, 2.259371e-003
1.531203e+003, 2.170369e-003
1.533131e+003, 1.978122e-003
1.535059e+003, 2.165989e-003
1.536988e+003, 2.006545e-003
1.538916e+003, 1.421207e-003
1.540845e+003, 1.420716e-003
1.542773e+003, 1.798365e-003
1.544702e+003, 2.029418e-003
1.546630e+003, 2.144603e-003
1.548559e+003, 2.104735e-003
1.550487e+003, 2.134391e-003
1.552416e+003, 2.087389e-003
1.554344e+003, 1.938769e-003
1.556273e+003, 1.818865e-003
1.558201e+003, 1.209741e-003
1.560130e+003, 1.275843e-003
1.562058e+003, 1.941559e-003
1.563986e+003, 2.092428e-003
1.565915e+003, 2.097539e-003
1.567843e+003, 1.946661e-003
1.569772e+003, 1.877163e-003
1.571700e+003, 2.094734e-003
1.573629e+003, 2.088126e-003
1.575557e+003, 1.719250e-003
1.577486e+003, 1.934424e-003
1.579414e+003, 2.339564e-003
1.581343e+003, 2.404128e-003
1.583271e+003, 2.296711e-003
1.585200e+003, 2.158325e-003
1.587128e+003, 2.169902e-003
1.589057e+003, 2.265637e-003
1.590985e+003, 2.235527e-003
1.592913e+003, 2.109564e-003
1.594842e+003, 2.170673e-003
1.596770e+003, 2.200137e-003
1.598699e+003, 2.138164e-003
1.600627e+003, 2.187490e-003
1.602556e+003, 2.282684e-003
1.604484e+003, 2.313151e-003
1.606413e+003, 2.207356e-003
1.608341e+003, 2.048456e-003
1.610270e+003, 2.114256e-003
1.612198e+003, 2.225441e-003
1.614127e+003, 2.042209e-003
1.616055e+003, 1.589598e-003
1.617984e+003, 1.735333e-003
1.619912e+003, 2.068533e-003
1.621840e+003, 1.984861e-003
1.623769e+003, 1.957426e-003
1.625697e+003, 1.980478e-003
1.627626e+003, 2.061660e-003
1.629554e+003, 2.132701e-003
1.631483e+003, 2.034966e-003
1.633411e+003, 1.770206e-003
1.635340e+003, 1.560900e-003
1.637268e+003, 1.903315e-003
1.639197e+003, 2.135993e-003
1.641125e+003, 2.184191e-003
1.643054e+003, 2.144419e-003
1.644982e+003, 1.764567e-003
1.646911e+003, 1.620527e-003
1.648839e+003, 1.982029e-003
1.650767e+003, 1.672156e-003
1.652696e+003, 8.633718e-004
1.654624e+003, 1.232325e-003
1.656553e+003, 1.912544e-003
1.658481e+003, 2.144883e-003
1.660410e+003, 2.083415e-003
1.662338e+003, 1.875727e-003
1.664267e+003, 1.952975e-003
1.666195e+003, 1.958935e-003
1.668124e+003, 1.799318e-003
1.670052e+003, 1.948571e-003
1.671981e+003, 1.957698e-003
1.673909e+003, 1.627015e-003
1.675838e+003, 1.501895e-003
1.677766e+003, 1.771493e-003
1.679694e+003, 1.950506e-003
1.681623e+003, 1.848152e-003
1.683551e+003, 1.196194e-003
1.685480e+003, 1.313186e-003
1.687408e+003, 1.940301e-003
1.689337e+003, 1.947167e-003
1.691265e+003, 1.981015e-003
1.693194e+003, 1.826222e-003
1.695122e+003, 1.314118e-003
1.697051e+003, 1.422356e-003
1.698979e+003, 1.246150e-003
1.700908e+003, 1.213854e-003
1.702836e+003, 1.800033e-003
1.704765e+003, 1.867126e-003
1.706693e+003, 1.940041e-003
1.708621e+003, 1.960212e-003
1.710550e+003, 1.869511e-003
1.712478e+003, 1.655086e-003
1.714407e+003, 1.591417e-003
1.716335e+003, 1.366014e-003
1.718264e+003, 1.400966e-003
1.720192e+003, 1.880640e-003
1.722121e+003, 1.930730e-003
1.724049e+003, 1.776091e-003
1.725978e+003, 1.789994e-003
1.727906e+003, 1.669702e-003
1.729835e+003, 1.510045e-003
1.731763e+003, 1.283099e-003
1.733692e+003, 8.671722e-004
1.735620e+003, 1.136120e-003
1.737548e+003, 1.507280e-003
1.739477e+003, 1.472796e-003
1.741405e+003, 1.679451e-003
1.743334e+003, 1.876483e-003
1.745262e+003, 1.857394e-003
1.747191e+003, 1.831760e-003
1.749119e+003, 1.804839e-003
1.751048e+003, 1.786237e-003
1.752976e+003, 2.154020e-003
1.754905e+003, 2.312384e-003
1.756833e+003, 2.252331e-003
1.758762e+003, 2.388186e-003
1.760690e+003, 2.219178e-003
1.762619e+003, 2.174682e-003
1.764547e+003, 2.236044e-003
1.766475e+003, 2.051603e-003
1.768404e+003, 2.129572e-003
1.770332e+003, 2.196890e-003
1.772261e+003, 2.062138e-003
1.774189e+003, 2.069742e-003
1.776118e+003, 2.184046e-003
1.778046e+003, 2.441329e-003
1.779975e+003, 2.373808e-003
1.781903e+003, 2.250657e-003
1.783832e+003, 2.304426e-003
1.785760e+003, 2.373028e-003
1.787689e+003, 2.503274e-003
1.789617e+003, 2.416507e-003
1.791546e+003, 2.113045e-003
1.793474e+003, 2.207801e-003
1.795402e+003, 2.545698e-003
1.797331e+003, 2.643673e-003
1.799259e+003, 2.493209e-003
1.801188e+003, 2.417685e-003
1.803116e+003, 2.391686e-003
1.805045e+003, 2.277629e-003
1.806973e+003, 2.241993e-003
1.808902e+003, 2.371341e-003
1.810830e+003, 2.494360e-003
1.812759e+003, 2.361335e-003
1.814687e+003, 2.380846e-003
1.816616e+003, 2.464280e-003
1.818544e+003, 2.431537e-003
1.820473e+003, 2.420260e-003
1.822401e+003, 2.364559e-003
1.824329e+003, 2.099434e-003
1.826258e+003, 2.101653e-003
1.828186e+003, 2.443451e-003
1.830115e+003, 2.525471e-003
1.832043e+003, 2.596034e-003
1.833972e+003, 2.623025e-003
1.835900e+003, 2.446861e-003
1.837829e+003, 2.382795e-003
1.839757e+003, 2.418925e-003
1.841686e+003, 2.508128e-003
1.843614e+003, 2.393723e-003
1.845543e+003, 2.357713e-003
1.847471e+003, 2.466765e-003
1.849400e+003, 2.484217e-003
1.851328e+003, 2.364985e-003
1.853256e+003, 2.287146e-003
1.855185e+003, 2.370218e-003
1.857113e+003, 2.418354e-003
1.859042e+003, 2.460471e-003
1.860970e+003, 2.507187e-003
1.862899e+003, 2.527682e-003
1.864827e+003, 2.579269e-003
1.866756e+003, 2.537202e-003
1.868684e+003, 2.373876e-003
1.870613e+003, 2.487358e-003
1.872541e+003, 2.467521e-003
1.874470e+003, 2.511682e-003
1.876398e+003, 2.823601e-003
1.878327e+003, 2.759322e-003
1.880255e+003, 2.754206e-003
1.882183e+003, 2.721326e-003
1.884112e+003, 2.460444e-003
1.886040e+003, 2.259519e-003
1.887969e+003, 2.322051e-003
1.889897e+003, 2.545280e-003
1.891826e+003, 2.668657e-003
1.893754e+003, 2.630261e-003
1.895683e+003, 2.626410e-003
1.897611e+003, 2.754981e-003
1.899540e+003, 2.549511e-003
1.901468e+003, 2.334675e-003
1.903397e+003, 2.678183e-003
1.905325e+003, 2.919569e-003
1.907254e+003, 2.751786e-003
1.909182e+003, 2.708318e-003
1.911110e+003, 2.696072e-003
1.913039e+003, 2.445505e-003
1.914967e+003, 2.411565e-003
1.916896e+003, 2.366914e-003
1.918824e+003, 2.542129e-003
1.920753e+003, 2.624978e-003
1.922681e+003, 2.457088e-003
1.924610e+003, 2.208111e-003
1.926538e+003, 2.236002e-003
1.928467e+003, 2.381153e-003
1.930395e+003, 2.713146e-003
1.932324e+003, 3.139770e-003
1.934252e+003, 3.095830e-003
1.936181e+003, 2.810639e-003
1.938109e+003, 2.820238e-003
1.940037e+003, 2.887104e-003
1.941966e+003, 3.166237e-003
1.943894e+003, 3.337407e-003
1.945823e+003, 2.567019e-003
1.947751e+003, 2.895740e-003
1.949680e+003, 3.366729e-003
1.951608e+003, 2.838120e-003
1.953537e+003, 3.340511e-003
1.955465e+003, 3.592957e-003
1.957394e+003, 3.469849e-003
1.959322e+003, 4.039763e-003
1.961251e+003, 3.401484e-003
1.963179e+003, 3.210996e-003
1.965108e+003, 2.950135e-003
1.967036e+003, 2.794496e-003
1.968964e+003, 3.160272e-003
1.970893e+003, 3.063146e-003
1.972821e+003, 3.292127e-003
1.974750e+003, 4.166904e-003
1.976678e+003, 3.749190e-003
1.978607e+003, 3.916818e-003
1.980535e+003, 3.957795e-003
1.982464e+003, 2.701397e-003
1.984392e+003, 2.429478e-003
1.986321e+003, 3.103424e-003
1.988249e+003, 3.056848e-003
1.990178e+003, 2.478516e-003
1.992106e+003, 3.173633e-003
1.994035e+003, 3.514475e-003
1.995963e+003, 3.756273e-003
1.997891e+003, 4.148538e-003
1.999820e+003, 2.993213e-003
2.001748e+003, 1.954297e-003
2.003677e+003, 1.553882e-003
2.005605e+003, 2.633976e-003
2.007534e+003, 3.398693e-003
2.009462e+003, 3.265622e-003
2.011391e+003, 3.119192e-003
2.013319e+003, 2.939175e-003
2.015248e+003, 2.846873e-003
2.017176e+003, 3.405978e-003
2.019105e+003, 4.235642e-003
2.021033e+003, 4.316895e-003
2.022962e+003, 3.566583e-003
2.024890e+003, 3.026156e-003
2.026818e+003, 2.865905e-003
2.028747e+003, 3.604584e-003
2.030675e+003, 3.657650e-003
2.032604e+003, 3.403850e-003
2.034532e+003, 2.687623e-003
2.036461e+003, 2.198752e-003
2.038389e+003, 2.655817e-003
2.040318e+003, 3.973197e-003
2.042246e+003, 4.565186e-003
2.044175e+003, 3.867281e-003
2.046103e+003, 3.408546e-003
2.048031e+003, 3.185699e-003
2.049960e+003, 2.908068e-003
2.051888e+003, 2.958367e-003
2.053817e+003, 2.982619e-003
2.055745e+003, 3.433642e-003
2.057674e+003, 3.552022e-003
2.059602e+003, 3.213580e-003
2.061531e+003, 3.512217e-003
2.063459e+003, 3.402129e-003
2.065388e+003, 3.113861e-003
2.067316e+003, 3.568147e-003
2.069245e+003, 3.726471e-003
2.071173e+003, 3.700618e-003
2.073102e+003, 3.231510e-003
2.075030e+003, 3.067840e-003
2.076958e+003, 3.383969e-003
2.078887e+003, 3.261759e-003
2.080815e+003, 2.893378e-003
2.082744e+003, 2.342109e-003
2.084672e+003, 1.952909e-003
2.086601e+003, 2.156787e-003
2.088529e+003, 2.646401e-003
2.090458e+003, 2.628329e-003
2.092386e+003, 2.261256e-003
2.094315e+003, 1.926909e-003
2.096243e+003, 1.689787e-003
2.098172e+003, 2.294470e-003
2.100100e+003, 3.131777e-003
2.102029e+003, 3.331182e-003
2.103957e+003, 2.706883e-003
2.105885e+003, 2.054833e-003
2.107814e+003, 1.857479e-003
2.109742e+003, 2.252129e-003
2.111671e+003, 2.542675e-003
2.113599e+003, 2.054600e-003
2.115528e+003, 1.834859e-003
2.117456e+003, 2.383590e-003
2.119385e+003, 2.447661e-003
2.121313e+003, 1.961665e-003
2.123242e+003, 2.357528e-003
2.125170e+003, 2.950132e-003
2.127099e+003, 2.462802e-003
2.129027e+003, 1.883144e-003
2.130956e+003, 2.683088e-003
2.132884e+003, 2.938092e-003
2.134813e+003, 2.736088e-003
2.136741e+003, 2.692911e-003
2.138669e+003, 2.692685e-003
2.140598e+003, 2.698122e-003
2.142526e+003, 2.142954e-003
2.144455e+003, 1.503864e-003
2.146383e+003, 2.035644e-003
2.148312e+003, 2.780306e-003
2.150240e+003, 2.868847e-003
2.152169e+003, 3.567772e-003
2.154097e+003, 3.705217e-003
2.156026e+003, 3.773828e-003
2.157954e+003, 3.964193e-003
2.159883e+003, 3.520984e-003
2.161811e+003, 3.004528e-003
2.163740e+003, 3.400058e-003
2.165668e+003, 3.658486e-003
2.167596e+003, 3.543309e-003
2.169525e+003, 3.081780e-003
2.171453e+003, 2.850127e-003
2.173382e+003, 3.334085e-003
2.175310e+003, 4.078039e-003
2.177239e+003, 4.622867e-003
2.179167e+003, 4.525765e-003
2.181096e+003, 4.047999e-003
2.183024e+003, 3.150929e-003
2.184953e+003, 2.377302e-003
2.186881e+003, 2.618432e-003
2.188810e+003, 2.843473e-003
2.190738e+003, 2.430318e-003
2.192667e+003, 2.615995e-003
2.194595e+003, 3.356504e-003
2.196523e+003, 3.294592e-003
2.198452e+003, 3.141070e-003
2.200380e+003, 3.052678e-003
2.202309e+003, 3.661036e-003
2.204237e+003, 4.117900e-003
2.206166e+003, 3.218358e-003
2.208094e+003, 2.846631e-003
2.210023e+003, 3.216059e-003
2.211951e+003, 3.162489e-003
2.213880e+003, 3.098540e-003
2.215808e+003, 3.907811e-003
2.217737e+003, 5.002284e-003
2.219665e+003, 4.672001e-003
2.221594e+003, 4.467466e-003
2.223522e+003, 4.523534e-003
2.225450e+003, 4.193894e-003
2.227379e+003, 3.077695e-003
2.229307e+003, 3.385515e-003
2.231236e+003, 3.620056e-003
2.233164e+003, 3.491442e-003
2.235093e+003, 4.870970e-003
2.237021e+003, 5.199095e-003
2.238950e+003, 4.534370e-003
2.240878e+003, 4.603827e-003
2.242807e+003, 4.656609e-003
2.244735e+003, 4.338672e-003
2.246664e+003, 4.275254e-003
2.248592e+003, 4.280781e-003
2.250521e+003, 4.221256e-003
2.252449e+003, 4.051536e-003
2.254377e+003, 3.771689e-003
2.256306e+003, 3.878717e-003
2.258234e+003, 3.658696e-003
2.260163e+003, 3.822403e-003
2.262091e+003, 4.312818e-003
2.264020e+003, 4.555065e-003
2.265948e+003, 4.538367e-003
2.267877e+003, 4.209772e-003
2.269805e+003, 4.378176e-003
2.271734e+003, 4.608927e-003
2.273662e+003, 4.628594e-003
2.275591e+003, 5.025667e-003
2.277519e+003, 4.946409e-003
2.279448e+003, 4.597063e-003
2.281376e+003, 4.547795e-003
2.283304e+003, 4.276292e-003
2.285233e+003, 4.015747e-003
2.287161e+003, 3.964835e-003
2.289090e+003, 3.901792e-003
2.291018e+003, 3.775099e-003
2.292947e+003, 3.932870e-003
2.294875e+003, 3.997690e-003
2.296804e+003, 3.721475e-003
2.298732e+003, 3.600516e-003
2.300661e+003, 3.636378e-003
2.302589e+003, 3.522080e-003
2.304518e+003, 3.261475e-003
2.306446e+003, 3.253487e-003
2.308375e+003, 3.318524e-003
2.310303e+003, 3.354995e-003
2.312231e+003, 3.270992e-003
2.314160e+003, 3.252917e-003
2.316088e+003, 3.384853e-003
2.318017e+003, 3.240873e-003
2.319945e+003, 2.941439e-003
2.321874e+003, 2.719251e-003
2.323802e+003, 2.477235e-003
2.325731e+003, 2.232668e-003
2.327659e+003, 2.222119e-003
2.329588e+003, 2.140176e-003
2.331516e+003, 1.949033e-003
2.333445e+003, 1.972546e-003
2.335373e+003, 2.188197e-003
2.337302e+003, 2.359778e-003
2.339230e+003, 2.393948e-003
2.341158e+003, 2.385617e-003
2.343087e+003, 2.473329e-003
2.345015e+003, 2.642869e-003
2.346944e+003, 2.652160e-003
2.348872e+003, 2.462656e-003
2.350801e+003, 2.562619e-003
2.352729e+003, 2.611347e-003
2.354658e+003, 2.565262e-003
2.356586e+003, 2.199810e-003
2.358515e+003, 1.992901e-003
2.360443e+003, 2.114109e-003
2.362372e+003, 2.337923e-003
2.364300e+003, 2.544751e-003
2.366229e+003, 2.712832e-003
2.368157e+003, 2.564312e-003
2.370085e+003, 2.537657e-003
2.372014e+003, 2.956055e-003
2.373942e+003, 3.238935e-003
2.375871e+003, 3.165215e-003
2.377799e+003, 3.362786e-003
2.379728e+003, 3.545880e-003
2.381656e+003, 3.496700e-003
2.383585e+003, 3.488585e-003
2.385513e+003, 3.749006e-003
2.387442e+003, 3.944982e-003
2.389370e+003, 4.247441e-003
2.391299e+003, 4.361009e-003
2.393227e+003, 4.166892e-003
2.395156e+003, 4.263396e-003
2.397084e+003, 4.396962e-003
2.399012e+003, 4.209599e-003
2.400941e+003, 4.287579e-003
2.402869e+003, 4.071995e-003
2.404798e+003, 3.673803e-003
2.406726e+003, 3.752168e-003
2.408655e+003, 4.161292e-003
2.410583e+003, 4.362253e-003
2.412512e+003, 3.938343e-003
2.414440e+003, 3.912147e-003
2.416369e+003, 4.279241e-003
2.418297e+003, 4.186607e-003
2.420226e+003, 3.895499e-003
2.422154e+003, 3.874798e-003
2.424083e+003, 4.279453e-003
2.426011e+003, 4.505720e-003
2.427939e+003, 4.654859e-003
2.429868e+003, 4.725848e-003
2.431796e+003, 4.676194e-003
2.433725e+003, 4.381020e-003
2.435653e+003, 4.010533e-003
2.437582e+003, 3.867922e-003
2.439510e+003, 3.770601e-003
2.441439e+003, 3.889959e-003
2.443367e+003, 4.154097e-003
2.445296e+003, 4.183443e-003
2.447224e+003, 4.003237e-003
2.449153e+003, 4.286597e-003
2.451081e+003, 4.238804e-003
2.453010e+003, 4.257853e-003
2.454938e+003, 4.384317e-003
2.456866e+003, 4.120308e-003
2.458795e+003, 4.078030e-003
2.460723e+003, 4.014984e-003
2.462652e+003, 4.293248e-003
2.464580e+003, 4.630967e-003
2.466509e+003, 4.498561e-003
2.468437e+003, 4.099339e-003
2.470366e+003, 4.276874e-003
2.472294e+003, 4.191106e-003
2.474223e+003, 3.994371e-003
2.476151e+003, 3.621842e-003
2.478080e+003, 3.453193e-003
2.480008e+003, 3.659314e-003
2.481937e+003, 4.145017e-003
2.483865e+003, 4.310471e-003
2.485793e+003, 4.117649e-003
2.487722e+003, 4.265118e-003
2.489650e+003, 4.348152e-003
2.491579e+003, 4.014016e-003
2.493507e+003, 4.061454e-003
2.495436e+003, 4.496532e-003
2.497364e+003, 4.746278e-003
2.499293e+003, 4.944959e-003
2.501221e+003, 4.924430e-003
2.503150e+003, 4.626304e-003
2.505078e+003, 4.456127e-003
2.507007e+003, 4.512988e-003
2.508935e+003, 4.718444e-003
2.510864e+003, 4.675248e-003
2.512792e+003, 4.812589e-003
2.514720e+003, 4.954434e-003
2.516649e+003, 4.638345e-003
2.518577e+003, 4.508793e-003
2.520506e+003, 4.556488e-003
2.522434e+003, 4.228731e-003
2.524363e+003, 3.917950e-003
2.526291e+003, 4.264027e-003
2.528220e+003, 4.811388e-003
2.530148e+003, 4.734188e-003
2.532077e+003, 4.307203e-003
2.534005e+003, 4.246054e-003
2.535934e+003, 4.375269e-003
2.537862e+003, 4.464675e-003
2.539791e+003, 4.417846e-003
2.541719e+003, 4.600518e-003
2.543647e+003, 4.391310e-003
2.545576e+003, 4.366322e-003
2.547504e+003, 4.277487e-003
2.549433e+003, 4.415861e-003
2.551361e+003, 4.801754e-003
2.553290e+003, 4.717406e-003
2.555218e+003, 4.493605e-003
2.557147e+003, 4.718076e-003
2.559075e+003, 4.566635e-003
2.561004e+003, 4.489443e-003
2.562932e+003, 4.831067e-003
2.564861e+003, 5.151966e-003
2.566789e+003, 5.049865e-003
2.568718e+003, 4.974287e-003
2.570646e+003, 4.665237e-003
2.572574e+003, 4.703713e-003
2.574503e+003, 5.025904e-003
2.576431e+003, 5.196689e-003
2.578360e+003, 5.207754e-003
2.580288e+003, 4.816576e-003
2.582217e+003, 4.800122e-003
2.584145e+003, 5.221475e-003
2.586074e+003, 5.217332e-003
2.588002e+003, 4.736280e-003
2.589931e+003, 4.436136e-003
2.591859e+003, 4.580033e-003
2.593788e+003, 4.739597e-003
2.595716e+003, 4.659315e-003
2.597645e+003, 4.741731e-003
2.599573e+003, 4.817444e-003
2.601501e+003, 4.597403e-003
2.603430e+003, 4.624336e-003
2.605358e+003, 5.043338e-003
2.607287e+003, 5.196900e-003
2.609215e+003, 4.789031e-003
2.611144e+003, 4.610012e-003
2.613072e+003, 4.923949e-003
2.615001e+003, 5.063738e-003
2.616929e+003, 4.835180e-003
2.618858e+003, 4.664441e-003
2.620786e+003, 4.410125e-003
2.622715e+003, 4.543589e-003
2.624643e+003, 4.743967e-003
2.626572e+003, 4.827996e-003
2.628500e+003, 5.063651e-003
2.630428e+003, 5.009375e-003
2.632357e+003, 4.891342e-003
2.634285e+003, 4.821081e-003
2.636214e+003, 4.752039e-003
2.638142e+003, 4.757150e-003
2.640071e+003, 4.562098e-003
2.641999e+003, 4.147043e-003
2.643928e+003, 4.071785e-003
2.645856e+003, 4.425182e-003
2.647785e+003, 4.461401e-003
2.649713e+003, 4.538477e-003
2.651642e+003, 4.496493e-003
2.653570e+003, 4.331156e-003
2.655499e+003, 4.249836e-003
2.657427e+003, 4.315372e-003
2.659355e+003, 4.291496e-003
2.661284e+003, 4.185004e-003
2.663212e+003, 4.065449e-003
2.665141e+003, 4.142439e-003
2.667069e+003, 4.325805e-003
2.668998e+003, 4.217411e-003
2.670926e+003, 4.251247e-003
2.672855e+003, 4.302817e-003
2.674783e+003, 4.181709e-003
2.676712e+003, 4.361475e-003
2.678640e+003, 4.430593e-003
2.680569e+003, 4.197781e-003
2.682497e+003, 4.316194e-003
2.684426e+003, 4.453094e-003
2.686354e+003, 4.435889e-003
2.688282e+003, 4.352138e-003
2.690211e+003, 4.331877e-003
2.692139e+003, 4.471306e-003
2.694068e+003, 4.272255e-003
2.695996e+003, 3.942705e-003
2.697925e+003, 4.152791e-003
2.699853e+003, 4.311763e-003
2.701782e+003, 4.234661e-003
2.703710e+003, 4.351300e-003
2.705639e+003, 4.521649e-003
2.707567e+003, 4.550145e-003
2.709496e+003, 4.348337e-003
2.711424e+003, 4.212454e-003
2.713353e+003, 4.195209e-003
2.715281e+003, 4.276169e-003
2.717209e+003, 4.220714e-003
2.719138e+003, 4.041314e-003
2.721066e+003, 4.043244e-003
2.722995e+003, 4.487945e-003
2.724923e+003, 4.648888e-003
2.726852e+003, 4.489515e-003
2.728780e+003, 4.607745e-003
2.730709e+003, 4.760212e-003
2.732637e+003, 4.441319e-003
2.734566e+003, 4.501082e-003
2.736494e+003, 4.737508e-003
2.738423e+003, 4.512734e-003
2.740351e+003, 4.406241e-003
2.742280e+003, 4.542193e-003
2.744208e+003, 4.651784e-003
2.746136e+003, 4.522481e-003
2.748065e+003, 4.338456e-003
2.749993e+003, 4.331861e-003
2.751922e+003, 4.465553e-003
2.753850e+003, 4.395103e-003
2.755779e+003, 4.257025e-003
2.757707e+003, 4.041294e-003
2.759636e+003, 3.969863e-003
2.761564e+003, 4.110961e-003
2.763493e+003, 4.371081e-003
2.765421e+003, 4.305045e-003
2.767350e+003, 3.820214e-003
2.769278e+003, 4.093955e-003
2.771207e+003, 4.246038e-003
2.773135e+003, 4.322816e-003
2.775063e+003, 4.387342e-003
2.776992e+003, 4.465248e-003
2.778920e+003, 4.545489e-003
2.780849e+003, 4.635915e-003
2.782777e+003, 4.550896e-003
2.784706e+003, 4.207040e-003
2.786634e+003, 3.992110e-003
2.788563e+003, 4.173673e-003
2.790491e+003, 4.271629e-003
2.792420e+003, 4.435004e-003
2.794348e+003, 4.402625e-003
2.796277e+003, 4.297866e-003
2.798205e+003, 4.080022e-003
2.800134e+003, 4.127487e-003
2.802062e+003, 4.380079e-003
2.803990e+003, 4.649381e-003
2.805919e+003, 4.617271e-003
2.807847e+003, 4.752183e-003
2.809776e+003, 4.973573e-003
2.811704e+003, 4.523169e-003
2.813633e+003, 4.123763e-003
2.815561e+003, 4.309383e-003
2.817490e+003, 4.305559e-003
2.819418e+003, 4.673108e-003
2.821347e+003, 4.869495e-003
2.823275e+003, 4.839452e-003
2.825204e+003, 4.669161e-003
2.827132e+003, 4.290141e-003
2.829061e+003, 4.457566e-003
2.830989e+003, 4.926937e-003
2.832917e+003, 5.036571e-003
2.834846e+003, 4.900198e-003
2.836774e+003, 4.784039e-003
2.838703e+003, 4.607400e-003
2.840631e+003, 4.641008e-003
2.842560e+003, 4.983953e-003
2.844488e+003, 5.050795e-003
2.846417e+003, 4.939515e-003
2.848345e+003, 4.838601e-003
2.850274e+003, 4.781265e-003
2.852202e+003, 4.876306e-003
2.854131e+003, 5.048096e-003
2.856059e+003, 5.176336e-003
2.857988e+003, 4.894744e-003
2.859916e+003, 4.828191e-003
2.861844e+003, 5.081028e-003
2.863773e+003, 5.308148e-003
2.865701e+003, 5.145109e-003
2.867630e+003, 5.002487e-003
2.869558e+003, 5.019568e-003
2.871487e+003, 4.751449e-003
2.873415e+003, 4.511505e-003
2.875344e+003, 4.309323e-003
2.877272e+003, 4.593753e-003
2.879201e+003, 4.952745e-003
2.881129e+003, 5.060694e-003
2.883058e+003, 4.967855e-003
2.884986e+003, 5.031988e-003
2.886915e+003, 5.109464e-003
2.888843e+003, 5.094677e-003
2.890771e+003, 4.777264e-003
2.892700e+003, 4.636202e-003
2.894628e+003, 4.733227e-003
2.896557e+003, 4.740686e-003
2.898485e+003, 5.092434e-003
2.900414e+003, 5.206375e-003
2.902342e+003, 5.049613e-003
2.904271e+003, 5.242897e-003
2.906199e+003, 5.034891e-003
2.908128e+003, 4.952009e-003
2.910056e+003, 5.330318e-003
2.911985e+003, 5.230822e-003
2.913913e+003, 5.221169e-003
2.915842e+003, 5.261550e-003
2.917770e+003, 5.309566e-003
2.919698e+003, 5.258444e-003
2.921627e+003, 5.226992e-003
2.923555e+003, 5.529544e-003
2.925484e+003, 5.817365e-003
2.927412e+003, 6.004274e-003
2.929341e+003, 5.773098e-003
2.931269e+003, 5.670724e-003
2.933198e+003, 5.763744e-003
2.935126e+003, 5.666495e-003
2.937055e+003, 5.395832e-003
2.938983e+003, 5.397201e-003
2.940912e+003, 5.316169e-003
2.942840e+003, 5.088761e-003
2.944769e+003, 5.074923e-003
2.946697e+003, 5.217116e-003
2.948625e+003, 5.320859e-003
2.950554e+003, 5.243218e-003
2.952482e+003, 5.166956e-003
2.954411e+003, 4.863983e-003
2.956339e+003, 4.661540e-003
2.958268e+003, 4.940226e-003
2.960196e+003, 5.240792e-003
2.962125e+003, 5.211854e-003
2.964053e+003, 5.122031e-003
2.965982e+003, 5.167669e-003
2.967910e+003, 5.044826e-003
2.969839e+003, 5.120283e-003
2.971767e+003, 4.935964e-003
2.973696e+003, 4.734608e-003
2.975624e+003, 5.207969e-003
2.977552e+003, 5.190705e-003
2.979481e+003, 4.939727e-003
2.981409e+003, 4.796045e-003
2.983338e+003, 5.138671e-003
2.985266e+003, 5.232136e-003
2.987195e+003, 5.122395e-003
2.989123e+003, 5.019882e-003
2.991052e+003, 4.855167e-003
2.992980e+003, 5.215962e-003
2.994909e+003, 5.537155e-003
2.996837e+003, 5.251431e-003
2.998766e+003, 4.929202e-003
3.000694e+003, 4.794919e-003
3.002623e+003, 4.659781e-003
3.004551e+003, 4.545060e-003
3.006479e+003, 4.601222e-003
3.008408e+003, 4.930581e-003
3.010336e+003, 5.052661e-003
3.012265e+003, 5.101558e-003
3.014193e+003, 4.998717e-003
3.016122e+003, 5.356561e-003
3.018050e+003, 5.617423e-003
3.019979e+003, 5.403135e-003
3.021907e+003, 5.470294e-003
3.023836e+003, 5.077016e-003
3.025764e+003, 4.532745e-003
3.027693e+003, 4.768758e-003
3.029621e+003, 4.928438e-003
3.031550e+003, 4.789589e-003
3.033478e+003, 4.411654e-003
3.035406e+003, 4.427952e-003
3.037335e+003, 4.773286e-003
3.039263e+003, 5.081038e-003
3.041192e+003, 5.151598e-003
3.043120e+003, 5.262752e-003
3.045049e+003, 5.275168e-003
3.046977e+003, 5.280913e-003
3.048906e+003, 5.123986e-003
3.050834e+003, 4.892903e-003
3.052763e+003, 4.899927e-003
3.054691e+003, 4.982736e-003
3.056620e+003, 5.073587e-003
3.058548e+003, 5.254282e-003
3.060477e+003, 5.315597e-003
3.062405e+003, 5.223670e-003
3.064333e+003, 5.154452e-003
3.066262e+003, 5.330655e-003
3.068190e+003, 5.508322e-003
3.070119e+003, 5.531369e-003
3.072047e+003, 5.268985e-003
3.073976e+003, 4.886820e-003
3.075904e+003, 4.884948e-003
3.077833e+003, 5.220563e-003
3.079761e+003, 5.649830e-003
3.081690e+003, 5.777206e-003
3.083618e+003, 5.834153e-003
3.085547e+003, 5.701003e-003
3.087475e+003, 5.672999e-003
3.089404e+003, 5.463941e-003
3.091332e+003, 5.103311e-003
3.093260e+003, 5.021079e-003
3.095189e+003, 4.630801e-003
3.097117e+003, 4.562197e-003
3.099046e+003, 4.962763e-003
3.100974e+003, 5.381794e-003
3.102903e+003, 5.913808e-003
3.104831e+003, 5.777455e-003
3.106760e+003, 5.228151e-003
3.108688e+003, 5.223711e-003
3.110617e+003, 5.400756e-003
3.112545e+003, 5.500782e-003
3.114474e+003, 5.559287e-003
3.116402e+003, 5.660160e-003
3.118331e+003, 5.535408e-003
3.120259e+003, 5.194411e-003
3.122188e+003, 5.090630e-003
3.124116e+003, 5.557022e-003
3.126044e+003, 5.742433e-003
3.127973e+003, 5.257693e-003
3.129901e+003, 5.122341e-003
3.131830e+003, 5.385166e-003
3.133758e+003, 5.605509e-003
3.135687e+003, 5.580862e-003
3.137615e+003, 5.257678e-003
3.139544e+003, 5.016958e-003
3.141472e+003, 5.255199e-003
3.143401e+003, 5.523467e-003
3.145329e+003, 5.395096e-003
3.147258e+003, 5.354503e-003
3.149186e+003, 5.343092e-003
3.151115e+003, 5.427257e-003
3.153043e+003, 5.353141e-003
3.154971e+003, 5.384303e-003
3.156900e+003, 5.510534e-003
3.158828e+003, 5.401122e-003
3.160757e+003, 5.216092e-003
3.162685e+003, 5.380619e-003
3.164614e+003, 5.708447e-003
3.166542e+003, 5.590528e-003
3.168471e+003, 5.357919e-003
3.170399e+003, 5.370638e-003
3.172328e+003, 5.787583e-003
3.174256e+003, 5.910737e-003
3.176185e+003, 5.382146e-003
3.178113e+003, 5.303779e-003
3.180042e+003, 5.688429e-003
3.181970e+003, 5.748491e-003
3.183898e+003, 5.691242e-003
3.185827e+003, 5.572352e-003
3.187755e+003, 5.313142e-003
3.189684e+003, 5.774616e-003
3.191612e+003, 6.180390e-003
3.193541e+003, 5.739568e-003
3.195469e+003, 5.745459e-003
3.197398e+003, 5.641878e-003
3.199326e+003, 5.333643e-003
3.201255e+003, 5.674504e-003
3.203183e+003, 6.269681e-003
3.205112e+003, 6.422890e-003
3.207040e+003, 5.940764e-003
3.208969e+003, 5.672371e-003
3.210897e+003, 5.758001e-003
3.212825e+003, 5.852081e-003
3.214754e+003, 5.800161e-003
3.216682e+003, 5.584439e-003
3.218611e+003, 5.629948e-003
3.220539e+003, 5.963535e-003
3.222468e+003, 6.104660e-003
3.224396e+003, 6.129310e-003
3.226325e+003, 5.542226e-003
3.228253e+003, 5.281572e-003
3.230182e+003, 5.935563e-003
3.232110e+003, 6.121919e-003
3.234039e+003, 5.857689e-003
3.235967e+003, 6.026543e-003
3.237896e+003, 5.896612e-003
3.239824e+003, 6.003696e-003
3.241752e+003, 6.486584e-003
3.243681e+003, 6.558663e-003
3.245609e+003, 6.467896e-003
3.247538e+003, 6.039275e-003
3.249466e+003, 5.698596e-003
3.251395e+003, 5.982772e-003
3.253323e+003, 6.359163e-003
3.255252e+003, 6.090006e-003
3.257180e+003, 5.769653e-003
3.259109e+003, 5.976684e-003
3.261037e+003, 6.000804e-003
3.262966e+003, 6.059049e-003
3.264894e+003, 6.168851e-003
3.266823e+003, 6.128550e-003
3.268751e+003, 6.279756e-003
3.270679e+003, 6.520638e-003
3.272608e+003, 6.308236e-003
3.274536e+003, 6.086793e-003
3.276465e+003, 5.905128e-003
3.278393e+003, 5.941294e-003
3.280322e+003, 5.886264e-003
3.282250e+003, 5.587122e-003
3.284179e+003, 5.536522e-003
3.286107e+003, 5.865394e-003
3.288036e+003, 6.136410e-003
3.289964e+003, 6.473601e-003
3.291893e+003, 6.474843e-003
3.293821e+003, 6.498680e-003
3.295750e+003, 6.860988e-003
3.297678e+003, 6.533233e-003
3.299606e+003, 5.802462e-003
3.301535e+003, 5.556743e-003
3.303463e+003, 6.078253e-003
3.305392e+003, 6.440803e-003
3.307320e+003, 6.430335e-003
3.309249e+003, 6.726061e-003
3.311177e+003, 6.525941e-003
3.313106e+003, 5.759208e-003
3.315034e+003, 5.750956e-003
3.316963e+003, 5.944188e-003
3.318891e+003, 6.118665e-003
3.320820e+003, 5.864431e-003
3.322748e+003, 5.668729e-003
3.324677e+003, 5.840214e-003
3.326605e+003, 5.848106e-003
3.328533e+003, 5.897315e-003
3.330462e+003, 6.256866e-003
3.332390e+003, 6.582857e-003
3.334319e+003, 6.653897e-003
3.336247e+003, 6.416309e-003
3.338176e+003, 6.069414e-003
3.340104e+003, 5.887862e-003
3.342033e+003, 5.612414e-003
3.343961e+003, 6.042466e-003
3.345890e+003, 6.410445e-003
3.347818e+003, 6.470602e-003
3.349747e+003, 6.448991e-003
3.351675e+003, 6.032432e-003
3.353604e+003, 5.749701e-003
3.355532e+003, 5.815379e-003
3.357460e+003, 6.279376e-003
3.359389e+003, 6.443825e-003
3.361317e+003, 6.332057e-003
3.363246e+003, 6.533883e-003
3.365174e+003, 6.464918e-003
3.367103e+003, 6.562051e-003
3.369031e+003, 6.754398e-003
3.370960e+003, 6.088626e-003
3.372888e+003, 5.798984e-003
3.374817e+003, 6.062075e-003
3.376745e+003, 6.026747e-003
3.378674e+003, 5.406316e-003
3.380602e+003, 5.105067e-003
3.382531e+003, 5.566549e-003
3.384459e+003, 5.949534e-003
3.386387e+003, 5.975544e-003
3.388316e+003, 6.153429e-003
3.390244e+003, 6.294637e-003
3.392173e+003, 6.025847e-003
3.394101e+003, 6.350532e-003
3.396030e+003, 6.630899e-003
3.397958e+003, 6.427353e-003
3.399887e+003, 5.822736e-003
3.401815e+003, 5.239057e-003
3.403744e+003, 5.401360e-003
3.405672e+003, 6.057569e-003
3.407601e+003, 6.159829e-003
3.409529e+003, 5.935404e-003
3.411458e+003, 5.701566e-003
3.413386e+003, 5.543094e-003
3.415314e+003, 6.263326e-003
3.417243e+003, 6.736279e-003
3.419171e+003, 6.516787e-003
3.421100e+003, 6.259513e-003
3.423028e+003, 5.858284e-003
3.424957e+003, 5.844008e-003
3.426885e+003, 6.005275e-003
3.428814e+003, 5.852821e-003
3.430742e+003, 5.491625e-003
3.432671e+003, 5.202589e-003
3.434599e+003, 6.070213e-003
3.436528e+003, 6.848376e-003
3.438456e+003, 6.777337e-003
3.440385e+003, 6.625846e-003
3.442313e+003, 6.530326e-003
3.444241e+003, 6.565589e-003
3.446170e+003, 6.578881e-003
3.448098e+003, 6.256558e-003
3.450027e+003, 5.693075e-003
3.451955e+003, 5.598065e-003
3.453884e+003, 5.645623e-003
3.455812e+003, 5.655762e-003
3.457741e+003, 5.874527e-003
3.459669e+003, 5.901141e-003
3.461598e+003, 5.907392e-003
3.463526e+003, 5.693041e-003
3.465455e+003, 5.888443e-003
3.467383e+003, 6.524915e-003
3.469312e+003, 6.633237e-003
3.471240e+003, 6.389818e-003
3.473168e+003, 6.546016e-003
3.475097e+003, 6.787631e-003
3.477025e+003, 5.977347e-003
3.478954e+003, 5.830887e-003
3.480882e+003, 6.475306e-003
3.482811e+003, 6.409328e-003
3.484739e+003, 6.054254e-003
3.486668e+003, 6.140051e-003
3.488596e+003, 6.340265e-003
3.490525e+003, 6.055401e-003
3.492453e+003, 5.888636e-003
3.494382e+003, 6.243855e-003
3.496310e+003, 6.788159e-003
3.498239e+003, 7.254987e-003
3.500167e+003, 6.943551e-003
3.502095e+003, 6.655487e-003
3.504024e+003, 6.570857e-003
3.505952e+003, 7.230955e-003
3.507881e+003, 7.182124e-003
3.509809e+003, 6.608139e-003
3.511738e+003, 5.792639e-003
3.513666e+003, 6.047774e-003
3.515595e+003, 6.991372e-003
3.517523e+003, 7.205010e-003
3.519452e+003, 7.041864e-003
3.521380e+003, 7.460703e-003
3.523309e+003, 7.204232e-003
3.525237e+003, 6.448817e-003
3.527166e+003, 6.507129e-003
3.529094e+003, 6.600257e-003
3.531022e+003, 5.615627e-003
3.532951e+003, 5.483792e-003
3.534879e+003, 5.994278e-003
3.536808e+003, 6.315782e-003
3.538736e+003, 6.514299e-003
3.540665e+003, 6.627749e-003
3.542593e+003, 6.771973e-003
3.544522e+003, 6.882748e-003
3.546450e+003, 6.911013e-003
3.548379e+003, 6.789456e-003
3.550307e+003, 6.296475e-003
3.552236e+003, 5.924105e-003
3.554164e+003, 5.700104e-003
3.556093e+003, 5.873000e-003
3.558021e+003, 5.974268e-003
3.559949e+003, 6.303140e-003
3.561878e+003, 6.603639e-003
3.563806e+003, 6.722929e-003
3.565735e+003, 6.201798e-003
3.567663e+003, 5.928501e-003
3.569592e+003, 5.697920e-003
3.571520e+003, 5.835431e-003
3.573449e+003, 6.254819e-003
3.575377e+003, 6.722002e-003
3.577306e+003, 7.117061e-003
3.579234e+003, 6.912874e-003
3.581163e+003, 6.692999e-003
3.583091e+003, 7.004104e-003
3.585020e+003, 6.917527e-003
3.586948e+003, 6.573151e-003
3.588876e+003, 6.588961e-003
3.590805e+003, 6.615292e-003
3.592733e+003, 6.544824e-003
3.594662e+003, 7.301641e-003
3.596590e+003, 7.111948e-003
3.598519e+003, 6.527035e-003
3.600447e+003, 6.602862e-003
3.602376e+003, 6.620998e-003
3.604304e+003, 6.124603e-003
3.606233e+003, 5.373274e-003
3.608161e+003, 5.154563e-003
3.610090e+003, 5.866832e-003
3.612018e+003, 6.744238e-003
3.613947e+003, 7.139782e-003
3.615875e+003, 7.142725e-003
3.617803e+003, 6.975642e-003
3.619732e+003, 6.766724e-003
3.621660e+003, 6.643159e-003
3.623589e+003, 6.139641e-003
3.625517e+003, 5.792592e-003
3.627446e+003, 5.548364e-003
3.629374e+003, 5.990260e-003
3.631303e+003, 6.845117e-003
3.633231e+003, 6.334116e-003
3.635160e+003, 6.293673e-003
3.637088e+003, 6.606878e-003
3.639017e+003, 6.684581e-003
3.640945e+003, 7.266808e-003
3.642874e+003, 7.690120e-003
3.644802e+003, 6.902159e-003
3.646730e+003, 6.135234e-003
3.648659e+003, 6.251326e-003
3.650587e+003, 5.968896e-003
3.652516e+003, 6.347801e-003
3.654444e+003, 6.795891e-003
3.656373e+003, 6.702607e-003
3.658301e+003, 7.336778e-003
3.660230e+003, 7.122668e-003
3.662158e+003, 6.812201e-003
3.664087e+003, 6.990373e-003
3.666015e+003, 7.581094e-003
3.667944e+003, 7.701064e-003
3.669872e+003, 6.969458e-003
3.671801e+003, 7.880024e-003
3.673729e+003, 8.520375e-003
3.675657e+003, 7.848111e-003
3.677586e+003, 8.097376e-003
3.679514e+003, 7.304091e-003
3.681443e+003, 5.761343e-003
3.683371e+003, 5.867473e-003
3.685300e+003, 6.188825e-003
3.687228e+003, 5.677384e-003
3.689157e+003, 5.402011e-003
3.691085e+003, 5.900891e-003
3.693014e+003, 7.120521e-003
3.694942e+003, 7.408792e-003
3.696871e+003, 6.708900e-003
3.698799e+003, 6.359334e-003
3.700728e+003, 6.550126e-003
3.702656e+003, 7.009724e-003
3.704584e+003, 7.263512e-003
3.706513e+003, 6.831840e-003
3.708441e+003, 6.181255e-003
3.710370e+003, 6.031671e-003
3.712298e+003, 5.555439e-003
3.714227e+003, 5.268001e-003
3.716155e+003, 6.170152e-003
3.718084e+003, 6.743284e-003
3.720012e+003, 5.972370e-003
3.721941e+003, 5.747205e-003
3.723869e+003, 6.355785e-003
3.725798e+003, 6.604829e-003
3.727726e+003, 6.782854e-003
3.729655e+003, 6.337416e-003
3.731583e+003, 5.482940e-003
3.733511e+003, 5.812720e-003
3.735440e+003, 5.943645e-003
3.737368e+003, 5.580858e-003
3.739297e+003, 5.663431e-003
3.741225e+003, 5.941789e-003
3.743154e+003, 4.927430e-003
3.745082e+003, 4.903589e-003
3.747011e+003, 5.910239e-003
3.748939e+003, 5.495578e-003
3.750868e+003, 5.104532e-003
3.752796e+003, 5.584467e-003
3.754725e+003, 5.722547e-003
3.756653e+003, 5.738229e-003
3.758582e+003, 5.986901e-003
3.760510e+003, 5.811528e-003
3.762438e+003, 5.766852e-003
3.764367e+003, 6.117072e-003
3.766295e+003, 7.144274e-003
3.768224e+003, 7.457841e-003
3.770152e+003, 6.889025e-003
3.772081e+003, 6.940379e-003
3.774009e+003, 6.445337e-003
3.775938e+003, 5.378843e-003
3.777866e+003, 5.367410e-003
3.779795e+003, 6.262508e-003
3.781723e+003, 6.571519e-003
3.783652e+003, 7.019128e-003
3.785580e+003, 7.372575e-003
3.787509e+003, 6.562450e-003
3.789437e+003, 6.435716e-003
3.791365e+003, 6.036621e-003
3.793294e+003, 5.883660e-003
3.795222e+003, 6.400001e-003
3.797151e+003, 6.862690e-003
3.799079e+003, 6.605947e-003
3.801008e+003, 6.025983e-003
3.802936e+003, 6.105695e-003
3.804865e+003, 6.245472e-003
3.806793e+003, 6.162805e-003
3.808722e+003, 5.977977e-003
3.810650e+003, 5.960737e-003
3.812579e+003, 6.227876e-003
3.814507e+003, 5.395835e-003
3.816436e+003, 4.042810e-003
3.818364e+003, 4.846104e-003
3.820292e+003, 5.352890e-003
3.822221e+003, 5.461322e-003
3.824149e+003, 5.855557e-003
3.826078e+003, 6.044279e-003
3.828006e+003, 5.953520e-003
3.829935e+003, 5.764877e-003
3.831863e+003, 5.644729e-003
3.833792e+003, 5.431423e-003
3.835720e+003, 4.594619e-003
3.837649e+003, 4.508835e-003
3.839577e+003, 5.756109e-003
3.841506e+003, 6.318413e-003
3.843434e+003, 6.472962e-003
3.845363e+003, 6.401912e-003
3.847291e+003, 6.403223e-003
3.849219e+003, 5.928971e-003
3.851148e+003, 4.871472e-003
3.853076e+003, 3.574573e-003
3.855005e+003, 4.492501e-003
3.856933e+003, 5.768443e-003
3.858862e+003, 6.019109e-003
3.860790e+003, 6.261335e-003
3.862719e+003, 5.661059e-003
3.864647e+003, 5.076960e-003
3.866576e+003, 5.880025e-003
3.868504e+003, 5.596414e-003
3.870433e+003, 5.401471e-003
3.872361e+003, 6.123877e-003
3.874290e+003, 6.216239e-003
3.876218e+003, 6.270921e-003
3.878146e+003, 5.532726e-003
3.880075e+003, 5.476814e-003
3.882003e+003, 5.591311e-003
3.883932e+003, 5.359651e-003
3.885860e+003, 5.299048e-003
3.887789e+003, 5.677268e-003
3.889717e+003, 6.129414e-003
3.891646e+003, 6.005004e-003
3.893574e+003, 6.014350e-003
3.895503e+003, 5.942220e-003
3.897431e+003, 5.549848e-003
3.899360e+003, 5.038725e-003
3.901288e+003, 4.537366e-003
3.903217e+003, 4.944664e-003
3.905145e+003, 5.381788e-003
3.907073e+003, 5.783347e-003
3.909002e+003, 6.077497e-003
3.910930e+003, 6.448214e-003
3.912859e+003, 6.280027e-003
3.914787e+003, 5.771047e-003
3.916716e+003, 5.910394e-003
3.918644e+003, 6.208472e-003
3.920573e+003, 6.085745e-003
3.922501e+003, 5.701025e-003
3.924430e+003, 5.551217e-003
3.926358e+003, 6.253574e-003
3.928287e+003, 6.569976e-003
3.930215e+003, 6.827384e-003
3.932144e+003, 6.341336e-003
3.934072e+003, 5.788771e-003
3.936000e+003, 6.550259e-003
3.937929e+003, 7.143541e-003
3.939857e+003, 6.096697e-003
3.941786e+003, 5.326289e-003
3.943714e+003, 5.817527e-003
3.945643e+003, 5.898453e-003
3.947571e+003, 5.469608e-003
3.949500e+003, 5.543200e-003
3.951428e+003, 6.034249e-003
3.953357e+003, 6.158293e-003
3.955285e+003, 6.050327e-003
3.957214e+003, 6.295827e-003
3.959142e+003, 6.286948e-003
3.961071e+003, 5.998687e-003
3.962999e+003, 5.890426e-003
3.964927e+003, 5.815025e-003
3.966856e+003, 5.613870e-003
3.968784e+003, 5.802669e-003
3.970713e+003, 6.243319e-003
3.972641e+003, 6.470194e-003
3.974570e+003, 6.131959e-003
3.976498e+003, 5.469856e-003
3.978427e+003, 6.109534e-003
3.980355e+003, 7.341599e-003
3.982284e+003, 7.247403e-003
3.984212e+003, 6.347864e-003
3.986141e+003, 5.789262e-003
3.988069e+003, 5.824320e-003
3.989998e+003, 6.318046e-003
3.991926e+003, 6.360433e-003
3.993854e+003, 5.929802e-003
3.995783e+003, 6.400801e-003
3.997711e+003, 6.479839e-003
3.999640e+003, 5.767100e-003
##END=



