##NAMES=Beryl
##RRUFFID=R050347
##IDEAL CHEMISTRY=Be_3_Al_2_Si_6_O_18_
##LOCALITY=North Keystone, South Dakota, USA
##OWNER=RRUFF
##SOURCE=California Institute of Technology
##DESCRIPTION=Colorless fragment
##STATUS=The identification of this mineral has been confirmed by X-ray diffraction and chemical analysis
##URL=rruff.info/R050347
##MEASURED CHEMISTRY=(Be_0.96_Li_0.04_)_3_Al_2.00_(Si_0.99_Al_0.01_)_6_O_18_ Î‡0.17Na
3.991926e+002, 2.388744e-001
4.011211e+002, 2.602739e-001
4.030496e+002, 2.615252e-001
4.049780e+002, 2.768822e-001
4.069065e+002, 2.829970e-001
4.088350e+002, 2.842120e-001
4.107634e+002, 2.911307e-001
4.126919e+002, 3.025778e-001
4.146204e+002, 3.081191e-001
4.165488e+002, 3.059393e-001
4.184773e+002, 3.053979e-001
4.204058e+002, 3.101250e-001
4.223342e+002, 3.144908e-001
4.242627e+002, 3.177979e-001
4.261912e+002, 3.196042e-001
4.281196e+002, 3.164777e-001
4.300481e+002, 3.159026e-001
4.319766e+002, 3.151643e-001
4.339050e+002, 3.102714e-001
4.358335e+002, 3.050216e-001
4.377620e+002, 2.933222e-001
4.396904e+002, 2.841713e-001
4.416189e+002, 2.789785e-001
4.435474e+002, 2.649968e-001
4.454758e+002, 2.528570e-001
4.474043e+002, 2.485729e-001
4.493328e+002, 2.406961e-001
4.512612e+002, 2.297367e-001
4.531897e+002, 2.225126e-001
4.551182e+002, 2.165363e-001
4.570466e+002, 2.108843e-001
4.589751e+002, 2.051787e-001
4.609036e+002, 2.002770e-001
4.628320e+002, 1.974777e-001
4.647605e+002, 2.000170e-001
4.666890e+002, 2.023827e-001
4.686174e+002, 2.040588e-001
4.705459e+002, 2.108468e-001
4.724744e+002, 2.175898e-001
4.744028e+002, 2.219783e-001
4.763313e+002, 2.284924e-001
4.782598e+002, 2.368476e-001
4.801882e+002, 2.451236e-001
4.821167e+002, 2.531410e-001
4.840452e+002, 2.594817e-001
4.859736e+002, 2.646649e-001
4.879021e+002, 2.691896e-001
4.898306e+002, 2.711855e-001
4.917590e+002, 2.710708e-001
4.936875e+002, 2.643434e-001
4.956160e+002, 2.519476e-001
4.975444e+002, 2.370062e-001
4.994729e+002, 2.214429e-001
5.014014e+002, 2.057534e-001
5.033298e+002, 1.955313e-001
5.052583e+002, 1.986412e-001
5.071868e+002, 2.123828e-001
5.091152e+002, 2.305784e-001
5.110437e+002, 2.474117e-001
5.129722e+002, 2.590182e-001
5.149006e+002, 2.668827e-001
5.168291e+002, 2.692991e-001
5.187576e+002, 2.677982e-001
5.206860e+002, 2.640863e-001
5.226145e+002, 2.569250e-001
5.245430e+002, 2.475478e-001
5.264714e+002, 2.379013e-001
5.283999e+002, 2.291222e-001
5.303284e+002, 2.183565e-001
5.322568e+002, 2.063555e-001
5.341853e+002, 1.948809e-001
5.361138e+002, 1.831479e-001
5.380422e+002, 1.713649e-001
5.399707e+002, 1.597594e-001
5.418992e+002, 1.486665e-001
5.438276e+002, 1.388977e-001
5.457561e+002, 1.306460e-001
5.476846e+002, 1.229175e-001
5.496130e+002, 1.153478e-001
5.515415e+002, 1.075038e-001
5.534700e+002, 1.014134e-001
5.553984e+002, 9.605037e-002
5.573269e+002, 9.172096e-002
5.592554e+002, 8.937225e-002
5.611838e+002, 8.812752e-002
5.631123e+002, 8.781350e-002
5.650408e+002, 8.953462e-002
5.669692e+002, 9.253971e-002
5.688977e+002, 9.541169e-002
5.708262e+002, 9.727275e-002
5.727546e+002, 9.830027e-002
5.746831e+002, 9.823498e-002
5.766116e+002, 9.945839e-002
5.785400e+002, 1.038368e-001
5.804685e+002, 1.117743e-001
5.823970e+002, 1.254950e-001
5.843254e+002, 1.451687e-001
5.862539e+002, 1.669283e-001
5.881824e+002, 1.843484e-001
5.901108e+002, 1.926424e-001
5.920393e+002, 1.912454e-001
5.939678e+002, 1.818031e-001
5.958962e+002, 1.675918e-001
5.978247e+002, 1.523359e-001
5.997532e+002, 1.373518e-001
6.016816e+002, 1.220328e-001
6.036101e+002, 1.076557e-001
6.055386e+002, 9.596799e-002
6.074670e+002, 8.707012e-002
6.093955e+002, 8.022528e-002
6.113240e+002, 7.526132e-002
6.132524e+002, 7.205414e-002
6.151809e+002, 6.990001e-002
6.171094e+002, 6.962738e-002
6.190378e+002, 7.076079e-002
6.209663e+002, 7.151011e-002
6.228948e+002, 7.217064e-002
6.248232e+002, 7.352675e-002
6.267517e+002, 7.555053e-002
6.286802e+002, 7.783019e-002
6.306086e+002, 8.070295e-002
6.325371e+002, 8.538453e-002
6.344656e+002, 9.175012e-002
6.363940e+002, 9.942499e-002
6.383225e+002, 1.079816e-001
6.402510e+002, 1.187638e-001
6.421794e+002, 1.306578e-001
6.441079e+002, 1.436926e-001
6.460364e+002, 1.581046e-001
6.479648e+002, 1.708684e-001
6.498933e+002, 1.787869e-001
6.518218e+002, 1.799714e-001
6.537502e+002, 1.756033e-001
6.556787e+002, 1.699843e-001
6.576072e+002, 1.696138e-001
6.595356e+002, 1.764382e-001
6.614641e+002, 1.879709e-001
6.633926e+002, 2.016657e-001
6.653210e+002, 2.173443e-001
6.672495e+002, 2.328331e-001
6.691780e+002, 2.464377e-001
6.711064e+002, 2.567474e-001
6.730349e+002, 2.641357e-001
6.749634e+002, 2.681354e-001
6.768918e+002, 2.664881e-001
6.788203e+002, 2.590618e-001
6.807488e+002, 2.478706e-001
6.826772e+002, 2.343444e-001
6.846057e+002, 2.194134e-001
6.865342e+002, 2.043534e-001
6.884626e+002, 1.903985e-001
6.903911e+002, 1.779214e-001
6.923196e+002, 1.669154e-001
6.942480e+002, 1.576282e-001
6.961765e+002, 1.493031e-001
6.981050e+002, 1.419518e-001
7.000334e+002, 1.352559e-001
7.019619e+002, 1.292688e-001
7.038904e+002, 1.243459e-001
7.058188e+002, 1.203273e-001
7.077473e+002, 1.178774e-001
7.096758e+002, 1.162857e-001
7.116042e+002, 1.152081e-001
7.135327e+002, 1.154994e-001
7.154612e+002, 1.171232e-001
7.173896e+002, 1.198383e-001
7.193181e+002, 1.236260e-001
7.212466e+002, 1.279355e-001
7.231750e+002, 1.332445e-001
7.251035e+002, 1.389931e-001
7.270320e+002, 1.449610e-001
7.289604e+002, 1.511999e-001
7.308889e+002, 1.572105e-001
7.328174e+002, 1.625273e-001
7.347458e+002, 1.666672e-001
7.366743e+002, 1.694380e-001
7.386028e+002, 1.712906e-001
7.405313e+002, 1.713853e-001
7.424597e+002, 1.700609e-001
7.443882e+002, 1.674518e-001
7.463167e+002, 1.634694e-001
7.482451e+002, 1.584038e-001
7.501736e+002, 1.526543e-001
7.521021e+002, 1.461199e-001
7.540305e+002, 1.386296e-001
7.559590e+002, 1.310873e-001
7.578875e+002, 1.243045e-001
7.598159e+002, 1.179101e-001
7.617444e+002, 1.117610e-001
7.636729e+002, 1.061322e-001
7.656013e+002, 1.018814e-001
7.675298e+002, 9.891799e-002
7.694583e+002, 9.702555e-002
7.713867e+002, 9.671842e-002
7.733152e+002, 9.782121e-002
7.752437e+002, 9.956837e-002
7.771721e+002, 1.017802e-001
7.791006e+002, 1.050192e-001
7.810291e+002, 1.094524e-001
7.829575e+002, 1.145255e-001
7.848860e+002, 1.202165e-001
7.868145e+002, 1.270911e-001
7.887429e+002, 1.345934e-001
7.906714e+002, 1.428002e-001
7.925999e+002, 1.519164e-001
7.945283e+002, 1.608246e-001
7.964568e+002, 1.695342e-001
7.983853e+002, 1.775463e-001
8.003137e+002, 1.845862e-001
8.022422e+002, 1.903052e-001
8.041707e+002, 1.938358e-001
8.060991e+002, 1.947743e-001
8.080276e+002, 1.938256e-001
8.099561e+002, 1.913074e-001
8.118845e+002, 1.871987e-001
8.138130e+002, 1.824203e-001
8.157415e+002, 1.770333e-001
8.176699e+002, 1.707996e-001
8.195984e+002, 1.640842e-001
8.215269e+002, 1.574655e-001
8.234553e+002, 1.508959e-001
8.253838e+002, 1.444330e-001
8.273123e+002, 1.377756e-001
8.292407e+002, 1.311343e-001
8.311692e+002, 1.251528e-001
8.330977e+002, 1.192682e-001
8.350261e+002, 1.135216e-001
8.369546e+002, 1.083831e-001
8.388831e+002, 1.041417e-001
8.408115e+002, 1.005731e-001
8.427400e+002, 9.722503e-002
8.446685e+002, 9.448441e-002
8.465969e+002, 9.253840e-002
8.485254e+002, 9.119663e-002
8.504539e+002, 9.038091e-002
8.523823e+002, 8.992544e-002
8.543108e+002, 8.983036e-002
8.562393e+002, 9.007152e-002
8.581677e+002, 9.109516e-002
8.600962e+002, 9.244543e-002
8.620247e+002, 9.423751e-002
8.639531e+002, 9.672523e-002
8.658816e+002, 9.946669e-002
8.678101e+002, 1.025792e-001
8.697385e+002, 1.062404e-001
8.716670e+002, 1.103935e-001
8.735955e+002, 1.147156e-001
8.755239e+002, 1.194218e-001
8.774524e+002, 1.249018e-001
8.793809e+002, 1.306958e-001
8.813093e+002, 1.372601e-001
8.832378e+002, 1.439695e-001
8.851663e+002, 1.508515e-001
8.870947e+002, 1.583660e-001
8.890232e+002, 1.663875e-001
8.909517e+002, 1.744523e-001
8.928801e+002, 1.826365e-001
8.948085e+002, 1.913424e-001
8.967370e+002, 2.006920e-001
8.986655e+002, 2.105622e-001
9.005939e+002, 2.205318e-001
9.025224e+002, 2.303286e-001
9.044509e+002, 2.397893e-001
9.063793e+002, 2.493580e-001
9.083078e+002, 2.588235e-001
9.102363e+002, 2.681659e-001
9.121647e+002, 2.772754e-001
9.140932e+002, 2.863564e-001
9.160217e+002, 2.958659e-001
9.179501e+002, 3.042988e-001
9.198786e+002, 3.118783e-001
9.218071e+002, 3.192195e-001
9.237355e+002, 3.256563e-001
9.256640e+002, 3.313224e-001
9.275925e+002, 3.370294e-001
9.295209e+002, 3.424781e-001
9.314494e+002, 3.468333e-001
9.333779e+002, 3.506818e-001
9.353063e+002, 3.540171e-001
9.372348e+002, 3.562200e-001
9.391633e+002, 3.576513e-001
9.410917e+002, 3.590836e-001
9.430202e+002, 3.600843e-001
9.449487e+002, 3.606742e-001
9.468771e+002, 3.602275e-001
9.488056e+002, 3.584094e-001
9.507341e+002, 3.552105e-001
9.526625e+002, 3.501814e-001
9.545910e+002, 3.436346e-001
9.565195e+002, 3.353183e-001
9.584479e+002, 3.252839e-001
9.603764e+002, 3.134123e-001
9.623049e+002, 3.005972e-001
9.642333e+002, 2.871285e-001
9.661618e+002, 2.737302e-001
9.680903e+002, 2.607712e-001
9.700187e+002, 2.479900e-001
9.719472e+002, 2.361491e-001
9.738757e+002, 2.254184e-001
9.758041e+002, 2.151188e-001
9.777326e+002, 2.057973e-001
9.796611e+002, 1.969971e-001
9.815895e+002, 1.887156e-001
9.835180e+002, 1.805957e-001
9.854465e+002, 1.726780e-001
9.873749e+002, 1.652814e-001
9.893034e+002, 1.588766e-001
9.912319e+002, 1.535553e-001
9.931603e+002, 1.491794e-001
9.950888e+002, 1.457843e-001
9.970173e+002, 1.435860e-001
9.989457e+002, 1.428110e-001
1.000874e+003, 1.433574e-001
1.002803e+003, 1.446227e-001
1.004731e+003, 1.466193e-001
1.006660e+003, 1.491444e-001
1.008588e+003, 1.518089e-001
1.010517e+003, 1.537684e-001
1.012445e+003, 1.550439e-001
1.014373e+003, 1.554110e-001
1.016302e+003, 1.546446e-001
1.018230e+003, 1.530080e-001
1.020159e+003, 1.505972e-001
1.022087e+003, 1.474091e-001
1.024016e+003, 1.442612e-001
1.025944e+003, 1.409670e-001
1.027873e+003, 1.377299e-001
1.029801e+003, 1.342471e-001
1.031730e+003, 1.304145e-001
1.033658e+003, 1.269497e-001
1.035587e+003, 1.234739e-001
1.037515e+003, 1.200231e-001
1.039444e+003, 1.168413e-001
1.041372e+003, 1.140907e-001
1.043301e+003, 1.117397e-001
1.045229e+003, 1.102045e-001
1.047157e+003, 1.090282e-001
1.049086e+003, 1.081586e-001
1.051014e+003, 1.078663e-001
1.052943e+003, 1.079554e-001
1.054871e+003, 1.081603e-001
1.056800e+003, 1.083748e-001
1.058728e+003, 1.086266e-001
1.060657e+003, 1.091918e-001
1.062585e+003, 1.091140e-001
1.064514e+003, 1.083583e-001
1.066442e+003, 1.069934e-001
1.068371e+003, 1.050792e-001
1.070299e+003, 1.031450e-001
1.072228e+003, 1.006669e-001
1.074156e+003, 9.770941e-002
1.076084e+003, 9.490898e-002
1.078013e+003, 9.175561e-002
1.079941e+003, 8.848279e-002
1.081870e+003, 8.562396e-002
1.083798e+003, 8.293467e-002
1.085727e+003, 7.986266e-002
1.087655e+003, 7.690205e-002
1.089584e+003, 7.418317e-002
1.091512e+003, 7.177178e-002
1.093441e+003, 6.983053e-002
1.095369e+003, 6.818281e-002
1.097298e+003, 6.680109e-002
1.099226e+003, 6.590794e-002
1.101155e+003, 6.516540e-002
1.103083e+003, 6.451944e-002
1.105011e+003, 6.450379e-002
1.106940e+003, 6.485929e-002
1.108868e+003, 6.515405e-002
1.110797e+003, 6.553142e-002
1.112725e+003, 6.625881e-002
1.114654e+003, 6.758592e-002
1.116582e+003, 6.933223e-002
1.118511e+003, 7.148938e-002
1.120439e+003, 7.429736e-002
1.122368e+003, 7.766495e-002
1.124296e+003, 8.125362e-002
1.126225e+003, 8.514417e-002
1.128153e+003, 8.949397e-002
1.130082e+003, 9.436352e-002
1.132010e+003, 9.967653e-002
1.133938e+003, 1.049410e-001
1.135867e+003, 1.099050e-001
1.137795e+003, 1.142823e-001
1.139724e+003, 1.183057e-001
1.141652e+003, 1.213416e-001
1.143581e+003, 1.235585e-001
1.145509e+003, 1.250864e-001
1.147438e+003, 1.257754e-001
1.149366e+003, 1.262665e-001
1.151295e+003, 1.264599e-001
1.153223e+003, 1.267885e-001
1.155152e+003, 1.280393e-001
1.157080e+003, 1.302668e-001
1.159009e+003, 1.339451e-001
1.160937e+003, 1.387085e-001
1.162865e+003, 1.438208e-001
1.164794e+003, 1.492093e-001
1.166722e+003, 1.549273e-001
1.168651e+003, 1.610424e-001
1.170579e+003, 1.663996e-001
1.172508e+003, 1.711398e-001
1.174436e+003, 1.756645e-001
1.176365e+003, 1.794728e-001
1.178293e+003, 1.827354e-001
1.180222e+003, 1.855591e-001
1.182150e+003, 1.877621e-001
1.184079e+003, 1.899920e-001
1.186007e+003, 1.925159e-001
1.187936e+003, 1.955561e-001
1.189864e+003, 1.990563e-001
1.191792e+003, 2.024004e-001
1.193721e+003, 2.055221e-001
1.195649e+003, 2.073219e-001
1.197578e+003, 2.071354e-001
1.199506e+003, 2.047306e-001
1.201435e+003, 2.000156e-001
1.203363e+003, 1.937449e-001
1.205292e+003, 1.869664e-001
1.207220e+003, 1.802259e-001
1.209149e+003, 1.729936e-001
1.211077e+003, 1.657193e-001
1.213006e+003, 1.586846e-001
1.214934e+003, 1.519109e-001
1.216863e+003, 1.456891e-001
1.218791e+003, 1.397781e-001
1.220719e+003, 1.339485e-001
1.222648e+003, 1.278979e-001
1.224576e+003, 1.219248e-001
1.226505e+003, 1.162785e-001
1.228433e+003, 1.109090e-001
1.230362e+003, 1.056355e-001
1.232290e+003, 1.003836e-001
1.234219e+003, 9.509797e-002
1.236147e+003, 9.037187e-002
1.238076e+003, 8.587365e-002
1.240004e+003, 8.100758e-002
1.241933e+003, 7.650218e-002
1.243861e+003, 7.248410e-002
1.245790e+003, 6.853262e-002
1.247718e+003, 6.459498e-002
1.249646e+003, 6.055765e-002
1.251575e+003, 5.694630e-002
1.253503e+003, 5.350259e-002
1.255432e+003, 5.009056e-002
1.257360e+003, 4.700793e-002
1.259289e+003, 4.419449e-002
1.261217e+003, 4.125485e-002
1.263146e+003, 3.831038e-002
1.265074e+003, 3.556586e-002
1.267003e+003, 3.264755e-002
1.268931e+003, 2.984940e-002
1.270860e+003, 2.737978e-002
1.272788e+003, 2.483142e-002
1.274717e+003, 2.178116e-002
1.276645e+003, 1.904959e-002
1.278573e+003, 1.673148e-002
1.280502e+003, 1.451747e-002
1.282430e+003, 1.293966e-002
1.284359e+003, 1.167269e-002
1.286287e+003, 1.041567e-002
1.288216e+003, 9.755298e-003
1.290144e+003, 9.356678e-003
1.292073e+003, 8.709359e-003
1.294001e+003, 8.193434e-003
1.295930e+003, 7.858629e-003
1.297858e+003, 7.587031e-003
1.299787e+003, 7.285764e-003
1.301715e+003, 7.044530e-003
1.303644e+003, 6.649673e-003
1.305572e+003, 6.482970e-003
1.307500e+003, 6.437554e-003
1.309429e+003, 6.444459e-003
1.311357e+003, 6.475660e-003
1.313286e+003, 6.257026e-003
1.315214e+003, 6.086833e-003
1.317143e+003, 5.941484e-003
1.319071e+003, 5.866192e-003
1.321000e+003, 5.743491e-003
1.322928e+003, 5.693259e-003
1.324857e+003, 5.633464e-003
1.326785e+003, 5.471747e-003
1.328714e+003, 5.312743e-003
1.330642e+003, 5.326638e-003
1.332571e+003, 5.132749e-003
1.334499e+003, 4.885592e-003
1.336427e+003, 4.739903e-003
1.338356e+003, 4.613080e-003
1.340284e+003, 4.443969e-003
1.342213e+003, 4.658202e-003
1.344141e+003, 4.719309e-003
1.346070e+003, 4.435513e-003
1.347998e+003, 4.309928e-003
1.349927e+003, 4.346825e-003
1.351855e+003, 4.292028e-003
1.353784e+003, 4.205799e-003
1.355712e+003, 4.194326e-003
1.357641e+003, 4.214067e-003
1.359569e+003, 4.133717e-003
1.361498e+003, 4.127179e-003
1.363426e+003, 3.923206e-003
1.365354e+003, 3.769976e-003
1.367283e+003, 3.741928e-003
1.369211e+003, 3.765651e-003
1.371140e+003, 3.738357e-003
1.373068e+003, 3.731666e-003
1.374997e+003, 3.655812e-003
1.376925e+003, 3.576943e-003
1.378854e+003, 3.676732e-003
1.380782e+003, 3.528191e-003
1.382711e+003, 3.467773e-003
1.384639e+003, 3.548753e-003
1.386568e+003, 3.461550e-003
1.388496e+003, 3.523513e-003
1.390424e+003, 3.773504e-003
1.392353e+003, 3.739511e-003
1.394281e+003, 3.739392e-003
1.396210e+003, 3.890604e-003
1.398138e+003, 3.823202e-003
1.400067e+003, 3.682469e-003
1.401995e+003, 3.439704e-003
1.403924e+003, 3.334557e-003
1.405852e+003, 3.528951e-003
1.407781e+003, 3.760577e-003
1.409709e+003, 3.373472e-003
1.411638e+003, 3.125296e-003
1.413566e+003, 3.352043e-003
1.415495e+003, 3.492021e-003
1.417423e+003, 3.420739e-003
1.419351e+003, 3.312189e-003
1.421280e+003, 3.544989e-003
1.423208e+003, 3.638828e-003
1.425137e+003, 3.643237e-003
1.427065e+003, 3.629474e-003
1.428994e+003, 3.401719e-003
1.430922e+003, 3.156603e-003
1.432851e+003, 3.238021e-003
1.434779e+003, 3.347570e-003
1.436708e+003, 3.336084e-003
1.438636e+003, 3.233750e-003
1.440565e+003, 2.983414e-003
1.442493e+003, 2.997204e-003
1.444422e+003, 3.103073e-003
1.446350e+003, 3.105867e-003
1.448278e+003, 2.957587e-003
1.450207e+003, 2.845138e-003
1.452135e+003, 2.998772e-003
1.454064e+003, 3.031558e-003
1.455992e+003, 2.869816e-003
1.457921e+003, 2.773078e-003
1.459849e+003, 2.623728e-003
1.461778e+003, 2.559156e-003
1.463706e+003, 2.522458e-003
1.465635e+003, 2.548063e-003
1.467563e+003, 2.681733e-003
1.469492e+003, 2.879304e-003
1.471420e+003, 3.280439e-003
1.473349e+003, 3.326694e-003
1.475277e+003, 3.223939e-003
1.477205e+003, 3.185603e-003
1.479134e+003, 3.001739e-003
1.481062e+003, 2.947231e-003
1.482991e+003, 3.010751e-003
1.484919e+003, 3.019659e-003
1.486848e+003, 2.971909e-003
1.488776e+003, 2.682404e-003
1.490705e+003, 2.724220e-003
1.492633e+003, 2.635372e-003
1.494562e+003, 2.648125e-003
1.496490e+003, 2.993822e-003
1.498419e+003, 2.652616e-003
1.500347e+003, 2.344381e-003
1.502276e+003, 2.447264e-003
1.504204e+003, 2.464013e-003
1.506132e+003, 2.526936e-003
1.508061e+003, 2.344449e-003
1.509989e+003, 2.050163e-003
1.511918e+003, 2.042379e-003
1.513846e+003, 2.138125e-003
1.515775e+003, 2.247830e-003
1.517703e+003, 2.293481e-003
1.519632e+003, 2.157410e-003
1.521560e+003, 2.332448e-003
1.523489e+003, 2.541512e-003
1.525417e+003, 2.726192e-003
1.527346e+003, 2.816946e-003
1.529274e+003, 2.703118e-003
1.531203e+003, 2.514198e-003
1.533131e+003, 2.437466e-003
1.535059e+003, 2.874642e-003
1.536988e+003, 3.145498e-003
1.538916e+003, 3.149393e-003
1.540845e+003, 3.455385e-003
1.542773e+003, 3.887969e-003
1.544702e+003, 4.078698e-003
1.546630e+003, 4.113386e-003
1.548559e+003, 3.930367e-003
1.550487e+003, 3.674146e-003
1.552416e+003, 3.448450e-003
1.554344e+003, 3.319864e-003
1.556273e+003, 3.274860e-003
1.558201e+003, 3.258374e-003
1.560130e+003, 3.317675e-003
1.562058e+003, 3.093745e-003
1.563986e+003, 2.990698e-003
1.565915e+003, 3.329926e-003
1.567843e+003, 3.445596e-003
1.569772e+003, 3.785586e-003
1.571700e+003, 3.803904e-003
1.573629e+003, 3.561609e-003
1.575557e+003, 3.778750e-003
1.577486e+003, 4.057625e-003
1.579414e+003, 4.361769e-003
1.581343e+003, 4.131377e-003
1.583271e+003, 3.858708e-003
1.585200e+003, 4.051735e-003
1.587128e+003, 4.012126e-003
1.589057e+003, 3.927611e-003
1.590985e+003, 4.175237e-003
1.592913e+003, 4.307005e-003
1.594842e+003, 4.688524e-003
1.596770e+003, 5.249990e-003
1.598699e+003, 5.798874e-003
1.600627e+003, 6.019715e-003
1.602556e+003, 5.736942e-003
1.604484e+003, 4.974530e-003
1.606413e+003, 4.757964e-003
1.608341e+003, 4.955037e-003
1.610270e+003, 4.837560e-003
1.612198e+003, 4.811189e-003
1.614127e+003, 5.058832e-003
1.616055e+003, 5.540251e-003
1.617984e+003, 6.100347e-003
1.619912e+003, 7.142875e-003
1.621840e+003, 8.320485e-003
1.623769e+003, 9.372666e-003
1.625697e+003, 1.053799e-002
1.627626e+003, 1.175911e-002
1.629554e+003, 1.286110e-002
1.631483e+003, 1.353535e-002
1.633411e+003, 1.271322e-002
1.635340e+003, 1.081151e-002
1.637268e+003, 8.529196e-003
1.639197e+003, 6.568543e-003
1.641125e+003, 5.531441e-003
1.643054e+003, 4.994215e-003
1.644982e+003, 4.717680e-003
1.646911e+003, 4.740076e-003
1.648839e+003, 4.565701e-003
1.650767e+003, 4.603905e-003
1.652696e+003, 4.747355e-003
1.654624e+003, 4.442473e-003
1.656553e+003, 4.261885e-003
1.658481e+003, 4.178351e-003
1.660410e+003, 3.773009e-003
1.662338e+003, 3.721194e-003
1.664267e+003, 3.840035e-003
1.666195e+003, 3.767786e-003
1.668124e+003, 3.518003e-003
1.670052e+003, 3.407199e-003
1.671981e+003, 3.504649e-003
1.673909e+003, 3.197162e-003
1.675838e+003, 3.088027e-003
1.677766e+003, 3.159247e-003
1.679694e+003, 3.114641e-003
1.681623e+003, 3.180892e-003
1.683551e+003, 3.082019e-003
1.685480e+003, 2.779346e-003
1.687408e+003, 2.956585e-003
1.689337e+003, 2.960301e-003
1.691265e+003, 2.637416e-003
1.693194e+003, 2.298061e-003
1.695122e+003, 2.438786e-003
1.697051e+003, 2.790919e-003
1.698979e+003, 2.159218e-003
1.700908e+003, 1.750069e-003
1.702836e+003, 1.950025e-003
1.704765e+003, 1.775100e-003
1.706693e+003, 1.519632e-003
1.708621e+003, 1.381523e-003
1.710550e+003, 1.368092e-003
1.712478e+003, 1.271809e-003
1.714407e+003, 1.432642e-003
1.716335e+003, 1.439780e-003
1.718264e+003, 1.167128e-003
1.720192e+003, 1.277937e-003
1.722121e+003, 1.489686e-003
1.724049e+003, 1.143939e-003
1.725978e+003, 7.742188e-004
1.727906e+003, 8.189859e-004
1.729835e+003, 8.919715e-004
1.731763e+003, 6.471840e-004
1.733692e+003, 4.260118e-004
1.735620e+003, 1.044380e-003
1.737548e+003, 1.241005e-003
1.739477e+003, 7.340038e-004
1.741405e+003, 4.268682e-004
1.743334e+003, 1.955554e-004
1.745262e+003, 6.049007e-005
1.747191e+003, -9.250495e-005
1.749119e+003, -1.159099e-005
1.751048e+003, 4.739912e-004
1.752976e+003, 1.103392e-003
1.754905e+003, 1.444928e-003
1.756833e+003, 1.458064e-003
1.758762e+003, 1.507660e-003
1.760690e+003, 1.714046e-003
1.762619e+003, 1.966606e-003
1.764547e+003, 1.998594e-003
1.766475e+003, 2.156892e-003
1.768404e+003, 2.289997e-003
1.770332e+003, 2.083488e-003
1.772261e+003, 1.743732e-003
1.774189e+003, 1.396729e-003
1.776118e+003, 1.473597e-003
1.778046e+003, 1.724447e-003
1.779975e+003, 1.863110e-003
1.781903e+003, 2.083489e-003
1.783832e+003, 2.289820e-003
1.785760e+003, 2.223993e-003
1.787689e+003, 1.819944e-003
1.789617e+003, 1.423429e-003
1.791546e+003, 1.865224e-003
1.793474e+003, 2.318945e-003
1.795402e+003, 2.009446e-003
1.797331e+003, 1.962945e-003
1.799259e+003, 1.896263e-003
1.801188e+003, 2.006348e-003
1.803116e+003, 1.785528e-003
1.805045e+003, 1.329771e-003
1.806973e+003, 1.648578e-003
1.808902e+003, 2.034229e-003
1.810830e+003, 1.987313e-003
1.812759e+003, 2.116736e-003
1.814687e+003, 1.698639e-003
1.816616e+003, 1.322499e-003
1.818544e+003, 1.175982e-003
1.820473e+003, 1.578208e-003
1.822401e+003, 2.366098e-003
1.824329e+003, 2.045458e-003
1.826258e+003, 1.354128e-003
1.828186e+003, 8.431697e-004
1.830115e+003, 9.297772e-004
1.832043e+003, 1.059244e-003
1.833972e+003, 9.481023e-004
1.835900e+003, 9.323510e-004
1.837829e+003, 9.204666e-004
1.839757e+003, 1.105395e-003
1.841686e+003, 1.154280e-003
1.843614e+003, 1.078106e-003
1.845543e+003, 3.567690e-004
1.847471e+003, 7.926865e-004
1.849400e+003, 1.452377e-003
1.851328e+003, 1.454199e-003
1.853256e+003, 5.020268e-004
1.855185e+003, -1.342388e-004
1.857113e+003, 3.168375e-004
1.859042e+003, 7.455514e-004
1.860970e+003, 7.681736e-004
1.862899e+003, 5.429333e-004
1.864827e+003, 2.164767e-004
1.866756e+003, 2.679303e-004
1.868684e+003, 9.609021e-004
1.870613e+003, 7.498197e-004
1.872541e+003, 1.066816e-003
1.874470e+003, 1.095279e-003
1.876398e+003, 9.687075e-005
1.878327e+003, -8.295710e-005
1.880255e+003, 3.383615e-004
1.882183e+003, 5.058689e-004
1.884112e+003, 1.012838e-003
1.886040e+003, 5.983307e-004
1.887969e+003, 3.082715e-004
1.889897e+003, 4.900220e-004
1.891826e+003, 6.195498e-004
1.893754e+003, 8.370973e-005
1.895683e+003, 1.345535e-004
1.897611e+003, 4.078487e-004
1.899540e+003, 2.395822e-004
1.901468e+003, 9.784996e-005
1.903397e+003, 5.807377e-004
1.905325e+003, 9.317715e-004
1.907254e+003, 6.667228e-004
1.909182e+003, 9.750766e-004
1.911110e+003, 1.532116e-003
1.913039e+003, 7.802764e-004
1.914967e+003, -2.047299e-004
1.916896e+003, 1.060760e-004
1.918824e+003, -7.438639e-006
1.920753e+003, 4.724870e-004
1.922681e+003, 6.689281e-004
1.924610e+003, 1.704749e-004
1.926538e+003, 7.047048e-004
1.928467e+003, 5.839747e-004
1.930395e+003, -3.797191e-004
1.932324e+003, 1.393395e-003
1.934252e+003, 1.759819e-003
1.936181e+003, 4.671671e-004
1.938109e+003, 4.380123e-004
1.940037e+003, 8.267413e-004
1.941966e+003, 4.592922e-004
1.943894e+003, -1.166222e-003
1.945823e+003, -1.625669e-003
1.947751e+003, -1.897384e-003
1.949680e+003, -2.162653e-003
1.951608e+003, -2.706031e-003
1.953537e+003, -3.410223e-003
1.955465e+003, -1.543702e-003
1.957394e+003, -4.338432e-004
1.959322e+003, -1.633707e-003
1.961251e+003, -1.362278e-003
1.963179e+003, -2.481352e-003
1.965108e+003, -1.743219e-003
1.967036e+003, -1.311764e-003
1.968964e+003, -1.438956e-003
1.970893e+003, -1.294579e-003
1.972821e+003, -2.841842e-003
1.974750e+003, -4.201253e-003
1.976678e+003, -3.342784e-003
1.978607e+003, 5.962058e-004
1.980535e+003, 7.033081e-004
1.982464e+003, -9.346758e-005
1.984392e+003, 2.088345e-003
1.986321e+003, 2.733866e-003
1.988249e+003, 2.462563e-003
1.990178e+003, 1.688989e-003
1.992106e+003, 3.569049e-004
1.994035e+003, 9.801807e-004
1.995963e+003, 9.919869e-004
1.997891e+003, 4.097975e-004
1.999820e+003, -1.026257e-003
2.001748e+003, -1.792270e-003
2.003677e+003, -1.588389e-003
2.005605e+003, -3.484438e-003
2.007534e+003, -4.425282e-003
2.009462e+003, -2.178957e-003
2.011391e+003, -1.741243e-003
2.013319e+003, -1.592104e-003
2.015248e+003, -1.148148e-003
2.017176e+003, -3.291689e-003
2.019105e+003, -3.550802e-003
2.021033e+003, -3.118037e-003
2.022962e+003, -1.880426e-003
2.024890e+003, -1.647462e-003
2.026818e+003, -2.101374e-003
2.028747e+003, -2.073531e-003
2.030675e+003, -2.293502e-003
2.032604e+003, -1.561505e-003
2.034532e+003, -9.949169e-004
2.036461e+003, -1.485859e-003
2.038389e+003, -3.649788e-004
2.040318e+003, 8.104012e-004
2.042246e+003, 4.280348e-004
2.044175e+003, -7.817545e-004
2.046103e+003, -1.166404e-003
2.048032e+003, 4.220965e-005
2.049960e+003, 2.659981e-003
2.051889e+003, 1.933072e-003
2.053817e+003, 4.632771e-004
2.055746e+003, 3.704871e-004
2.057674e+003, 1.121362e-003
2.059603e+003, 1.844871e-003
2.061531e+003, -1.292272e-004
2.063459e+003, -2.135202e-003
2.065388e+003, -3.044344e-003
2.067316e+003, -9.887114e-004
2.069245e+003, 6.710654e-004
2.071173e+003, 2.051451e-003
2.073102e+003, 1.600530e-003
2.075030e+003, 5.239217e-005
2.076959e+003, -7.658260e-004
2.078887e+003, 7.214820e-004
2.080816e+003, 1.468981e-003
2.082744e+003, 1.531379e-003
2.084673e+003, 2.038861e-003
2.086601e+003, 1.693099e-003
2.088530e+003, 5.447787e-004
2.090458e+003, 1.088742e-003
2.092386e+003, 1.680151e-003
2.094315e+003, 1.065948e-003
2.096243e+003, 5.145440e-004
2.098172e+003, -1.791378e-004
2.100100e+003, -4.021913e-005
2.102029e+003, 9.954047e-004
2.103957e+003, 1.154124e-003
2.105886e+003, 1.472841e-003
2.107814e+003, 1.563245e-003
2.109743e+003, 1.047625e-003
2.111671e+003, 1.153521e-003
2.113600e+003, 2.246716e-003
2.115528e+003, 2.138452e-003
2.117457e+003, 1.033264e-003
2.119385e+003, 5.749612e-004
2.121313e+003, -3.873443e-004
2.123242e+003, -1.060081e-003
2.125170e+003, -1.429946e-003
2.127099e+003, -1.610951e-003
2.129027e+003, -7.848135e-004
2.130956e+003, -8.112033e-004
2.132884e+003, -1.540690e-003
2.134813e+003, -2.392845e-003
2.136741e+003, -2.919961e-003
2.138670e+003, -3.203913e-003
2.140598e+003, -3.123959e-003
2.142527e+003, -2.819586e-003
2.144455e+003, -2.890836e-003
2.146384e+003, -1.980887e-003
2.148312e+003, -1.093430e-003
2.150240e+003, -1.969801e-003
2.152169e+003, -1.750021e-003
2.154097e+003, -2.402856e-003
2.156026e+003, -8.265843e-003
2.157954e+003, -7.237418e-003
2.159883e+003, 6.763198e-005
2.161811e+003, 1.885319e-003
2.163740e+003, -6.950259e-004
2.165668e+003, 4.691947e-004
2.167597e+003, 1.133590e-003
2.169525e+003, 3.278533e-004
2.171454e+003, 1.149943e-003
2.173382e+003, 2.706016e-003
2.175311e+003, 2.706249e-003
2.177239e+003, 1.848030e-003
2.179167e+003, 1.366014e-003
2.181096e+003, 1.891854e-003
2.183024e+003, 1.652571e-003
2.184953e+003, 1.194132e-003
2.186881e+003, 8.998748e-004
2.188810e+003, 3.361846e-003
2.190738e+003, 5.875960e-003
2.192667e+003, 3.409110e-003
2.194595e+003, 1.713561e-003
2.196524e+003, 2.337635e-003
2.198452e+003, 2.317488e-003
2.200381e+003, 2.252286e-003
2.202309e+003, 2.548489e-003
2.204238e+003, 2.568881e-003
2.206166e+003, 3.432960e-003
2.208094e+003, 4.079679e-003
2.210023e+003, 3.751050e-003
2.211951e+003, 4.141642e-003
2.213880e+003, 3.480374e-003
2.215808e+003, 1.645323e-003
2.217737e+003, 1.086832e-003
2.219665e+003, 2.567688e-003
2.221594e+003, 4.146094e-003
2.223522e+003, 2.390075e-003
2.225451e+003, 7.925678e-004
2.227379e+003, 7.188778e-004
2.229308e+003, 2.280118e-003
2.231236e+003, 2.952595e-003
2.233165e+003, 3.251551e-003
2.235093e+003, 3.874272e-003
2.237021e+003, 3.128961e-003
2.238950e+003, 3.534826e-003
2.240878e+003, 2.109630e-003
2.242807e+003, 8.631593e-004
2.244735e+003, 1.850176e-003
2.246664e+003, 1.253424e-003
2.248592e+003, 9.164539e-005
2.250521e+003, 1.855467e-003
2.252449e+003, 2.780660e-003
2.254378e+003, 1.547817e-003
2.256306e+003, 1.220916e-004
2.258235e+003, 1.018365e-003
2.260163e+003, 1.010764e-003
2.262092e+003, -3.798594e-004
2.264020e+003, 8.967015e-004
2.265948e+003, 2.206070e-003
2.267877e+003, 1.501693e-003
2.269805e+003, 1.158279e-003
2.271734e+003, 1.597203e-003
2.273662e+003, 2.517155e-003
2.275591e+003, 2.104906e-003
2.277519e+003, 2.056326e-003
2.279448e+003, 2.725905e-003
2.281376e+003, 4.545733e-003
2.283305e+003, 5.006915e-003
2.285233e+003, 3.533729e-003
2.287162e+003, 2.438274e-003
2.289090e+003, 2.581458e-003
2.291019e+003, 2.046910e-003
2.292947e+003, 2.623589e-003
2.294875e+003, 3.556423e-003
2.296804e+003, 3.285418e-003
2.298732e+003, 3.196097e-003
2.300661e+003, 2.535811e-003
2.302589e+003, 2.138749e-003
2.304518e+003, 2.429450e-003
2.306446e+003, 2.130001e-003
2.308375e+003, 2.950724e-003
2.310303e+003, 3.643943e-003
2.312232e+003, 3.017819e-003
2.314160e+003, 3.181241e-003
2.316089e+003, 3.965436e-003
2.318017e+003, 3.745687e-003
2.319946e+003, 3.750886e-003
2.321874e+003, 4.170229e-003
2.323802e+003, 4.931442e-003
2.325731e+003, 4.451661e-003
2.327659e+003, 3.817625e-003
2.329588e+003, 3.583648e-003
2.331516e+003, 3.627317e-003
2.333445e+003, 3.865221e-003
2.335373e+003, 3.645277e-003
2.337302e+003, 3.659634e-003
2.339230e+003, 3.611860e-003
2.341159e+003, 3.477911e-003
2.343087e+003, 3.108629e-003
2.345016e+003, 2.994288e-003
2.346944e+003, 2.716639e-003
2.348873e+003, 2.560393e-003
2.350801e+003, 1.930730e-003
2.352729e+003, 1.873739e-003
2.354658e+003, 2.897370e-003
2.356586e+003, 3.469882e-003
2.358515e+003, 2.936128e-003
2.360443e+003, 2.610486e-003
2.362372e+003, 2.286059e-003
2.364300e+003, 2.715835e-003
2.366229e+003, 2.666404e-003
2.368157e+003, 2.298657e-003
2.370086e+003, 2.402852e-003
2.372014e+003, 2.327450e-003
2.373942e+003, 1.983545e-003
2.375871e+003, 1.430744e-003
2.377799e+003, -3.348355e-005
2.379728e+003, 9.533404e-005
2.381656e+003, 5.191470e-004
2.383585e+003, 5.923450e-004
2.385513e+003, 9.479854e-004
2.387442e+003, 1.407452e-003
2.389370e+003, 1.320833e-003
2.391299e+003, 4.391250e-004
2.393227e+003, 9.737508e-004
2.395156e+003, 1.976621e-003
2.397084e+003, 9.428053e-004
2.399012e+003, -3.280788e-004
2.400941e+003, 2.556347e-004
2.402869e+003, 9.698644e-004
2.404798e+003, 4.548366e-004
2.406726e+003, 6.124562e-005
2.408655e+003, 6.437735e-004
2.410583e+003, 9.612258e-004
2.412512e+003, 1.236704e-003
2.414440e+003, 1.142224e-003
2.416369e+003, 1.330627e-003
2.418297e+003, 1.335701e-003
2.420226e+003, 1.090453e-003
2.422154e+003, -1.300135e-005
2.424083e+003, -3.331132e-004
2.426011e+003, 1.296017e-003
2.427939e+003, 8.184680e-004
2.429868e+003, 2.580704e-004
2.431796e+003, -7.235409e-005
2.433725e+003, -4.814047e-005
2.435653e+003, 6.632640e-004
2.437582e+003, 3.949432e-004
2.439510e+003, 7.794959e-004
2.441439e+003, 1.088107e-003
2.443367e+003, 1.837651e-003
2.445296e+003, 1.201352e-003
2.447224e+003, 1.184116e-003
2.449153e+003, 1.997035e-003
2.451081e+003, 2.802246e-003
2.453010e+003, 3.093625e-003
2.454938e+003, 1.969400e-003
2.456866e+003, 1.845602e-003
2.458795e+003, 2.746536e-003
2.460723e+003, 2.779671e-003
2.462652e+003, 2.315961e-003
2.464580e+003, 2.769209e-003
2.466509e+003, 2.676251e-003
2.468437e+003, 2.103311e-003
2.470366e+003, 3.212960e-003
2.472294e+003, 4.393919e-003
2.474223e+003, 2.574580e-003
2.476151e+003, 1.438634e-003
2.478080e+003, 2.284637e-003
2.480008e+003, 2.945395e-003
2.481937e+003, 3.915727e-003
2.483865e+003, 4.493736e-003
2.485793e+003, 4.415099e-003
2.487722e+003, 4.216593e-003
2.489650e+003, 4.159078e-003
2.491579e+003, 3.567177e-003
2.493507e+003, 2.653532e-003
2.495436e+003, 3.449017e-003
2.497364e+003, 4.090312e-003
2.499293e+003, 3.908285e-003
2.501221e+003, 3.440718e-003
2.503150e+003, 3.215836e-003
2.505078e+003, 4.280426e-003
2.507007e+003, 5.183255e-003
2.508935e+003, 5.348045e-003
2.510864e+003, 4.448850e-003
2.512792e+003, 3.720266e-003
2.514720e+003, 4.054424e-003
2.516649e+003, 4.204850e-003
2.518577e+003, 4.266211e-003
2.520506e+003, 5.304732e-003
2.522434e+003, 4.761349e-003
2.524363e+003, 4.050325e-003
2.526291e+003, 4.248858e-003
2.528220e+003, 4.675434e-003
2.530148e+003, 5.685384e-003
2.532077e+003, 5.779198e-003
2.534005e+003, 4.740689e-003
2.535934e+003, 4.846834e-003
2.537862e+003, 4.680261e-003
2.539791e+003, 4.316929e-003
2.541719e+003, 4.053322e-003
2.543647e+003, 4.446940e-003
2.545576e+003, 5.341815e-003
2.547504e+003, 6.440895e-003
2.549433e+003, 5.916388e-003
2.551361e+003, 5.835706e-003
2.553290e+003, 5.855767e-003
2.555218e+003, 6.012978e-003
2.557147e+003, 5.685498e-003
2.559075e+003, 5.374830e-003
2.561004e+003, 6.279672e-003
2.562932e+003, 7.081906e-003
2.564861e+003, 6.647372e-003
2.566789e+003, 6.184043e-003
2.568718e+003, 6.631255e-003
2.570646e+003, 7.136223e-003
2.572574e+003, 6.590192e-003
2.574503e+003, 6.167888e-003
2.576431e+003, 5.935444e-003
2.578360e+003, 5.282882e-003
2.580288e+003, 5.067810e-003
2.582217e+003, 5.399103e-003
2.584145e+003, 6.084837e-003
2.586074e+003, 6.204139e-003
2.588002e+003, 6.577701e-003
2.589931e+003, 6.596845e-003
2.591859e+003, 5.155756e-003
2.593788e+003, 5.083100e-003
2.595716e+003, 6.045067e-003
2.597645e+003, 5.466042e-003
2.599573e+003, 6.495003e-003
2.601501e+003, 7.061314e-003
2.603430e+003, 6.277265e-003
2.605358e+003, 5.583076e-003
2.607287e+003, 5.320104e-003
2.609215e+003, 5.498209e-003
2.611144e+003, 5.535570e-003
2.613072e+003, 5.248228e-003
2.615001e+003, 5.550364e-003
2.616929e+003, 5.899910e-003
2.618858e+003, 5.627353e-003
2.620786e+003, 5.877095e-003
2.622715e+003, 6.494613e-003
2.624643e+003, 5.853750e-003
2.626572e+003, 6.376733e-003
2.628500e+003, 6.586987e-003
2.630428e+003, 6.018133e-003
2.632357e+003, 6.661043e-003
2.634285e+003, 7.688836e-003
2.636214e+003, 7.466115e-003
2.638142e+003, 6.085080e-003
2.640071e+003, 5.455730e-003
2.641999e+003, 6.192636e-003
2.643928e+003, 7.352000e-003
2.645856e+003, 6.926435e-003
2.647785e+003, 6.497139e-003
2.649713e+003, 6.317529e-003
2.651642e+003, 5.865306e-003
2.653570e+003, 5.900945e-003
2.655499e+003, 6.764208e-003
2.657427e+003, 7.475322e-003
2.659355e+003, 7.071968e-003
2.661284e+003, 6.484417e-003
2.663212e+003, 6.126406e-003
2.665141e+003, 5.855936e-003
2.667069e+003, 6.718838e-003
2.668998e+003, 7.219960e-003
2.670926e+003, 6.205630e-003
2.672855e+003, 5.403443e-003
2.674783e+003, 6.486026e-003
2.676712e+003, 6.640457e-003
2.678640e+003, 5.444922e-003
2.680569e+003, 4.810275e-003
2.682497e+003, 4.949939e-003
2.684426e+003, 5.304238e-003
2.686354e+003, 5.571497e-003
2.688282e+003, 5.305416e-003
2.690211e+003, 5.288449e-003
2.692139e+003, 5.353263e-003
2.694068e+003, 5.472157e-003
2.695996e+003, 5.979399e-003
2.697925e+003, 6.142273e-003
2.699853e+003, 6.418996e-003
2.701782e+003, 6.537721e-003
2.703710e+003, 5.248034e-003
2.705639e+003, 4.487409e-003
2.707567e+003, 4.826203e-003
2.709496e+003, 5.795227e-003
2.711424e+003, 7.149149e-003
2.713353e+003, 7.474839e-003
2.715281e+003, 7.119130e-003
2.717209e+003, 6.753240e-003
2.719138e+003, 5.906848e-003
2.721066e+003, 5.675832e-003
2.722995e+003, 5.977069e-003
2.724923e+003, 6.664358e-003
2.726852e+003, 7.053755e-003
2.728780e+003, 6.632965e-003
2.730709e+003, 6.095402e-003
2.732637e+003, 6.220756e-003
2.734566e+003, 6.651128e-003
2.736494e+003, 6.665940e-003
2.738423e+003, 6.425668e-003
2.740351e+003, 6.524683e-003
2.742280e+003, 6.714846e-003
2.744208e+003, 6.733651e-003
2.746136e+003, 6.669572e-003
2.748065e+003, 5.862166e-003
2.749993e+003, 5.922961e-003
2.751922e+003, 6.535364e-003
2.753850e+003, 6.723175e-003
2.755779e+003, 6.375604e-003
2.757707e+003, 6.990276e-003
2.759636e+003, 7.644119e-003
2.761564e+003, 6.985695e-003
2.763493e+003, 6.791377e-003
2.765421e+003, 7.289125e-003
2.767350e+003, 7.398365e-003
2.769278e+003, 7.341203e-003
2.771207e+003, 6.380557e-003
2.773135e+003, 6.679058e-003
2.775063e+003, 7.670289e-003
2.776992e+003, 8.117127e-003
2.778920e+003, 7.585323e-003
2.780849e+003, 7.316162e-003
2.782777e+003, 6.879477e-003
2.784706e+003, 6.316100e-003
2.786634e+003, 6.705815e-003
2.788563e+003, 7.761627e-003
2.790491e+003, 7.198285e-003
2.792420e+003, 5.668952e-003
2.794348e+003, 6.110149e-003
2.796277e+003, 6.760509e-003
2.798205e+003, 6.507595e-003
2.800134e+003, 6.185091e-003
2.802062e+003, 6.700089e-003
2.803990e+003, 6.765518e-003
2.805919e+003, 6.425525e-003
2.807847e+003, 6.514118e-003
2.809776e+003, 5.862179e-003
2.811704e+003, 5.955792e-003
2.813633e+003, 6.721944e-003
2.815561e+003, 7.496187e-003
2.817490e+003, 7.775718e-003
2.819418e+003, 7.353256e-003
2.821347e+003, 6.724299e-003
2.823275e+003, 6.073276e-003
2.825204e+003, 5.968584e-003
2.827132e+003, 6.889837e-003
2.829061e+003, 6.738443e-003
2.830989e+003, 5.784479e-003
2.832917e+003, 6.800578e-003
2.834846e+003, 7.101630e-003
2.836774e+003, 6.635849e-003
2.838703e+003, 6.355655e-003
2.840631e+003, 6.153177e-003
2.842560e+003, 5.250595e-003
2.844488e+003, 4.307630e-003
2.846417e+003, 4.113709e-003
2.848345e+003, 3.844003e-003
2.850274e+003, 3.142641e-003
2.852202e+003, 1.474777e-003
2.854131e+003, 7.717060e-005
2.856059e+003, 2.479404e-005
2.857988e+003, 1.621888e-003
2.859916e+003, 3.180538e-003
2.861844e+003, 3.930995e-003
2.863773e+003, 4.382922e-003
2.865701e+003, 4.127194e-003
2.867630e+003, 4.290521e-003
2.869558e+003, 4.670421e-003
2.871487e+003, 5.696319e-003
2.873415e+003, 5.804305e-003
2.875344e+003, 5.958292e-003
2.877272e+003, 6.278154e-003
2.879201e+003, 6.490438e-003
2.881129e+003, 5.934503e-003
2.883058e+003, 5.382098e-003
2.884986e+003, 5.796658e-003
2.886915e+003, 6.212673e-003
2.888843e+003, 6.756782e-003
2.890771e+003, 6.112494e-003
2.892700e+003, 5.679861e-003
2.894628e+003, 5.263266e-003
2.896557e+003, 4.242218e-003
2.898485e+003, 3.912441e-003
2.900414e+003, 4.462917e-003
2.902342e+003, 4.209297e-003
2.904271e+003, 3.994870e-003
2.906199e+003, 3.765029e-003
2.908128e+003, 4.458444e-003
2.910056e+003, 4.294205e-003
2.911985e+003, 2.489080e-003
2.913913e+003, 2.535133e-003
2.915842e+003, 3.193238e-003
2.917770e+003, 3.204945e-003
2.919698e+003, 1.530986e-003
2.921627e+003, -2.627024e-004
2.923555e+003, -1.437403e-003
2.925484e+003, -1.598681e-003
2.927412e+003, -1.427963e-003
2.929341e+003, -1.309648e-003
2.931269e+003, -8.813937e-004
2.933198e+003, -8.096161e-004
2.935126e+003, -2.935718e-004
2.937055e+003, 7.535494e-004
2.938983e+003, 2.369515e-003
2.940912e+003, 4.501371e-003
2.942840e+003, 5.418787e-003
2.944769e+003, 5.108134e-003
2.946697e+003, 4.507581e-003
2.948625e+003, 4.711342e-003
2.950554e+003, 5.843250e-003
2.952482e+003, 5.830264e-003
2.954411e+003, 4.532741e-003
2.956339e+003, 4.641772e-003
2.958268e+003, 6.012834e-003
2.960196e+003, 6.674304e-003
2.962125e+003, 7.323446e-003
2.964053e+003, 7.913075e-003
2.965982e+003, 6.411863e-003
2.967910e+003, 6.099421e-003
2.969839e+003, 5.781801e-003
2.971767e+003, 6.225677e-003
2.973696e+003, 7.080864e-003
2.975624e+003, 7.829591e-003
2.977552e+003, 8.043421e-003
2.979481e+003, 7.324161e-003
2.981409e+003, 7.685208e-003
2.983338e+003, 8.250935e-003
2.985266e+003, 8.176435e-003
2.987195e+003, 7.891801e-003
2.989123e+003, 8.026741e-003
2.991052e+003, 8.284138e-003
2.992980e+003, 8.180897e-003
2.994909e+003, 7.731884e-003
2.996837e+003, 7.357239e-003
2.998766e+003, 7.520863e-003
3.000694e+003, 8.200881e-003
3.002623e+003, 8.103835e-003
3.004551e+003, 8.875893e-003
3.006479e+003, 9.961731e-003
3.008408e+003, 1.012040e-002
3.010336e+003, 9.827174e-003
3.012265e+003, 9.629647e-003
3.014193e+003, 9.239568e-003
3.016122e+003, 9.175031e-003
3.018050e+003, 9.632628e-003
3.019979e+003, 9.622655e-003
3.021907e+003, 9.768607e-003
3.023836e+003, 1.095122e-002
3.025764e+003, 1.080152e-002
3.027693e+003, 9.663504e-003
3.029621e+003, 9.808611e-003
3.031550e+003, 9.454534e-003
3.033478e+003, 8.850237e-003
3.035406e+003, 8.362145e-003
3.037335e+003, 8.477149e-003
3.039263e+003, 9.767492e-003
3.041192e+003, 1.064721e-002
3.043120e+003, 9.907885e-003
3.045049e+003, 9.659240e-003
3.046977e+003, 9.769603e-003
3.048906e+003, 1.048023e-002
3.050834e+003, 1.212544e-002
3.052763e+003, 1.180792e-002
3.054691e+003, 1.040381e-002
3.056620e+003, 8.808151e-003
3.058548e+003, 8.765863e-003
3.060477e+003, 9.930780e-003
3.062405e+003, 1.063863e-002
3.064333e+003, 1.022167e-002
3.066262e+003, 9.537006e-003
3.068190e+003, 1.026199e-002
3.070119e+003, 1.037711e-002
3.072047e+003, 1.049986e-002
3.073976e+003, 1.013016e-002
3.075904e+003, 1.060354e-002
3.077833e+003, 1.131266e-002
3.079761e+003, 1.210839e-002
3.081690e+003, 1.091263e-002
3.083618e+003, 9.995371e-003
3.085547e+003, 1.160118e-002
3.087475e+003, 1.213728e-002
3.089404e+003, 1.123844e-002
3.091332e+003, 1.058611e-002
3.093260e+003, 9.996887e-003
3.095189e+003, 1.037482e-002
3.097117e+003, 1.121486e-002
3.099046e+003, 1.083092e-002
3.100974e+003, 1.085175e-002
3.102903e+003, 1.140937e-002
3.104831e+003, 1.208841e-002
3.106760e+003, 1.245815e-002
3.108688e+003, 1.111499e-002
3.110617e+003, 1.092871e-002
3.112545e+003, 1.232627e-002
3.114474e+003, 1.209493e-002
3.116402e+003, 1.197073e-002
3.118331e+003, 1.388051e-002
3.120259e+003, 1.345496e-002
3.122188e+003, 1.206351e-002
3.124116e+003, 1.204307e-002
3.126044e+003, 1.221772e-002
3.127973e+003, 1.176885e-002
3.129901e+003, 1.231651e-002
3.131830e+003, 1.340865e-002
3.133758e+003, 1.329359e-002
3.135687e+003, 1.184388e-002
3.137615e+003, 1.173214e-002
3.139544e+003, 1.367345e-002
3.141472e+003, 1.351511e-002
3.143401e+003, 1.363575e-002
3.145329e+003, 1.464312e-002
3.147258e+003, 1.224486e-002
3.149186e+003, 9.450675e-003
3.151115e+003, 9.776525e-003
3.153043e+003, 1.074247e-002
3.154971e+003, 1.147021e-002
3.156900e+003, 1.279224e-002
3.158828e+003, 1.357519e-002
3.160757e+003, 1.460824e-002
3.162685e+003, 1.488493e-002
3.164614e+003, 1.462872e-002
3.166542e+003, 1.447900e-002
3.168471e+003, 1.335200e-002
3.170399e+003, 1.185176e-002
3.172328e+003, 1.300457e-002
3.174256e+003, 1.391727e-002
3.176185e+003, 1.312950e-002
3.178113e+003, 1.246139e-002
3.180042e+003, 1.449760e-002
3.181970e+003, 1.501491e-002
3.183898e+003, 1.511328e-002
3.185827e+003, 1.435757e-002
3.187755e+003, 1.303722e-002
3.189684e+003, 1.132115e-002
3.191612e+003, 1.098590e-002
3.193541e+003, 1.164383e-002
3.195469e+003, 1.135567e-002
3.197398e+003, 1.279178e-002
3.199326e+003, 1.385479e-002
3.201255e+003, 1.297722e-002
3.203183e+003, 1.376162e-002
3.205112e+003, 1.406381e-002
3.207040e+003, 1.356357e-002
3.208969e+003, 1.144331e-002
3.210897e+003, 1.211411e-002
3.212825e+003, 1.587366e-002
3.214754e+003, 1.627217e-002
3.216682e+003, 1.552386e-002
3.218611e+003, 1.417842e-002
3.220539e+003, 1.314049e-002
3.222468e+003, 1.315105e-002
3.224396e+003, 1.552987e-002
3.226325e+003, 1.676710e-002
3.228253e+003, 1.549664e-002
3.230182e+003, 1.504864e-002
3.232110e+003, 1.372659e-002
3.234039e+003, 1.108236e-002
3.235967e+003, 1.029218e-002
3.237896e+003, 1.205105e-002
3.239824e+003, 1.378147e-002
3.241752e+003, 1.414908e-002
3.243681e+003, 1.240835e-002
3.245609e+003, 1.148886e-002
3.247538e+003, 1.067903e-002
3.249466e+003, 1.087838e-002
3.251395e+003, 1.224941e-002
3.253323e+003, 1.234508e-002
3.255252e+003, 1.184349e-002
3.257180e+003, 1.297932e-002
3.259109e+003, 1.465477e-002
3.261037e+003, 1.414703e-002
3.262966e+003, 1.504708e-002
3.264894e+003, 1.432100e-002
3.266823e+003, 1.284111e-002
3.268751e+003, 1.302915e-002
3.270679e+003, 1.279788e-002
3.272608e+003, 1.185601e-002
3.274536e+003, 1.297370e-002
3.276465e+003, 1.427262e-002
3.278393e+003, 1.477035e-002
3.280322e+003, 1.552516e-002
3.282250e+003, 1.387112e-002
3.284179e+003, 1.282918e-002
3.286107e+003, 1.315481e-002
3.288036e+003, 1.382362e-002
3.289964e+003, 1.475442e-002
3.291893e+003, 1.381616e-002
3.293821e+003, 1.277908e-002
3.295750e+003, 1.371415e-002
3.297678e+003, 1.485812e-002
3.299606e+003, 1.562428e-002
3.301535e+003, 1.329386e-002
3.303463e+003, 1.185433e-002
3.305392e+003, 1.258221e-002
3.307320e+003, 1.223374e-002
3.309249e+003, 1.409738e-002
3.311177e+003, 1.420188e-002
3.313106e+003, 1.233541e-002
3.315034e+003, 1.304503e-002
3.316963e+003, 1.376569e-002
3.318891e+003, 1.409415e-002
3.320820e+003, 1.399178e-002
3.322748e+003, 1.453573e-002
3.324677e+003, 1.596262e-002
3.326605e+003, 1.515697e-002
3.328533e+003, 1.511594e-002
3.330462e+003, 1.482120e-002
3.332390e+003, 1.370677e-002
3.334319e+003, 1.187683e-002
3.336247e+003, 1.279579e-002
3.338176e+003, 1.459630e-002
3.340104e+003, 1.344681e-002
3.342033e+003, 1.397763e-002
3.343961e+003, 1.541398e-002
3.345890e+003, 1.407961e-002
3.347818e+003, 1.393709e-002
3.349747e+003, 1.369289e-002
3.351675e+003, 1.324828e-002
3.353604e+003, 1.381668e-002
3.355532e+003, 1.423628e-002
3.357460e+003, 1.475198e-002
3.359389e+003, 1.468647e-002
3.361317e+003, 1.293914e-002
3.363246e+003, 1.204448e-002
3.365174e+003, 1.267582e-002
3.367103e+003, 1.287294e-002
3.369031e+003, 1.378479e-002
3.370960e+003, 1.336722e-002
3.372888e+003, 1.268650e-002
3.374817e+003, 1.405422e-002
3.376745e+003, 1.509307e-002
3.378674e+003, 1.695657e-002
3.380602e+003, 1.578927e-002
3.382531e+003, 1.265754e-002
3.384459e+003, 1.261951e-002
3.386387e+003, 1.489563e-002
3.388316e+003, 1.578479e-002
3.390244e+003, 1.635535e-002
3.392173e+003, 1.665006e-002
3.394101e+003, 1.564544e-002
3.396030e+003, 1.411201e-002
3.397958e+003, 1.320798e-002
3.399887e+003, 1.376083e-002
3.401815e+003, 1.373575e-002
3.403744e+003, 1.451986e-002
3.405672e+003, 1.587670e-002
3.407601e+003, 1.604651e-002
3.409529e+003, 1.469640e-002
3.411458e+003, 1.540515e-002
3.413386e+003, 1.513218e-002
3.415314e+003, 1.295155e-002
3.417243e+003, 1.322491e-002
3.419171e+003, 1.404439e-002
3.421100e+003, 1.453643e-002
3.423028e+003, 1.265796e-002
3.424957e+003, 1.082663e-002
3.426885e+003, 1.230272e-002
3.428814e+003, 1.584977e-002
3.430742e+003, 1.608803e-002
3.432671e+003, 1.402819e-002
3.434599e+003, 1.307405e-002
3.436528e+003, 1.415660e-002
3.438456e+003, 1.512615e-002
3.440385e+003, 1.362089e-002
3.442313e+003, 1.318326e-002
3.444241e+003, 1.205749e-002
3.446170e+003, 1.028236e-002
3.448098e+003, 1.136617e-002
3.450027e+003, 1.345709e-002
3.451955e+003, 1.347211e-002
3.453884e+003, 1.218146e-002
3.455812e+003, 1.413571e-002
3.457741e+003, 1.436266e-002
3.459669e+003, 1.283034e-002
3.461598e+003, 1.416817e-002
3.463526e+003, 1.600745e-002
3.465455e+003, 1.497619e-002
3.467383e+003, 1.355678e-002
3.469312e+003, 1.297555e-002
3.471240e+003, 1.335787e-002
3.473168e+003, 1.328623e-002
3.475097e+003, 1.453322e-002
3.477025e+003, 1.413456e-002
3.478954e+003, 1.346629e-002
3.480882e+003, 1.332725e-002
3.482811e+003, 1.371666e-002
3.484739e+003, 1.520111e-002
3.486668e+003, 1.564462e-002
3.488596e+003, 1.582205e-002
3.490525e+003, 1.492229e-002
3.492453e+003, 1.318361e-002
3.494382e+003, 1.434677e-002
3.496310e+003, 1.415297e-002
3.498239e+003, 1.370982e-002
3.500167e+003, 1.361089e-002
3.502095e+003, 1.333589e-002
3.504024e+003, 1.504472e-002
3.505952e+003, 1.768384e-002
3.507881e+003, 1.571115e-002
3.509809e+003, 1.536557e-002
3.511738e+003, 1.484601e-002
3.513666e+003, 1.320062e-002
3.515595e+003, 1.422656e-002
3.517523e+003, 1.228148e-002
3.519452e+003, 9.817212e-003
3.521380e+003, 1.131937e-002
3.523309e+003, 1.160315e-002
3.525237e+003, 1.126952e-002
3.527166e+003, 1.338125e-002
3.529094e+003, 1.381068e-002
3.531022e+003, 1.307171e-002
3.532951e+003, 1.271006e-002
3.534879e+003, 1.256372e-002
3.536808e+003, 1.504039e-002
3.538736e+003, 1.573906e-002
3.540665e+003, 1.604812e-002
3.542593e+003, 1.657184e-002
3.544522e+003, 1.612304e-002
3.546450e+003, 1.645804e-002
3.548379e+003, 1.414350e-002
3.550307e+003, 1.308153e-002
3.552236e+003, 1.304602e-002
3.554164e+003, 1.369206e-002
3.556093e+003, 1.256546e-002
3.558021e+003, 1.058523e-002
3.559949e+003, 1.276533e-002
3.561878e+003, 1.413918e-002
3.563806e+003, 1.189145e-002
3.565735e+003, 1.019366e-002
3.567663e+003, 1.206717e-002
3.569592e+003, 1.386128e-002
3.571520e+003, 1.551954e-002
3.573449e+003, 1.510809e-002
3.575377e+003, 1.335934e-002
3.577306e+003, 1.389985e-002
3.579234e+003, 1.432274e-002
3.581163e+003, 1.500807e-002
3.583091e+003, 1.437232e-002
3.585020e+003, 1.235382e-002
3.586948e+003, 1.445893e-002
3.588876e+003, 1.631447e-002
3.590805e+003, 1.652932e-002
3.592733e+003, 1.973619e-002
3.594662e+003, 2.260089e-002
3.596590e+003, 2.040886e-002
3.598519e+003, 1.727476e-002
3.600447e+003, 1.663580e-002
3.602376e+003, 1.494392e-002
3.604304e+003, 1.203632e-002
3.606233e+003, 1.131083e-002
3.608161e+003, 1.159219e-002
3.610090e+003, 1.123775e-002
3.612018e+003, 1.193702e-002
3.613947e+003, 1.546021e-002
3.615875e+003, 1.343755e-002
3.617803e+003, 8.468152e-003
3.619732e+003, 7.635911e-003
3.621660e+003, 7.609111e-003
3.623589e+003, 6.908625e-003
3.625517e+003, 8.686832e-003
3.627446e+003, 1.287006e-002
3.629374e+003, 1.213895e-002
3.631303e+003, 1.143515e-002
3.633231e+003, 1.239632e-002
3.635160e+003, 1.076633e-002
3.637088e+003, 1.141854e-002
3.639017e+003, 1.250757e-002
3.640945e+003, 9.242711e-003
3.642874e+003, 7.598979e-003
3.644802e+003, 9.442500e-003
3.646730e+003, 1.140098e-002
3.648659e+003, 1.199294e-002
3.650587e+003, 1.176554e-002
3.652516e+003, 1.184271e-002
3.654444e+003, 1.226831e-002
3.656373e+003, 1.029998e-002
3.658301e+003, 9.897975e-003
3.660230e+003, 1.047113e-002
3.662158e+003, 1.187581e-002
3.664087e+003, 1.125116e-002
3.666015e+003, 1.198463e-002
3.667944e+003, 1.324289e-002
3.669872e+003, 1.323698e-002
3.671801e+003, 1.208384e-002
3.673729e+003, 9.977199e-003
3.675657e+003, 9.613470e-003
3.677586e+003, 1.106032e-002
3.679514e+003, 1.006603e-002
3.681443e+003, 8.874310e-003
3.683371e+003, 7.608163e-003
3.685300e+003, 9.105870e-003
3.687228e+003, 1.150827e-002
3.689157e+003, 1.141690e-002
3.691085e+003, 1.112038e-002
3.693014e+003, 1.016182e-002
3.694942e+003, 1.132667e-002
3.696871e+003, 1.417991e-002
3.698799e+003, 1.810639e-002
3.700728e+003, 1.609202e-002
3.702656e+003, 1.154097e-002
3.704584e+003, 9.344258e-003
3.706513e+003, 8.863858e-003
3.708441e+003, 8.285030e-003
3.710370e+003, 8.617953e-003
3.712298e+003, 9.686656e-003
3.714227e+003, 8.733816e-003
3.716155e+003, 6.672218e-003
3.718084e+003, 7.376996e-003
3.720012e+003, 9.442062e-003
3.721941e+003, 1.091732e-002
3.723869e+003, 9.052888e-003
3.725798e+003, 9.892409e-003
3.727726e+003, 9.456424e-003
3.729655e+003, 7.910888e-003
3.731583e+003, 9.178823e-003
3.733511e+003, 1.086832e-002
3.735440e+003, 9.464663e-003
3.737368e+003, 6.259361e-003
3.739297e+003, 6.990731e-003
3.741225e+003, 8.838307e-003
3.743154e+003, 6.181401e-003
3.745082e+003, 4.147522e-003
3.747011e+003, 6.665410e-003
3.748939e+003, 4.813083e-003
3.750868e+003, 3.622852e-003
3.752796e+003, 6.314533e-003
3.754725e+003, 8.118093e-003
3.756653e+003, 6.544335e-003
3.758582e+003, 5.553324e-003
3.760510e+003, 8.947634e-003
3.762438e+003, 9.517145e-003
3.764367e+003, 8.869777e-003
3.766295e+003, 9.250527e-003
3.768224e+003, 9.149291e-003
3.770152e+003, 7.317297e-003
3.772081e+003, 7.187090e-003
3.774009e+003, 9.129260e-003
3.775938e+003, 9.129396e-003
3.777866e+003, 8.382129e-003
3.779795e+003, 1.054808e-002
3.781723e+003, 1.161276e-002
3.783652e+003, 1.081803e-002
3.785580e+003, 9.678131e-003
3.787509e+003, 6.102101e-003
3.789437e+003, 7.046640e-003
3.791365e+003, 1.292003e-002
3.793294e+003, 1.204061e-002
3.795222e+003, 8.719210e-003
3.797151e+003, 6.874368e-003
3.799079e+003, 6.759676e-003
3.801008e+003, 5.636735e-003
3.802936e+003, 5.370810e-003
3.804865e+003, 1.032522e-002
3.806793e+003, 9.981827e-003
3.808722e+003, 6.656330e-003
3.810650e+003, 6.603795e-003
3.812579e+003, 7.281762e-003
3.814507e+003, 7.313247e-003
3.816436e+003, 9.161697e-003
3.818364e+003, 1.043137e-002
3.820292e+003, 9.819590e-003
3.822221e+003, 8.374380e-003
3.824149e+003, 6.730746e-003
3.826078e+003, 7.721808e-003
3.828006e+003, 7.298361e-003
3.829935e+003, 6.402672e-003
3.831863e+003, 1.056228e-002
3.833792e+003, 8.673865e-003
3.835720e+003, 7.210822e-003
3.837649e+003, 1.023813e-002
3.839577e+003, 1.065806e-002
3.841506e+003, 1.008834e-002
3.843434e+003, 1.111407e-002
3.845363e+003, 1.118955e-002
3.847291e+003, 6.837523e-003
3.849219e+003, 3.012534e-003
3.851148e+003, 4.955566e-003
3.853076e+003, 5.671035e-003
3.855005e+003, 4.467630e-003
3.856933e+003, 5.766732e-003
3.858862e+003, 8.140747e-003
3.860790e+003, 8.113066e-003
3.862719e+003, 5.682145e-003
3.864647e+003, 7.381724e-003
3.866576e+003, 6.535563e-003
3.868504e+003, 5.694772e-003
3.870433e+003, 8.663047e-003
3.872361e+003, 9.632077e-003
3.874290e+003, 5.807496e-003
3.876218e+003, 7.386023e-003
3.878146e+003, 8.861925e-003
3.880075e+003, 5.779659e-003
3.882003e+003, 3.768462e-003
3.883932e+003, 3.910023e-003
3.885860e+003, 6.532355e-003
3.887789e+003, 8.082688e-003
3.889717e+003, 6.389151e-003
3.891646e+003, 7.094518e-003
3.893574e+003, 6.510226e-003
3.895503e+003, 6.947571e-003
3.897431e+003, 9.667811e-003
3.899360e+003, 1.011030e-002
3.901288e+003, 1.054539e-002
3.903217e+003, 9.873115e-003
3.905145e+003, 9.151787e-003
3.907073e+003, 7.793714e-003
3.909002e+003, 6.740947e-003
3.910930e+003, 8.932410e-003
3.912859e+003, 9.344413e-003
3.914787e+003, 8.898189e-003
3.916716e+003, 9.430355e-003
3.918644e+003, 7.882276e-003
3.920573e+003, 7.012371e-003
3.922501e+003, 7.022345e-003
3.924430e+003, 7.006474e-003
3.926358e+003, 6.308175e-003
3.928287e+003, 6.169271e-003
3.930215e+003, 7.247741e-003
3.932144e+003, 1.107499e-002
3.934072e+003, 1.047530e-002
3.936000e+003, 8.396137e-003
3.937929e+003, 6.327027e-003
3.939857e+003, 6.420144e-003
3.941786e+003, 6.379107e-003
3.943714e+003, 7.121205e-003
3.945643e+003, 1.166787e-002
3.947571e+003, 1.235139e-002
3.949500e+003, 5.771067e-003
3.951428e+003, 4.043196e-003
3.953357e+003, 6.007908e-003
3.955285e+003, 9.122382e-003
3.957214e+003, 1.043231e-002
3.959142e+003, 7.127461e-003
3.961071e+003, 5.424025e-003
3.962999e+003, 6.053132e-003
3.964927e+003, 7.227715e-003
3.966856e+003, 7.129337e-003
3.968784e+003, 8.449024e-003
3.970713e+003, 9.677188e-003
3.972641e+003, 8.034662e-003
3.974570e+003, 9.063859e-003
3.976498e+003, 9.110377e-003
3.978427e+003, 6.884357e-003
3.980355e+003, 9.210964e-003
3.982284e+003, 1.347675e-002
3.984212e+003, 1.303363e-002
3.986141e+003, 7.987791e-003
3.988069e+003, 4.657880e-003
3.989998e+003, 7.260671e-003
3.991926e+003, 8.292011e-003
3.993854e+003, 8.395878e-003
3.995783e+003, 1.044368e-002
3.997711e+003, 1.220024e-002
3.999640e+003, 1.220613e-002
4.001568e+003, 0.000000e+000
##END=



