##NAMES=Bikitaite
##RRUFFID=R050160
##IDEAL CHEMISTRY=LiAlSi_2_O_6_&#183;H_2_O
##LOCALITY=Foote mine, Kings Mountain, Cleveland County, North Carolina, USA
##OWNER=RRUFF
##SOURCE=Jim McGlasson
##DESCRIPTION=Colorless prismatic crystals
##STATUS=The identification of this mineral has been confirmed by X-ray diffraction and chemical analysis
##URL=rruff.info/R050160
##MEASURED CHEMISTRY=Li_1.00_Si_2.00_O_6_Â·1.25H_2_O ; Li not measured but estimated by stoichiometry
3.721941e+002, 0.000000e+000
3.741225e+002, 1.512338e-001
3.760510e+002, 1.417138e-001
3.779795e+002, 1.477602e-001
3.799079e+002, 1.596020e-001
3.818364e+002, 1.619197e-001
3.837649e+002, 1.600845e-001
3.856933e+002, 1.563796e-001
3.876218e+002, 1.534381e-001
3.895503e+002, 1.488744e-001
3.914787e+002, 1.411852e-001
3.934072e+002, 1.476330e-001
3.953357e+002, 1.513976e-001
3.972641e+002, 1.461405e-001
3.991926e+002, 1.448817e-001
4.011211e+002, 1.508598e-001
4.030495e+002, 1.541314e-001
4.049780e+002, 1.485327e-001
4.069065e+002, 1.483322e-001
4.088349e+002, 1.501704e-001
4.107634e+002, 1.513787e-001
4.126919e+002, 1.495881e-001
4.146203e+002, 1.528092e-001
4.165488e+002, 1.582535e-001
4.184773e+002, 1.591898e-001
4.204057e+002, 1.594030e-001
4.223342e+002, 1.585250e-001
4.242627e+002, 1.569844e-001
4.261911e+002, 1.560360e-001
4.281196e+002, 1.589806e-001
4.300481e+002, 1.627022e-001
4.319765e+002, 1.649359e-001
4.339050e+002, 1.673436e-001
4.358335e+002, 1.731339e-001
4.377619e+002, 1.795605e-001
4.396904e+002, 1.851177e-001
4.416189e+002, 1.886666e-001
4.435473e+002, 1.906592e-001
4.454758e+002, 1.918208e-001
4.474043e+002, 1.911276e-001
4.493327e+002, 1.901713e-001
4.512612e+002, 1.888220e-001
4.531897e+002, 1.871734e-001
4.551181e+002, 1.860046e-001
4.570466e+002, 1.838117e-001
4.589751e+002, 1.811658e-001
4.609035e+002, 1.787325e-001
4.628320e+002, 1.756417e-001
4.647605e+002, 1.717958e-001
4.666889e+002, 1.673248e-001
4.686174e+002, 1.617252e-001
4.705459e+002, 1.555690e-001
4.724743e+002, 1.496773e-001
4.744028e+002, 1.447580e-001
4.763313e+002, 1.417768e-001
4.782597e+002, 1.387918e-001
4.801882e+002, 1.342479e-001
4.821167e+002, 1.292564e-001
4.840451e+002, 1.238877e-001
4.859736e+002, 1.180600e-001
4.879021e+002, 1.136480e-001
4.898305e+002, 1.100651e-001
4.917590e+002, 1.072087e-001
4.936875e+002, 1.061381e-001
4.956159e+002, 1.060675e-001
4.975444e+002, 1.060576e-001
4.994729e+002, 1.047292e-001
5.014013e+002, 1.018525e-001
5.033298e+002, 9.829725e-002
5.052583e+002, 9.465712e-002
5.071867e+002, 9.043304e-002
5.091152e+002, 8.692702e-002
5.110437e+002, 8.401853e-002
5.129721e+002, 8.133975e-002
5.149006e+002, 8.004665e-002
5.168290e+002, 7.957464e-002
5.187575e+002, 7.948931e-002
5.206860e+002, 8.014381e-002
5.226144e+002, 8.145582e-002
5.245429e+002, 8.305984e-002
5.264714e+002, 8.418275e-002
5.283998e+002, 8.420766e-002
5.303283e+002, 8.355353e-002
5.322568e+002, 8.255091e-002
5.341852e+002, 8.170979e-002
5.361137e+002, 8.130491e-002
5.380422e+002, 8.028281e-002
5.399706e+002, 7.875812e-002
5.418991e+002, 7.675781e-002
5.438276e+002, 7.404302e-002
5.457560e+002, 7.106042e-002
5.476845e+002, 6.854071e-002
5.496130e+002, 6.614935e-002
5.515414e+002, 6.350892e-002
5.534699e+002, 6.076158e-002
5.553984e+002, 5.796796e-002
5.573268e+002, 5.571258e-002
5.592553e+002, 5.347112e-002
5.611838e+002, 5.114026e-002
5.631122e+002, 4.865809e-002
5.650407e+002, 4.635653e-002
5.669692e+002, 4.424763e-002
5.688976e+002, 4.228664e-002
5.708261e+002, 4.067695e-002
5.727546e+002, 3.920913e-002
5.746830e+002, 3.758880e-002
5.766115e+002, 3.629998e-002
5.785400e+002, 3.509697e-002
5.804684e+002, 3.411841e-002
5.823969e+002, 3.358848e-002
5.843254e+002, 3.333421e-002
5.862538e+002, 3.311252e-002
5.881823e+002, 3.330264e-002
5.901108e+002, 3.358293e-002
5.920392e+002, 3.368286e-002
5.939677e+002, 3.366388e-002
5.958962e+002, 3.413608e-002
5.978246e+002, 3.467968e-002
5.997531e+002, 3.471336e-002
6.016816e+002, 3.477492e-002
6.036100e+002, 3.487520e-002
6.055385e+002, 3.502557e-002
6.074670e+002, 3.534611e-002
6.093954e+002, 3.587698e-002
6.113239e+002, 3.676424e-002
6.132524e+002, 3.813053e-002
6.151808e+002, 4.024417e-002
6.171093e+002, 4.292136e-002
6.190378e+002, 4.606327e-002
6.209662e+002, 4.929686e-002
6.228947e+002, 5.091733e-002
6.248232e+002, 4.935936e-002
6.267516e+002, 4.530432e-002
6.286801e+002, 4.080359e-002
6.306086e+002, 3.711244e-002
6.325370e+002, 3.445742e-002
6.344655e+002, 3.296691e-002
6.363940e+002, 3.242631e-002
6.383224e+002, 3.233028e-002
6.402509e+002, 3.247826e-002
6.421794e+002, 3.302173e-002
6.441078e+002, 3.370616e-002
6.460363e+002, 3.462189e-002
6.479648e+002, 3.599728e-002
6.498932e+002, 3.769126e-002
6.518217e+002, 3.967189e-002
6.537502e+002, 4.206850e-002
6.556786e+002, 4.504669e-002
6.576071e+002, 4.837871e-002
6.595356e+002, 5.230884e-002
6.614641e+002, 5.706561e-002
6.633925e+002, 6.257377e-002
6.653210e+002, 6.895252e-002
6.672495e+002, 7.628909e-002
6.691779e+002, 8.487086e-002
6.711064e+002, 9.436011e-002
6.730349e+002, 1.048251e-001
6.749633e+002, 1.157376e-001
6.768918e+002, 1.266554e-001
6.788203e+002, 1.365647e-001
6.807487e+002, 1.436301e-001
6.826772e+002, 1.461917e-001
6.846057e+002, 1.435149e-001
6.865341e+002, 1.359873e-001
6.884626e+002, 1.251919e-001
6.903911e+002, 1.138575e-001
6.923195e+002, 1.037263e-001
6.942480e+002, 9.551611e-002
6.961765e+002, 8.960764e-002
6.981049e+002, 8.570515e-002
7.000334e+002, 8.341989e-002
7.019619e+002, 8.243760e-002
7.038903e+002, 8.215322e-002
7.058188e+002, 8.168830e-002
7.077473e+002, 8.001512e-002
7.096757e+002, 7.645217e-002
7.116042e+002, 7.150260e-002
7.135327e+002, 6.636314e-002
7.154611e+002, 6.228169e-002
7.173896e+002, 6.074054e-002
7.193181e+002, 6.209682e-002
7.212465e+002, 6.486092e-002
7.231750e+002, 6.709279e-002
7.251035e+002, 6.684367e-002
7.270319e+002, 6.381251e-002
7.289604e+002, 5.882106e-002
7.308889e+002, 5.306713e-002
7.328173e+002, 4.729768e-002
7.347458e+002, 4.188309e-002
7.366743e+002, 3.706136e-002
7.386027e+002, 3.283045e-002
7.405312e+002, 2.964776e-002
7.424597e+002, 2.748347e-002
7.443881e+002, 2.589467e-002
7.463166e+002, 2.447045e-002
7.482451e+002, 2.354004e-002
7.501735e+002, 2.311622e-002
7.521020e+002, 2.314309e-002
7.540305e+002, 2.359357e-002
7.559589e+002, 2.445658e-002
7.578874e+002, 2.556507e-002
7.598159e+002, 2.669588e-002
7.617443e+002, 2.781859e-002
7.636728e+002, 2.877828e-002
7.656013e+002, 2.967668e-002
7.675297e+002, 3.053633e-002
7.694582e+002, 3.152448e-002
7.713867e+002, 3.293690e-002
7.733151e+002, 3.522940e-002
7.752436e+002, 3.859814e-002
7.771721e+002, 4.276095e-002
7.791005e+002, 4.711426e-002
7.810290e+002, 5.058297e-002
7.829575e+002, 5.191410e-002
7.848859e+002, 5.049810e-002
7.868144e+002, 4.658196e-002
7.887429e+002, 4.131298e-002
7.906713e+002, 3.609787e-002
7.925998e+002, 3.181881e-002
7.945283e+002, 2.863307e-002
7.964567e+002, 2.623230e-002
7.983852e+002, 2.430148e-002
8.003137e+002, 2.293173e-002
8.022421e+002, 2.209555e-002
8.041706e+002, 2.132367e-002
8.060991e+002, 2.064107e-002
8.080275e+002, 2.042323e-002
8.099560e+002, 2.033634e-002
8.118845e+002, 2.023684e-002
8.138129e+002, 2.026163e-002
8.157414e+002, 2.034017e-002
8.176699e+002, 2.053359e-002
8.195983e+002, 2.068253e-002
8.215268e+002, 2.083472e-002
8.234553e+002, 2.118032e-002
8.253837e+002, 2.167230e-002
8.273122e+002, 2.213450e-002
8.292407e+002, 2.235451e-002
8.311691e+002, 2.256102e-002
8.330976e+002, 2.306887e-002
8.350261e+002, 2.366617e-002
8.369545e+002, 2.426935e-002
8.388830e+002, 2.491689e-002
8.408115e+002, 2.556992e-002
8.427399e+002, 2.632974e-002
8.446684e+002, 2.708875e-002
8.465969e+002, 2.796535e-002
8.485253e+002, 2.885901e-002
8.504538e+002, 2.983950e-002
8.523823e+002, 3.087693e-002
8.543107e+002, 3.205542e-002
8.562392e+002, 3.359342e-002
8.581677e+002, 3.492919e-002
8.600961e+002, 3.611227e-002
8.620246e+002, 3.757996e-002
8.639531e+002, 3.913129e-002
8.658815e+002, 4.065637e-002
8.678100e+002, 4.214671e-002
8.697385e+002, 4.373262e-002
8.716669e+002, 4.565857e-002
8.735954e+002, 4.759545e-002
8.755239e+002, 4.935028e-002
8.774523e+002, 5.120966e-002
8.793808e+002, 5.326653e-002
8.813093e+002, 5.523504e-002
8.832377e+002, 5.722747e-002
8.851662e+002, 5.923449e-002
8.870947e+002, 6.154149e-002
8.890231e+002, 6.414558e-002
8.909516e+002, 6.700275e-002
8.928801e+002, 7.012195e-002
8.948085e+002, 7.329852e-002
8.967370e+002, 7.678753e-002
8.986655e+002, 8.047681e-002
9.005939e+002, 8.431260e-002
9.025224e+002, 8.836810e-002
9.044509e+002, 9.250771e-002
9.063793e+002, 9.682170e-002
9.083078e+002, 1.013686e-001
9.102363e+002, 1.062483e-001
9.121647e+002, 1.113169e-001
9.140932e+002, 1.164838e-001
9.160217e+002, 1.219134e-001
9.179501e+002, 1.276664e-001
9.198786e+002, 1.334102e-001
9.218071e+002, 1.393685e-001
9.237355e+002, 1.457219e-001
9.256640e+002, 1.524184e-001
9.275925e+002, 1.591200e-001
9.295209e+002, 1.657528e-001
9.314494e+002, 1.725286e-001
9.333779e+002, 1.793444e-001
9.353063e+002, 1.861953e-001
9.372348e+002, 1.934298e-001
9.391633e+002, 2.009975e-001
9.410917e+002, 2.086904e-001
9.430202e+002, 2.165166e-001
9.449487e+002, 2.245576e-001
9.468771e+002, 2.323632e-001
9.488056e+002, 2.398497e-001
9.507341e+002, 2.470018e-001
9.526625e+002, 2.532480e-001
9.545910e+002, 2.576550e-001
9.565195e+002, 2.593694e-001
9.584479e+002, 2.594271e-001
9.603764e+002, 2.602103e-001
9.623049e+002, 2.618746e-001
9.642333e+002, 2.625953e-001
9.661618e+002, 2.612810e-001
9.680903e+002, 2.569830e-001
9.700187e+002, 2.495532e-001
9.719472e+002, 2.404691e-001
9.738757e+002, 2.316917e-001
9.758041e+002, 2.226510e-001
9.777326e+002, 2.112978e-001
9.796611e+002, 1.973513e-001
9.815895e+002, 1.821050e-001
9.835180e+002, 1.665659e-001
9.854465e+002, 1.511403e-001
9.873749e+002, 1.359742e-001
9.893034e+002, 1.216308e-001
9.912319e+002, 1.087137e-001
9.931603e+002, 9.784048e-002
9.950888e+002, 8.918306e-002
9.970173e+002, 8.258708e-002
9.989457e+002, 7.809716e-002
1.000874e+003, 7.640435e-002
1.002803e+003, 7.835764e-002
1.004731e+003, 8.473638e-002
1.006660e+003, 9.531140e-002
1.008588e+003, 1.092098e-001
1.010517e+003, 1.251975e-001
1.012445e+003, 1.412159e-001
1.014373e+003, 1.549575e-001
1.016302e+003, 1.641809e-001
1.018230e+003, 1.679363e-001
1.020159e+003, 1.666279e-001
1.022087e+003, 1.617461e-001
1.024016e+003, 1.548493e-001
1.025944e+003, 1.471355e-001
1.027873e+003, 1.394150e-001
1.029801e+003, 1.320780e-001
1.031730e+003, 1.253452e-001
1.033658e+003, 1.192667e-001
1.035587e+003, 1.137405e-001
1.037515e+003, 1.088796e-001
1.039443e+003, 1.046024e-001
1.041372e+003, 1.006872e-001
1.043300e+003, 9.725854e-002
1.045229e+003, 9.417006e-002
1.047157e+003, 9.158272e-002
1.049086e+003, 8.948477e-002
1.051014e+003, 8.750344e-002
1.052943e+003, 8.608049e-002
1.054871e+003, 8.551665e-002
1.056800e+003, 8.531761e-002
1.058728e+003, 8.562630e-002
1.060657e+003, 8.660332e-002
1.062585e+003, 8.809674e-002
1.064514e+003, 9.008171e-002
1.066442e+003, 9.290419e-002
1.068370e+003, 9.672936e-002
1.070299e+003, 1.008513e-001
1.072227e+003, 1.054143e-001
1.074156e+003, 1.106695e-001
1.076084e+003, 1.163195e-001
1.078013e+003, 1.218868e-001
1.079941e+003, 1.271700e-001
1.081870e+003, 1.319859e-001
1.083798e+003, 1.359510e-001
1.085727e+003, 1.387461e-001
1.087655e+003, 1.402258e-001
1.089584e+003, 1.401102e-001
1.091512e+003, 1.382986e-001
1.093441e+003, 1.347896e-001
1.095369e+003, 1.301605e-001
1.097297e+003, 1.249605e-001
1.099226e+003, 1.196318e-001
1.101154e+003, 1.151838e-001
1.103083e+003, 1.115415e-001
1.105011e+003, 1.085404e-001
1.106940e+003, 1.054432e-001
1.108868e+003, 1.014537e-001
1.110797e+003, 9.691297e-002
1.112725e+003, 9.229579e-002
1.114654e+003, 8.803881e-002
1.116582e+003, 8.448061e-002
1.118511e+003, 8.142985e-002
1.120439e+003, 7.901802e-002
1.122368e+003, 7.735286e-002
1.124296e+003, 7.616452e-002
1.126224e+003, 7.521856e-002
1.128153e+003, 7.431666e-002
1.130081e+003, 7.333090e-002
1.132010e+003, 7.214299e-002
1.133938e+003, 7.009165e-002
1.135867e+003, 6.742318e-002
1.137795e+003, 6.472531e-002
1.139724e+003, 6.217894e-002
1.141652e+003, 5.970468e-002
1.143581e+003, 5.727148e-002
1.145509e+003, 5.502751e-002
1.147438e+003, 5.278833e-002
1.149366e+003, 5.058266e-002
1.151295e+003, 4.875302e-002
1.153223e+003, 4.709115e-002
1.155151e+003, 4.574653e-002
1.157080e+003, 4.459744e-002
1.159008e+003, 4.340479e-002
1.160937e+003, 4.222125e-002
1.162865e+003, 4.081574e-002
1.164794e+003, 3.904485e-002
1.166722e+003, 3.694706e-002
1.168651e+003, 3.467301e-002
1.170579e+003, 3.209999e-002
1.172508e+003, 2.951239e-002
1.174436e+003, 2.724282e-002
1.176365e+003, 2.513047e-002
1.178293e+003, 2.318012e-002
1.180222e+003, 2.140934e-002
1.182150e+003, 1.977504e-002
1.184078e+003, 1.827762e-002
1.186007e+003, 1.710700e-002
1.187935e+003, 1.614504e-002
1.189864e+003, 1.533603e-002
1.191792e+003, 1.465165e-002
1.193721e+003, 1.396571e-002
1.195649e+003, 1.330064e-002
1.197578e+003, 1.270001e-002
1.199506e+003, 1.214453e-002
1.201435e+003, 1.159232e-002
1.203363e+003, 1.110333e-002
1.205292e+003, 1.078403e-002
1.207220e+003, 1.030230e-002
1.209149e+003, 9.847131e-003
1.211077e+003, 9.476714e-003
1.213005e+003, 8.971690e-003
1.214934e+003, 8.473421e-003
1.216862e+003, 8.159112e-003
1.218791e+003, 7.958333e-003
1.220719e+003, 7.576566e-003
1.222648e+003, 7.196270e-003
1.224576e+003, 6.875732e-003
1.226505e+003, 6.578672e-003
1.228433e+003, 6.230126e-003
1.230362e+003, 5.854810e-003
1.232290e+003, 5.696208e-003
1.234219e+003, 5.516350e-003
1.236147e+003, 5.204974e-003
1.238076e+003, 5.060144e-003
1.240004e+003, 4.857042e-003
1.241932e+003, 4.575632e-003
1.243861e+003, 4.363525e-003
1.245789e+003, 4.252248e-003
1.247718e+003, 4.057443e-003
1.249646e+003, 3.947461e-003
1.251575e+003, 3.812714e-003
1.253503e+003, 3.629067e-003
1.255432e+003, 3.553878e-003
1.257360e+003, 3.483400e-003
1.259289e+003, 3.372940e-003
1.261217e+003, 3.209393e-003
1.263146e+003, 3.096647e-003
1.265074e+003, 3.042109e-003
1.267003e+003, 2.955824e-003
1.268931e+003, 2.906726e-003
1.270859e+003, 2.921938e-003
1.272788e+003, 2.938710e-003
1.274716e+003, 2.928174e-003
1.276645e+003, 2.804279e-003
1.278573e+003, 2.627285e-003
1.280502e+003, 2.535936e-003
1.282430e+003, 2.627910e-003
1.284359e+003, 2.673466e-003
1.286287e+003, 2.668787e-003
1.288216e+003, 2.572396e-003
1.290144e+003, 2.472330e-003
1.292073e+003, 2.472672e-003
1.294001e+003, 2.403157e-003
1.295930e+003, 2.274667e-003
1.297858e+003, 2.255427e-003
1.299786e+003, 2.261027e-003
1.301715e+003, 2.181417e-003
1.303643e+003, 2.090084e-003
1.305572e+003, 2.162346e-003
1.307500e+003, 2.390463e-003
1.309429e+003, 2.357217e-003
1.311357e+003, 2.291581e-003
1.313286e+003, 2.379891e-003
1.315214e+003, 2.458965e-003
1.317143e+003, 2.394593e-003
1.319071e+003, 2.187644e-003
1.321000e+003, 2.165842e-003
1.322928e+003, 2.456438e-003
1.324857e+003, 2.593174e-003
1.326785e+003, 2.596331e-003
1.328714e+003, 2.544561e-003
1.330642e+003, 2.601752e-003
1.332570e+003, 2.716814e-003
1.334499e+003, 2.811781e-003
1.336427e+003, 2.731841e-003
1.338356e+003, 2.675860e-003
1.340284e+003, 2.621944e-003
1.342213e+003, 2.449773e-003
1.344141e+003, 2.351911e-003
1.346070e+003, 2.187068e-003
1.347998e+003, 2.091669e-003
1.349927e+003, 2.148037e-003
1.351855e+003, 2.221647e-003
1.353784e+003, 2.143054e-003
1.355712e+003, 2.022634e-003
1.357641e+003, 1.979426e-003
1.359569e+003, 1.980837e-003
1.361497e+003, 2.017912e-003
1.363426e+003, 1.900521e-003
1.365354e+003, 1.908565e-003
1.367283e+003, 2.033987e-003
1.369211e+003, 1.974219e-003
1.371140e+003, 1.902614e-003
1.373068e+003, 1.929800e-003
1.374997e+003, 1.977076e-003
1.376925e+003, 1.951378e-003
1.378854e+003, 2.107865e-003
1.380782e+003, 2.160171e-003
1.382711e+003, 2.013817e-003
1.384639e+003, 1.944681e-003
1.386568e+003, 2.034002e-003
1.388496e+003, 2.006180e-003
1.390424e+003, 2.003049e-003
1.392353e+003, 2.082994e-003
1.394281e+003, 2.170997e-003
1.396210e+003, 2.238075e-003
1.398138e+003, 2.174353e-003
1.400067e+003, 2.168227e-003
1.401995e+003, 2.266838e-003
1.403924e+003, 2.364233e-003
1.405852e+003, 2.437207e-003
1.407781e+003, 2.418119e-003
1.409709e+003, 2.350202e-003
1.411638e+003, 2.396381e-003
1.413566e+003, 2.486320e-003
1.415495e+003, 2.407684e-003
1.417423e+003, 2.337369e-003
1.419351e+003, 2.410987e-003
1.421280e+003, 2.507737e-003
1.423208e+003, 2.485714e-003
1.425137e+003, 2.602357e-003
1.427065e+003, 2.554029e-003
1.428994e+003, 2.304028e-003
1.430922e+003, 2.222626e-003
1.432851e+003, 2.390165e-003
1.434779e+003, 2.448695e-003
1.436708e+003, 2.439513e-003
1.438636e+003, 2.449775e-003
1.440565e+003, 2.582022e-003
1.442493e+003, 2.537440e-003
1.444422e+003, 2.368583e-003
1.446350e+003, 2.381125e-003
1.448278e+003, 2.447020e-003
1.450207e+003, 2.468272e-003
1.452135e+003, 2.339118e-003
1.454064e+003, 2.344594e-003
1.455992e+003, 2.396079e-003
1.457921e+003, 2.518453e-003
1.459849e+003, 2.522125e-003
1.461778e+003, 2.362332e-003
1.463706e+003, 2.293796e-003
1.465635e+003, 2.235265e-003
1.467563e+003, 2.200682e-003
1.469492e+003, 2.254780e-003
1.471420e+003, 2.327953e-003
1.473349e+003, 2.478940e-003
1.475277e+003, 2.538080e-003
1.477205e+003, 2.537810e-003
1.479134e+003, 2.599580e-003
1.481062e+003, 2.723896e-003
1.482991e+003, 2.771165e-003
1.484919e+003, 2.764095e-003
1.486848e+003, 2.777184e-003
1.488776e+003, 2.727729e-003
1.490705e+003, 2.632166e-003
1.492633e+003, 2.752676e-003
1.494562e+003, 2.782939e-003
1.496490e+003, 2.852565e-003
1.498419e+003, 2.959823e-003
1.500347e+003, 2.967428e-003
1.502276e+003, 2.963942e-003
1.504204e+003, 3.062831e-003
1.506132e+003, 3.166542e-003
1.508061e+003, 3.270473e-003
1.509989e+003, 3.183097e-003
1.511918e+003, 3.096154e-003
1.513846e+003, 3.271273e-003
1.515775e+003, 3.278267e-003
1.517703e+003, 3.271067e-003
1.519632e+003, 3.250227e-003
1.521560e+003, 3.230691e-003
1.523489e+003, 3.425800e-003
1.525417e+003, 3.507975e-003
1.527346e+003, 3.508289e-003
1.529274e+003, 3.497284e-003
1.531203e+003, 3.578560e-003
1.533131e+003, 3.587816e-003
1.535059e+003, 3.607978e-003
1.536988e+003, 3.717024e-003
1.538916e+003, 3.760812e-003
1.540845e+003, 3.764498e-003
1.542773e+003, 3.819076e-003
1.544702e+003, 3.944775e-003
1.546630e+003, 4.160771e-003
1.548559e+003, 4.277436e-003
1.550487e+003, 4.396050e-003
1.552416e+003, 4.290418e-003
1.554344e+003, 4.261074e-003
1.556273e+003, 4.395793e-003
1.558201e+003, 4.447388e-003
1.560130e+003, 4.461841e-003
1.562058e+003, 4.591312e-003
1.563986e+003, 4.700969e-003
1.565915e+003, 4.611372e-003
1.567843e+003, 4.644824e-003
1.569772e+003, 4.936060e-003
1.571700e+003, 5.089750e-003
1.573629e+003, 5.018043e-003
1.575557e+003, 5.021721e-003
1.577486e+003, 5.272856e-003
1.579414e+003, 5.418804e-003
1.581343e+003, 5.454468e-003
1.583271e+003, 5.651508e-003
1.585200e+003, 5.883869e-003
1.587128e+003, 6.057485e-003
1.589057e+003, 6.103090e-003
1.590985e+003, 6.127887e-003
1.592913e+003, 6.450786e-003
1.594842e+003, 6.850959e-003
1.596770e+003, 7.241076e-003
1.598699e+003, 7.572560e-003
1.600627e+003, 7.744923e-003
1.602556e+003, 7.950479e-003
1.604484e+003, 8.321716e-003
1.606413e+003, 8.754644e-003
1.608341e+003, 9.187279e-003
1.610270e+003, 9.599381e-003
1.612198e+003, 1.009629e-002
1.614127e+003, 1.052759e-002
1.616055e+003, 1.108466e-002
1.617984e+003, 1.182415e-002
1.619912e+003, 1.271488e-002
1.621840e+003, 1.375750e-002
1.623769e+003, 1.484164e-002
1.625697e+003, 1.625652e-002
1.627626e+003, 1.787685e-002
1.629554e+003, 1.972754e-002
1.631483e+003, 2.206386e-002
1.633411e+003, 2.455658e-002
1.635340e+003, 2.693649e-002
1.637268e+003, 2.892938e-002
1.639197e+003, 2.996582e-002
1.641125e+003, 3.001855e-002
1.643054e+003, 2.924478e-002
1.644982e+003, 2.741717e-002
1.646911e+003, 2.459979e-002
1.648839e+003, 2.135229e-002
1.650767e+003, 1.818527e-002
1.652696e+003, 1.535434e-002
1.654624e+003, 1.280928e-002
1.656553e+003, 1.084008e-002
1.658481e+003, 9.378431e-003
1.660410e+003, 8.205893e-003
1.662338e+003, 7.308640e-003
1.664267e+003, 6.588085e-003
1.666195e+003, 5.960254e-003
1.668124e+003, 5.372992e-003
1.670052e+003, 4.887511e-003
1.671981e+003, 4.566281e-003
1.673909e+003, 4.264249e-003
1.675838e+003, 3.995138e-003
1.677766e+003, 3.952000e-003
1.679694e+003, 3.725083e-003
1.681623e+003, 3.541769e-003
1.683551e+003, 3.428407e-003
1.685480e+003, 3.319115e-003
1.687408e+003, 3.152865e-003
1.689337e+003, 3.006500e-003
1.691265e+003, 2.887333e-003
1.693194e+003, 2.702191e-003
1.695122e+003, 2.726748e-003
1.697051e+003, 2.752820e-003
1.698979e+003, 2.549905e-003
1.700908e+003, 2.435744e-003
1.702836e+003, 2.340919e-003
1.704765e+003, 2.255688e-003
1.706693e+003, 2.269471e-003
1.708621e+003, 2.220929e-003
1.710550e+003, 2.155563e-003
1.712478e+003, 2.047205e-003
1.714407e+003, 2.035669e-003
1.716335e+003, 1.985612e-003
1.718264e+003, 2.013760e-003
1.720192e+003, 1.849101e-003
1.722121e+003, 1.714473e-003
1.724049e+003, 1.688395e-003
1.725978e+003, 1.659791e-003
1.727906e+003, 1.447250e-003
1.729835e+003, 1.305885e-003
1.731763e+003, 1.260553e-003
1.733692e+003, 1.061685e-003
1.735620e+003, 1.012880e-003
1.737548e+003, 1.129948e-003
1.739477e+003, 1.090393e-003
1.741405e+003, 1.089753e-003
1.743334e+003, 1.053476e-003
1.745262e+003, 8.694737e-004
1.747191e+003, 7.290882e-004
1.749119e+003, 7.182328e-004
1.751048e+003, 8.033531e-004
1.752976e+003, 1.022544e-003
1.754905e+003, 1.129355e-003
1.756833e+003, 1.047527e-003
1.758762e+003, 1.049319e-003
1.760690e+003, 1.332393e-003
1.762619e+003, 1.435130e-003
1.764547e+003, 1.545250e-003
1.766475e+003, 1.476622e-003
1.768404e+003, 1.304363e-003
1.770332e+003, 1.450108e-003
1.772261e+003, 1.448276e-003
1.774189e+003, 1.163608e-003
1.776118e+003, 1.202005e-003
1.778046e+003, 1.450347e-003
1.779975e+003, 1.482056e-003
1.781903e+003, 1.386122e-003
1.783832e+003, 1.314262e-003
1.785760e+003, 1.446918e-003
1.787689e+003, 1.288327e-003
1.789617e+003, 1.131622e-003
1.791546e+003, 1.198296e-003
1.793474e+003, 1.286009e-003
1.795402e+003, 1.425527e-003
1.797331e+003, 1.651359e-003
1.799259e+003, 1.660002e-003
1.801188e+003, 1.575842e-003
1.803116e+003, 1.471934e-003
1.805045e+003, 1.484654e-003
1.806973e+003, 1.501117e-003
1.808902e+003, 1.265493e-003
1.810830e+003, 1.091619e-003
1.812759e+003, 1.103067e-003
1.814687e+003, 1.157711e-003
1.816616e+003, 1.129103e-003
1.818544e+003, 1.255099e-003
1.820473e+003, 1.467248e-003
1.822401e+003, 1.768736e-003
1.824329e+003, 1.538065e-003
1.826258e+003, 1.261817e-003
1.828186e+003, 1.231054e-003
1.830115e+003, 1.115936e-003
1.832043e+003, 1.032074e-003
1.833972e+003, 1.065409e-003
1.835900e+003, 1.079504e-003
1.837829e+003, 1.028870e-003
1.839757e+003, 8.879894e-004
1.841686e+003, 8.514116e-004
1.843614e+003, 8.880164e-004
1.845543e+003, 1.126139e-003
1.847471e+003, 1.128726e-003
1.849400e+003, 7.780568e-004
1.851328e+003, 1.022914e-003
1.853256e+003, 1.449316e-003
1.855185e+003, 1.280818e-003
1.857113e+003, 9.222399e-004
1.859042e+003, 7.755777e-004
1.860970e+003, 8.124280e-004
1.862899e+003, 1.103970e-003
1.864827e+003, 1.149973e-003
1.866756e+003, 1.046302e-003
1.868684e+003, 8.664343e-004
1.870613e+003, 6.797815e-004
1.872541e+003, 8.979124e-004
1.874470e+003, 7.553443e-004
1.876398e+003, 5.080467e-004
1.878327e+003, 2.453734e-004
1.880255e+003, 2.896861e-004
1.882183e+003, 5.285215e-004
1.884112e+003, 3.762166e-004
1.886040e+003, 2.771370e-004
1.887969e+003, 4.345042e-004
1.889897e+003, 2.015357e-004
1.891826e+003, 1.409880e-004
1.893754e+003, 1.195431e-004
1.895683e+003, -2.967315e-004
1.897611e+003, -3.191572e-004
1.899540e+003, -2.089324e-004
1.901468e+003, -1.658711e-004
1.903397e+003, 7.303506e-005
1.905325e+003, 2.422696e-004
1.907254e+003, 2.716567e-004
1.909182e+003, 6.832244e-005
1.911110e+003, -1.719670e-004
1.913039e+003, -3.072419e-004
1.914967e+003, -7.343069e-004
1.916896e+003, -8.367006e-004
1.918824e+003, -7.061839e-004
1.920753e+003, -8.168308e-004
1.922681e+003, -9.386290e-004
1.924610e+003, -1.260231e-003
1.926538e+003, -1.728498e-003
1.928467e+003, -1.365407e-003
1.930395e+003, -1.355661e-003
1.932324e+003, -1.389998e-003
1.934252e+003, -1.324328e-003
1.936181e+003, -1.564082e-003
1.938109e+003, -1.447755e-003
1.940037e+003, -1.547243e-003
1.941966e+003, -1.390125e-003
1.943894e+003, -1.277746e-003
1.945823e+003, -1.784017e-003
1.947751e+003, -1.574266e-003
1.949680e+003, -7.929907e-004
1.951608e+003, -1.141597e-003
1.953537e+003, -2.112180e-003
1.955465e+003, -1.950862e-003
1.957394e+003, -2.181625e-003
1.959322e+003, -3.139393e-003
1.961251e+003, -2.370440e-003
1.963179e+003, -1.516936e-003
1.965108e+003, -2.758238e-003
1.967036e+003, -2.601570e-003
1.968964e+003, -1.575588e-003
1.970893e+003, -1.540497e-003
1.972821e+003, -1.320126e-003
1.974750e+003, -1.828624e-003
1.976678e+003, -5.588862e-004
1.978607e+003, 2.079627e-003
1.980535e+003, 2.192768e-003
1.982464e+003, 1.939161e-003
1.984392e+003, 2.393037e-003
1.986321e+003, 2.768793e-003
1.988249e+003, 2.194373e-003
1.990178e+003, 1.850814e-003
1.992106e+003, 1.936024e-003
1.994035e+003, 1.584364e-003
1.995963e+003, 6.598086e-004
1.997891e+003, 4.260239e-004
1.999820e+003, 1.016326e-003
2.001748e+003, 1.000241e-003
2.003677e+003, -3.691160e-004
2.005605e+003, -6.727843e-004
2.007534e+003, 6.592401e-004
2.009462e+003, 1.032026e-003
2.011391e+003, 8.414714e-004
2.013319e+003, 1.969483e-004
2.015248e+003, -9.143163e-004
2.017176e+003, -1.597022e-003
2.019105e+003, -1.837853e-003
2.021033e+003, -9.753388e-004
2.022962e+003, -3.416468e-004
2.024890e+003, -8.788118e-004
2.026818e+003, -5.040680e-004
2.028747e+003, -1.072456e-003
2.030675e+003, -1.475659e-003
2.032604e+003, -1.272573e-003
2.034532e+003, -7.687722e-004
2.036461e+003, -3.920846e-004
2.038389e+003, -4.031224e-004
2.040318e+003, -1.009563e-003
2.042246e+003, -7.881157e-004
2.044175e+003, -2.278204e-004
2.046103e+003, 5.513498e-004
2.048031e+003, 7.573636e-004
2.049960e+003, 1.101585e-003
2.051888e+003, 6.009388e-004
2.053817e+003, 2.030881e-004
2.055745e+003, 2.707306e-004
2.057674e+003, 2.711892e-004
2.059602e+003, 2.340763e-005
2.061531e+003, 6.772452e-004
2.063459e+003, 9.249863e-004
2.065388e+003, 6.587199e-004
2.067316e+003, 6.011388e-004
2.069245e+003, 7.565620e-004
2.071173e+003, 1.071483e-003
2.073102e+003, 9.621771e-004
2.075030e+003, 1.334956e-003
2.076958e+003, 2.035868e-003
2.078887e+003, 1.890030e-003
2.080815e+003, 1.644267e-003
2.082744e+003, 1.729864e-003
2.084672e+003, 1.432061e-003
2.086601e+003, 1.212307e-003
2.088529e+003, 1.258262e-003
2.090458e+003, 1.299446e-003
2.092386e+003, 9.657836e-004
2.094315e+003, 1.110968e-003
2.096243e+003, 1.359385e-003
2.098172e+003, 9.553007e-004
2.100100e+003, 9.935857e-004
2.102029e+003, 1.400386e-003
2.103957e+003, 1.862666e-003
2.105885e+003, 1.759291e-003
2.107814e+003, 9.328443e-004
2.109742e+003, 1.056723e-003
2.111671e+003, 1.548022e-003
2.113599e+003, 1.419176e-003
2.115528e+003, 8.559902e-004
2.117456e+003, 2.773839e-004
2.119385e+003, 3.525301e-005
2.121313e+003, 1.983732e-004
2.123242e+003, 2.048866e-004
2.125170e+003, 4.246151e-005
2.127099e+003, -1.955596e-004
2.129027e+003, -7.378703e-004
2.130956e+003, -1.268647e-003
2.132884e+003, -1.057483e-003
2.134813e+003, -5.468322e-004
2.136741e+003, -7.788853e-004
2.138669e+003, -1.685146e-003
2.140598e+003, -1.964365e-003
2.142526e+003, -1.515549e-003
2.144455e+003, -1.637998e-003
2.146383e+003, -1.907717e-003
2.148312e+003, -2.933218e-003
2.150240e+003, -3.109627e-003
2.152169e+003, -2.596213e-003
2.154097e+003, -2.770342e-003
2.156026e+003, -3.467024e-003
2.157954e+003, -1.458644e-003
2.159883e+003, 1.577631e-003
2.161811e+003, 9.507186e-004
2.163740e+003, 4.403726e-004
2.165668e+003, 8.459687e-004
2.167596e+003, 7.051176e-004
2.169525e+003, 1.510582e-003
2.171453e+003, 1.362619e-003
2.173382e+003, -3.030537e-004
2.175310e+003, -9.824726e-004
2.177239e+003, -1.565167e-003
2.179167e+003, -2.013521e-003
2.181096e+003, -1.179699e-003
2.183024e+003, 1.049835e-003
2.184953e+003, 2.088831e-003
2.186881e+003, 1.244159e-003
2.188810e+003, 6.808825e-004
2.190738e+003, 1.621754e-004
2.192667e+003, 4.951061e-004
2.194595e+003, 1.323692e-003
2.196523e+003, 6.196292e-004
2.198452e+003, -2.110046e-004
2.200380e+003, 1.070342e-004
2.202309e+003, 4.042701e-005
2.204237e+003, 1.281855e-004
2.206166e+003, 9.406633e-004
2.208094e+003, 1.472586e-003
2.210023e+003, 1.256005e-003
2.211951e+003, 6.159874e-004
2.213880e+003, 7.501984e-004
2.215808e+003, 6.583501e-004
2.217737e+003, 1.033867e-003
2.219665e+003, 1.537390e-003
2.221594e+003, 1.914074e-003
2.223522e+003, 1.963351e-003
2.225450e+003, 1.709951e-003
2.227379e+003, 1.721488e-003
2.229307e+003, 1.841974e-003
2.231236e+003, 1.886381e-003
2.233164e+003, 1.478041e-003
2.235093e+003, 2.210618e-003
2.237021e+003, 2.631317e-003
2.238950e+003, 1.774428e-003
2.240878e+003, 1.251832e-003
2.242807e+003, 1.272777e-003
2.244735e+003, 1.693923e-003
2.246664e+003, 1.783226e-003
2.248592e+003, 1.507355e-003
2.250521e+003, 1.499909e-003
2.252449e+003, 1.648682e-003
2.254377e+003, 2.275137e-003
2.256306e+003, 2.882366e-003
2.258234e+003, 2.550112e-003
2.260163e+003, 2.134840e-003
2.262091e+003, 1.906310e-003
2.264020e+003, 2.497606e-003
2.265948e+003, 2.326324e-003
2.267877e+003, 2.276107e-003
2.269805e+003, 2.986057e-003
2.271734e+003, 3.203415e-003
2.273662e+003, 3.294416e-003
2.275591e+003, 3.153937e-003
2.277519e+003, 2.807295e-003
2.279448e+003, 2.928972e-003
2.281376e+003, 2.797419e-003
2.283304e+003, 3.184210e-003
2.285233e+003, 3.738997e-003
2.287161e+003, 3.737055e-003
2.289090e+003, 3.253381e-003
2.291018e+003, 3.260234e-003
2.292947e+003, 3.059176e-003
2.294875e+003, 2.808634e-003
2.296804e+003, 3.064551e-003
2.298732e+003, 3.069035e-003
2.300661e+003, 2.757846e-003
2.302589e+003, 2.501069e-003
2.304518e+003, 2.554683e-003
2.306446e+003, 2.704626e-003
2.308375e+003, 2.815107e-003
2.310303e+003, 2.815386e-003
2.312231e+003, 2.930835e-003
2.314160e+003, 2.962194e-003
2.316088e+003, 2.852681e-003
2.318017e+003, 2.824324e-003
2.319945e+003, 2.961890e-003
2.321874e+003, 3.346596e-003
2.323802e+003, 3.567561e-003
2.325731e+003, 3.115129e-003
2.327659e+003, 2.464515e-003
2.329588e+003, 1.974404e-003
2.331516e+003, 1.699359e-003
2.333445e+003, 1.809892e-003
2.335373e+003, 2.127869e-003
2.337302e+003, 2.061877e-003
2.339230e+003, 1.755836e-003
2.341158e+003, 1.764743e-003
2.343087e+003, 1.876404e-003
2.345015e+003, 1.795204e-003
2.346944e+003, 1.799407e-003
2.348872e+003, 1.970630e-003
2.350801e+003, 2.002372e-003
2.352729e+003, 1.838829e-003
2.354658e+003, 1.827909e-003
2.356586e+003, 1.819237e-003
2.358515e+003, 1.730701e-003
2.360443e+003, 1.545832e-003
2.362372e+003, 1.726474e-003
2.364300e+003, 2.015205e-003
2.366229e+003, 1.766991e-003
2.368157e+003, 1.329534e-003
2.370085e+003, 1.371270e-003
2.372014e+003, 1.653774e-003
2.373942e+003, 1.953677e-003
2.375871e+003, 1.732634e-003
2.377799e+003, 1.721334e-003
2.379728e+003, 1.629142e-003
2.381656e+003, 1.828788e-003
2.383585e+003, 1.840554e-003
2.385513e+003, 1.764131e-003
2.387442e+003, 1.699156e-003
2.389370e+003, 1.552725e-003
2.391299e+003, 1.676981e-003
2.393227e+003, 1.727816e-003
2.395156e+003, 1.580885e-003
2.397084e+003, 1.461176e-003
2.399012e+003, 1.688680e-003
2.400941e+003, 1.756335e-003
2.402869e+003, 1.585020e-003
2.404798e+003, 1.751734e-003
2.406726e+003, 2.167151e-003
2.408655e+003, 2.453714e-003
2.410583e+003, 2.265233e-003
2.412512e+003, 2.184696e-003
2.414440e+003, 2.196704e-003
2.416369e+003, 1.930919e-003
2.418297e+003, 1.994274e-003
2.420226e+003, 2.189672e-003
2.422154e+003, 1.640502e-003
2.424083e+003, 1.804561e-003
2.426011e+003, 2.431029e-003
2.427939e+003, 2.510533e-003
2.429868e+003, 2.517370e-003
2.431796e+003, 2.422451e-003
2.433725e+003, 2.226128e-003
2.435653e+003, 2.523606e-003
2.437582e+003, 2.887718e-003
2.439510e+003, 2.739096e-003
2.441439e+003, 2.399624e-003
2.443367e+003, 2.497921e-003
2.445296e+003, 2.954541e-003
2.447224e+003, 2.744017e-003
2.449153e+003, 2.195514e-003
2.451081e+003, 2.223041e-003
2.453010e+003, 1.967771e-003
2.454938e+003, 1.995478e-003
2.456866e+003, 2.595770e-003
2.458795e+003, 2.483479e-003
2.460723e+003, 2.349855e-003
2.462652e+003, 2.142450e-003
2.464580e+003, 1.898598e-003
2.466509e+003, 2.173484e-003
2.468437e+003, 2.205261e-003
2.470366e+003, 1.942415e-003
2.472294e+003, 2.092973e-003
2.474223e+003, 2.433901e-003
2.476151e+003, 2.666645e-003
2.478080e+003, 2.784130e-003
2.480008e+003, 2.563137e-003
2.481937e+003, 2.462342e-003
2.483865e+003, 2.321972e-003
2.485793e+003, 2.025509e-003
2.487722e+003, 2.142621e-003
2.489650e+003, 2.736674e-003
2.491579e+003, 2.485892e-003
2.493507e+003, 2.255063e-003
2.495436e+003, 2.431398e-003
2.497364e+003, 2.582568e-003
2.499293e+003, 2.803397e-003
2.501221e+003, 2.553910e-003
2.503150e+003, 1.853950e-003
2.505078e+003, 2.234419e-003
2.507007e+003, 2.933981e-003
2.508935e+003, 2.742204e-003
2.510864e+003, 2.245165e-003
2.512792e+003, 2.232289e-003
2.514720e+003, 2.407766e-003
2.516649e+003, 2.058087e-003
2.518577e+003, 1.648056e-003
2.520506e+003, 1.473352e-003
2.522434e+003, 1.385604e-003
2.524363e+003, 1.335996e-003
2.526291e+003, 1.544211e-003
2.528220e+003, 2.286204e-003
2.530148e+003, 2.362886e-003
2.532077e+003, 2.200494e-003
2.534005e+003, 2.496412e-003
2.535934e+003, 2.643847e-003
2.537862e+003, 2.564182e-003
2.539791e+003, 2.661112e-003
2.541719e+003, 2.481390e-003
2.543647e+003, 2.116222e-003
2.545576e+003, 2.266569e-003
2.547504e+003, 2.551420e-003
2.549433e+003, 2.441087e-003
2.551361e+003, 2.575703e-003
2.553290e+003, 3.024793e-003
2.555218e+003, 3.046520e-003
2.557147e+003, 2.830064e-003
2.559075e+003, 3.222373e-003
2.561004e+003, 3.103877e-003
2.562932e+003, 2.802413e-003
2.564861e+003, 3.099092e-003
2.566789e+003, 3.209995e-003
2.568718e+003, 2.779472e-003
2.570646e+003, 3.111036e-003
2.572574e+003, 3.219111e-003
2.574503e+003, 2.746737e-003
2.576431e+003, 2.498765e-003
2.578360e+003, 2.825620e-003
2.580288e+003, 3.341948e-003
2.582217e+003, 3.229546e-003
2.584145e+003, 2.894882e-003
2.586074e+003, 2.742676e-003
2.588002e+003, 2.618710e-003
2.589931e+003, 2.669949e-003
2.591859e+003, 2.814930e-003
2.593788e+003, 3.172223e-003
2.595716e+003, 3.381599e-003
2.597645e+003, 3.016150e-003
2.599573e+003, 3.008889e-003
2.601501e+003, 2.643861e-003
2.603430e+003, 2.540858e-003
2.605358e+003, 2.938293e-003
2.607287e+003, 3.217582e-003
2.609215e+003, 3.252388e-003
2.611144e+003, 3.408032e-003
2.613072e+003, 3.654515e-003
2.615001e+003, 3.636872e-003
2.616929e+003, 3.469158e-003
2.618858e+003, 3.502004e-003
2.620786e+003, 3.190700e-003
2.622715e+003, 3.068088e-003
2.624643e+003, 3.270834e-003
2.626572e+003, 3.324035e-003
2.628500e+003, 3.437673e-003
2.630428e+003, 3.213888e-003
2.632357e+003, 3.073509e-003
2.634285e+003, 3.000058e-003
2.636214e+003, 2.986316e-003
2.638142e+003, 3.054934e-003
2.640071e+003, 3.115057e-003
2.641999e+003, 3.159466e-003
2.643928e+003, 3.082012e-003
2.645856e+003, 2.922265e-003
2.647785e+003, 2.896425e-003
2.649713e+003, 2.698050e-003
2.651642e+003, 2.689005e-003
2.653570e+003, 2.851191e-003
2.655499e+003, 2.985931e-003
2.657427e+003, 2.633446e-003
2.659355e+003, 2.389599e-003
2.661284e+003, 2.356606e-003
2.663212e+003, 2.159379e-003
2.665141e+003, 1.871145e-003
2.667069e+003, 1.814435e-003
2.668998e+003, 1.774650e-003
2.670926e+003, 1.937080e-003
2.672855e+003, 2.139337e-003
2.674783e+003, 2.183323e-003
2.676712e+003, 2.107949e-003
2.678640e+003, 2.127518e-003
2.680569e+003, 2.126024e-003
2.682497e+003, 2.045725e-003
2.684426e+003, 2.062076e-003
2.686354e+003, 2.192768e-003
2.688282e+003, 2.298312e-003
2.690211e+003, 2.280759e-003
2.692139e+003, 2.234311e-003
2.694068e+003, 2.189495e-003
2.695996e+003, 2.287722e-003
2.697925e+003, 2.553525e-003
2.699853e+003, 2.235245e-003
2.701782e+003, 1.887365e-003
2.703710e+003, 2.139532e-003
2.705639e+003, 2.361119e-003
2.707567e+003, 2.370622e-003
2.709496e+003, 2.324454e-003
2.711424e+003, 2.281551e-003
2.713353e+003, 2.165897e-003
2.715281e+003, 2.184561e-003
2.717209e+003, 2.164015e-003
2.719138e+003, 2.301040e-003
2.721066e+003, 2.461222e-003
2.722995e+003, 2.548861e-003
2.724923e+003, 2.673639e-003
2.726852e+003, 2.424355e-003
2.728780e+003, 2.538692e-003
2.730709e+003, 2.648936e-003
2.732637e+003, 2.403097e-003
2.734566e+003, 2.429488e-003
2.736494e+003, 2.574764e-003
2.738423e+003, 2.286268e-003
2.740351e+003, 2.222925e-003
2.742280e+003, 2.550795e-003
2.744208e+003, 2.566804e-003
2.746136e+003, 2.271923e-003
2.748065e+003, 2.401792e-003
2.749993e+003, 2.481817e-003
2.751922e+003, 2.715116e-003
2.753850e+003, 2.630050e-003
2.755779e+003, 2.440008e-003
2.757707e+003, 2.072876e-003
2.759636e+003, 1.890597e-003
2.761564e+003, 2.251500e-003
2.763493e+003, 2.447756e-003
2.765421e+003, 2.645784e-003
2.767350e+003, 2.946143e-003
2.769278e+003, 2.992901e-003
2.771207e+003, 2.798474e-003
2.773135e+003, 2.636496e-003
2.775063e+003, 2.674453e-003
2.776992e+003, 2.620153e-003
2.778920e+003, 2.389456e-003
2.780849e+003, 2.389176e-003
2.782777e+003, 2.411435e-003
2.784706e+003, 2.549852e-003
2.786634e+003, 2.733540e-003
2.788563e+003, 2.302117e-003
2.790491e+003, 2.165318e-003
2.792420e+003, 2.566280e-003
2.794348e+003, 2.896367e-003
2.796277e+003, 2.814783e-003
2.798205e+003, 2.733740e-003
2.800134e+003, 2.679460e-003
2.802062e+003, 2.628454e-003
2.803990e+003, 2.707080e-003
2.805919e+003, 2.540767e-003
2.807847e+003, 2.347772e-003
2.809776e+003, 2.652484e-003
2.811704e+003, 3.078820e-003
2.813633e+003, 2.951400e-003
2.815561e+003, 2.634760e-003
2.817490e+003, 2.764369e-003
2.819418e+003, 2.782459e-003
2.821347e+003, 2.606167e-003
2.823275e+003, 2.680885e-003
2.825204e+003, 2.742665e-003
2.827132e+003, 2.534349e-003
2.829061e+003, 2.527342e-003
2.830989e+003, 2.996122e-003
2.832917e+003, 3.084828e-003
2.834846e+003, 2.488085e-003
2.836774e+003, 2.122233e-003
2.838703e+003, 2.250785e-003
2.840631e+003, 2.490900e-003
2.842560e+003, 2.618778e-003
2.844488e+003, 2.613376e-003
2.846417e+003, 2.134359e-003
2.848345e+003, 1.665651e-003
2.850274e+003, 1.442767e-003
2.852202e+003, 9.837148e-004
2.854131e+003, 4.445534e-004
2.856059e+003, 7.780307e-004
2.857988e+003, 1.246645e-003
2.859916e+003, 1.455901e-003
2.861844e+003, 1.341922e-003
2.863773e+003, 1.499951e-003
2.865701e+003, 2.004537e-003
2.867630e+003, 2.102010e-003
2.869558e+003, 1.902387e-003
2.871487e+003, 1.806379e-003
2.873415e+003, 1.618917e-003
2.875344e+003, 1.588428e-003
2.877272e+003, 1.908456e-003
2.879201e+003, 2.275727e-003
2.881129e+003, 2.234980e-003
2.883058e+003, 2.026437e-003
2.884986e+003, 2.305774e-003
2.886915e+003, 2.667309e-003
2.888843e+003, 2.746503e-003
2.890771e+003, 2.405305e-003
2.892700e+003, 1.936735e-003
2.894628e+003, 1.558364e-003
2.896557e+003, 1.565168e-003
2.898485e+003, 1.894921e-003
2.900414e+003, 2.049802e-003
2.902342e+003, 1.884922e-003
2.904271e+003, 1.771880e-003
2.906199e+003, 1.569028e-003
2.908128e+003, 1.488162e-003
2.910056e+003, 1.535101e-003
2.911985e+003, 1.273965e-003
2.913913e+003, 9.625805e-004
2.915842e+003, 7.732415e-004
2.917770e+003, 6.020572e-004
2.919698e+003, 4.156692e-004
2.921627e+003, -2.369573e-004
2.923555e+003, -6.365617e-004
2.925484e+003, -8.204676e-004
2.927412e+003, -7.957083e-004
2.929341e+003, -4.885108e-004
2.931269e+003, -9.576145e-005
2.933198e+003, -1.642478e-005
2.935126e+003, 2.955849e-004
2.937055e+003, 9.003005e-004
2.938983e+003, 1.057307e-003
2.940912e+003, 1.133683e-003
2.942840e+003, 1.317039e-003
2.944769e+003, 1.656480e-003
2.946697e+003, 1.488252e-003
2.948625e+003, 1.292146e-003
2.950554e+003, 1.168712e-003
2.952482e+003, 9.186374e-004
2.954411e+003, 1.148194e-003
2.956339e+003, 1.169141e-003
2.958268e+003, 1.583302e-003
2.960196e+003, 2.224392e-003
2.962125e+003, 2.081126e-003
2.964053e+003, 1.618553e-003
2.965982e+003, 1.662902e-003
2.967910e+003, 2.085092e-003
2.969839e+003, 2.246719e-003
2.971767e+003, 2.069655e-003
2.973696e+003, 2.432940e-003
2.975624e+003, 2.849166e-003
2.977552e+003, 2.552342e-003
2.979481e+003, 2.513143e-003
2.981409e+003, 3.033519e-003
2.983338e+003, 3.100976e-003
2.985266e+003, 3.029809e-003
2.987195e+003, 2.732685e-003
2.989123e+003, 2.724127e-003
2.991052e+003, 2.853608e-003
2.992980e+003, 2.908522e-003
2.994909e+003, 2.826458e-003
2.996837e+003, 2.765089e-003
2.998766e+003, 2.881182e-003
3.000694e+003, 3.003512e-003
3.002623e+003, 3.122218e-003
3.004551e+003, 3.331706e-003
3.006479e+003, 3.498643e-003
3.008408e+003, 2.976565e-003
3.010336e+003, 3.170033e-003
3.012265e+003, 3.363675e-003
3.014193e+003, 2.962569e-003
3.016122e+003, 2.200846e-003
3.018050e+003, 2.281088e-003
3.019979e+003, 2.921621e-003
3.021907e+003, 2.936532e-003
3.023836e+003, 2.976666e-003
3.025764e+003, 3.179948e-003
3.027693e+003, 3.332224e-003
3.029621e+003, 3.604588e-003
3.031550e+003, 3.433348e-003
3.033478e+003, 3.384643e-003
3.035406e+003, 3.362594e-003
3.037335e+003, 3.494187e-003
3.039263e+003, 4.039333e-003
3.041192e+003, 4.359919e-003
3.043120e+003, 4.376543e-003
3.045049e+003, 4.165739e-003
3.046977e+003, 3.887059e-003
3.048906e+003, 3.478732e-003
3.050834e+003, 3.621008e-003
3.052763e+003, 4.056665e-003
3.054691e+003, 3.840663e-003
3.056620e+003, 3.546430e-003
3.058548e+003, 3.976427e-003
3.060477e+003, 4.270059e-003
3.062405e+003, 4.265319e-003
3.064333e+003, 4.234392e-003
3.066262e+003, 4.034146e-003
3.068190e+003, 4.318661e-003
3.070119e+003, 4.643297e-003
3.072047e+003, 4.405073e-003
3.073976e+003, 4.117343e-003
3.075904e+003, 3.778208e-003
3.077833e+003, 4.127113e-003
3.079761e+003, 4.275775e-003
3.081690e+003, 3.986542e-003
3.083618e+003, 4.268727e-003
3.085547e+003, 4.726444e-003
3.087475e+003, 5.312131e-003
3.089404e+003, 4.805597e-003
3.091332e+003, 3.953505e-003
3.093260e+003, 4.552723e-003
3.095189e+003, 4.963433e-003
3.097117e+003, 5.007314e-003
3.099046e+003, 5.075469e-003
3.100974e+003, 5.030876e-003
3.102903e+003, 4.849502e-003
3.104831e+003, 4.747415e-003
3.106760e+003, 4.788999e-003
3.108688e+003, 5.375723e-003
3.110617e+003, 5.824400e-003
3.112545e+003, 5.106273e-003
3.114474e+003, 4.826159e-003
3.116402e+003, 5.186090e-003
3.118331e+003, 5.108712e-003
3.120259e+003, 4.904747e-003
3.122188e+003, 5.360638e-003
3.124116e+003, 5.831275e-003
3.126044e+003, 5.758731e-003
3.127973e+003, 5.930387e-003
3.129901e+003, 6.135296e-003
3.131830e+003, 5.679040e-003
3.133758e+003, 5.600167e-003
3.135687e+003, 5.722446e-003
3.137615e+003, 5.733691e-003
3.139544e+003, 5.957549e-003
3.141472e+003, 6.328003e-003
3.143401e+003, 6.253621e-003
3.145329e+003, 6.001814e-003
3.147258e+003, 6.046029e-003
3.149186e+003, 6.446070e-003
3.151115e+003, 6.648191e-003
3.153043e+003, 6.818981e-003
3.154971e+003, 6.801615e-003
3.156900e+003, 6.794210e-003
3.158828e+003, 6.595684e-003
3.160757e+003, 6.643804e-003
3.162685e+003, 6.795498e-003
3.164614e+003, 6.759810e-003
3.166542e+003, 6.426570e-003
3.168471e+003, 6.266584e-003
3.170399e+003, 6.165402e-003
3.172328e+003, 6.398182e-003
3.174256e+003, 6.956716e-003
3.176185e+003, 7.015734e-003
3.178113e+003, 7.146796e-003
3.180042e+003, 7.378232e-003
3.181970e+003, 7.429240e-003
3.183898e+003, 7.237432e-003
3.185827e+003, 6.947595e-003
3.187755e+003, 7.430748e-003
3.189684e+003, 7.751603e-003
3.191612e+003, 7.420600e-003
3.193541e+003, 7.614033e-003
3.195469e+003, 8.132937e-003
3.197398e+003, 8.522386e-003
3.199326e+003, 8.032929e-003
3.201255e+003, 7.899086e-003
3.203183e+003, 8.022971e-003
3.205112e+003, 8.169015e-003
3.207040e+003, 8.031563e-003
3.208969e+003, 8.177669e-003
3.210897e+003, 8.486542e-003
3.212825e+003, 8.556224e-003
3.214754e+003, 8.699298e-003
3.216682e+003, 8.409938e-003
3.218611e+003, 8.529570e-003
3.220539e+003, 9.122722e-003
3.222468e+003, 9.518147e-003
3.224396e+003, 9.569667e-003
3.226325e+003, 9.233156e-003
3.228253e+003, 9.169335e-003
3.230182e+003, 8.795111e-003
3.232110e+003, 8.646589e-003
3.234039e+003, 9.590409e-003
3.235967e+003, 1.000836e-002
3.237896e+003, 9.958789e-003
3.239824e+003, 1.035516e-002
3.241752e+003, 1.030852e-002
3.243681e+003, 9.989788e-003
3.245609e+003, 9.649301e-003
3.247538e+003, 9.249455e-003
3.249466e+003, 9.332006e-003
3.251395e+003, 9.976438e-003
3.253323e+003, 1.075693e-002
3.255252e+003, 1.114310e-002
3.257180e+003, 1.074576e-002
3.259109e+003, 1.075070e-002
3.261037e+003, 1.125057e-002
3.262966e+003, 1.147978e-002
3.264894e+003, 1.084304e-002
3.266823e+003, 1.045651e-002
3.268751e+003, 1.018764e-002
3.270679e+003, 9.691210e-003
3.272608e+003, 9.599759e-003
3.274536e+003, 9.902564e-003
3.276465e+003, 9.859202e-003
3.278393e+003, 9.874193e-003
3.280322e+003, 1.029913e-002
3.282250e+003, 9.964222e-003
3.284179e+003, 1.030226e-002
3.286107e+003, 1.082726e-002
3.288036e+003, 1.043573e-002
3.289964e+003, 9.331997e-003
3.291893e+003, 9.245357e-003
3.293821e+003, 1.002463e-002
3.295750e+003, 1.011462e-002
3.297678e+003, 1.009975e-002
3.299606e+003, 1.011215e-002
3.301535e+003, 9.987735e-003
3.303463e+003, 1.070865e-002
3.305392e+003, 1.104950e-002
3.307320e+003, 1.084338e-002
3.309249e+003, 1.092494e-002
3.311177e+003, 1.146149e-002
3.313106e+003, 1.181622e-002
3.315034e+003, 1.163251e-002
3.316963e+003, 1.138248e-002
3.318891e+003, 1.171933e-002
3.320820e+003, 1.217303e-002
3.322748e+003, 1.226948e-002
3.324677e+003, 1.255849e-002
3.326605e+003, 1.275292e-002
3.328533e+003, 1.272293e-002
3.330462e+003, 1.297335e-002
3.332390e+003, 1.280762e-002
3.334319e+003, 1.245974e-002
3.336247e+003, 1.249304e-002
3.338176e+003, 1.317739e-002
3.340104e+003, 1.336449e-002
3.342033e+003, 1.291250e-002
3.343961e+003, 1.282963e-002
3.345890e+003, 1.350971e-002
3.347818e+003, 1.398256e-002
3.349747e+003, 1.401549e-002
3.351675e+003, 1.403242e-002
3.353604e+003, 1.435916e-002
3.355532e+003, 1.511856e-002
3.357460e+003, 1.535006e-002
3.359389e+003, 1.620954e-002
3.361317e+003, 1.675624e-002
3.363246e+003, 1.602229e-002
3.365174e+003, 1.584616e-002
3.367103e+003, 1.652035e-002
3.369031e+003, 1.701264e-002
3.370960e+003, 1.745761e-002
3.372888e+003, 1.768159e-002
3.374817e+003, 1.811313e-002
3.376745e+003, 1.860374e-002
3.378674e+003, 1.889069e-002
3.380602e+003, 1.932884e-002
3.382531e+003, 2.018013e-002
3.384459e+003, 2.024177e-002
3.386387e+003, 2.028573e-002
3.388316e+003, 2.055660e-002
3.390244e+003, 2.113399e-002
3.392173e+003, 2.138205e-002
3.394101e+003, 2.136237e-002
3.396030e+003, 2.161451e-002
3.397958e+003, 2.210237e-002
3.399887e+003, 2.233277e-002
3.401815e+003, 2.196076e-002
3.403744e+003, 2.165594e-002
3.405672e+003, 2.147722e-002
3.407601e+003, 2.173421e-002
3.409529e+003, 2.240471e-002
3.411458e+003, 2.171247e-002
3.413386e+003, 2.115824e-002
3.415314e+003, 2.071971e-002
3.417243e+003, 1.966684e-002
3.419171e+003, 1.926310e-002
3.421100e+003, 1.935389e-002
3.423028e+003, 1.884782e-002
3.424957e+003, 1.868950e-002
3.426885e+003, 1.790996e-002
3.428814e+003, 1.725913e-002
3.430742e+003, 1.671935e-002
3.432671e+003, 1.695479e-002
3.434599e+003, 1.762158e-002
3.436528e+003, 1.671922e-002
3.438456e+003, 1.625964e-002
3.440385e+003, 1.673510e-002
3.442313e+003, 1.675475e-002
3.444241e+003, 1.718936e-002
3.446170e+003, 1.684304e-002
3.448098e+003, 1.642398e-002
3.450027e+003, 1.633493e-002
3.451955e+003, 1.676860e-002
3.453884e+003, 1.726631e-002
3.455812e+003, 1.753891e-002
3.457741e+003, 1.791480e-002
3.459669e+003, 1.836731e-002
3.461598e+003, 1.906054e-002
3.463526e+003, 2.010614e-002
3.465455e+003, 2.093063e-002
3.467383e+003, 2.086481e-002
3.469312e+003, 2.062910e-002
3.471240e+003, 2.080032e-002
3.473168e+003, 2.127762e-002
3.475097e+003, 2.157627e-002
3.477025e+003, 2.084340e-002
3.478954e+003, 1.943981e-002
3.480882e+003, 1.816496e-002
3.482811e+003, 1.749252e-002
3.484739e+003, 1.691945e-002
3.486668e+003, 1.598749e-002
3.488596e+003, 1.560013e-002
3.490525e+003, 1.491224e-002
3.492453e+003, 1.392058e-002
3.494382e+003, 1.374798e-002
3.496310e+003, 1.274377e-002
3.498239e+003, 1.199286e-002
3.500167e+003, 1.190514e-002
3.502095e+003, 1.151809e-002
3.504024e+003, 1.113446e-002
3.505952e+003, 1.101889e-002
3.507881e+003, 1.141135e-002
3.509809e+003, 1.141938e-002
3.511738e+003, 1.127009e-002
3.513666e+003, 1.058070e-002
3.515595e+003, 1.051543e-002
3.517523e+003, 1.057589e-002
3.519452e+003, 1.034932e-002
3.521380e+003, 9.928399e-003
3.523309e+003, 1.011527e-002
3.525237e+003, 1.023745e-002
3.527166e+003, 9.773802e-003
3.529094e+003, 1.007232e-002
3.531022e+003, 1.027133e-002
3.532951e+003, 9.558590e-003
3.534879e+003, 9.237379e-003
3.536808e+003, 9.533885e-003
3.538736e+003, 1.003493e-002
3.540665e+003, 1.034237e-002
3.542593e+003, 1.079157e-002
3.544522e+003, 1.092045e-002
3.546450e+003, 1.074853e-002
3.548379e+003, 1.111635e-002
3.550307e+003, 1.182779e-002
3.552236e+003, 1.228724e-002
3.554164e+003, 1.316842e-002
3.556093e+003, 1.357337e-002
3.558021e+003, 1.381980e-002
3.559949e+003, 1.498563e-002
3.561878e+003, 1.662579e-002
3.563806e+003, 1.901963e-002
3.565735e+003, 2.118484e-002
3.567663e+003, 2.291108e-002
3.569592e+003, 2.494933e-002
3.571520e+003, 2.784183e-002
3.573449e+003, 3.063990e-002
3.575377e+003, 3.291104e-002
3.577306e+003, 3.520960e-002
3.579234e+003, 3.589837e-002
3.581163e+003, 3.504718e-002
3.583091e+003, 3.275021e-002
3.585020e+003, 2.824786e-002
3.586948e+003, 2.346427e-002
3.588876e+003, 1.995588e-002
3.590805e+003, 1.779325e-002
3.592733e+003, 1.554078e-002
3.594662e+003, 1.312700e-002
3.596590e+003, 1.214183e-002
3.598519e+003, 1.085447e-002
3.600447e+003, 9.567512e-003
3.602376e+003, 9.774768e-003
3.604304e+003, 9.759331e-003
3.606233e+003, 8.482516e-003
3.608161e+003, 6.821094e-003
3.610090e+003, 6.009811e-003
3.612018e+003, 5.668496e-003
3.613947e+003, 5.757212e-003
3.615875e+003, 5.832074e-003
3.617803e+003, 5.697787e-003
3.619732e+003, 4.383663e-003
3.621660e+003, 4.129464e-003
3.623589e+003, 4.056307e-003
3.625517e+003, 3.869149e-003
3.627446e+003, 4.177275e-003
3.629374e+003, 4.142962e-003
3.631303e+003, 3.590575e-003
3.633231e+003, 3.054077e-003
3.635160e+003, 2.684165e-003
3.637088e+003, 2.378275e-003
3.639017e+003, 2.347535e-003
3.640945e+003, 1.882489e-003
3.642874e+003, 1.486795e-003
3.644802e+003, 1.979159e-003
3.646730e+003, 1.627099e-003
3.648659e+003, 1.239052e-003
3.650587e+003, 1.280986e-003
3.652516e+003, 7.897480e-004
3.654444e+003, 1.147952e-003
3.656373e+003, 1.258403e-003
3.658301e+003, 6.124927e-004
3.660230e+003, 1.926015e-004
3.662158e+003, 1.103038e-004
3.664087e+003, 7.765808e-004
3.666015e+003, 1.101141e-003
3.667944e+003, 1.083234e-003
3.669872e+003, 1.606750e-003
3.671801e+003, 1.298780e-003
3.673729e+003, 5.197307e-004
3.675657e+003, 1.056995e-003
3.677586e+003, 1.589270e-003
3.679514e+003, 1.005401e-003
3.681443e+003, 9.263486e-004
3.683371e+003, 6.613763e-004
3.685300e+003, 9.738702e-004
3.687228e+003, 1.315486e-003
3.689157e+003, 8.716623e-004
3.691085e+003, -3.183168e-004
3.693014e+003, -8.736584e-005
3.694942e+003, -6.366262e-006
3.696871e+003, 1.320521e-004
3.698799e+003, 6.455104e-004
3.700728e+003, 1.005186e-003
3.702656e+003, 1.202016e-003
3.704584e+003, 1.369098e-003
3.706513e+003, 1.360715e-003
3.708441e+003, 1.375443e-003
3.710370e+003, 1.359547e-003
3.712298e+003, 5.340464e-004
3.714227e+003, -1.128488e-004
3.716155e+003, -9.542389e-005
3.718084e+003, 1.110863e-003
3.720012e+003, 1.743947e-003
3.721941e+003, 1.717567e-003
3.723869e+003, 2.118582e-003
3.725798e+003, 2.478813e-003
3.727726e+003, 1.932922e-003
3.729655e+003, 1.261239e-003
3.731583e+003, 6.601377e-004
3.733511e+003, 8.653091e-004
3.735440e+003, 1.034430e-003
3.737368e+003, 1.140665e-003
3.739297e+003, 1.776802e-003
3.741225e+003, 1.921430e-003
3.743154e+003, 1.287898e-003
3.745082e+003, 1.084658e-003
3.747011e+003, 8.114220e-004
3.748939e+003, 8.855389e-004
3.750868e+003, 1.342419e-003
3.752796e+003, 1.065490e-003
3.754725e+003, 6.171864e-004
3.756653e+003, 2.057094e-003
3.758582e+003, 1.972238e-003
3.760510e+003, 1.129274e-003
3.762438e+003, 1.364527e-003
3.764367e+003, 1.644002e-003
3.766295e+003, 1.294112e-003
3.768224e+003, 1.354629e-003
3.770152e+003, 1.298187e-003
3.772081e+003, 2.511127e-004
3.774009e+003, 7.948739e-004
3.775938e+003, 1.083453e-003
3.777866e+003, 6.556776e-004
3.779795e+003, 1.288347e-003
3.781723e+003, 1.908482e-003
3.783652e+003, 2.265199e-003
3.785580e+003, 1.445858e-003
3.787509e+003, 5.274165e-004
3.789437e+003, 5.882251e-004
3.791365e+003, 9.556421e-004
3.793294e+003, 1.760309e-003
3.795222e+003, 2.255379e-003
3.797151e+003, 2.167706e-003
3.799079e+003, 2.469072e-003
3.801008e+003, 1.807638e-003
3.802936e+003, 1.269501e-003
3.804865e+003, 6.975695e-004
3.806793e+003, 3.278559e-004
3.808722e+003, 6.506804e-004
3.810650e+003, 6.537887e-004
3.812579e+003, 2.690965e-004
3.814507e+003, 2.010988e-004
3.816436e+003, 8.240521e-004
3.818364e+003, 6.092953e-004
3.820292e+003, 6.773504e-004
3.822221e+003, 6.325888e-004
3.824149e+003, 6.651048e-004
3.826078e+003, 1.207702e-003
3.828006e+003, 9.255358e-004
3.829935e+003, 2.168883e-004
3.831863e+003, 1.702689e-004
3.833792e+003, 1.009551e-003
3.835720e+003, 1.278791e-003
3.837649e+003, 1.030416e-003
3.839577e+003, 1.436177e-003
3.841506e+003, 1.755032e-003
3.843434e+003, 1.357960e-003
3.845363e+003, 8.181880e-004
3.847291e+003, 7.196311e-004
3.849219e+003, 8.561414e-004
3.851148e+003, 1.246646e-003
3.853076e+003, 1.108653e-003
3.855005e+003, 9.640146e-004
3.856933e+003, 1.210919e-003
3.858862e+003, 1.722388e-003
3.860790e+003, 1.846826e-003
3.862719e+003, 1.663894e-003
3.864647e+003, 1.400057e-003
3.866576e+003, 7.296468e-004
3.868504e+003, 6.069099e-004
3.870433e+003, 1.210922e-003
3.872361e+003, 1.638251e-003
3.874290e+003, 2.123438e-003
3.876218e+003, 2.006833e-003
3.878146e+003, 1.160614e-003
3.880075e+003, 1.066249e-003
3.882003e+003, 1.031128e-003
3.883932e+003, 1.252622e-003
3.885860e+003, 1.536093e-003
3.887789e+003, 8.009236e-004
3.889717e+003, 2.081573e-004
3.891646e+003, 7.747558e-004
3.893574e+003, 4.766295e-004
3.895503e+003, 1.310149e-004
3.897431e+003, 1.149715e-003
3.899360e+003, 1.463969e-003
3.901288e+003, 7.160233e-004
3.903217e+003, 1.046856e-003
3.905145e+003, 1.520664e-003
3.907073e+003, 1.171085e-003
3.909002e+003, 4.171089e-004
3.910930e+003, 8.093210e-004
3.912859e+003, 1.984396e-003
3.914787e+003, 1.132250e-003
3.916716e+003, 8.312926e-004
3.918644e+003, 1.414681e-003
3.920573e+003, 7.737565e-004
3.922501e+003, 2.867342e-004
3.924430e+003, 3.639990e-004
3.926358e+003, 9.227612e-004
3.928287e+003, 9.065449e-004
3.930215e+003, 5.863687e-004
3.932144e+003, 4.440786e-004
3.934072e+003, 6.346699e-004
3.936000e+003, 1.913304e-004
3.937929e+003, -1.731375e-004
3.939857e+003, 6.324691e-004
3.941786e+003, 7.531167e-004
3.943714e+003, 6.849847e-004
3.945643e+003, 1.548734e-003
3.947571e+003, 1.973584e-003
3.949500e+003, 1.517765e-003
3.951428e+003, 2.054030e-003
3.953357e+003, 1.835768e-003
3.955285e+003, 2.857227e-004
3.957214e+003, -9.067073e-004
3.959142e+003, -1.032489e-003
3.961071e+003, 1.539588e-004
3.962999e+003, 9.848291e-006
3.964927e+003, -2.058509e-004
3.966856e+003, 3.722725e-004
3.968784e+003, 5.780476e-004
3.970713e+003, 1.431108e-003
3.972641e+003, 1.503734e-003
3.974570e+003, 1.399284e-003
3.976498e+003, 1.192817e-003
3.978427e+003, 7.638099e-004
3.980355e+003, 2.870061e-004
3.982284e+003, -2.708704e-004
3.984212e+003, -1.503563e-004
3.986141e+003, 4.147266e-005
3.988069e+003, 4.030765e-004
3.989998e+003, 9.259449e-004
3.991926e+003, 3.813724e-004
3.993854e+003, -2.826393e-004
3.995783e+003, 1.321367e-004
3.997711e+003, 3.845749e-004
3.999640e+003, 9.450223e-004
##END=



