##NAMES=Bindheimite
##RRUFFID=R050546
##IDEAL CHEMISTRY=Pb^2+^_2_Sb^5+^_2_O_7_
##LOCALITY=Arabia District, Pershing County, Nevada, USA
##OWNER=RRUFF
##SOURCE=University of Arizona Mineral Museum
##DESCRIPTION=Yellow-brown coarsely fibrous massive, intimately mixed with mimetite
##STATUS=The identification of this mineral has been confirmed by X-ray diffraction and chemical analysis
##URL=rruff.info/R050546
##MEASURED CHEMISTRY=(Pb_1.33_Fe_0.47_Ca_0.20_)_Σ=2_(Sb^5+^_1.97_As^5+^_0.03_)_Σ=2_O_7_  ;(darker phase, with trace amounts of Na);   (Pb_4.07_Ca_0.92_Fe_0.01_)_Σ=5_((As_2.97_Sb_0.03_)_Σ=1_O_4_)_3_Cl_1.00_ (lighter phase = mimetite)
399.1926, 0.3182689
401.1211, 0.2977601
403.0496, 0.2991916
404.9780, 0.2917754
406.9065, 0.2896160
408.8350, 0.2833219
410.7634, 0.2751707
412.6919, 0.2670017
414.6204, 0.2610123
416.5488, 0.2611463
418.4773, 0.2545092
420.4058, 0.2399242
422.3342, 0.2372308
424.2627, 0.2373313
426.1912, 0.2368290
428.1196, 0.2301167
430.0481, 0.2252535
431.9766, 0.2252544
433.9050, 0.2217713
435.8335, 0.2193536
437.7620, 0.2176174
439.6904, 0.2129297
441.6189, 0.2086191
443.5474, 0.2062564
445.4758, 0.2038942
447.4043, 0.1990603
449.3328, 0.1969057
451.2612, 0.1948203
453.1897, 0.1926544
455.1182, 0.1887401
457.0466, 0.1840310
458.9751, 0.1802027
460.9036, 0.1784101
462.8320, 0.1768246
464.7605, 0.1734090
466.6890, 0.1700229
468.6174, 0.1670518
470.5459, 0.1633075
472.4744, 0.1584949
474.4028, 0.1544516
476.3313, 0.1513063
478.2598, 0.1475572
480.1882, 0.1422659
482.1167, 0.1382197
484.0452, 0.1365187
485.9736, 0.1338601
487.9021, 0.1307769
489.8306, 0.1288328
491.7590, 0.1266650
493.6875, 0.1248233
495.6160, 0.1226230
497.5444, 0.1207272
499.4729, 0.1192356
501.4014, 0.1192802
503.3298, 0.1186060
505.2583, 0.1160805
507.1868, 0.1140675
509.1152, 0.1144350
511.0437, 0.1151044
512.9722, 0.1147049
514.9006, 0.1147231
516.8291, 0.1145575
518.7576, 0.1150714
520.6860, 0.1164833
522.6145, 0.1175321
524.5430, 0.1176119
526.4714, 0.1187059
528.3999, 0.1209135
530.3284, 0.1227228
532.2568, 0.1252405
534.1853, 0.1270103
536.1138, 0.1283970
538.0422, 0.1312655
539.9707, 0.1336816
541.8992, 0.1357964
543.8276, 0.1382374
545.7561, 0.1410221
547.6846, 0.1443432
549.6130, 0.1474824
551.5415, 0.1502087
553.4700, 0.1519715
555.3984, 0.1539636
557.3269, 0.1567729
559.2554, 0.1588194
561.1838, 0.1597956
563.1123, 0.1609619
565.0408, 0.1621922
566.9692, 0.1634770
568.8977, 0.1639487
570.8262, 0.1648280
572.7546, 0.1665726
574.6831, 0.1669680
576.6116, 0.1678623
578.5400, 0.1696369
580.4685, 0.1711114
582.3970, 0.1725355
584.3254, 0.1737603
586.2539, 0.1759832
588.1824, 0.1783662
590.1108, 0.1801201
592.0393, 0.1816630
593.9678, 0.1832770
595.8962, 0.1848309
597.8247, 0.1860535
599.7532, 0.1876810
601.6816, 0.1901057
603.6101, 0.1915428
605.5386, 0.1927674
607.4670, 0.1946722
609.3955, 0.1962960
611.3240, 0.1986026
613.2524, 0.2006132
615.1809, 0.2016544
617.1094, 0.2019275
619.0378, 0.2025367
620.9663, 0.2049581
622.8948, 0.2073564
624.8232, 0.2091013
626.7517, 0.2114708
628.6802, 0.2137643
630.6086, 0.2150995
632.5371, 0.2169742
634.4656, 0.2192425
636.3940, 0.2220770
638.3225, 0.2243353
640.2510, 0.2264160
642.1794, 0.2286940
644.1079, 0.2307652
646.0364, 0.2324079
647.9648, 0.2340657
649.8933, 0.2352535
651.8218, 0.2365448
653.7502, 0.2380055
655.6787, 0.2394019
657.6072, 0.2404006
659.5356, 0.2406166
661.4641, 0.2407739
663.3926, 0.2404742
665.3210, 0.2403553
667.2495, 0.2400828
669.1780, 0.2393164
671.1064, 0.2376809
673.0349, 0.2364046
674.9634, 0.2345408
676.8918, 0.2320019
678.8203, 0.2291651
680.7488, 0.2268028
682.6772, 0.2249470
684.6057, 0.2224880
686.5342, 0.2192991
688.4626, 0.2162814
690.3911, 0.2133371
692.3196, 0.2100748
694.2480, 0.2065070
696.1765, 0.2026660
698.1050, 0.1990897
700.0334, 0.1952946
701.9619, 0.1921130
703.8904, 0.1886610
705.8188, 0.1845149
707.7473, 0.1811396
709.6758, 0.1777718
711.6042, 0.1743450
713.5327, 0.1709501
715.4612, 0.1670140
717.3896, 0.1632759
719.3181, 0.1599940
721.2466, 0.1568044
723.1750, 0.1537097
725.1035, 0.1504616
727.0320, 0.1473848
728.9604, 0.1447198
730.8889, 0.1422937
732.8174, 0.1392648
734.7458, 0.1363406
736.6743, 0.1336785
738.6028, 0.1309532
740.5313, 0.1283904
742.4597, 0.1265237
744.3882, 0.1249921
746.3167, 0.1231282
748.2451, 0.1214585
750.1736, 0.1201362
752.1021, 0.1191707
754.0305, 0.1184265
755.9590, 0.1176131
757.8875, 0.1167247
759.8159, 0.1160285
761.7444, 0.1159353
763.6729, 0.1159008
765.6013, 0.1159886
767.5298, 0.1164405
769.4583, 0.1165346
771.3867, 0.1167728
773.3152, 0.1173719
775.2437, 0.1177059
777.1721, 0.1181976
779.1006, 0.1184208
781.0291, 0.1184686
782.9575, 0.1181071
784.8860, 0.1176569
786.8145, 0.1175095
788.7429, 0.1173121
790.6714, 0.1166291
792.5999, 0.1156485
794.5283, 0.1147639
796.4568, 0.1130760
798.3853, 0.1113341
800.3137, 0.1093943
802.2422, 0.1067435
804.1707, 0.1038764
806.0991, 0.1014526
808.0276, 9.8646902E-02
809.9561, 9.5938519E-02
811.8845, 9.3872897E-02
813.8130, 9.2025898E-02
815.7415, 9.0757489E-02
817.6699, 8.9586720E-02
819.5984, 8.8242911E-02
821.5269, 8.6901471E-02
823.4553, 8.5364029E-02
825.3838, 8.3718881E-02
827.3123, 8.2144722E-02
829.2407, 8.0238581E-02
831.1692, 7.8407392E-02
833.0977, 7.6753490E-02
835.0261, 7.5164273E-02
836.9546, 7.3588043E-02
838.8831, 7.1731031E-02
840.8115, 7.0046052E-02
842.7400, 6.8454087E-02
844.6685, 6.6909030E-02
846.5969, 6.5953016E-02
848.5254, 6.4776570E-02
850.4539, 6.3616581E-02
852.3823, 6.3007832E-02
854.3108, 6.2593646E-02
856.2393, 6.2153410E-02
858.1677, 6.1771199E-02
860.0962, 6.1587740E-02
862.0247, 6.2293179E-02
863.9531, 6.2675193E-02
865.8816, 6.2924623E-02
867.8101, 6.3831232E-02
869.7385, 6.5449908E-02
871.6670, 6.6637672E-02
873.5955, 6.7559794E-02
875.5239, 6.8987302E-02
877.4524, 7.0244119E-02
879.3809, 7.1606852E-02
881.3093, 7.3119402E-02
883.2378, 7.4613176E-02
885.1663, 7.6383188E-02
887.0947, 7.8337952E-02
889.0232, 8.0341943E-02
890.9517, 8.2343332E-02
892.8801, 8.4608197E-02
894.8085, 8.6841047E-02
896.7370, 8.8963613E-02
898.6655, 9.1367081E-02
900.5939, 9.3580812E-02
902.5224, 9.5634691E-02
904.4509, 9.8040879E-02
906.3793, 0.1001716
908.3078, 0.1015830
910.2363, 0.1032325
912.1647, 0.1050320
914.0932, 0.1064359
916.0217, 0.1077564
917.9501, 0.1090422
919.8786, 0.1100569
921.8071, 0.1111512
923.7355, 0.1121265
925.6640, 0.1129639
927.5925, 0.1134868
929.5209, 0.1135799
931.4494, 0.1139492
933.3779, 0.1141368
935.3063, 0.1142560
937.2348, 0.1142999
939.1633, 0.1141083
941.0917, 0.1138880
943.0202, 0.1132142
944.9487, 0.1125154
946.8771, 0.1120345
948.8056, 0.1114537
950.7341, 0.1108503
952.6625, 0.1102064
954.5910, 0.1094323
956.5195, 0.1086103
958.4479, 0.1074154
960.3764, 0.1061135
962.3049, 0.1050764
964.2333, 0.1037064
966.1618, 0.1022096
968.0903, 0.1008562
970.0187, 9.9302657E-02
971.9472, 9.7736724E-02
973.8757, 9.6107461E-02
975.8041, 9.4683677E-02
977.7326, 9.3009993E-02
979.6611, 9.0926401E-02
981.5895, 8.8692278E-02
983.5180, 8.6855799E-02
985.4465, 8.5213542E-02
987.3749, 8.3394632E-02
989.3034, 8.1507400E-02
991.2319, 7.9503886E-02
993.1603, 7.7771068E-02
995.0888, 7.6124579E-02
997.0173, 7.4812293E-02
998.9457, 7.3493898E-02
1000.874, 7.2079509E-02
1002.803, 7.0953771E-02
1004.731, 6.9753677E-02
1006.660, 6.8515219E-02
1008.588, 6.7477018E-02
1010.517, 6.6868819E-02
1012.445, 6.6339023E-02
1014.373, 6.5433182E-02
1016.302, 6.4514160E-02
1018.230, 6.3867591E-02
1020.159, 6.3602977E-02
1022.087, 6.3319333E-02
1024.016, 6.2814981E-02
1025.944, 6.2359091E-02
1027.873, 6.2327750E-02
1029.801, 6.2280681E-02
1031.730, 6.2345989E-02
1033.658, 6.2179450E-02
1035.587, 6.2299792E-02
1037.515, 6.2784784E-02
1039.444, 6.3005537E-02
1041.372, 6.3258611E-02
1043.301, 6.3630357E-02
1045.229, 6.3703433E-02
1047.157, 6.3718647E-02
1049.086, 6.4039417E-02
1051.014, 6.4343013E-02
1052.943, 6.4532742E-02
1054.871, 6.4705253E-02
1056.800, 6.4815387E-02
1058.728, 6.4873070E-02
1060.657, 6.4949296E-02
1062.585, 6.5068811E-02
1064.514, 6.5313123E-02
1066.442, 6.5584563E-02
1068.371, 6.5726154E-02
1070.299, 6.5990038E-02
1072.228, 6.6243343E-02
1074.156, 6.6557437E-02
1076.084, 6.7308791E-02
1078.013, 6.7875847E-02
1079.941, 6.8166003E-02
1081.870, 6.8161301E-02
1083.798, 6.8032280E-02
1085.727, 6.7897923E-02
1087.655, 6.7765713E-02
1089.584, 6.7372203E-02
1091.512, 6.6774197E-02
1093.441, 6.6378869E-02
1095.369, 6.5918088E-02
1097.298, 6.5234043E-02
1099.226, 6.4661808E-02
1101.155, 6.4205363E-02
1103.083, 6.3815273E-02
1105.011, 6.3450553E-02
1106.940, 6.2728792E-02
1108.868, 6.1812490E-02
1110.797, 6.1063152E-02
1112.725, 6.0671389E-02
1114.654, 5.9980270E-02
1116.582, 5.9080578E-02
1118.511, 5.8581289E-02
1120.439, 5.8023501E-02
1122.368, 5.7339329E-02
1124.296, 5.6588899E-02
1126.225, 5.6014400E-02
1128.153, 5.5582579E-02
1130.082, 5.4934349E-02
1132.010, 5.4405149E-02
1133.938, 5.3892761E-02
1135.867, 5.3067070E-02
1137.795, 5.2186169E-02
1139.724, 5.1586282E-02
1141.652, 5.0951030E-02
1143.581, 5.0048988E-02
1145.509, 4.9182460E-02
1147.438, 4.8528299E-02
1149.366, 4.7803901E-02
1151.295, 4.7364950E-02
1153.223, 4.6726208E-02
1155.152, 4.5655269E-02
1157.080, 4.4935919E-02
1159.009, 4.4519551E-02
1160.937, 4.4089120E-02
1162.865, 4.3674629E-02
1164.794, 4.3243282E-02
1166.722, 4.2717028E-02
1168.651, 4.2337321E-02
1170.579, 4.1777570E-02
1172.508, 4.0923972E-02
1174.436, 4.0371250E-02
1176.365, 3.9746288E-02
1178.293, 3.8984898E-02
1180.222, 3.8382869E-02
1182.150, 3.7812199E-02
1184.079, 3.6998190E-02
1186.007, 3.6681950E-02
1187.936, 3.6460310E-02
1189.864, 3.5756700E-02
1191.792, 3.4969281E-02
1193.721, 3.4260321E-02
1195.649, 3.3837341E-02
1197.578, 3.3317301E-02
1199.506, 3.2549929E-02
1201.435, 3.2018490E-02
1203.363, 3.1476710E-02
1205.292, 3.0865271E-02
1207.220, 3.0323850E-02
1209.149, 2.9566200E-02
1211.077, 2.8944230E-02
1213.006, 2.8579030E-02
1214.934, 2.8245630E-02
1216.863, 2.7643111E-02
1218.791, 2.7063429E-02
1220.719, 2.6666820E-02
1222.648, 2.6206840E-02
1224.576, 2.5771631E-02
1226.505, 2.5580050E-02
1228.433, 2.5275789E-02
1230.362, 2.4973581E-02
1232.290, 2.4802180E-02
1234.219, 2.4365909E-02
1236.147, 2.3998050E-02
1238.076, 2.3674840E-02
1240.004, 2.3663411E-02
1241.933, 2.3493260E-02
1243.861, 2.3162089E-02
1245.790, 2.3087241E-02
1247.718, 2.2921620E-02
1249.646, 2.2888981E-02
1251.575, 2.2682991E-02
1253.503, 2.2471420E-02
1255.432, 2.2452060E-02
1257.360, 2.2215029E-02
1259.289, 2.1905720E-02
1261.217, 2.1949841E-02
1263.146, 2.1907950E-02
1265.074, 2.1749180E-02
1267.003, 2.1749400E-02
1268.931, 2.1720270E-02
1270.860, 2.1932010E-02
1272.788, 2.1903429E-02
1274.717, 2.2015940E-02
1276.645, 2.2153361E-02
1278.573, 2.2124780E-02
1280.502, 2.2261970E-02
1282.430, 2.2416599E-02
1284.359, 2.2349970E-02
1286.287, 2.2423370E-02
1288.216, 2.2490490E-02
1290.144, 2.2357350E-02
1292.073, 2.2392150E-02
1294.001, 2.2683490E-02
1295.930, 2.2672730E-02
1297.858, 2.2589410E-02
1299.787, 2.2629561E-02
1301.715, 2.2827920E-02
1303.644, 2.2821810E-02
1305.572, 2.2914790E-02
1307.500, 2.3128610E-02
1309.429, 2.3241989E-02
1311.357, 2.3306780E-02
1313.286, 2.3614790E-02
1315.214, 2.3642881E-02
1317.143, 2.3585631E-02
1319.071, 2.3736820E-02
1321.000, 2.3724800E-02
1322.928, 2.3803709E-02
1324.857, 2.3989961E-02
1326.785, 2.3913240E-02
1328.714, 2.3909179E-02
1330.642, 2.4160741E-02
1332.571, 2.4344379E-02
1334.499, 2.4466040E-02
1336.427, 2.4649920E-02
1338.356, 2.4776930E-02
1340.284, 2.4794180E-02
1342.213, 2.4706749E-02
1344.141, 2.4707871E-02
1346.070, 2.4811581E-02
1347.998, 2.4601910E-02
1349.927, 2.4327081E-02
1351.855, 2.4150500E-02
1353.784, 2.3872530E-02
1355.712, 2.3580549E-02
1357.641, 2.3369409E-02
1359.569, 2.3217879E-02
1361.498, 2.3029480E-02
1363.426, 2.2963841E-02
1365.354, 2.3387590E-02
1367.283, 2.3634279E-02
1369.211, 2.3528840E-02
1371.140, 2.3596199E-02
1373.068, 2.3945710E-02
1374.997, 2.4376050E-02
1376.925, 2.4841910E-02
1378.854, 2.5311630E-02
1380.782, 2.5560450E-02
1382.711, 2.5655100E-02
1384.639, 2.6062651E-02
1386.568, 2.6367160E-02
1388.496, 2.6395660E-02
1390.424, 2.6820719E-02
1392.353, 2.7509270E-02
1394.281, 2.7654920E-02
1396.210, 2.7730551E-02
1398.138, 2.8004861E-02
1400.067, 2.8114229E-02
1401.995, 2.8390860E-02
1403.924, 2.8759521E-02
1405.852, 2.8931281E-02
1407.781, 2.8794371E-02
1409.709, 2.8943799E-02
1411.638, 2.8980790E-02
1413.566, 2.8819971E-02
1415.495, 2.8949101E-02
1417.423, 2.9094150E-02
1419.351, 2.9019009E-02
1421.280, 2.8933270E-02
1423.208, 2.8968871E-02
1425.137, 2.8959479E-02
1427.065, 2.8677920E-02
1428.994, 2.8356111E-02
1430.922, 2.8193461E-02
1432.851, 2.8114470E-02
1434.779, 2.8243341E-02
1436.708, 2.7904790E-02
1438.636, 2.7561471E-02
1440.565, 2.7392831E-02
1442.493, 2.7455710E-02
1444.422, 2.7551729E-02
1446.350, 2.7393050E-02
1448.278, 2.7418241E-02
1450.207, 2.7445011E-02
1452.135, 2.7292671E-02
1454.064, 2.7182780E-02
1455.992, 2.7276810E-02
1457.921, 2.6961440E-02
1459.849, 2.6675809E-02
1461.778, 2.6504520E-02
1463.706, 2.6253751E-02
1465.635, 2.6244519E-02
1467.563, 2.6192810E-02
1469.492, 2.6430190E-02
1471.420, 2.7271369E-02
1473.349, 2.7812241E-02
1475.277, 2.8111471E-02
1477.205, 2.8415849E-02
1479.134, 2.8511550E-02
1481.062, 2.8794041E-02
1482.991, 2.8810721E-02
1484.919, 2.9003801E-02
1486.848, 2.9389340E-02
1488.776, 2.9409340E-02
1490.705, 2.9582631E-02
1492.633, 2.9953079E-02
1494.562, 3.0040629E-02
1496.490, 3.0377410E-02
1498.419, 3.0732259E-02
1500.347, 3.0943610E-02
1502.276, 3.1425022E-02
1504.204, 3.2354958E-02
1506.132, 3.2924131E-02
1508.061, 3.2916680E-02
1509.989, 3.3058789E-02
1511.918, 3.3554539E-02
1513.846, 3.3918370E-02
1515.775, 3.4445051E-02
1517.703, 3.4881011E-02
1519.632, 3.5237081E-02
1521.560, 3.5669919E-02
1523.489, 3.6045060E-02
1525.417, 3.6629122E-02
1527.346, 3.7452258E-02
1529.274, 3.8004141E-02
1531.203, 3.8145389E-02
1533.131, 3.8505372E-02
1535.059, 3.9073780E-02
1536.988, 3.9654829E-02
1538.916, 4.0297478E-02
1540.845, 4.0885039E-02
1542.773, 4.1309081E-02
1544.702, 4.1730769E-02
1546.630, 4.2240091E-02
1548.559, 4.2759761E-02
1550.487, 4.3351822E-02
1552.416, 4.3788429E-02
1554.344, 4.4266731E-02
1556.273, 4.4687040E-02
1558.201, 4.4951320E-02
1560.130, 4.5299862E-02
1562.058, 4.4981342E-02
1563.986, 4.4897009E-02
1565.915, 4.5566101E-02
1567.843, 4.5886569E-02
1569.772, 4.5901280E-02
1571.700, 4.5798931E-02
1573.629, 4.5655981E-02
1575.557, 4.5882352E-02
1577.486, 4.5668598E-02
1579.414, 4.5450211E-02
1581.343, 4.5599099E-02
1583.271, 4.5532271E-02
1585.200, 4.5021150E-02
1587.128, 4.4636540E-02
1589.057, 4.4456448E-02
1590.985, 4.4078689E-02
1592.913, 4.4011399E-02
1594.842, 4.3869410E-02
1596.770, 4.3260239E-02
1598.699, 4.2453371E-02
1600.627, 4.2595249E-02
1602.556, 4.3331970E-02
1604.484, 4.3006338E-02
1606.413, 4.2613398E-02
1608.341, 4.3102920E-02
1610.270, 4.3606650E-02
1612.198, 4.3799549E-02
1614.127, 4.3878131E-02
1616.055, 4.4491649E-02
1617.984, 4.5215361E-02
1619.912, 4.5536451E-02
1621.840, 4.5877259E-02
1623.769, 4.6547819E-02
1625.697, 4.7077641E-02
1627.626, 4.7697909E-02
1629.554, 4.8367269E-02
1631.483, 4.8829209E-02
1633.411, 4.9087811E-02
1635.340, 4.9270160E-02
1637.268, 4.9547389E-02
1639.197, 4.9558580E-02
1641.125, 4.9480312E-02
1643.054, 4.9410552E-02
1644.982, 4.9689490E-02
1646.911, 4.9688730E-02
1648.839, 4.9408440E-02
1650.767, 4.9383599E-02
1652.696, 4.8956051E-02
1654.624, 4.7884669E-02
1656.553, 4.7214031E-02
1658.481, 4.6687841E-02
1660.410, 4.5749780E-02
1662.338, 4.4942409E-02
1664.267, 4.4357330E-02
1666.195, 4.3452460E-02
1668.124, 4.2232592E-02
1670.052, 4.1171592E-02
1671.981, 4.0482052E-02
1673.909, 4.0004481E-02
1675.838, 3.9396711E-02
1677.766, 3.8492762E-02
1679.694, 3.7574440E-02
1681.623, 3.6837060E-02
1683.551, 3.6262721E-02
1685.480, 3.5363831E-02
1687.408, 3.4623820E-02
1689.337, 3.4241639E-02
1691.265, 3.3397999E-02
1693.194, 3.2700259E-02
1695.122, 3.2554671E-02
1697.051, 3.2267760E-02
1698.979, 3.1775121E-02
1700.908, 3.1230750E-02
1702.836, 3.0760320E-02
1704.765, 3.0445110E-02
1706.693, 2.9826971E-02
1708.621, 2.9221641E-02
1710.550, 2.8974650E-02
1712.478, 2.8888850E-02
1714.407, 2.8428560E-02
1716.335, 2.8127439E-02
1718.264, 2.7856940E-02
1720.192, 2.7279170E-02
1722.121, 2.6676230E-02
1724.049, 2.6252709E-02
1725.978, 2.5794070E-02
1727.906, 2.5386350E-02
1729.835, 2.5061000E-02
1731.763, 2.4440950E-02
1733.692, 2.3351710E-02
1735.620, 2.2166049E-02
1737.548, 2.1312861E-02
1739.477, 2.0547470E-02
1741.405, 1.9885041E-02
1743.334, 1.9994060E-02
1745.262, 2.0615980E-02
1747.191, 2.1001659E-02
1749.119, 2.1348629E-02
1751.048, 2.2454210E-02
1752.976, 2.3528431E-02
1754.905, 2.4753081E-02
1756.833, 2.5910890E-02
1758.762, 2.6674841E-02
1760.690, 2.7061811E-02
1762.619, 2.7080500E-02
1764.547, 2.7591759E-02
1766.475, 2.8033530E-02
1768.404, 2.7922731E-02
1770.332, 2.8036401E-02
1772.261, 2.8076930E-02
1774.189, 2.8225040E-02
1776.118, 2.8720230E-02
1778.046, 2.9086949E-02
1779.975, 2.9000919E-02
1781.903, 2.8732101E-02
1783.832, 2.8622430E-02
1785.760, 2.9109189E-02
1787.689, 2.9367100E-02
1789.617, 2.9467391E-02
1791.546, 2.9572880E-02
1793.474, 2.9127400E-02
1795.402, 2.8823949E-02
1797.331, 2.8860411E-02
1799.259, 2.8967541E-02
1801.188, 2.9203551E-02
1803.116, 2.9082710E-02
1805.045, 2.9071230E-02
1806.973, 2.9264290E-02
1808.902, 2.9443290E-02
1810.830, 2.9147040E-02
1812.759, 2.9244650E-02
1814.687, 2.9311700E-02
1816.616, 2.9441440E-02
1818.544, 2.9592611E-02
1820.473, 2.9646410E-02
1822.401, 2.9586419E-02
1824.329, 2.9592941E-02
1826.258, 2.9406600E-02
1828.186, 2.9532390E-02
1830.115, 3.0435260E-02
1832.043, 3.0766040E-02
1833.972, 3.0892029E-02
1835.900, 3.0690890E-02
1837.829, 3.0788509E-02
1839.757, 3.1497620E-02
1841.686, 3.2070991E-02
1843.614, 3.1887461E-02
1845.543, 3.1363949E-02
1847.471, 3.0955071E-02
1849.400, 3.1225160E-02
1851.328, 3.1840570E-02
1853.256, 3.2056991E-02
1855.185, 3.1501990E-02
1857.113, 3.0340020E-02
1859.042, 3.0145910E-02
1860.970, 3.0651810E-02
1862.899, 3.0819250E-02
1864.827, 3.0489210E-02
1866.756, 3.0499410E-02
1868.684, 3.0737830E-02
1870.613, 3.0755270E-02
1872.541, 3.0179480E-02
1874.470, 3.0683041E-02
1876.398, 3.1174920E-02
1878.327, 3.1237870E-02
1880.255, 3.1922322E-02
1882.183, 3.2297350E-02
1884.112, 3.2231469E-02
1886.040, 3.1501882E-02
1887.969, 3.0505840E-02
1889.897, 3.1125531E-02
1891.826, 3.1128449E-02
1893.754, 3.1040801E-02
1895.683, 3.2479130E-02
1897.611, 3.2271709E-02
1899.540, 3.1689540E-02
1901.468, 3.2287519E-02
1903.397, 3.3015989E-02
1905.325, 3.2763410E-02
1907.254, 3.1535052E-02
1909.182, 3.1803861E-02
1911.110, 3.2101341E-02
1913.039, 3.2390729E-02
1914.967, 3.2651938E-02
1916.896, 3.2929730E-02
1918.824, 3.3037610E-02
1920.753, 3.1892069E-02
1922.681, 3.2122090E-02
1924.610, 3.2708980E-02
1926.538, 3.2936212E-02
1928.467, 3.2630749E-02
1930.395, 3.2423802E-02
1932.324, 3.1810571E-02
1934.252, 3.2302350E-02
1936.181, 3.3080630E-02
1938.109, 3.1189710E-02
1940.037, 3.0809060E-02
1941.966, 3.1379391E-02
1943.894, 3.2367200E-02
1945.823, 3.2425299E-02
1947.751, 3.2551661E-02
1949.680, 3.3173610E-02
1951.608, 3.2717269E-02
1953.537, 3.0683041E-02
1955.465, 3.0249519E-02
1957.394, 3.1340629E-02
1959.322, 3.1777158E-02
1961.251, 3.1884469E-02
1963.179, 3.1074010E-02
1965.108, 3.0546390E-02
1967.036, 3.1287089E-02
1968.964, 3.0966550E-02
1970.893, 3.1256460E-02
1972.821, 3.2718521E-02
1974.750, 3.2256711E-02
1976.678, 3.3843622E-02
1978.607, 3.3125449E-02
1980.535, 3.1841692E-02
1982.464, 3.3302400E-02
1984.392, 3.4519669E-02
1986.321, 3.3748589E-02
1988.249, 3.5019480E-02
1990.178, 3.5734400E-02
1992.106, 3.5272900E-02
1994.035, 3.3695199E-02
1995.963, 3.2172289E-02
1997.891, 3.1590231E-02
1999.820, 3.1112550E-02
2001.748, 3.2612190E-02
2003.677, 3.4117080E-02
2005.605, 3.4733690E-02
2007.534, 3.3698019E-02
2009.462, 3.0602250E-02
2011.391, 3.0101741E-02
2013.319, 3.2843228E-02
2015.248, 3.4761291E-02
2017.176, 3.4791488E-02
2019.105, 3.5208050E-02
2021.033, 3.3911191E-02
2022.962, 3.2296158E-02
2024.890, 3.3451229E-02
2026.818, 3.4246322E-02
2028.747, 3.5040371E-02
2030.675, 3.3920880E-02
2032.604, 3.2263629E-02
2034.532, 3.3449128E-02
2036.461, 3.5744071E-02
2038.389, 3.6449011E-02
2040.318, 3.6082741E-02
2042.246, 3.7289359E-02
2044.175, 3.9564151E-02
2046.103, 3.9113700E-02
2048.032, 3.8664449E-02
2049.960, 4.0571701E-02
2051.889, 3.9326608E-02
2053.817, 3.8515281E-02
2055.746, 3.8418461E-02
2057.674, 3.8480122E-02
2059.603, 3.9094530E-02
2061.531, 3.8410850E-02
2063.459, 3.7706211E-02
2065.388, 3.8548362E-02
2067.316, 3.9589580E-02
2069.245, 3.8933892E-02
2071.173, 3.8853731E-02
2073.102, 3.9924301E-02
2075.030, 3.9784659E-02
2076.959, 3.8955290E-02
2078.887, 3.8917739E-02
2080.816, 3.7429310E-02
2082.744, 3.8206391E-02
2084.673, 3.8734969E-02
2086.601, 3.8849160E-02
2088.530, 3.9930731E-02
2090.458, 4.0756200E-02
2092.386, 4.0971681E-02
2094.315, 4.2234849E-02
2096.243, 4.3248929E-02
2098.172, 4.3085270E-02
2100.100, 4.2229868E-02
2102.029, 4.1957140E-02
2103.957, 4.1870382E-02
2105.886, 4.1680150E-02
2107.814, 4.2591289E-02
2109.743, 4.2624619E-02
2111.671, 4.2764962E-02
2113.600, 4.2919811E-02
2115.528, 4.1969080E-02
2117.457, 4.1894179E-02
2119.385, 4.2717770E-02
2121.313, 4.1437451E-02
2123.242, 4.0668871E-02
2125.170, 4.0907480E-02
2127.099, 3.9358519E-02
2129.027, 4.0054459E-02
2130.956, 4.1277569E-02
2132.884, 3.9968289E-02
2134.813, 3.9193649E-02
2136.741, 3.9035119E-02
2138.670, 3.9259732E-02
2140.598, 3.9877009E-02
2142.527, 3.8105492E-02
2144.455, 3.7099369E-02
2146.384, 3.7277490E-02
2148.312, 3.7194010E-02
2150.240, 4.0478330E-02
2152.169, 4.0871400E-02
2154.097, 3.7003499E-02
2156.026, 3.4348100E-02
2157.954, 3.4532368E-02
2159.883, 4.0973410E-02
2161.811, 4.8421379E-02
2163.740, 4.8056491E-02
2165.668, 4.4300821E-02
2167.597, 4.4974681E-02
2169.525, 4.4317260E-02
2171.454, 4.3375049E-02
2173.382, 4.2836379E-02
2175.311, 4.0913541E-02
2177.239, 4.0522080E-02
2179.167, 4.0670361E-02
2181.096, 4.4978362E-02
2183.024, 4.6040829E-02
2184.953, 4.5849580E-02
2186.881, 4.7635488E-02
2188.810, 4.6615940E-02
2190.738, 4.4832680E-02
2192.667, 4.7022741E-02
2194.595, 4.8090279E-02
2196.524, 4.4634212E-02
2198.452, 4.3493561E-02
2200.381, 4.3530948E-02
2202.309, 4.6091340E-02
2204.238, 4.6614282E-02
2206.166, 4.4397831E-02
2208.094, 4.5222919E-02
2210.023, 4.4935070E-02
2211.951, 4.3628160E-02
2213.880, 4.3378688E-02
2215.808, 4.4544820E-02
2217.737, 4.4413131E-02
2219.665, 4.3776769E-02
2221.594, 4.5243550E-02
2223.522, 4.6676248E-02
2225.451, 4.6943590E-02
2227.379, 4.6551362E-02
2229.308, 4.6116810E-02
2231.236, 4.7508720E-02
2233.165, 4.7206979E-02
2235.093, 4.6613969E-02
2237.021, 4.7099821E-02
2238.950, 4.7580179E-02
2240.878, 4.7293421E-02
2242.807, 4.7204781E-02
2244.735, 4.6834961E-02
2246.664, 4.7460690E-02
2248.592, 4.7844950E-02
2250.521, 4.7235720E-02
2252.449, 4.7866039E-02
2254.378, 4.7637761E-02
2256.306, 4.8380990E-02
2258.235, 4.9193360E-02
2260.163, 4.8869841E-02
2262.092, 4.8093058E-02
2264.020, 4.7444981E-02
2265.948, 4.7660951E-02
2267.877, 4.9088292E-02
2269.805, 5.0149370E-02
2271.734, 4.9444459E-02
2273.662, 4.9612612E-02
2275.591, 5.0575379E-02
2277.519, 5.0687980E-02
2279.448, 4.9987860E-02
2281.376, 5.0153151E-02
2283.305, 5.1128861E-02
2285.233, 5.0979849E-02
2287.162, 5.0679490E-02
2289.090, 5.0681271E-02
2291.019, 4.9818050E-02
2292.947, 5.0481848E-02
2294.875, 5.1762320E-02
2296.804, 5.1832668E-02
2298.732, 5.1247481E-02
2300.661, 5.0552480E-02
2302.589, 5.0248221E-02
2304.518, 5.0892930E-02
2306.446, 5.1057581E-02
2308.375, 5.1499560E-02
2310.303, 5.1494639E-02
2312.232, 5.1125351E-02
2314.160, 5.1087320E-02
2316.089, 5.2273370E-02
2318.017, 5.2482929E-02
2319.946, 5.2131630E-02
2321.874, 5.2768119E-02
2323.802, 5.3134419E-02
2325.731, 5.1901780E-02
2327.659, 5.0558452E-02
2329.588, 5.0961670E-02
2331.516, 5.1194720E-02
2333.445, 5.1431291E-02
2335.373, 5.1595271E-02
2337.302, 5.1422030E-02
2339.230, 5.0993871E-02
2341.159, 5.0688252E-02
2343.087, 5.1083740E-02
2345.016, 5.1825140E-02
2346.944, 5.0933510E-02
2348.873, 5.0592139E-02
2350.801, 5.1652171E-02
2352.729, 5.1903911E-02
2354.658, 5.1837701E-02
2356.586, 5.2311908E-02
2358.515, 5.2038372E-02
2360.443, 5.1625311E-02
2362.372, 5.2207559E-02
2364.300, 5.1883269E-02
2366.229, 5.1558681E-02
2368.157, 5.2586101E-02
2370.086, 5.2887481E-02
2372.014, 5.2440159E-02
2373.942, 5.1937591E-02
2375.871, 5.1687662E-02
2377.799, 5.1955860E-02
2379.728, 5.1672090E-02
2381.656, 5.2334689E-02
2383.585, 5.2703939E-02
2385.513, 5.2692279E-02
2387.442, 5.1929820E-02
2389.370, 5.1773190E-02
2391.299, 5.1130671E-02
2393.227, 5.0371371E-02
2395.156, 5.1105671E-02
2397.084, 5.2008130E-02
2399.012, 5.3301789E-02
2400.941, 5.3522911E-02
2402.869, 5.3072631E-02
2404.798, 5.3606961E-02
2406.726, 5.4100748E-02
2408.655, 5.3528290E-02
2410.583, 5.3516671E-02
2412.512, 5.3624190E-02
2414.440, 5.3006951E-02
2416.369, 5.3511228E-02
2418.297, 5.3734139E-02
2420.226, 5.3203471E-02
2422.154, 5.3550340E-02
2424.083, 5.2987520E-02
2426.011, 5.1837511E-02
2427.939, 5.1641531E-02
2429.868, 5.1385980E-02
2431.796, 5.2010041E-02
2433.725, 5.3198539E-02
2435.653, 5.3862538E-02
2437.582, 5.4508589E-02
2439.510, 5.3839400E-02
2441.439, 5.3168621E-02
2443.367, 5.3767979E-02
2445.296, 5.4934978E-02
2447.224, 5.5369209E-02
2449.153, 5.6029070E-02
2451.081, 5.5972181E-02
2453.010, 5.5774920E-02
2454.938, 5.5464908E-02
2456.866, 5.5217650E-02
2458.795, 5.5251472E-02
2460.723, 5.5076819E-02
2462.652, 5.4119471E-02
2464.580, 5.4084111E-02
2466.509, 5.3826049E-02
2468.437, 5.4871149E-02
2470.366, 5.5225760E-02
2472.294, 5.5700950E-02
2474.223, 5.5694669E-02
2476.151, 5.5192541E-02
2478.080, 5.5408839E-02
2480.008, 5.5389490E-02
2481.937, 5.5317000E-02
2483.865, 5.4714050E-02
2485.793, 5.3608079E-02
2487.722, 5.4137468E-02
2489.650, 5.5132169E-02
2491.579, 5.5669039E-02
2493.507, 5.5687770E-02
2495.436, 5.4950129E-02
2497.364, 5.5053711E-02
2499.293, 5.6108300E-02
2501.221, 5.5585429E-02
2503.150, 5.5492640E-02
2505.078, 5.5632789E-02
2507.007, 5.6102339E-02
2508.935, 5.6608781E-02
2510.864, 5.6747459E-02
2512.792, 5.6752719E-02
2514.720, 5.6145210E-02
2516.649, 5.6128230E-02
2518.577, 5.6515660E-02
2520.506, 5.6118160E-02
2522.434, 5.6201570E-02
2524.363, 5.5809941E-02
2526.291, 5.5383921E-02
2528.220, 5.5925440E-02
2530.148, 5.6980040E-02
2532.077, 5.5806492E-02
2534.005, 5.6149550E-02
2535.934, 5.7310000E-02
2537.862, 5.7115059E-02
2539.791, 5.7091460E-02
2541.719, 5.7866391E-02
2543.647, 5.7788361E-02
2545.576, 5.6919441E-02
2547.504, 5.7083972E-02
2549.433, 5.8058131E-02
2551.361, 5.8998089E-02
2553.290, 5.8816612E-02
2555.218, 5.9324119E-02
2557.147, 5.9736129E-02
2559.075, 6.0077310E-02
2561.004, 5.8939811E-02
2562.932, 5.8246080E-02
2564.861, 5.8733892E-02
2566.789, 5.9601549E-02
2568.718, 6.0505200E-02
2570.646, 6.0384098E-02
2572.574, 6.0881618E-02
2574.503, 6.1455891E-02
2576.431, 6.0764950E-02
2578.360, 6.0867351E-02
2580.288, 6.1119251E-02
2582.217, 6.0089849E-02
2584.145, 6.1037920E-02
2586.074, 6.2617190E-02
2588.002, 6.1711911E-02
2589.931, 6.0974240E-02
2591.859, 6.1508600E-02
2593.788, 6.1872382E-02
2595.716, 6.2229719E-02
2597.645, 6.2114339E-02
2599.573, 6.2972918E-02
2601.501, 6.4229473E-02
2603.430, 6.3720703E-02
2605.358, 6.2052999E-02
2607.287, 6.2381320E-02
2609.215, 6.3035198E-02
2611.144, 6.2699787E-02
2613.072, 6.3116290E-02
2615.001, 6.3421123E-02
2616.929, 6.2937237E-02
2618.858, 6.3002780E-02
2620.786, 6.4201817E-02
2622.715, 6.4753197E-02
2624.643, 6.4337797E-02
2626.572, 6.3963413E-02
2628.500, 6.4923063E-02
2630.428, 6.6093743E-02
2632.357, 6.6105217E-02
2634.285, 6.5746449E-02
2636.214, 6.5591253E-02
2638.142, 6.5025769E-02
2640.071, 6.5220430E-02
2641.999, 6.5915883E-02
2643.928, 6.6518143E-02
2645.856, 6.6477492E-02
2647.785, 6.5765053E-02
2649.713, 6.6481650E-02
2651.642, 6.7230813E-02
2653.570, 6.6697203E-02
2655.499, 6.6622518E-02
2657.427, 6.7052789E-02
2659.355, 6.6995181E-02
2661.284, 6.7130387E-02
2663.212, 6.7306317E-02
2665.141, 6.6893153E-02
2667.069, 6.6037357E-02
2668.998, 6.6066571E-02
2670.926, 6.6776127E-02
2672.855, 6.6971727E-02
2674.783, 6.6927388E-02
2676.712, 6.7511380E-02
2678.640, 6.8465889E-02
2680.569, 6.8985634E-02
2682.497, 6.9023371E-02
2684.426, 6.8913892E-02
2686.354, 6.8970487E-02
2688.282, 7.0065327E-02
2690.211, 7.0143327E-02
2692.139, 7.0305377E-02
2694.068, 7.0814177E-02
2695.996, 7.0014760E-02
2697.925, 6.9911577E-02
2699.853, 7.0749111E-02
2701.782, 7.0384927E-02
2703.710, 7.0464469E-02
2705.639, 7.1754150E-02
2707.567, 7.1754642E-02
2709.496, 7.2131798E-02
2711.424, 7.2099634E-02
2713.353, 7.2384097E-02
2715.281, 7.3526368E-02
2717.209, 7.3984228E-02
2719.138, 7.3249787E-02
2721.066, 7.3846370E-02
2722.995, 7.5146914E-02
2724.923, 7.5328253E-02
2726.852, 7.4710406E-02
2728.780, 7.4870579E-02
2730.709, 7.5197510E-02
2732.637, 7.4538633E-02
2734.566, 7.3762327E-02
2736.494, 7.5305812E-02
2738.423, 7.5381547E-02
2740.351, 7.4017711E-02
2742.280, 7.3303647E-02
2744.208, 7.3535956E-02
2746.136, 7.5154938E-02
2748.065, 7.6180652E-02
2749.993, 7.6781839E-02
2751.922, 7.7433817E-02
2753.850, 7.7762797E-02
2755.779, 7.8460597E-02
2757.707, 7.9713859E-02
2759.636, 7.9566143E-02
2761.564, 7.8557029E-02
2763.493, 7.8163773E-02
2765.421, 7.7971593E-02
2767.350, 7.8976728E-02
2769.278, 7.9192191E-02
2771.207, 7.9104401E-02
2773.135, 7.8984633E-02
2775.063, 7.9137929E-02
2776.992, 8.0005936E-02
2778.920, 8.0703497E-02
2780.849, 8.1044704E-02
2782.777, 8.0690853E-02
2784.706, 8.0985643E-02
2786.634, 8.1364438E-02
2788.563, 8.0429122E-02
2790.491, 8.0812208E-02
2792.420, 8.2488827E-02
2794.348, 8.2559213E-02
2796.277, 8.2009181E-02
2798.205, 8.2967907E-02
2800.134, 8.4174499E-02
2802.062, 8.4508471E-02
2803.990, 8.4347621E-02
2805.919, 8.5137174E-02
2807.847, 8.5886307E-02
2809.776, 8.6124830E-02
2811.704, 8.5804537E-02
2813.633, 8.5326619E-02
2815.561, 8.5059442E-02
2817.490, 8.5564718E-02
2819.418, 8.6099453E-02
2821.347, 8.6778022E-02
2823.275, 8.7233029E-02
2825.204, 8.7838717E-02
2827.132, 8.7810583E-02
2829.061, 8.7089770E-02
2830.989, 8.6723112E-02
2832.917, 8.7569647E-02
2834.846, 8.8503473E-02
2836.774, 8.8876553E-02
2838.703, 8.9131117E-02
2840.631, 8.7783538E-02
2842.560, 8.8657960E-02
2844.488, 8.8941678E-02
2846.417, 8.8129722E-02
2848.345, 8.8068150E-02
2850.274, 8.8586397E-02
2852.202, 8.9687362E-02
2854.131, 8.9636952E-02
2856.059, 9.0945497E-02
2857.988, 9.3819983E-02
2859.916, 9.4980963E-02
2861.844, 9.4627008E-02
2863.773, 9.5191807E-02
2865.701, 9.5882528E-02
2867.630, 9.5016778E-02
2869.558, 9.4279267E-02
2871.487, 9.6645117E-02
2873.415, 9.7316720E-02
2875.344, 9.6451573E-02
2877.272, 9.6977979E-02
2879.201, 9.6921027E-02
2881.129, 9.7402990E-02
2883.058, 9.7636133E-02
2884.986, 9.9179476E-02
2886.915, 9.9293351E-02
2888.843, 9.8877423E-02
2890.771, 0.1002448
2892.700, 0.1008030
2894.628, 0.1004951
2896.557, 0.1011991
2898.485, 0.1024898
2900.414, 0.1033469
2902.342, 0.1023293
2904.271, 0.1010047
2906.199, 0.1018653
2908.128, 0.1031125
2910.056, 0.1036427
2911.985, 0.1030627
2913.913, 0.1031047
2915.842, 0.1032618
2917.770, 0.1032786
2919.698, 0.1068361
2921.627, 0.1075107
2923.555, 0.1050858
2925.484, 0.1058662
2927.412, 0.1081652
2929.341, 0.1101293
2931.269, 0.1106671
2933.198, 0.1114400
2935.126, 0.1105477
2937.055, 0.1103015
2938.983, 0.1104403
2940.912, 0.1124957
2942.840, 0.1121952
2944.769, 0.1100433
2946.697, 0.1086442
2948.625, 0.1093057
2950.554, 0.1105438
2952.482, 0.1109887
2954.411, 0.1116982
2956.339, 0.1135245
2958.268, 0.1156673
2960.196, 0.1164259
2962.125, 0.1173558
2964.053, 0.1184583
2965.982, 0.1176934
2967.910, 0.1165630
2969.839, 0.1171137
2971.767, 0.1176164
2973.696, 0.1177376
2975.624, 0.1184861
2977.552, 0.1182759
2979.481, 0.1180198
2981.409, 0.1183251
2983.338, 0.1195741
2985.266, 0.1217164
2987.195, 0.1227153
2989.123, 0.1222469
2991.052, 0.1211558
2992.980, 0.1216692
2994.909, 0.1209357
2996.837, 0.1220258
2998.766, 0.1229490
3000.694, 0.1221188
3002.623, 0.1228218
3004.551, 0.1240063
3006.479, 0.1233192
3008.408, 0.1232922
3010.336, 0.1241495
3012.265, 0.1248071
3014.193, 0.1251908
3016.122, 0.1246923
3018.050, 0.1261729
3019.979, 0.1285401
3021.907, 0.1292446
3023.836, 0.1280370
3025.764, 0.1269597
3027.693, 0.1276993
3029.621, 0.1278151
3031.550, 0.1257374
3033.478, 0.1264062
3035.406, 0.1288347
3037.335, 0.1300004
3039.263, 0.1299050
3041.192, 0.1312285
3043.120, 0.1320418
3045.049, 0.1306906
3046.977, 0.1300178
3048.906, 0.1300938
3050.834, 0.1313342
3052.763, 0.1320662
3054.691, 0.1338656
3056.620, 0.1344322
3058.548, 0.1343057
3060.477, 0.1340150
3062.405, 0.1357432
3064.333, 0.1356941
3066.262, 0.1337285
3068.190, 0.1343764
3070.119, 0.1354833
3072.047, 0.1364326
3073.976, 0.1359483
3075.904, 0.1350055
3077.833, 0.1365212
3079.761, 0.1359802
3081.690, 0.1361354
3083.618, 0.1373446
3085.547, 0.1393738
3087.475, 0.1419735
3089.404, 0.1420805
3091.332, 0.1407966
3093.260, 0.1415929
3095.189, 0.1422445
3097.117, 0.1419095
3099.046, 0.1432997
3100.974, 0.1430416
3102.903, 0.1439387
3104.831, 0.1454685
3106.760, 0.1443831
3108.688, 0.1436200
3110.617, 0.1442072
3112.545, 0.1474275
3114.474, 0.1493554
3116.402, 0.1474595
3118.331, 0.1466408
3120.259, 0.1465956
3122.188, 0.1472002
3124.116, 0.1471012
3126.044, 0.1493189
3127.973, 0.1508200
3129.901, 0.1489769
3131.830, 0.1495938
3133.758, 0.1509461
3135.687, 0.1512212
3137.615, 0.1521399
3139.544, 0.1540081
3141.472, 0.1539702
3143.401, 0.1559117
3145.329, 0.1561064
3147.258, 0.1567991
3149.186, 0.1571723
3151.115, 0.1573113
3153.043, 0.1570772
3154.971, 0.1561002
3156.900, 0.1558385
3158.828, 0.1565420
3160.757, 0.1573666
3162.685, 0.1574188
3164.614, 0.1554685
3166.542, 0.1552661
3168.471, 0.1579230
3170.399, 0.1614914
3172.328, 0.1625854
3174.256, 0.1615659
3176.185, 0.1602926
3178.113, 0.1597322
3180.042, 0.1596217
3181.970, 0.1599993
3183.898, 0.1604736
3185.827, 0.1622508
3187.755, 0.1622434
3189.684, 0.1606846
3191.612, 0.1619819
3193.541, 0.1636456
3195.469, 0.1627263
3197.398, 0.1617468
3199.326, 0.1624727
3201.255, 0.1633222
3203.183, 0.1638572
3205.112, 0.1650001
3207.040, 0.1677967
3208.969, 0.1681787
3210.897, 0.1658379
3212.825, 0.1665122
3214.754, 0.1669317
3216.682, 0.1682276
3218.611, 0.1708028
3220.539, 0.1716638
3222.468, 0.1709965
3224.396, 0.1705392
3226.325, 0.1699378
3228.253, 0.1685947
3230.182, 0.1678786
3232.110, 0.1676931
3234.039, 0.1695193
3235.967, 0.1725151
3237.896, 0.1725141
3239.824, 0.1715833
3241.752, 0.1703511
3243.681, 0.1713783
3245.609, 0.1726949
3247.538, 0.1727517
3249.466, 0.1735765
3251.395, 0.1735843
3253.323, 0.1715218
3255.252, 0.1700147
3257.180, 0.1711587
3259.109, 0.1713457
3261.037, 0.1712244
3262.966, 0.1712795
3264.894, 0.1711961
3266.823, 0.1722833
3268.751, 0.1745017
3270.679, 0.1757951
3272.608, 0.1749583
3274.536, 0.1742308
3276.465, 0.1748698
3278.393, 0.1750093
3280.322, 0.1744672
3282.250, 0.1750530
3284.179, 0.1753620
3286.107, 0.1735189
3288.036, 0.1704118
3289.964, 0.1705856
3291.893, 0.1725947
3293.821, 0.1728253
3295.750, 0.1738721
3297.678, 0.1735043
3299.606, 0.1729187
3301.535, 0.1737724
3303.463, 0.1744621
3305.392, 0.1747908
3307.320, 0.1748993
3309.249, 0.1730711
3311.177, 0.1732654
3313.106, 0.1765997
3315.034, 0.1765307
3316.963, 0.1756960
3318.891, 0.1772565
3320.820, 0.1768659
3322.748, 0.1737738
3324.677, 0.1730994
3326.605, 0.1744153
3328.533, 0.1751463
3330.462, 0.1767666
3332.390, 0.1767502
3334.319, 0.1750625
3336.247, 0.1768863
3338.176, 0.1761801
3340.104, 0.1739306
3342.033, 0.1738790
3343.961, 0.1735305
3345.890, 0.1745006
3347.818, 0.1724209
3349.747, 0.1714275
3351.675, 0.1736467
3353.604, 0.1746655
3355.532, 0.1740608
3357.460, 0.1718878
3359.389, 0.1721236
3361.317, 0.1713903
3363.246, 0.1715129
3365.174, 0.1715695
3367.103, 0.1710698
3369.031, 0.1724386
3370.960, 0.1728328
3372.888, 0.1725189
3374.817, 0.1718644
3376.745, 0.1722234
3378.674, 0.1703026
3380.602, 0.1688595
3382.531, 0.1668675
3384.459, 0.1649559
3386.387, 0.1657482
3388.316, 0.1675557
3390.244, 0.1678322
3392.173, 0.1677802
3394.101, 0.1692005
3396.030, 0.1675656
3397.958, 0.1641975
3399.887, 0.1621646
3401.815, 0.1621377
3403.744, 0.1621910
3405.672, 0.1622073
3407.601, 0.1635487
3409.529, 0.1630361
3411.458, 0.1624020
3413.386, 0.1618732
3415.314, 0.1618470
3417.243, 0.1608721
3419.171, 0.1605583
3421.100, 0.1602349
3423.028, 0.1603751
3424.957, 0.1594002
3426.885, 0.1573759
3428.814, 0.1574165
3430.742, 0.1570956
3432.671, 0.1569152
3434.599, 0.1561647
3436.528, 0.1540165
3438.456, 0.1533982
3440.385, 0.1521347
3442.313, 0.1503008
3444.241, 0.1511739
3446.170, 0.1503603
3448.098, 0.1493611
3450.027, 0.1508366
3451.955, 0.1501709
3453.884, 0.1490448
3455.812, 0.1479481
3457.741, 0.1474692
3459.669, 0.1448754
3461.598, 0.1430734
3463.526, 0.1434557
3465.455, 0.1434291
3467.383, 0.1408025
3469.312, 0.1393843
3471.240, 0.1421582
3473.168, 0.1418883
3475.097, 0.1406311
3477.025, 0.1395233
3478.954, 0.1369047
3480.882, 0.1367866
3482.811, 0.1363389
3484.739, 0.1361884
3486.668, 0.1333562
3488.596, 0.1303981
3490.525, 0.1321209
3492.453, 0.1339137
3494.382, 0.1332573
3496.310, 0.1306501
3498.239, 0.1264807
3500.167, 0.1254958
3502.095, 0.1265361
3504.024, 0.1240211
3505.952, 0.1244638
3507.881, 0.1266970
3509.809, 0.1258203
3511.738, 0.1222180
3513.666, 0.1207374
3515.595, 0.1202819
3517.523, 0.1209696
3519.452, 0.1201350
3521.380, 0.1179217
3523.309, 0.1168870
3525.237, 0.1186344
3527.166, 0.1175949
3529.094, 0.1152411
3531.022, 0.1140820
3532.951, 0.1130299
3534.879, 0.1123713
3536.808, 0.1089247
3538.736, 0.1056243
3540.665, 0.1076226
3542.593, 0.1051907
3544.522, 0.1010639
3546.450, 0.1016732
3548.379, 0.1018949
3550.307, 0.1037422
3552.236, 0.1079681
3554.164, 0.1040255
3556.093, 0.1013905
3558.021, 0.1010216
3559.949, 9.8862387E-02
3561.878, 9.5136367E-02
3563.806, 9.4015338E-02
3565.735, 9.5014133E-02
3567.663, 9.4575018E-02
3569.592, 9.2961892E-02
3571.520, 9.0000384E-02
3573.449, 8.8210084E-02
3575.377, 8.7502994E-02
3577.306, 8.9784198E-02
3579.234, 9.0745211E-02
3581.163, 8.8536151E-02
3583.091, 8.7427907E-02
3585.020, 8.8380419E-02
3586.948, 8.7280907E-02
3588.876, 8.5257329E-02
3590.805, 8.8959306E-02
3592.733, 9.0170272E-02
3594.662, 8.6572722E-02
3596.590, 8.4737130E-02
3598.519, 8.2524627E-02
3600.447, 7.9887182E-02
3602.376, 8.1028640E-02
3604.304, 7.9690121E-02
3606.233, 7.9817504E-02
3608.161, 8.1546359E-02
3610.090, 7.8975476E-02
3612.018, 7.7270642E-02
3613.947, 7.8569926E-02
3615.875, 7.7829093E-02
3617.803, 7.8337237E-02
3619.732, 7.8882590E-02
3621.660, 7.6636203E-02
3623.589, 7.6768413E-02
3625.517, 7.5364560E-02
3627.446, 7.2114252E-02
3629.374, 7.3050171E-02
3631.303, 7.5249061E-02
3633.231, 7.3079012E-02
3635.160, 7.1543388E-02
3637.088, 7.1630388E-02
3639.017, 6.9462962E-02
3640.945, 6.9001533E-02
3642.874, 7.1978644E-02
3644.802, 7.2647803E-02
3646.730, 7.1223237E-02
3648.659, 7.1659289E-02
3650.587, 7.0372447E-02
3652.516, 7.0433527E-02
3654.444, 7.2661631E-02
3656.373, 7.3037997E-02
3658.301, 7.1542934E-02
3660.230, 6.7841411E-02
3662.158, 6.7507938E-02
3664.087, 6.8856329E-02
3666.015, 6.9063313E-02
3667.944, 6.8935163E-02
3669.872, 6.9596112E-02
3671.801, 6.7920528E-02
3673.729, 6.6474423E-02
3675.657, 6.8257771E-02
3677.586, 6.6836171E-02
3679.514, 6.5614156E-02
3681.443, 6.8618320E-02
3683.371, 6.9189683E-02
3685.300, 6.9805138E-02
3687.228, 6.9921046E-02
3689.157, 6.9703780E-02
3691.085, 7.3583499E-02
3693.014, 7.4649990E-02
3694.942, 7.2844356E-02
3696.871, 6.8113454E-02
3698.799, 6.6162117E-02
3700.728, 6.9124840E-02
3702.656, 7.0089027E-02
3704.584, 6.7139588E-02
3706.513, 6.9233030E-02
3708.441, 6.8363428E-02
3710.370, 6.4305812E-02
3712.298, 6.8950519E-02
3714.227, 7.5099424E-02
3716.155, 7.1537927E-02
3718.084, 7.0435897E-02
3720.012, 7.0234627E-02
3721.941, 7.0956163E-02
3723.869, 7.2863013E-02
3725.798, 7.3708460E-02
3727.726, 7.4879430E-02
3729.655, 7.5605832E-02
3731.583, 7.3241077E-02
3733.511, 7.4052438E-02
3735.440, 7.0736513E-02
3737.368, 6.6894747E-02
3739.297, 7.0188314E-02
3741.225, 7.3744871E-02
3743.154, 7.6325148E-02
3745.082, 7.4548893E-02
3747.011, 7.5269140E-02
3748.939, 7.7386081E-02
3750.868, 7.4302644E-02
3752.796, 7.4316628E-02
3754.725, 7.3664837E-02
3756.653, 7.2024673E-02
3758.582, 7.3973097E-02
3760.510, 7.4680023E-02
3762.438, 7.1199328E-02
3764.367, 7.1112841E-02
3766.295, 6.9111101E-02
3768.224, 6.9551989E-02
3770.152, 7.0704229E-02
3772.081, 7.6124512E-02
3774.009, 7.9712033E-02
3775.938, 7.6888479E-02
3777.866, 7.3484868E-02
3779.795, 7.4655451E-02
3781.723, 7.5988218E-02
3783.652, 7.5528219E-02
3785.580, 7.6953769E-02
3787.509, 7.4884377E-02
3789.437, 7.4564204E-02
3791.365, 7.6679133E-02
3793.294, 7.6606199E-02
3795.222, 7.5463243E-02
3797.151, 7.2762333E-02
3799.079, 7.3507607E-02
3801.008, 7.8482687E-02
3802.936, 7.9458207E-02
3804.865, 7.4367240E-02
3806.793, 7.3952563E-02
3808.722, 7.7594787E-02
3810.650, 7.3298544E-02
3812.579, 7.0167303E-02
3814.507, 7.2446607E-02
3816.436, 7.8806408E-02
3818.364, 8.0541402E-02
3820.292, 7.8111917E-02
3822.221, 7.5506680E-02
3824.149, 7.3864453E-02
3826.078, 7.6039463E-02
3828.006, 7.5246558E-02
3829.935, 7.5741142E-02
3831.863, 7.6624222E-02
3833.792, 7.7304304E-02
3835.720, 7.8342780E-02
3837.649, 7.5522572E-02
3839.577, 7.5928502E-02
3841.506, 7.9072617E-02
3843.434, 8.0563083E-02
3845.363, 8.3178252E-02
3847.291, 8.2384497E-02
3849.219, 7.8830928E-02
3851.148, 8.0108076E-02
3853.076, 8.2913756E-02
3855.005, 7.9282463E-02
3856.933, 8.0933750E-02
3858.862, 8.3310343E-02
3860.790, 8.0752783E-02
3862.719, 8.0885917E-02
3864.647, 8.1950560E-02
3866.576, 7.6930434E-02
3868.504, 7.3976517E-02
3870.433, 7.5534493E-02
3872.361, 8.0190390E-02
3874.290, 8.1787758E-02
3876.218, 7.9103433E-02
3878.146, 8.0564544E-02
3880.075, 8.1702463E-02
3882.003, 7.9172418E-02
3883.932, 8.0191649E-02
3885.860, 8.1677243E-02
3887.789, 8.0240898E-02
3889.717, 7.9069197E-02
3891.646, 8.0172837E-02
3893.574, 7.9542540E-02
3895.503, 7.7516504E-02
3897.431, 8.0005653E-02
3899.360, 8.1535637E-02
3901.288, 8.1191733E-02
3903.217, 8.1144758E-02
3905.145, 8.2685970E-02
3907.073, 8.5538968E-02
3909.002, 8.3986416E-02
3910.930, 7.9341397E-02
3912.859, 8.1150740E-02
3914.787, 8.4565721E-02
3916.716, 8.2483537E-02
3918.644, 8.0571398E-02
3920.573, 8.1275024E-02
3922.501, 8.1611529E-02
3924.430, 8.1900217E-02
3926.358, 8.3328418E-02
3928.287, 8.5560612E-02
3930.215, 8.7706894E-02
3932.144, 8.8118918E-02
3934.072, 8.4982023E-02
3936.000, 8.0883823E-02
3937.929, 8.1028379E-02
3939.857, 8.7262139E-02
3941.786, 8.7677628E-02
3943.714, 8.0899030E-02
3945.643, 8.0642156E-02
3947.571, 8.6738847E-02
3949.500, 8.8393234E-02
3951.428, 8.7224573E-02
3953.357, 8.7206073E-02
3955.285, 8.6782083E-02
3957.214, 8.3816528E-02
3959.142, 8.4928349E-02
3961.071, 8.8237680E-02
3962.999, 8.8133991E-02
3964.927, 8.4474497E-02
3966.856, 8.3746418E-02
3968.784, 8.4819376E-02
3970.713, 8.1666946E-02
3972.641, 8.4490240E-02
3974.570, 8.7567471E-02
3976.498, 8.7432809E-02
3978.427, 8.4763221E-02
3980.355, 8.6242422E-02
3982.284, 9.0319790E-02
3984.212, 8.8038102E-02
3986.141, 8.5268013E-02
3988.069, 8.6936079E-02
3989.998, 8.5867234E-02
3991.926, 8.5687190E-02
3993.854, 8.6750671E-02
3995.783, 8.3222903E-02
3997.711, 8.1960730E-02
3999.640, 8.2000270E-02
##END=



