##NAMES=Bixbyite-(Fe)
##RRUFFID=R050395
##IDEAL CHEMISTRY=Fe^3+^_2_O_3_
##LOCALITY=Thomas Range, Juab County, Utah, USA
##OWNER=RRUFF
##SOURCE=Marcus Origlieri
##DESCRIPTION=Black cube modified with octahedral corners
##STATUS=The identification of this mineral has been confirmed by X-ray diffraction and chemical analysis
##URL=rruff.info/R050395
##MEASURED CHEMISTRY=(Fe^3+^_1.09_Mn^3+^_0.83_Al_0.04_Ti_0.03_[box]_0.01_)_Î£=2_O_3_
399.1926, 0.2874408
401.1211, 0.2841945
403.0496, 0.2855608
404.9780, 0.2890599
406.9065, 0.2932891
408.8350, 0.2940023
410.7634, 0.2972291
412.6919, 0.2937976
414.6204, 0.2940383
416.5488, 0.2971371
418.4773, 0.3026867
420.4058, 0.3049363
422.3342, 0.3029280
424.2627, 0.3034095
426.1912, 0.3083130
428.1196, 0.3075151
430.0481, 0.3072291
431.9766, 0.3060281
433.9050, 0.3037008
435.8335, 0.3017290
437.7620, 0.3013825
439.6904, 0.3007545
441.6189, 0.3011751
443.5474, 0.2989267
445.4758, 0.2962524
447.4043, 0.2972560
449.3328, 0.2957720
451.2612, 0.2943565
453.1897, 0.2914634
455.1182, 0.2872178
457.0466, 0.2849338
458.9751, 0.2841900
460.9036, 0.2828805
462.8320, 0.2828680
464.7605, 0.2785661
466.6890, 0.2728954
468.6174, 0.2709611
470.5459, 0.2675085
472.4744, 0.2640724
474.4028, 0.2614817
476.3313, 0.2593341
478.2598, 0.2574357
480.1882, 0.2545624
482.1167, 0.2514704
484.0452, 0.2490575
485.9736, 0.2460915
487.9021, 0.2434271
489.8306, 0.2404737
491.7590, 0.2396568
493.6875, 0.2373654
495.6160, 0.2342591
497.5444, 0.2315962
499.4729, 0.2286468
501.4014, 0.2273223
503.3298, 0.2249710
505.2583, 0.2211868
507.1868, 0.2167512
509.1152, 0.2129361
511.0437, 0.2099135
512.9722, 0.2065337
514.9006, 0.2040649
516.8291, 0.2023929
518.7576, 0.1987324
520.6860, 0.1947479
522.6145, 0.1916400
524.5430, 0.1896906
526.4714, 0.1868846
528.3999, 0.1844973
530.3284, 0.1836093
532.2568, 0.1827179
534.1853, 0.1816390
536.1138, 0.1811224
538.0422, 0.1825366
539.9707, 0.1842615
541.8992, 0.1866128
543.8276, 0.1892786
545.7561, 0.1923416
547.6846, 0.1940136
549.6130, 0.1933039
551.5415, 0.1933437
553.4700, 0.1945951
555.3984, 0.1946414
557.3269, 0.1929432
559.2554, 0.1905159
561.1838, 0.1884172
563.1123, 0.1864919
565.0408, 0.1841776
566.9692, 0.1821395
568.8977, 0.1805309
570.8262, 0.1774987
572.7546, 0.1742373
574.6831, 0.1724057
576.6116, 0.1704475
578.5400, 0.1682149
580.4685, 0.1658932
582.3970, 0.1635586
584.3254, 0.1606563
586.2539, 0.1584477
588.1824, 0.1564347
590.1108, 0.1545422
592.0393, 0.1524832
593.9678, 0.1504323
595.8962, 0.1479404
597.8247, 0.1452096
599.7532, 0.1423524
601.6816, 0.1394637
603.6101, 0.1370210
605.5386, 0.1349399
607.4670, 0.1324525
609.3955, 0.1295078
611.3240, 0.1267325
613.2524, 0.1243344
615.1809, 0.1220630
617.1094, 0.1198287
619.0378, 0.1177530
620.9663, 0.1160045
622.8948, 0.1142709
624.8232, 0.1122397
626.7517, 0.1110210
628.6802, 0.1101275
630.6086, 0.1092656
632.5371, 0.1089137
634.4656, 0.1086599
636.3940, 0.1086903
638.3225, 0.1090090
640.2510, 0.1099632
642.1794, 0.1112449
644.1079, 0.1120607
646.0364, 0.1126257
647.9648, 0.1132988
649.8933, 0.1140388
651.8218, 0.1154201
653.7502, 0.1166062
655.6787, 0.1169386
657.6072, 0.1168917
659.5356, 0.1174379
661.4641, 0.1172090
663.3926, 0.1161159
665.3210, 0.1154863
667.2495, 0.1143610
669.1780, 0.1128322
671.1064, 0.1106726
673.0349, 0.1088606
674.9634, 0.1067188
676.8918, 0.1033871
678.8203, 9.9822037E-02
680.7488, 9.6820049E-02
682.6772, 9.4050542E-02
684.6057, 9.0417340E-02
686.5342, 8.6951829E-02
688.4626, 8.3976217E-02
690.3911, 8.1421770E-02
692.3196, 7.9091132E-02
694.2480, 7.6766104E-02
696.1765, 7.3968031E-02
698.1050, 7.1453974E-02
700.0334, 6.9024287E-02
701.9619, 6.6685587E-02
703.8904, 6.4493664E-02
705.8188, 6.2861368E-02
707.7473, 6.0945362E-02
709.6758, 5.9612919E-02
711.6042, 5.8326822E-02
713.5327, 5.6513552E-02
715.4612, 5.5164188E-02
717.3896, 5.3909741E-02
719.3181, 5.1925581E-02
721.2466, 5.0249331E-02
723.1750, 4.8553798E-02
725.1035, 4.6515509E-02
727.0320, 4.4472780E-02
728.9604, 4.3005440E-02
730.8889, 4.1501991E-02
732.8174, 3.9765220E-02
734.7458, 3.8814411E-02
736.6743, 3.8056519E-02
738.6028, 3.6578670E-02
740.5313, 3.5258520E-02
742.4597, 3.4167800E-02
744.3882, 3.3461042E-02
746.3167, 3.2767460E-02
748.2451, 3.1932581E-02
750.1736, 3.1246360E-02
752.1021, 3.1040130E-02
754.0305, 3.0855570E-02
755.9590, 3.0461540E-02
757.8875, 3.0320020E-02
759.8159, 3.0085610E-02
761.7444, 2.9967960E-02
763.6729, 3.0245541E-02
765.6013, 3.0377271E-02
767.5298, 3.0401710E-02
769.4583, 3.0745979E-02
771.3867, 3.1227609E-02
773.3152, 3.1960871E-02
775.2437, 3.2723680E-02
777.1721, 3.3505190E-02
779.1006, 3.3614501E-02
781.0291, 3.2872651E-02
782.9575, 3.1964529E-02
784.8860, 3.1574178E-02
786.8145, 3.1549349E-02
788.7429, 3.1633928E-02
790.6714, 3.2057621E-02
792.5999, 3.2670110E-02
794.5283, 3.3170361E-02
796.4568, 3.3642229E-02
798.3853, 3.3888809E-02
800.3137, 3.3661939E-02
802.2422, 3.2783519E-02
804.1707, 3.1312030E-02
806.0991, 2.9956751E-02
808.0276, 2.8901940E-02
809.9561, 2.8114291E-02
811.8845, 2.7511340E-02
813.8130, 2.7160341E-02
815.7415, 2.6932269E-02
817.6699, 2.7129790E-02
819.5984, 2.7131340E-02
821.5269, 2.7272981E-02
823.4553, 2.7725680E-02
825.3838, 2.7784791E-02
827.3123, 2.7415309E-02
829.2407, 2.7436299E-02
831.1692, 2.7548291E-02
833.0977, 2.7584050E-02
835.0261, 2.8159430E-02
836.9546, 2.8582010E-02
838.8831, 2.8413760E-02
840.8115, 2.8548280E-02
842.7400, 2.9228089E-02
844.6685, 2.9687351E-02
846.5969, 2.9790441E-02
848.5254, 2.9813699E-02
850.4539, 3.0241249E-02
852.3823, 3.0664250E-02
854.3108, 3.0635500E-02
856.2393, 3.0459220E-02
858.1677, 3.0584520E-02
860.0962, 3.1027820E-02
862.0247, 3.1169189E-02
863.9531, 3.1550009E-02
865.8816, 3.2104071E-02
867.8101, 3.2394391E-02
869.7385, 3.2854568E-02
871.6670, 3.3169411E-02
873.5955, 3.3263270E-02
875.5239, 3.3235401E-02
877.4524, 3.2790761E-02
879.3809, 3.1948030E-02
881.3093, 3.2015011E-02
883.2378, 3.2981958E-02
885.1663, 3.4294270E-02
887.0947, 3.5438199E-02
889.0232, 3.6515839E-02
890.9517, 3.7187941E-02
892.8801, 3.7706502E-02
894.8085, 3.8390409E-02
896.7370, 3.9099921E-02
898.6655, 3.9619818E-02
900.5939, 3.9867580E-02
902.5224, 4.0418159E-02
904.4509, 4.1196719E-02
906.3793, 4.2044900E-02
908.3078, 4.2704578E-02
910.2363, 4.3340981E-02
912.1647, 4.3982379E-02
914.0932, 4.4772290E-02
916.0217, 4.5586750E-02
917.9501, 4.6280939E-02
919.8786, 4.7193982E-02
921.8071, 4.8004180E-02
923.7355, 4.8694748E-02
925.6640, 4.9754471E-02
927.5925, 5.0465912E-02
929.5209, 5.0885729E-02
931.4494, 5.1436570E-02
933.3779, 5.2158311E-02
935.3063, 5.2701890E-02
937.2348, 5.3370349E-02
939.1633, 5.4138660E-02
941.0917, 5.5069178E-02
943.0202, 5.5857029E-02
944.9487, 5.6303371E-02
946.8771, 5.6856941E-02
948.8056, 5.7373200E-02
950.7341, 5.8190521E-02
952.6625, 5.9009138E-02
954.5910, 5.9460390E-02
956.5195, 6.0010791E-02
958.4479, 6.0877159E-02
960.3764, 6.1981499E-02
962.3049, 6.3093483E-02
964.2333, 6.4237848E-02
966.1618, 6.4889178E-02
968.0903, 6.5710127E-02
970.0187, 6.7070290E-02
971.9472, 6.8214647E-02
973.8757, 6.9363743E-02
975.8041, 7.0599608E-02
977.7326, 7.1577087E-02
979.6611, 7.2932564E-02
981.5895, 7.4693292E-02
983.5180, 7.6279767E-02
985.4465, 7.7556752E-02
987.3749, 7.8981593E-02
989.3034, 8.0377482E-02
991.2319, 8.1699952E-02
993.1603, 8.3446354E-02
995.0888, 8.5368350E-02
997.0173, 8.7066427E-02
998.9457, 8.8862300E-02
1000.874, 9.0240307E-02
1002.803, 9.1683850E-02
1004.731, 9.3262240E-02
1006.660, 9.4532147E-02
1008.588, 9.5609158E-02
1010.517, 9.7108573E-02
1012.445, 9.8475017E-02
1014.373, 9.9672839E-02
1016.302, 0.1007089
1018.230, 0.1015939
1020.159, 0.1023187
1022.087, 0.1030763
1024.016, 0.1043051
1025.944, 0.1055975
1027.873, 0.1063453
1029.801, 0.1071396
1031.730, 0.1078679
1033.658, 0.1084218
1035.587, 0.1087414
1037.515, 0.1087071
1039.444, 0.1082198
1041.372, 0.1071417
1043.301, 0.1060295
1045.229, 0.1049211
1047.157, 0.1043712
1049.086, 0.1046651
1051.014, 0.1055062
1052.943, 0.1066200
1054.871, 0.1080730
1056.800, 0.1097422
1058.728, 0.1107222
1060.657, 0.1113208
1062.585, 0.1117848
1064.514, 0.1116694
1066.442, 0.1112914
1068.371, 0.1110857
1070.299, 0.1113525
1072.228, 0.1117229
1074.156, 0.1117430
1076.084, 0.1117616
1078.013, 0.1118322
1079.941, 0.1117872
1081.870, 0.1118729
1083.798, 0.1119646
1085.727, 0.1119520
1087.655, 0.1119586
1089.584, 0.1122068
1091.512, 0.1124085
1093.441, 0.1127928
1095.369, 0.1136547
1097.298, 0.1142863
1099.226, 0.1144951
1101.155, 0.1147768
1103.083, 0.1151833
1105.011, 0.1156185
1106.940, 0.1155041
1108.868, 0.1151236
1110.797, 0.1149052
1112.725, 0.1149620
1114.654, 0.1150449
1116.582, 0.1146595
1118.511, 0.1146167
1120.439, 0.1145713
1122.368, 0.1140988
1124.296, 0.1136584
1126.225, 0.1134476
1128.153, 0.1132052
1130.082, 0.1130585
1132.010, 0.1128280
1133.938, 0.1123739
1135.867, 0.1121482
1137.795, 0.1125042
1139.724, 0.1127249
1141.652, 0.1125321
1143.581, 0.1124773
1145.509, 0.1124857
1147.438, 0.1122506
1149.366, 0.1119349
1151.295, 0.1116413
1153.223, 0.1116038
1155.152, 0.1118658
1157.080, 0.1121049
1159.009, 0.1125035
1160.937, 0.1132300
1162.865, 0.1138763
1164.794, 0.1141187
1166.722, 0.1139043
1168.651, 0.1137835
1170.579, 0.1137064
1172.508, 0.1135615
1174.436, 0.1132408
1176.365, 0.1130509
1178.293, 0.1128358
1180.222, 0.1123748
1182.150, 0.1120372
1184.079, 0.1119606
1186.007, 0.1119372
1187.936, 0.1113608
1189.864, 0.1111000
1191.792, 0.1110695
1193.721, 0.1108958
1195.649, 0.1106427
1197.578, 0.1105933
1199.506, 0.1103254
1201.435, 0.1098448
1203.363, 0.1096470
1205.292, 0.1097016
1207.220, 0.1096391
1209.149, 0.1095906
1211.077, 0.1094027
1213.006, 0.1089893
1214.934, 0.1088838
1216.863, 0.1089414
1218.791, 0.1091527
1220.719, 0.1092469
1222.648, 0.1092976
1224.576, 0.1095722
1226.505, 0.1098971
1228.433, 0.1101822
1230.362, 0.1103104
1232.290, 0.1104296
1234.219, 0.1107316
1236.147, 0.1113065
1238.076, 0.1118145
1240.004, 0.1120329
1241.933, 0.1121436
1243.861, 0.1125755
1245.790, 0.1130304
1247.718, 0.1132319
1249.646, 0.1131990
1251.575, 0.1132857
1253.503, 0.1136215
1255.432, 0.1138239
1257.360, 0.1140723
1259.289, 0.1144184
1261.217, 0.1145581
1263.146, 0.1146351
1265.074, 0.1149572
1267.003, 0.1149543
1268.931, 0.1150930
1270.860, 0.1152688
1272.788, 0.1154690
1274.717, 0.1159578
1276.645, 0.1163032
1278.573, 0.1166995
1280.502, 0.1171121
1282.430, 0.1176841
1284.359, 0.1182201
1286.287, 0.1182702
1288.216, 0.1184898
1290.144, 0.1186924
1292.073, 0.1188559
1294.001, 0.1192135
1295.930, 0.1196642
1297.858, 0.1198801
1299.787, 0.1202903
1301.715, 0.1205446
1303.644, 0.1205231
1305.572, 0.1206743
1307.500, 0.1211036
1309.429, 0.1212442
1311.357, 0.1216282
1313.286, 0.1219972
1315.214, 0.1219574
1317.143, 0.1221130
1319.071, 0.1223086
1321.000, 0.1224473
1322.928, 0.1231400
1324.857, 0.1234012
1326.785, 0.1235867
1328.714, 0.1242413
1330.642, 0.1248384
1332.571, 0.1249698
1334.499, 0.1253021
1336.427, 0.1258895
1338.356, 0.1264747
1340.284, 0.1270037
1342.213, 0.1272684
1344.141, 0.1274788
1346.070, 0.1278812
1347.998, 0.1284725
1349.927, 0.1292388
1351.855, 0.1295858
1353.784, 0.1299502
1355.712, 0.1304033
1357.641, 0.1305552
1359.569, 0.1308957
1361.498, 0.1313076
1363.426, 0.1314836
1365.354, 0.1321028
1367.283, 0.1326175
1369.211, 0.1328654
1371.140, 0.1329086
1373.068, 0.1329419
1374.997, 0.1330406
1376.925, 0.1334478
1378.854, 0.1337922
1380.782, 0.1337627
1382.711, 0.1339099
1384.639, 0.1343782
1386.568, 0.1347953
1388.496, 0.1352353
1390.424, 0.1356184
1392.353, 0.1363281
1394.281, 0.1369341
1396.210, 0.1376163
1398.138, 0.1385765
1400.067, 0.1391850
1401.995, 0.1396473
1403.924, 0.1401481
1405.852, 0.1406918
1407.781, 0.1413352
1409.709, 0.1418748
1411.638, 0.1421592
1413.566, 0.1426444
1415.495, 0.1433385
1417.423, 0.1439711
1419.351, 0.1442489
1421.280, 0.1444687
1423.208, 0.1444864
1425.137, 0.1446783
1427.065, 0.1452809
1428.994, 0.1458086
1430.922, 0.1463714
1432.851, 0.1464843
1434.779, 0.1466103
1436.708, 0.1468965
1438.636, 0.1471837
1440.565, 0.1475304
1442.493, 0.1480747
1444.422, 0.1485345
1446.350, 0.1485679
1448.278, 0.1486036
1450.207, 0.1491177
1452.135, 0.1494804
1454.064, 0.1493860
1455.992, 0.1493915
1457.921, 0.1497399
1459.849, 0.1501256
1461.778, 0.1500035
1463.706, 0.1500293
1465.635, 0.1507000
1467.563, 0.1505978
1469.492, 0.1502903
1471.420, 0.1498448
1473.349, 0.1497723
1475.277, 0.1496518
1477.205, 0.1495468
1479.134, 0.1496236
1481.062, 0.1498888
1482.991, 0.1501704
1484.919, 0.1503200
1486.848, 0.1502714
1488.776, 0.1502773
1490.705, 0.1506931
1492.633, 0.1512463
1494.562, 0.1513732
1496.490, 0.1516584
1498.419, 0.1520915
1500.347, 0.1524695
1502.276, 0.1527243
1504.204, 0.1528540
1506.132, 0.1529273
1508.061, 0.1533617
1509.989, 0.1538582
1511.918, 0.1544359
1513.846, 0.1547463
1515.775, 0.1547694
1517.703, 0.1550964
1519.632, 0.1556459
1521.560, 0.1558757
1523.489, 0.1561554
1525.417, 0.1568641
1527.346, 0.1572121
1529.274, 0.1572906
1531.203, 0.1574718
1533.131, 0.1578579
1535.059, 0.1581020
1536.988, 0.1581929
1538.916, 0.1586637
1540.845, 0.1590536
1542.773, 0.1595596
1544.702, 0.1602643
1546.630, 0.1603925
1548.559, 0.1604998
1550.487, 0.1609016
1552.416, 0.1611317
1554.344, 0.1616630
1556.273, 0.1620941
1558.201, 0.1623433
1560.130, 0.1622455
1562.058, 0.1623838
1563.986, 0.1628958
1565.915, 0.1635416
1567.843, 0.1636736
1569.772, 0.1640466
1571.700, 0.1648599
1573.629, 0.1650420
1575.557, 0.1650468
1577.486, 0.1656635
1579.414, 0.1666482
1581.343, 0.1667717
1583.271, 0.1667472
1585.200, 0.1673565
1587.128, 0.1676004
1589.057, 0.1677567
1590.985, 0.1682019
1592.913, 0.1686438
1594.842, 0.1687494
1596.770, 0.1687964
1598.699, 0.1690310
1600.627, 0.1692879
1602.556, 0.1695699
1604.484, 0.1696337
1606.413, 0.1697564
1608.341, 0.1698691
1610.270, 0.1700686
1612.198, 0.1704531
1614.127, 0.1707036
1616.055, 0.1711041
1617.984, 0.1711752
1619.912, 0.1714138
1621.840, 0.1718066
1623.769, 0.1722986
1625.697, 0.1726460
1627.626, 0.1728144
1629.554, 0.1726623
1631.483, 0.1727070
1633.411, 0.1729422
1635.340, 0.1731875
1637.268, 0.1733963
1639.197, 0.1734468
1641.125, 0.1739185
1643.054, 0.1741467
1644.982, 0.1744590
1646.911, 0.1748385
1648.839, 0.1746379
1650.767, 0.1743523
1652.696, 0.1742066
1654.624, 0.1744443
1656.553, 0.1751365
1658.481, 0.1755466
1660.410, 0.1752564
1662.338, 0.1750503
1664.267, 0.1743692
1666.195, 0.1743039
1668.124, 0.1746869
1670.052, 0.1753353
1671.981, 0.1754978
1673.909, 0.1754104
1675.838, 0.1755046
1677.766, 0.1754932
1679.694, 0.1754960
1681.623, 0.1755794
1683.551, 0.1753866
1685.480, 0.1753193
1687.408, 0.1754797
1689.337, 0.1755744
1691.265, 0.1754577
1693.194, 0.1756285
1695.122, 0.1759822
1697.051, 0.1758251
1698.979, 0.1756825
1700.908, 0.1759222
1702.836, 0.1761163
1704.765, 0.1762002
1706.693, 0.1764173
1708.621, 0.1765497
1710.550, 0.1764866
1712.478, 0.1768071
1714.407, 0.1776519
1716.335, 0.1778569
1718.264, 0.1782075
1720.192, 0.1789175
1722.121, 0.1792611
1724.049, 0.1799657
1725.978, 0.1806778
1727.906, 0.1809520
1729.835, 0.1813220
1731.763, 0.1818369
1733.692, 0.1820482
1735.620, 0.1825592
1737.548, 0.1824590
1739.477, 0.1826114
1741.405, 0.1828945
1743.334, 0.1828115
1745.262, 0.1822457
1747.191, 0.1812586
1749.119, 0.1801731
1751.048, 0.1793195
1752.976, 0.1794177
1754.905, 0.1790677
1756.833, 0.1782337
1758.762, 0.1782048
1760.690, 0.1784931
1762.619, 0.1788081
1764.547, 0.1795807
1766.475, 0.1798138
1768.404, 0.1796097
1770.332, 0.1794935
1772.261, 0.1794008
1774.189, 0.1793201
1776.118, 0.1801208
1778.046, 0.1805275
1779.975, 0.1804414
1781.903, 0.1807377
1783.832, 0.1807142
1785.760, 0.1807343
1787.689, 0.1809480
1789.617, 0.1814403
1791.546, 0.1821128
1793.474, 0.1826795
1795.402, 0.1826536
1797.331, 0.1827416
1799.259, 0.1831814
1801.188, 0.1834501
1803.116, 0.1836103
1805.045, 0.1839160
1806.973, 0.1836249
1808.902, 0.1835060
1810.830, 0.1838184
1812.759, 0.1840908
1814.687, 0.1842684
1816.616, 0.1846123
1818.544, 0.1852080
1820.473, 0.1852140
1822.401, 0.1850573
1824.329, 0.1852374
1826.258, 0.1856578
1828.186, 0.1862418
1830.115, 0.1867342
1832.043, 0.1866546
1833.972, 0.1867774
1835.900, 0.1864950
1837.829, 0.1871431
1839.757, 0.1878952
1841.686, 0.1875492
1843.614, 0.1870445
1845.543, 0.1872291
1847.471, 0.1875892
1849.400, 0.1877438
1851.328, 0.1881637
1853.256, 0.1881904
1855.185, 0.1883197
1857.113, 0.1885544
1859.042, 0.1891865
1860.970, 0.1887947
1862.899, 0.1885635
1864.827, 0.1897338
1866.756, 0.1907444
1868.684, 0.1911700
1870.613, 0.1917024
1872.541, 0.1909803
1874.470, 0.1905800
1876.398, 0.1912991
1878.327, 0.1917529
1880.255, 0.1909267
1882.183, 0.1901247
1884.112, 0.1900129
1886.040, 0.1911604
1887.969, 0.1917404
1889.897, 0.1922695
1891.826, 0.1927822
1893.754, 0.1917998
1895.683, 0.1919831
1897.611, 0.1929147
1899.540, 0.1932001
1901.468, 0.1929537
1903.397, 0.1932532
1905.325, 0.1936219
1907.254, 0.1937445
1909.182, 0.1941319
1911.110, 0.1948474
1913.039, 0.1949302
1914.967, 0.1944864
1916.896, 0.1940757
1918.824, 0.1937614
1920.753, 0.1937334
1922.681, 0.1943451
1924.610, 0.1953811
1926.538, 0.1960956
1928.467, 0.1961446
1930.395, 0.1940520
1932.324, 0.1937670
1934.252, 0.1956669
1936.181, 0.1972959
1938.109, 0.1971875
1940.037, 0.1955399
1941.966, 0.1953255
1943.894, 0.1965009
1945.823, 0.1965670
1947.751, 0.1967552
1949.680, 0.1973871
1951.608, 0.1968802
1953.537, 0.1967018
1955.465, 0.1965646
1957.394, 0.1980278
1959.322, 0.2005960
1961.251, 0.1997850
1963.179, 0.1956385
1965.108, 0.1948942
1967.036, 0.1964512
1968.964, 0.1948379
1970.893, 0.1936514
1972.821, 0.1951441
1974.750, 0.1983573
1976.678, 0.2014912
1978.607, 0.2022503
1980.535, 0.1989760
1982.464, 0.1977647
1984.392, 0.1987334
1986.321, 0.1992628
1988.249, 0.1996712
1990.178, 0.1993150
1992.106, 0.2009852
1994.035, 0.2015297
1995.963, 0.2010274
1997.891, 0.2004123
1999.820, 0.2009899
2001.748, 0.2008264
2003.677, 0.1978257
2005.605, 0.1992661
2007.534, 0.2023254
2009.462, 0.2005205
2011.391, 0.1984170
2013.319, 0.1971477
2015.248, 0.1981709
2017.176, 0.1991870
2019.105, 0.1995412
2021.033, 0.2012614
2022.962, 0.2027902
2024.890, 0.2018169
2026.818, 0.1974196
2028.747, 0.1973506
2030.675, 0.1988360
2032.604, 0.2009807
2034.532, 0.2020221
2036.461, 0.2023792
2038.389, 0.2038217
2040.318, 0.2037671
2042.246, 0.2017930
2044.175, 0.2004347
2046.103, 0.2011012
2048.032, 0.2013119
2049.960, 0.2037710
2051.889, 0.2033470
2053.817, 0.2046281
2055.746, 0.2069060
2057.674, 0.2060488
2059.603, 0.2061880
2061.531, 0.2059719
2063.459, 0.2064460
2065.388, 0.2075422
2067.316, 0.2082770
2069.245, 0.2079742
2071.173, 0.2070716
2073.102, 0.2077944
2075.030, 0.2085349
2076.959, 0.2076971
2078.887, 0.2068047
2080.816, 0.2067332
2082.744, 0.2072740
2084.673, 0.2084882
2086.601, 0.2096126
2088.530, 0.2083143
2090.458, 0.2065240
2092.386, 0.2057258
2094.315, 0.2089766
2096.243, 0.2107653
2098.172, 0.2085743
2100.100, 0.2076523
2102.029, 0.2091241
2103.957, 0.2090911
2105.886, 0.2089847
2107.814, 0.2096387
2109.743, 0.2114899
2111.671, 0.2123967
2113.600, 0.2108526
2115.528, 0.2108956
2117.457, 0.2105744
2119.385, 0.2103870
2121.313, 0.2104169
2123.242, 0.2106829
2125.170, 0.2107398
2127.099, 0.2104376
2129.027, 0.2090506
2130.956, 0.2079230
2132.884, 0.2088562
2134.813, 0.2090526
2136.741, 0.2078638
2138.670, 0.2063936
2140.598, 0.2068646
2142.527, 0.2086571
2144.455, 0.2078894
2146.384, 0.2062128
2148.312, 0.2047827
2150.240, 0.2053105
2152.169, 0.2085430
2154.097, 0.2072758
2156.026, 0.2066663
2157.954, 0.2073030
2159.883, 0.2106214
2161.811, 0.2133468
2163.740, 0.2125802
2165.668, 0.2153220
2167.597, 0.2155213
2169.525, 0.2115939
2171.454, 0.2109942
2173.382, 0.2130325
2175.311, 0.2141121
2177.239, 0.2134917
2179.167, 0.2116926
2181.096, 0.2099679
2183.024, 0.2107320
2184.953, 0.2104654
2186.881, 0.2115290
2188.810, 0.2127956
2190.738, 0.2122470
2192.667, 0.2105792
2194.595, 0.2137602
2196.524, 0.2179212
2198.452, 0.2166757
2200.381, 0.2148127
2202.309, 0.2145143
2204.238, 0.2145408
2206.166, 0.2123453
2208.094, 0.2130270
2210.023, 0.2152096
2211.951, 0.2157596
2213.880, 0.2168886
2215.808, 0.2177862
2217.737, 0.2185085
2219.665, 0.2177249
2221.594, 0.2170140
2223.522, 0.2165748
2225.451, 0.2161889
2227.379, 0.2169423
2229.308, 0.2192961
2231.236, 0.2196871
2233.165, 0.2190574
2235.093, 0.2193248
2237.021, 0.2197834
2238.950, 0.2193022
2240.878, 0.2208049
2242.807, 0.2197850
2244.735, 0.2190550
2246.664, 0.2196914
2248.592, 0.2194881
2250.521, 0.2192194
2252.449, 0.2204277
2254.378, 0.2200167
2256.306, 0.2200061
2258.235, 0.2208300
2260.163, 0.2212869
2262.092, 0.2208890
2264.020, 0.2210282
2265.948, 0.2218809
2267.877, 0.2222538
2269.805, 0.2215842
2271.734, 0.2215538
2273.662, 0.2236979
2275.591, 0.2248485
2277.519, 0.2245469
2279.448, 0.2238353
2281.376, 0.2246024
2283.305, 0.2247846
2285.233, 0.2246327
2287.162, 0.2244179
2289.090, 0.2257155
2291.019, 0.2272343
2292.947, 0.2271676
2294.875, 0.2265532
2296.804, 0.2255759
2298.732, 0.2240990
2300.661, 0.2239092
2302.589, 0.2254779
2304.518, 0.2264562
2306.446, 0.2266451
2308.375, 0.2270610
2310.303, 0.2269198
2312.232, 0.2266312
2314.160, 0.2279054
2316.089, 0.2283840
2318.017, 0.2276744
2319.946, 0.2271182
2321.874, 0.2273815
2323.802, 0.2281272
2325.731, 0.2278573
2327.659, 0.2282155
2329.588, 0.2282443
2331.516, 0.2281035
2333.445, 0.2282652
2335.373, 0.2283615
2337.302, 0.2282018
2339.230, 0.2277131
2341.159, 0.2278184
2343.087, 0.2282397
2345.016, 0.2288136
2346.944, 0.2288617
2348.873, 0.2279623
2350.801, 0.2272811
2352.729, 0.2282720
2354.658, 0.2287349
2356.586, 0.2285111
2358.515, 0.2289796
2360.443, 0.2285379
2362.372, 0.2273463
2364.300, 0.2274905
2366.229, 0.2278864
2368.157, 0.2282418
2370.086, 0.2289982
2372.014, 0.2295753
2373.942, 0.2289495
2375.871, 0.2281499
2377.799, 0.2285602
2379.728, 0.2291791
2381.656, 0.2291083
2383.585, 0.2296016
2385.513, 0.2296709
2387.442, 0.2302493
2389.370, 0.2310259
2391.299, 0.2314233
2393.227, 0.2327368
2395.156, 0.2327164
2397.084, 0.2325567
2399.012, 0.2324208
2400.941, 0.2312085
2402.869, 0.2315157
2404.798, 0.2319629
2406.726, 0.2315005
2408.655, 0.2316237
2410.583, 0.2317010
2412.512, 0.2317950
2414.440, 0.2326211
2416.369, 0.2330176
2418.297, 0.2331699
2420.226, 0.2342208
2422.154, 0.2345280
2424.083, 0.2328629
2426.011, 0.2327322
2427.939, 0.2337278
2429.868, 0.2345162
2431.796, 0.2345492
2433.725, 0.2350456
2435.653, 0.2364877
2437.582, 0.2366236
2439.510, 0.2363664
2441.439, 0.2363908
2443.367, 0.2356468
2445.296, 0.2358618
2447.224, 0.2363201
2449.153, 0.2356843
2451.081, 0.2351648
2453.010, 0.2358053
2454.938, 0.2361343
2456.866, 0.2356762
2458.795, 0.2354311
2460.723, 0.2362228
2462.652, 0.2379885
2464.580, 0.2373691
2466.509, 0.2365078
2468.437, 0.2366119
2470.366, 0.2375336
2472.294, 0.2376794
2474.223, 0.2353821
2476.151, 0.2353846
2478.080, 0.2368814
2480.008, 0.2372061
2481.937, 0.2367139
2483.865, 0.2375472
2485.793, 0.2375710
2487.722, 0.2368414
2489.650, 0.2371097
2491.579, 0.2376550
2493.507, 0.2372988
2495.436, 0.2374337
2497.364, 0.2380526
2499.293, 0.2394824
2501.221, 0.2409193
2503.150, 0.2398611
2505.078, 0.2385257
2507.007, 0.2378756
2508.935, 0.2375407
2510.864, 0.2374010
2512.792, 0.2378607
2514.720, 0.2383988
2516.649, 0.2390607
2518.577, 0.2406611
2520.506, 0.2412363
2522.434, 0.2412889
2524.363, 0.2412660
2526.291, 0.2412647
2528.220, 0.2406064
2530.148, 0.2393157
2532.077, 0.2382269
2534.005, 0.2373870
2535.934, 0.2377275
2537.862, 0.2390776
2539.791, 0.2400860
2541.719, 0.2401223
2543.647, 0.2411909
2545.576, 0.2428744
2547.504, 0.2429299
2549.433, 0.2414580
2551.361, 0.2412521
2553.290, 0.2422599
2555.218, 0.2420750
2557.147, 0.2416099
2559.075, 0.2423629
2561.004, 0.2420142
2562.932, 0.2411534
2564.861, 0.2415063
2566.789, 0.2423696
2568.718, 0.2432739
2570.646, 0.2427419
2572.574, 0.2440328
2574.503, 0.2454753
2576.431, 0.2440638
2578.360, 0.2432842
2580.288, 0.2443655
2582.217, 0.2452004
2584.145, 0.2448775
2586.074, 0.2447629
2588.002, 0.2448294
2589.931, 0.2438594
2591.859, 0.2437316
2593.788, 0.2449491
2595.716, 0.2453397
2597.645, 0.2452003
2599.573, 0.2457871
2601.501, 0.2462204
2603.430, 0.2458533
2605.358, 0.2467496
2607.287, 0.2475156
2609.215, 0.2477408
2611.144, 0.2478529
2613.072, 0.2476656
2615.001, 0.2471919
2616.929, 0.2465374
2618.858, 0.2469295
2620.786, 0.2474867
2622.715, 0.2480613
2624.643, 0.2488109
2626.572, 0.2481794
2628.500, 0.2475829
2630.428, 0.2483877
2632.357, 0.2482152
2634.285, 0.2482120
2636.214, 0.2493233
2638.142, 0.2492658
2640.071, 0.2491991
2641.999, 0.2483806
2643.928, 0.2475248
2645.856, 0.2484010
2647.785, 0.2492951
2649.713, 0.2495525
2651.642, 0.2496554
2653.570, 0.2501991
2655.499, 0.2505068
2657.427, 0.2505534
2659.355, 0.2502966
2661.284, 0.2497303
2663.212, 0.2497813
2665.141, 0.2505946
2667.069, 0.2503706
2668.998, 0.2497147
2670.926, 0.2488009
2672.855, 0.2493356
2674.783, 0.2507794
2676.712, 0.2503204
2678.640, 0.2505238
2680.569, 0.2521724
2682.497, 0.2518372
2684.426, 0.2508245
2686.354, 0.2508509
2688.282, 0.2518125
2690.211, 0.2517418
2692.139, 0.2514177
2694.068, 0.2519148
2695.996, 0.2515405
2697.925, 0.2507643
2699.853, 0.2503169
2701.782, 0.2508045
2703.710, 0.2522703
2705.639, 0.2519110
2707.567, 0.2516492
2709.496, 0.2524467
2711.424, 0.2522957
2713.353, 0.2522637
2715.281, 0.2524401
2717.209, 0.2525080
2719.138, 0.2523846
2721.066, 0.2525135
2722.995, 0.2531228
2724.923, 0.2534913
2726.852, 0.2526817
2728.780, 0.2521697
2730.709, 0.2532553
2732.637, 0.2538930
2734.566, 0.2541028
2736.494, 0.2534632
2738.423, 0.2534648
2740.351, 0.2540104
2742.280, 0.2545381
2744.208, 0.2552457
2746.136, 0.2558646
2748.065, 0.2551992
2749.993, 0.2537795
2751.922, 0.2542990
2753.850, 0.2543813
2755.779, 0.2544453
2757.707, 0.2549128
2759.636, 0.2556828
2761.564, 0.2559783
2763.493, 0.2552387
2765.421, 0.2545450
2767.350, 0.2552345
2769.278, 0.2567013
2771.207, 0.2577602
2773.135, 0.2569509
2775.063, 0.2560876
2776.992, 0.2565011
2778.920, 0.2562591
2780.849, 0.2562440
2782.777, 0.2570603
2784.706, 0.2573961
2786.634, 0.2573531
2788.563, 0.2568019
2790.491, 0.2563134
2792.420, 0.2571855
2794.348, 0.2584786
2796.277, 0.2586652
2798.205, 0.2587210
2800.134, 0.2580145
2802.062, 0.2579004
2803.990, 0.2582647
2805.919, 0.2590305
2807.847, 0.2588993
2809.776, 0.2580920
2811.704, 0.2583564
2813.633, 0.2588479
2815.561, 0.2593629
2817.490, 0.2602018
2819.418, 0.2604723
2821.347, 0.2601488
2823.275, 0.2601176
2825.204, 0.2599479
2827.132, 0.2600997
2829.061, 0.2601127
2830.989, 0.2604928
2832.917, 0.2612902
2834.846, 0.2618967
2836.774, 0.2614584
2838.703, 0.2623611
2840.631, 0.2639501
2842.560, 0.2637024
2844.488, 0.2617826
2846.417, 0.2619128
2848.345, 0.2624328
2850.274, 0.2614812
2852.202, 0.2602599
2854.131, 0.2594040
2856.059, 0.2580948
2857.988, 0.2550288
2859.916, 0.2529590
2861.844, 0.2535169
2863.773, 0.2554916
2865.701, 0.2561653
2867.630, 0.2553515
2869.558, 0.2552682
2871.487, 0.2550930
2873.415, 0.2548312
2875.344, 0.2545389
2877.272, 0.2547230
2879.201, 0.2553245
2881.129, 0.2550694
2883.058, 0.2565241
2884.986, 0.2584383
2886.915, 0.2591926
2888.843, 0.2577022
2890.771, 0.2570792
2892.700, 0.2571823
2894.628, 0.2572390
2896.557, 0.2579924
2898.485, 0.2575330
2900.414, 0.2579839
2902.342, 0.2601214
2904.271, 0.2611645
2906.199, 0.2609506
2908.128, 0.2611705
2910.056, 0.2623866
2911.985, 0.2627326
2913.913, 0.2618992
2915.842, 0.2622310
2917.770, 0.2616074
2919.698, 0.2589930
2921.627, 0.2563980
2923.555, 0.2544425
2925.484, 0.2532156
2927.412, 0.2535264
2929.341, 0.2539335
2931.269, 0.2524874
2933.198, 0.2517633
2935.126, 0.2518592
2937.055, 0.2527217
2938.983, 0.2527472
2940.912, 0.2518571
2942.840, 0.2516046
2944.769, 0.2534483
2946.697, 0.2563404
2948.625, 0.2562603
2950.554, 0.2554045
2952.482, 0.2563629
2954.411, 0.2571624
2956.339, 0.2556697
2958.268, 0.2531877
2960.196, 0.2521408
2962.125, 0.2515201
2964.053, 0.2505201
2965.982, 0.2508446
2967.910, 0.2501837
2969.839, 0.2478011
2971.767, 0.2456195
2973.696, 0.2454256
2975.624, 0.2468455
2977.552, 0.2491567
2979.481, 0.2521205
2981.409, 0.2540655
2983.338, 0.2552476
2985.266, 0.2544898
2987.195, 0.2554750
2989.123, 0.2580839
2991.052, 0.2593680
2992.980, 0.2586132
2994.909, 0.2587698
2996.837, 0.2605207
2998.766, 0.2601550
3000.694, 0.2598515
3002.623, 0.2603013
3004.551, 0.2609847
3006.479, 0.2630638
3008.408, 0.2641374
3010.336, 0.2640246
3012.265, 0.2638133
3014.193, 0.2643538
3016.122, 0.2652746
3018.050, 0.2652225
3019.979, 0.2640750
3021.907, 0.2640708
3023.836, 0.2656894
3025.764, 0.2661746
3027.693, 0.2644731
3029.621, 0.2631924
3031.550, 0.2654902
3033.478, 0.2686794
3035.406, 0.2690658
3037.335, 0.2666862
3039.263, 0.2665380
3041.192, 0.2661127
3043.120, 0.2665411
3045.049, 0.2693478
3046.977, 0.2703291
3048.906, 0.2688828
3050.834, 0.2680262
3052.763, 0.2681260
3054.691, 0.2690969
3056.620, 0.2687623
3058.548, 0.2692054
3060.477, 0.2697449
3062.405, 0.2699414
3064.333, 0.2690216
3066.262, 0.2698044
3068.190, 0.2705140
3070.119, 0.2701425
3072.047, 0.2703539
3073.976, 0.2704440
3075.904, 0.2704541
3077.833, 0.2698103
3079.761, 0.2701051
3081.690, 0.2706150
3083.618, 0.2709092
3085.547, 0.2708367
3087.475, 0.2691824
3089.404, 0.2698002
3091.332, 0.2710516
3093.260, 0.2697014
3095.189, 0.2684267
3097.117, 0.2695002
3099.046, 0.2723274
3100.974, 0.2736174
3102.903, 0.2716328
3104.831, 0.2711000
3106.760, 0.2725895
3108.688, 0.2719170
3110.617, 0.2697721
3112.545, 0.2692194
3114.474, 0.2710829
3116.402, 0.2722466
3118.331, 0.2719589
3120.259, 0.2719536
3122.188, 0.2724884
3124.116, 0.2732376
3126.044, 0.2715556
3127.973, 0.2717914
3129.901, 0.2723669
3131.830, 0.2719004
3133.758, 0.2715048
3135.687, 0.2711479
3137.615, 0.2724674
3139.544, 0.2744542
3141.472, 0.2738830
3143.401, 0.2726296
3145.329, 0.2726005
3147.258, 0.2726477
3149.186, 0.2732149
3151.115, 0.2750545
3153.043, 0.2761334
3154.971, 0.2750586
3156.900, 0.2734059
3158.828, 0.2744657
3160.757, 0.2760957
3162.685, 0.2772752
3164.614, 0.2756281
3166.542, 0.2726501
3168.471, 0.2724498
3170.399, 0.2754430
3172.328, 0.2768033
3174.256, 0.2756422
3176.185, 0.2743344
3178.113, 0.2757664
3180.042, 0.2774872
3181.970, 0.2765164
3183.898, 0.2739554
3185.827, 0.2734407
3187.755, 0.2744299
3189.684, 0.2752284
3191.612, 0.2746607
3193.541, 0.2741836
3195.469, 0.2739234
3197.398, 0.2748159
3199.326, 0.2747990
3201.255, 0.2740889
3203.183, 0.2729137
3205.112, 0.2734619
3207.040, 0.2747347
3208.969, 0.2758147
3210.897, 0.2751780
3212.825, 0.2745630
3214.754, 0.2740456
3216.682, 0.2719912
3218.611, 0.2720823
3220.539, 0.2727821
3222.468, 0.2736549
3224.396, 0.2747686
3226.325, 0.2746796
3228.253, 0.2734182
3230.182, 0.2739352
3232.110, 0.2741778
3234.039, 0.2742159
3235.967, 0.2740349
3237.896, 0.2735696
3239.824, 0.2732522
3241.752, 0.2733021
3243.681, 0.2748817
3245.609, 0.2756201
3247.538, 0.2737187
3249.466, 0.2715275
3251.395, 0.2732963
3253.323, 0.2761397
3255.252, 0.2745078
3257.180, 0.2729712
3259.109, 0.2759103
3261.037, 0.2762981
3262.966, 0.2749475
3264.894, 0.2735661
3266.823, 0.2743838
3268.751, 0.2748762
3270.679, 0.2747302
3272.608, 0.2754331
3274.536, 0.2763394
3276.465, 0.2776727
3278.393, 0.2774578
3280.322, 0.2768588
3282.250, 0.2774668
3284.179, 0.2768992
3286.107, 0.2751102
3288.036, 0.2759121
3289.964, 0.2758752
3291.893, 0.2763640
3293.821, 0.2770251
3295.750, 0.2769103
3297.678, 0.2784165
3299.606, 0.2773024
3301.535, 0.2765453
3303.463, 0.2786985
3305.392, 0.2782342
3307.320, 0.2762250
3309.249, 0.2740193
3311.177, 0.2738049
3313.106, 0.2743495
3315.034, 0.2761956
3316.963, 0.2751711
3318.891, 0.2752500
3320.820, 0.2763317
3322.748, 0.2756097
3324.677, 0.2735583
3326.605, 0.2749104
3328.533, 0.2763650
3330.462, 0.2751931
3332.390, 0.2751608
3334.319, 0.2764658
3336.247, 0.2763222
3338.176, 0.2753388
3340.104, 0.2735632
3342.033, 0.2724769
3343.961, 0.2731378
3345.890, 0.2761649
3347.818, 0.2797240
3349.747, 0.2799506
3351.675, 0.2779690
3353.604, 0.2781969
3355.532, 0.2769250
3357.460, 0.2764248
3359.389, 0.2782947
3361.317, 0.2791434
3363.246, 0.2769080
3365.174, 0.2754170
3367.103, 0.2773493
3369.031, 0.2787413
3370.960, 0.2787961
3372.888, 0.2779599
3374.817, 0.2788239
3376.745, 0.2811686
3378.674, 0.2810169
3380.602, 0.2789725
3382.531, 0.2782674
3384.459, 0.2803914
3386.387, 0.2822047
3388.316, 0.2817803
3390.244, 0.2814331
3392.173, 0.2820655
3394.101, 0.2789333
3396.030, 0.2760706
3397.958, 0.2770770
3399.887, 0.2807827
3401.815, 0.2807209
3403.744, 0.2780415
3405.672, 0.2775424
3407.601, 0.2785868
3409.529, 0.2784228
3411.458, 0.2793264
3413.386, 0.2814242
3415.314, 0.2808855
3417.243, 0.2793464
3419.171, 0.2786716
3421.100, 0.2815675
3423.028, 0.2864856
3424.957, 0.2857829
3426.885, 0.2823313
3428.814, 0.2829334
3430.742, 0.2841965
3432.671, 0.2835300
3434.599, 0.2837772
3436.528, 0.2841005
3438.456, 0.2844743
3440.385, 0.2815469
3442.313, 0.2807660
3444.241, 0.2827815
3446.170, 0.2854307
3448.098, 0.2848277
3450.027, 0.2835533
3451.955, 0.2859030
3453.884, 0.2905275
3455.812, 0.2894050
3457.741, 0.2862032
3459.669, 0.2880970
3461.598, 0.2880334
3463.526, 0.2889966
3465.455, 0.2874278
3467.383, 0.2857660
3469.312, 0.2871367
3471.240, 0.2887379
3473.168, 0.2895064
3475.097, 0.2898711
3477.025, 0.2908313
3478.954, 0.2882501
3480.882, 0.2883033
3482.811, 0.2874273
3484.739, 0.2894287
3486.668, 0.2947551
3488.596, 0.2940694
3490.525, 0.2888436
3492.453, 0.2889023
3494.382, 0.2896556
3496.310, 0.2897992
3498.239, 0.2904750
3500.167, 0.2896468
3502.095, 0.2865793
3504.024, 0.2891158
3505.952, 0.2931512
3507.881, 0.2937449
3509.809, 0.2911947
3511.738, 0.2894838
3513.666, 0.2922964
3515.595, 0.2912447
3517.523, 0.2889340
3519.452, 0.2899721
3521.380, 0.2922519
3523.309, 0.2906720
3525.237, 0.2903498
3527.166, 0.2914207
3529.094, 0.2913827
3531.022, 0.2930986
3532.951, 0.2976069
3534.879, 0.2960413
3536.808, 0.2935374
3538.736, 0.2937507
3540.665, 0.2924082
3542.593, 0.2909158
3544.522, 0.2915807
3546.450, 0.2917746
3548.379, 0.2905064
3550.307, 0.2936972
3552.236, 0.2960624
3554.164, 0.2972590
3556.093, 0.2945907
3558.021, 0.2944880
3559.949, 0.2939589
3561.878, 0.2934234
3563.806, 0.2961585
3565.735, 0.2973415
3567.663, 0.2984402
3569.592, 0.2998581
3571.520, 0.2989514
3573.449, 0.2981347
3575.377, 0.2959880
3577.306, 0.2979515
3579.234, 0.2995597
3581.163, 0.2978501
3583.091, 0.2970636
3585.020, 0.2973923
3586.948, 0.2957397
3588.876, 0.2983423
3590.805, 0.2991077
3592.733, 0.2973108
3594.662, 0.2970897
3596.590, 0.2990341
3598.519, 0.2985145
3600.447, 0.2997793
3602.376, 0.3026894
3604.304, 0.3004963
3606.233, 0.2973859
3608.161, 0.2972149
3610.090, 0.2984731
3612.018, 0.3010142
3613.947, 0.3005096
3615.875, 0.2987735
3617.803, 0.2979798
3619.732, 0.3002951
3621.660, 0.3019959
3623.589, 0.2992856
3625.517, 0.2999534
3627.446, 0.3037683
3629.374, 0.3049082
3631.303, 0.3028304
3633.231, 0.3009469
3635.160, 0.3001432
3637.088, 0.3006783
3639.017, 0.3007842
3640.945, 0.3015346
3642.874, 0.3035666
3644.802, 0.3052666
3646.730, 0.3040309
3648.659, 0.3007528
3650.587, 0.3040802
3652.516, 0.3057114
3654.444, 0.3045412
3656.373, 0.3013177
3658.301, 0.3030163
3660.230, 0.3033578
3662.158, 0.3015185
3664.087, 0.3007816
3666.015, 0.3033307
3667.944, 0.3044610
3669.872, 0.3046505
3671.801, 0.3036590
3673.729, 0.3031400
3675.657, 0.3017441
3677.586, 0.3024485
3679.514, 0.3065530
3681.443, 0.3066359
3683.371, 0.3011457
3685.300, 0.2975742
3687.228, 0.2979999
3689.157, 0.3029487
3691.085, 0.3051540
3693.014, 0.3073860
3694.942, 0.3093131
3696.871, 0.3092832
3698.799, 0.3076615
3700.728, 0.3019933
3702.656, 0.2987209
3704.584, 0.3069315
3706.513, 0.3089964
3708.441, 0.3034789
3710.370, 0.3022582
3712.298, 0.3052099
3714.227, 0.3058982
3716.155, 0.3079317
3718.084, 0.3074401
3720.012, 0.3035627
3721.941, 0.3021987
3723.869, 0.3036583
3725.798, 0.3016282
3727.726, 0.2999877
3729.655, 0.3015005
3731.583, 0.2995040
3733.511, 0.2998864
3735.440, 0.3061251
3737.368, 0.3098332
3739.297, 0.3089036
3741.225, 0.3035151
3743.154, 0.3013388
3745.082, 0.3031926
3747.011, 0.3032147
3748.939, 0.3032699
3750.868, 0.3048532
3752.796, 0.3009973
3754.725, 0.3036114
3756.653, 0.3085539
3758.582, 0.3095781
3760.510, 0.3077420
3762.438, 0.3088166
3764.367, 0.3087696
3766.295, 0.3070315
3768.224, 0.3079580
3770.152, 0.3094141
3772.081, 0.3094940
3774.009, 0.3087060
3775.938, 0.3110104
3777.866, 0.3116199
3779.795, 0.3074041
3781.723, 0.3061891
3783.652, 0.3081666
3785.580, 0.3085376
3787.509, 0.3099213
3789.437, 0.3096886
3791.365, 0.3077591
3793.294, 0.3073169
3795.222, 0.3100828
3797.151, 0.3130288
3799.079, 0.3120798
3801.008, 0.3094886
3802.936, 0.3062725
3804.865, 0.3073873
3806.793, 0.3096671
3808.722, 0.3126438
3810.650, 0.3124699
3812.579, 0.3089468
3814.507, 0.3097541
3816.436, 0.3121538
3818.364, 0.3087268
3820.292, 0.3093105
3822.221, 0.3144096
3824.149, 0.3135458
3826.078, 0.3105915
3828.006, 0.3088315
3829.935, 0.3085619
3831.863, 0.3096007
3833.792, 0.3108470
3835.720, 0.3131210
3837.649, 0.3102015
3839.577, 0.3103280
3841.506, 0.3092354
3843.434, 0.3105414
3845.363, 0.3160220
3847.291, 0.3149581
3849.219, 0.3109336
3851.148, 0.3107411
3853.076, 0.3132369
3855.005, 0.3152042
3856.933, 0.3151687
3858.862, 0.3157994
3860.790, 0.3155213
3862.719, 0.3138545
3864.647, 0.3130531
3866.576, 0.3140390
3868.504, 0.3135093
3870.433, 0.3143775
3872.361, 0.3155806
3874.290, 0.3143468
3876.218, 0.3134703
3878.146, 0.3118240
3880.075, 0.3125489
3882.003, 0.3170949
3883.932, 0.3212050
3885.860, 0.3218449
3887.789, 0.3197730
3889.717, 0.3216669
3891.646, 0.3217771
3893.574, 0.3188210
3895.503, 0.3166650
3897.431, 0.3156670
3899.360, 0.3167053
3901.288, 0.3185743
3903.217, 0.3169507
3905.145, 0.3130961
3907.073, 0.3160453
3909.002, 0.3192771
3910.930, 0.3182626
3912.859, 0.3151259
3914.787, 0.3151143
3916.716, 0.3149168
3918.644, 0.3155518
3920.573, 0.3151242
3922.501, 0.3144138
3924.430, 0.3155020
3926.358, 0.3179751
3928.287, 0.3188986
3930.215, 0.3186924
3932.144, 0.3179293
3934.072, 0.3192006
3936.000, 0.3208837
3937.929, 0.3205431
3939.857, 0.3215225
3941.786, 0.3186019
3943.714, 0.3191856
3945.643, 0.3191842
3947.571, 0.3147854
3949.500, 0.3150484
3951.428, 0.3198235
3953.357, 0.3180278
3955.285, 0.3145130
3957.214, 0.3157377
3959.142, 0.3202283
3961.071, 0.3226791
3962.999, 0.3234440
3964.927, 0.3198707
3966.856, 0.3184063
3968.784, 0.3176862
3970.713, 0.3172542
3972.641, 0.3198047
3974.570, 0.3227629
3976.498, 0.3233195
3978.427, 0.3187221
3980.355, 0.3168350
3982.284, 0.3198864
3984.212, 0.3241233
3986.141, 0.3269680
3988.069, 0.3254914
3989.998, 0.3206053
3991.926, 0.3193964
3993.854, 0.3263036
3995.783, 0.3245990
3997.711, 0.3186831
3999.640, 0.3188368
##END=



