##NAMES=Blodite
##RRUFFID=R050317
##IDEAL CHEMISTRY=Na_2_Mg(S^6+^O_4_)_2_&#183;4H_2_O
##LOCALITY=Stassfurt, Germany
##OWNER=RRUFF
##SOURCE=American Museum of Natural History
##DESCRIPTION=Colorless fragment
##STATUS=The identification of this mineral has been confirmed by X-ray diffraction and chemical analysis
##URL=rruff.info/R050317
##MEASURED CHEMISTRY=Na_2.00_Mg_1.00_(S_1.00_O_4_)_2_Â·4H_2_O
3.991926e+002, 6.921279e-002
4.011211e+002, 7.076790e-002
4.030496e+002, 7.110812e-002
4.049780e+002, 7.043878e-002
4.069065e+002, 7.192972e-002
4.088350e+002, 7.407475e-002
4.107634e+002, 7.232214e-002
4.126919e+002, 7.286019e-002
4.146204e+002, 7.602108e-002
4.165488e+002, 7.847872e-002
4.184773e+002, 8.069925e-002
4.204058e+002, 8.267114e-002
4.223342e+002, 8.444940e-002
4.242627e+002, 8.663172e-002
4.261912e+002, 8.711505e-002
4.281196e+002, 8.834951e-002
4.300481e+002, 8.939596e-002
4.319766e+002, 9.008391e-002
4.339050e+002, 9.323271e-002
4.358335e+002, 9.403187e-002
4.377620e+002, 9.424301e-002
4.396904e+002, 9.377933e-002
4.416189e+002, 9.325491e-002
4.435474e+002, 9.229647e-002
4.454758e+002, 9.027158e-002
4.474043e+002, 8.727224e-002
4.493328e+002, 8.272359e-002
4.512612e+002, 7.788462e-002
4.531897e+002, 7.383786e-002
4.551182e+002, 7.272899e-002
4.570466e+002, 7.291032e-002
4.589751e+002, 7.297245e-002
4.609036e+002, 7.224656e-002
4.628320e+002, 7.101613e-002
4.647605e+002, 7.076894e-002
4.666890e+002, 7.027399e-002
4.686174e+002, 6.878416e-002
4.705459e+002, 6.688140e-002
4.724744e+002, 6.625611e-002
4.744028e+002, 6.506895e-002
4.763313e+002, 6.306054e-002
4.782598e+002, 6.050694e-002
4.801882e+002, 5.805364e-002
4.821167e+002, 5.549271e-002
4.840452e+002, 5.337993e-002
4.859736e+002, 5.184564e-002
4.879021e+002, 4.973568e-002
4.898306e+002, 4.776157e-002
4.917590e+002, 4.673965e-002
4.936875e+002, 4.608598e-002
4.956160e+002, 4.587221e-002
4.975444e+002, 4.542119e-002
4.994729e+002, 4.523521e-002
5.014014e+002, 4.552255e-002
5.033298e+002, 4.598187e-002
5.052583e+002, 4.675317e-002
5.071868e+002, 4.696416e-002
5.091152e+002, 4.700799e-002
5.110437e+002, 4.694556e-002
5.129722e+002, 4.745451e-002
5.149006e+002, 4.854848e-002
5.168291e+002, 4.897659e-002
5.187576e+002, 4.914762e-002
5.206860e+002, 4.992851e-002
5.226145e+002, 5.100008e-002
5.245430e+002, 5.198881e-002
5.264714e+002, 5.310495e-002
5.283999e+002, 5.351008e-002
5.303284e+002, 5.427253e-002
5.322568e+002, 5.601105e-002
5.341853e+002, 5.725292e-002
5.361138e+002, 5.862004e-002
5.380422e+002, 6.000127e-002
5.399707e+002, 6.046544e-002
5.418992e+002, 6.135141e-002
5.438276e+002, 6.380762e-002
5.457561e+002, 6.655093e-002
5.476846e+002, 6.902246e-002
5.496130e+002, 7.122131e-002
5.515415e+002, 7.312129e-002
5.534700e+002, 7.576595e-002
5.553984e+002, 7.803635e-002
5.573269e+002, 8.075174e-002
5.592554e+002, 8.371215e-002
5.611838e+002, 8.629563e-002
5.631123e+002, 8.959507e-002
5.650408e+002, 9.260906e-002
5.669692e+002, 9.612034e-002
5.688977e+002, 9.991983e-002
5.708262e+002, 1.035891e-001
5.727546e+002, 1.068529e-001
5.746831e+002, 1.109187e-001
5.766116e+002, 1.156988e-001
5.785400e+002, 1.204121e-001
5.804685e+002, 1.253857e-001
5.823970e+002, 1.301569e-001
5.843254e+002, 1.341753e-001
5.862539e+002, 1.377171e-001
5.881824e+002, 1.409133e-001
5.901108e+002, 1.440329e-001
5.920393e+002, 1.470575e-001
5.939678e+002, 1.492370e-001
5.958962e+002, 1.511302e-001
5.978247e+002, 1.527784e-001
5.997532e+002, 1.547529e-001
6.016816e+002, 1.579759e-001
6.036101e+002, 1.626500e-001
6.055386e+002, 1.688979e-001
6.074670e+002, 1.759929e-001
6.093955e+002, 1.806788e-001
6.113240e+002, 1.805596e-001
6.132524e+002, 1.750901e-001
6.151809e+002, 1.686303e-001
6.171094e+002, 1.644606e-001
6.190378e+002, 1.615310e-001
6.209663e+002, 1.585114e-001
6.228948e+002, 1.549341e-001
6.248232e+002, 1.504140e-001
6.267517e+002, 1.449713e-001
6.286802e+002, 1.401072e-001
6.306086e+002, 1.384793e-001
6.325371e+002, 1.396999e-001
6.344656e+002, 1.417697e-001
6.363940e+002, 1.413817e-001
6.383225e+002, 1.369962e-001
6.402510e+002, 1.308790e-001
6.421794e+002, 1.243328e-001
6.441079e+002, 1.189734e-001
6.460364e+002, 1.156144e-001
6.479648e+002, 1.132134e-001
6.498933e+002, 1.117563e-001
6.518218e+002, 1.110748e-001
6.537502e+002, 1.105517e-001
6.556787e+002, 1.097897e-001
6.576072e+002, 1.086344e-001
6.595356e+002, 1.070436e-001
6.614641e+002, 1.049231e-001
6.633926e+002, 1.023814e-001
6.653210e+002, 9.984218e-002
6.672495e+002, 9.742542e-002
6.691780e+002, 9.482472e-002
6.711064e+002, 9.234906e-002
6.730349e+002, 9.033697e-002
6.749634e+002, 8.894055e-002
6.768918e+002, 8.797915e-002
6.788203e+002, 8.715267e-002
6.807488e+002, 8.620193e-002
6.826772e+002, 8.558169e-002
6.846057e+002, 8.532488e-002
6.865342e+002, 8.550797e-002
6.884626e+002, 8.573972e-002
6.903911e+002, 8.566998e-002
6.923196e+002, 8.563138e-002
6.942480e+002, 8.593602e-002
6.961765e+002, 8.623955e-002
6.981050e+002, 8.707648e-002
7.000334e+002, 8.790221e-002
7.019619e+002, 8.861445e-002
7.038904e+002, 8.920605e-002
7.058188e+002, 8.987558e-002
7.077473e+002, 9.020756e-002
7.096758e+002, 9.049483e-002
7.116042e+002, 9.117661e-002
7.135327e+002, 9.142233e-002
7.154612e+002, 9.125245e-002
7.173896e+002, 9.109498e-002
7.193181e+002, 9.047540e-002
7.212466e+002, 8.972776e-002
7.231750e+002, 8.900651e-002
7.251035e+002, 8.767521e-002
7.270320e+002, 8.618148e-002
7.289604e+002, 8.498126e-002
7.308889e+002, 8.380520e-002
7.328174e+002, 8.178344e-002
7.347458e+002, 7.930043e-002
7.366743e+002, 7.685189e-002
7.386028e+002, 7.483895e-002
7.405313e+002, 7.275252e-002
7.424597e+002, 7.041410e-002
7.443882e+002, 6.855925e-002
7.463167e+002, 6.669677e-002
7.482451e+002, 6.480837e-002
7.501736e+002, 6.297469e-002
7.521021e+002, 6.123925e-002
7.540305e+002, 5.984898e-002
7.559590e+002, 5.842301e-002
7.578875e+002, 5.682246e-002
7.598159e+002, 5.539536e-002
7.617444e+002, 5.427590e-002
7.636729e+002, 5.339157e-002
7.656013e+002, 5.235087e-002
7.675298e+002, 5.164520e-002
7.694583e+002, 5.120404e-002
7.713867e+002, 5.074397e-002
7.733152e+002, 5.044116e-002
7.752437e+002, 5.012206e-002
7.771721e+002, 4.989471e-002
7.791006e+002, 4.974125e-002
7.810291e+002, 4.960980e-002
7.829575e+002, 4.983314e-002
7.848860e+002, 5.007071e-002
7.868145e+002, 5.015431e-002
7.887429e+002, 5.068109e-002
7.906714e+002, 5.104643e-002
7.925999e+002, 5.160253e-002
7.945283e+002, 5.238436e-002
7.964568e+002, 5.302386e-002
7.983853e+002, 5.382200e-002
8.003137e+002, 5.469508e-002
8.022422e+002, 5.584368e-002
8.041707e+002, 5.713827e-002
8.060991e+002, 5.866968e-002
8.080276e+002, 6.027108e-002
8.099561e+002, 6.207624e-002
8.118845e+002, 6.347834e-002
8.138130e+002, 6.470881e-002
8.157415e+002, 6.621502e-002
8.176699e+002, 6.756884e-002
8.195984e+002, 6.913339e-002
8.215269e+002, 7.025617e-002
8.234553e+002, 7.102898e-002
8.253838e+002, 7.147997e-002
8.273123e+002, 7.141964e-002
8.292407e+002, 7.093865e-002
8.311692e+002, 7.010164e-002
8.330977e+002, 6.912468e-002
8.350261e+002, 6.738471e-002
8.369546e+002, 6.524323e-002
8.388831e+002, 6.308677e-002
8.408115e+002, 6.059971e-002
8.427400e+002, 5.847203e-002
8.446685e+002, 5.604045e-002
8.465969e+002, 5.358616e-002
8.485254e+002, 5.127925e-002
8.504539e+002, 4.927237e-002
8.523823e+002, 4.745566e-002
8.543108e+002, 4.604589e-002
8.562393e+002, 4.484691e-002
8.581677e+002, 4.383620e-002
8.600962e+002, 4.294666e-002
8.620247e+002, 4.230133e-002
8.639531e+002, 4.219958e-002
8.658816e+002, 4.210607e-002
8.678101e+002, 4.202277e-002
8.697385e+002, 4.197945e-002
8.716670e+002, 4.166403e-002
8.735955e+002, 4.143602e-002
8.755239e+002, 4.140513e-002
8.774524e+002, 4.089302e-002
8.793809e+002, 3.973662e-002
8.813093e+002, 3.849517e-002
8.832378e+002, 3.735708e-002
8.851663e+002, 3.609123e-002
8.870947e+002, 3.486728e-002
8.890232e+002, 3.331060e-002
8.909517e+002, 3.182158e-002
8.928801e+002, 3.048150e-002
8.948085e+002, 2.920563e-002
8.967370e+002, 2.838157e-002
8.986655e+002, 2.801876e-002
9.005939e+002, 2.700106e-002
9.025224e+002, 2.619522e-002
9.044509e+002, 2.554728e-002
9.063793e+002, 2.481142e-002
9.083078e+002, 2.455145e-002
9.102363e+002, 2.421723e-002
9.121647e+002, 2.394592e-002
9.140932e+002, 2.353626e-002
9.160217e+002, 2.306553e-002
9.179501e+002, 2.304386e-002
9.198786e+002, 2.310997e-002
9.218071e+002, 2.269455e-002
9.237355e+002, 2.239351e-002
9.256640e+002, 2.231671e-002
9.275925e+002, 2.257782e-002
9.295209e+002, 2.246189e-002
9.314494e+002, 2.212591e-002
9.333779e+002, 2.235099e-002
9.353063e+002, 2.256740e-002
9.372348e+002, 2.255658e-002
9.391633e+002, 2.247329e-002
9.410917e+002, 2.245769e-002
9.430202e+002, 2.279613e-002
9.449487e+002, 2.309487e-002
9.468771e+002, 2.294038e-002
9.488056e+002, 2.294682e-002
9.507341e+002, 2.304652e-002
9.526625e+002, 2.334040e-002
9.545910e+002, 2.395406e-002
9.565195e+002, 2.413683e-002
9.584479e+002, 2.420286e-002
9.603764e+002, 2.451085e-002
9.623049e+002, 2.498994e-002
9.642333e+002, 2.555579e-002
9.661618e+002, 2.595086e-002
9.680903e+002, 2.642169e-002
9.700187e+002, 2.734344e-002
9.719472e+002, 2.801981e-002
9.738757e+002, 2.880010e-002
9.758041e+002, 2.987005e-002
9.777326e+002, 3.063300e-002
9.796611e+002, 3.188237e-002
9.815895e+002, 3.416324e-002
9.835180e+002, 3.693945e-002
9.854465e+002, 4.042880e-002
9.873749e+002, 4.635543e-002
9.893034e+002, 5.700088e-002
9.912319e+002, 7.617393e-002
9.931603e+002, 9.878781e-002
9.950888e+002, 9.960996e-002
9.970173e+002, 7.509792e-002
9.989457e+002, 5.284105e-002
1.000874e+003, 4.215046e-002
1.002803e+003, 3.799646e-002
1.004731e+003, 3.674119e-002
1.006660e+003, 3.696534e-002
1.008588e+003, 3.756150e-002
1.010517e+003, 3.848256e-002
1.012445e+003, 4.019435e-002
1.014373e+003, 4.205731e-002
1.016302e+003, 4.366829e-002
1.018230e+003, 4.587924e-002
1.020159e+003, 4.859811e-002
1.022087e+003, 5.094789e-002
1.024016e+003, 5.352399e-002
1.025944e+003, 5.654297e-002
1.027873e+003, 5.980296e-002
1.029801e+003, 6.334771e-002
1.031730e+003, 6.736104e-002
1.033658e+003, 7.154850e-002
1.035587e+003, 7.623552e-002
1.037515e+003, 8.153885e-002
1.039444e+003, 8.713427e-002
1.041372e+003, 9.347204e-002
1.043301e+003, 1.004085e-001
1.045229e+003, 1.079299e-001
1.047157e+003, 1.164363e-001
1.049086e+003, 1.258102e-001
1.051014e+003, 1.359821e-001
1.052943e+003, 1.471450e-001
1.054871e+003, 1.588542e-001
1.056800e+003, 1.713261e-001
1.058728e+003, 1.850378e-001
1.060657e+003, 1.994193e-001
1.062585e+003, 2.140184e-001
1.064514e+003, 2.289667e-001
1.066442e+003, 2.439779e-001
1.068371e+003, 2.585269e-001
1.070299e+003, 2.730534e-001
1.072228e+003, 2.872878e-001
1.074156e+003, 3.002752e-001
1.076084e+003, 3.122488e-001
1.078013e+003, 3.230067e-001
1.079941e+003, 3.319167e-001
1.081870e+003, 3.385867e-001
1.083798e+003, 3.430486e-001
1.085727e+003, 3.453539e-001
1.087655e+003, 3.460357e-001
1.089584e+003, 3.451126e-001
1.091512e+003, 3.421985e-001
1.093441e+003, 3.380899e-001
1.095369e+003, 3.327849e-001
1.097298e+003, 3.263219e-001
1.099226e+003, 3.196551e-001
1.101155e+003, 3.128210e-001
1.103083e+003, 3.065569e-001
1.105011e+003, 3.016621e-001
1.106940e+003, 2.977268e-001
1.108868e+003, 2.950626e-001
1.110797e+003, 2.944336e-001
1.112725e+003, 2.957531e-001
1.114654e+003, 2.989264e-001
1.116582e+003, 3.031889e-001
1.118511e+003, 3.063672e-001
1.120439e+003, 3.073705e-001
1.122368e+003, 3.061526e-001
1.124296e+003, 3.014644e-001
1.126225e+003, 2.922291e-001
1.128153e+003, 2.794726e-001
1.130082e+003, 2.641194e-001
1.132010e+003, 2.475776e-001
1.133938e+003, 2.317525e-001
1.135867e+003, 2.177790e-001
1.137795e+003, 2.067743e-001
1.139724e+003, 1.995934e-001
1.141652e+003, 1.974631e-001
1.143581e+003, 2.017189e-001
1.145509e+003, 2.127533e-001
1.147438e+003, 2.302173e-001
1.149366e+003, 2.506258e-001
1.151295e+003, 2.690707e-001
1.153223e+003, 2.805879e-001
1.155152e+003, 2.829768e-001
1.157080e+003, 2.767908e-001
1.159009e+003, 2.643165e-001
1.160937e+003, 2.478239e-001
1.162865e+003, 2.294599e-001
1.164794e+003, 2.108154e-001
1.166722e+003, 1.927075e-001
1.168651e+003, 1.754938e-001
1.170579e+003, 1.592430e-001
1.172508e+003, 1.439845e-001
1.174436e+003, 1.299575e-001
1.176365e+003, 1.166602e-001
1.178293e+003, 1.040670e-001
1.180222e+003, 9.238175e-002
1.182150e+003, 8.201731e-002
1.184079e+003, 7.304951e-002
1.186007e+003, 6.437401e-002
1.187936e+003, 5.635687e-002
1.189864e+003, 4.949751e-002
1.191792e+003, 4.338863e-002
1.193721e+003, 3.819682e-002
1.195649e+003, 3.355466e-002
1.197578e+003, 2.920217e-002
1.199506e+003, 2.531846e-002
1.201435e+003, 2.197282e-002
1.203363e+003, 1.928057e-002
1.205292e+003, 1.739706e-002
1.207220e+003, 1.598003e-002
1.209149e+003, 1.484175e-002
1.211077e+003, 1.387374e-002
1.213006e+003, 1.300033e-002
1.214934e+003, 1.223683e-002
1.216863e+003, 1.165663e-002
1.218791e+003, 1.111885e-002
1.220719e+003, 1.064521e-002
1.222648e+003, 1.011539e-002
1.224576e+003, 9.431410e-003
1.226505e+003, 9.108533e-003
1.228433e+003, 8.944429e-003
1.230362e+003, 8.685344e-003
1.232290e+003, 8.451675e-003
1.234219e+003, 8.224864e-003
1.236147e+003, 8.178035e-003
1.238076e+003, 8.084673e-003
1.240004e+003, 8.032913e-003
1.241933e+003, 7.629383e-003
1.243861e+003, 7.242593e-003
1.245790e+003, 7.048200e-003
1.247718e+003, 7.081100e-003
1.249646e+003, 7.179434e-003
1.251575e+003, 7.084922e-003
1.253503e+003, 7.000077e-003
1.255432e+003, 6.922536e-003
1.257360e+003, 6.946926e-003
1.259289e+003, 7.078456e-003
1.261217e+003, 6.960278e-003
1.263146e+003, 6.737664e-003
1.265074e+003, 6.696225e-003
1.267003e+003, 6.863138e-003
1.268931e+003, 6.696128e-003
1.270860e+003, 6.305362e-003
1.272788e+003, 6.350806e-003
1.274717e+003, 6.295491e-003
1.276645e+003, 6.205723e-003
1.278573e+003, 6.284846e-003
1.280502e+003, 6.298617e-003
1.282430e+003, 6.239173e-003
1.284359e+003, 6.146054e-003
1.286287e+003, 6.230399e-003
1.288216e+003, 6.344159e-003
1.290144e+003, 6.329833e-003
1.292073e+003, 6.332497e-003
1.294001e+003, 6.372130e-003
1.295930e+003, 6.218052e-003
1.297858e+003, 6.157523e-003
1.299787e+003, 5.946402e-003
1.301715e+003, 6.127030e-003
1.303644e+003, 6.163792e-003
1.305572e+003, 6.131409e-003
1.307500e+003, 6.152160e-003
1.309429e+003, 6.225754e-003
1.311357e+003, 6.288343e-003
1.313286e+003, 6.127917e-003
1.315214e+003, 6.042481e-003
1.317143e+003, 6.162412e-003
1.319071e+003, 6.174705e-003
1.321000e+003, 6.116617e-003
1.322928e+003, 6.079206e-003
1.324857e+003, 5.990562e-003
1.326785e+003, 5.913732e-003
1.328714e+003, 5.990075e-003
1.330642e+003, 6.343774e-003
1.332571e+003, 6.700869e-003
1.334499e+003, 6.475501e-003
1.336427e+003, 6.339928e-003
1.338356e+003, 6.213296e-003
1.340284e+003, 5.936393e-003
1.342213e+003, 5.987708e-003
1.344141e+003, 6.024345e-003
1.346070e+003, 5.973553e-003
1.347998e+003, 6.307541e-003
1.349927e+003, 6.639294e-003
1.351855e+003, 6.592651e-003
1.353784e+003, 6.217596e-003
1.355712e+003, 6.211380e-003
1.357641e+003, 6.310282e-003
1.359569e+003, 6.375253e-003
1.361498e+003, 6.380648e-003
1.363426e+003, 6.325620e-003
1.365354e+003, 6.327753e-003
1.367283e+003, 6.497571e-003
1.369211e+003, 6.666970e-003
1.371140e+003, 6.578233e-003
1.373068e+003, 6.417721e-003
1.374997e+003, 6.493928e-003
1.376925e+003, 6.466185e-003
1.378854e+003, 6.686108e-003
1.380782e+003, 7.007502e-003
1.382711e+003, 7.227167e-003
1.384639e+003, 7.025637e-003
1.386568e+003, 6.943579e-003
1.388496e+003, 7.137936e-003
1.390424e+003, 7.257740e-003
1.392353e+003, 7.099971e-003
1.394281e+003, 6.936271e-003
1.396210e+003, 7.298615e-003
1.398138e+003, 7.630237e-003
1.400067e+003, 7.717761e-003
1.401995e+003, 7.696306e-003
1.403924e+003, 7.831416e-003
1.405852e+003, 8.017015e-003
1.407781e+003, 8.017849e-003
1.409709e+003, 7.929740e-003
1.411638e+003, 7.950633e-003
1.413566e+003, 8.169924e-003
1.415495e+003, 8.425848e-003
1.417423e+003, 8.390144e-003
1.419351e+003, 8.131067e-003
1.421280e+003, 8.319653e-003
1.423208e+003, 8.443845e-003
1.425137e+003, 8.137847e-003
1.427065e+003, 8.331233e-003
1.428994e+003, 8.856956e-003
1.430922e+003, 8.848036e-003
1.432851e+003, 8.619799e-003
1.434779e+003, 8.710941e-003
1.436708e+003, 8.811433e-003
1.438636e+003, 8.867691e-003
1.440565e+003, 8.819548e-003
1.442493e+003, 8.689389e-003
1.444422e+003, 8.728717e-003
1.446350e+003, 8.593436e-003
1.448278e+003, 8.519085e-003
1.450207e+003, 8.454206e-003
1.452135e+003, 8.645614e-003
1.454064e+003, 8.577435e-003
1.455992e+003, 8.133888e-003
1.457921e+003, 7.973617e-003
1.459849e+003, 8.008803e-003
1.461778e+003, 8.402974e-003
1.463706e+003, 8.667943e-003
1.465635e+003, 8.274730e-003
1.467563e+003, 8.121300e-003
1.469492e+003, 8.466066e-003
1.471420e+003, 8.938194e-003
1.473349e+003, 9.599107e-003
1.475277e+003, 9.860519e-003
1.477205e+003, 9.803527e-003
1.479134e+003, 9.915264e-003
1.481062e+003, 1.005748e-002
1.482991e+003, 9.783749e-003
1.484919e+003, 9.730285e-003
1.486848e+003, 9.703312e-003
1.488776e+003, 9.866543e-003
1.490705e+003, 1.010284e-002
1.492633e+003, 1.019629e-002
1.494562e+003, 1.015569e-002
1.496490e+003, 1.047283e-002
1.498419e+003, 1.070367e-002
1.500347e+003, 1.055964e-002
1.502276e+003, 1.064080e-002
1.504204e+003, 1.089707e-002
1.506132e+003, 1.105354e-002
1.508061e+003, 1.119643e-002
1.509989e+003, 1.127987e-002
1.511918e+003, 1.145728e-002
1.513846e+003, 1.175376e-002
1.515775e+003, 1.178392e-002
1.517703e+003, 1.181115e-002
1.519632e+003, 1.176936e-002
1.521560e+003, 1.199157e-002
1.523489e+003, 1.236171e-002
1.525417e+003, 1.262093e-002
1.527346e+003, 1.282445e-002
1.529274e+003, 1.285248e-002
1.531203e+003, 1.299248e-002
1.533131e+003, 1.338321e-002
1.535059e+003, 1.380542e-002
1.536988e+003, 1.434372e-002
1.538916e+003, 1.485787e-002
1.540845e+003, 1.514262e-002
1.542773e+003, 1.519169e-002
1.544702e+003, 1.536876e-002
1.546630e+003, 1.574506e-002
1.548559e+003, 1.601267e-002
1.550487e+003, 1.604508e-002
1.552416e+003, 1.621850e-002
1.554344e+003, 1.695366e-002
1.556273e+003, 1.763778e-002
1.558201e+003, 1.794963e-002
1.560130e+003, 1.815076e-002
1.562058e+003, 1.831839e-002
1.563986e+003, 1.842551e-002
1.565915e+003, 1.878962e-002
1.567843e+003, 1.920699e-002
1.569772e+003, 1.919119e-002
1.571700e+003, 1.934360e-002
1.573629e+003, 1.984451e-002
1.575557e+003, 2.004373e-002
1.577486e+003, 1.999136e-002
1.579414e+003, 1.990820e-002
1.581343e+003, 1.983009e-002
1.583271e+003, 2.004021e-002
1.585200e+003, 2.000979e-002
1.587128e+003, 1.932198e-002
1.589057e+003, 1.904364e-002
1.590985e+003, 1.933733e-002
1.592913e+003, 1.961401e-002
1.594842e+003, 1.966146e-002
1.596770e+003, 1.950907e-002
1.598699e+003, 1.933303e-002
1.600627e+003, 1.898520e-002
1.602556e+003, 1.877624e-002
1.604484e+003, 1.881216e-002
1.606413e+003, 1.863587e-002
1.608341e+003, 1.836268e-002
1.610270e+003, 1.857069e-002
1.612198e+003, 1.853479e-002
1.614127e+003, 1.823148e-002
1.616055e+003, 1.822155e-002
1.617984e+003, 1.831676e-002
1.619912e+003, 1.827986e-002
1.621840e+003, 1.855548e-002
1.623769e+003, 1.890645e-002
1.625697e+003, 1.929816e-002
1.627626e+003, 1.946590e-002
1.629554e+003, 1.970417e-002
1.631483e+003, 2.014293e-002
1.633411e+003, 2.028279e-002
1.635340e+003, 2.052077e-002
1.637268e+003, 2.129579e-002
1.639197e+003, 2.218953e-002
1.641125e+003, 2.297101e-002
1.643054e+003, 2.376554e-002
1.644982e+003, 2.444520e-002
1.646911e+003, 2.541247e-002
1.648839e+003, 2.654899e-002
1.650767e+003, 2.783752e-002
1.652696e+003, 2.955574e-002
1.654624e+003, 3.144646e-002
1.656553e+003, 3.314875e-002
1.658481e+003, 3.506109e-002
1.660410e+003, 3.735172e-002
1.662338e+003, 3.929394e-002
1.664267e+003, 4.114004e-002
1.666195e+003, 4.288397e-002
1.668124e+003, 4.428742e-002
1.670052e+003, 4.506275e-002
1.671981e+003, 4.523406e-002
1.673909e+003, 4.480708e-002
1.675838e+003, 4.401537e-002
1.677766e+003, 4.215362e-002
1.679694e+003, 3.944796e-002
1.681623e+003, 3.690264e-002
1.683551e+003, 3.483785e-002
1.685480e+003, 3.232518e-002
1.687408e+003, 3.007130e-002
1.689337e+003, 2.823089e-002
1.691265e+003, 2.568740e-002
1.693194e+003, 2.308927e-002
1.695122e+003, 2.121931e-002
1.697051e+003, 1.982955e-002
1.698979e+003, 1.878567e-002
1.700908e+003, 1.792457e-002
1.702836e+003, 1.691248e-002
1.704765e+003, 1.596747e-002
1.706693e+003, 1.528889e-002
1.708621e+003, 1.443954e-002
1.710550e+003, 1.346769e-002
1.712478e+003, 1.286766e-002
1.714407e+003, 1.237464e-002
1.716335e+003, 1.209326e-002
1.718264e+003, 1.182372e-002
1.720192e+003, 1.121063e-002
1.722121e+003, 1.071857e-002
1.724049e+003, 1.044169e-002
1.725978e+003, 1.025251e-002
1.727906e+003, 1.012045e-002
1.729835e+003, 9.820827e-003
1.731763e+003, 9.421220e-003
1.733692e+003, 8.823517e-003
1.735620e+003, 8.045556e-003
1.737548e+003, 7.403282e-003
1.739477e+003, 6.985683e-003
1.741405e+003, 6.652941e-003
1.743334e+003, 6.087749e-003
1.745262e+003, 6.094716e-003
1.747191e+003, 6.400890e-003
1.749119e+003, 6.937080e-003
1.751048e+003, 7.174754e-003
1.752976e+003, 7.456289e-003
1.754905e+003, 8.234515e-003
1.756833e+003, 8.857606e-003
1.758762e+003, 9.127603e-003
1.760690e+003, 9.963261e-003
1.762619e+003, 1.061008e-002
1.764547e+003, 1.069710e-002
1.766475e+003, 1.079267e-002
1.768404e+003, 1.103915e-002
1.770332e+003, 1.105786e-002
1.772261e+003, 1.071415e-002
1.774189e+003, 1.085762e-002
1.776118e+003, 1.083445e-002
1.778046e+003, 1.061974e-002
1.779975e+003, 1.062217e-002
1.781903e+003, 1.041302e-002
1.783832e+003, 9.822521e-003
1.785760e+003, 9.295325e-003
1.787689e+003, 9.280904e-003
1.789617e+003, 9.596430e-003
1.791546e+003, 9.546133e-003
1.793474e+003, 9.368736e-003
1.795402e+003, 9.087754e-003
1.797331e+003, 8.509628e-003
1.799259e+003, 8.183969e-003
1.801188e+003, 7.797817e-003
1.803116e+003, 7.799045e-003
1.805045e+003, 7.525698e-003
1.806973e+003, 7.304183e-003
1.808902e+003, 7.040153e-003
1.810830e+003, 6.891421e-003
1.812759e+003, 6.605121e-003
1.814687e+003, 6.521686e-003
1.816616e+003, 6.915744e-003
1.818544e+003, 6.983874e-003
1.820473e+003, 6.666319e-003
1.822401e+003, 6.834221e-003
1.824329e+003, 6.439873e-003
1.826258e+003, 5.848019e-003
1.828186e+003, 6.284466e-003
1.830115e+003, 7.157161e-003
1.832043e+003, 7.225897e-003
1.833972e+003, 7.187759e-003
1.835900e+003, 7.042489e-003
1.837829e+003, 6.165714e-003
1.839757e+003, 5.615196e-003
1.841686e+003, 6.231173e-003
1.843614e+003, 6.132799e-003
1.845543e+003, 5.263203e-003
1.847471e+003, 5.122128e-003
1.849400e+003, 5.002602e-003
1.851328e+003, 5.939855e-003
1.853256e+003, 6.391628e-003
1.855185e+003, 5.946098e-003
1.857113e+003, 5.537118e-003
1.859042e+003, 5.691238e-003
1.860970e+003, 5.938925e-003
1.862899e+003, 6.077037e-003
1.864827e+003, 6.507147e-003
1.866756e+003, 6.752034e-003
1.868684e+003, 5.899050e-003
1.870613e+003, 5.262456e-003
1.872541e+003, 5.630098e-003
1.874470e+003, 5.660788e-003
1.876398e+003, 5.356768e-003
1.878327e+003, 5.044652e-003
1.880255e+003, 4.981757e-003
1.882183e+003, 4.680410e-003
1.884112e+003, 4.398822e-003
1.886040e+003, 4.510581e-003
1.887969e+003, 4.787098e-003
1.889897e+003, 5.299942e-003
1.891826e+003, 5.626605e-003
1.893754e+003, 4.952753e-003
1.895683e+003, 5.657238e-003
1.897611e+003, 5.818368e-003
1.899540e+003, 5.058815e-003
1.901468e+003, 5.891363e-003
1.903397e+003, 6.273137e-003
1.905325e+003, 5.943562e-003
1.907254e+003, 6.295081e-003
1.909182e+003, 7.096811e-003
1.911110e+003, 7.317899e-003
1.913039e+003, 7.299066e-003
1.914967e+003, 6.726306e-003
1.916896e+003, 5.731672e-003
1.918824e+003, 4.976168e-003
1.920753e+003, 5.084574e-003
1.922681e+003, 5.033277e-003
1.924610e+003, 4.784371e-003
1.926538e+003, 4.936069e-003
1.928467e+003, 4.335685e-003
1.930395e+003, 4.052869e-003
1.932324e+003, 4.657838e-003
1.934252e+003, 5.448713e-003
1.936181e+003, 6.663460e-003
1.938109e+003, 6.076877e-003
1.940037e+003, 5.248488e-003
1.941966e+003, 5.491685e-003
1.943894e+003, 5.921881e-003
1.945823e+003, 6.225758e-003
1.947751e+003, 6.120046e-003
1.949680e+003, 5.723939e-003
1.951608e+003, 6.144085e-003
1.953537e+003, 5.979807e-003
1.955465e+003, 6.684179e-003
1.957394e+003, 6.345236e-003
1.959322e+003, 4.028278e-003
1.961251e+003, 3.179363e-003
1.963179e+003, 3.910537e-003
1.965108e+003, 3.264633e-003
1.967036e+003, 4.725783e-003
1.968964e+003, 6.236775e-003
1.970893e+003, 7.143711e-003
1.972821e+003, 7.317154e-003
1.974750e+003, 5.676338e-003
1.976678e+003, 4.173668e-003
1.978607e+003, 5.033469e-003
1.980535e+003, 5.529356e-003
1.982464e+003, 4.903549e-003
1.984392e+003, 2.642303e-003
1.986321e+003, 1.402996e-003
1.988249e+003, 1.737916e-003
1.990178e+003, 2.508467e-003
1.992106e+003, 4.418520e-003
1.994035e+003, 4.710528e-003
1.995963e+003, 4.314609e-003
1.997891e+003, 4.742602e-003
1.999820e+003, 6.937046e-003
2.001748e+003, 5.986724e-003
2.003677e+003, 2.674041e-003
2.005605e+003, 3.231255e-003
2.007534e+003, 4.804417e-003
2.009462e+003, 5.420964e-003
2.011391e+003, 7.088978e-003
2.013319e+003, 6.738936e-003
2.015248e+003, 6.163931e-003
2.017176e+003, 6.467455e-003
2.019105e+003, 6.499856e-003
2.021033e+003, 6.532914e-003
2.022962e+003, 6.546306e-003
2.024890e+003, 5.725039e-003
2.026818e+003, 6.695401e-003
2.028747e+003, 9.238122e-003
2.030675e+003, 8.843658e-003
2.032604e+003, 5.237769e-003
2.034532e+003, 4.482877e-003
2.036461e+003, 6.029598e-003
2.038389e+003, 6.846400e-003
2.040318e+003, 4.742037e-003
2.042246e+003, 3.006770e-003
2.044175e+003, 6.462999e-003
2.046103e+003, 7.311659e-003
2.048032e+003, 7.645249e-003
2.049960e+003, 7.858550e-003
2.051889e+003, 7.096076e-003
2.053817e+003, 5.853471e-003
2.055746e+003, 4.996305e-003
2.057674e+003, 4.739468e-003
2.059603e+003, 6.974940e-003
2.061531e+003, 9.743589e-003
2.063459e+003, 1.053775e-002
2.065388e+003, 9.341281e-003
2.067316e+003, 8.958813e-003
2.069245e+003, 8.519579e-003
2.071173e+003, 8.333072e-003
2.073102e+003, 7.369008e-003
2.075030e+003, 7.519088e-003
2.076959e+003, 8.099666e-003
2.078887e+003, 8.117334e-003
2.080816e+003, 8.929017e-003
2.082744e+003, 9.838268e-003
2.084673e+003, 9.599101e-003
2.086601e+003, 9.145878e-003
2.088530e+003, 7.491248e-003
2.090458e+003, 4.750501e-003
2.092386e+003, 4.744917e-003
2.094315e+003, 6.094701e-003
2.096243e+003, 6.429434e-003
2.098172e+003, 7.477538e-003
2.100100e+003, 6.804270e-003
2.102029e+003, 6.256692e-003
2.103957e+003, 6.746534e-003
2.105886e+003, 6.155910e-003
2.107814e+003, 6.001038e-003
2.109743e+003, 6.127704e-003
2.111671e+003, 6.792839e-003
2.113600e+003, 6.506224e-003
2.115528e+003, 5.923026e-003
2.117457e+003, 5.114116e-003
2.119385e+003, 4.763436e-003
2.121313e+003, 4.648658e-003
2.123242e+003, 4.467578e-003
2.125170e+003, 5.234646e-003
2.127099e+003, 4.893494e-003
2.129027e+003, 3.263016e-003
2.130956e+003, 1.917982e-003
2.132884e+003, 1.547646e-003
2.134813e+003, 1.610973e-003
2.136741e+003, 1.265968e-003
2.138670e+003, 1.188349e-003
2.140598e+003, 1.093623e-003
2.142527e+003, 3.915953e-004
2.144455e+003, -1.019216e-003
2.146384e+003, -1.587361e-003
2.148312e+003, -1.491641e-003
2.150240e+003, -1.146929e-003
2.152169e+003, -6.152745e-004
2.154097e+003, -2.405419e-003
2.156026e+003, -5.193816e-003
2.157954e+003, -4.156390e-003
2.159883e+003, -2.525927e-004
2.161811e+003, 1.040924e-003
2.163740e+003, 4.992623e-004
2.165668e+003, -6.346231e-004
2.167597e+003, -3.962979e-004
2.169525e+003, 1.054930e-003
2.171454e+003, 5.110485e-004
2.173382e+003, -1.894470e-004
2.175311e+003, -1.349903e-004
2.177239e+003, -1.156502e-003
2.179167e+003, -7.911763e-004
2.181096e+003, -6.246999e-004
2.183024e+003, -1.028949e-003
2.184953e+003, -7.369978e-004
2.186881e+003, 9.348344e-004
2.188810e+003, 1.358041e-003
2.190738e+003, -8.011069e-004
2.192667e+003, 8.767308e-004
2.194595e+003, 2.046746e-003
2.196524e+003, 2.920092e-003
2.198452e+003, 2.731532e-003
2.200381e+003, 1.020030e-004
2.202309e+003, -6.678199e-004
2.204238e+003, -4.868025e-004
2.206166e+003, -6.865209e-004
2.208094e+003, 1.542402e-004
2.210023e+003, 2.012922e-003
2.211951e+003, 2.345972e-003
2.213880e+003, 2.061277e-003
2.215808e+003, 2.463852e-003
2.217737e+003, 3.374862e-003
2.219665e+003, 2.908439e-003
2.221594e+003, 2.629261e-003
2.223522e+003, 2.705496e-003
2.225451e+003, 3.387710e-003
2.227379e+003, 3.510485e-003
2.229308e+003, 3.137216e-003
2.231236e+003, 3.419961e-003
2.233165e+003, 4.077253e-003
2.235093e+003, 3.268254e-003
2.237021e+003, 2.044198e-003
2.238950e+003, 1.739423e-003
2.240878e+003, 2.937873e-003
2.242807e+003, 3.517049e-003
2.244735e+003, 2.826856e-003
2.246664e+003, 2.169613e-003
2.248592e+003, 2.871466e-003
2.250521e+003, 2.613026e-003
2.252449e+003, 2.476686e-003
2.254378e+003, 2.864845e-003
2.256306e+003, 4.716837e-003
2.258235e+003, 5.623962e-003
2.260163e+003, 3.689935e-003
2.262092e+003, 2.710711e-003
2.264020e+003, 2.726487e-003
2.265948e+003, 4.344773e-003
2.267877e+003, 6.239158e-003
2.269805e+003, 6.250063e-003
2.271734e+003, 5.877148e-003
2.273662e+003, 6.205416e-003
2.275591e+003, 6.705204e-003
2.277519e+003, 7.078533e-003
2.279448e+003, 8.016819e-003
2.281376e+003, 8.413013e-003
2.283305e+003, 8.143118e-003
2.285233e+003, 8.041517e-003
2.287162e+003, 8.002999e-003
2.289090e+003, 8.130639e-003
2.291019e+003, 7.835072e-003
2.292947e+003, 6.284961e-003
2.294875e+003, 6.033326e-003
2.296804e+003, 6.341254e-003
2.298732e+003, 6.667879e-003
2.300661e+003, 6.888831e-003
2.302589e+003, 6.547662e-003
2.304518e+003, 7.221971e-003
2.306446e+003, 7.813968e-003
2.308375e+003, 7.399013e-003
2.310303e+003, 7.280582e-003
2.312232e+003, 7.168362e-003
2.314160e+003, 7.086769e-003
2.316089e+003, 7.609454e-003
2.318017e+003, 8.304318e-003
2.319946e+003, 8.455476e-003
2.321874e+003, 8.564297e-003
2.323802e+003, 9.092911e-003
2.325731e+003, 8.583575e-003
2.327659e+003, 8.275254e-003
2.329588e+003, 8.836440e-003
2.331516e+003, 9.173376e-003
2.333445e+003, 8.665070e-003
2.335373e+003, 8.241125e-003
2.337302e+003, 8.588476e-003
2.339230e+003, 8.906636e-003
2.341159e+003, 9.119341e-003
2.343087e+003, 9.154584e-003
2.345016e+003, 8.439352e-003
2.346944e+003, 7.671339e-003
2.348873e+003, 8.278876e-003
2.350801e+003, 8.872667e-003
2.352729e+003, 8.695483e-003
2.354658e+003, 8.806561e-003
2.356586e+003, 9.487380e-003
2.358515e+003, 1.040845e-002
2.360443e+003, 9.933139e-003
2.362372e+003, 9.880160e-003
2.364300e+003, 9.628742e-003
2.366229e+003, 8.577755e-003
2.368157e+003, 8.443518e-003
2.370086e+003, 8.276059e-003
2.372014e+003, 7.948977e-003
2.373942e+003, 8.710183e-003
2.375871e+003, 9.422485e-003
2.377799e+003, 8.892633e-003
2.379728e+003, 8.017577e-003
2.381656e+003, 7.467207e-003
2.383585e+003, 7.975097e-003
2.385513e+003, 9.582456e-003
2.387442e+003, 1.017009e-002
2.389370e+003, 9.972692e-003
2.391299e+003, 9.361178e-003
2.393227e+003, 9.388571e-003
2.395156e+003, 9.423284e-003
2.397084e+003, 8.747274e-003
2.399012e+003, 8.488054e-003
2.400941e+003, 8.135066e-003
2.402869e+003, 7.830796e-003
2.404798e+003, 8.707848e-003
2.406726e+003, 9.057766e-003
2.408655e+003, 8.310176e-003
2.410583e+003, 8.416667e-003
2.412512e+003, 9.100342e-003
2.414440e+003, 9.271285e-003
2.416369e+003, 8.912035e-003
2.418297e+003, 8.437864e-003
2.420226e+003, 9.306203e-003
2.422154e+003, 9.430139e-003
2.424083e+003, 8.611982e-003
2.426011e+003, 7.820854e-003
2.427939e+003, 8.298057e-003
2.429868e+003, 9.211943e-003
2.431796e+003, 8.165232e-003
2.433725e+003, 7.539085e-003
2.435653e+003, 7.943491e-003
2.437582e+003, 7.842451e-003
2.439510e+003, 8.136719e-003
2.441439e+003, 8.759283e-003
2.443367e+003, 8.752244e-003
2.445296e+003, 9.282364e-003
2.447224e+003, 9.425560e-003
2.449153e+003, 8.737048e-003
2.451081e+003, 9.552513e-003
2.453010e+003, 9.707329e-003
2.454938e+003, 9.184485e-003
2.456866e+003, 9.250410e-003
2.458795e+003, 8.446625e-003
2.460723e+003, 7.839532e-003
2.462652e+003, 7.804906e-003
2.464580e+003, 7.512292e-003
2.466509e+003, 8.214087e-003
2.468437e+003, 8.649091e-003
2.470366e+003, 7.976707e-003
2.472294e+003, 7.367284e-003
2.474223e+003, 8.418811e-003
2.476151e+003, 9.587633e-003
2.478080e+003, 9.990919e-003
2.480008e+003, 9.504160e-003
2.481937e+003, 8.678069e-003
2.483865e+003, 8.640012e-003
2.485793e+003, 7.774462e-003
2.487722e+003, 7.340472e-003
2.489650e+003, 7.907591e-003
2.491579e+003, 9.039400e-003
2.493507e+003, 9.859171e-003
2.495436e+003, 9.205485e-003
2.497364e+003, 8.927141e-003
2.499293e+003, 9.043170e-003
2.501221e+003, 1.011115e-002
2.503150e+003, 1.031185e-002
2.505078e+003, 9.486523e-003
2.507007e+003, 8.079872e-003
2.508935e+003, 8.199826e-003
2.510864e+003, 9.758554e-003
2.512792e+003, 8.961639e-003
2.514720e+003, 9.217130e-003
2.516649e+003, 1.076925e-002
2.518577e+003, 1.038855e-002
2.520506e+003, 9.542504e-003
2.522434e+003, 9.353297e-003
2.524363e+003, 9.536773e-003
2.526291e+003, 9.204335e-003
2.528220e+003, 9.324310e-003
2.530148e+003, 9.958870e-003
2.532077e+003, 1.022081e-002
2.534005e+003, 1.011682e-002
2.535934e+003, 1.038354e-002
2.537862e+003, 1.106224e-002
2.539791e+003, 1.019301e-002
2.541719e+003, 1.014567e-002
2.543647e+003, 1.021801e-002
2.545576e+003, 9.481045e-003
2.547504e+003, 9.023993e-003
2.549433e+003, 1.015225e-002
2.551361e+003, 1.161440e-002
2.553290e+003, 1.108856e-002
2.555218e+003, 9.569392e-003
2.557147e+003, 8.367723e-003
2.559075e+003, 9.102083e-003
2.561004e+003, 8.900551e-003
2.562932e+003, 9.035493e-003
2.564861e+003, 9.103210e-003
2.566789e+003, 9.181311e-003
2.568718e+003, 1.050265e-002
2.570646e+003, 1.110380e-002
2.572574e+003, 1.070843e-002
2.574503e+003, 1.024468e-002
2.576431e+003, 9.089023e-003
2.578360e+003, 8.135133e-003
2.580288e+003, 8.569826e-003
2.582217e+003, 9.981312e-003
2.584145e+003, 1.037637e-002
2.586074e+003, 1.037815e-002
2.588002e+003, 1.078563e-002
2.589931e+003, 9.921001e-003
2.591859e+003, 8.452498e-003
2.593788e+003, 7.709510e-003
2.595716e+003, 9.476359e-003
2.597645e+003, 1.099694e-002
2.599573e+003, 1.010176e-002
2.601501e+003, 9.558590e-003
2.603430e+003, 9.997515e-003
2.605358e+003, 1.070763e-002
2.607287e+003, 1.063262e-002
2.609215e+003, 1.024234e-002
2.611144e+003, 9.538527e-003
2.613072e+003, 9.252500e-003
2.615001e+003, 9.592112e-003
2.616929e+003, 9.279270e-003
2.618858e+003, 9.323291e-003
2.620786e+003, 1.090727e-002
2.622715e+003, 1.082958e-002
2.624643e+003, 1.047544e-002
2.626572e+003, 1.100472e-002
2.628500e+003, 1.111771e-002
2.630428e+003, 1.049422e-002
2.632357e+003, 1.011441e-002
2.634285e+003, 1.032807e-002
2.636214e+003, 1.064831e-002
2.638142e+003, 1.036771e-002
2.640071e+003, 1.066892e-002
2.641999e+003, 1.168223e-002
2.643928e+003, 1.222242e-002
2.645856e+003, 1.204519e-002
2.647785e+003, 1.129922e-002
2.649713e+003, 1.037394e-002
2.651642e+003, 1.049258e-002
2.653570e+003, 1.151909e-002
2.655499e+003, 1.153439e-002
2.657427e+003, 1.094100e-002
2.659355e+003, 1.099538e-002
2.661284e+003, 1.060566e-002
2.663212e+003, 1.004540e-002
2.665141e+003, 9.952732e-003
2.667069e+003, 9.800395e-003
2.668998e+003, 1.026536e-002
2.670926e+003, 1.112023e-002
2.672855e+003, 1.073499e-002
2.674783e+003, 1.079712e-002
2.676712e+003, 1.041485e-002
2.678640e+003, 9.854012e-003
2.680569e+003, 1.011955e-002
2.682497e+003, 1.010406e-002
2.684426e+003, 1.078065e-002
2.686354e+003, 1.181991e-002
2.688282e+003, 1.127065e-002
2.690211e+003, 1.084653e-002
2.692139e+003, 1.083846e-002
2.694068e+003, 1.078677e-002
2.695996e+003, 1.091269e-002
2.697925e+003, 1.148710e-002
2.699853e+003, 1.171078e-002
2.701782e+003, 1.158199e-002
2.703710e+003, 1.057880e-002
2.705639e+003, 1.116320e-002
2.707567e+003, 1.187349e-002
2.709496e+003, 1.113037e-002
2.711424e+003, 1.167018e-002
2.713353e+003, 1.269103e-002
2.715281e+003, 1.291196e-002
2.717209e+003, 1.249713e-002
2.719138e+003, 1.216725e-002
2.721066e+003, 1.267880e-002
2.722995e+003, 1.245651e-002
2.724923e+003, 1.166014e-002
2.726852e+003, 1.135883e-002
2.728780e+003, 1.157704e-002
2.730709e+003, 1.149421e-002
2.732637e+003, 1.119442e-002
2.734566e+003, 1.095002e-002
2.736494e+003, 1.140415e-002
2.738423e+003, 1.195054e-002
2.740351e+003, 1.221984e-002
2.742280e+003, 1.183141e-002
2.744208e+003, 1.143204e-002
2.746136e+003, 1.151993e-002
2.748065e+003, 1.141355e-002
2.749993e+003, 1.282945e-002
2.751922e+003, 1.406337e-002
2.753850e+003, 1.422441e-002
2.755779e+003, 1.394654e-002
2.757707e+003, 1.378610e-002
2.759636e+003, 1.340928e-002
2.761564e+003, 1.371352e-002
2.763493e+003, 1.437782e-002
2.765421e+003, 1.428019e-002
2.767350e+003, 1.402978e-002
2.769278e+003, 1.344645e-002
2.771207e+003, 1.357264e-002
2.773135e+003, 1.387290e-002
2.775063e+003, 1.428889e-002
2.776992e+003, 1.343904e-002
2.778920e+003, 1.335721e-002
2.780849e+003, 1.456394e-002
2.782777e+003, 1.485278e-002
2.784706e+003, 1.549314e-002
2.786634e+003, 1.619450e-002
2.788563e+003, 1.633361e-002
2.790491e+003, 1.577080e-002
2.792420e+003, 1.539820e-002
2.794348e+003, 1.524984e-002
2.796277e+003, 1.425671e-002
2.798205e+003, 1.385597e-002
2.800134e+003, 1.546902e-002
2.802062e+003, 1.692019e-002
2.803990e+003, 1.636428e-002
2.805919e+003, 1.626585e-002
2.807847e+003, 1.693747e-002
2.809776e+003, 1.648026e-002
2.811704e+003, 1.634048e-002
2.813633e+003, 1.787446e-002
2.815561e+003, 1.785115e-002
2.817490e+003, 1.627915e-002
2.819418e+003, 1.686395e-002
2.821347e+003, 1.796309e-002
2.823275e+003, 1.816332e-002
2.825204e+003, 1.856032e-002
2.827132e+003, 1.847219e-002
2.829061e+003, 1.818932e-002
2.830989e+003, 1.807529e-002
2.832917e+003, 1.812333e-002
2.834846e+003, 1.699992e-002
2.836774e+003, 1.607563e-002
2.838703e+003, 1.656660e-002
2.840631e+003, 1.651325e-002
2.842560e+003, 1.698333e-002
2.844488e+003, 1.833331e-002
2.846417e+003, 1.846156e-002
2.848345e+003, 1.781258e-002
2.850274e+003, 1.731864e-002
2.852202e+003, 1.854616e-002
2.854131e+003, 2.010139e-002
2.856059e+003, 2.030343e-002
2.857988e+003, 2.009948e-002
2.859916e+003, 1.970286e-002
2.861844e+003, 2.145695e-002
2.863773e+003, 2.278121e-002
2.865701e+003, 2.207525e-002
2.867630e+003, 2.115685e-002
2.869558e+003, 2.002815e-002
2.871487e+003, 2.093226e-002
2.873415e+003, 2.186404e-002
2.875344e+003, 2.227096e-002
2.877272e+003, 2.346942e-002
2.879201e+003, 2.409497e-002
2.881129e+003, 2.405385e-002
2.883058e+003, 2.260891e-002
2.884986e+003, 2.267881e-002
2.886915e+003, 2.336577e-002
2.888843e+003, 2.396298e-002
2.890771e+003, 2.411054e-002
2.892700e+003, 2.366920e-002
2.894628e+003, 2.418409e-002
2.896557e+003, 2.524372e-002
2.898485e+003, 2.711230e-002
2.900414e+003, 2.770728e-002
2.902342e+003, 2.577490e-002
2.904271e+003, 2.436585e-002
2.906199e+003, 2.488916e-002
2.908128e+003, 2.583114e-002
2.910056e+003, 2.575033e-002
2.911985e+003, 2.619467e-002
2.913913e+003, 2.684751e-002
2.915842e+003, 2.686815e-002
2.917770e+003, 2.729951e-002
2.919698e+003, 2.851257e-002
2.921627e+003, 2.886507e-002
2.923555e+003, 2.819837e-002
2.925484e+003, 2.860778e-002
2.927412e+003, 2.815215e-002
2.929341e+003, 2.924859e-002
2.931269e+003, 3.167831e-002
2.933198e+003, 3.318271e-002
2.935126e+003, 3.256144e-002
2.937055e+003, 3.224453e-002
2.938983e+003, 3.279381e-002
2.940912e+003, 3.360479e-002
2.942840e+003, 3.337390e-002
2.944769e+003, 3.260038e-002
2.946697e+003, 3.096006e-002
2.948625e+003, 3.147420e-002
2.950554e+003, 3.127748e-002
2.952482e+003, 3.071527e-002
2.954411e+003, 3.178976e-002
2.956339e+003, 3.418614e-002
2.958268e+003, 3.600560e-002
2.960196e+003, 3.538556e-002
2.962125e+003, 3.504883e-002
2.964053e+003, 3.609604e-002
2.965982e+003, 3.638277e-002
2.967910e+003, 3.555384e-002
2.969839e+003, 3.714609e-002
2.971767e+003, 3.776757e-002
2.973696e+003, 3.776777e-002
2.975624e+003, 3.955399e-002
2.977552e+003, 4.025478e-002
2.979481e+003, 4.069727e-002
2.981409e+003, 4.138220e-002
2.983338e+003, 4.170066e-002
2.985266e+003, 4.185376e-002
2.987195e+003, 4.136409e-002
2.989123e+003, 4.193653e-002
2.991052e+003, 4.278482e-002
2.992980e+003, 4.282799e-002
2.994909e+003, 4.272104e-002
2.996837e+003, 4.440169e-002
2.998766e+003, 4.531274e-002
3.000694e+003, 4.520479e-002
3.002623e+003, 4.676998e-002
3.004551e+003, 4.734876e-002
3.006479e+003, 4.787070e-002
3.008408e+003, 4.961818e-002
3.010336e+003, 5.061792e-002
3.012265e+003, 4.979203e-002
3.014193e+003, 4.827450e-002
3.016122e+003, 4.887942e-002
3.018050e+003, 5.166870e-002
3.019979e+003, 5.360581e-002
3.021907e+003, 5.448217e-002
3.023836e+003, 5.393314e-002
3.025764e+003, 5.282213e-002
3.027693e+003, 5.384623e-002
3.029621e+003, 5.579646e-002
3.031550e+003, 5.531062e-002
3.033478e+003, 5.582779e-002
3.035406e+003, 5.766749e-002
3.037335e+003, 5.811798e-002
3.039263e+003, 5.986413e-002
3.041192e+003, 6.129835e-002
3.043120e+003, 6.270172e-002
3.045049e+003, 6.365852e-002
3.046977e+003, 6.356280e-002
3.048906e+003, 6.428978e-002
3.050834e+003, 6.589009e-002
3.052763e+003, 6.590479e-002
3.054691e+003, 6.652357e-002
3.056620e+003, 6.827989e-002
3.058548e+003, 6.887642e-002
3.060477e+003, 6.950297e-002
3.062405e+003, 7.071925e-002
3.064333e+003, 7.204091e-002
3.066262e+003, 7.320888e-002
3.068190e+003, 7.494188e-002
3.070119e+003, 7.547078e-002
3.072047e+003, 7.514290e-002
3.073976e+003, 7.652894e-002
3.075904e+003, 7.812513e-002
3.077833e+003, 8.048464e-002
3.079761e+003, 8.204399e-002
3.081690e+003, 8.256319e-002
3.083618e+003, 8.385134e-002
3.085547e+003, 8.635014e-002
3.087475e+003, 8.806290e-002
3.089404e+003, 8.867587e-002
3.091332e+003, 8.823220e-002
3.093260e+003, 9.106123e-002
3.095189e+003, 9.295921e-002
3.097117e+003, 9.382961e-002
3.099046e+003, 9.499181e-002
3.100974e+003, 9.642481e-002
3.102903e+003, 9.665873e-002
3.104831e+003, 9.637056e-002
3.106760e+003, 9.796833e-002
3.108688e+003, 9.992655e-002
3.110617e+003, 1.016917e-001
3.112545e+003, 1.036268e-001
3.114474e+003, 1.053659e-001
3.116402e+003, 1.070640e-001
3.118331e+003, 1.084988e-001
3.120259e+003, 1.089946e-001
3.122188e+003, 1.107398e-001
3.124116e+003, 1.132351e-001
3.126044e+003, 1.156783e-001
3.127973e+003, 1.161281e-001
3.129901e+003, 1.185610e-001
3.131830e+003, 1.220253e-001
3.133758e+003, 1.232969e-001
3.135687e+003, 1.261133e-001
3.137615e+003, 1.291205e-001
3.139544e+003, 1.311901e-001
3.141472e+003, 1.333756e-001
3.143401e+003, 1.332918e-001
3.145329e+003, 1.353077e-001
3.147258e+003, 1.386138e-001
3.149186e+003, 1.395821e-001
3.151115e+003, 1.409753e-001
3.153043e+003, 1.446004e-001
3.154971e+003, 1.467001e-001
3.156900e+003, 1.465163e-001
3.158828e+003, 1.466261e-001
3.160757e+003, 1.487979e-001
3.162685e+003, 1.503302e-001
3.164614e+003, 1.518491e-001
3.166542e+003, 1.520810e-001
3.168471e+003, 1.520897e-001
3.170399e+003, 1.523026e-001
3.172328e+003, 1.530337e-001
3.174256e+003, 1.526263e-001
3.176185e+003, 1.507332e-001
3.178113e+003, 1.507677e-001
3.180042e+003, 1.504679e-001
3.181970e+003, 1.482501e-001
3.183898e+003, 1.471803e-001
3.185827e+003, 1.477294e-001
3.187755e+003, 1.456867e-001
3.189684e+003, 1.410594e-001
3.191612e+003, 1.393027e-001
3.193541e+003, 1.385273e-001
3.195469e+003, 1.356931e-001
3.197398e+003, 1.332622e-001
3.199326e+003, 1.322495e-001
3.201255e+003, 1.312456e-001
3.203183e+003, 1.299362e-001
3.205112e+003, 1.283778e-001
3.207040e+003, 1.269454e-001
3.208969e+003, 1.263269e-001
3.210897e+003, 1.256418e-001
3.212825e+003, 1.237114e-001
3.214754e+003, 1.206446e-001
3.216682e+003, 1.185418e-001
3.218611e+003, 1.184059e-001
3.220539e+003, 1.182758e-001
3.222468e+003, 1.180885e-001
3.224396e+003, 1.177451e-001
3.226325e+003, 1.162666e-001
3.228253e+003, 1.145033e-001
3.230182e+003, 1.124870e-001
3.232110e+003, 1.108308e-001
3.234039e+003, 1.095893e-001
3.235967e+003, 1.090591e-001
3.237896e+003, 1.088669e-001
3.239824e+003, 1.080634e-001
3.241752e+003, 1.092407e-001
3.243681e+003, 1.073205e-001
3.245609e+003, 1.045718e-001
3.247538e+003, 1.046892e-001
3.249466e+003, 1.055632e-001
3.251395e+003, 1.031679e-001
3.253323e+003, 1.029368e-001
3.255252e+003, 1.036022e-001
3.257180e+003, 1.024625e-001
3.259109e+003, 1.026347e-001
3.261037e+003, 1.054843e-001
3.262966e+003, 1.058311e-001
3.264894e+003, 1.043985e-001
3.266823e+003, 1.041992e-001
3.268751e+003, 1.043747e-001
3.270679e+003, 1.028313e-001
3.272608e+003, 1.031594e-001
3.274536e+003, 1.045984e-001
3.276465e+003, 1.030703e-001
3.278393e+003, 1.032407e-001
3.280322e+003, 1.045817e-001
3.282250e+003, 1.038196e-001
3.284179e+003, 1.036228e-001
3.286107e+003, 1.036266e-001
3.288036e+003, 1.037427e-001
3.289964e+003, 1.023519e-001
3.291893e+003, 1.005163e-001
3.293821e+003, 9.968692e-002
3.295750e+003, 1.018454e-001
3.297678e+003, 1.036447e-001
3.299606e+003, 1.029582e-001
3.301535e+003, 1.005846e-001
3.303463e+003, 1.005491e-001
3.305392e+003, 1.019306e-001
3.307320e+003, 1.005129e-001
3.309249e+003, 1.011361e-001
3.311177e+003, 1.034127e-001
3.313106e+003, 1.041624e-001
3.315034e+003, 1.043041e-001
3.316963e+003, 1.054653e-001
3.318891e+003, 1.045424e-001
3.320820e+003, 1.041577e-001
3.322748e+003, 1.044385e-001
3.324677e+003, 1.042318e-001
3.326605e+003, 1.026827e-001
3.328533e+003, 1.015062e-001
3.330462e+003, 1.027176e-001
3.332390e+003, 1.026350e-001
3.334319e+003, 1.023210e-001
3.336247e+003, 1.027849e-001
3.338176e+003, 1.033121e-001
3.340104e+003, 1.031355e-001
3.342033e+003, 1.023160e-001
3.343961e+003, 1.005790e-001
3.345890e+003, 1.033621e-001
3.347818e+003, 1.048034e-001
3.349747e+003, 1.033115e-001
3.351675e+003, 1.021798e-001
3.353604e+003, 1.000964e-001
3.355532e+003, 9.974378e-002
3.357460e+003, 1.015656e-001
3.359389e+003, 1.005659e-001
3.361317e+003, 9.784226e-002
3.363246e+003, 9.725911e-002
3.365174e+003, 9.890977e-002
3.367103e+003, 9.944607e-002
3.369031e+003, 9.988854e-002
3.370960e+003, 1.001649e-001
3.372888e+003, 9.897005e-002
3.374817e+003, 9.766531e-002
3.376745e+003, 9.611214e-002
3.378674e+003, 9.487928e-002
3.380602e+003, 9.539738e-002
3.382531e+003, 9.494849e-002
3.384459e+003, 9.422632e-002
3.386387e+003, 9.259260e-002
3.388316e+003, 9.303395e-002
3.390244e+003, 9.658489e-002
3.392173e+003, 9.708119e-002
3.394101e+003, 9.674508e-002
3.396030e+003, 9.765041e-002
3.397958e+003, 9.740479e-002
3.399887e+003, 9.414198e-002
3.401815e+003, 9.059352e-002
3.403744e+003, 8.905198e-002
3.405672e+003, 8.954188e-002
3.407601e+003, 9.201355e-002
3.409529e+003, 9.380874e-002
3.411458e+003, 9.162845e-002
3.413386e+003, 9.153432e-002
3.415314e+003, 9.177659e-002
3.417243e+003, 9.098102e-002
3.419171e+003, 9.030994e-002
3.421100e+003, 8.858727e-002
3.423028e+003, 8.794996e-002
3.424957e+003, 8.839989e-002
3.426885e+003, 8.750127e-002
3.428814e+003, 8.900892e-002
3.430742e+003, 9.040561e-002
3.432671e+003, 8.768205e-002
3.434599e+003, 8.761255e-002
3.436528e+003, 8.649656e-002
3.438456e+003, 8.507559e-002
3.440385e+003, 8.630762e-002
3.442313e+003, 8.615360e-002
3.444241e+003, 8.358517e-002
3.446170e+003, 8.294953e-002
3.448098e+003, 8.296431e-002
3.450027e+003, 8.193322e-002
3.451955e+003, 8.115450e-002
3.453884e+003, 8.108351e-002
3.455812e+003, 7.795314e-002
3.457741e+003, 7.737047e-002
3.459669e+003, 7.635961e-002
3.461598e+003, 7.505205e-002
3.463526e+003, 7.610489e-002
3.465455e+003, 7.601053e-002
3.467383e+003, 7.408322e-002
3.469312e+003, 7.364248e-002
3.471240e+003, 7.357942e-002
3.473168e+003, 7.245348e-002
3.475097e+003, 7.037450e-002
3.477025e+003, 6.901291e-002
3.478954e+003, 6.799468e-002
3.480882e+003, 6.568464e-002
3.482811e+003, 6.444907e-002
3.484739e+003, 6.494702e-002
3.486668e+003, 6.315239e-002
3.488596e+003, 6.041044e-002
3.490525e+003, 5.995754e-002
3.492453e+003, 5.974521e-002
3.494382e+003, 5.757200e-002
3.496310e+003, 5.608710e-002
3.498239e+003, 5.646650e-002
3.500167e+003, 5.523491e-002
3.502095e+003, 5.222373e-002
3.504024e+003, 5.067719e-002
3.505952e+003, 5.184886e-002
3.507881e+003, 5.041325e-002
3.509809e+003, 4.768927e-002
3.511738e+003, 4.719031e-002
3.513666e+003, 4.793400e-002
3.515595e+003, 4.748738e-002
3.517523e+003, 4.550784e-002
3.519452e+003, 4.529818e-002
3.521380e+003, 4.338200e-002
3.523309e+003, 4.162847e-002
3.525237e+003, 4.268743e-002
3.527166e+003, 4.377397e-002
3.529094e+003, 4.217176e-002
3.531022e+003, 4.018475e-002
3.532951e+003, 3.820024e-002
3.534879e+003, 3.633906e-002
3.536808e+003, 3.364890e-002
3.538736e+003, 3.405069e-002
3.540665e+003, 3.330107e-002
3.542593e+003, 2.988096e-002
3.544522e+003, 2.872714e-002
3.546450e+003, 3.033074e-002
3.548379e+003, 3.014388e-002
3.550307e+003, 2.872693e-002
3.552236e+003, 2.661626e-002
3.554164e+003, 2.304563e-002
3.556093e+003, 2.124654e-002
3.558021e+003, 2.309840e-002
3.559949e+003, 2.522911e-002
3.561878e+003, 2.573230e-002
3.563806e+003, 2.398913e-002
3.565735e+003, 2.241027e-002
3.567663e+003, 2.097953e-002
3.569592e+003, 1.975964e-002
3.571520e+003, 1.989760e-002
3.573449e+003, 2.018446e-002
3.575377e+003, 2.070238e-002
3.577306e+003, 1.926484e-002
3.579234e+003, 1.604067e-002
3.581163e+003, 1.362848e-002
3.583091e+003, 1.343893e-002
3.585020e+003, 1.403817e-002
3.586948e+003, 1.758049e-002
3.588876e+003, 1.815059e-002
3.590805e+003, 1.633213e-002
3.592733e+003, 1.382275e-002
3.594662e+003, 1.083888e-002
3.596590e+003, 1.115492e-002
3.598519e+003, 1.142476e-002
3.600447e+003, 1.020272e-002
3.602376e+003, 1.153380e-002
3.604304e+003, 1.235804e-002
3.606233e+003, 9.869522e-003
3.608161e+003, 8.721705e-003
3.610090e+003, 1.035261e-002
3.612018e+003, 1.135634e-002
3.613947e+003, 1.397275e-002
3.615875e+003, 1.273612e-002
3.617803e+003, 1.074269e-002
3.619732e+003, 8.656569e-003
3.621660e+003, 9.299495e-003
3.623589e+003, 1.154342e-002
3.625517e+003, 1.356801e-002
3.627446e+003, 1.282571e-002
3.629374e+003, 1.049132e-002
3.631303e+003, 1.010584e-002
3.633231e+003, 8.034964e-003
3.635160e+003, 5.093502e-003
3.637088e+003, 7.773767e-003
3.639017e+003, 7.870101e-003
3.640945e+003, 6.070501e-003
3.642874e+003, 1.002750e-002
3.644802e+003, 1.190823e-002
3.646730e+003, 1.112668e-002
3.648659e+003, 9.297679e-003
3.650587e+003, 9.640631e-003
3.652516e+003, 8.201081e-003
3.654444e+003, 8.865605e-003
3.656373e+003, 8.544424e-003
3.658301e+003, 8.943589e-003
3.660230e+003, 1.318435e-002
3.662158e+003, 1.373794e-002
3.664087e+003, 7.688245e-003
3.666015e+003, 5.511385e-003
3.667944e+003, 1.113596e-002
3.669872e+003, 1.415021e-002
3.671801e+003, 1.313279e-002
3.673729e+003, 8.428709e-003
3.675657e+003, 6.444200e-003
3.677586e+003, 6.998234e-003
3.679514e+003, 9.354847e-003
3.681443e+003, 9.783356e-003
3.683371e+003, 8.896262e-003
3.685300e+003, 1.015276e-002
3.687228e+003, 1.133157e-002
3.689157e+003, 9.026521e-003
3.691085e+003, 4.484792e-003
3.693014e+003, 6.091722e-003
3.694942e+003, 9.948575e-003
3.696871e+003, 4.960016e-003
3.698799e+003, 3.479458e-003
3.700728e+003, 8.090938e-003
3.702656e+003, 9.911818e-003
3.704584e+003, 8.453227e-003
3.706513e+003, 8.283807e-003
3.708441e+003, 9.817150e-003
3.710370e+003, 9.204661e-003
3.712298e+003, 7.842060e-003
3.714227e+003, 9.197025e-003
3.716155e+003, 6.273524e-003
3.718084e+003, 5.508075e-003
3.720012e+003, 7.974541e-003
3.721941e+003, 9.897678e-003
3.723869e+003, 9.975558e-003
3.725798e+003, 9.928307e-003
3.727726e+003, 1.089375e-002
3.729655e+003, 1.258519e-002
3.731583e+003, 1.326895e-002
3.733511e+003, 1.255232e-002
3.735440e+003, 1.311246e-002
3.737368e+003, 1.155089e-002
3.739297e+003, 1.145465e-002
3.741225e+003, 9.078751e-003
3.743154e+003, 9.206784e-003
3.745082e+003, 1.316357e-002
3.747011e+003, 1.164734e-002
3.748939e+003, 9.811258e-003
3.750868e+003, 1.201899e-002
3.752796e+003, 1.246679e-002
3.754725e+003, 9.435067e-003
3.756653e+003, 8.552768e-003
3.758582e+003, 6.250508e-003
3.760510e+003, 4.897672e-003
3.762438e+003, 8.648152e-003
3.764367e+003, 1.188459e-002
3.766295e+003, 9.461632e-003
3.768224e+003, 6.065392e-003
3.770152e+003, 7.088438e-003
3.772081e+003, 9.063389e-003
3.774009e+003, 1.215538e-002
3.775938e+003, 1.440304e-002
3.777866e+003, 1.232948e-002
3.779795e+003, 1.067628e-002
3.781723e+003, 1.220635e-002
3.783652e+003, 1.260126e-002
3.785580e+003, 1.356403e-002
3.787509e+003, 1.386617e-002
3.789437e+003, 1.210527e-002
3.791365e+003, 1.313073e-002
3.793294e+003, 1.327069e-002
3.795222e+003, 9.884944e-003
3.797151e+003, 7.782628e-003
3.799079e+003, 7.407201e-003
3.801008e+003, 6.658276e-003
3.802936e+003, 6.742625e-003
3.804865e+003, 5.795149e-003
3.806793e+003, 8.480668e-003
3.808722e+003, 1.045379e-002
3.810650e+003, 7.163566e-003
3.812579e+003, 6.838873e-003
3.814507e+003, 9.315812e-003
3.816436e+003, 9.013822e-003
3.818364e+003, 6.038543e-003
3.820292e+003, 5.417165e-003
3.822221e+003, 6.573749e-003
3.824149e+003, 6.940043e-003
3.826078e+003, 6.248225e-003
3.828006e+003, 6.460184e-003
3.829935e+003, 8.038917e-003
3.831863e+003, 7.928529e-003
3.833792e+003, 8.525365e-003
3.835720e+003, 1.077847e-002
3.837649e+003, 1.251190e-002
3.839577e+003, 1.117784e-002
3.841506e+003, 1.013086e-002
3.843434e+003, 1.099742e-002
3.845363e+003, 1.113504e-002
3.847291e+003, 7.290444e-003
3.849219e+003, 5.348655e-003
3.851148e+003, 8.520226e-003
3.853076e+003, 9.949065e-003
3.855005e+003, 8.695923e-003
3.856933e+003, 9.394236e-003
3.858862e+003, 1.100990e-002
3.860790e+003, 1.091716e-002
3.862719e+003, 1.110709e-002
3.864647e+003, 1.060446e-002
3.866576e+003, 8.217272e-003
3.868504e+003, 6.858106e-003
3.870433e+003, 7.160807e-003
3.872361e+003, 7.191435e-003
3.874290e+003, 7.832780e-003
3.876218e+003, 9.656138e-003
3.878146e+003, 1.030079e-002
3.880075e+003, 1.255373e-002
3.882003e+003, 9.488284e-003
3.883932e+003, 6.659600e-003
3.885860e+003, 9.877390e-003
3.887789e+003, 1.366686e-002
3.889717e+003, 1.281918e-002
3.891646e+003, 9.116393e-003
3.893574e+003, 9.300434e-003
3.895503e+003, 1.010146e-002
3.897431e+003, 1.010049e-002
3.899360e+003, 9.534343e-003
3.901288e+003, 1.107513e-002
3.903217e+003, 1.153173e-002
3.905145e+003, 7.852003e-003
3.907073e+003, 8.865299e-003
3.909002e+003, 9.016026e-003
3.910930e+003, 4.082811e-003
3.912859e+003, 5.396116e-003
3.914787e+003, 7.162757e-003
3.916716e+003, 4.956635e-003
3.918644e+003, 9.240733e-003
3.920573e+003, 1.364749e-002
3.922501e+003, 1.348756e-002
3.924430e+003, 1.232208e-002
3.926358e+003, 1.257372e-002
3.928287e+003, 1.240708e-002
3.930215e+003, 1.315211e-002
3.932144e+003, 1.354094e-002
3.934072e+003, 1.381169e-002
3.936000e+003, 1.326452e-002
3.937929e+003, 1.196747e-002
3.939857e+003, 1.259617e-002
3.941786e+003, 1.393818e-002
3.943714e+003, 1.424961e-002
3.945643e+003, 1.353919e-002
3.947571e+003, 9.656565e-003
3.949500e+003, 1.027018e-002
3.951428e+003, 1.465735e-002
3.953357e+003, 1.034782e-002
3.955285e+003, 3.946258e-003
3.957214e+003, 4.223529e-003
3.959142e+003, 9.667325e-003
3.961071e+003, 1.136929e-002
3.962999e+003, 1.166248e-002
3.964927e+003, 1.072587e-002
3.966856e+003, 9.065030e-003
3.968784e+003, 8.373965e-003
3.970713e+003, 7.141157e-003
3.972641e+003, 3.453731e-003
3.974570e+003, 5.049530e-003
3.976498e+003, 8.105870e-003
3.978427e+003, 9.032504e-003
3.980355e+003, 8.987565e-003
3.982284e+003, 1.051964e-002
3.984212e+003, 1.264648e-002
3.986141e+003, 1.421447e-002
3.988069e+003, 1.768066e-002
3.989998e+003, 1.676775e-002
3.991926e+003, 1.385147e-002
3.993854e+003, 1.126572e-002
3.995783e+003, 1.079495e-002
3.997711e+003, 1.079883e-002
3.999640e+003, 1.080404e-002
4.001568e+003, 0.000000e+000
##END=



