##NAMES=Bobdownsite
##RRUFFID=R050109
##IDEAL CHEMISTRY=Ca_9_Mg(PO_4_)_6_(PO_3_F)
##LOCALITY=Big Fish River, Yukon Territory, Canada
##OWNER=RRUFF
##SOURCE=Rock Currier
##DESCRIPTION=Colorless hexagonal tabular crystals, type sample
##STATUS=The identification of this mineral is confirmed by single-crystal X-ray diffraction and chemical analysis.
##URL=rruff.info/R050109
##MEASURED CHEMISTRY=(Ca_8.76_Na_0.24_)_Σ=9_(Mg_0.72_Fe^3+^_0.13_Al_0.11_Fe^2+^_0.04_)_Σ=1_(P_1.00_O_4_)_6_(P_1.00_O_3_F_1.00_); Fe^2+^ and Fe^3+^ by charge balance
5.014013e+001, 2.605349e-002
5.206860e+001, 2.658821e-002
5.399707e+001, 2.096036e-002
5.592553e+001, 2.233786e-002
5.785400e+001, 2.548537e-002
5.978246e+001, 3.318536e-002
6.171093e+001, 3.143344e-002
6.363940e+001, 3.106686e-002
6.556786e+001, 3.241697e-002
6.749633e+001, 3.373168e-002
6.942480e+001, 3.202731e-002
7.135326e+001, 3.660079e-002
7.328172e+001, 3.588436e-002
7.521019e+001, 3.452380e-002
7.713866e+001, 3.703425e-002
7.906712e+001, 4.036140e-002
8.099559e+001, 3.935002e-002
8.292406e+001, 4.002021e-002
8.485252e+001, 4.082093e-002
8.678099e+001, 4.038095e-002
8.870946e+001, 3.894880e-002
9.063792e+001, 3.960411e-002
9.256638e+001, 4.073711e-002
9.449485e+001, 4.299479e-002
9.642332e+001, 4.347032e-002
9.835178e+001, 4.303124e-002
1.002803e+002, 4.283432e-002
1.022087e+002, 4.481498e-002
1.041372e+002, 4.608369e-002
1.060657e+002, 4.796698e-002
1.079941e+002, 4.904269e-002
1.099226e+002, 5.007941e-002
1.118510e+002, 5.181753e-002
1.137795e+002, 5.190935e-002
1.157080e+002, 5.109869e-002
1.176364e+002, 5.144843e-002
1.195649e+002, 5.085998e-002
1.214934e+002, 5.126183e-002
1.234218e+002, 5.095866e-002
1.253503e+002, 5.213554e-002
1.272788e+002, 5.314652e-002
1.292072e+002, 5.456135e-002
1.311357e+002, 5.595926e-002
1.330642e+002, 5.685436e-002
1.349926e+002, 5.728924e-002
1.369211e+002, 5.846208e-002
1.388496e+002, 5.914564e-002
1.407780e+002, 6.115165e-002
1.427065e+002, 6.269699e-002
1.446350e+002, 6.412689e-002
1.465634e+002, 6.519174e-002
1.484919e+002, 6.667944e-002
1.504204e+002, 6.734797e-002
1.523488e+002, 6.843863e-002
1.542773e+002, 6.900923e-002
1.562058e+002, 7.036066e-002
1.581342e+002, 7.029745e-002
1.600627e+002, 6.952851e-002
1.619912e+002, 6.831878e-002
1.639196e+002, 6.845681e-002
1.658481e+002, 6.839825e-002
1.677766e+002, 6.884643e-002
1.697050e+002, 7.037664e-002
1.716335e+002, 7.201698e-002
1.735620e+002, 7.255782e-002
1.754904e+002, 7.361992e-002
1.774189e+002, 7.324597e-002
1.793474e+002, 7.290381e-002
1.812758e+002, 7.253335e-002
1.832043e+002, 7.248375e-002
1.851328e+002, 7.215758e-002
1.870612e+002, 7.194735e-002
1.889897e+002, 7.161213e-002
1.909182e+002, 7.153006e-002
1.928466e+002, 7.124037e-002
1.947751e+002, 7.167248e-002
1.967036e+002, 7.247457e-002
1.986320e+002, 7.342377e-002
2.005605e+002, 7.420877e-002
2.024890e+002, 7.631319e-002
2.044174e+002, 7.722318e-002
2.063459e+002, 7.781927e-002
2.082744e+002, 7.873732e-002
2.102028e+002, 7.989688e-002
2.121313e+002, 8.041108e-002
2.140598e+002, 8.121780e-002
2.159882e+002, 8.184119e-002
2.179167e+002, 8.214106e-002
2.198452e+002, 8.247858e-002
2.217736e+002, 8.404449e-002
2.237021e+002, 8.482227e-002
2.256305e+002, 8.554279e-002
2.275590e+002, 8.614227e-002
2.294875e+002, 8.596183e-002
2.314159e+002, 8.623040e-002
2.333444e+002, 8.621342e-002
2.352729e+002, 8.544790e-002
2.372013e+002, 8.566128e-002
2.391298e+002, 8.530974e-002
2.410583e+002, 8.486296e-002
2.429867e+002, 8.487356e-002
2.449152e+002, 8.513723e-002
2.468437e+002, 8.481894e-002
2.487721e+002, 8.441929e-002
2.507006e+002, 8.349653e-002
2.526291e+002, 8.320383e-002
2.545575e+002, 8.271668e-002
2.564860e+002, 8.248419e-002
2.584145e+002, 8.301742e-002
2.603429e+002, 8.409368e-002
2.622714e+002, 8.491677e-002
2.641999e+002, 8.512005e-002
2.661283e+002, 8.471792e-002
2.680568e+002, 8.405722e-002
2.699853e+002, 8.322091e-002
2.719137e+002, 8.275287e-002
2.738422e+002, 8.256262e-002
2.757707e+002, 8.327992e-002
2.776991e+002, 8.439158e-002
2.796276e+002, 8.540009e-002
2.815561e+002, 8.637149e-002
2.834845e+002, 8.730044e-002
2.854130e+002, 8.771709e-002
2.873415e+002, 8.795357e-002
2.892699e+002, 8.766239e-002
2.911984e+002, 8.703557e-002
2.931269e+002, 8.583554e-002
2.950553e+002, 8.434383e-002
2.969838e+002, 8.247616e-002
2.989123e+002, 8.015019e-002
3.008407e+002, 7.803915e-002
3.027692e+002, 7.593057e-002
3.046977e+002, 7.404476e-002
3.066261e+002, 7.323970e-002
3.085546e+002, 7.233899e-002
3.104831e+002, 7.140029e-002
3.124115e+002, 7.137346e-002
3.143400e+002, 7.198636e-002
3.162685e+002, 7.263605e-002
3.181969e+002, 7.307550e-002
3.201254e+002, 7.312044e-002
3.220539e+002, 7.233515e-002
3.239823e+002, 7.111350e-002
3.259108e+002, 6.985612e-002
3.278392e+002, 6.853623e-002
3.297677e+002, 6.780486e-002
3.316962e+002, 6.806031e-002
3.336246e+002, 6.877905e-002
3.355531e+002, 7.016226e-002
3.374816e+002, 7.196178e-002
3.394100e+002, 7.374413e-002
3.413385e+002, 7.530415e-002
3.432670e+002, 7.617242e-002
3.451954e+002, 7.670441e-002
3.471239e+002, 7.662570e-002
3.490524e+002, 7.588482e-002
3.509808e+002, 7.449754e-002
3.529093e+002, 7.277329e-002
3.548378e+002, 7.046090e-002
3.567662e+002, 6.772272e-002
3.586947e+002, 6.458046e-002
3.606232e+002, 6.134488e-002
3.625516e+002, 5.803573e-002
3.644801e+002, 5.482460e-002
3.664086e+002, 5.210637e-002
3.683370e+002, 4.979752e-002
3.702655e+002, 4.770467e-002
3.721940e+002, 4.531905e-002
3.741224e+002, 4.295690e-002
3.760509e+002, 4.071087e-002
3.779794e+002, 3.860741e-002
3.799078e+002, 3.660635e-002
3.818363e+002, 3.472942e-002
3.837648e+002, 3.322807e-002
3.856932e+002, 3.222259e-002
3.876217e+002, 3.171341e-002
3.895502e+002, 3.173961e-002
3.914786e+002, 3.236923e-002
3.934071e+002, 3.282137e-002
3.953356e+002, 3.334336e-002
3.972640e+002, 3.388309e-002
3.991925e+002, 3.401013e-002
4.011210e+002, 3.391444e-002
4.030494e+002, 3.362559e-002
4.049779e+002, 3.284512e-002
4.069064e+002, 3.207425e-002
4.088348e+002, 3.150658e-002
4.107633e+002, 3.136504e-002
4.126917e+002, 3.175571e-002
4.146202e+002, 3.207241e-002
4.165487e+002, 3.221659e-002
4.184771e+002, 3.229182e-002
4.204056e+002, 3.196272e-002
4.223341e+002, 3.139021e-002
4.242625e+002, 3.105721e-002
4.261910e+002, 3.084063e-002
4.281195e+002, 3.080472e-002
4.300479e+002, 3.068911e-002
4.319764e+002, 3.065641e-002
4.339049e+002, 3.051035e-002
4.358333e+002, 3.014249e-002
4.377618e+002, 2.956124e-002
4.396903e+002, 2.871170e-002
4.416187e+002, 2.798468e-002
4.435472e+002, 2.783980e-002
4.454757e+002, 2.762827e-002
4.474041e+002, 2.689870e-002
4.493326e+002, 2.665360e-002
4.512611e+002, 2.678195e-002
4.531895e+002, 2.674570e-002
4.551180e+002, 2.685104e-002
4.570465e+002, 2.711371e-002
4.589749e+002, 2.735067e-002
4.609034e+002, 2.758301e-002
4.628319e+002, 2.783833e-002
4.647603e+002, 2.814743e-002
4.666888e+002, 2.809816e-002
4.686173e+002, 2.791392e-002
4.705457e+002, 2.795121e-002
4.724742e+002, 2.838476e-002
4.744027e+002, 2.909444e-002
4.763311e+002, 2.962592e-002
4.782596e+002, 3.041179e-002
4.801881e+002, 3.166074e-002
4.821165e+002, 3.284525e-002
4.840450e+002, 3.372987e-002
4.859735e+002, 3.409866e-002
4.879019e+002, 3.424926e-002
4.898304e+002, 3.432836e-002
4.917589e+002, 3.419202e-002
4.936873e+002, 3.417223e-002
4.956158e+002, 3.440465e-002
4.975443e+002, 3.453612e-002
4.994727e+002, 3.485991e-002
5.014012e+002, 3.575267e-002
5.033297e+002, 3.702435e-002
5.052581e+002, 3.859622e-002
5.071866e+002, 4.055204e-002
5.091151e+002, 4.235969e-002
5.110435e+002, 4.439326e-002
5.129720e+002, 4.686897e-002
5.149005e+002, 4.955678e-002
5.168289e+002, 5.249979e-002
5.187574e+002, 5.549318e-002
5.206859e+002, 5.869651e-002
5.226143e+002, 6.210427e-002
5.245428e+002, 6.578571e-002
5.264713e+002, 7.011923e-002
5.283997e+002, 7.524129e-002
5.303282e+002, 8.037946e-002
5.322567e+002, 8.595314e-002
5.341851e+002, 9.226675e-002
5.361136e+002, 9.748379e-002
5.380421e+002, 1.011370e-001
5.399705e+002, 1.043005e-001
5.418990e+002, 1.065045e-001
5.438275e+002, 1.060407e-001
5.457559e+002, 1.040709e-001
5.476844e+002, 1.040785e-001
5.496129e+002, 1.069770e-001
5.515413e+002, 1.104532e-001
5.534698e+002, 1.121652e-001
5.553983e+002, 1.117234e-001
5.573267e+002, 1.084164e-001
5.592552e+002, 1.017120e-001
5.611837e+002, 9.348813e-002
5.631121e+002, 8.580402e-002
5.650406e+002, 7.852664e-002
5.669691e+002, 7.231926e-002
5.688975e+002, 6.736487e-002
5.708260e+002, 6.184655e-002
5.727545e+002, 5.564656e-002
5.746829e+002, 4.997628e-002
5.766114e+002, 4.668906e-002
5.785399e+002, 4.562235e-002
5.804683e+002, 4.650129e-002
5.823968e+002, 4.976993e-002
5.843253e+002, 5.467309e-002
5.862537e+002, 6.034689e-002
5.881822e+002, 6.649912e-002
5.901107e+002, 7.174946e-002
5.920391e+002, 7.559803e-002
5.939676e+002, 7.819311e-002
5.958961e+002, 8.019182e-002
5.978245e+002, 8.354930e-002
5.997530e+002, 8.742725e-002
6.016815e+002, 8.832240e-002
6.036099e+002, 8.560064e-002
6.055384e+002, 8.041809e-002
6.074669e+002, 7.457156e-002
6.093953e+002, 7.009234e-002
6.113238e+002, 6.770927e-002
6.132523e+002, 6.582622e-002
6.151807e+002, 6.388305e-002
6.171091e+002, 6.202015e-002
6.190376e+002, 5.997984e-002
6.209661e+002, 5.560355e-002
6.228945e+002, 4.960469e-002
6.248230e+002, 4.416101e-002
6.267515e+002, 3.933032e-002
6.286799e+002, 3.609328e-002
6.306084e+002, 3.430891e-002
6.325369e+002, 3.252776e-002
6.344653e+002, 3.068239e-002
6.363938e+002, 2.943877e-002
6.383223e+002, 2.842427e-002
6.402507e+002, 2.802588e-002
6.421792e+002, 2.854635e-002
6.441077e+002, 2.884936e-002
6.460361e+002, 2.876167e-002
6.479646e+002, 2.814703e-002
6.498931e+002, 2.757997e-002
6.518215e+002, 2.729378e-002
6.537500e+002, 2.719501e-002
6.556785e+002, 2.706632e-002
6.576069e+002, 2.718686e-002
6.595354e+002, 2.733676e-002
6.614639e+002, 2.723718e-002
6.633923e+002, 2.757660e-002
6.653208e+002, 2.802715e-002
6.672493e+002, 2.815082e-002
6.691777e+002, 2.783522e-002
6.711062e+002, 2.781096e-002
6.730347e+002, 2.784852e-002
6.749631e+002, 2.846579e-002
6.768916e+002, 2.880207e-002
6.788201e+002, 2.900221e-002
6.807485e+002, 2.906465e-002
6.826770e+002, 2.905945e-002
6.846055e+002, 2.931335e-002
6.865339e+002, 2.956545e-002
6.884624e+002, 2.994296e-002
6.903909e+002, 3.025590e-002
6.923193e+002, 3.024175e-002
6.942478e+002, 3.010761e-002
6.961763e+002, 3.007643e-002
6.981047e+002, 3.032533e-002
7.000332e+002, 3.060982e-002
##END=



