##NAMES=Borax
##RRUFFID=R070168
##IDEAL CHEMISTRY=Na_2_B_4_O_5_(OH)_4_&#183;8H_2_O
##LOCALITY=Boron, Kramer District, Kern County, California, USA
##OWNER=RRUFF
##SOURCE=Michael Scott
##DESCRIPTION=Colorless prismatic single crystal associated with tincalconite
##STATUS=The identification of this mineral has been confirmed by X-ray diffraction and chemical analysis
##URL=rruff.info/R070168
##MEASURED CHEMISTRY=Na_2.00_B_4_O_5_(OH)_4_·8H_2_O ; = lighter phase. Darker phase is probably tincalconite; B, H, O not measured but estimated by stoichiometry
3.991926e+002, 6.531267e-002
4.011211e+002, 6.679398e-002
4.030495e+002, 6.864861e-002
4.049780e+002, 7.136931e-002
4.069065e+002, 7.074105e-002
4.088349e+002, 7.181271e-002
4.107634e+002, 7.542233e-002
4.126919e+002, 7.646573e-002
4.146203e+002, 7.720260e-002
4.165488e+002, 7.844719e-002
4.184773e+002, 7.934683e-002
4.204057e+002, 7.973941e-002
4.223342e+002, 8.136252e-002
4.242627e+002, 8.375849e-002
4.261911e+002, 8.652240e-002
4.281196e+002, 8.960715e-002
4.300481e+002, 9.147260e-002
4.319765e+002, 9.278368e-002
4.339050e+002, 9.539061e-002
4.358335e+002, 9.766982e-002
4.377619e+002, 1.000622e-001
4.396904e+002, 1.033323e-001
4.416189e+002, 1.068615e-001
4.435473e+002, 1.094408e-001
4.454758e+002, 1.120524e-001
4.474043e+002, 1.150584e-001
4.493327e+002, 1.179582e-001
4.512612e+002, 1.214369e-001
4.531897e+002, 1.246416e-001
4.551181e+002, 1.305227e-001
4.570466e+002, 1.372670e-001
4.589751e+002, 1.421756e-001
4.609035e+002, 1.453008e-001
4.628320e+002, 1.442660e-001
4.647605e+002, 1.377994e-001
4.666889e+002, 1.271174e-001
4.686174e+002, 1.162156e-001
4.705459e+002, 1.064813e-001
4.724743e+002, 9.882616e-002
4.744028e+002, 9.425402e-002
4.763313e+002, 9.058476e-002
4.782597e+002, 8.771520e-002
4.801882e+002, 8.573893e-002
4.821167e+002, 8.431733e-002
4.840451e+002, 8.267092e-002
4.859736e+002, 8.077244e-002
4.879021e+002, 7.959990e-002
4.898305e+002, 7.958220e-002
4.917590e+002, 8.001640e-002
4.936875e+002, 8.042756e-002
4.956159e+002, 8.101100e-002
4.975444e+002, 8.120830e-002
4.994729e+002, 8.044304e-002
5.014013e+002, 7.867998e-002
5.033298e+002, 7.620671e-002
5.052583e+002, 7.362706e-002
5.071867e+002, 7.135168e-002
5.091152e+002, 6.965598e-002
5.110437e+002, 6.858884e-002
5.129721e+002, 6.723470e-002
5.149006e+002, 6.572597e-002
5.168290e+002, 6.510791e-002
5.187575e+002, 6.581803e-002
5.206860e+002, 6.665944e-002
5.226144e+002, 6.751658e-002
5.245429e+002, 6.753369e-002
5.264714e+002, 6.628738e-002
5.283998e+002, 6.412315e-002
5.303283e+002, 6.188841e-002
5.322568e+002, 6.035629e-002
5.341852e+002, 5.906469e-002
5.361137e+002, 5.785730e-002
5.380422e+002, 5.721271e-002
5.399706e+002, 5.600908e-002
5.418991e+002, 5.492422e-002
5.438276e+002, 5.443035e-002
5.457560e+002, 5.362489e-002
5.476845e+002, 5.303156e-002
5.496130e+002, 5.247020e-002
5.515414e+002, 5.176488e-002
5.534699e+002, 5.101585e-002
5.553984e+002, 5.041505e-002
5.573268e+002, 4.991310e-002
5.592553e+002, 4.987228e-002
5.611838e+002, 4.992055e-002
5.631122e+002, 4.990829e-002
5.650407e+002, 4.994604e-002
5.669692e+002, 5.059080e-002
5.688976e+002, 5.136720e-002
5.708261e+002, 5.241655e-002
5.727546e+002, 5.419857e-002
5.746830e+002, 5.536626e-002
5.766115e+002, 5.491491e-002
5.785400e+002, 5.359013e-002
5.804684e+002, 5.252334e-002
5.823969e+002, 5.233029e-002
5.843254e+002, 5.259240e-002
5.862538e+002, 5.324154e-002
5.881823e+002, 5.386916e-002
5.901108e+002, 5.387492e-002
5.920392e+002, 5.354872e-002
5.939677e+002, 5.326176e-002
5.958962e+002, 5.387082e-002
5.978246e+002, 5.492726e-002
5.997531e+002, 5.626860e-002
6.016816e+002, 5.787706e-002
6.036100e+002, 5.956769e-002
6.055385e+002, 6.088614e-002
6.074670e+002, 6.152397e-002
6.093954e+002, 6.103463e-002
6.113239e+002, 5.919227e-002
6.132524e+002, 5.594340e-002
6.151808e+002, 5.258076e-002
6.171093e+002, 5.012771e-002
6.190378e+002, 4.892927e-002
6.209662e+002, 4.904246e-002
6.228947e+002, 4.992878e-002
6.248232e+002, 5.136447e-002
6.267516e+002, 5.328605e-002
6.286801e+002, 5.539387e-002
6.306086e+002, 5.723022e-002
6.325370e+002, 5.909122e-002
6.344655e+002, 6.081184e-002
6.363940e+002, 6.237121e-002
6.383224e+002, 6.366740e-002
6.402509e+002, 6.474032e-002
6.421794e+002, 6.595242e-002
6.441078e+002, 6.697579e-002
6.460363e+002, 6.797959e-002
6.479648e+002, 6.878676e-002
6.498932e+002, 6.942118e-002
6.518217e+002, 7.023757e-002
6.537502e+002, 7.114783e-002
6.556786e+002, 7.211513e-002
6.576071e+002, 7.333106e-002
6.595356e+002, 7.468034e-002
6.614641e+002, 7.627048e-002
6.633925e+002, 7.793436e-002
6.653210e+002, 8.009504e-002
6.672495e+002, 8.274505e-002
6.691779e+002, 8.531147e-002
6.711064e+002, 8.784916e-002
6.730349e+002, 9.006499e-002
6.749633e+002, 9.167565e-002
6.768918e+002, 9.236246e-002
6.788203e+002, 9.236177e-002
6.807487e+002, 9.223182e-002
6.826772e+002, 9.242781e-002
6.846057e+002, 9.377702e-002
6.865341e+002, 9.696616e-002
6.884626e+002, 1.017275e-001
6.903911e+002, 1.074014e-001
6.923195e+002, 1.140322e-001
6.942480e+002, 1.217818e-001
6.961765e+002, 1.306618e-001
6.981049e+002, 1.404547e-001
7.000334e+002, 1.507910e-001
7.019619e+002, 1.613497e-001
7.038903e+002, 1.711254e-001
7.058188e+002, 1.781455e-001
7.077473e+002, 1.798429e-001
7.096757e+002, 1.762202e-001
7.116042e+002, 1.694574e-001
7.135327e+002, 1.615615e-001
7.154611e+002, 1.536022e-001
7.173896e+002, 1.462304e-001
7.193181e+002, 1.397830e-001
7.212465e+002, 1.342364e-001
7.231750e+002, 1.295535e-001
7.251035e+002, 1.256790e-001
7.270319e+002, 1.223066e-001
7.289604e+002, 1.195047e-001
7.308889e+002, 1.171231e-001
7.328173e+002, 1.153360e-001
7.347458e+002, 1.144622e-001
7.366743e+002, 1.141775e-001
7.386027e+002, 1.142489e-001
7.405312e+002, 1.149345e-001
7.424597e+002, 1.167864e-001
7.443881e+002, 1.196162e-001
7.463166e+002, 1.228006e-001
7.482451e+002, 1.264903e-001
7.501735e+002, 1.305927e-001
7.521020e+002, 1.351706e-001
7.540305e+002, 1.400703e-001
7.559589e+002, 1.451513e-001
7.578874e+002, 1.505777e-001
7.598159e+002, 1.562437e-001
7.617443e+002, 1.621211e-001
7.636728e+002, 1.682241e-001
7.656013e+002, 1.745901e-001
7.675297e+002, 1.809172e-001
7.694582e+002, 1.867350e-001
7.713867e+002, 1.909819e-001
7.733151e+002, 1.922949e-001
7.752436e+002, 1.902431e-001
7.771721e+002, 1.863797e-001
7.791005e+002, 1.831575e-001
7.810290e+002, 1.824100e-001
7.829575e+002, 1.840662e-001
7.848859e+002, 1.874805e-001
7.868144e+002, 1.918377e-001
7.887429e+002, 1.965092e-001
7.906713e+002, 2.011843e-001
7.925998e+002, 2.059352e-001
7.945283e+002, 2.110256e-001
7.964567e+002, 2.170127e-001
7.983852e+002, 2.240588e-001
8.003137e+002, 2.325312e-001
8.022421e+002, 2.428856e-001
8.041706e+002, 2.553522e-001
8.060991e+002, 2.701713e-001
8.080275e+002, 2.871250e-001
8.099560e+002, 3.059660e-001
8.118845e+002, 3.260152e-001
8.138129e+002, 3.464945e-001
8.157414e+002, 3.658434e-001
8.176699e+002, 3.807486e-001
8.195983e+002, 3.876790e-001
8.215268e+002, 3.838193e-001
8.234553e+002, 3.685376e-001
8.253837e+002, 3.443231e-001
8.273122e+002, 3.150394e-001
8.292407e+002, 2.843635e-001
8.311691e+002, 2.542914e-001
8.330976e+002, 2.262845e-001
8.350261e+002, 2.014505e-001
8.369545e+002, 1.792405e-001
8.388830e+002, 1.601756e-001
8.408115e+002, 1.441724e-001
8.427399e+002, 1.305943e-001
8.446684e+002, 1.190126e-001
8.465969e+002, 1.093823e-001
8.485253e+002, 1.015891e-001
8.504538e+002, 9.542214e-002
8.523823e+002, 9.081747e-002
8.543107e+002, 8.753365e-002
8.562392e+002, 8.501524e-002
8.581677e+002, 8.356224e-002
8.600961e+002, 8.325476e-002
8.620246e+002, 8.360684e-002
8.639531e+002, 8.447159e-002
8.658815e+002, 8.611284e-002
8.678100e+002, 8.835166e-002
8.697385e+002, 9.100993e-002
8.716669e+002, 9.388276e-002
8.735954e+002, 9.667975e-002
8.755239e+002, 9.933072e-002
8.774523e+002, 1.016189e-001
8.793808e+002, 1.030011e-001
8.813093e+002, 1.033441e-001
8.832377e+002, 1.031000e-001
8.851662e+002, 1.023843e-001
8.870947e+002, 1.012299e-001
8.890231e+002, 9.991360e-002
8.909516e+002, 9.901251e-002
8.928801e+002, 9.882352e-002
8.948085e+002, 9.929155e-002
8.967370e+002, 1.004338e-001
8.986655e+002, 1.020956e-001
9.005939e+002, 1.040348e-001
9.025224e+002, 1.063927e-001
9.044509e+002, 1.091943e-001
9.063793e+002, 1.123702e-001
9.083078e+002, 1.156917e-001
9.102363e+002, 1.191321e-001
9.121647e+002, 1.228583e-001
9.140932e+002, 1.277344e-001
9.160217e+002, 1.338843e-001
9.179501e+002, 1.412966e-001
9.198786e+002, 1.503475e-001
9.218071e+002, 1.613659e-001
9.237355e+002, 1.744276e-001
9.256640e+002, 1.894594e-001
9.275925e+002, 2.065381e-001
9.295209e+002, 2.258756e-001
9.314494e+002, 2.475782e-001
9.333779e+002, 2.714576e-001
9.353063e+002, 2.962428e-001
9.372348e+002, 3.199720e-001
9.391633e+002, 3.394945e-001
9.410917e+002, 3.514079e-001
9.430202e+002, 3.524158e-001
9.449487e+002, 3.404749e-001
9.468771e+002, 3.165509e-001
9.488056e+002, 2.835899e-001
9.507341e+002, 2.457453e-001
9.526625e+002, 2.078600e-001
9.545910e+002, 1.744979e-001
9.565195e+002, 1.488033e-001
9.584479e+002, 1.321880e-001
9.603764e+002, 1.236225e-001
9.623049e+002, 1.209832e-001
9.642333e+002, 1.230279e-001
9.661618e+002, 1.293893e-001
9.680903e+002, 1.398746e-001
9.700187e+002, 1.545288e-001
9.719472e+002, 1.736819e-001
9.738757e+002, 1.977762e-001
9.758041e+002, 2.265522e-001
9.777326e+002, 2.591501e-001
9.796611e+002, 2.942109e-001
9.815895e+002, 3.304992e-001
9.835180e+002, 3.663687e-001
9.854465e+002, 3.995847e-001
9.873749e+002, 4.279880e-001
9.893034e+002, 4.497526e-001
9.912319e+002, 4.636497e-001
9.931603e+002, 4.695966e-001
9.950888e+002, 4.678349e-001
9.970173e+002, 4.590315e-001
9.989457e+002, 4.446245e-001
1.000874e+003, 4.262247e-001
1.002803e+003, 4.052642e-001
1.004731e+003, 3.826616e-001
1.006660e+003, 3.592477e-001
1.008588e+003, 3.359557e-001
1.010517e+003, 3.135058e-001
1.012445e+003, 2.928634e-001
1.014373e+003, 2.746999e-001
1.016302e+003, 2.597815e-001
1.018230e+003, 2.483805e-001
1.020159e+003, 2.404920e-001
1.022087e+003, 2.357275e-001
1.024016e+003, 2.330362e-001
1.025944e+003, 2.310335e-001
1.027873e+003, 2.283214e-001
1.029801e+003, 2.236517e-001
1.031730e+003, 2.165567e-001
1.033658e+003, 2.074227e-001
1.035587e+003, 1.968673e-001
1.037515e+003, 1.856407e-001
1.039443e+003, 1.743558e-001
1.041372e+003, 1.633321e-001
1.043300e+003, 1.526664e-001
1.045229e+003, 1.424563e-001
1.047157e+003, 1.329235e-001
1.049086e+003, 1.241105e-001
1.051014e+003, 1.159268e-001
1.052943e+003, 1.086519e-001
1.054871e+003, 1.023630e-001
1.056800e+003, 9.765691e-002
1.058728e+003, 9.484835e-002
1.060657e+003, 9.401718e-002
1.062585e+003, 9.542290e-002
1.064514e+003, 9.919197e-002
1.066442e+003, 1.051622e-001
1.068370e+003, 1.127119e-001
1.070299e+003, 1.209147e-001
1.072227e+003, 1.286611e-001
1.074156e+003, 1.344943e-001
1.076084e+003, 1.377563e-001
1.078013e+003, 1.385549e-001
1.079941e+003, 1.372792e-001
1.081870e+003, 1.345528e-001
1.083798e+003, 1.308307e-001
1.085727e+003, 1.263632e-001
1.087655e+003, 1.215660e-001
1.089584e+003, 1.172980e-001
1.091512e+003, 1.143223e-001
1.093441e+003, 1.125504e-001
1.095369e+003, 1.115095e-001
1.097297e+003, 1.105748e-001
1.099226e+003, 1.088974e-001
1.101154e+003, 1.059027e-001
1.103083e+003, 1.018655e-001
1.105011e+003, 9.771168e-002
1.106940e+003, 9.421100e-002
1.108868e+003, 9.195101e-002
1.110797e+003, 9.130990e-002
1.112725e+003, 9.294315e-002
1.114654e+003, 9.758405e-002
1.116582e+003, 1.058442e-001
1.118511e+003, 1.188266e-001
1.120439e+003, 1.380504e-001
1.122368e+003, 1.646415e-001
1.124296e+003, 1.975402e-001
1.126224e+003, 2.306078e-001
1.128153e+003, 2.533644e-001
1.130081e+003, 2.579313e-001
1.132010e+003, 2.457060e-001
1.133938e+003, 2.241899e-001
1.135867e+003, 2.003659e-001
1.137795e+003, 1.781864e-001
1.139724e+003, 1.593985e-001
1.141652e+003, 1.445470e-001
1.143581e+003, 1.331123e-001
1.145509e+003, 1.238265e-001
1.147438e+003, 1.160113e-001
1.149366e+003, 1.092927e-001
1.151295e+003, 1.036572e-001
1.153223e+003, 9.958120e-002
1.155151e+003, 9.717615e-002
1.157080e+003, 9.623202e-002
1.159008e+003, 9.588428e-002
1.160937e+003, 9.493967e-002
1.162865e+003, 9.259889e-002
1.164794e+003, 8.903905e-002
1.166722e+003, 8.492725e-002
1.168651e+003, 8.058216e-002
1.170579e+003, 7.602978e-002
1.172508e+003, 7.144444e-002
1.174436e+003, 6.731199e-002
1.176365e+003, 6.377626e-002
1.178293e+003, 6.067552e-002
1.180222e+003, 5.793189e-002
1.182150e+003, 5.573054e-002
1.184078e+003, 5.383881e-002
1.186007e+003, 5.241277e-002
1.187935e+003, 5.162740e-002
1.189864e+003, 5.141246e-002
1.191792e+003, 5.172807e-002
1.193721e+003, 5.266219e-002
1.195649e+003, 5.404253e-002
1.197578e+003, 5.578214e-002
1.199506e+003, 5.812742e-002
1.201435e+003, 6.099227e-002
1.203363e+003, 6.434766e-002
1.205292e+003, 6.816425e-002
1.207220e+003, 7.257583e-002
1.209149e+003, 7.762152e-002
1.211077e+003, 8.319651e-002
1.213005e+003, 8.906136e-002
1.214934e+003, 9.505913e-002
1.216862e+003, 1.006286e-001
1.218791e+003, 1.049250e-001
1.220719e+003, 1.076962e-001
1.222648e+003, 1.092375e-001
1.224576e+003, 1.099810e-001
1.226505e+003, 1.107311e-001
1.228433e+003, 1.122473e-001
1.230362e+003, 1.151643e-001
1.232290e+003, 1.197644e-001
1.234219e+003, 1.258508e-001
1.236147e+003, 1.331604e-001
1.238076e+003, 1.417059e-001
1.240004e+003, 1.509886e-001
1.241932e+003, 1.605404e-001
1.243861e+003, 1.702609e-001
1.245789e+003, 1.801160e-001
1.247718e+003, 1.901777e-001
1.249646e+003, 1.999260e-001
1.251575e+003, 2.078691e-001
1.253503e+003, 2.124539e-001
1.255432e+003, 2.132307e-001
1.257360e+003, 2.107368e-001
1.259289e+003, 2.064493e-001
1.261217e+003, 2.021666e-001
1.263146e+003, 1.991138e-001
1.265074e+003, 1.975204e-001
1.267003e+003, 1.970252e-001
1.268931e+003, 1.970153e-001
1.270859e+003, 1.971027e-001
1.272788e+003, 1.962425e-001
1.274716e+003, 1.935713e-001
1.276645e+003, 1.889489e-001
1.278573e+003, 1.829178e-001
1.280502e+003, 1.757707e-001
1.282430e+003, 1.675532e-001
1.284359e+003, 1.587672e-001
1.286287e+003, 1.496708e-001
1.288216e+003, 1.403129e-001
1.290144e+003, 1.310938e-001
1.292073e+003, 1.224767e-001
1.294001e+003, 1.145738e-001
1.295930e+003, 1.074382e-001
1.297858e+003, 1.010803e-001
1.299786e+003, 9.575270e-002
1.301715e+003, 9.177136e-002
1.303643e+003, 8.905114e-002
1.305572e+003, 8.742442e-002
1.307500e+003, 8.698546e-002
1.309429e+003, 8.778222e-002
1.311357e+003, 9.023862e-002
1.313286e+003, 9.444489e-002
1.315214e+003, 1.004183e-001
1.317143e+003, 1.086319e-001
1.319071e+003, 1.196452e-001
1.321000e+003, 1.341187e-001
1.322928e+003, 1.524718e-001
1.324857e+003, 1.748500e-001
1.326785e+003, 2.003638e-001
1.328714e+003, 2.265764e-001
1.330642e+003, 2.506292e-001
1.332570e+003, 2.698794e-001
1.334499e+003, 2.832459e-001
1.336427e+003, 2.916073e-001
1.338356e+003, 2.961208e-001
1.340284e+003, 2.975048e-001
1.342213e+003, 2.960252e-001
1.344141e+003, 2.916365e-001
1.346070e+003, 2.843975e-001
1.347998e+003, 2.745235e-001
1.349927e+003, 2.628355e-001
1.351855e+003, 2.501447e-001
1.353784e+003, 2.373284e-001
1.355712e+003, 2.254469e-001
1.357641e+003, 2.147799e-001
1.359569e+003, 2.054096e-001
1.361497e+003, 1.973452e-001
1.363426e+003, 1.910830e-001
1.365354e+003, 1.868503e-001
1.367283e+003, 1.847969e-001
1.369211e+003, 1.848958e-001
1.371140e+003, 1.867845e-001
1.373068e+003, 1.897246e-001
1.374997e+003, 1.929350e-001
1.376925e+003, 1.956455e-001
1.378854e+003, 1.974089e-001
1.380782e+003, 1.979042e-001
1.382711e+003, 1.973219e-001
1.384639e+003, 1.962175e-001
1.386568e+003, 1.948353e-001
1.388496e+003, 1.934115e-001
1.390424e+003, 1.919729e-001
1.392353e+003, 1.906110e-001
1.394281e+003, 1.894717e-001
1.396210e+003, 1.885507e-001
1.398138e+003, 1.879841e-001
1.400067e+003, 1.877662e-001
1.401995e+003, 1.878266e-001
1.403924e+003, 1.883468e-001
1.405852e+003, 1.891744e-001
1.407781e+003, 1.904486e-001
1.409709e+003, 1.922901e-001
1.411638e+003, 1.947440e-001
1.413566e+003, 1.978462e-001
1.415495e+003, 2.014028e-001
1.417423e+003, 2.055172e-001
1.419351e+003, 2.098011e-001
1.421280e+003, 2.135391e-001
1.423208e+003, 2.165050e-001
1.425137e+003, 2.178025e-001
1.427065e+003, 2.172436e-001
1.428994e+003, 2.150844e-001
1.430922e+003, 2.114201e-001
1.432851e+003, 2.067307e-001
1.434779e+003, 2.015037e-001
1.436708e+003, 1.962695e-001
1.438636e+003, 1.914020e-001
1.440565e+003, 1.871771e-001
1.442493e+003, 1.838464e-001
1.444422e+003, 1.812805e-001
1.446350e+003, 1.793984e-001
1.448278e+003, 1.783001e-001
1.450207e+003, 1.777212e-001
1.452135e+003, 1.773055e-001
1.454064e+003, 1.772807e-001
1.455992e+003, 1.774954e-001
1.457921e+003, 1.774773e-001
1.459849e+003, 1.770673e-001
1.461778e+003, 1.762787e-001
1.463706e+003, 1.747958e-001
1.465635e+003, 1.725431e-001
1.467563e+003, 1.697087e-001
1.469492e+003, 1.661978e-001
1.471420e+003, 1.619018e-001
1.473349e+003, 1.572144e-001
1.475277e+003, 1.520290e-001
1.477205e+003, 1.465191e-001
1.479134e+003, 1.407239e-001
1.481062e+003, 1.345562e-001
1.482991e+003, 1.282806e-001
1.484919e+003, 1.217161e-001
1.486848e+003, 1.147325e-001
1.488776e+003, 1.076429e-001
1.490705e+003, 1.005463e-001
1.492633e+003, 9.327435e-002
1.494562e+003, 8.600342e-002
1.496490e+003, 7.861228e-002
1.498419e+003, 7.135581e-002
1.500347e+003, 6.436381e-002
1.502276e+003, 5.764358e-002
1.504204e+003, 5.133134e-002
1.506132e+003, 4.553024e-002
1.508061e+003, 4.036586e-002
1.509989e+003, 3.588715e-002
1.511918e+003, 3.189145e-002
1.513846e+003, 2.854759e-002
1.515775e+003, 2.578747e-002
1.517703e+003, 2.354189e-002
1.519632e+003, 2.184380e-002
1.521560e+003, 2.054020e-002
1.523489e+003, 1.936408e-002
1.525417e+003, 1.839492e-002
1.527346e+003, 1.775728e-002
1.529274e+003, 1.715446e-002
1.531203e+003, 1.657343e-002
1.533131e+003, 1.610138e-002
1.535059e+003, 1.578787e-002
1.536988e+003, 1.548171e-002
1.538916e+003, 1.541727e-002
1.540845e+003, 1.534444e-002
1.542773e+003, 1.505455e-002
1.544702e+003, 1.494340e-002
1.546630e+003, 1.504721e-002
1.548559e+003, 1.510365e-002
1.550487e+003, 1.492231e-002
1.552416e+003, 1.476146e-002
1.554344e+003, 1.469363e-002
1.556273e+003, 1.473125e-002
1.558201e+003, 1.474096e-002
1.560130e+003, 1.458292e-002
1.562058e+003, 1.434631e-002
1.563986e+003, 1.424187e-002
1.565915e+003, 1.414298e-002
1.567843e+003, 1.399260e-002
1.569772e+003, 1.403641e-002
1.571700e+003, 1.407014e-002
1.573629e+003, 1.427249e-002
1.575557e+003, 1.437427e-002
1.577486e+003, 1.434457e-002
1.579414e+003, 1.429552e-002
1.581343e+003, 1.412420e-002
1.583271e+003, 1.401164e-002
1.585200e+003, 1.410311e-002
1.587128e+003, 1.430139e-002
1.589057e+003, 1.438204e-002
1.590985e+003, 1.452686e-002
1.592913e+003, 1.460953e-002
1.594842e+003, 1.469420e-002
1.596770e+003, 1.473321e-002
1.598699e+003, 1.469727e-002
1.600627e+003, 1.462991e-002
1.602556e+003, 1.483443e-002
1.604484e+003, 1.498415e-002
1.606413e+003, 1.504121e-002
1.608341e+003, 1.521470e-002
1.610270e+003, 1.550869e-002
1.612198e+003, 1.588406e-002
1.614127e+003, 1.631120e-002
1.616055e+003, 1.667173e-002
1.617984e+003, 1.692888e-002
1.619912e+003, 1.731688e-002
1.621840e+003, 1.791274e-002
1.623769e+003, 1.868588e-002
1.625697e+003, 1.934345e-002
1.627626e+003, 2.002263e-002
1.629554e+003, 2.079539e-002
1.631483e+003, 2.164087e-002
1.633411e+003, 2.237340e-002
1.635340e+003, 2.310904e-002
1.637268e+003, 2.386264e-002
1.639197e+003, 2.483267e-002
1.641125e+003, 2.595729e-002
1.643054e+003, 2.705716e-002
1.644982e+003, 2.848501e-002
1.646911e+003, 2.995040e-002
