##NAMES=Brazilianite
##RRUFFID=R050126
##IDEAL CHEMISTRY=NaAl_3_(PO_4_)_2_(OH)_4_
##LOCALITY=Linopolis, Minas Gerais, Brazil
##OWNER=RRUFF
##SOURCE=Carlos and Paulo Vasconcelos
##DESCRIPTION=Pair of greenish yellow elongated crystals
##STATUS=The identification of this mineral has been confirmed by X-ray diffraction and chemical analysis
##URL=rruff.info/R050126
##MEASURED CHEMISTRY=Na_1.00_Al_3.00_(P_1.00_O_4_)_2_((OH)_3.80_F_0.20_)_Î£=4_
3.741225e+002, 1.713683e-001
3.760510e+002, 1.525312e-001
3.779795e+002, 1.762827e-001
3.799079e+002, 1.982570e-001
3.818364e+002, 1.985394e-001
3.837649e+002, 1.753634e-001
3.856933e+002, 1.637054e-001
3.876218e+002, 1.686243e-001
3.895503e+002, 1.761798e-001
3.914787e+002, 1.894593e-001
3.934072e+002, 2.043485e-001
3.953357e+002, 2.077098e-001
3.972641e+002, 2.085516e-001
3.991926e+002, 2.054471e-001
4.011211e+002, 2.131297e-001
4.030495e+002, 2.144533e-001
4.049780e+002, 2.113297e-001
4.069065e+002, 2.084462e-001
4.088349e+002, 2.073139e-001
4.107634e+002, 2.073723e-001
4.126919e+002, 2.056268e-001
4.146203e+002, 1.996599e-001
4.165488e+002, 1.985866e-001
4.184773e+002, 1.928852e-001
4.204057e+002, 1.875600e-001
4.223342e+002, 1.827042e-001
4.242627e+002, 1.737368e-001
4.261911e+002, 1.679197e-001
4.281196e+002, 1.667455e-001
4.300481e+002, 1.653762e-001
4.319765e+002, 1.650421e-001
4.339050e+002, 1.655754e-001
4.358335e+002, 1.655513e-001
4.377619e+002, 1.659258e-001
4.396904e+002, 1.711523e-001
4.416189e+002, 1.737674e-001
4.435473e+002, 1.770505e-001
4.454758e+002, 1.831897e-001
4.474043e+002, 1.863322e-001
4.493327e+002, 1.882257e-001
4.512612e+002, 1.896528e-001
4.531897e+002, 1.898543e-001
4.551181e+002, 1.913870e-001
4.570466e+002, 1.937582e-001
4.589751e+002, 1.963317e-001
4.609035e+002, 1.975230e-001
4.628320e+002, 1.974329e-001
4.647605e+002, 1.989418e-001
4.666889e+002, 2.017129e-001
4.686174e+002, 2.036649e-001
4.705459e+002, 2.024160e-001
4.724743e+002, 1.985086e-001
4.744028e+002, 1.948770e-001
4.763313e+002, 1.908920e-001
4.782597e+002, 1.857879e-001
4.801882e+002, 1.793412e-001
4.821167e+002, 1.718465e-001
4.840451e+002, 1.636273e-001
4.859736e+002, 1.565614e-001
4.879021e+002, 1.512866e-001
4.898305e+002, 1.491470e-001
4.917590e+002, 1.475093e-001
4.936875e+002, 1.447410e-001
4.956159e+002, 1.424376e-001
4.975444e+002, 1.407761e-001
4.994729e+002, 1.379451e-001
5.014013e+002, 1.350224e-001
5.033298e+002, 1.319276e-001
5.052583e+002, 1.290153e-001
5.071867e+002, 1.266519e-001
5.091152e+002, 1.245186e-001
5.110437e+002, 1.224619e-001
5.129721e+002, 1.213041e-001
5.149006e+002, 1.193251e-001
5.168290e+002, 1.166663e-001
5.187575e+002, 1.150172e-001
5.206860e+002, 1.150695e-001
5.226144e+002, 1.176407e-001
5.245429e+002, 1.213906e-001
5.264714e+002, 1.269777e-001
5.283998e+002, 1.335526e-001
5.303283e+002, 1.391809e-001
5.322568e+002, 1.436518e-001
5.341852e+002, 1.456433e-001
5.361137e+002, 1.455719e-001
5.380422e+002, 1.445145e-001
5.399706e+002, 1.430963e-001
5.418991e+002, 1.409872e-001
5.438276e+002, 1.398343e-001
5.457560e+002, 1.392975e-001
5.476845e+002, 1.395808e-001
5.496130e+002, 1.415615e-001
5.515414e+002, 1.439638e-001
5.534699e+002, 1.454006e-001
5.553984e+002, 1.450677e-001
5.573268e+002, 1.430241e-001
5.592553e+002, 1.405278e-001
5.611838e+002, 1.368209e-001
5.631122e+002, 1.314757e-001
5.650407e+002, 1.262555e-001
5.669692e+002, 1.224712e-001
5.688976e+002, 1.207159e-001
5.708261e+002, 1.209940e-001
5.727546e+002, 1.218924e-001
5.746830e+002, 1.226777e-001
5.766115e+002, 1.229932e-001
5.785400e+002, 1.230458e-001
5.804684e+002, 1.224286e-001
5.823969e+002, 1.213140e-001
5.843254e+002, 1.201009e-001
5.862538e+002, 1.178282e-001
5.881823e+002, 1.146804e-001
5.901108e+002, 1.114040e-001
5.920392e+002, 1.084531e-001
5.939677e+002, 1.061125e-001
5.958962e+002, 1.049344e-001
5.978246e+002, 1.055399e-001
5.997531e+002, 1.067668e-001
6.016816e+002, 1.076641e-001
6.036100e+002, 1.091238e-001
6.055385e+002, 1.107287e-001
6.074670e+002, 1.119434e-001
6.093954e+002, 1.135318e-001
6.113239e+002, 1.157077e-001
6.132524e+002, 1.173112e-001
6.151808e+002, 1.167898e-001
6.171093e+002, 1.145987e-001
6.190378e+002, 1.119047e-001
6.209662e+002, 1.088462e-001
6.228947e+002, 1.061942e-001
6.248232e+002, 1.043301e-001
6.267516e+002, 1.033733e-001
6.286801e+002, 1.035133e-001
6.306086e+002, 1.035796e-001
6.325370e+002, 1.031233e-001
6.344655e+002, 1.018590e-001
6.363940e+002, 9.949798e-002
6.383224e+002, 9.679149e-002
6.402509e+002, 9.325348e-002
6.421794e+002, 8.913098e-002
6.441078e+002, 8.478533e-002
6.460363e+002, 8.019214e-002
6.479648e+002, 7.591872e-002
6.498932e+002, 7.286087e-002
6.518217e+002, 7.126674e-002
6.537502e+002, 7.055319e-002
6.556786e+002, 7.088487e-002
6.576071e+002, 7.279398e-002
6.595356e+002, 7.548586e-002
6.614641e+002, 7.814009e-002
6.633925e+002, 8.010685e-002
6.653210e+002, 8.173420e-002
6.672495e+002, 8.354070e-002
6.691779e+002, 8.500763e-002
6.711064e+002, 8.691160e-002
6.730349e+002, 8.893589e-002
6.749633e+002, 9.111562e-002
6.768918e+002, 9.325935e-002
6.788203e+002, 9.458610e-002
6.807487e+002, 9.551811e-002
6.826772e+002, 9.588924e-002
6.846057e+002, 9.587541e-002
6.865341e+002, 9.533402e-002
6.884626e+002, 9.491098e-002
6.903911e+002, 9.481012e-002
6.923195e+002, 9.511980e-002
6.942480e+002, 9.540745e-002
6.961765e+002, 9.568882e-002
6.981049e+002, 9.605304e-002
7.000334e+002, 9.642848e-002
7.019619e+002, 9.684088e-002
7.038903e+002, 9.743647e-002
7.058188e+002, 9.824789e-002
7.077473e+002, 9.944293e-002
7.096757e+002, 1.006649e-001
7.116042e+002, 1.018003e-001
7.135327e+002, 1.028494e-001
7.154611e+002, 1.039102e-001
7.173896e+002, 1.043189e-001
7.193181e+002, 1.037760e-001
7.212465e+002, 1.027762e-001
7.231750e+002, 1.014688e-001
7.251035e+002, 9.943458e-002
7.270319e+002, 9.715519e-002
7.289604e+002, 9.483105e-002
7.308889e+002, 9.241368e-002
7.328173e+002, 9.002399e-002
7.347458e+002, 8.805320e-002
7.366743e+002, 8.619418e-002
7.386027e+002, 8.434284e-002
7.405312e+002, 8.270479e-002
7.424597e+002, 8.132513e-002
7.443881e+002, 8.001600e-002
7.463166e+002, 7.872546e-002
7.482451e+002, 7.748237e-002
7.501735e+002, 7.637523e-002
7.521020e+002, 7.527797e-002
7.540305e+002, 7.396315e-002
7.559589e+002, 7.224618e-002
7.578874e+002, 7.051781e-002
7.598159e+002, 6.856684e-002
7.617443e+002, 6.641968e-002
7.636728e+002, 6.427212e-002
7.656013e+002, 6.219025e-002
7.675297e+002, 5.993308e-002
7.694582e+002, 5.776262e-002
7.713867e+002, 5.566597e-002
7.733151e+002, 5.409805e-002
7.752436e+002, 5.286485e-002
7.771721e+002, 5.209744e-002
7.791005e+002, 5.169142e-002
7.810290e+002, 5.136956e-002
7.829575e+002, 5.133926e-002
7.848859e+002, 5.191856e-002
7.868144e+002, 5.237077e-002
7.887429e+002, 5.252469e-002
7.906713e+002, 5.252209e-002
7.925998e+002, 5.261432e-002
7.945283e+002, 5.262101e-002
7.964567e+002, 5.238613e-002
7.983852e+002, 5.154938e-002
8.003137e+002, 5.039939e-002
8.022421e+002, 4.912657e-002
8.041706e+002, 4.802749e-002
8.060991e+002, 4.678535e-002
8.080275e+002, 4.579772e-002
8.099560e+002, 4.514342e-002
8.118845e+002, 4.450881e-002
8.138129e+002, 4.388113e-002
8.157414e+002, 4.353605e-002
8.176699e+002, 4.309032e-002
8.195983e+002, 4.265981e-002
8.215268e+002, 4.244833e-002
8.234553e+002, 4.196587e-002
8.253837e+002, 4.134052e-002
8.273122e+002, 4.074772e-002
8.292407e+002, 4.024363e-002
8.311691e+002, 3.975045e-002
8.330976e+002, 3.914500e-002
8.350261e+002, 3.866516e-002
8.369545e+002, 3.816197e-002
8.388830e+002, 3.737082e-002
8.408115e+002, 3.663263e-002
8.427399e+002, 3.608211e-002
8.446684e+002, 3.545573e-002
8.465969e+002, 3.496323e-002
8.485253e+002, 3.459314e-002
8.504538e+002, 3.419528e-002
8.523823e+002, 3.385223e-002
8.543107e+002, 3.365088e-002
8.562392e+002, 3.363478e-002
8.581677e+002, 3.376523e-002
8.600961e+002, 3.389527e-002
8.620246e+002, 3.415343e-002
8.639531e+002, 3.427026e-002
8.658815e+002, 3.452843e-002
8.678100e+002, 3.495614e-002
8.697385e+002, 3.546333e-002
8.716669e+002, 3.598897e-002
8.735954e+002, 3.677813e-002
8.755239e+002, 3.761237e-002
8.774523e+002, 3.852823e-002
8.793808e+002, 3.966144e-002
8.813093e+002, 4.093183e-002
8.832377e+002, 4.219265e-002
8.851662e+002, 4.362106e-002
8.870947e+002, 4.498698e-002
8.890231e+002, 4.647823e-002
8.909516e+002, 4.814335e-002
8.928801e+002, 4.995541e-002
8.948085e+002, 5.184900e-002
8.967370e+002, 5.409802e-002
8.986655e+002, 5.644678e-002
9.005939e+002, 5.890984e-002
9.025224e+002, 6.157076e-002
9.044509e+002, 6.464875e-002
9.063793e+002, 6.810381e-002
9.083078e+002, 7.162067e-002
9.102363e+002, 7.528891e-002
9.121647e+002, 7.957285e-002
9.140932e+002, 8.421674e-002
9.160217e+002, 8.925371e-002
9.179501e+002, 9.484220e-002
9.198786e+002, 1.010327e-001
9.218071e+002, 1.076634e-001
9.237355e+002, 1.146679e-001
9.256640e+002, 1.220070e-001
9.275925e+002, 1.300319e-001
9.295209e+002, 1.386306e-001
9.314494e+002, 1.476922e-001
9.333779e+002, 1.569804e-001
9.353063e+002, 1.665499e-001
9.372348e+002, 1.757740e-001
9.391633e+002, 1.838585e-001
9.410917e+002, 1.898654e-001
9.430202e+002, 1.935433e-001
9.449487e+002, 1.943606e-001
9.468771e+002, 1.928905e-001
9.488056e+002, 1.903601e-001
9.507341e+002, 1.882488e-001
9.526625e+002, 1.877291e-001
9.545910e+002, 1.891182e-001
9.565195e+002, 1.916860e-001
9.584479e+002, 1.945185e-001
9.603764e+002, 1.968184e-001
9.623049e+002, 1.986258e-001
9.642333e+002, 1.998334e-001
9.661618e+002, 2.005257e-001
9.680903e+002, 2.005675e-001
9.700187e+002, 1.991428e-001
9.719472e+002, 1.961579e-001
9.738757e+002, 1.921478e-001
9.758041e+002, 1.867354e-001
9.777326e+002, 1.809711e-001
9.796611e+002, 1.760161e-001
9.815895e+002, 1.730616e-001
9.835180e+002, 1.719801e-001
9.854465e+002, 1.718138e-001
9.873749e+002, 1.708397e-001
9.893034e+002, 1.676972e-001
9.912319e+002, 1.614111e-001
9.931603e+002, 1.527384e-001
9.950888e+002, 1.433093e-001
9.970173e+002, 1.345629e-001
9.989457e+002, 1.272365e-001
1.000874e+003, 1.220588e-001
1.002803e+003, 1.192394e-001
1.004731e+003, 1.189948e-001
1.006660e+003, 1.211131e-001
1.008588e+003, 1.252766e-001
1.010517e+003, 1.306738e-001
1.012445e+003, 1.369649e-001
1.014373e+003, 1.432614e-001
1.016302e+003, 1.493650e-001
1.018230e+003, 1.545565e-001
1.020159e+003, 1.589663e-001
1.022087e+003, 1.632414e-001
1.024016e+003, 1.673852e-001
1.025944e+003, 1.711453e-001
1.027873e+003, 1.743976e-001
1.029801e+003, 1.767314e-001
1.031730e+003, 1.789709e-001
1.033658e+003, 1.816424e-001
1.035587e+003, 1.849872e-001
1.037515e+003, 1.886255e-001
1.039443e+003, 1.919263e-001
1.041372e+003, 1.942763e-001
1.043300e+003, 1.951479e-001
1.045229e+003, 1.943111e-001
1.047157e+003, 1.925695e-001
1.049086e+003, 1.897346e-001
1.051014e+003, 1.858515e-001
1.052943e+003, 1.815577e-001
1.054871e+003, 1.775119e-001
1.056800e+003, 1.737577e-001
1.058728e+003, 1.705685e-001
1.060657e+003, 1.680388e-001
1.062585e+003, 1.664918e-001
1.064514e+003, 1.656536e-001
1.066442e+003, 1.655115e-001
1.068370e+003, 1.656943e-001
1.070299e+003, 1.661006e-001
1.072227e+003, 1.667251e-001
1.074156e+003, 1.678645e-001
1.076084e+003, 1.688960e-001
1.078013e+003, 1.699431e-001
1.079941e+003, 1.709645e-001
1.081870e+003, 1.721818e-001
1.083798e+003, 1.734971e-001
1.085727e+003, 1.745771e-001
1.087655e+003, 1.750302e-001
1.089584e+003, 1.745907e-001
1.091512e+003, 1.727370e-001
1.093441e+003, 1.701640e-001
1.095369e+003, 1.670389e-001
1.097297e+003, 1.637361e-001
1.099226e+003, 1.604134e-001
1.101154e+003, 1.569107e-001
1.103083e+003, 1.539203e-001
1.105011e+003, 1.520349e-001
1.106940e+003, 1.507067e-001
1.108868e+003, 1.501759e-001
1.110797e+003, 1.496402e-001
1.112725e+003, 1.489262e-001
1.114654e+003, 1.478147e-001
1.116582e+003, 1.463441e-001
1.118511e+003, 1.443551e-001
1.120439e+003, 1.418434e-001
1.122368e+003, 1.391180e-001
1.124296e+003, 1.364715e-001
1.126224e+003, 1.335790e-001
1.128153e+003, 1.307630e-001
1.130081e+003, 1.283132e-001
1.132010e+003, 1.260505e-001
1.133938e+003, 1.232907e-001
1.135867e+003, 1.203913e-001
1.137795e+003, 1.168984e-001
1.139724e+003, 1.127570e-001
1.141652e+003, 1.077881e-001
1.143581e+003, 1.021920e-001
1.145509e+003, 9.616627e-002
1.147438e+003, 9.020960e-002
1.149366e+003, 8.432118e-002
1.151295e+003, 7.879800e-002
1.153223e+003, 7.379845e-002
1.155151e+003, 6.928536e-002
1.157080e+003, 6.506303e-002
1.159008e+003, 6.143947e-002
1.160937e+003, 5.802105e-002
1.162865e+003, 5.465951e-002
1.164794e+003, 5.131309e-002
1.166722e+003, 4.793552e-002
1.168651e+003, 4.418450e-002
1.170579e+003, 4.033909e-002
1.172508e+003, 3.652290e-002
1.174436e+003, 3.284963e-002
1.176365e+003, 2.955313e-002
1.178293e+003, 2.653004e-002
1.180222e+003, 2.355336e-002
1.182150e+003, 2.117811e-002
1.184078e+003, 1.901404e-002
1.186007e+003, 1.696468e-002
1.187935e+003, 1.524878e-002
1.189864e+003, 1.394477e-002
1.191792e+003, 1.263874e-002
1.193721e+003, 1.141101e-002
1.195649e+003, 1.049268e-002
1.197578e+003, 9.740445e-003
1.199506e+003, 8.922746e-003
1.201435e+003, 8.159579e-003
1.203363e+003, 7.550591e-003
1.205292e+003, 7.148283e-003
1.207220e+003, 6.639841e-003
1.209149e+003, 6.180075e-003
1.211077e+003, 5.700569e-003
1.213005e+003, 5.360346e-003
1.214934e+003, 5.068706e-003
1.216862e+003, 4.765462e-003
1.218791e+003, 4.411570e-003
1.220719e+003, 3.963493e-003
1.222648e+003, 3.648146e-003
1.224576e+003, 3.578773e-003
1.226505e+003, 3.349290e-003
1.228433e+003, 2.941925e-003
1.230362e+003, 2.701588e-003
1.232290e+003, 2.652312e-003
1.234219e+003, 2.393707e-003
1.236147e+003, 2.144279e-003
1.238076e+003, 1.959805e-003
1.240004e+003, 1.864600e-003
1.241932e+003, 1.599781e-003
1.243861e+003, 1.471617e-003
1.245789e+003, 1.434744e-003
1.247718e+003, 1.401276e-003
1.249646e+003, 1.322082e-003
1.251575e+003, 1.115352e-003
1.253503e+003, 8.636289e-004
1.255432e+003, 8.742902e-004
1.257360e+003, 9.136907e-004
1.259289e+003, 9.080705e-004
1.261217e+003, 7.004589e-004
1.263146e+003, 5.741065e-004
1.265074e+003, 5.138074e-004
1.267003e+003, 6.029662e-004
1.268931e+003, 4.623083e-004
1.270859e+003, 2.559539e-004
1.272788e+003, 1.642867e-004
1.274716e+003, 2.372510e-004
1.276645e+003, 2.128965e-004
1.278573e+003, 1.577023e-004
1.280502e+003, 8.477800e-005
1.282430e+003, 7.202876e-005
1.284359e+003, 1.046125e-004
1.286287e+003, 7.969977e-006
1.288216e+003, -1.555181e-004
1.290144e+003, -3.445358e-005
1.292073e+003, 1.667759e-004
1.294001e+003, 2.343634e-004
1.295930e+003, 9.348679e-005
1.297858e+003, -4.790361e-005
1.299786e+003, -9.728037e-005
1.301715e+003, -4.649338e-005
1.303643e+003, 1.628474e-005
1.305572e+003, 3.088767e-005
1.307500e+003, -1.401752e-004
1.309429e+003, -1.842767e-004
1.311357e+003, -1.052276e-004
1.313286e+003, -6.788216e-006
1.315214e+003, -1.066263e-004
1.317143e+003, -1.152912e-004
1.319071e+003, -1.603791e-004
1.321000e+003, -1.435916e-004
1.322928e+003, -1.297777e-004
1.324857e+003, -1.184242e-004
1.326785e+003, -1.455829e-004
1.328714e+003, -1.679774e-004
1.330642e+003, -7.503553e-005
1.332570e+003, -1.019935e-005
1.334499e+003, -1.560662e-004
1.336427e+003, -1.913520e-004
1.338356e+003, -2.320561e-004
1.340284e+003, -1.832916e-004
1.342213e+003, -1.693283e-004
1.344141e+003, -7.339208e-005
1.346070e+003, -8.036497e-005
1.347998e+003, -1.065601e-004
1.349927e+003, 1.131643e-005
1.351855e+003, 1.618125e-004
1.353784e+003, 7.679904e-005
1.355712e+003, 3.867758e-005
1.357641e+003, 1.087816e-004
1.359569e+003, 2.021200e-004
1.361497e+003, 2.076866e-004
1.363426e+003, 2.254250e-004
1.365354e+003, 1.119336e-004
1.367283e+003, 1.608300e-005
1.369211e+003, -1.188617e-005
1.371140e+003, -3.684372e-005
1.373068e+003, -8.570698e-005
1.374997e+003, -5.052301e-005
1.376925e+003, 3.576958e-005
1.378854e+003, 5.231388e-005
1.380782e+003, -4.208934e-005
1.382711e+003, -1.644728e-005
1.384639e+003, -1.354645e-004
1.386568e+003, -1.066692e-004
1.388496e+003, -1.434771e-004
1.390424e+003, -9.352215e-006
1.392353e+003, 1.720592e-004
1.394281e+003, 2.227624e-004
1.396210e+003, 1.857244e-004
1.398138e+003, 2.565611e-004
1.400067e+003, 1.682793e-004
1.401995e+003, -1.379661e-005
1.403924e+003, -6.093784e-006
1.405852e+003, 1.591899e-004
1.407781e+003, 2.112005e-004
1.409709e+003, 2.979848e-004
1.411638e+003, 3.933021e-004
1.413566e+003, 3.996510e-004
1.415495e+003, 3.627459e-004
1.417423e+003, 5.776110e-004
1.419351e+003, 6.173275e-004
1.421280e+003, 3.401975e-004
1.423208e+003, 3.229659e-004
1.425137e+003, 5.267331e-004
1.427065e+003, 4.655483e-004
1.428994e+003, 3.431335e-004
1.430922e+003, 3.708743e-004
1.432851e+003, 2.727152e-004
1.434779e+003, 3.185045e-004
1.436708e+003, 5.981443e-004
1.438636e+003, 3.909508e-004
1.440565e+003, 2.920909e-004
1.442493e+003, 2.419882e-004
1.444422e+003, 4.365350e-004
1.446350e+003, 6.468678e-004
1.448278e+003, 5.541616e-004
1.450207e+003, 3.695261e-004
1.452135e+003, 3.536489e-004
1.454064e+003, 4.926297e-004
1.455992e+003, 9.844870e-004
1.457921e+003, 9.882101e-004
1.459849e+003, 5.605740e-004
1.461778e+003, 3.570634e-004
1.463706e+003, 5.943359e-004
1.465635e+003, 5.777662e-004
1.467563e+003, 3.374099e-004
1.469492e+003, 3.391686e-004
1.471420e+003, 7.485697e-004
1.473349e+003, 8.537613e-004
1.475277e+003, 7.006159e-004
1.477205e+003, 4.408103e-004
1.479134e+003, 3.976896e-004
1.481062e+003, 5.925910e-004
1.482991e+003, 6.554343e-004
1.484919e+003, 6.231411e-004
1.486848e+003, 7.030038e-004
1.488776e+003, 6.231302e-004
1.490705e+003, 5.059332e-004
1.492633e+003, 4.083959e-004
1.494562e+003, 5.722677e-004
1.496490e+003, 8.340549e-004
1.498419e+003, 7.017649e-004
1.500347e+003, 4.870171e-004
1.502276e+003, 3.761696e-004
1.504204e+003, 7.944897e-004
1.506132e+003, 1.382460e-003
1.508061e+003, 1.118943e-003
1.509989e+003, 7.329286e-004
1.511918e+003, 6.115554e-004
1.513846e+003, 6.070136e-004
1.515775e+003, 7.833033e-004
1.517703e+003, 7.407003e-004
1.519632e+003, 7.270233e-004
1.521560e+003, 9.773703e-004
1.523489e+003, 8.385891e-004
1.525417e+003, 7.808981e-004
1.527346e+003, 6.376525e-004
1.529274e+003, 5.663888e-004
1.531203e+003, 6.084886e-004
1.533131e+003, 7.162421e-004
1.535059e+003, 6.555358e-004
1.536988e+003, 1.023289e-003
1.538916e+003, 1.641563e-003
1.540845e+003, 1.566804e-003
1.542773e+003, 1.229961e-003
1.544702e+003, 9.742952e-004
1.546630e+003, 8.744176e-004
1.548559e+003, 1.089989e-003
1.550487e+003, 1.168382e-003
1.552416e+003, 1.143506e-003
1.554344e+003, 1.144307e-003
1.556273e+003, 1.452461e-003
1.558201e+003, 2.104331e-003
1.560130e+003, 2.094698e-003
1.562058e+003, 1.357865e-003
1.563986e+003, 1.128566e-003
1.565915e+003, 1.453660e-003
1.567843e+003, 1.718457e-003
1.569772e+003, 1.618115e-003
1.571700e+003, 1.434712e-003
1.573629e+003, 1.474198e-003
1.575557e+003, 1.945923e-003
1.577486e+003, 2.071759e-003
1.579414e+003, 1.905922e-003
1.581343e+003, 1.803068e-003
1.583271e+003, 1.709544e-003
1.585200e+003, 1.558471e-003
1.587128e+003, 1.595682e-003
1.589057e+003, 1.514823e-003
1.590985e+003, 1.496322e-003
1.592913e+003, 1.603456e-003
1.594842e+003, 1.620916e-003
1.596770e+003, 1.644937e-003
1.598699e+003, 1.736664e-003
1.600627e+003, 1.626052e-003
1.602556e+003, 1.658828e-003
1.604484e+003, 1.649740e-003
1.606413e+003, 1.653430e-003
1.608341e+003, 1.735118e-003
1.610270e+003, 1.907952e-003
1.612198e+003, 1.857959e-003
1.614127e+003, 1.915739e-003
1.616055e+003, 2.218612e-003
1.617984e+003, 2.131667e-003
1.619912e+003, 1.835797e-003
1.621840e+003, 1.920153e-003
1.623769e+003, 1.994785e-003
1.625697e+003, 2.067598e-003
1.627626e+003, 2.032135e-003
1.629554e+003, 1.916562e-003
1.631483e+003, 1.882677e-003
1.633411e+003, 2.154708e-003
1.635340e+003, 2.445910e-003
1.637268e+003, 2.218837e-003
1.639197e+003, 1.817030e-003
1.641125e+003, 1.752225e-003
1.643054e+003, 1.766618e-003
1.644982e+003, 2.029098e-003
1.646911e+003, 2.223366e-003
1.648839e+003, 1.992931e-003
1.650767e+003, 2.021864e-003
1.652696e+003, 2.651961e-003
1.654624e+003, 2.270957e-003
1.656553e+003, 1.694089e-003
1.658481e+003, 1.647095e-003
1.660410e+003, 1.597675e-003
1.662338e+003, 1.493274e-003
1.664267e+003, 1.418810e-003
1.666195e+003, 1.444296e-003
1.668124e+003, 1.659054e-003
1.670052e+003, 1.441263e-003
1.671981e+003, 1.144568e-003
1.673909e+003, 1.431865e-003
1.675838e+003, 1.730008e-003
1.677766e+003, 1.416950e-003
1.679694e+003, 1.221593e-003
1.681623e+003, 1.267647e-003
1.683551e+003, 1.916867e-003
1.685480e+003, 1.690757e-003
1.687408e+003, 1.165993e-003
1.689337e+003, 1.037158e-003
1.691265e+003, 9.742018e-004
1.693194e+003, 1.073741e-003
1.695122e+003, 1.485185e-003
1.697051e+003, 1.451942e-003
1.698979e+003, 1.587397e-003
1.700908e+003, 1.433276e-003
1.702836e+003, 8.624026e-004
1.704765e+003, 9.372394e-004
1.706693e+003, 9.723298e-004
1.708621e+003, 8.937297e-004
1.710550e+003, 6.853761e-004
1.712478e+003, 5.963066e-004
1.714407e+003, 8.118483e-004
1.716335e+003, 1.214405e-003
1.718264e+003, 1.159088e-003
1.720192e+003, 5.430930e-004
1.722121e+003, 4.371566e-004
1.724049e+003, 5.967912e-004
1.725978e+003, 6.721531e-004
1.727906e+003, 3.721191e-004
1.729835e+003, 9.606845e-005
1.731763e+003, 1.260751e-004
1.733692e+003, 6.176636e-004
1.735620e+003, 2.039513e-004
1.737548e+003, -3.062209e-004
1.739477e+003, -1.478792e-004
1.741405e+003, -5.302425e-005
1.743334e+003, -1.149988e-004
1.745262e+003, -4.247981e-004
1.747191e+003, -3.759121e-004
1.749119e+003, -1.196105e-004
1.751048e+003, 2.097686e-004
1.752976e+003, 1.161752e-004
1.754905e+003, -2.895670e-005
1.756833e+003, 7.230146e-005
1.758762e+003, -1.503344e-004
1.760690e+003, -9.946115e-005
1.762619e+003, 1.969592e-004
1.764547e+003, 3.982608e-004
1.766475e+003, 1.102793e-004
1.768404e+003, -3.937440e-005
1.770332e+003, 2.487151e-005
1.772261e+003, 1.495799e-004
1.774189e+003, 6.055202e-005
1.776118e+003, 1.242423e-004
1.778046e+003, 9.721398e-005
1.779975e+003, 1.014484e-004
1.781903e+003, -3.524706e-005
1.783832e+003, 1.381420e-004
1.785760e+003, 1.337936e-004
1.787689e+003, -9.381994e-005
1.789617e+003, -4.150796e-006
1.791546e+003, 2.557104e-004
1.793474e+003, 1.536883e-004
1.795402e+003, 5.235044e-006
1.797331e+003, -3.954209e-005
1.799259e+003, -2.968857e-005
1.801188e+003, 3.676413e-005
1.803116e+003, 8.932317e-005
1.805045e+003, 1.366742e-004
1.806973e+003, 1.077703e-006
1.808902e+003, -1.076980e-004
1.810830e+003, -8.519556e-005
1.812759e+003, -1.100896e-004
1.814687e+003, -2.477231e-005
1.816616e+003, -2.307417e-004
1.818544e+003, -5.085418e-005
1.820473e+003, 2.035446e-004
1.822401e+003, 2.798667e-004
1.824329e+003, 3.626465e-004
1.826258e+003, 2.504353e-004
1.828186e+003, -8.922225e-005
1.830115e+003, 1.022441e-004
1.832043e+003, 7.120780e-005
1.833972e+003, -1.019603e-004
1.835900e+003, 2.285741e-004
1.837829e+003, 2.157182e-004
1.839757e+003, 2.907778e-005
1.841686e+003, 1.336504e-004
1.843614e+003, 2.162750e-004
1.845543e+003, 1.004762e-004
1.847471e+003, 9.807111e-005
1.849400e+003, -7.555231e-005
1.851328e+003, -1.810611e-004
1.853256e+003, 2.408085e-004
1.855185e+003, 5.563206e-005
1.857113e+003, 1.025216e-004
1.859042e+003, 2.618321e-004
1.860970e+003, 1.190154e-004
1.862899e+003, -2.750015e-004
1.864827e+003, 7.359435e-005
1.866756e+003, 5.646066e-004
1.868684e+003, 5.350158e-004
1.870613e+003, -2.519755e-004
1.872541e+003, -5.326667e-004
1.874470e+003, -3.918968e-005
1.876398e+003, -4.177895e-005
1.878327e+003, -1.984482e-004
1.880255e+003, 7.925001e-005
1.882183e+003, -2.567137e-004
1.884112e+003, -3.184469e-004
1.886040e+003, -2.685472e-004
1.887969e+003, -2.093483e-004
1.889897e+003, -4.639452e-004
1.891826e+003, -5.638356e-004
1.893754e+003, -4.630106e-004
1.895683e+003, -3.230396e-004
1.897611e+003, -3.970262e-004
1.899540e+003, -3.359651e-004
1.901468e+003, -8.662501e-005
1.903397e+003, 1.446889e-004
1.905325e+003, -2.830315e-004
1.907254e+003, -2.178046e-004
1.909182e+003, 1.437367e-004
1.911110e+003, 1.417919e-004
1.913039e+003, -8.772258e-005
1.914967e+003, -1.057020e-004
1.916896e+003, -2.582734e-004
1.918824e+003, 2.443676e-004
1.920753e+003, 2.123377e-004
1.922681e+003, -2.821708e-004
1.924610e+003, 2.512920e-004
1.926538e+003, 1.076949e-004
1.928467e+003, -1.256631e-003
1.930395e+003, -1.228445e-003
1.932324e+003, -8.395969e-004
1.934252e+003, -1.059501e-003
1.936181e+003, -1.469754e-003
1.938109e+003, -1.100480e-003
1.940037e+003, -2.303526e-004
1.941966e+003, 3.450894e-004
1.943894e+003, -6.018814e-004
1.945823e+003, -1.621872e-003
1.947751e+003, -1.709016e-003
1.949680e+003, -7.123114e-004
1.951608e+003, -6.829717e-004
1.953537e+003, -1.594642e-003
1.955465e+003, -1.736282e-003
1.957394e+003, -1.124384e-003
1.959322e+003, -1.217163e-003
1.961251e+003, -1.505716e-003
1.963179e+003, -1.732160e-003
1.965108e+003, -2.211524e-003
1.967036e+003, -2.040953e-003
1.968964e+003, -1.158981e-003
1.970893e+003, -1.789798e-003
1.972821e+003, -2.816302e-003
1.974750e+003, -2.879966e-003
1.976678e+003, -1.747731e-003
1.978607e+003, 5.216820e-004
1.980535e+003, 5.702571e-004
1.982464e+003, -1.577277e-003
1.984392e+003, -1.339882e-003
1.986321e+003, -1.210867e-003
1.988249e+003, -4.183603e-004
1.990178e+003, -7.039805e-004
1.992106e+003, -1.968977e-003
1.994035e+003, -2.652559e-003
1.995963e+003, -2.696793e-003
1.997891e+003, -3.005352e-003
1.999820e+003, -2.301346e-003
2.001748e+003, -1.563754e-003
2.003677e+003, -1.606679e-003
2.005605e+003, -1.123474e-003
2.007534e+003, -7.894072e-004
2.009462e+003, -1.737713e-003
2.011391e+003, -1.466236e-003
2.013319e+003, -8.953153e-004
2.015248e+003, -1.196960e-003
2.017176e+003, -2.256989e-003
2.019105e+003, -2.712120e-003
2.021033e+003, -3.267561e-003
2.022962e+003, -3.028034e-003
2.024890e+003, -3.365301e-003
2.026818e+003, -3.112776e-003
2.028747e+003, -4.788798e-003
2.030675e+003, -4.483925e-003
2.032604e+003, -2.092860e-003
2.034532e+003, -6.461799e-004
2.036461e+003, -9.891198e-004
2.038389e+003, -1.834647e-003
2.040318e+003, -2.377818e-003
2.042246e+003, -2.542153e-003
2.044175e+003, -1.953739e-003
2.046103e+003, -1.091450e-003
2.048031e+003, -1.355547e-003
2.049960e+003, -8.024257e-004
2.051888e+003, -5.676495e-004
2.053817e+003, -1.106099e-003
2.055745e+003, -1.173874e-003
2.057674e+003, -1.489425e-003
2.059602e+003, -2.027723e-003
2.061531e+003, -1.864678e-003
2.063459e+003, -1.648815e-003
2.065388e+003, -1.972033e-003
2.067316e+003, -2.385167e-003
2.069245e+003, -2.124020e-003
2.071173e+003, -1.877440e-003
2.073102e+003, -2.145317e-003
2.075030e+003, -2.082560e-003
2.076958e+003, -1.395788e-003
2.078887e+003, -1.559929e-003
2.080815e+003, -1.767696e-003
2.082744e+003, -2.113092e-003
2.084672e+003, -2.154397e-003
2.086601e+003, -2.156114e-003
2.088529e+003, -1.883367e-003
2.090458e+003, -2.042137e-003
2.092386e+003, -2.719179e-003
2.094315e+003, -3.053716e-003
2.096243e+003, -2.384598e-003
2.098172e+003, -2.268145e-003
2.100100e+003, -2.248920e-003
2.102029e+003, -2.333937e-003
2.103957e+003, -2.055532e-003
2.105885e+003, -2.235904e-003
2.107814e+003, -2.085013e-003
2.109742e+003, -1.963952e-003
2.111671e+003, -1.466549e-003
2.113599e+003, -7.505771e-004
2.115528e+003, -1.270732e-003
2.117456e+003, -2.187507e-003
2.119385e+003, -2.241270e-003
2.121313e+003, -2.012316e-003
2.123242e+003, -2.213627e-003
2.125170e+003, -2.832267e-003
2.127099e+003, -2.726414e-003
2.129027e+003, -3.092519e-003
2.130956e+003, -3.233026e-003
2.132884e+003, -3.490784e-003
2.134813e+003, -3.469910e-003
2.136741e+003, -3.940076e-003
2.138669e+003, -3.872220e-003
2.140598e+003, -3.400946e-003
2.142526e+003, -2.637250e-003
2.144455e+003, -2.668389e-003
2.146383e+003, -3.128149e-003
2.148312e+003, -3.625661e-003
2.150240e+003, -2.060444e-003
2.152169e+003, -2.294577e-003
2.154097e+003, -4.075271e-003
2.156026e+003, -4.895815e-003
2.157954e+003, -2.784641e-003
2.159883e+003, -8.869944e-004
2.161811e+003, -1.179664e-004
2.163740e+003, -8.791953e-004
2.165668e+003, -2.369597e-003
2.167596e+003, -3.487849e-003
2.169525e+003, -3.019722e-003
2.171453e+003, -2.800483e-003
2.173382e+003, -3.451454e-003
2.175310e+003, -2.259283e-003
2.177239e+003, -1.716832e-003
2.179167e+003, -3.179670e-003
2.181096e+003, -3.036043e-003
2.183024e+003, -2.127800e-003
2.184953e+003, -1.095809e-003
2.186881e+003, -6.833437e-004
2.188810e+003, -5.808856e-004
2.190738e+003, 2.094394e-004
2.192667e+003, 7.314496e-004
2.194595e+003, -3.176424e-004
2.196523e+003, -1.486313e-003
2.198452e+003, -1.704475e-003
2.200380e+003, -2.006494e-003
2.202309e+003, -2.505909e-003
2.204237e+003, -2.028085e-003
2.206166e+003, -1.742050e-003
2.208094e+003, -1.840333e-003
2.210023e+003, -1.781788e-003
2.211951e+003, -1.645582e-003
2.213880e+003, -1.583598e-003
2.215808e+003, -1.462929e-003
2.217737e+003, -1.482325e-003
2.219665e+003, -2.207102e-003
2.221594e+003, -2.652287e-003
2.223522e+003, -2.085748e-003
2.225450e+003, -1.402661e-003
2.227379e+003, -1.216157e-003
2.229307e+003, -2.175566e-003
2.231236e+003, -2.192421e-003
2.233164e+003, -1.404642e-003
2.235093e+003, -1.264081e-003
2.237021e+003, -1.576619e-003
2.238950e+003, -2.060394e-003
2.240878e+003, -1.857578e-003
2.242807e+003, -1.691609e-003
2.244735e+003, -1.896037e-003
2.246664e+003, -1.340729e-003
2.248592e+003, -2.304473e-003
2.250521e+003, -2.411636e-003
2.252449e+003, -1.554260e-003
2.254377e+003, -1.398368e-003
2.256306e+003, -1.710074e-003
2.258234e+003, -7.702395e-004
2.260163e+003, 2.729310e-004
2.262091e+003, -1.217898e-004
2.264020e+003, -1.077166e-003
2.265948e+003, -6.284443e-004
2.267877e+003, -5.181312e-004
2.269805e+003, -1.733744e-003
2.271734e+003, -1.554415e-003
2.273662e+003, -2.590452e-004
2.275591e+003, -3.260491e-004
2.277519e+003, -9.223364e-004
2.279448e+003, -1.171264e-003
2.281376e+003, -1.155040e-003
2.283304e+003, -3.620192e-004
2.285233e+003, 6.948136e-004
2.287161e+003, 7.647922e-004
2.289090e+003, 3.217183e-004
2.291018e+003, -1.511267e-004
2.292947e+003, 5.379146e-005
2.294875e+003, 3.587381e-004
2.296804e+003, 4.380654e-004
2.298732e+003, 2.623512e-004
2.300661e+003, -1.765335e-004
2.302589e+003, -2.531880e-004
2.304518e+003, 2.747737e-004
2.306446e+003, 5.349431e-004
2.308375e+003, 4.314726e-004
2.310303e+003, 4.108496e-004
2.312231e+003, 6.633862e-004
2.314160e+003, 6.959356e-004
2.316088e+003, 6.844588e-004
2.318017e+003, 8.135428e-004
2.319945e+003, 9.692481e-004
2.321874e+003, 1.315567e-003
2.323802e+003, 1.874922e-003
2.325731e+003, 1.516617e-003
2.327659e+003, 9.032257e-004
2.329588e+003, 8.889090e-004
2.331516e+003, 1.412853e-003
2.333445e+003, 1.523893e-003
2.335373e+003, 1.390317e-003
2.337302e+003, 1.265375e-003
2.339230e+003, 1.263471e-003
2.341158e+003, 1.163859e-003
2.343087e+003, 7.231251e-004
2.345015e+003, 2.428409e-004
2.346944e+003, 3.943384e-004
2.348872e+003, 6.357385e-004
2.350801e+003, 5.954985e-004
2.352729e+003, 1.178898e-003
2.354658e+003, 1.533605e-003
2.356586e+003, 1.542603e-003
2.358515e+003, 1.850788e-003
2.360443e+003, 1.754287e-003
2.362372e+003, 1.775480e-003
2.364300e+003, 1.954061e-003
2.366229e+003, 1.467413e-003
2.368157e+003, 7.354951e-004
2.370085e+003, 9.174881e-004
2.372014e+003, 7.260751e-004
2.373942e+003, 6.226111e-004
2.375871e+003, 6.129557e-004
2.377799e+003, 5.217745e-004
2.379728e+003, 2.334223e-004
2.381656e+003, 6.052098e-004
2.383585e+003, 8.768668e-004
2.385513e+003, 6.303911e-004
2.387442e+003, 3.801720e-004
2.389370e+003, 7.046108e-006
2.391299e+003, 2.060070e-006
2.393227e+003, 5.470573e-004
2.395156e+003, 7.407829e-004
2.397084e+003, 9.525835e-004
2.399012e+003, 6.291067e-004
2.400941e+003, 3.393482e-004
2.402869e+003, 7.089893e-004
2.404798e+003, 7.515794e-004
2.406726e+003, 5.459143e-004
2.408655e+003, 9.964841e-004
2.410583e+003, 9.884876e-004
2.412512e+003, 9.232708e-004
2.414440e+003, 7.778900e-004
2.416369e+003, 8.233815e-004
2.418297e+003, 6.696825e-004
2.420226e+003, 6.662846e-004
2.422154e+003, 5.362451e-004
2.424083e+003, 3.859263e-004
2.426011e+003, 4.779886e-004
2.427939e+003, 4.542236e-004
2.429868e+003, 6.707115e-004
2.431796e+003, 1.064855e-003
2.433725e+003, 1.253310e-003
2.435653e+003, 8.016041e-004
2.437582e+003, 1.914349e-004
2.439510e+003, 3.907275e-004
2.441439e+003, 7.346977e-004
2.443367e+003, 8.205090e-004
2.445296e+003, 8.787286e-004
2.447224e+003, 1.258557e-003
2.449153e+003, 1.226401e-003
2.451081e+003, 9.791626e-004
2.453010e+003, 1.251036e-003
2.454938e+003, 1.530898e-003
2.456866e+003, 1.428164e-003
2.458795e+003, 9.785747e-004
2.460723e+003, 5.961776e-004
2.462652e+003, 1.028869e-003
2.464580e+003, 1.649281e-003
2.466509e+003, 1.724158e-003
2.468437e+003, 1.521051e-003
2.470366e+003, 1.631018e-003
2.472294e+003, 1.579704e-003
2.474223e+003, 1.113715e-003
2.476151e+003, 8.304508e-004
2.478080e+003, 1.321777e-003
2.480008e+003, 1.087118e-003
2.481937e+003, 1.607031e-003
2.483865e+003, 1.975291e-003
2.485793e+003, 1.344612e-003
2.487722e+003, 9.991629e-004
2.489650e+003, 1.153278e-003
2.491579e+003, 1.014429e-003
2.493507e+003, 1.753210e-003
2.495436e+003, 2.280006e-003
2.497364e+003, 2.135338e-003
2.499293e+003, 1.812106e-003
2.501221e+003, 1.490296e-003
2.503150e+003, 1.486628e-003
2.505078e+003, 1.383549e-003
2.507007e+003, 1.006576e-003
2.508935e+003, 9.073385e-004
2.510864e+003, 1.247724e-003
2.512792e+003, 1.991288e-003
2.514720e+003, 2.028044e-003
2.516649e+003, 1.949485e-003
2.518577e+003, 1.600586e-003
2.520506e+003, 1.030219e-003
2.522434e+003, 1.055603e-003
2.524363e+003, 1.220184e-003
2.526291e+003, 7.823463e-004
2.528220e+003, 1.162926e-003
2.530148e+003, 1.822050e-003
2.532077e+003, 1.776126e-003
2.534005e+003, 1.885129e-003
2.535934e+003, 1.867458e-003
2.537862e+003, 1.709943e-003
2.539791e+003, 1.460441e-003
2.541719e+003, 1.243918e-003
2.543647e+003, 1.336077e-003
2.545576e+003, 1.946967e-003
2.547504e+003, 1.918763e-003
2.549433e+003, 1.651327e-003
2.551361e+003, 2.065300e-003
2.553290e+003, 1.924730e-003
2.555218e+003, 1.429977e-003
2.557147e+003, 1.371416e-003
2.559075e+003, 1.592526e-003
2.561004e+003, 1.362950e-003
2.562932e+003, 1.157811e-003
2.564861e+003, 1.347644e-003
2.566789e+003, 1.522379e-003
2.568718e+003, 1.709251e-003
2.570646e+003, 1.981842e-003
2.572574e+003, 1.709683e-003
2.574503e+003, 1.571972e-003
2.576431e+003, 1.627863e-003
2.578360e+003, 1.546608e-003
2.580288e+003, 1.290098e-003
2.582217e+003, 1.143141e-003
2.584145e+003, 8.352223e-004
2.586074e+003, 1.127951e-003
2.588002e+003, 1.503619e-003
2.589931e+003, 1.274730e-003
2.591859e+003, 1.068237e-003
2.593788e+003, 1.130111e-003
2.595716e+003, 1.003197e-003
2.597645e+003, 1.161171e-003
2.599573e+003, 1.380716e-003
2.601501e+003, 1.463387e-003
2.603430e+003, 1.651055e-003
2.605358e+003, 1.422425e-003
2.607287e+003, 9.805184e-004
2.609215e+003, 9.601307e-004
2.611144e+003, 1.184008e-003
2.613072e+003, 1.258296e-003
2.615001e+003, 7.597022e-004
2.616929e+003, 6.567535e-004
2.618858e+003, 1.207050e-003
2.620786e+003, 1.385463e-003
2.622715e+003, 1.160982e-003
2.624643e+003, 1.247239e-003
2.626572e+003, 1.274380e-003
2.628500e+003, 1.097461e-003
2.630428e+003, 1.020015e-003
2.632357e+003, 1.104485e-003
2.634285e+003, 1.294725e-003
2.636214e+003, 1.555596e-003
2.638142e+003, 1.360856e-003
2.640071e+003, 1.159208e-003
2.641999e+003, 1.095825e-003
2.643928e+003, 1.182825e-003
2.645856e+003, 8.924550e-004
2.647785e+003, 7.934569e-004
2.649713e+003, 1.003767e-003
2.651642e+003, 1.003530e-003
2.653570e+003, 6.401729e-004
2.655499e+003, 6.365885e-004
2.657427e+003, 8.824352e-004
2.659355e+003, 1.350714e-003
2.661284e+003, 1.190855e-003
2.663212e+003, 8.745538e-004
2.665141e+003, 8.976342e-004
2.667069e+003, 1.152840e-003
2.668998e+003, 1.174919e-003
2.670926e+003, 8.712416e-004
2.672855e+003, 4.835633e-004
2.674783e+003, 7.219089e-004
2.676712e+003, 8.056755e-004
2.678640e+003, 4.462528e-004
2.680569e+003, 4.021489e-004
2.682497e+003, 7.934527e-004
2.684426e+003, 8.982545e-004
2.686354e+003, 8.554303e-004
2.688282e+003, 9.144319e-004
2.690211e+003, 9.654019e-004
2.692139e+003, 7.398032e-004
2.694068e+003, 7.487295e-004
2.695996e+003, 9.324325e-004
2.697925e+003, 1.023551e-003
2.699853e+003, 8.899880e-004
2.701782e+003, 9.154400e-004
2.703710e+003, 9.366247e-004
2.705639e+003, 8.145618e-004
2.707567e+003, 6.935935e-004
2.709496e+003, 1.062806e-003
2.711424e+003, 1.127678e-003
2.713353e+003, 1.175186e-003
2.715281e+003, 1.620361e-003
2.717209e+003, 1.665779e-003
2.719138e+003, 1.291512e-003
2.721066e+003, 1.359311e-003
2.722995e+003, 1.377076e-003
2.724923e+003, 1.448740e-003
2.726852e+003, 1.552988e-003
2.728780e+003, 1.323880e-003
2.730709e+003, 6.844028e-004
2.732637e+003, 1.019593e-003
2.734566e+003, 1.266186e-003
2.736494e+003, 1.013682e-003
2.738423e+003, 1.048542e-003
2.740351e+003, 1.442852e-003
2.742280e+003, 1.709902e-003
2.744208e+003, 1.788870e-003
2.746136e+003, 1.472408e-003
2.748065e+003, 1.422117e-003
2.749993e+003, 1.582225e-003
2.751922e+003, 1.971710e-003
2.753850e+003, 1.752389e-003
2.755779e+003, 1.763401e-003
2.757707e+003, 1.861363e-003
2.759636e+003, 1.632180e-003
2.761564e+003, 1.802108e-003
2.763493e+003, 2.031638e-003
2.765421e+003, 1.963485e-003
2.767350e+003, 1.847851e-003
2.769278e+003, 1.608205e-003
2.771207e+003, 1.822103e-003
2.773135e+003, 1.869292e-003
2.775063e+003, 1.912218e-003
2.776992e+003, 1.919168e-003
2.778920e+003, 2.317127e-003
2.780849e+003, 2.338215e-003
2.782777e+003, 2.015706e-003
2.784706e+003, 1.843084e-003
2.786634e+003, 1.855642e-003
2.788563e+003, 1.695736e-003
2.790491e+003, 1.921830e-003
2.792420e+003, 2.574810e-003
2.794348e+003, 2.410793e-003
2.796277e+003, 1.994859e-003
2.798205e+003, 2.060408e-003
2.800134e+003, 2.016755e-003
2.802062e+003, 2.270659e-003
2.803990e+003, 2.620953e-003
2.805919e+003, 3.215565e-003
2.807847e+003, 3.085883e-003
2.809776e+003, 2.822026e-003
2.811704e+003, 2.657573e-003
2.813633e+003, 2.662386e-003
2.815561e+003, 2.857759e-003
2.817490e+003, 3.175099e-003
2.819418e+003, 3.239278e-003
2.821347e+003, 2.983669e-003
2.823275e+003, 2.781765e-003
2.825204e+003, 2.956218e-003
2.827132e+003, 3.052422e-003
2.829061e+003, 3.379688e-003
2.830989e+003, 3.196519e-003
2.832917e+003, 3.059797e-003
2.834846e+003, 3.523746e-003
2.836774e+003, 4.119579e-003
2.838703e+003, 4.034238e-003
2.840631e+003, 3.668096e-003
2.842560e+003, 3.644324e-003
2.844488e+003, 3.868863e-003
2.846417e+003, 3.472111e-003
2.848345e+003, 3.451276e-003
2.850274e+003, 4.001981e-003
2.852202e+003, 4.112209e-003
2.854131e+003, 3.567728e-003
2.856059e+003, 3.568525e-003
2.857988e+003, 4.129482e-003
2.859916e+003, 4.028068e-003
2.861844e+003, 3.718504e-003
2.863773e+003, 3.401366e-003
2.865701e+003, 3.420128e-003
2.867630e+003, 4.066959e-003
2.869558e+003, 3.895808e-003
2.871487e+003, 3.604500e-003
2.873415e+003, 3.309621e-003
2.875344e+003, 2.962366e-003
2.877272e+003, 3.320563e-003
2.879201e+003, 3.792152e-003
2.881129e+003, 3.652603e-003
2.883058e+003, 3.960229e-003
2.884986e+003, 4.306321e-003
2.886915e+003, 3.888858e-003
2.888843e+003, 3.529719e-003
2.890771e+003, 3.870610e-003
2.892700e+003, 4.265901e-003
2.894628e+003, 4.046554e-003
2.896557e+003, 3.708354e-003
2.898485e+003, 4.285322e-003
2.900414e+003, 4.997134e-003
2.902342e+003, 5.139398e-003
2.904271e+003, 4.759856e-003
2.906199e+003, 4.473075e-003
2.908128e+003, 4.791132e-003
2.910056e+003, 4.766144e-003
2.911985e+003, 4.327064e-003
2.913913e+003, 4.766162e-003
2.915842e+003, 5.300285e-003
2.917770e+003, 5.269036e-003
2.919698e+003, 5.527840e-003
2.921627e+003, 5.707875e-003
2.923555e+003, 5.267032e-003
2.925484e+003, 5.111567e-003
2.927412e+003, 5.142303e-003
2.929341e+003, 5.133022e-003
2.931269e+003, 5.192670e-003
2.933198e+003, 5.203697e-003
2.935126e+003, 5.120701e-003
2.937055e+003, 4.759079e-003
2.938983e+003, 4.191895e-003
2.940912e+003, 4.122791e-003
2.942840e+003, 3.749614e-003
2.944769e+003, 3.687486e-003
2.946697e+003, 3.773036e-003
2.948625e+003, 3.982474e-003
2.950554e+003, 4.461975e-003
2.952482e+003, 4.812554e-003
2.954411e+003, 4.596303e-003
2.956339e+003, 4.999475e-003
2.958268e+003, 4.981875e-003
2.960196e+003, 4.375379e-003
2.962125e+003, 4.088037e-003
2.964053e+003, 4.318603e-003
2.965982e+003, 4.540237e-003
2.967910e+003, 4.880739e-003
2.969839e+003, 5.113882e-003
2.971767e+003, 5.447331e-003
2.973696e+003, 4.992623e-003
2.975624e+003, 4.364348e-003
2.977552e+003, 4.014813e-003
2.979481e+003, 4.188151e-003
2.981409e+003, 4.547397e-003
2.983338e+003, 3.996040e-003
2.985266e+003, 3.846628e-003
2.987195e+003, 4.083912e-003
2.989123e+003, 4.105426e-003
2.991052e+003, 4.310906e-003
2.992980e+003, 4.856667e-003
2.994909e+003, 4.985404e-003
2.996837e+003, 4.796946e-003
2.998766e+003, 4.632999e-003
3.000694e+003, 3.942496e-003
3.002623e+003, 4.406443e-003
3.004551e+003, 5.162260e-003
3.006479e+003, 5.635413e-003
3.008408e+003, 5.590975e-003
3.010336e+003, 5.142459e-003
3.012265e+003, 4.828553e-003
3.014193e+003, 5.886913e-003
3.016122e+003, 6.843998e-003
3.018050e+003, 6.451263e-003
3.019979e+003, 5.871676e-003
3.021907e+003, 5.992705e-003
3.023836e+003, 5.711317e-003
3.025764e+003, 5.647094e-003
3.027693e+003, 5.836593e-003
3.029621e+003, 5.849788e-003
3.031550e+003, 5.883580e-003
3.033478e+003, 5.892067e-003
3.035406e+003, 5.650140e-003
3.037335e+003, 5.976490e-003
3.039263e+003, 6.109372e-003
3.041192e+003, 6.233319e-003
3.043120e+003, 5.825215e-003
3.045049e+003, 5.871166e-003
3.046977e+003, 6.524561e-003
3.048906e+003, 7.445344e-003
3.050834e+003, 7.215858e-003
3.052763e+003, 6.710681e-003
3.054691e+003, 7.093809e-003
3.056620e+003, 7.720051e-003
3.058548e+003, 7.380229e-003
3.060477e+003, 7.131712e-003
3.062405e+003, 6.751764e-003
3.064333e+003, 7.018516e-003
3.066262e+003, 7.393121e-003
3.068190e+003, 7.925063e-003
3.070119e+003, 7.979266e-003
3.072047e+003, 8.254233e-003
3.073976e+003, 8.867188e-003
3.075904e+003, 9.167851e-003
3.077833e+003, 8.646527e-003
3.079761e+003, 8.675875e-003
3.081690e+003, 8.481429e-003
3.083618e+003, 8.544935e-003
3.085547e+003, 8.839846e-003
3.087475e+003, 9.188536e-003
3.089404e+003, 8.860478e-003
3.091332e+003, 9.107404e-003
3.093260e+003, 9.270356e-003
3.095189e+003, 9.244020e-003
3.097117e+003, 9.689926e-003
3.099046e+003, 9.596054e-003
3.100974e+003, 8.863980e-003
3.102903e+003, 8.557091e-003
3.104831e+003, 8.933929e-003
3.106760e+003, 9.859867e-003
3.108688e+003, 1.022546e-002
3.110617e+003, 1.045956e-002
3.112545e+003, 1.073724e-002
3.114474e+003, 1.115930e-002
3.116402e+003, 1.125783e-002
3.118331e+003, 1.145162e-002
3.120259e+003, 1.160791e-002
3.122188e+003, 1.181731e-002
3.124116e+003, 1.190355e-002
3.126044e+003, 1.257343e-002
3.127973e+003, 1.232796e-002
3.129901e+003, 1.240767e-002
3.131830e+003, 1.289586e-002
3.133758e+003, 1.334119e-002
3.135687e+003, 1.392428e-002
3.137615e+003, 1.449593e-002
3.139544e+003, 1.408004e-002
3.141472e+003, 1.320912e-002
3.143401e+003, 1.364038e-002
3.145329e+003, 1.454326e-002
3.147258e+003, 1.484763e-002
3.149186e+003, 1.604501e-002
3.151115e+003, 1.618911e-002
3.153043e+003, 1.542434e-002
3.154971e+003, 1.553453e-002
3.156900e+003, 1.580832e-002
3.158828e+003, 1.577383e-002
3.160757e+003, 1.657707e-002
3.162685e+003, 1.704536e-002
3.164614e+003, 1.730707e-002
3.166542e+003, 1.764320e-002
3.168471e+003, 1.808778e-002
3.170399e+003, 1.806419e-002
3.172328e+003, 1.792950e-002
3.174256e+003, 1.883361e-002
3.176185e+003, 1.906409e-002
3.178113e+003, 1.840415e-002
3.180042e+003, 1.881249e-002
3.181970e+003, 1.935797e-002
3.183898e+003, 2.035762e-002
3.185827e+003, 2.086913e-002
3.187755e+003, 2.127406e-002
3.189684e+003, 2.117339e-002
3.191612e+003, 2.121754e-002
3.193541e+003, 2.147096e-002
3.195469e+003, 2.228139e-002
3.197398e+003, 2.298067e-002
3.199326e+003, 2.387879e-002
3.201255e+003, 2.397271e-002
3.203183e+003, 2.415270e-002
3.205112e+003, 2.511523e-002
3.207040e+003, 2.592441e-002
3.208969e+003, 2.641552e-002
3.210897e+003, 2.753918e-002
3.212825e+003, 2.890186e-002
3.214754e+003, 2.939756e-002
3.216682e+003, 2.913722e-002
3.218611e+003, 2.992162e-002
3.220539e+003, 3.104063e-002
3.222468e+003, 3.193754e-002
3.224396e+003, 3.211854e-002
3.226325e+003, 3.229045e-002
3.228253e+003, 3.286777e-002
3.230182e+003, 3.303413e-002
3.232110e+003, 3.401489e-002
3.234039e+003, 3.500228e-002
3.235967e+003, 3.526293e-002
3.237896e+003, 3.607106e-002
3.239824e+003, 3.759728e-002
3.241752e+003, 3.849545e-002
3.243681e+003, 3.861953e-002
3.245609e+003, 3.935757e-002
3.247538e+003, 4.022991e-002
3.249466e+003, 4.042851e-002
3.251395e+003, 4.110730e-002
3.253323e+003, 4.205867e-002
3.255252e+003, 4.189193e-002
3.257180e+003, 4.231112e-002
3.259109e+003, 4.324596e-002
3.261037e+003, 4.337816e-002
3.262966e+003, 4.291384e-002
3.264894e+003, 4.292827e-002
3.266823e+003, 4.295095e-002
3.268751e+003, 4.251076e-002
3.270679e+003, 4.224587e-002
3.272608e+003, 4.271802e-002
3.274536e+003, 4.229379e-002
3.276465e+003, 4.191322e-002
3.278393e+003, 4.182994e-002
3.280322e+003, 4.143833e-002
3.282250e+003, 4.013206e-002
3.284179e+003, 3.931600e-002
3.286107e+003, 3.871961e-002
3.288036e+003, 3.772279e-002
3.289964e+003, 3.609124e-002
3.291893e+003, 3.497363e-002
3.293821e+003, 3.385492e-002
3.295750e+003, 3.268506e-002
3.297678e+003, 3.231923e-002
3.299606e+003, 3.163235e-002
3.301535e+003, 3.047639e-002
3.303463e+003, 2.955575e-002
3.305392e+003, 2.849063e-002
3.307320e+003, 2.807449e-002
3.309249e+003, 2.759182e-002
3.311177e+003, 2.676935e-002
3.313106e+003, 2.577874e-002
3.315034e+003, 2.564010e-002
3.316963e+003, 2.524996e-002
3.318891e+003, 2.447743e-002
3.320820e+003, 2.376639e-002
3.322748e+003, 2.359900e-002
3.324677e+003, 2.403177e-002
3.326605e+003, 2.394406e-002
3.328533e+003, 2.346723e-002
3.330462e+003, 2.319104e-002
3.332390e+003, 2.264111e-002
3.334319e+003, 2.239344e-002
3.336247e+003, 2.189701e-002
3.338176e+003, 2.144452e-002
3.340104e+003, 2.149398e-002
3.342033e+003, 2.167835e-002
3.343961e+003, 2.191052e-002
3.345890e+003, 2.211293e-002
3.347818e+003, 2.202160e-002
3.349747e+003, 2.251689e-002
3.351675e+003, 2.253413e-002
3.353604e+003, 2.295151e-002
3.355532e+003, 2.350323e-002
3.357460e+003, 2.354127e-002
3.359389e+003, 2.322825e-002
3.361317e+003, 2.335701e-002
3.363246e+003, 2.354843e-002
3.365174e+003, 2.383991e-002
3.367103e+003, 2.345276e-002
3.369031e+003, 2.332282e-002
3.370960e+003, 2.445320e-002
3.372888e+003, 2.529893e-002
3.374817e+003, 2.541488e-002
3.376745e+003, 2.558857e-002
3.378674e+003, 2.608514e-002
3.380602e+003, 2.668177e-002
3.382531e+003, 2.701271e-002
3.384459e+003, 2.772252e-002
3.386387e+003, 2.801859e-002
3.388316e+003, 2.835407e-002
3.390244e+003, 2.940214e-002
3.392173e+003, 3.067313e-002
3.394101e+003, 3.142105e-002
3.396030e+003, 3.197052e-002
3.397958e+003, 3.311446e-002
3.399887e+003, 3.529730e-002
3.401815e+003, 3.749906e-002
3.403744e+003, 3.922839e-002
3.405672e+003, 4.014720e-002
3.407601e+003, 4.261452e-002
3.409529e+003, 4.428282e-002
3.411458e+003, 4.465334e-002
3.413386e+003, 4.557229e-002
3.415314e+003, 4.569373e-002
3.417243e+003, 4.526794e-002
3.419171e+003, 4.491311e-002
3.421100e+003, 4.406956e-002
3.423028e+003, 4.387150e-002
3.424957e+003, 4.392099e-002
3.426885e+003, 4.371652e-002
3.428814e+003, 4.334420e-002
3.430742e+003, 4.363848e-002
3.432671e+003, 4.542857e-002
3.434599e+003, 4.678889e-002
3.436528e+003, 4.735726e-002
3.438456e+003, 4.908711e-002
3.440385e+003, 5.182327e-002
3.442313e+003, 5.546791e-002
3.444241e+003, 5.841189e-002
3.446170e+003, 6.099418e-002
3.448098e+003, 6.335648e-002
3.450027e+003, 6.588257e-002
3.451955e+003, 6.827528e-002
3.453884e+003, 7.154876e-002
3.455812e+003, 7.444318e-002
3.457741e+003, 7.720920e-002
3.459669e+003, 8.046629e-002
3.461598e+003, 8.192734e-002
3.463526e+003, 8.267083e-002
3.465455e+003, 8.391638e-002
3.467383e+003, 8.437105e-002
3.469312e+003, 8.337229e-002
3.471240e+003, 8.185922e-002
3.473168e+003, 8.143870e-002
3.475097e+003, 8.027771e-002
3.477025e+003, 7.806498e-002
3.478954e+003, 7.533856e-002
3.480882e+003, 7.201865e-002
3.482811e+003, 6.815191e-002
3.484739e+003, 6.320389e-002
3.486668e+003, 5.902943e-002
3.488596e+003, 5.514918e-002
3.490525e+003, 4.934598e-002
3.492453e+003, 4.389327e-002
3.494382e+003, 4.030735e-002
3.496310e+003, 3.751738e-002
3.498239e+003, 3.439700e-002
3.500167e+003, 3.172188e-002
3.502095e+003, 2.954836e-002
3.504024e+003, 2.716909e-002
3.505952e+003, 2.603606e-002
3.507881e+003, 2.552291e-002
3.509809e+003, 2.391836e-002
3.511738e+003, 2.253481e-002
3.513666e+003, 2.126586e-002
3.515595e+003, 1.934512e-002
3.517523e+003, 1.817642e-002
3.519452e+003, 1.858613e-002
3.521380e+003, 1.716768e-002
3.523309e+003, 1.549507e-002
3.525237e+003, 1.408521e-002
3.527166e+003, 1.274947e-002
3.529094e+003, 1.147352e-002
3.531022e+003, 1.046026e-002
3.532951e+003, 9.639516e-003
3.534879e+003, 9.733884e-003
3.536808e+003, 8.864726e-003
3.538736e+003, 6.865563e-003
3.540665e+003, 5.103752e-003
3.542593e+003, 4.265761e-003
3.544522e+003, 3.381645e-003
3.546450e+003, 2.689525e-003
3.548379e+003, 2.814423e-003
3.550307e+003, 2.812653e-003
3.552236e+003, 1.709243e-003
3.554164e+003, 1.617391e-003
3.556093e+003, 1.457627e-003
3.558021e+003, 3.084352e-004
3.559949e+003, -7.961792e-005
3.561878e+003, -8.275667e-004
3.563806e+003, -1.509077e-003
3.565735e+003, -1.364235e-003
3.567663e+003, -1.996717e-003
3.569592e+003, -3.033032e-003
3.571520e+003, -3.494395e-003
3.573449e+003, -3.964032e-003
3.575377e+003, -3.741997e-003
3.577306e+003, -3.438439e-003
3.579234e+003, -3.624407e-003
3.581163e+003, -3.136299e-003
3.583091e+003, -2.527680e-003
3.585020e+003, -2.864742e-003
3.586948e+003, -3.701463e-003
3.588876e+003, -4.798159e-003
3.590805e+003, -5.118111e-003
3.592733e+003, -4.722732e-003
3.594662e+003, -5.342979e-003
3.596590e+003, -5.502129e-003
3.598519e+003, -5.000156e-003
3.600447e+003, -5.657095e-003
3.602376e+003, -6.941311e-003
3.604304e+003, -7.557224e-003
3.606233e+003, -7.348873e-003
3.608161e+003, -7.259629e-003
3.610090e+003, -7.088833e-003
3.612018e+003, -6.481903e-003
3.613947e+003, -6.827458e-003
3.615875e+003, -7.765567e-003
3.617803e+003, -7.586602e-003
3.619732e+003, -6.543164e-003
3.621660e+003, -7.087661e-003
3.623589e+003, -7.726579e-003
3.625517e+003, -7.888355e-003
3.627446e+003, -7.832396e-003
3.629374e+003, -8.196694e-003
3.631303e+003, -9.779045e-003
3.633231e+003, -1.066789e-002
3.635160e+003, -9.898836e-003
3.637088e+003, -9.771870e-003
3.639017e+003, -1.006965e-002
3.640945e+003, -1.013876e-002
3.642874e+003, -1.007265e-002
3.644802e+003, -9.394911e-003
3.646730e+003, -8.500319e-003
3.648659e+003, -8.068374e-003
3.650587e+003, -8.425089e-003
3.652516e+003, -9.510434e-003
3.654444e+003, -9.325513e-003
3.656373e+003, -8.530627e-003
3.658301e+003, -9.195323e-003
3.660230e+003, -1.034188e-002
3.662158e+003, -1.109978e-002
3.664087e+003, -1.145557e-002
3.666015e+003, -1.069549e-002
3.667944e+003, -1.057279e-002
3.669872e+003, -1.012893e-002
3.671801e+003, -9.539001e-003
3.673729e+003, -1.030782e-002
3.675657e+003, -1.123974e-002
3.677586e+003, -1.108664e-002
3.679514e+003, -1.136351e-002
3.681443e+003, -1.233581e-002
3.683371e+003, -1.301052e-002
3.685300e+003, -1.283261e-002
3.687228e+003, -1.121616e-002
3.689157e+003, -9.956104e-003
3.691085e+003, -1.052262e-002
3.693014e+003, -1.175471e-002
3.694942e+003, -1.252779e-002
3.696871e+003, -1.117713e-002
3.698799e+003, -1.066514e-002
3.700728e+003, -1.115092e-002
3.702656e+003, -1.194274e-002
3.704584e+003, -1.267387e-002
3.706513e+003, -1.268181e-002
3.708441e+003, -1.123078e-002
3.710370e+003, -1.075810e-002
3.712298e+003, -1.133346e-002
3.714227e+003, -1.179340e-002
3.716155e+003, -1.115265e-002
3.718084e+003, -1.192794e-002
3.720012e+003, -1.228671e-002
3.721941e+003, -1.131293e-002
3.723869e+003, -1.108990e-002
3.725798e+003, -1.241326e-002
3.727726e+003, -1.247815e-002
3.729655e+003, -1.226324e-002
3.731583e+003, -1.129657e-002
3.733511e+003, -9.560360e-003
3.735440e+003, -8.867989e-003
3.737368e+003, -9.989359e-003
3.739297e+003, -1.099113e-002
3.741225e+003, -1.175299e-002
3.743154e+003, -9.848145e-003
3.745082e+003, -8.656749e-003
3.747011e+003, -1.045089e-002
3.748939e+003, -1.051095e-002
3.750868e+003, -1.084528e-002
3.752796e+003, -1.120667e-002
3.754725e+003, -1.200943e-002
3.756653e+003, -1.199447e-002
3.758582e+003, -1.323097e-002
3.760510e+003, -1.412184e-002
3.762438e+003, -1.328980e-002
3.764367e+003, -1.283508e-002
3.766295e+003, -1.234421e-002
3.768224e+003, -1.240282e-002
3.770152e+003, -1.272082e-002
3.772081e+003, -1.318129e-002
3.774009e+003, -1.306050e-002
3.775938e+003, -1.272693e-002
3.777866e+003, -1.235890e-002
3.779795e+003, -1.192252e-002
3.781723e+003, -1.274046e-002
3.783652e+003, -1.302136e-002
3.785580e+003, -1.426473e-002
3.787509e+003, -1.424637e-002
3.789437e+003, -1.382835e-002
3.791365e+003, -1.344244e-002
3.793294e+003, -1.268765e-002
3.795222e+003, -1.284034e-002
3.797151e+003, -1.241400e-002
3.799079e+003, -1.215967e-002
3.801008e+003, -1.106619e-002
3.802936e+003, -1.239089e-002
3.804865e+003, -1.294627e-002
3.806793e+003, -1.221303e-002
3.808722e+003, -1.370049e-002
3.810650e+003, -1.346323e-002
3.812579e+003, -1.238933e-002
3.814507e+003, -1.165416e-002
3.816436e+003, -1.166369e-002
3.818364e+003, -1.159056e-002
3.820292e+003, -1.102099e-002
3.822221e+003, -1.179367e-002
3.824149e+003, -1.333521e-002
3.826078e+003, -1.282209e-002
3.828006e+003, -1.256044e-002
3.829935e+003, -1.282834e-002
3.831863e+003, -1.273300e-002
3.833792e+003, -1.305490e-002
3.835720e+003, -1.257427e-002
3.837649e+003, -1.292723e-002
3.839577e+003, -1.293575e-002
3.841506e+003, -1.296182e-002
3.843434e+003, -1.316885e-002
3.845363e+003, -1.327975e-002
3.847291e+003, -1.315285e-002
3.849219e+003, -1.330458e-002
3.851148e+003, -1.262713e-002
3.853076e+003, -1.173498e-002
3.855005e+003, -1.189166e-002
3.856933e+003, -1.343901e-002
3.858862e+003, -1.437316e-002
3.860790e+003, -1.360967e-002
3.862719e+003, -1.265516e-002
3.864647e+003, -1.245672e-002
3.866576e+003, -1.250796e-002
3.868504e+003, -1.231558e-002
3.870433e+003, -1.224101e-002
3.872361e+003, -1.208431e-002
3.874290e+003, -1.243798e-002
3.876218e+003, -1.358736e-002
3.878146e+003, -1.312192e-002
3.880075e+003, -1.321008e-002
3.882003e+003, -1.335984e-002
3.883932e+003, -1.262720e-002
3.885860e+003, -1.246056e-002
3.887789e+003, -1.347099e-002
3.889717e+003, -1.332450e-002
3.891646e+003, -1.330910e-002
3.893574e+003, -1.339953e-002
3.895503e+003, -1.332408e-002
3.897431e+003, -1.307659e-002
3.899360e+003, -1.279315e-002
3.901288e+003, -1.248591e-002
3.903217e+003, -1.353330e-002
3.905145e+003, -1.300116e-002
3.907073e+003, -1.222310e-002
3.909002e+003, -1.245878e-002
3.910930e+003, -1.295715e-002
3.912859e+003, -1.360172e-002
3.914787e+003, -1.451035e-002
3.916716e+003, -1.346720e-002
3.918644e+003, -1.163630e-002
3.920573e+003, -1.337297e-002
3.922501e+003, -1.546651e-002
3.924430e+003, -1.425572e-002
3.926358e+003, -1.255064e-002
3.928287e+003, -1.251908e-002
3.930215e+003, -1.366489e-002
3.932144e+003, -1.391005e-002
3.934072e+003, -1.419379e-002
3.936000e+003, -1.427008e-002
3.937929e+003, -1.442936e-002
3.939857e+003, -1.456095e-002
3.941786e+003, -1.399170e-002
3.943714e+003, -1.342053e-002
3.945643e+003, -1.383850e-002
3.947571e+003, -1.391986e-002
3.949500e+003, -1.347891e-002
3.951428e+003, -1.199045e-002
3.953357e+003, -1.250873e-002
3.955285e+003, -1.321387e-002
3.957214e+003, -1.345177e-002
3.959142e+003, -1.397693e-002
3.961071e+003, -1.448630e-002
3.962999e+003, -1.449999e-002
3.964927e+003, -1.472459e-002
3.966856e+003, -1.408564e-002
3.968784e+003, -1.322451e-002
3.970713e+003, -1.314229e-002
3.972641e+003, -1.353216e-002
3.974570e+003, -1.335422e-002
3.976498e+003, -1.272426e-002
3.978427e+003, -1.247682e-002
3.980355e+003, -1.261733e-002
3.982284e+003, -1.321908e-002
3.984212e+003, -1.418983e-002
3.986141e+003, -1.359360e-002
3.988069e+003, -1.393854e-002
3.989998e+003, -1.447135e-002
3.991926e+003, -1.433471e-002
3.993854e+003, -1.460594e-002
3.995783e+003, -1.403602e-002
3.997711e+003, -1.343263e-002
3.999640e+003, -1.415749e-002
##END=



