##NAMES=Brazilianite
##RRUFFID=R050319
##IDEAL CHEMISTRY=NaAl_3_(PO_4_)_2_(OH)_4_
##LOCALITY=Minas Gerais, Brazil
##OWNER=RRUFF
##SOURCE=American Museum of Natural History
##DESCRIPTION=Pale green fragment
##STATUS=The identification of this mineral has been confirmed by X-ray diffraction and chemical analysis
##URL=rruff.info/R050319
##MEASURED CHEMISTRY=Na_1.00_Al_3.00_(PO_4_)_2_(OH)_4_
3.991926e+002, 2.294901e-001
4.011211e+002, 2.299349e-001
4.030496e+002, 2.310403e-001
4.049780e+002, 2.323215e-001
4.069065e+002, 2.305897e-001
4.088350e+002, 2.270636e-001
4.107634e+002, 2.286361e-001
4.126919e+002, 2.322914e-001
4.146204e+002, 2.281108e-001
4.165488e+002, 2.241390e-001
4.184773e+002, 2.165741e-001
4.204058e+002, 2.130329e-001
4.223342e+002, 2.058396e-001
4.242627e+002, 1.961971e-001
4.261912e+002, 1.911398e-001
4.281196e+002, 1.864789e-001
4.300481e+002, 1.836453e-001
4.319766e+002, 1.868006e-001
4.339050e+002, 1.921374e-001
4.358335e+002, 1.971521e-001
4.377620e+002, 2.001785e-001
4.396904e+002, 2.018358e-001
4.416189e+002, 2.050995e-001
4.435474e+002, 2.081315e-001
4.454758e+002, 2.133746e-001
4.474043e+002, 2.196762e-001
4.493328e+002, 2.209119e-001
4.512612e+002, 2.225993e-001
4.531897e+002, 2.261942e-001
4.551182e+002, 2.282799e-001
4.570466e+002, 2.288976e-001
4.589751e+002, 2.291086e-001
4.609036e+002, 2.293063e-001
4.628320e+002, 2.296311e-001
4.647605e+002, 2.304100e-001
4.666890e+002, 2.308434e-001
4.686174e+002, 2.304238e-001
4.705459e+002, 2.289961e-001
4.724744e+002, 2.250445e-001
4.744028e+002, 2.196391e-001
4.763313e+002, 2.151738e-001
4.782598e+002, 2.080651e-001
4.801882e+002, 1.981154e-001
4.821167e+002, 1.889458e-001
4.840452e+002, 1.806241e-001
4.859736e+002, 1.739442e-001
4.879021e+002, 1.693270e-001
4.898306e+002, 1.660137e-001
4.917590e+002, 1.643124e-001
4.936875e+002, 1.643596e-001
4.956160e+002, 1.626949e-001
4.975444e+002, 1.594771e-001
4.994729e+002, 1.570676e-001
5.014014e+002, 1.555343e-001
5.033298e+002, 1.540598e-001
5.052583e+002, 1.510875e-001
5.071868e+002, 1.479480e-001
5.091152e+002, 1.457610e-001
5.110437e+002, 1.436787e-001
5.129722e+002, 1.417163e-001
5.149006e+002, 1.406111e-001
5.168291e+002, 1.388712e-001
5.187576e+002, 1.370623e-001
5.206860e+002, 1.378357e-001
5.226145e+002, 1.414001e-001
5.245430e+002, 1.469555e-001
5.264714e+002, 1.537598e-001
5.283999e+002, 1.616057e-001
5.303284e+002, 1.694531e-001
5.322568e+002, 1.757156e-001
5.341853e+002, 1.782131e-001
5.361138e+002, 1.785071e-001
5.380422e+002, 1.769100e-001
5.399707e+002, 1.732372e-001
5.418992e+002, 1.699748e-001
5.438276e+002, 1.684509e-001
5.457561e+002, 1.691983e-001
5.476846e+002, 1.694659e-001
5.496130e+002, 1.702361e-001
5.515415e+002, 1.717763e-001
5.534700e+002, 1.732840e-001
5.553984e+002, 1.733008e-001
5.573269e+002, 1.705630e-001
5.592554e+002, 1.649883e-001
5.611838e+002, 1.575977e-001
5.631123e+002, 1.513064e-001
5.650408e+002, 1.462467e-001
5.669692e+002, 1.420042e-001
5.688977e+002, 1.393262e-001
5.708262e+002, 1.390936e-001
5.727546e+002, 1.403785e-001
5.746831e+002, 1.417937e-001
5.766116e+002, 1.435313e-001
5.785400e+002, 1.446157e-001
5.804685e+002, 1.445219e-001
5.823970e+002, 1.431621e-001
5.843254e+002, 1.411844e-001
5.862539e+002, 1.387451e-001
5.881824e+002, 1.349762e-001
5.901108e+002, 1.303980e-001
5.920393e+002, 1.260610e-001
5.939678e+002, 1.234018e-001
5.958962e+002, 1.231659e-001
5.978247e+002, 1.243215e-001
5.997532e+002, 1.260695e-001
6.016816e+002, 1.281267e-001
6.036101e+002, 1.300084e-001
6.055386e+002, 1.318755e-001
6.074670e+002, 1.344330e-001
6.093955e+002, 1.371991e-001
6.113240e+002, 1.405318e-001
6.132524e+002, 1.427640e-001
6.151809e+002, 1.428327e-001
6.171094e+002, 1.407454e-001
6.190378e+002, 1.370254e-001
6.209663e+002, 1.329024e-001
6.228948e+002, 1.298236e-001
6.248232e+002, 1.285089e-001
6.267517e+002, 1.279709e-001
6.286802e+002, 1.277717e-001
6.306086e+002, 1.283336e-001
6.325371e+002, 1.284186e-001
6.344656e+002, 1.271058e-001
6.363940e+002, 1.242163e-001
6.383225e+002, 1.205932e-001
6.402510e+002, 1.156760e-001
6.421794e+002, 1.096775e-001
6.441079e+002, 1.036823e-001
6.460364e+002, 9.847393e-002
6.479648e+002, 9.387200e-002
6.498933e+002, 9.019011e-002
6.518218e+002, 8.760659e-002
6.537502e+002, 8.687275e-002
6.556787e+002, 8.824278e-002
6.576072e+002, 9.091780e-002
6.595356e+002, 9.383026e-002
6.614641e+002, 9.673723e-002
6.633926e+002, 9.934891e-002
6.653210e+002, 1.016117e-001
6.672495e+002, 1.039806e-001
6.691780e+002, 1.061577e-001
6.711064e+002, 1.080957e-001
6.730349e+002, 1.103004e-001
6.749634e+002, 1.131751e-001
6.768918e+002, 1.163217e-001
6.788203e+002, 1.182911e-001
6.807488e+002, 1.192162e-001
6.826772e+002, 1.198103e-001
6.846057e+002, 1.194541e-001
6.865342e+002, 1.188473e-001
6.884626e+002, 1.184629e-001
6.903911e+002, 1.181398e-001
6.923196e+002, 1.178699e-001
6.942480e+002, 1.180240e-001
6.961765e+002, 1.182191e-001
6.981050e+002, 1.184799e-001
7.000334e+002, 1.192157e-001
7.019619e+002, 1.199702e-001
7.038904e+002, 1.206406e-001
7.058188e+002, 1.211348e-001
7.077473e+002, 1.219031e-001
7.096758e+002, 1.233253e-001
7.116042e+002, 1.250530e-001
7.135327e+002, 1.264481e-001
7.154612e+002, 1.276220e-001
7.173896e+002, 1.277872e-001
7.193181e+002, 1.270395e-001
7.212466e+002, 1.257400e-001
7.231750e+002, 1.236063e-001
7.251035e+002, 1.214358e-001
7.270320e+002, 1.191279e-001
7.289604e+002, 1.166278e-001
7.308889e+002, 1.143624e-001
7.328174e+002, 1.121606e-001
7.347458e+002, 1.097725e-001
7.366743e+002, 1.072908e-001
7.386028e+002, 1.052053e-001
7.405313e+002, 1.035694e-001
7.424597e+002, 1.022007e-001
7.443882e+002, 1.007000e-001
7.463167e+002, 9.930434e-002
7.482451e+002, 9.820611e-002
7.501736e+002, 9.705083e-002
7.521021e+002, 9.546746e-002
7.540305e+002, 9.401371e-002
7.559590e+002, 9.195231e-002
7.578875e+002, 8.945391e-002
7.598159e+002, 8.696410e-002
7.617444e+002, 8.428102e-002
7.636729e+002, 8.122207e-002
7.656013e+002, 7.826427e-002
7.675298e+002, 7.567254e-002
7.694583e+002, 7.326651e-002
7.713867e+002, 7.099004e-002
7.733152e+002, 6.888900e-002
7.752437e+002, 6.719849e-002
7.771721e+002, 6.653633e-002
7.791006e+002, 6.613724e-002
7.810291e+002, 6.604519e-002
7.829575e+002, 6.638455e-002
7.848860e+002, 6.696296e-002
7.868145e+002, 6.779349e-002
7.887429e+002, 6.872741e-002
7.906714e+002, 6.924785e-002
7.925999e+002, 6.923073e-002
7.945283e+002, 6.870487e-002
7.964568e+002, 6.816316e-002
7.983853e+002, 6.709232e-002
8.003137e+002, 6.541926e-002
8.022422e+002, 6.381455e-002
8.041707e+002, 6.256403e-002
8.060991e+002, 6.136571e-002
8.080276e+002, 6.031731e-002
8.099561e+002, 5.931347e-002
8.118845e+002, 5.824664e-002
8.138130e+002, 5.726435e-002
8.157415e+002, 5.658312e-002
8.176699e+002, 5.589423e-002
8.195984e+002, 5.594349e-002
8.215269e+002, 5.544944e-002
8.234553e+002, 5.473427e-002
8.253838e+002, 5.420221e-002
8.273123e+002, 5.356616e-002
8.292407e+002, 5.270618e-002
8.311692e+002, 5.155171e-002
8.330977e+002, 5.094259e-002
8.350261e+002, 5.023704e-002
8.369546e+002, 4.919717e-002
8.388831e+002, 4.835493e-002
8.408115e+002, 4.777023e-002
8.427400e+002, 4.734815e-002
8.446685e+002, 4.634557e-002
8.465969e+002, 4.549664e-002
8.485254e+002, 4.490490e-002
8.504539e+002, 4.433039e-002
8.523823e+002, 4.382741e-002
8.543108e+002, 4.372096e-002
8.562393e+002, 4.388576e-002
8.581677e+002, 4.404668e-002
8.600962e+002, 4.381468e-002
8.620247e+002, 4.385750e-002
8.639531e+002, 4.426538e-002
8.658816e+002, 4.460270e-002
8.678101e+002, 4.482531e-002
8.697385e+002, 4.496335e-002
8.716670e+002, 4.540904e-002
8.735955e+002, 4.664339e-002
8.755239e+002, 4.763268e-002
8.774524e+002, 4.838539e-002
8.793809e+002, 4.928679e-002
8.813093e+002, 5.076090e-002
8.832378e+002, 5.233360e-002
8.851663e+002, 5.414939e-002
8.870947e+002, 5.625542e-002
8.890232e+002, 5.798109e-002
8.909517e+002, 5.994963e-002
8.928801e+002, 6.230015e-002
8.948085e+002, 6.498739e-002
8.967370e+002, 6.783348e-002
8.986655e+002, 7.085412e-002
9.005939e+002, 7.407343e-002
9.025224e+002, 7.776625e-002
9.044509e+002, 8.169594e-002
9.063793e+002, 8.571203e-002
9.083078e+002, 9.006698e-002
9.102363e+002, 9.541753e-002
9.121647e+002, 1.014936e-001
9.140932e+002, 1.075968e-001
9.160217e+002, 1.142646e-001
9.179501e+002, 1.216683e-001
9.198786e+002, 1.300175e-001
9.218071e+002, 1.389323e-001
9.237355e+002, 1.486219e-001
9.256640e+002, 1.590970e-001
9.275925e+002, 1.707955e-001
9.295209e+002, 1.832758e-001
9.314494e+002, 1.961230e-001
9.333779e+002, 2.098282e-001
9.353063e+002, 2.238632e-001
9.372348e+002, 2.372065e-001
9.391633e+002, 2.493678e-001
9.410917e+002, 2.589668e-001
9.430202e+002, 2.645723e-001
9.449487e+002, 2.653977e-001
9.468771e+002, 2.622187e-001
9.488056e+002, 2.577155e-001
9.507341e+002, 2.544136e-001
9.526625e+002, 2.536353e-001
9.545910e+002, 2.561472e-001
9.565195e+002, 2.603325e-001
9.584479e+002, 2.646362e-001
9.603764e+002, 2.684582e-001
9.623049e+002, 2.708934e-001
9.642333e+002, 2.722722e-001
9.661618e+002, 2.726165e-001
9.680903e+002, 2.715960e-001
9.700187e+002, 2.686076e-001
9.719472e+002, 2.633740e-001
9.738757e+002, 2.561339e-001
9.758041e+002, 2.477554e-001
9.777326e+002, 2.393521e-001
9.796611e+002, 2.327575e-001
9.815895e+002, 2.288128e-001
9.835180e+002, 2.275858e-001
9.854465e+002, 2.276879e-001
9.873749e+002, 2.272501e-001
9.893034e+002, 2.234949e-001
9.912319e+002, 2.149011e-001
9.931603e+002, 2.026424e-001
9.950888e+002, 1.891346e-001
9.970173e+002, 1.772349e-001
9.989457e+002, 1.678899e-001
1.000874e+003, 1.610976e-001
1.002803e+003, 1.575295e-001
1.004731e+003, 1.577160e-001
1.006660e+003, 1.614273e-001
1.008588e+003, 1.679369e-001
1.010517e+003, 1.759814e-001
1.012445e+003, 1.848124e-001
1.014373e+003, 1.936195e-001
1.016302e+003, 2.011839e-001
1.018230e+003, 2.078412e-001
1.020159e+003, 2.142637e-001
1.022087e+003, 2.196580e-001
1.024016e+003, 2.246840e-001
1.025944e+003, 2.296526e-001
1.027873e+003, 2.336838e-001
1.029801e+003, 2.370144e-001
1.031730e+003, 2.404749e-001
1.033658e+003, 2.443760e-001
1.035587e+003, 2.494056e-001
1.037515e+003, 2.552152e-001
1.039444e+003, 2.605923e-001
1.041372e+003, 2.645305e-001
1.043301e+003, 2.663667e-001
1.045229e+003, 2.654017e-001
1.047157e+003, 2.617427e-001
1.049086e+003, 2.557190e-001
1.051014e+003, 2.485492e-001
1.052943e+003, 2.413800e-001
1.054871e+003, 2.339559e-001
1.056800e+003, 2.277951e-001
1.058728e+003, 2.231669e-001
1.060657e+003, 2.192797e-001
1.062585e+003, 2.166503e-001
1.064514e+003, 2.156478e-001
1.066442e+003, 2.155690e-001
1.068371e+003, 2.152666e-001
1.070299e+003, 2.153726e-001
1.072228e+003, 2.163723e-001
1.074156e+003, 2.170557e-001
1.076084e+003, 2.173989e-001
1.078013e+003, 2.180912e-001
1.079941e+003, 2.187612e-001
1.081870e+003, 2.195526e-001
1.083798e+003, 2.204797e-001
1.085727e+003, 2.217014e-001
1.087655e+003, 2.227346e-001
1.089584e+003, 2.220622e-001
1.091512e+003, 2.194807e-001
1.093441e+003, 2.158650e-001
1.095369e+003, 2.111917e-001
1.097298e+003, 2.058280e-001
1.099226e+003, 2.005244e-001
1.101155e+003, 1.954599e-001
1.103083e+003, 1.906643e-001
1.105011e+003, 1.869421e-001
1.106940e+003, 1.845708e-001
1.108868e+003, 1.832665e-001
1.110797e+003, 1.825573e-001
1.112725e+003, 1.820095e-001
1.114654e+003, 1.814850e-001
1.116582e+003, 1.805533e-001
1.118511e+003, 1.790077e-001
1.120439e+003, 1.769981e-001
1.122368e+003, 1.745845e-001
1.124296e+003, 1.717531e-001
1.126225e+003, 1.688882e-001
1.128153e+003, 1.659190e-001
1.130082e+003, 1.622083e-001
1.132010e+003, 1.585282e-001
1.133938e+003, 1.549649e-001
1.135867e+003, 1.509741e-001
1.137795e+003, 1.465509e-001
1.139724e+003, 1.409569e-001
1.141652e+003, 1.347257e-001
1.143581e+003, 1.279753e-001
1.145509e+003, 1.205320e-001
1.147438e+003, 1.128947e-001
1.149366e+003, 1.056447e-001
1.151295e+003, 9.895874e-002
1.153223e+003, 9.281104e-002
1.155152e+003, 8.739419e-002
1.157080e+003, 8.246979e-002
1.159009e+003, 7.765409e-002
1.160937e+003, 7.322679e-002
1.162865e+003, 6.940404e-002
1.164794e+003, 6.540135e-002
1.166722e+003, 6.096210e-002
1.168651e+003, 5.622405e-002
1.170579e+003, 5.130476e-002
1.172508e+003, 4.643707e-002
1.174436e+003, 4.218546e-002
1.176365e+003, 3.819968e-002
1.178293e+003, 3.446702e-002
1.180222e+003, 3.109627e-002
1.182150e+003, 2.809101e-002
1.184079e+003, 2.554494e-002
1.186007e+003, 2.314227e-002
1.187936e+003, 2.110934e-002
1.189864e+003, 1.938980e-002
1.191792e+003, 1.777585e-002
1.193721e+003, 1.651624e-002
1.195649e+003, 1.555868e-002
1.197578e+003, 1.492394e-002
1.199506e+003, 1.436390e-002
1.201435e+003, 1.335242e-002
1.203363e+003, 1.255291e-002
1.205292e+003, 1.219902e-002
1.207220e+003, 1.184756e-002
1.209149e+003, 1.144658e-002
1.211077e+003, 1.089216e-002
1.213006e+003, 1.034647e-002
1.214934e+003, 9.967590e-003
1.216863e+003, 9.676819e-003
1.218791e+003, 9.356559e-003
1.220719e+003, 9.124737e-003
1.222648e+003, 8.709046e-003
1.224576e+003, 8.099136e-003
1.226505e+003, 7.745482e-003
1.228433e+003, 7.690924e-003
1.230362e+003, 7.562561e-003
1.232290e+003, 7.215486e-003
1.234219e+003, 6.895573e-003
1.236147e+003, 6.895561e-003
1.238076e+003, 6.873035e-003
1.240004e+003, 6.722257e-003
1.241933e+003, 6.451990e-003
1.243861e+003, 6.270426e-003
1.245790e+003, 5.912452e-003
1.247718e+003, 5.645694e-003
1.249646e+003, 5.803222e-003
1.251575e+003, 6.096439e-003
1.253503e+003, 6.095878e-003
1.255432e+003, 5.918557e-003
1.257360e+003, 5.671012e-003
1.259289e+003, 5.464689e-003
1.261217e+003, 5.420384e-003
1.263146e+003, 5.359353e-003
1.265074e+003, 5.206288e-003
1.267003e+003, 5.080318e-003
1.268931e+003, 4.906799e-003
1.270860e+003, 4.869733e-003
1.272788e+003, 4.912650e-003
1.274717e+003, 4.966629e-003
1.276645e+003, 5.113773e-003
1.278573e+003, 4.914379e-003
1.280502e+003, 4.467341e-003
1.282430e+003, 4.305026e-003
1.284359e+003, 4.653664e-003
1.286287e+003, 4.898667e-003
1.288216e+003, 4.758163e-003
1.290144e+003, 4.678938e-003
1.292073e+003, 4.767185e-003
1.294001e+003, 4.785024e-003
1.295930e+003, 4.694161e-003
1.297858e+003, 4.341475e-003
1.299787e+003, 4.025034e-003
1.301715e+003, 4.240945e-003
1.303644e+003, 4.232649e-003
1.305572e+003, 3.968974e-003
1.307500e+003, 4.091290e-003
1.309429e+003, 4.293223e-003
1.311357e+003, 4.476313e-003
1.313286e+003, 4.612203e-003
1.315214e+003, 4.595912e-003
1.317143e+003, 4.543481e-003
1.319071e+003, 4.488681e-003
1.321000e+003, 4.359827e-003
1.322928e+003, 4.046811e-003
1.324857e+003, 3.902599e-003
1.326785e+003, 4.115679e-003
1.328714e+003, 4.129954e-003
1.330642e+003, 4.230008e-003
1.332571e+003, 4.485089e-003
1.334499e+003, 4.640434e-003
1.336427e+003, 4.692225e-003
1.338356e+003, 4.301123e-003
1.340284e+003, 4.197453e-003
1.342213e+003, 4.490025e-003
1.344141e+003, 4.421574e-003
1.346070e+003, 4.375116e-003
1.347998e+003, 4.700928e-003
1.349927e+003, 4.652556e-003
1.351855e+003, 4.439322e-003
1.353784e+003, 4.398471e-003
1.355712e+003, 4.711390e-003
1.357641e+003, 4.777726e-003
1.359569e+003, 4.766710e-003
1.361498e+003, 4.924339e-003
1.363426e+003, 4.655779e-003
1.365354e+003, 4.405801e-003
1.367283e+003, 4.577177e-003
1.369211e+003, 4.638224e-003
1.371140e+003, 4.744306e-003
1.373068e+003, 4.804865e-003
1.374997e+003, 4.905589e-003
1.376925e+003, 4.998863e-003
1.378854e+003, 5.036825e-003
1.380782e+003, 5.016879e-003
1.382711e+003, 4.991085e-003
1.384639e+003, 4.842257e-003
1.386568e+003, 4.823946e-003
1.388496e+003, 4.757895e-003
1.390424e+003, 4.957007e-003
1.392353e+003, 5.047987e-003
1.394281e+003, 5.065042e-003
1.396210e+003, 5.402704e-003
1.398138e+003, 5.689364e-003
1.400067e+003, 5.662889e-003
1.401995e+003, 5.426684e-003
1.403924e+003, 5.501457e-003
1.405852e+003, 5.567536e-003
1.407781e+003, 5.452325e-003
1.409709e+003, 5.664504e-003
1.411638e+003, 5.825367e-003
1.413566e+003, 5.752380e-003
1.415495e+003, 5.546940e-003
1.417423e+003, 5.671137e-003
1.419351e+003, 5.801559e-003
1.421280e+003, 5.511687e-003
1.423208e+003, 5.380201e-003
1.425137e+003, 5.144848e-003
1.427065e+003, 5.018513e-003
1.428994e+003, 5.192670e-003
1.430922e+003, 5.223057e-003
1.432851e+003, 5.234932e-003
1.434779e+003, 5.360022e-003
1.436708e+003, 5.551823e-003
1.438636e+003, 5.377940e-003
1.440565e+003, 5.188992e-003
1.442493e+003, 5.170877e-003
1.444422e+003, 5.221030e-003
1.446350e+003, 5.184076e-003
1.448278e+003, 5.154942e-003
1.450207e+003, 5.155556e-003
1.452135e+003, 5.435003e-003
1.454064e+003, 5.472351e-003
1.455992e+003, 5.526425e-003
1.457921e+003, 5.403938e-003
1.459849e+003, 5.045644e-003
1.461778e+003, 5.128426e-003
1.463706e+003, 5.353042e-003
1.465635e+003, 4.956196e-003
1.467563e+003, 4.462313e-003
1.469492e+003, 5.033721e-003
1.471420e+003, 5.794434e-003
1.473349e+003, 6.128871e-003
1.475277e+003, 5.965812e-003
1.477205e+003, 5.674689e-003
1.479134e+003, 5.540848e-003
1.481062e+003, 5.463633e-003
1.482991e+003, 5.582705e-003
1.484919e+003, 5.685012e-003
1.486848e+003, 5.511508e-003
1.488776e+003, 5.695996e-003
1.490705e+003, 5.792726e-003
1.492633e+003, 5.871882e-003
1.494562e+003, 5.895360e-003
1.496490e+003, 6.078371e-003
1.498419e+003, 6.281582e-003
1.500347e+003, 6.353216e-003
1.502276e+003, 6.248398e-003
1.504204e+003, 6.799396e-003
1.506132e+003, 7.272908e-003
1.508061e+003, 6.850610e-003
1.509989e+003, 6.615169e-003
1.511918e+003, 6.870206e-003
1.513846e+003, 6.859151e-003
1.515775e+003, 6.901385e-003
1.517703e+003, 7.136546e-003
1.519632e+003, 7.472012e-003
1.521560e+003, 7.861067e-003
1.523489e+003, 7.735060e-003
1.525417e+003, 7.769244e-003
1.527346e+003, 7.593990e-003
1.529274e+003, 7.249197e-003
1.531203e+003, 7.332921e-003
1.533131e+003, 7.632929e-003
1.535059e+003, 7.633937e-003
1.536988e+003, 8.181130e-003
1.538916e+003, 9.009804e-003
1.540845e+003, 9.216418e-003
1.542773e+003, 8.857178e-003
1.544702e+003, 8.430718e-003
1.546630e+003, 8.410471e-003
1.548559e+003, 8.629857e-003
1.550487e+003, 8.547463e-003
1.552416e+003, 8.325113e-003
1.554344e+003, 8.487204e-003
1.556273e+003, 8.826214e-003
1.558201e+003, 9.607879e-003
1.560130e+003, 9.711270e-003
1.562058e+003, 8.898458e-003
1.563986e+003, 8.403795e-003
1.565915e+003, 8.414526e-003
1.567843e+003, 8.689338e-003
1.569772e+003, 8.943614e-003
1.571700e+003, 8.719629e-003
1.573629e+003, 9.031733e-003
1.575557e+003, 9.797347e-003
1.577486e+003, 9.526841e-003
1.579414e+003, 9.119560e-003
1.581343e+003, 9.229092e-003
1.583271e+003, 9.228809e-003
1.585200e+003, 9.151900e-003
1.587128e+003, 9.127277e-003
1.589057e+003, 9.441216e-003
1.590985e+003, 9.799598e-003
1.592913e+003, 1.009457e-002
1.594842e+003, 1.050031e-002
1.596770e+003, 1.059772e-002
1.598699e+003, 1.033331e-002
1.600627e+003, 1.024032e-002
1.602556e+003, 1.045509e-002
1.604484e+003, 1.058922e-002
1.606413e+003, 1.030192e-002
1.608341e+003, 1.037675e-002
1.610270e+003, 1.076907e-002
1.612198e+003, 1.110780e-002
1.614127e+003, 1.115456e-002
1.616055e+003, 1.164927e-002
1.617984e+003, 1.156654e-002
1.619912e+003, 1.095425e-002
1.621840e+003, 1.133144e-002
1.623769e+003, 1.195808e-002
1.625697e+003, 1.205721e-002
1.627626e+003, 1.182360e-002
1.629554e+003, 1.178956e-002
1.631483e+003, 1.193226e-002
1.633411e+003, 1.256986e-002
1.635340e+003, 1.324929e-002
1.637268e+003, 1.285647e-002
1.639197e+003, 1.237941e-002
1.641125e+003, 1.259862e-002
1.643054e+003, 1.301261e-002
1.644982e+003, 1.310737e-002
1.646911e+003, 1.288746e-002
1.648839e+003, 1.252534e-002
1.650767e+003, 1.312010e-002
1.652696e+003, 1.419482e-002
1.654624e+003, 1.360787e-002
1.656553e+003, 1.245955e-002
1.658481e+003, 1.220696e-002
1.660410e+003, 1.213957e-002
1.662338e+003, 1.157851e-002
1.664267e+003, 1.092123e-002
1.666195e+003, 1.059039e-002
1.668124e+003, 1.067472e-002
1.670052e+003, 1.058066e-002
1.671981e+003, 9.955916e-003
1.673909e+003, 9.534789e-003
1.675838e+003, 9.678898e-003
1.677766e+003, 9.395406e-003
1.679694e+003, 8.777812e-003
1.681623e+003, 8.405698e-003
1.683551e+003, 8.888701e-003
1.685480e+003, 8.448818e-003
1.687408e+003, 7.755444e-003
1.689337e+003, 7.988417e-003
1.691265e+003, 7.581092e-003
1.693194e+003, 6.885317e-003
1.695122e+003, 7.186214e-003
1.697051e+003, 7.266166e-003
1.698979e+003, 7.337247e-003
1.700908e+003, 6.989392e-003
1.702836e+003, 5.871824e-003
1.704765e+003, 5.961947e-003
1.706693e+003, 6.086533e-003
1.708621e+003, 5.184337e-003
1.710550e+003, 4.625134e-003
1.712478e+003, 5.053833e-003
1.714407e+003, 5.273513e-003
1.716335e+003, 5.643734e-003
1.718264e+003, 5.471231e-003
1.720192e+003, 4.232532e-003
1.722121e+003, 3.994119e-003
1.724049e+003, 4.086810e-003
1.725978e+003, 3.654266e-003
1.727906e+003, 3.580800e-003
1.729835e+003, 3.750906e-003
1.731763e+003, 3.847304e-003
1.733692e+003, 3.989654e-003
1.735620e+003, 2.931302e-003
1.737548e+003, 1.826954e-003
1.739477e+003, 1.541314e-003
1.741405e+003, 1.296760e-003
1.743334e+003, 7.921813e-004
1.745262e+003, 3.083416e-004
1.747191e+003, 3.543041e-005
1.749119e+003, 5.303030e-004
1.751048e+003, 7.801212e-004
1.752976e+003, 8.195300e-004
1.754905e+003, 1.626655e-003
1.756833e+003, 2.526051e-003
1.758762e+003, 2.726823e-003
1.760690e+003, 3.109411e-003
1.762619e+003, 3.765648e-003
1.764547e+003, 3.855203e-003
1.766475e+003, 4.074572e-003
1.768404e+003, 4.323697e-003
1.770332e+003, 4.281045e-003
1.772261e+003, 4.325510e-003
1.774189e+003, 4.225290e-003
1.776118e+003, 4.077585e-003
1.778046e+003, 4.181933e-003
1.779975e+003, 4.489126e-003
1.781903e+003, 4.247816e-003
1.783832e+003, 3.962564e-003
1.785760e+003, 3.751110e-003
1.787689e+003, 3.765101e-003
1.789617e+003, 4.264655e-003
1.791546e+003, 4.934636e-003
1.793474e+003, 4.821247e-003
1.795402e+003, 3.915741e-003
1.797331e+003, 3.865602e-003
1.799259e+003, 4.280140e-003
1.801188e+003, 4.289108e-003
1.803116e+003, 3.868018e-003
1.805045e+003, 3.366418e-003
1.806973e+003, 3.463101e-003
1.808902e+003, 3.688309e-003
1.810830e+003, 3.643896e-003
1.812759e+003, 3.505682e-003
1.814687e+003, 3.739554e-003
1.816616e+003, 3.820763e-003
1.818544e+003, 3.613655e-003
1.820473e+003, 3.434811e-003
1.822401e+003, 4.162170e-003
1.824329e+003, 4.685384e-003
1.826258e+003, 4.083875e-003
1.828186e+003, 3.690993e-003
1.830115e+003, 4.372441e-003
1.832043e+003, 4.652621e-003
1.833972e+003, 4.213032e-003
1.835900e+003, 3.272102e-003
1.837829e+003, 2.885895e-003
1.839757e+003, 3.203815e-003
1.841686e+003, 3.765762e-003
1.843614e+003, 3.713181e-003
1.845543e+003, 3.044087e-003
1.847471e+003, 3.290266e-003
1.849400e+003, 3.112884e-003
1.851328e+003, 3.248601e-003
1.853256e+003, 3.402250e-003
1.855185e+003, 2.723035e-003
1.857113e+003, 2.667337e-003
1.859042e+003, 3.578916e-003
1.860970e+003, 3.581762e-003
1.862899e+003, 3.133314e-003
1.864827e+003, 3.026401e-003
1.866756e+003, 3.200095e-003
1.868684e+003, 3.417764e-003
1.870613e+003, 3.031311e-003
1.872541e+003, 2.289884e-003
1.874470e+003, 1.812175e-003
1.876398e+003, 2.069182e-003
1.878327e+003, 2.427161e-003
1.880255e+003, 2.174125e-003
1.882183e+003, 1.962840e-003
1.884112e+003, 1.709071e-003
1.886040e+003, 1.345435e-003
1.887969e+003, 1.315545e-003
1.889897e+003, 2.045208e-003
1.891826e+003, 2.150171e-003
1.893754e+003, 1.598545e-003
1.895683e+003, 2.546549e-003
1.897611e+003, 2.881903e-003
1.899540e+003, 2.335775e-003
1.901468e+003, 2.684836e-003
1.903397e+003, 3.194908e-003
1.905325e+003, 3.121401e-003
1.907254e+003, 3.478914e-003
1.909182e+003, 4.407620e-003
1.911110e+003, 4.042861e-003
1.913039e+003, 3.173805e-003
1.914967e+003, 2.722548e-003
1.916896e+003, 3.280947e-003
1.918824e+003, 3.304035e-003
1.920753e+003, 2.479175e-003
1.922681e+003, 1.158664e-003
1.924610e+003, 9.940014e-004
1.926538e+003, 1.247544e-003
1.928467e+003, 5.719057e-005
1.930395e+003, -5.481012e-004
1.932324e+003, 6.456272e-004
1.934252e+003, 1.997161e-003
1.936181e+003, 2.532290e-003
1.938109e+003, 2.658620e-003
1.940037e+003, 1.803734e-003
1.941966e+003, 1.458099e-003
1.943894e+003, 1.866834e-003
1.945823e+003, 1.722409e-003
1.947751e+003, 7.287415e-004
1.949680e+003, -3.964267e-004
1.951608e+003, -4.358571e-004
1.953537e+003, -9.540156e-004
1.955465e+003, 1.964735e-004
1.957394e+003, 3.389420e-004
1.959322e+003, -1.057867e-003
1.961251e+003, -1.729551e-003
1.963179e+003, -9.569702e-004
1.965108e+003, -9.363170e-004
1.967036e+003, -1.165331e-003
1.968964e+003, -9.945233e-004
1.970893e+003, -1.120465e-003
1.972821e+003, -6.466985e-004
1.974750e+003, -6.017581e-004
1.976678e+003, -1.219312e-003
1.978607e+003, 7.287376e-004
1.980535e+003, 9.984446e-004
1.982464e+003, -3.995472e-004
1.984392e+003, -1.268585e-003
1.986321e+003, -1.552227e-003
1.988249e+003, -5.909275e-004
1.990178e+003, -4.660887e-004
1.992106e+003, 1.510361e-004
1.994035e+003, 3.381484e-004
1.995963e+003, -3.756277e-004
1.997891e+003, -3.551469e-004
1.999820e+003, 2.295368e-003
2.001748e+003, 1.952508e-003
2.003677e+003, -8.231773e-004
2.005605e+003, -1.858192e-003
2.007534e+003, -4.469875e-005
2.009462e+003, 3.383303e-003
2.011391e+003, 3.239238e-003
2.013319e+003, 8.062212e-004
2.015248e+003, -3.579652e-004
2.017176e+003, -1.086166e-003
2.019105e+003, -3.928221e-004
2.021033e+003, 3.407840e-004
2.022962e+003, -1.738817e-003
2.024890e+003, -5.154898e-003
2.026818e+003, -4.637557e-003
2.028747e+003, -1.296000e-003
2.030675e+003, 1.156032e-003
2.032604e+003, 8.681433e-004
2.034532e+003, 2.136652e-003
2.036461e+003, 2.505088e-003
2.038389e+003, 7.272324e-004
2.040318e+003, -1.400526e-003
2.042246e+003, -2.322430e-003
2.044175e+003, -5.707953e-004
2.046103e+003, 8.646797e-004
2.048032e+003, 1.342868e-003
2.049960e+003, 2.243756e-003
2.051889e+003, 1.713568e-003
2.053817e+003, 2.721104e-004
2.055746e+003, -1.213532e-003
2.057674e+003, -2.604595e-003
2.059603e+003, -8.160863e-004
2.061531e+003, 2.262789e-003
2.063459e+003, 2.797924e-003
2.065388e+003, 2.067259e-003
2.067316e+003, 3.563988e-003
2.069245e+003, 3.562081e-003
2.071173e+003, 2.926109e-003
2.073102e+003, 1.618972e-003
2.075030e+003, 1.723388e-003
2.076959e+003, 3.341171e-003
2.078887e+003, 3.485532e-003
2.080816e+003, 2.749187e-003
2.082744e+003, 3.626198e-003
2.084673e+003, 4.811931e-003
2.086601e+003, 4.705110e-003
2.088530e+003, 2.976040e-003
2.090458e+003, 1.071890e-003
2.092386e+003, 2.541965e-004
2.094315e+003, 2.404176e-003
2.096243e+003, 2.439958e-003
2.098172e+003, 8.671297e-004
2.100100e+003, 7.037043e-004
2.102029e+003, 1.512769e-003
2.103957e+003, 2.139822e-003
2.105886e+003, 1.703784e-003
2.107814e+003, 2.666825e-003
2.109743e+003, 3.649131e-003
2.111671e+003, 2.979884e-003
2.113600e+003, 2.318607e-003
2.115528e+003, 3.037016e-003
2.117457e+003, 3.159036e-003
2.119385e+003, 1.507675e-003
2.121313e+003, 1.432574e-004
2.123242e+003, 7.961607e-004
2.125170e+003, 1.439287e-003
2.127099e+003, 9.288211e-004
2.129027e+003, -6.804921e-004
2.130956e+003, -1.093342e-003
2.132884e+003, -1.849277e-004
2.134813e+003, -9.198762e-004
2.136741e+003, -2.289146e-003
2.138670e+003, -1.643765e-003
2.140598e+003, -1.090638e-003
2.142527e+003, -1.765775e-003
2.144455e+003, -2.827579e-003
2.146384e+003, -1.046488e-003
2.148312e+003, -6.199338e-004
2.150240e+003, -2.307944e-003
2.152169e+003, -3.202675e-003
2.154097e+003, -4.460500e-003
2.156026e+003, -5.328930e-003
2.157954e+003, -7.096852e-003
2.159883e+003, -4.837081e-003
2.161811e+003, -5.390724e-004
2.163740e+003, -2.592794e-004
2.165668e+003, -3.013711e-003
2.167597e+003, -4.100452e-003
2.169525e+003, -1.526968e-003
2.171454e+003, -1.466188e-003
2.173382e+003, -2.973047e-003
2.175311e+003, -2.904695e-003
2.177239e+003, -4.465195e-003
2.179167e+003, -4.118890e-003
2.181096e+003, -2.137602e-003
2.183024e+003, -1.333017e-003
2.184953e+003, -2.689545e-003
2.186881e+003, -1.388192e-003
2.188810e+003, -2.175723e-007
2.190738e+003, 1.450419e-004
2.192667e+003, 1.400086e-003
2.194595e+003, 5.753557e-004
2.196524e+003, -4.925914e-004
2.198452e+003, 1.239218e-003
2.200381e+003, 2.210193e-003
2.202309e+003, 5.781812e-004
2.204238e+003, -3.914612e-005
2.206166e+003, 1.293559e-003
2.208094e+003, 2.370118e-003
2.210023e+003, 1.724066e-003
2.211951e+003, -1.612398e-006
2.213880e+003, 1.298388e-005
2.215808e+003, 1.486187e-003
2.217737e+003, 1.811063e-003
2.219665e+003, 1.169583e-003
2.221594e+003, 3.599260e-003
2.223522e+003, 5.567522e-003
2.225451e+003, 3.408208e-003
2.227379e+003, 2.409389e-003
2.229308e+003, 2.557142e-003
2.231236e+003, 2.712064e-003
2.233165e+003, 2.363426e-003
2.235093e+003, 2.101438e-003
2.237021e+003, 1.496852e-003
2.238950e+003, 3.178625e-004
2.240878e+003, 1.672195e-003
2.242807e+003, 3.454104e-003
2.244735e+003, 2.797914e-003
2.246664e+003, 1.235536e-003
2.248592e+003, 1.983173e-003
2.250521e+003, 2.943335e-003
2.252449e+003, 3.251399e-003
2.254378e+003, 2.818473e-003
2.256306e+003, 2.848101e-003
2.258235e+003, 3.893501e-003
2.260163e+003, 3.348796e-003
2.262092e+003, 2.884946e-003
2.264020e+003, 3.573202e-003
2.265948e+003, 4.329766e-003
2.267877e+003, 4.898697e-003
2.269805e+003, 5.173788e-003
2.271734e+003, 5.499522e-003
2.273662e+003, 6.118541e-003
2.275591e+003, 5.704421e-003
2.277519e+003, 4.845507e-003
2.279448e+003, 5.415746e-003
2.281376e+003, 6.616317e-003
2.283305e+003, 7.130345e-003
2.285233e+003, 6.643205e-003
2.287162e+003, 6.369928e-003
2.289090e+003, 5.706144e-003
2.291019e+003, 5.496514e-003
2.292947e+003, 5.408630e-003
2.294875e+003, 6.733549e-003
2.296804e+003, 7.170738e-003
2.298732e+003, 7.309410e-003
2.300661e+003, 7.357547e-003
2.302589e+003, 7.716401e-003
2.304518e+003, 8.088902e-003
2.306446e+003, 8.421457e-003
2.308375e+003, 8.250573e-003
2.310303e+003, 7.395478e-003
2.312232e+003, 7.131247e-003
2.314160e+003, 8.014302e-003
2.316089e+003, 8.498223e-003
2.318017e+003, 8.752185e-003
2.319946e+003, 8.506949e-003
2.321874e+003, 9.027534e-003
2.323802e+003, 9.607687e-003
2.325731e+003, 9.049916e-003
2.327659e+003, 7.951829e-003
2.329588e+003, 8.011710e-003
2.331516e+003, 8.424734e-003
2.333445e+003, 8.389836e-003
2.335373e+003, 8.682143e-003
2.337302e+003, 8.882184e-003
2.339230e+003, 9.066470e-003
2.341159e+003, 8.962811e-003
2.343087e+003, 8.356716e-003
2.345016e+003, 7.668793e-003
2.346944e+003, 7.636003e-003
2.348873e+003, 8.138674e-003
2.350801e+003, 7.975148e-003
2.352729e+003, 7.946022e-003
2.354658e+003, 9.028266e-003
2.356586e+003, 9.503694e-003
2.358515e+003, 9.125524e-003
2.360443e+003, 8.486672e-003
2.362372e+003, 8.622183e-003
2.364300e+003, 8.445880e-003
2.366229e+003, 8.225446e-003
2.368157e+003, 8.882691e-003
2.370086e+003, 8.226504e-003
2.372014e+003, 7.417898e-003
2.373942e+003, 7.905898e-003
2.375871e+003, 8.118673e-003
2.377799e+003, 7.931603e-003
2.379728e+003, 7.598171e-003
2.381656e+003, 6.453070e-003
2.383585e+003, 6.722732e-003
2.385513e+003, 7.687353e-003
2.387442e+003, 8.059909e-003
2.389370e+003, 8.470221e-003
2.391299e+003, 8.891653e-003
2.393227e+003, 8.776463e-003
2.395156e+003, 8.031965e-003
2.397084e+003, 7.412621e-003
2.399012e+003, 7.161714e-003
2.400941e+003, 6.866253e-003
2.402869e+003, 7.759887e-003
2.404798e+003, 9.058625e-003
2.406726e+003, 9.251721e-003
2.408655e+003, 8.570530e-003
2.410583e+003, 7.704976e-003
2.412512e+003, 7.163702e-003
2.414440e+003, 8.108808e-003
2.416369e+003, 8.594667e-003
2.418297e+003, 8.066853e-003
2.420226e+003, 8.945752e-003
2.422154e+003, 8.393479e-003
2.424083e+003, 7.407455e-003
2.426011e+003, 7.259309e-003
2.427939e+003, 7.300073e-003
2.429868e+003, 7.361164e-003
2.431796e+003, 6.744446e-003
2.433725e+003, 6.796785e-003
2.435653e+003, 7.648290e-003
2.437582e+003, 7.777278e-003
2.439510e+003, 8.766546e-003
2.441439e+003, 9.780653e-003
2.443367e+003, 8.633072e-003
2.445296e+003, 8.031511e-003
2.447224e+003, 8.182059e-003
2.449153e+003, 7.978114e-003
2.451081e+003, 8.586559e-003
2.453010e+003, 8.848330e-003
2.454938e+003, 8.109735e-003
2.456866e+003, 7.499191e-003
2.458795e+003, 7.083781e-003
2.460723e+003, 7.650558e-003
2.462652e+003, 8.061879e-003
2.464580e+003, 7.175175e-003
2.466509e+003, 6.630757e-003
2.468437e+003, 6.433099e-003
2.470366e+003, 6.489839e-003
2.472294e+003, 7.201921e-003
2.474223e+003, 8.465827e-003
2.476151e+003, 9.170505e-003
2.478080e+003, 9.180463e-003
2.480008e+003, 8.752178e-003
2.481937e+003, 7.695557e-003
2.483865e+003, 6.896310e-003
2.485793e+003, 6.836595e-003
2.487722e+003, 6.691020e-003
2.489650e+003, 7.655917e-003
2.491579e+003, 8.819480e-003
2.493507e+003, 8.459949e-003
2.495436e+003, 8.122633e-003
2.497364e+003, 8.043626e-003
2.499293e+003, 8.505618e-003
2.501221e+003, 9.614300e-003
2.503150e+003, 9.424672e-003
2.505078e+003, 8.923750e-003
2.507007e+003, 8.445306e-003
2.508935e+003, 7.724513e-003
2.510864e+003, 9.666136e-003
2.512792e+003, 9.783691e-003
2.514720e+003, 9.314440e-003
2.516649e+003, 1.049542e-002
2.518577e+003, 9.622924e-003
2.520506e+003, 7.909103e-003
2.522434e+003, 7.906652e-003
2.524363e+003, 8.677348e-003
2.526291e+003, 9.468236e-003
2.528220e+003, 1.028684e-002
2.530148e+003, 9.876222e-003
2.532077e+003, 8.991420e-003
2.534005e+003, 8.407647e-003
2.535934e+003, 8.273926e-003
2.537862e+003, 8.461456e-003
2.539791e+003, 7.931474e-003
2.541719e+003, 8.665960e-003
2.543647e+003, 8.487879e-003
2.545576e+003, 7.836727e-003
2.547504e+003, 8.916432e-003
2.549433e+003, 9.501631e-003
2.551361e+003, 9.903155e-003
2.553290e+003, 9.250832e-003
2.555218e+003, 8.036362e-003
2.557147e+003, 8.394017e-003
2.559075e+003, 8.918893e-003
2.561004e+003, 7.388324e-003
2.562932e+003, 6.957394e-003
2.564861e+003, 7.535998e-003
2.566789e+003, 8.317358e-003
2.568718e+003, 8.910287e-003
2.570646e+003, 8.971069e-003
2.572574e+003, 8.769357e-003
2.574503e+003, 9.151881e-003
2.576431e+003, 8.893159e-003
2.578360e+003, 9.021845e-003
2.580288e+003, 9.694670e-003
2.582217e+003, 1.094960e-002
2.584145e+003, 1.149666e-002
2.586074e+003, 1.109679e-002
2.588002e+003, 1.031475e-002
2.589931e+003, 8.370212e-003
2.591859e+003, 8.084130e-003
2.593788e+003, 9.021159e-003
2.595716e+003, 1.012669e-002
2.597645e+003, 1.014803e-002
2.599573e+003, 9.948119e-003
2.601501e+003, 1.095469e-002
2.603430e+003, 1.144015e-002
2.605358e+003, 1.116088e-002
2.607287e+003, 9.962735e-003
2.609215e+003, 1.012135e-002
2.611144e+003, 1.051246e-002
2.613072e+003, 9.657076e-003
2.615001e+003, 9.767149e-003
2.616929e+003, 1.032320e-002
2.618858e+003, 1.035532e-002
2.620786e+003, 1.096706e-002
2.622715e+003, 1.078308e-002
2.624643e+003, 1.040558e-002
2.626572e+003, 1.054375e-002
2.628500e+003, 1.060449e-002
2.630428e+003, 1.100451e-002
2.632357e+003, 1.079437e-002
2.634285e+003, 1.041826e-002
2.636214e+003, 1.047825e-002
2.638142e+003, 1.033975e-002
2.640071e+003, 1.074371e-002
2.641999e+003, 1.128036e-002
2.643928e+003, 1.141087e-002
2.645856e+003, 1.147320e-002
2.647785e+003, 1.116287e-002
2.649713e+003, 1.070869e-002
2.651642e+003, 1.130973e-002
2.653570e+003, 1.166038e-002
2.655499e+003, 1.138172e-002
2.657427e+003, 1.143729e-002
2.659355e+003, 1.161994e-002
2.661284e+003, 1.145389e-002
2.663212e+003, 1.069475e-002
2.665141e+003, 1.002497e-002
2.667069e+003, 9.918843e-003
2.668998e+003, 1.044293e-002
2.670926e+003, 1.084426e-002
2.672855e+003, 1.024365e-002
2.674783e+003, 1.056761e-002
2.676712e+003, 1.084251e-002
2.678640e+003, 1.081708e-002
2.680569e+003, 1.144028e-002
2.682497e+003, 1.117011e-002
2.684426e+003, 1.117410e-002
2.686354e+003, 1.143621e-002
2.688282e+003, 1.059245e-002
2.690211e+003, 9.709070e-003
2.692139e+003, 1.006138e-002
2.694068e+003, 1.050103e-002
2.695996e+003, 1.112108e-002
2.697925e+003, 1.140071e-002
2.699853e+003, 1.083205e-002
2.701782e+003, 1.083744e-002
2.703710e+003, 1.075857e-002
2.705639e+003, 1.103029e-002
2.707567e+003, 1.141010e-002
2.709496e+003, 1.115765e-002
2.711424e+003, 1.098284e-002
2.713353e+003, 1.140366e-002
2.715281e+003, 1.243293e-002
2.717209e+003, 1.314804e-002
2.719138e+003, 1.323862e-002
2.721066e+003, 1.349137e-002
2.722995e+003, 1.270407e-002
2.724923e+003, 1.151564e-002
2.726852e+003, 1.134657e-002
2.728780e+003, 1.192703e-002
2.730709e+003, 1.170794e-002
2.732637e+003, 1.120868e-002
2.734566e+003, 1.070397e-002
2.736494e+003, 1.127839e-002
2.738423e+003, 1.205019e-002
2.740351e+003, 1.168800e-002
2.742280e+003, 1.077879e-002
2.744208e+003, 1.023448e-002
2.746136e+003, 1.096437e-002
2.748065e+003, 1.212297e-002
2.749993e+003, 1.294195e-002
2.751922e+003, 1.282144e-002
2.753850e+003, 1.207258e-002
2.755779e+003, 1.220853e-002
2.757707e+003, 1.301053e-002
2.759636e+003, 1.286034e-002
2.761564e+003, 1.269495e-002
2.763493e+003, 1.253359e-002
2.765421e+003, 1.279601e-002
2.767350e+003, 1.305229e-002
2.769278e+003, 1.315328e-002
2.771207e+003, 1.307254e-002
2.773135e+003, 1.247010e-002
2.775063e+003, 1.308360e-002
2.776992e+003, 1.336843e-002
2.778920e+003, 1.297047e-002
2.780849e+003, 1.241258e-002
2.782777e+003, 1.153687e-002
2.784706e+003, 1.241276e-002
2.786634e+003, 1.348588e-002
2.788563e+003, 1.324478e-002
2.790491e+003, 1.277688e-002
2.792420e+003, 1.304669e-002
2.794348e+003, 1.363837e-002
2.796277e+003, 1.334993e-002
2.798205e+003, 1.345374e-002
2.800134e+003, 1.430986e-002
2.802062e+003, 1.426510e-002
2.803990e+003, 1.352145e-002
2.805919e+003, 1.321395e-002
2.807847e+003, 1.389716e-002
2.809776e+003, 1.432286e-002
2.811704e+003, 1.491020e-002
2.813633e+003, 1.556925e-002
2.815561e+003, 1.473944e-002
2.817490e+003, 1.363285e-002
2.819418e+003, 1.432612e-002
2.821347e+003, 1.482695e-002
2.823275e+003, 1.395030e-002
2.825204e+003, 1.318744e-002
2.827132e+003, 1.427748e-002
2.829061e+003, 1.589475e-002
2.830989e+003, 1.526241e-002
2.832917e+003, 1.380338e-002
2.834846e+003, 1.319194e-002
2.836774e+003, 1.364424e-002
2.838703e+003, 1.366838e-002
2.840631e+003, 1.326205e-002
2.842560e+003, 1.429547e-002
2.844488e+003, 1.565820e-002
2.846417e+003, 1.606121e-002
2.848345e+003, 1.530650e-002
2.850274e+003, 1.397124e-002
2.852202e+003, 1.420200e-002
2.854131e+003, 1.532926e-002
2.856059e+003, 1.531709e-002
2.857988e+003, 1.457274e-002
2.859916e+003, 1.377503e-002
2.861844e+003, 1.443883e-002
2.863773e+003, 1.607372e-002
2.865701e+003, 1.718577e-002
2.867630e+003, 1.673776e-002
2.869558e+003, 1.603420e-002
2.871487e+003, 1.702277e-002
2.873415e+003, 1.725274e-002
2.875344e+003, 1.678921e-002
2.877272e+003, 1.739495e-002
2.879201e+003, 1.770177e-002
2.881129e+003, 1.779859e-002
2.883058e+003, 1.666663e-002
2.884986e+003, 1.650954e-002
2.886915e+003, 1.751385e-002
2.888843e+003, 1.784317e-002
2.890771e+003, 1.770634e-002
2.892700e+003, 1.696159e-002
2.894628e+003, 1.659324e-002
2.896557e+003, 1.753547e-002
2.898485e+003, 1.892161e-002
2.900414e+003, 1.964342e-002
2.902342e+003, 1.903795e-002
2.904271e+003, 1.828762e-002
2.906199e+003, 1.816244e-002
2.908128e+003, 1.846700e-002
2.910056e+003, 1.790773e-002
2.911985e+003, 1.689522e-002
2.913913e+003, 1.779417e-002
2.915842e+003, 1.920237e-002
2.917770e+003, 2.007600e-002
2.919698e+003, 2.076050e-002
2.921627e+003, 2.027375e-002
2.923555e+003, 1.843615e-002
2.925484e+003, 1.815088e-002
2.927412e+003, 1.706101e-002
2.929341e+003, 1.663917e-002
2.931269e+003, 1.847012e-002
2.933198e+003, 1.961692e-002
2.935126e+003, 1.887672e-002
2.937055e+003, 1.907352e-002
2.938983e+003, 2.030248e-002
2.940912e+003, 2.046839e-002
2.942840e+003, 1.983185e-002
2.944769e+003, 2.017602e-002
2.946697e+003, 1.923092e-002
2.948625e+003, 1.842845e-002
2.950554e+003, 1.857071e-002
2.952482e+003, 1.897047e-002
2.954411e+003, 1.922750e-002
2.956339e+003, 2.059655e-002
2.958268e+003, 2.149855e-002
2.960196e+003, 2.125914e-002
2.962125e+003, 2.020685e-002
2.964053e+003, 1.999177e-002
2.965982e+003, 2.012411e-002
2.967910e+003, 2.029810e-002
2.969839e+003, 2.174039e-002
2.971767e+003, 2.177291e-002
2.973696e+003, 2.162152e-002
2.975624e+003, 2.299272e-002
2.977552e+003, 2.289970e-002
2.979481e+003, 2.226466e-002
2.981409e+003, 2.284276e-002
2.983338e+003, 2.268142e-002
2.985266e+003, 2.168110e-002
2.987195e+003, 2.137309e-002
2.989123e+003, 2.087228e-002
2.991052e+003, 2.052271e-002
2.992980e+003, 2.028281e-002
2.994909e+003, 2.060356e-002
2.996837e+003, 2.248357e-002
2.998766e+003, 2.267093e-002
3.000694e+003, 2.131767e-002
3.002623e+003, 2.130163e-002
3.004551e+003, 2.194009e-002
3.006479e+003, 2.228863e-002
3.008408e+003, 2.290931e-002
3.010336e+003, 2.331378e-002
3.012265e+003, 2.263891e-002
3.014193e+003, 2.140664e-002
3.016122e+003, 2.165217e-002
3.018050e+003, 2.283192e-002
3.019979e+003, 2.322058e-002
3.021907e+003, 2.344548e-002
3.023836e+003, 2.329765e-002
3.025764e+003, 2.242794e-002
3.027693e+003, 2.218041e-002
3.029621e+003, 2.239166e-002
3.031550e+003, 2.141540e-002
3.033478e+003, 2.203355e-002
3.035406e+003, 2.391954e-002
3.037335e+003, 2.370507e-002
3.039263e+003, 2.456569e-002
3.041192e+003, 2.497026e-002
3.043120e+003, 2.486239e-002
3.045049e+003, 2.430512e-002
3.046977e+003, 2.412193e-002
3.048906e+003, 2.411949e-002
3.050834e+003, 2.409902e-002
3.052763e+003, 2.430297e-002
3.054691e+003, 2.431215e-002
3.056620e+003, 2.547523e-002
3.058548e+003, 2.605204e-002
3.060477e+003, 2.528898e-002
3.062405e+003, 2.474008e-002
3.064333e+003, 2.485092e-002
3.066262e+003, 2.602326e-002
3.068190e+003, 2.631415e-002
3.070119e+003, 2.556246e-002
3.072047e+003, 2.454061e-002
3.073976e+003, 2.561884e-002
3.075904e+003, 2.711069e-002
3.077833e+003, 2.762638e-002
3.079761e+003, 2.783568e-002
3.081690e+003, 2.726872e-002
3.083618e+003, 2.707343e-002
3.085547e+003, 2.767535e-002
3.087475e+003, 2.805557e-002
3.089404e+003, 2.860286e-002
3.091332e+003, 2.836671e-002
3.093260e+003, 3.049767e-002
3.095189e+003, 3.204482e-002
3.097117e+003, 3.183807e-002
3.099046e+003, 3.158828e-002
3.100974e+003, 3.114454e-002
3.102903e+003, 2.993624e-002
3.104831e+003, 2.837456e-002
3.106760e+003, 2.886657e-002
3.108688e+003, 3.009745e-002
3.110617e+003, 3.137895e-002
3.112545e+003, 3.249191e-002
3.114474e+003, 3.204881e-002
3.116402e+003, 3.142909e-002
3.118331e+003, 3.232273e-002
3.120259e+003, 3.226550e-002
3.122188e+003, 3.244377e-002
3.124116e+003, 3.353484e-002
3.126044e+003, 3.400903e-002
3.127973e+003, 3.179324e-002
3.129901e+003, 3.104670e-002
3.131830e+003, 3.374901e-002
3.133758e+003, 3.474970e-002
3.135687e+003, 3.565977e-002
3.137615e+003, 3.582803e-002
3.139544e+003, 3.529814e-002
3.141472e+003, 3.505573e-002
3.143401e+003, 3.478525e-002
3.145329e+003, 3.702608e-002
3.147258e+003, 3.750189e-002
3.149186e+003, 3.617651e-002
3.151115e+003, 3.601257e-002
3.153043e+003, 3.632638e-002
3.154971e+003, 3.636052e-002
3.156900e+003, 3.609039e-002
3.158828e+003, 3.732057e-002
3.160757e+003, 3.906361e-002
3.162685e+003, 3.961240e-002
3.164614e+003, 3.911710e-002
3.166542e+003, 3.991558e-002
3.168471e+003, 4.176370e-002
3.170399e+003, 4.247950e-002
3.172328e+003, 4.257721e-002
3.174256e+003, 4.209758e-002
3.176185e+003, 4.078379e-002
3.178113e+003, 4.203474e-002
3.180042e+003, 4.232673e-002
3.181970e+003, 4.306867e-002
3.183898e+003, 4.453585e-002
3.185827e+003, 4.492654e-002
3.187755e+003, 4.421112e-002
3.189684e+003, 4.514864e-002
3.191612e+003, 4.636153e-002
3.193541e+003, 4.752506e-002
3.195469e+003, 4.737934e-002
3.197398e+003, 4.759507e-002
3.199326e+003, 4.902330e-002
3.201255e+003, 5.051359e-002
3.203183e+003, 5.187067e-002
3.205112e+003, 5.277126e-002
3.207040e+003, 5.210245e-002
3.208969e+003, 5.342206e-002
3.210897e+003, 5.640968e-002
3.212825e+003, 5.884283e-002
3.214754e+003, 5.852365e-002
3.216682e+003, 5.756426e-002
3.218611e+003, 5.894768e-002
3.220539e+003, 6.140967e-002
3.222468e+003, 6.337396e-002
3.224396e+003, 6.663056e-002
3.226325e+003, 6.870130e-002
3.228253e+003, 6.791905e-002
3.230182e+003, 6.826893e-002
3.232110e+003, 6.946418e-002
3.234039e+003, 6.962959e-002
3.235967e+003, 6.960600e-002
3.237896e+003, 7.069086e-002
3.239824e+003, 7.139721e-002
3.241752e+003, 7.314958e-002
3.243681e+003, 7.392495e-002
3.245609e+003, 7.449283e-002
3.247538e+003, 7.569765e-002
3.249466e+003, 7.656159e-002
3.251395e+003, 7.724671e-002
3.253323e+003, 7.919487e-002
3.255252e+003, 8.011285e-002
3.257180e+003, 8.032399e-002
3.259109e+003, 8.143777e-002
3.261037e+003, 8.455965e-002
3.262966e+003, 8.624178e-002
3.264894e+003, 8.642577e-002
3.266823e+003, 8.742362e-002
3.268751e+003, 8.827972e-002
3.270679e+003, 8.574387e-002
3.272608e+003, 8.221735e-002
3.274536e+003, 8.169881e-002
3.276465e+003, 8.204959e-002
3.278393e+003, 8.147328e-002
3.280322e+003, 8.080322e-002
3.282250e+003, 8.027131e-002
3.284179e+003, 8.031593e-002
3.286107e+003, 7.707628e-002
3.288036e+003, 7.436828e-002
3.289964e+003, 7.188988e-002
3.291893e+003, 6.867830e-002
3.293821e+003, 6.777450e-002
3.295750e+003, 6.886110e-002
3.297678e+003, 7.057936e-002
3.299606e+003, 6.740941e-002
3.301535e+003, 6.240442e-002
3.303463e+003, 6.197781e-002
3.305392e+003, 6.180725e-002
3.307320e+003, 6.025760e-002
3.309249e+003, 6.070010e-002
3.311177e+003, 6.112624e-002
3.313106e+003, 5.976818e-002
3.315034e+003, 5.747296e-002
3.316963e+003, 5.779169e-002
3.318891e+003, 5.664833e-002
3.320820e+003, 5.508337e-002
3.322748e+003, 5.522014e-002
3.324677e+003, 5.502547e-002
3.326605e+003, 5.334562e-002
3.328533e+003, 5.351136e-002
3.330462e+003, 5.460601e-002
3.332390e+003, 5.360602e-002
3.334319e+003, 5.354739e-002
3.336247e+003, 5.357837e-002
3.338176e+003, 5.244381e-002
3.340104e+003, 5.292043e-002
3.342033e+003, 5.256951e-002
3.343961e+003, 5.341645e-002
3.345890e+003, 5.507945e-002
3.347818e+003, 5.488874e-002
3.349747e+003, 5.482089e-002
3.351675e+003, 5.597655e-002
3.353604e+003, 5.340275e-002
3.355532e+003, 5.174479e-002
3.357460e+003, 5.221261e-002
3.359389e+003, 5.276543e-002
3.361317e+003, 5.350768e-002
3.363246e+003, 5.277355e-002
3.365174e+003, 5.313320e-002
3.367103e+003, 5.430382e-002
3.369031e+003, 5.290970e-002
3.370960e+003, 5.328223e-002
3.372888e+003, 5.541119e-002
3.374817e+003, 5.557434e-002
3.376745e+003, 5.671236e-002
3.378674e+003, 5.629368e-002
3.380602e+003, 5.525619e-002
3.382531e+003, 5.565166e-002
3.384459e+003, 5.722791e-002
3.386387e+003, 5.842056e-002
3.388316e+003, 5.935770e-002
3.390244e+003, 6.217908e-002
3.392173e+003, 6.406080e-002
3.394101e+003, 6.444307e-002
3.396030e+003, 6.562732e-002
3.397958e+003, 6.619285e-002
3.399887e+003, 6.706788e-002
3.401815e+003, 6.946228e-002
3.403744e+003, 7.275101e-002
3.405672e+003, 7.453870e-002
3.407601e+003, 7.706521e-002
3.409529e+003, 8.007014e-002
3.411458e+003, 8.174320e-002
3.413386e+003, 8.184917e-002
3.415314e+003, 8.239511e-002
3.417243e+003, 8.453695e-002
3.419171e+003, 8.353071e-002
3.421100e+003, 8.154906e-002
3.423028e+003, 8.246841e-002
3.424957e+003, 8.234693e-002
3.426885e+003, 7.869907e-002
3.428814e+003, 7.736149e-002
3.430742e+003, 7.716136e-002
3.432671e+003, 7.616537e-002
3.434599e+003, 7.906327e-002
3.436528e+003, 8.149874e-002
3.438456e+003, 8.392313e-002
3.440385e+003, 8.775191e-002
3.442313e+003, 9.263217e-002
3.444241e+003, 9.634598e-002
3.446170e+003, 1.001327e-001
3.448098e+003, 1.050480e-001
3.450027e+003, 1.119400e-001
3.451955e+003, 1.176495e-001
3.453884e+003, 1.217171e-001
3.455812e+003, 1.258785e-001
3.457741e+003, 1.333007e-001
3.459669e+003, 1.394825e-001
3.461598e+003, 1.433587e-001
3.463526e+003, 1.467104e-001
3.465455e+003, 1.493286e-001
3.467383e+003, 1.524730e-001
3.469312e+003, 1.548432e-001
3.471240e+003, 1.558457e-001
3.473168e+003, 1.539258e-001
3.475097e+003, 1.484544e-001
3.477025e+003, 1.434472e-001
3.478954e+003, 1.387551e-001
3.480882e+003, 1.337092e-001
3.482811e+003, 1.276745e-001
3.484739e+003, 1.207183e-001
3.486668e+003, 1.130025e-001
3.488596e+003, 1.051625e-001
3.490525e+003, 9.724230e-002
3.492453e+003, 9.004081e-002
3.494382e+003, 8.265252e-002
3.496310e+003, 7.757207e-002
3.498239e+003, 7.280864e-002
3.500167e+003, 6.907568e-002
3.502095e+003, 6.520739e-002
3.504024e+003, 6.261312e-002
3.505952e+003, 6.186994e-002
3.507881e+003, 5.871122e-002
3.509809e+003, 5.640465e-002
3.511738e+003, 5.556557e-002
3.513666e+003, 5.491718e-002
3.515595e+003, 5.260865e-002
3.517523e+003, 5.086098e-002
3.519452e+003, 4.959133e-002
3.521380e+003, 4.675173e-002
3.523309e+003, 4.710801e-002
3.525237e+003, 4.668142e-002
3.527166e+003, 4.324962e-002
3.529094e+003, 3.987679e-002
3.531022e+003, 3.858173e-002
3.532951e+003, 3.816015e-002
3.534879e+003, 3.755840e-002
3.536808e+003, 3.549360e-002
3.538736e+003, 3.272587e-002
3.540665e+003, 3.121086e-002
3.542593e+003, 3.152245e-002
3.544522e+003, 2.967248e-002
3.546450e+003, 2.526077e-002
3.548379e+003, 2.421835e-002
3.550307e+003, 2.659127e-002
3.552236e+003, 2.628399e-002
3.554164e+003, 2.351177e-002
3.556093e+003, 2.363890e-002
3.558021e+003, 2.451723e-002
3.559949e+003, 2.554591e-002
3.561878e+003, 2.683392e-002
3.563806e+003, 2.549712e-002
3.565735e+003, 2.263732e-002
3.567663e+003, 1.891409e-002
3.569592e+003, 1.810583e-002
3.571520e+003, 1.977331e-002
3.573449e+003, 2.048257e-002
3.575377e+003, 1.983942e-002
3.577306e+003, 1.850249e-002
3.579234e+003, 1.724957e-002
3.581163e+003, 1.542374e-002
3.583091e+003, 1.552893e-002
3.585020e+003, 1.716071e-002
3.586948e+003, 2.036871e-002
3.588876e+003, 2.197767e-002
3.590805e+003, 1.620818e-002
3.592733e+003, 1.199469e-002
3.594662e+003, 1.521196e-002
3.596590e+003, 1.962125e-002
3.598519e+003, 1.733347e-002
3.600447e+003, 1.302302e-002
3.602376e+003, 1.310690e-002
3.604304e+003, 1.731787e-002
3.606233e+003, 1.792530e-002
3.608161e+003, 1.435355e-002
3.610090e+003, 1.491493e-002
3.612018e+003, 1.631385e-002
3.613947e+003, 1.486692e-002
3.615875e+003, 1.469779e-002
3.617803e+003, 1.299562e-002
3.619732e+003, 8.370776e-003
3.621660e+003, 8.546676e-003
3.623589e+003, 1.054071e-002
3.625517e+003, 1.250573e-002
3.627446e+003, 1.183990e-002
3.629374e+003, 1.107397e-002
3.631303e+003, 1.047909e-002
3.633231e+003, 8.303844e-003
3.635160e+003, 7.180887e-003
3.637088e+003, 1.069354e-002
3.639017e+003, 1.159609e-002
3.640945e+003, 8.700628e-003
3.642874e+003, 9.060888e-003
3.644802e+003, 1.176332e-002
3.646730e+003, 1.370090e-002
3.648659e+003, 1.203984e-002
3.650587e+003, 1.145848e-002
3.652516e+003, 9.308361e-003
3.654444e+003, 8.988349e-003
3.656373e+003, 1.165554e-002
3.658301e+003, 1.266426e-002
3.660230e+003, 1.177780e-002
3.662158e+003, 8.095887e-003
3.664087e+003, 3.760377e-003
3.666015e+003, 3.560252e-003
3.667944e+003, 7.726747e-003
3.669872e+003, 1.083572e-002
3.671801e+003, 9.143972e-003
3.673729e+003, 6.757272e-003
3.675657e+003, 9.476371e-003
3.677586e+003, 9.731913e-003
3.679514e+003, 8.525940e-003
3.681443e+003, 9.058557e-003
3.683371e+003, 6.499755e-003
3.685300e+003, 8.328700e-003
3.687228e+003, 1.194062e-002
3.689157e+003, 9.325016e-003
3.691085e+003, 4.449962e-003
3.693014e+003, 2.315828e-003
3.694942e+003, 4.130535e-003
3.696871e+003, 5.389140e-003
3.698799e+003, 4.824676e-003
3.700728e+003, 3.802406e-003
3.702656e+003, 5.465893e-003
3.704584e+003, 6.403840e-003
3.706513e+003, 5.772542e-003
3.708441e+003, 7.952823e-003
3.710370e+003, 6.516908e-003
3.712298e+003, 3.396749e-003
3.714227e+003, 5.184165e-003
3.716155e+003, 4.776673e-003
3.718084e+003, 3.782699e-003
3.720012e+003, 4.365812e-003
3.721941e+003, 5.393514e-003
3.723869e+003, 4.949826e-003
3.725798e+003, 7.266677e-003
3.727726e+003, 9.586258e-003
3.729655e+003, 7.924424e-003
3.731583e+003, 7.629730e-003
3.733511e+003, 9.331245e-003
3.735440e+003, 9.253659e-003
3.737368e+003, 5.027891e-003
3.739297e+003, 4.925469e-003
3.741225e+003, 6.496053e-003
3.743154e+003, 5.462334e-003
3.745082e+003, 7.301672e-003
3.747011e+003, 8.670231e-003
3.748939e+003, 1.065514e-002
3.750868e+003, 1.024873e-002
3.752796e+003, 9.092200e-003
3.754725e+003, 7.498937e-003
3.756653e+003, 5.651270e-003
3.758582e+003, 5.921627e-003
3.760510e+003, 6.886612e-003
3.762438e+003, 8.209946e-003
3.764367e+003, 9.834066e-003
3.766295e+003, 6.262209e-003
3.768224e+003, 5.616182e-003
3.770152e+003, 7.359585e-003
3.772081e+003, 7.322170e-003
3.774009e+003, 7.202823e-003
3.775938e+003, 5.704009e-003
3.777866e+003, 9.331316e-003
3.779795e+003, 1.110190e-002
3.781723e+003, 7.928153e-003
3.783652e+003, 7.453185e-003
3.785580e+003, 1.040694e-002
3.787509e+003, 9.942877e-003
3.789437e+003, 9.181478e-003
3.791365e+003, 8.941475e-003
3.793294e+003, 8.528166e-003
3.795222e+003, 7.509833e-003
3.797151e+003, 5.260905e-003
3.799079e+003, 5.539777e-003
3.801008e+003, 4.957112e-003
3.802936e+003, 3.136510e-003
3.804865e+003, 1.988825e-003
3.806793e+003, 5.836186e-003
3.808722e+003, 9.148255e-003
3.810650e+003, 8.616685e-003
3.812579e+003, 8.219185e-003
3.814507e+003, 7.273005e-003
3.816436e+003, 5.917594e-003
3.818364e+003, 4.932668e-003
3.820292e+003, 5.273031e-003
3.822221e+003, 4.348115e-003
3.824149e+003, 4.977379e-003
3.826078e+003, 4.735898e-003
3.828006e+003, 4.078506e-003
3.829935e+003, 5.876250e-003
3.831863e+003, 7.258532e-003
3.833792e+003, 7.660422e-003
3.835720e+003, 9.594495e-003
3.837649e+003, 1.035738e-002
3.839577e+003, 8.019783e-003
3.841506e+003, 8.290628e-003
3.843434e+003, 9.722154e-003
3.845363e+003, 8.916765e-003
3.847291e+003, 5.530140e-003
3.849219e+003, 4.443917e-003
3.851148e+003, 8.728141e-003
3.853076e+003, 8.565427e-003
3.855005e+003, 7.248743e-003
3.856933e+003, 9.385754e-003
3.858862e+003, 1.063439e-002
3.860790e+003, 1.009369e-002
3.862719e+003, 8.936939e-003
3.864647e+003, 7.709727e-003
3.866576e+003, 8.556804e-003
3.868504e+003, 1.123109e-002
3.870433e+003, 1.030082e-002
3.872361e+003, 5.929884e-003
3.874290e+003, 4.959207e-003
3.876218e+003, 8.473711e-003
3.878146e+003, 7.881244e-003
3.880075e+003, 5.772048e-003
3.882003e+003, 3.857157e-003
3.883932e+003, 3.682889e-003
3.885860e+003, 5.707660e-003
3.887789e+003, 1.053496e-002
3.889717e+003, 1.138843e-002
3.891646e+003, 7.977470e-003
3.893574e+003, 3.396885e-003
3.895503e+003, 1.935406e-003
3.897431e+003, 6.599514e-003
3.899360e+003, 6.594738e-003
3.901288e+003, 6.600076e-003
3.903217e+003, 9.008403e-003
3.905145e+003, 6.302017e-003
3.907073e+003, 5.744924e-003
3.909002e+003, 7.597452e-003
3.910930e+003, 3.364374e-003
3.912859e+003, 3.511274e-003
3.914787e+003, 6.168120e-003
3.916716e+003, 4.807224e-003
3.918644e+003, 5.330763e-003
3.920573e+003, 8.518842e-003
3.922501e+003, 7.752287e-003
3.924430e+003, 3.471883e-003
3.926358e+003, 4.291021e-003
3.928287e+003, 6.462956e-003
3.930215e+003, 6.829695e-003
3.932144e+003, 7.592306e-003
3.934072e+003, 9.546728e-003
3.936000e+003, 7.624643e-003
3.937929e+003, 5.154917e-003
3.939857e+003, 7.869995e-003
3.941786e+003, 9.786243e-003
3.943714e+003, 9.771449e-003
3.945643e+003, 8.202309e-003
3.947571e+003, 7.019421e-003
3.949500e+003, 7.347701e-003
3.951428e+003, 7.360493e-003
3.953357e+003, 6.824537e-003
3.955285e+003, 4.085107e-003
3.957214e+003, 1.705648e-003
3.959142e+003, 5.819248e-003
3.961071e+003, 7.971308e-003
3.962999e+003, 5.444713e-003
3.964927e+003, 4.751255e-003
3.966856e+003, 5.030502e-003
3.968784e+003, 4.424267e-003
3.970713e+003, 3.489626e-003
3.972641e+003, 1.362510e-003
3.974570e+003, 1.456750e-003
3.976498e+003, 1.928688e-003
3.978427e+003, 2.719373e-003
3.980355e+003, 6.143304e-003
3.982284e+003, 8.919235e-003
3.984212e+003, 8.287395e-003
3.986141e+003, 8.260883e-003
3.988069e+003, 8.493664e-003
3.989998e+003, 7.421583e-003
3.991926e+003, 8.908791e-003
3.993854e+003, 9.043452e-003
3.995783e+003, 7.620234e-003
3.997711e+003, 8.193829e-003
3.999640e+003, 8.197783e-003
4.001568e+003, 0.000000e+000
##END=



