##NAMES=Brookite
##RRUFFID=R050591
##IDEAL CHEMISTRY=Ti^4+^O_2_
##LOCALITY=Taftan, near Dalbandi, Baluchistan, Pakistan
##OWNER=RRUFF
##SOURCE=Wayne Thompson
##DESCRIPTION=Yellowish-brown to reddish-brown thin tabular crystal
##STATUS=The identification of this mineral has been confirmed by X-ray diffraction and chemical analysis
##URL=rruff.info/R050591
##MEASURED CHEMISTRY=Ti_1.00_O_2_
399.1926, 0.2733863
401.1211, 0.2865556
403.0496, 0.2879333
404.9780, 0.2727545
406.9065, 0.2617522
408.8350, 0.2660927
410.7634, 0.2693591
412.6919, 0.2712872
414.6204, 0.2693196
416.5488, 0.2646045
418.4773, 0.2622155
420.4058, 0.2539709
422.3342, 0.2502327
424.2627, 0.2523001
426.1912, 0.2466532
428.1196, 0.2419915
430.0481, 0.2419868
431.9766, 0.2395933
433.9050, 0.2354393
435.8335, 0.2340829
437.7620, 0.2314916
439.6904, 0.2296740
441.6189, 0.2277785
443.5474, 0.2194998
445.4758, 0.2158834
447.4043, 0.2161982
449.3328, 0.2164606
451.2612, 0.2144910
453.1897, 0.2139791
455.1182, 0.2135188
457.0466, 0.2139379
458.9751, 0.2170193
460.9036, 0.2204020
462.8320, 0.2238482
464.7605, 0.2296923
466.6890, 0.2351035
468.6174, 0.2381005
470.5459, 0.2398906
472.4744, 0.2423889
474.4028, 0.2444095
476.3313, 0.2452784
478.2598, 0.2447413
480.1882, 0.2450354
482.1167, 0.2485818
484.0452, 0.2512937
485.9736, 0.2504404
487.9021, 0.2506707
489.8306, 0.2513905
491.7590, 0.2515545
493.6875, 0.2499276
495.6160, 0.2500798
497.5444, 0.2496133
499.4729, 0.2478224
501.4014, 0.2483594
503.3298, 0.2497656
505.2583, 0.2519745
507.1868, 0.2551180
509.1152, 0.2589040
511.0437, 0.2623771
512.9722, 0.2633666
514.9006, 0.2624924
516.8291, 0.2624350
518.7576, 0.2646633
520.6860, 0.2658263
522.6145, 0.2655256
524.5430, 0.2646397
526.4714, 0.2652464
528.3999, 0.2649880
530.3284, 0.2619567
532.2568, 0.2593567
534.1853, 0.2593271
536.1138, 0.2574089
538.0422, 0.2550097
539.9707, 0.2554893
541.8992, 0.2561804
543.8276, 0.2565290
545.7561, 0.2565015
547.6846, 0.2581244
549.6130, 0.2610536
551.5415, 0.2622333
553.4700, 0.2626630
555.3984, 0.2642648
557.3269, 0.2660084
559.2554, 0.2677696
561.1838, 0.2696891
563.1123, 0.2693083
565.0408, 0.2701208
566.9692, 0.2715391
568.8977, 0.2710992
570.8262, 0.2708008
572.7546, 0.2704737
574.6831, 0.2688569
576.6116, 0.2673448
578.5400, 0.2660216
580.4685, 0.2643479
582.3970, 0.2631039
584.3254, 0.2612002
586.2539, 0.2583575
588.1824, 0.2568678
590.1108, 0.2557531
592.0393, 0.2538240
593.9678, 0.2513891
595.8962, 0.2491388
597.8247, 0.2470717
599.7532, 0.2449585
601.6816, 0.2420658
603.6101, 0.2404754
605.5386, 0.2395303
607.4670, 0.2377135
609.3955, 0.2355717
611.3240, 0.2336487
613.2524, 0.2317238
615.1809, 0.2293984
617.1094, 0.2273688
619.0378, 0.2259275
620.9663, 0.2242299
622.8948, 0.2222291
624.8232, 0.2206004
626.7517, 0.2189575
628.6802, 0.2169992
630.6086, 0.2158558
632.5371, 0.2143339
634.4656, 0.2121912
636.3940, 0.2102393
638.3225, 0.2080007
640.2510, 0.2060357
642.1794, 0.2042801
644.1079, 0.2028433
646.0364, 0.2015471
647.9648, 0.1999192
649.8933, 0.1976251
651.8218, 0.1949208
653.7502, 0.1929893
655.6787, 0.1919091
657.6072, 0.1910831
659.5356, 0.1898643
661.4641, 0.1885047
663.3926, 0.1870050
665.3210, 0.1854304
667.2495, 0.1835326
669.1780, 0.1810631
671.1064, 0.1793403
673.0349, 0.1784981
674.9634, 0.1771042
676.8918, 0.1753402
678.8203, 0.1740689
680.7488, 0.1727723
682.6772, 0.1708349
684.6057, 0.1694793
686.5342, 0.1685369
688.4626, 0.1671091
690.3911, 0.1656876
692.3196, 0.1643308
694.2480, 0.1630263
696.1765, 0.1617564
698.1050, 0.1599132
700.0334, 0.1584485
701.9619, 0.1572692
703.8904, 0.1555628
705.8188, 0.1537664
707.7473, 0.1524425
709.6758, 0.1512610
711.6042, 0.1494307
713.5327, 0.1475658
715.4612, 0.1463490
717.3896, 0.1448588
719.3181, 0.1433377
721.2466, 0.1417233
723.1750, 0.1397898
725.1035, 0.1381002
727.0320, 0.1368132
728.9604, 0.1350082
730.8889, 0.1329155
732.8174, 0.1309227
734.7458, 0.1292512
736.6743, 0.1277606
738.6028, 0.1256942
740.5313, 0.1237187
742.4597, 0.1222346
744.3882, 0.1208908
746.3167, 0.1192890
748.2451, 0.1175038
750.1736, 0.1156668
752.1021, 0.1138716
754.0305, 0.1121081
755.9590, 0.1104496
757.8875, 0.1087356
759.8159, 0.1072702
761.7444, 0.1056956
763.6729, 0.1040429
765.6013, 0.1024580
767.5298, 0.1008309
769.4583, 9.9144757E-02
771.3867, 9.7253747E-02
773.3152, 9.5738754E-02
775.2437, 9.4254762E-02
777.1721, 9.2433013E-02
779.1006, 9.0775989E-02
781.0291, 8.9017317E-02
782.9575, 8.6949550E-02
784.8860, 8.5396864E-02
786.8145, 8.3966203E-02
788.7429, 8.2428433E-02
790.6714, 8.0914527E-02
792.5999, 7.9208776E-02
794.5283, 7.7635556E-02
796.4568, 7.6354519E-02
798.3853, 7.4745707E-02
800.3137, 7.3394537E-02
802.2422, 7.2170883E-02
804.1707, 7.1107082E-02
806.0991, 6.9982693E-02
808.0276, 6.8537727E-02
809.9561, 6.7361981E-02
811.8845, 6.6490248E-02
813.8130, 6.5673359E-02
815.7415, 6.4937502E-02
817.6699, 6.3989997E-02
819.5984, 6.3152842E-02
821.5269, 6.2658459E-02
823.4553, 6.2225290E-02
825.3838, 6.1725561E-02
827.3123, 6.1308570E-02
829.2407, 6.1077610E-02
831.1692, 6.0897950E-02
833.0977, 6.0913101E-02
835.0261, 6.0757920E-02
836.9546, 6.0139060E-02
838.8831, 5.9553038E-02
840.8115, 5.9006669E-02
842.7400, 5.8699660E-02
844.6685, 5.8691740E-02
846.5969, 5.8398709E-02
848.5254, 5.7415530E-02
850.4539, 5.6339338E-02
852.3823, 5.5581812E-02
854.3108, 5.5086929E-02
856.2393, 5.4429371E-02
858.1677, 5.3488102E-02
860.0962, 5.2481279E-02
862.0247, 5.1872142E-02
863.9531, 5.1387899E-02
865.8816, 5.0410319E-02
867.8101, 4.9213059E-02
869.7385, 4.7972910E-02
871.6670, 4.6587590E-02
873.5955, 4.5100160E-02
875.5239, 4.3592051E-02
877.4524, 4.2207509E-02
879.3809, 4.0705651E-02
881.3093, 3.8844012E-02
883.2378, 3.7173700E-02
885.1663, 3.6115460E-02
887.0947, 3.4732670E-02
889.0232, 3.3035241E-02
890.9517, 3.1674169E-02
892.8801, 3.0574011E-02
894.8085, 2.9447921E-02
896.7370, 2.8593609E-02
898.6655, 2.8030749E-02
900.5939, 2.7553210E-02
902.5224, 2.6855880E-02
904.4509, 2.6001910E-02
906.3793, 2.5284739E-02
908.3078, 2.4925210E-02
910.2363, 2.4586340E-02
912.1647, 2.3991510E-02
914.0932, 2.3480510E-02
916.0217, 2.2828590E-02
917.9501, 2.2719581E-02
919.8786, 2.2754570E-02
921.8071, 2.2457490E-02
923.7355, 2.2093151E-02
925.6640, 2.2002090E-02
927.5925, 2.1719720E-02
929.5209, 2.1472270E-02
931.4494, 2.1465231E-02
933.3779, 2.1338951E-02
935.3063, 2.1074381E-02
937.2348, 2.0796400E-02
939.1633, 2.0721080E-02
941.0917, 2.0561621E-02
943.0202, 2.0231931E-02
944.9487, 2.0011880E-02
946.8771, 1.9797331E-02
948.8056, 1.9748431E-02
950.7341, 1.9751590E-02
952.6625, 1.9418640E-02
954.5910, 1.9161670E-02
956.5195, 1.9123450E-02
958.4479, 1.9206669E-02
960.3764, 1.9078260E-02
962.3049, 1.8766221E-02
964.2333, 1.8618969E-02
966.1618, 1.8501690E-02
968.0903, 1.8442789E-02
970.0187, 1.8307211E-02
971.9472, 1.8231619E-02
973.8757, 1.8408051E-02
975.8041, 1.8219350E-02
977.7326, 1.8059580E-02
979.6611, 1.7877100E-02
981.5895, 1.7613530E-02
983.5180, 1.7459139E-02
985.4465, 1.7240180E-02
987.3749, 1.7213389E-02
989.3034, 1.7220709E-02
991.2319, 1.6925860E-02
993.1603, 1.6690850E-02
995.0888, 1.6579639E-02
997.0173, 1.6309051E-02
998.9457, 1.6336231E-02
1000.874, 1.6420320E-02
1002.803, 1.6476519E-02
1004.731, 1.6752791E-02
1006.660, 1.6778359E-02
1008.588, 1.6431490E-02
1010.517, 1.5940320E-02
1012.445, 1.5772641E-02
1014.373, 1.6002139E-02
1016.302, 1.6034549E-02
1018.230, 1.5982321E-02
1020.159, 1.6004940E-02
1022.087, 1.5933950E-02
1024.016, 1.5681380E-02
1025.944, 1.5615280E-02
1027.873, 1.5621140E-02
1029.801, 1.5458010E-02
1031.730, 1.5387350E-02
1033.658, 1.5443090E-02
1035.587, 1.5463590E-02
1037.515, 1.5446700E-02
1039.444, 1.5356710E-02
1041.372, 1.5408650E-02
1043.301, 1.5406250E-02
1045.229, 1.5368160E-02
1047.157, 1.5312250E-02
1049.086, 1.5255220E-02
1051.014, 1.5148920E-02
1052.943, 1.5235110E-02
1054.871, 1.5356510E-02
1056.800, 1.5388890E-02
1058.728, 1.5409830E-02
1060.657, 1.5342070E-02
1062.585, 1.5482240E-02
1064.514, 1.5675461E-02
1066.442, 1.5587990E-02
1068.371, 1.5447690E-02
1070.299, 1.5600980E-02
1072.228, 1.5824070E-02
1074.156, 1.5745619E-02
1076.084, 1.5627680E-02
1078.013, 1.5640840E-02
1079.941, 1.5713220E-02
1081.870, 1.5787469E-02
1083.798, 1.5693219E-02
1085.727, 1.5836431E-02
1087.655, 1.6162580E-02
1089.584, 1.6213350E-02
1091.512, 1.6250281E-02
1093.441, 1.6437240E-02
1095.369, 1.6656760E-02
1097.298, 1.6843321E-02
1099.226, 1.6795570E-02
1101.155, 1.6878139E-02
1103.083, 1.7181110E-02
1105.011, 1.7361490E-02
1106.940, 1.7263381E-02
1108.868, 1.7229671E-02
1110.797, 1.7655451E-02
1112.725, 1.7992750E-02
1114.654, 1.8170901E-02
1116.582, 1.8251039E-02
1118.511, 1.8433630E-02
1120.439, 1.8805360E-02
1122.368, 1.9238461E-02
1124.296, 1.9439241E-02
1126.225, 1.9296121E-02
1128.153, 1.9247470E-02
1130.082, 1.9684549E-02
1132.010, 2.0160889E-02
1133.938, 2.0384930E-02
1135.867, 2.0480679E-02
1137.795, 2.0542290E-02
1139.724, 2.0797839E-02
1141.652, 2.0748500E-02
1143.581, 2.0858981E-02
1145.509, 2.1007810E-02
1147.438, 2.1102039E-02
1149.366, 2.1453340E-02
1151.295, 2.1711949E-02
1153.223, 2.1848530E-02
1155.152, 2.2160860E-02
1157.080, 2.2420580E-02
1159.009, 2.2548940E-02
1160.937, 2.2655619E-02
1162.865, 2.2874840E-02
1164.794, 2.3076721E-02
1166.722, 2.3235969E-02
1168.651, 2.3662601E-02
1170.579, 2.4064381E-02
1172.508, 2.4141990E-02
1174.436, 2.4382399E-02
1176.365, 2.4748741E-02
1178.293, 2.4921810E-02
1180.222, 2.5284709E-02
1182.150, 2.5707100E-02
1184.079, 2.5944130E-02
1186.007, 2.6280791E-02
1187.936, 2.6743580E-02
1189.864, 2.7178871E-02
1191.792, 2.7293550E-02
1193.721, 2.7497930E-02
1195.649, 2.7903920E-02
1197.578, 2.8257690E-02
1199.506, 2.8314359E-02
1201.435, 2.8588841E-02
1203.363, 2.8961660E-02
1205.292, 2.9251780E-02
1207.220, 2.9556081E-02
1209.149, 2.9821079E-02
1211.077, 2.9791130E-02
1213.006, 3.0234750E-02
1214.934, 3.0757120E-02
1216.863, 3.1136209E-02
1218.791, 3.1456169E-02
1220.719, 3.1699341E-02
1222.648, 3.1875528E-02
1224.576, 3.2215040E-02
1226.505, 3.2698061E-02
1228.433, 3.3089411E-02
1230.362, 3.3476140E-02
1232.290, 3.3902328E-02
1234.219, 3.4168351E-02
1236.147, 3.4260731E-02
1238.076, 3.4566581E-02
1240.004, 3.5097640E-02
1241.933, 3.5464421E-02
1243.861, 3.5745461E-02
1245.790, 3.5905588E-02
1247.718, 3.6315288E-02
1249.646, 3.6751218E-02
1251.575, 3.6851510E-02
1253.503, 3.7100829E-02
1255.432, 3.7660271E-02
1257.360, 3.8103200E-02
1259.289, 3.8547259E-02
1261.217, 3.8905822E-02
1263.146, 3.9246801E-02
1265.074, 3.9838951E-02
1267.003, 4.0374979E-02
1268.931, 4.0830981E-02
1270.860, 4.1103970E-02
1272.788, 4.1360930E-02
1274.717, 4.1841570E-02
1276.645, 4.2083140E-02
1278.573, 4.2253122E-02
1280.502, 4.2639390E-02
1282.430, 4.3163080E-02
1284.359, 4.3598071E-02
1286.287, 4.4006281E-02
1288.216, 4.4546839E-02
1290.144, 4.4981521E-02
1292.073, 4.5234859E-02
1294.001, 4.5503359E-02
1295.930, 4.5933679E-02
1297.858, 4.6327539E-02
1299.787, 4.6536520E-02
1301.715, 4.6905961E-02
1303.644, 4.7151990E-02
1305.572, 4.7596481E-02
1307.500, 4.8095670E-02
1309.429, 4.8370741E-02
1311.357, 4.8901759E-02
1313.286, 4.9337462E-02
1315.214, 4.9603049E-02
1317.143, 5.0101839E-02
1319.071, 5.0578419E-02
1321.000, 5.1229000E-02
1322.928, 5.1698610E-02
1324.857, 5.2031182E-02
1326.785, 5.2376751E-02
1328.714, 5.2699421E-02
1330.642, 5.2889001E-02
1332.571, 5.3431440E-02
1334.499, 5.3876761E-02
1336.427, 5.4083262E-02
1338.356, 5.4366320E-02
1340.284, 5.4757461E-02
1342.213, 5.5190392E-02
1344.141, 5.5764440E-02
1346.070, 5.6231208E-02
1347.998, 5.6653529E-02
1349.927, 5.6750938E-02
1351.855, 5.6981161E-02
1353.784, 5.7666410E-02
1355.712, 5.8262061E-02
1357.641, 5.8563851E-02
1359.569, 5.8793530E-02
1361.498, 5.9043199E-02
1363.426, 5.9425220E-02
1365.354, 6.0100552E-02
1367.283, 6.0628600E-02
1369.211, 6.1037380E-02
1371.140, 6.1453890E-02
1373.068, 6.1961040E-02
1374.997, 6.2363971E-02
1376.925, 6.2679999E-02
1378.854, 6.3250743E-02
1380.782, 6.3715592E-02
1382.711, 6.4079307E-02
1384.639, 6.4435452E-02
1386.568, 6.4857394E-02
1388.496, 6.5410763E-02
1390.424, 6.6101544E-02
1392.353, 6.6539571E-02
1394.281, 6.6946767E-02
1396.210, 6.7332312E-02
1398.138, 6.7697696E-02
1400.067, 6.8202317E-02
1401.995, 6.8900123E-02
1403.924, 6.9200017E-02
1405.852, 6.9397204E-02
1407.781, 6.9752343E-02
1409.709, 7.0159629E-02
1411.638, 7.0548251E-02
1413.566, 7.1363866E-02
1415.495, 7.1963981E-02
1417.423, 7.2422110E-02
1419.351, 7.2746977E-02
1421.280, 7.2855897E-02
1423.208, 7.3305547E-02
1425.137, 7.4036293E-02
1427.065, 7.4715503E-02
1428.994, 7.5176969E-02
1430.922, 7.5674526E-02
1432.851, 7.5933963E-02
1434.779, 7.6035529E-02
1436.708, 7.6680191E-02
1438.636, 7.7560157E-02
1440.565, 7.7996612E-02
1442.493, 7.8132801E-02
1444.422, 7.8381069E-02
1446.350, 7.8385592E-02
1448.278, 7.8690581E-02
1450.207, 7.9143152E-02
1452.135, 7.9802118E-02
1454.064, 8.0286957E-02
1455.992, 8.0340922E-02
1457.921, 8.0440640E-02
1459.849, 8.0830179E-02
1461.778, 8.0989771E-02
1463.706, 8.1006542E-02
1465.635, 8.1371762E-02
1467.563, 8.2096078E-02
1469.492, 8.2695179E-02
1471.420, 8.3492428E-02
1473.349, 8.3964117E-02
1475.277, 8.4084950E-02
1477.205, 8.4337808E-02
1479.134, 8.4846057E-02
1481.062, 8.5385352E-02
1482.991, 8.6019441E-02
1484.919, 8.6714983E-02
1486.848, 8.7030277E-02
1488.776, 8.7357238E-02
1490.705, 8.7764010E-02
1492.633, 8.8380098E-02
1494.562, 8.8962562E-02
1496.490, 8.9316033E-02
1498.419, 8.9622207E-02
1500.347, 9.0089723E-02
1502.276, 9.0770297E-02
1504.204, 9.1519557E-02
1506.132, 9.1900170E-02
1508.061, 9.2081264E-02
1509.989, 9.2458658E-02
1511.918, 9.2966720E-02
1513.846, 9.3747661E-02
1515.775, 9.4313294E-02
1517.703, 9.4702907E-02
1519.632, 9.4875447E-02
1521.560, 9.5513187E-02
1523.489, 9.5836319E-02
1525.417, 9.5774747E-02
1527.346, 9.6147276E-02
1529.274, 9.6704967E-02
1531.203, 9.7170673E-02
1533.131, 9.7641833E-02
1535.059, 9.8167323E-02
1536.988, 9.8392583E-02
1538.916, 9.8737292E-02
1540.845, 9.9211179E-02
1542.773, 9.9845409E-02
1544.702, 0.1003920
1546.630, 0.1007312
1548.559, 0.1010754
1550.487, 0.1011038
1552.416, 0.1012879
1554.344, 0.1017549
1556.273, 0.1023413
1558.201, 0.1025596
1560.130, 0.1026962
1562.058, 0.1030100
1563.986, 0.1035122
1565.915, 0.1039316
1567.843, 0.1042915
1569.772, 0.1047516
1571.700, 0.1051308
1573.629, 0.1052515
1575.557, 0.1055762
1577.486, 0.1059489
1579.414, 0.1062050
1581.343, 0.1063397
1583.271, 0.1064820
1585.200, 0.1069789
1587.128, 0.1075117
1589.057, 0.1079402
1590.985, 0.1083757
1592.913, 0.1087347
1594.842, 0.1090399
1596.770, 0.1092141
1598.699, 0.1095532
1600.627, 0.1100492
1602.556, 0.1104969
1604.484, 0.1110443
1606.413, 0.1117427
1608.341, 0.1119934
1610.270, 0.1118474
1612.198, 0.1118193
1614.127, 0.1122243
1616.055, 0.1128924
1617.984, 0.1135542
1619.912, 0.1139841
1621.840, 0.1144999
1623.769, 0.1148130
1625.697, 0.1151241
1627.626, 0.1153745
1629.554, 0.1161241
1631.483, 0.1168792
1633.411, 0.1170618
1635.340, 0.1171097
1637.268, 0.1171642
1639.197, 0.1175787
1641.125, 0.1178905
1643.054, 0.1185397
1644.982, 0.1192118
1646.911, 0.1195358
1648.839, 0.1194395
1650.767, 0.1193851
1652.696, 0.1197900
1654.624, 0.1200277
1656.553, 0.1202646
1658.481, 0.1203066
1660.410, 0.1206603
1662.338, 0.1213743
1664.267, 0.1216890
1666.195, 0.1220130
1668.124, 0.1222767
1670.052, 0.1223308
1671.981, 0.1227968
1673.909, 0.1230547
1675.838, 0.1231252
1677.766, 0.1234019
1679.694, 0.1239202
1681.623, 0.1245962
1683.551, 0.1252887
1685.480, 0.1256258
1687.408, 0.1258014
1689.337, 0.1261733
1691.265, 0.1263075
1693.194, 0.1267850
1695.122, 0.1272666
1697.051, 0.1273665
1698.979, 0.1280873
1700.908, 0.1283045
1702.836, 0.1281345
1704.765, 0.1283633
1706.693, 0.1284063
1708.621, 0.1288346
1710.550, 0.1288858
1712.478, 0.1289831
1714.407, 0.1295477
1716.335, 0.1300982
1718.264, 0.1308017
1720.192, 0.1309144
1722.121, 0.1310953
1724.049, 0.1315954
1725.978, 0.1317782
1727.906, 0.1320603
1729.835, 0.1323595
1731.763, 0.1322935
1733.692, 0.1320495
1735.620, 0.1317495
1737.548, 0.1319192
1739.477, 0.1322135
1741.405, 0.1321808
1743.334, 0.1322421
1745.262, 0.1322616
1747.191, 0.1326105
1749.119, 0.1335842
1751.048, 0.1343697
1752.976, 0.1345106
1754.905, 0.1349911
1756.833, 0.1359215
1758.762, 0.1365578
1760.690, 0.1370973
1762.619, 0.1373820
1764.547, 0.1378897
1766.475, 0.1384712
1768.404, 0.1384551
1770.332, 0.1384578
1772.261, 0.1388915
1774.189, 0.1397015
1776.118, 0.1402631
1778.046, 0.1402907
1779.975, 0.1405362
1781.903, 0.1408988
1783.832, 0.1413827
1785.760, 0.1416094
1787.689, 0.1416857
1789.617, 0.1421791
1791.546, 0.1428293
1793.474, 0.1429541
1795.402, 0.1425413
1797.331, 0.1428055
1799.259, 0.1431365
1801.188, 0.1432101
1803.116, 0.1437595
1805.045, 0.1441203
1806.973, 0.1440506
1808.902, 0.1440925
1810.830, 0.1445187
1812.759, 0.1449215
1814.687, 0.1450955
1816.616, 0.1453646
1818.544, 0.1456977
1820.473, 0.1463917
1822.401, 0.1465541
1824.329, 0.1465848
1826.258, 0.1470057
1828.186, 0.1472550
1830.115, 0.1478537
1832.043, 0.1482442
1833.972, 0.1485993
1835.900, 0.1488864
1837.829, 0.1494370
1839.757, 0.1492885
1841.686, 0.1488260
1843.614, 0.1495745
1845.543, 0.1501640
1847.471, 0.1510391
1849.400, 0.1521863
1851.328, 0.1512044
1853.256, 0.1500924
1855.185, 0.1499875
1857.113, 0.1504062
1859.042, 0.1513564
1860.970, 0.1517208
1862.899, 0.1518025
1864.827, 0.1531180
1866.756, 0.1545290
1868.684, 0.1547192
1870.613, 0.1537886
1872.541, 0.1529695
1874.470, 0.1538403
1876.398, 0.1540413
1878.327, 0.1539157
1880.255, 0.1545504
1882.183, 0.1538190
1884.112, 0.1543260
1886.040, 0.1555568
1887.969, 0.1571335
1889.897, 0.1571656
1891.826, 0.1565856
1893.754, 0.1565501
1895.683, 0.1572988
1897.611, 0.1576909
1899.540, 0.1576940
1901.468, 0.1576207
1903.397, 0.1580367
1905.325, 0.1576118
1907.254, 0.1560739
1909.182, 0.1571809
1911.110, 0.1588905
1913.039, 0.1585113
1914.967, 0.1592822
1916.896, 0.1608567
1918.824, 0.1616144
1920.753, 0.1609968
1922.681, 0.1600699
1924.610, 0.1603378
1926.538, 0.1612103
1928.467, 0.1610156
1930.395, 0.1617130
1932.324, 0.1614446
1934.252, 0.1596718
1936.181, 0.1605216
1938.109, 0.1621474
1940.037, 0.1621445
1941.966, 0.1610064
1943.894, 0.1614674
1945.823, 0.1631924
1947.751, 0.1636569
1949.680, 0.1631215
1951.608, 0.1639611
1953.537, 0.1640621
1955.465, 0.1632756
1957.394, 0.1646891
1959.322, 0.1662913
1961.251, 0.1665731
1963.179, 0.1659059
1965.108, 0.1665727
1967.036, 0.1679434
1968.964, 0.1660719
1970.893, 0.1649255
1972.821, 0.1651828
1974.750, 0.1667907
1976.678, 0.1678081
1978.607, 0.1669846
1980.535, 0.1673753
1982.464, 0.1701913
1984.392, 0.1698890
1986.321, 0.1679810
1988.249, 0.1697181
1990.178, 0.1686985
1992.106, 0.1670437
1994.035, 0.1679327
1995.963, 0.1680712
1997.891, 0.1701476
1999.820, 0.1715253
2001.748, 0.1711870
2003.677, 0.1709403
2005.605, 0.1693597
2007.534, 0.1707019
2009.462, 0.1704571
2011.391, 0.1669149
2013.319, 0.1685364
2015.248, 0.1713921
2017.176, 0.1686567
2019.105, 0.1675206
2021.033, 0.1689174
2022.962, 0.1718144
2024.890, 0.1712745
2026.818, 0.1694085
2028.747, 0.1704976
2030.675, 0.1719403
2032.604, 0.1706278
2034.532, 0.1713533
2036.461, 0.1742236
2038.389, 0.1747498
2040.318, 0.1752153
2042.246, 0.1729514
2044.175, 0.1723759
2046.103, 0.1745074
2048.032, 0.1742493
2049.960, 0.1763410
2051.889, 0.1785232
2053.817, 0.1777698
2055.746, 0.1779330
2057.674, 0.1775610
2059.603, 0.1760196
2061.531, 0.1758963
2063.459, 0.1789092
2065.388, 0.1794320
2067.316, 0.1782892
2069.245, 0.1786640
2071.173, 0.1788698
2073.102, 0.1802034
2075.030, 0.1803096
2076.959, 0.1788212
2078.887, 0.1769263
2080.816, 0.1773256
2082.744, 0.1788086
2084.673, 0.1787914
2086.601, 0.1793978
2088.530, 0.1800193
2090.458, 0.1794582
2092.386, 0.1785330
2094.315, 0.1804724
2096.243, 0.1830430
2098.172, 0.1842785
2100.100, 0.1851678
2102.029, 0.1857763
2103.957, 0.1852835
2105.886, 0.1835872
2107.814, 0.1817480
2109.743, 0.1831120
2111.671, 0.1844175
2113.600, 0.1859049
2115.528, 0.1854299
2117.457, 0.1831324
2119.385, 0.1815814
2121.313, 0.1825200
2123.242, 0.1842468
2125.170, 0.1844897
2127.099, 0.1827906
2129.027, 0.1827671
2130.956, 0.1822565
2132.884, 0.1800419
2134.813, 0.1794712
2136.741, 0.1797835
2138.670, 0.1816653
2140.598, 0.1832258
2142.527, 0.1835322
2144.455, 0.1836257
2146.384, 0.1828675
2148.312, 0.1829830
2150.240, 0.1839551
2152.169, 0.1800765
2154.097, 0.1783443
2156.026, 0.1798954
2157.954, 0.1835743
2159.883, 0.1885472
2161.811, 0.1892888
2163.740, 0.1880498
2165.668, 0.1888106
2167.597, 0.1887739
2169.525, 0.1880549
2171.454, 0.1845525
2173.382, 0.1835918
2175.311, 0.1877070
2177.239, 0.1901672
2179.167, 0.1887465
2181.096, 0.1881595
2183.024, 0.1897646
2184.953, 0.1910395
2186.881, 0.1906165
2188.810, 0.1894973
2190.738, 0.1887828
2192.667, 0.1897601
2194.595, 0.1929399
2196.524, 0.1926058
2198.452, 0.1903707
2200.381, 0.1897318
2202.309, 0.1930656
2204.238, 0.1930061
2206.166, 0.1925570
2208.094, 0.1915525
2210.023, 0.1889804
2211.951, 0.1893924
2213.880, 0.1904044
2215.808, 0.1932796
2217.737, 0.1948404
2219.665, 0.1950992
2221.594, 0.1931881
2223.522, 0.1929129
2225.451, 0.1956232
2227.379, 0.1956266
2229.308, 0.1963115
2231.236, 0.1970920
2233.165, 0.1957071
2235.093, 0.1953785
2237.021, 0.1966080
2238.950, 0.1963520
2240.878, 0.1944879
2242.807, 0.1939885
2244.735, 0.1955955
2246.664, 0.1967373
2248.592, 0.1988829
2250.521, 0.1985851
2252.449, 0.1967375
2254.378, 0.1971030
2256.306, 0.1982897
2258.235, 0.1990162
2260.163, 0.1991197
2262.092, 0.2001043
2264.020, 0.2000454
2265.948, 0.1987699
2267.877, 0.1989837
2269.805, 0.2000500
2271.734, 0.1998493
2273.662, 0.1995420
2275.591, 0.2003749
2277.519, 0.2015009
2279.448, 0.2017179
2281.376, 0.2018337
2283.305, 0.2023543
2285.233, 0.2032484
2287.162, 0.2037654
2289.090, 0.2030478
2291.019, 0.2027023
2292.947, 0.2015030
2294.875, 0.2009911
2296.804, 0.2016066
2298.732, 0.2015009
2300.661, 0.2017745
2302.589, 0.2029532
2304.518, 0.2031824
2306.446, 0.2022396
2308.375, 0.2016073
2310.303, 0.2025502
2312.232, 0.2038122
2314.160, 0.2043773
2316.089, 0.2051606
2318.017, 0.2055927
2319.946, 0.2064655
2321.874, 0.2070930
2323.802, 0.2066243
2325.731, 0.2059719
2327.659, 0.2065284
2329.588, 0.2061652
2331.516, 0.2059993
2333.445, 0.2073996
2335.373, 0.2075237
2337.302, 0.2070284
2339.230, 0.2071259
2341.159, 0.2066102
2343.087, 0.2060495
2345.016, 0.2064081
2346.944, 0.2064757
2348.873, 0.2070214
2350.801, 0.2072677
2352.729, 0.2071725
2354.658, 0.2069667
2356.586, 0.2083509
2358.515, 0.2095887
2360.443, 0.2091230
2362.372, 0.2086554
2364.300, 0.2083115
2366.229, 0.2086115
2368.157, 0.2093842
2370.086, 0.2081916
2372.014, 0.2064233
2373.942, 0.2070066
2375.871, 0.2077550
2377.799, 0.2073477
2379.728, 0.2068366
2381.656, 0.2064774
2383.585, 0.2079354
2385.513, 0.2091724
2387.442, 0.2082606
2389.370, 0.2078984
2391.299, 0.2084747
2393.227, 0.2082877
2395.156, 0.2079964
2397.084, 0.2084468
2399.012, 0.2090328
2400.941, 0.2094453
2402.869, 0.2085985
2404.798, 0.2088813
2406.726, 0.2092326
2408.655, 0.2093478
2410.583, 0.2095498
2412.512, 0.2101396
2414.440, 0.2109703
2416.369, 0.2115188
2418.297, 0.2118097
2420.226, 0.2111123
2422.154, 0.2107294
2424.083, 0.2122187
2426.011, 0.2132766
2427.939, 0.2119188
2429.868, 0.2110369
2431.796, 0.2115110
2433.725, 0.2114727
2435.653, 0.2122580
2437.582, 0.2124282
2439.510, 0.2114655
2441.439, 0.2124252
2443.367, 0.2130379
2445.296, 0.2127730
2447.224, 0.2134094
2449.153, 0.2142507
2451.081, 0.2150319
2453.010, 0.2150876
2454.938, 0.2144088
2456.866, 0.2150856
2458.795, 0.2147702
2460.723, 0.2140400
2462.652, 0.2152796
2464.580, 0.2154288
2466.509, 0.2152259
2468.437, 0.2150891
2470.366, 0.2143476
2472.294, 0.2145219
2474.223, 0.2160562
2476.151, 0.2163196
2478.080, 0.2164086
2480.008, 0.2167705
2481.937, 0.2158230
2483.865, 0.2155581
2485.793, 0.2173097
2487.722, 0.2176474
2489.650, 0.2167565
2491.579, 0.2163756
2493.507, 0.2168038
2495.436, 0.2159243
2497.364, 0.2157037
2499.293, 0.2168232
2501.221, 0.2170222
2503.150, 0.2174587
2505.078, 0.2178195
2507.007, 0.2180670
2508.935, 0.2182151
2510.864, 0.2178103
2512.792, 0.2187248
2514.720, 0.2193189
2516.649, 0.2190461
2518.577, 0.2192442
2520.506, 0.2196974
2522.434, 0.2189448
2524.363, 0.2177151
2526.291, 0.2189592
2528.220, 0.2203904
2530.148, 0.2200510
2532.077, 0.2203797
2534.005, 0.2206431
2535.934, 0.2210456
2537.862, 0.2211293
2539.791, 0.2205805
2541.719, 0.2204310
2543.647, 0.2202770
2545.576, 0.2202641
2547.504, 0.2206362
2549.433, 0.2210013
2551.361, 0.2195399
2553.290, 0.2191554
2555.218, 0.2197203
2557.147, 0.2205636
2559.075, 0.2225232
2561.004, 0.2230667
2562.932, 0.2223907
2564.861, 0.2234881
2566.789, 0.2246822
2568.718, 0.2243825
2570.646, 0.2235301
2572.574, 0.2229008
2574.503, 0.2237093
2576.431, 0.2252883
2578.360, 0.2249325
2580.288, 0.2242520
2582.217, 0.2242608
2584.145, 0.2244114
2586.074, 0.2239914
2588.002, 0.2237567
2589.931, 0.2250071
2591.859, 0.2256010
2593.788, 0.2248091
2595.716, 0.2243024
2597.645, 0.2252105
2599.573, 0.2251762
2601.501, 0.2253873
2603.430, 0.2261354
2605.358, 0.2261038
2607.287, 0.2258268
2609.215, 0.2258040
2611.144, 0.2255210
2613.072, 0.2255732
2615.001, 0.2258152
2616.929, 0.2270542
2618.858, 0.2269790
2620.786, 0.2277630
2622.715, 0.2285942
2624.643, 0.2283980
2626.572, 0.2296810
2628.500, 0.2306168
2630.428, 0.2294682
2632.357, 0.2291476
2634.285, 0.2290235
2636.214, 0.2285721
2638.142, 0.2285873
2640.071, 0.2288118
2641.999, 0.2289986
2643.928, 0.2287202
2645.856, 0.2289203
2647.785, 0.2290686
2649.713, 0.2298473
2651.642, 0.2304376
2653.570, 0.2298257
2655.499, 0.2296966
2657.427, 0.2299340
2659.355, 0.2300035
2661.284, 0.2292908
2663.212, 0.2298791
2665.141, 0.2306546
2667.069, 0.2301654
2668.998, 0.2295495
2670.926, 0.2299440
2672.855, 0.2311099
2674.783, 0.2310237
2676.712, 0.2304998
2678.640, 0.2306129
2680.569, 0.2309866
2682.497, 0.2312363
2684.426, 0.2312172
2686.354, 0.2318311
2688.282, 0.2326576
2690.211, 0.2324483
2692.139, 0.2318706
2694.068, 0.2319788
2695.996, 0.2316009
2697.925, 0.2314240
2699.853, 0.2321599
2701.782, 0.2326239
2703.710, 0.2321950
2705.639, 0.2325744
2707.567, 0.2329617
2709.496, 0.2333531
2711.424, 0.2332979
2713.353, 0.2336707
2715.281, 0.2335551
2717.209, 0.2332041
2719.138, 0.2338848
2721.066, 0.2346197
2722.995, 0.2346368
2724.923, 0.2338564
2726.852, 0.2342626
2728.780, 0.2344121
2730.709, 0.2347134
2732.637, 0.2356179
2734.566, 0.2364299
2736.494, 0.2356715
2738.423, 0.2350583
2740.351, 0.2345607
2742.280, 0.2347434
2744.208, 0.2347762
2746.136, 0.2348543
2748.065, 0.2357851
2749.993, 0.2363608
2751.922, 0.2365952
2753.850, 0.2380146
2755.779, 0.2377668
2757.707, 0.2364891
2759.636, 0.2363608
2761.564, 0.2370557
2763.493, 0.2369919
2765.421, 0.2370345
2767.350, 0.2381171
2769.278, 0.2378437
2771.207, 0.2372681
2773.135, 0.2374679
2775.063, 0.2386637
2776.992, 0.2392516
2778.920, 0.2395556
2780.849, 0.2393312
2782.777, 0.2381121
2784.706, 0.2381274
2786.634, 0.2386493
2788.563, 0.2382877
2790.491, 0.2381050
2792.420, 0.2383575
2794.348, 0.2379840
2796.277, 0.2376300
2798.205, 0.2379998
2800.134, 0.2384198
2802.062, 0.2395313
2803.990, 0.2404407
2805.919, 0.2402059
2807.847, 0.2398898
2809.776, 0.2406583
2811.704, 0.2413682
2813.633, 0.2415311
2815.561, 0.2410191
2817.490, 0.2412182
2819.418, 0.2409434
2821.347, 0.2396822
2823.275, 0.2400274
2825.204, 0.2416849
2827.132, 0.2413597
2829.061, 0.2413146
2830.989, 0.2421545
2832.917, 0.2419912
2834.846, 0.2419765
2836.774, 0.2428957
2838.703, 0.2430370
2840.631, 0.2426554
2842.560, 0.2430907
2844.488, 0.2425559
2846.417, 0.2415322
2848.345, 0.2419891
2850.274, 0.2430810
2852.202, 0.2441007
2854.131, 0.2432329
2856.059, 0.2431502
2857.988, 0.2439116
2859.916, 0.2442777
2861.844, 0.2440305
2863.773, 0.2438067
2865.701, 0.2433114
2867.630, 0.2411944
2869.558, 0.2415358
2871.487, 0.2433857
2873.415, 0.2430393
2875.344, 0.2434581
2877.272, 0.2448702
2879.201, 0.2452440
2881.129, 0.2448587
2883.058, 0.2442888
2884.986, 0.2450138
2886.915, 0.2449025
2888.843, 0.2449588
2890.771, 0.2455858
2892.700, 0.2454371
2894.628, 0.2458784
2896.557, 0.2460092
2898.485, 0.2461518
2900.414, 0.2470107
2902.342, 0.2472780
2904.271, 0.2466301
2906.199, 0.2471351
2908.128, 0.2486942
2910.056, 0.2498971
2911.985, 0.2479602
2913.913, 0.2466723
2915.842, 0.2467063
2917.770, 0.2476545
2919.698, 0.2482966
2921.627, 0.2467032
2923.555, 0.2453251
2925.484, 0.2460641
2927.412, 0.2465271
2929.341, 0.2454146
2931.269, 0.2442479
2933.198, 0.2461885
2935.126, 0.2474899
2937.055, 0.2466947
2938.983, 0.2458846
2940.912, 0.2463073
2942.840, 0.2473498
2944.769, 0.2473876
2946.697, 0.2474502
2948.625, 0.2474062
2950.554, 0.2472625
2952.482, 0.2486710
2954.411, 0.2483428
2956.339, 0.2473582
2958.268, 0.2491992
2960.196, 0.2509485
2962.125, 0.2509732
2964.053, 0.2497264
2965.982, 0.2484820
2967.910, 0.2489732
2969.839, 0.2497940
2971.767, 0.2497838
2973.696, 0.2499287
2975.624, 0.2502536
2977.552, 0.2494494
2979.481, 0.2493823
2981.409, 0.2500332
2983.338, 0.2505057
2985.266, 0.2517222
2987.195, 0.2516236
2989.123, 0.2507519
2991.052, 0.2499103
2992.980, 0.2488386
2994.909, 0.2485848
2996.837, 0.2498214
2998.766, 0.2508896
3000.694, 0.2512234
3002.623, 0.2512284
3004.551, 0.2530441
3006.479, 0.2526305
3008.408, 0.2510240
3010.336, 0.2522264
3012.265, 0.2527352
3014.193, 0.2520621
3016.122, 0.2523434
3018.050, 0.2522502
3019.979, 0.2520181
3021.907, 0.2519268
3023.836, 0.2533033
3025.764, 0.2546376
3027.693, 0.2537085
3029.621, 0.2526758
3031.550, 0.2522558
3033.478, 0.2518415
3035.406, 0.2523426
3037.335, 0.2524168
3039.263, 0.2514444
3041.192, 0.2527787
3043.120, 0.2539004
3045.049, 0.2544091
3046.977, 0.2539873
3048.906, 0.2543998
3050.834, 0.2545805
3052.763, 0.2546311
3054.691, 0.2540737
3056.620, 0.2538886
3058.548, 0.2547035
3060.477, 0.2548552
3062.405, 0.2543912
3064.333, 0.2543611
3066.262, 0.2556802
3068.190, 0.2561481
3070.119, 0.2555974
3072.047, 0.2549572
3073.976, 0.2539460
3075.904, 0.2540599
3077.833, 0.2549923
3079.761, 0.2556678
3081.690, 0.2556474
3083.618, 0.2555718
3085.547, 0.2558982
3087.475, 0.2563156
3089.404, 0.2556974
3091.332, 0.2551250
3093.260, 0.2557835
3095.189, 0.2582054
3097.117, 0.2598515
3099.046, 0.2598282
3100.974, 0.2592492
3102.903, 0.2588705
3104.831, 0.2564637
3106.760, 0.2556135
3108.688, 0.2559387
3110.617, 0.2563531
3112.545, 0.2566765
3114.474, 0.2569765
3116.402, 0.2564308
3118.331, 0.2571396
3120.259, 0.2565902
3122.188, 0.2559367
3124.116, 0.2568021
3126.044, 0.2579394
3127.973, 0.2575896
3129.901, 0.2578765
3131.830, 0.2603398
3133.758, 0.2604398
3135.687, 0.2570769
3137.615, 0.2570069
3139.544, 0.2594035
3141.472, 0.2586939
3143.401, 0.2597833
3145.329, 0.2610781
3147.258, 0.2610633
3149.186, 0.2611862
3151.115, 0.2593329
3153.043, 0.2578778
3154.971, 0.2579243
3156.900, 0.2582142
3158.828, 0.2587832
3160.757, 0.2591250
3162.685, 0.2604031
3164.614, 0.2611307
3166.542, 0.2609527
3168.471, 0.2597927
3170.399, 0.2601202
3172.328, 0.2618614
3174.256, 0.2618397
3176.185, 0.2622634
3178.113, 0.2615251
3180.042, 0.2616081
3181.970, 0.2617939
3183.898, 0.2628919
3185.827, 0.2612075
3187.755, 0.2594658
3189.684, 0.2609793
3191.612, 0.2620412
3193.541, 0.2605310
3195.469, 0.2590745
3197.398, 0.2616234
3199.326, 0.2619907
3201.255, 0.2612297
3203.183, 0.2616687
3205.112, 0.2626330
3207.040, 0.2641203
3208.969, 0.2651195
3210.897, 0.2639977
3212.825, 0.2618724
3214.754, 0.2610156
3216.682, 0.2625127
3218.611, 0.2631293
3220.539, 0.2618105
3222.468, 0.2600893
3224.396, 0.2610767
3226.325, 0.2629936
3228.253, 0.2639981
3230.182, 0.2630981
3232.110, 0.2614724
3234.039, 0.2626947
3235.967, 0.2650091
3237.896, 0.2648333
3239.824, 0.2649006
3241.752, 0.2645728
3243.681, 0.2644169
3245.609, 0.2641709
3247.538, 0.2637759
3249.466, 0.2635278
3251.395, 0.2625064
3253.323, 0.2646923
3255.252, 0.2648868
3257.180, 0.2630505
3259.109, 0.2636196
3261.037, 0.2650283
3262.966, 0.2640785
3264.894, 0.2628754
3266.823, 0.2648960
3268.751, 0.2655376
3270.679, 0.2645179
3272.608, 0.2646349
3274.536, 0.2650062
3276.465, 0.2661312
3278.393, 0.2675115
3280.322, 0.2671861
3282.250, 0.2664785
3284.179, 0.2656566
3286.107, 0.2661314
3288.036, 0.2659256
3289.964, 0.2655019
3291.893, 0.2669814
3293.821, 0.2675064
3295.750, 0.2679431
3297.678, 0.2675965
3299.606, 0.2667469
3301.535, 0.2666081
3303.463, 0.2663801
3305.392, 0.2666976
3307.320, 0.2677482
3309.249, 0.2688387
3311.177, 0.2699202
3313.106, 0.2680248
3315.034, 0.2669521
3316.963, 0.2692052
3318.891, 0.2704284
3320.820, 0.2699118
3322.748, 0.2691182
3324.677, 0.2693252
3326.605, 0.2681052
3328.533, 0.2670071
3330.462, 0.2680789
3332.390, 0.2697130
3334.319, 0.2685240
3336.247, 0.2672441
3338.176, 0.2675866
3340.104, 0.2702283
3342.033, 0.2704352
3343.961, 0.2683693
3345.890, 0.2692660
3347.818, 0.2693733
3349.747, 0.2686521
3351.675, 0.2681519
3353.604, 0.2667585
3355.532, 0.2663922
3357.460, 0.2688601
3359.389, 0.2709706
3361.317, 0.2699451
3363.246, 0.2705709
3365.174, 0.2710546
3367.103, 0.2691073
3369.031, 0.2700809
3370.960, 0.2716272
3372.888, 0.2702684
3374.817, 0.2707079
3376.745, 0.2740277
3378.674, 0.2734275
3380.602, 0.2709818
3382.531, 0.2711704
3384.459, 0.2729060
3386.387, 0.2717551
3388.316, 0.2712695
3390.244, 0.2718364
3392.173, 0.2724055
3394.101, 0.2723491
3396.030, 0.2726989
3397.958, 0.2726619
3399.887, 0.2719806
3401.815, 0.2716744
3403.744, 0.2721695
3405.672, 0.2723112
3407.601, 0.2714342
3409.529, 0.2709041
3411.458, 0.2704814
3413.386, 0.2706040
3415.314, 0.2712697
3417.243, 0.2725524
3419.171, 0.2731003
3421.100, 0.2726013
3423.028, 0.2731561
3424.957, 0.2745595
3426.885, 0.2747672
3428.814, 0.2719864
3430.742, 0.2733096
3432.671, 0.2762295
3434.599, 0.2784587
3436.528, 0.2771973
3438.456, 0.2763915
3440.385, 0.2757641
3442.313, 0.2730012
3444.241, 0.2706807
3446.170, 0.2723836
3448.098, 0.2750568
3450.027, 0.2758202
3451.955, 0.2770973
3453.884, 0.2772343
3455.812, 0.2744157
3457.741, 0.2728317
3459.669, 0.2743874
3461.598, 0.2756288
3463.526, 0.2745568
3465.455, 0.2735776
3467.383, 0.2749753
3469.312, 0.2744910
3471.240, 0.2748070
3473.168, 0.2765564
3475.097, 0.2782649
3477.025, 0.2781702
3478.954, 0.2757830
3480.882, 0.2748424
3482.811, 0.2772455
3484.739, 0.2772891
3486.668, 0.2785386
3488.596, 0.2782106
3490.525, 0.2759349
3492.453, 0.2774934
3494.382, 0.2791393
3496.310, 0.2775420
3498.239, 0.2742933
3500.167, 0.2735573
3502.095, 0.2740397
3504.024, 0.2757770
3505.952, 0.2773072
3507.881, 0.2778215
3509.809, 0.2770748
3511.738, 0.2776235
3513.666, 0.2781303
3515.595, 0.2806847
3517.523, 0.2802897
3519.452, 0.2772185
3521.380, 0.2770765
3523.309, 0.2781066
3525.237, 0.2792054
3527.166, 0.2811066
3529.094, 0.2831555
3531.022, 0.2806856
3532.951, 0.2800348
3534.879, 0.2794845
3536.808, 0.2782906
3538.736, 0.2783570
3540.665, 0.2781924
3542.593, 0.2782573
3544.522, 0.2774033
3546.450, 0.2773889
3548.379, 0.2782941
3550.307, 0.2805581
3552.236, 0.2855143
3554.164, 0.2850991
3556.093, 0.2830202
3558.021, 0.2836364
3559.949, 0.2852609
3561.878, 0.2838752
3563.806, 0.2825650
3565.735, 0.2834054
3567.663, 0.2840618
3569.592, 0.2822751
3571.520, 0.2828825
3573.449, 0.2840158
3575.377, 0.2825020
3577.306, 0.2806131
3579.234, 0.2804567
3581.163, 0.2817254
3583.091, 0.2838972
3585.020, 0.2832381
3586.948, 0.2830556
3588.876, 0.2850506
3590.805, 0.2838703
3592.733, 0.2841554
3594.662, 0.2861544
3596.590, 0.2853210
3598.519, 0.2831791
3600.447, 0.2826768
3602.376, 0.2842560
3604.304, 0.2852936
3606.233, 0.2863902
3608.161, 0.2839541
3610.090, 0.2817020
3612.018, 0.2850167
3613.947, 0.2875406
3615.875, 0.2854249
3617.803, 0.2850025
3619.732, 0.2859969
3621.660, 0.2856374
3623.589, 0.2846012
3625.517, 0.2835402
3627.446, 0.2836103
3629.374, 0.2844568
3631.303, 0.2861480
3633.231, 0.2901568
3635.160, 0.2921030
3637.088, 0.2881592
3639.017, 0.2844733
3640.945, 0.2865873
3642.874, 0.2877382
3644.802, 0.2870101
3646.730, 0.2878807
3648.659, 0.2877237
3650.587, 0.2869621
3652.516, 0.2880416
3654.444, 0.2899365
3656.373, 0.2899850
3658.301, 0.2912369
3660.230, 0.2905740
3662.158, 0.2876950
3664.087, 0.2903900
3666.015, 0.2927163
3667.944, 0.2916616
3669.872, 0.2887742
3671.801, 0.2882133
3673.729, 0.2907007
3675.657, 0.2929468
3677.586, 0.2949818
3679.514, 0.2937067
3681.443, 0.2921044
3683.371, 0.2936762
3685.300, 0.2933284
3687.228, 0.2899223
3689.157, 0.2902209
3691.085, 0.2872236
3693.014, 0.2886286
3694.942, 0.2932584
3696.871, 0.2931928
3698.799, 0.2925254
3700.728, 0.2931637
3702.656, 0.2918398
3704.584, 0.2925094
3706.513, 0.2934811
3708.441, 0.2924720
3710.370, 0.2957210
3712.298, 0.2975754
3714.227, 0.2943284
3716.155, 0.2935922
3718.084, 0.2959573
3720.012, 0.2955041
3721.941, 0.2940038
3723.869, 0.2926219
3725.798, 0.2897201
3727.726, 0.2903695
3729.655, 0.2937830
3731.583, 0.2989884
3733.511, 0.2984318
3735.440, 0.2933297
3737.368, 0.2927627
3739.297, 0.2955211
3741.225, 0.2989818
3743.154, 0.2991589
3745.082, 0.2984909
3747.011, 0.2978891
3748.939, 0.2943109
3750.868, 0.2945122
3752.796, 0.2939733
3754.725, 0.2895243
3756.653, 0.2888682
3758.582, 0.2930048
3760.510, 0.2984350
3762.438, 0.3013147
3764.367, 0.2991891
3766.295, 0.2973486
3768.224, 0.3006196
3770.152, 0.3019581
3772.081, 0.3018576
3774.009, 0.3028789
3775.938, 0.2998112
3777.866, 0.2968503
3779.795, 0.3012684
3781.723, 0.3007866
3783.652, 0.2966236
3785.580, 0.2970646
3787.509, 0.2980921
3789.437, 0.3002827
3791.365, 0.2989528
3793.294, 0.2994877
3795.222, 0.3027855
3797.151, 0.3029830
3799.079, 0.3003455
3801.008, 0.2986256
3802.936, 0.2983443
3804.865, 0.3028577
3806.793, 0.3039655
3808.722, 0.3011965
3810.650, 0.2987449
3812.579, 0.2981818
3814.507, 0.3019946
3816.436, 0.3035495
3818.364, 0.3010784
3820.292, 0.2998433
3822.221, 0.3019310
3824.149, 0.3048055
3826.078, 0.3043997
3828.006, 0.3049312
3829.935, 0.3078628
3831.863, 0.3065403
3833.792, 0.3042782
3835.720, 0.3028618
3837.649, 0.3012330
3839.577, 0.3017461
3841.506, 0.3041582
3843.434, 0.3037027
3845.363, 0.3041438
3847.291, 0.3071682
3849.219, 0.3057621
3851.148, 0.3040472
3853.076, 0.3027088
3855.005, 0.2994013
3856.933, 0.2972512
3858.862, 0.2980709
3860.790, 0.3006814
3862.719, 0.3008877
3864.647, 0.2991047
3866.576, 0.3008970
3868.504, 0.3030012
3870.433, 0.3070189
3872.361, 0.3084287
3874.290, 0.3096560
3876.218, 0.3104272
3878.146, 0.3075960
3880.075, 0.3049079
3882.003, 0.3007474
3883.932, 0.3017209
3885.860, 0.3044712
3887.789, 0.3053382
3889.717, 0.3073472
3891.646, 0.3081814
3893.574, 0.3058321
3895.503, 0.3049772
3897.431, 0.3066083
3899.360, 0.3056723
3901.288, 0.3054798
3903.217, 0.3066614
3905.145, 0.3035584
3907.073, 0.3045838
3909.002, 0.3072316
3910.930, 0.3081708
3912.859, 0.3101015
3914.787, 0.3117043
3916.716, 0.3103204
3918.644, 0.3110785
3920.573, 0.3104897
3922.501, 0.3065361
3924.430, 0.3059018
3926.358, 0.3076116
3928.287, 0.3062595
3930.215, 0.3078919
3932.144, 0.3103737
3934.072, 0.3108011
3936.000, 0.3080736
3937.929, 0.3067639
3939.857, 0.3091533
3941.786, 0.3143980
3943.714, 0.3135821
3945.643, 0.3111508
3947.571, 0.3131048
3949.500, 0.3129779
3951.428, 0.3120369
3953.357, 0.3115164
3955.285, 0.3126505
3957.214, 0.3135457
3959.142, 0.3111483
3961.071, 0.3072423
3962.999, 0.3055954
3964.927, 0.3097504
3966.856, 0.3125469
3968.784, 0.3152654
3970.713, 0.3148462
3972.641, 0.3105563
3974.570, 0.3063859
3976.498, 0.3084591
3978.427, 0.3149008
3980.355, 0.3125956
3982.284, 0.3141437
3984.212, 0.3161547
3986.141, 0.3145783
3988.069, 0.3131008
3989.998, 0.3103517
3991.926, 0.3090093
3993.854, 0.3102293
3995.783, 0.3092456
3997.711, 0.3071133
3999.640, 0.3072615
##END=



