##NAMES=Bustamite
##RRUFFID=R040014
##IDEAL CHEMISTRY=CaMn^2+^Si_2_O_6_
##LOCALITY=Broken Hill, New South Wales, Australia
##OWNER=RRUFF
##SOURCE=University of Arizona Mineral Museum
##DESCRIPTION=Orange fragment
##STATUS=The identification of this mineral has been confirmed by X-ray diffraction and chemical analysis
##URL=rruff.info/R040014
##MEASURED CHEMISTRY=(Ca_0.90_Mn_0.10_)_Σ=1_(Mn^2+^_0.78_Fe^2+^_0.19_Fe^3+^_0.02_Mg_0.01_)_Σ=1_(Si_1.98_Fe^3+^_0.02_)_Σ=2_O_6_
3.991926e+002, 1.639876e-001
4.011211e+002, 1.731824e-001
4.030495e+002, 1.842915e-001
4.049780e+002, 1.861409e-001
4.069065e+002, 1.868435e-001
4.088349e+002, 1.863364e-001
4.107634e+002, 1.835131e-001
4.126919e+002, 1.823692e-001
4.146203e+002, 1.840130e-001
4.165488e+002, 1.891727e-001
4.184773e+002, 1.917885e-001
4.204057e+002, 1.908215e-001
4.223342e+002, 1.921056e-001
4.242627e+002, 1.977542e-001
4.261911e+002, 2.068779e-001
4.281196e+002, 2.183031e-001
4.300481e+002, 2.316524e-001
4.319765e+002, 2.445585e-001
4.339050e+002, 2.547449e-001
4.358335e+002, 2.624539e-001
4.377619e+002, 2.658325e-001
4.396904e+002, 2.661621e-001
4.416189e+002, 2.647249e-001
4.435473e+002, 2.630828e-001
4.454758e+002, 2.612760e-001
4.474043e+002, 2.615519e-001
4.493327e+002, 2.672446e-001
4.512612e+002, 2.752565e-001
4.531897e+002, 2.812153e-001
4.551181e+002, 2.828536e-001
4.570466e+002, 2.806453e-001
4.589751e+002, 2.752456e-001
4.609035e+002, 2.696958e-001
4.628320e+002, 2.633181e-001
4.647605e+002, 2.549503e-001
4.666889e+002, 2.453120e-001
4.686174e+002, 2.338318e-001
4.705459e+002, 2.219209e-001
4.724743e+002, 2.118887e-001
4.744028e+002, 2.021232e-001
4.763313e+002, 1.916628e-001
4.782597e+002, 1.813279e-001
4.801882e+002, 1.717126e-001
4.821167e+002, 1.617305e-001
4.840451e+002, 1.518329e-001
4.859736e+002, 1.435836e-001
4.879021e+002, 1.369886e-001
4.898305e+002, 1.308166e-001
4.917590e+002, 1.251680e-001
4.936875e+002, 1.217771e-001
4.956159e+002, 1.211426e-001
4.975444e+002, 1.226670e-001
4.994729e+002, 1.250798e-001
5.014013e+002, 1.267526e-001
5.033298e+002, 1.252637e-001
5.052583e+002, 1.222840e-001
5.071867e+002, 1.207046e-001
5.091152e+002, 1.214142e-001
5.110437e+002, 1.258709e-001
5.129721e+002, 1.333632e-001
5.149006e+002, 1.404245e-001
5.168290e+002, 1.444740e-001
5.187575e+002, 1.442814e-001
5.206860e+002, 1.411031e-001
5.226144e+002, 1.354670e-001
5.245429e+002, 1.282751e-001
5.264714e+002, 1.210025e-001
5.283998e+002, 1.145656e-001
5.303283e+002, 1.089085e-001
5.322568e+002, 1.036341e-001
5.341852e+002, 9.984279e-002
5.361137e+002, 9.721647e-002
5.380422e+002, 9.512230e-002
5.399706e+002, 9.402613e-002
5.418991e+002, 9.391589e-002
5.438276e+002, 9.525365e-002
5.457560e+002, 9.790675e-002
5.476845e+002, 1.020327e-001
5.496130e+002, 1.075232e-001
5.515414e+002, 1.132108e-001
5.534699e+002, 1.183772e-001
5.553984e+002, 1.219082e-001
5.573268e+002, 1.221948e-001
5.592553e+002, 1.199067e-001
5.611838e+002, 1.149588e-001
5.631122e+002, 1.079344e-001
5.650407e+002, 1.000706e-001
5.669692e+002, 9.102417e-002
5.688976e+002, 8.148856e-002
5.708261e+002, 7.258046e-002
5.727546e+002, 6.441657e-002
5.746830e+002, 5.674074e-002
5.766115e+002, 5.012642e-002
5.785400e+002, 4.499542e-002
5.804684e+002, 4.078677e-002
5.823969e+002, 3.738081e-002
5.843254e+002, 3.442346e-002
5.862538e+002, 3.212719e-002
5.881823e+002, 3.064818e-002
5.901108e+002, 2.967253e-002
5.920392e+002, 2.894537e-002
5.939677e+002, 2.848305e-002
5.958962e+002, 2.787915e-002
5.978246e+002, 2.745818e-002
5.997531e+002, 2.758563e-002
6.016816e+002, 2.795497e-002
6.036100e+002, 2.828724e-002
6.055385e+002, 2.850785e-002
6.074670e+002, 2.898902e-002
6.093954e+002, 2.956418e-002
6.113239e+002, 3.032980e-002
6.132524e+002, 3.128401e-002
6.151808e+002, 3.223574e-002
6.171093e+002, 3.333278e-002
6.190378e+002, 3.446101e-002
6.209662e+002, 3.598626e-002
6.228947e+002, 3.756566e-002
6.248232e+002, 3.934055e-002
6.267516e+002, 4.163980e-002
6.286801e+002, 4.468658e-002
6.306086e+002, 4.815181e-002
6.325370e+002, 5.212242e-002
6.344655e+002, 5.673056e-002
6.363940e+002, 6.182015e-002
6.383224e+002, 6.775391e-002
6.402509e+002, 7.461040e-002
6.421794e+002, 8.223070e-002
6.441078e+002, 9.078959e-002
6.460363e+002, 9.932125e-002
6.479648e+002, 1.065344e-001
6.498932e+002, 1.111351e-001
6.518217e+002, 1.117298e-001
6.537502e+002, 1.075970e-001
6.556786e+002, 9.935912e-002
6.576071e+002, 8.824120e-002
6.595356e+002, 7.571521e-002
6.614641e+002, 6.424189e-002
6.633925e+002, 5.511107e-002
6.653210e+002, 4.834081e-002
6.672495e+002, 4.375003e-002
6.691779e+002, 4.077538e-002
6.711064e+002, 3.915421e-002
6.730349e+002, 3.902326e-002
6.749633e+002, 4.009720e-002
6.768918e+002, 4.238164e-002
6.788203e+002, 4.580485e-002
6.807487e+002, 5.061233e-002
6.826772e+002, 5.713404e-002
6.846057e+002, 6.526470e-002
6.865341e+002, 7.441000e-002
6.884626e+002, 8.290407e-002
6.903911e+002, 8.893167e-002
6.923195e+002, 9.169368e-002
6.942480e+002, 9.119999e-002
6.961765e+002, 8.746989e-002
6.981049e+002, 8.008861e-002
7.000334e+002, 6.944201e-002
7.019619e+002, 5.804586e-002
7.038903e+002, 4.857881e-002
7.058188e+002, 4.163644e-002
7.077473e+002, 3.702981e-002
7.096757e+002, 3.400964e-002
7.116042e+002, 3.216208e-002
7.135327e+002, 3.103508e-002
7.154611e+002, 3.039557e-002
7.173896e+002, 3.010140e-002
7.193181e+002, 3.002883e-002
7.212465e+002, 3.007557e-002
7.231750e+002, 3.036674e-002
7.251035e+002, 3.072018e-002
7.270319e+002, 3.104232e-002
7.289604e+002, 3.136918e-002
7.308889e+002, 3.146789e-002
7.328173e+002, 3.150477e-002
7.347458e+002, 3.162806e-002
7.366743e+002, 3.176275e-002
7.386027e+002, 3.178011e-002
7.405312e+002, 3.186982e-002
7.424597e+002, 3.190255e-002
7.443881e+002, 3.216770e-002
7.463166e+002, 3.272323e-002
7.482451e+002, 3.331560e-002
7.501735e+002, 3.385152e-002
7.521020e+002, 3.462521e-002
7.540305e+002, 3.557135e-002
7.559589e+002, 3.658583e-002
7.578874e+002, 3.746414e-002
7.598159e+002, 3.837170e-002
7.617443e+002, 3.934945e-002
7.636728e+002, 4.046941e-002
7.656013e+002, 4.157259e-002
7.675297e+002, 4.265161e-002
7.694582e+002, 4.405385e-002
7.713867e+002, 4.554594e-002
7.733151e+002, 4.689526e-002
7.752436e+002, 4.846384e-002
7.771721e+002, 5.028999e-002
7.791005e+002, 5.211102e-002
7.810290e+002, 5.366685e-002
7.829575e+002, 5.522880e-002
7.848859e+002, 5.677580e-002
7.868144e+002, 5.859375e-002
7.887429e+002, 6.065983e-002
7.906713e+002, 6.281638e-002
7.925998e+002, 6.524222e-002
7.945283e+002, 6.771204e-002
7.964567e+002, 7.027207e-002
7.983852e+002, 7.285095e-002
8.003137e+002, 7.547027e-002
8.022421e+002, 7.791500e-002
8.041706e+002, 8.035260e-002
8.060991e+002, 8.303642e-002
8.080275e+002, 8.585520e-002
8.099560e+002, 8.889722e-002
8.118845e+002, 9.206066e-002
8.138129e+002, 9.532081e-002
8.157414e+002, 9.892634e-002
8.176699e+002, 1.027601e-001
8.195983e+002, 1.068279e-001
8.215268e+002, 1.113350e-001
8.234553e+002, 1.159391e-001
8.253837e+002, 1.207899e-001
8.273122e+002, 1.259253e-001
8.292407e+002, 1.313120e-001
8.311691e+002, 1.371570e-001
8.330976e+002, 1.432023e-001
8.350261e+002, 1.499081e-001
8.369545e+002, 1.569447e-001
8.388830e+002, 1.642168e-001
8.408115e+002, 1.718875e-001
8.427399e+002, 1.800559e-001
8.446684e+002, 1.885935e-001
8.465969e+002, 1.972617e-001
8.485253e+002, 2.064636e-001
8.504538e+002, 2.162255e-001
8.523823e+002, 2.263328e-001
8.543107e+002, 2.371376e-001
8.562392e+002, 2.483270e-001
8.581677e+002, 2.600391e-001
8.600961e+002, 2.722144e-001
8.620246e+002, 2.845330e-001
8.639531e+002, 2.973254e-001
8.658815e+002, 3.103156e-001
8.678100e+002, 3.230967e-001
8.697385e+002, 3.358997e-001
8.716669e+002, 3.481885e-001
8.735954e+002, 3.596430e-001
8.755239e+002, 3.696917e-001
8.774523e+002, 3.789591e-001
8.793808e+002, 3.877590e-001
8.813093e+002, 3.966898e-001
8.832377e+002, 4.057387e-001
8.851662e+002, 4.145930e-001
8.870947e+002, 4.233340e-001
8.890231e+002, 4.316741e-001
8.909516e+002, 4.389708e-001
8.928801e+002, 4.445863e-001
8.948085e+002, 4.481904e-001
8.967370e+002, 4.498652e-001
8.986655e+002, 4.491875e-001
9.005939e+002, 4.457505e-001
9.025224e+002, 4.389302e-001
9.044509e+002, 4.285073e-001
9.063793e+002, 4.151538e-001
9.083078e+002, 3.991159e-001
9.102363e+002, 3.808405e-001
9.121647e+002, 3.616967e-001
9.140932e+002, 3.429577e-001
9.160217e+002, 3.259290e-001
9.179501e+002, 3.117152e-001
9.198786e+002, 3.005797e-001
9.218071e+002, 2.926695e-001
9.237355e+002, 2.882713e-001
9.256640e+002, 2.874540e-001
9.275925e+002, 2.900745e-001
9.295209e+002, 2.957928e-001
9.314494e+002, 3.040201e-001
9.333779e+002, 3.135335e-001
9.353063e+002, 3.228906e-001
9.372348e+002, 3.309880e-001
9.391633e+002, 3.365581e-001
9.410917e+002, 3.385864e-001
9.430202e+002, 3.364939e-001
9.449487e+002, 3.303387e-001
9.468771e+002, 3.210111e-001
9.488056e+002, 3.091076e-001
9.507341e+002, 2.954776e-001
9.526625e+002, 2.812427e-001
9.545910e+002, 2.668664e-001
9.565195e+002, 2.526924e-001
9.584479e+002, 2.388454e-001
9.603764e+002, 2.252227e-001
9.623049e+002, 2.115973e-001
9.642333e+002, 1.979941e-001
9.661618e+002, 1.849370e-001
9.680903e+002, 1.729545e-001
9.700187e+002, 1.624624e-001
9.719472e+002, 1.537172e-001
9.738757e+002, 1.470098e-001
9.758041e+002, 1.425711e-001
9.777326e+002, 1.403050e-001
9.796611e+002, 1.402787e-001
9.815895e+002, 1.426048e-001
9.835180e+002, 1.472099e-001
9.854465e+002, 1.539999e-001
9.873749e+002, 1.626582e-001
9.893034e+002, 1.727917e-001
9.912319e+002, 1.838919e-001
9.931603e+002, 1.956549e-001
9.950888e+002, 2.077232e-001
9.970173e+002, 2.194277e-001
9.989457e+002, 2.301779e-001
1.000874e+003, 2.394552e-001
1.002803e+003, 2.467370e-001
1.004731e+003, 2.519654e-001
1.006660e+003, 2.552265e-001
1.008588e+003, 2.575458e-001
1.010517e+003, 2.596697e-001
1.012445e+003, 2.622428e-001
1.014373e+003, 2.651065e-001
1.016302e+003, 2.677614e-001
1.018230e+003, 2.692196e-001
1.020159e+003, 2.684687e-001
1.022087e+003, 2.654720e-001
1.024016e+003, 2.600881e-001
1.025944e+003, 2.527677e-001
1.027873e+003, 2.440603e-001
1.029801e+003, 2.341171e-001
1.031730e+003, 2.236868e-001
1.033658e+003, 2.135406e-001
1.035587e+003, 2.044968e-001
1.037515e+003, 1.970498e-001
1.039443e+003, 1.912844e-001
1.041372e+003, 1.870927e-001
1.043300e+003, 1.842650e-001
1.045229e+003, 1.824877e-001
1.047157e+003, 1.816920e-001
1.049086e+003, 1.818223e-001
1.051014e+003, 1.825588e-001
1.052943e+003, 1.837830e-001
1.054871e+003, 1.854697e-001
1.056800e+003, 1.875590e-001
1.058728e+003, 1.899541e-001
1.060657e+003, 1.923735e-001
1.062585e+003, 1.948770e-001
1.064514e+003, 1.977032e-001
1.066442e+003, 2.009118e-001
1.068370e+003, 2.040637e-001
1.070299e+003, 2.068672e-001
1.072227e+003, 2.090255e-001
1.074156e+003, 2.102584e-001
1.076084e+003, 2.107916e-001
1.078013e+003, 2.101416e-001
1.079941e+003, 2.082032e-001
1.081870e+003, 2.053046e-001
1.083798e+003, 2.012309e-001
1.085727e+003, 1.955725e-001
1.087655e+003, 1.887999e-001
1.089584e+003, 1.810214e-001
1.091512e+003, 1.724331e-001
1.093441e+003, 1.633413e-001
1.095369e+003, 1.539356e-001
1.097297e+003, 1.445365e-001
1.099226e+003, 1.355339e-001
1.101154e+003, 1.267008e-001
1.103083e+003, 1.183636e-001
1.105011e+003, 1.103848e-001
1.106940e+003, 1.029118e-001
1.108868e+003, 9.614509e-002
1.110797e+003, 8.978993e-002
1.112725e+003, 8.371472e-002
1.114654e+003, 7.783718e-002
1.116582e+003, 7.213344e-002
1.118511e+003, 6.651322e-002
1.120439e+003, 6.092261e-002
1.122368e+003, 5.571667e-002
1.124296e+003, 5.085845e-002
1.126224e+003, 4.593822e-002
1.128153e+003, 4.124900e-002
1.130081e+003, 3.692320e-002
1.132010e+003, 3.285899e-002
1.133938e+003, 2.914000e-002
1.135867e+003, 2.580183e-002
1.137795e+003, 2.313077e-002
1.139724e+003, 2.101484e-002
1.141652e+003, 1.909184e-002
1.143581e+003, 1.746435e-002
1.145509e+003, 1.617482e-002
1.147438e+003, 1.506464e-002
1.149366e+003, 1.421414e-002
1.151295e+003, 1.347188e-002
1.153223e+003, 1.281211e-002
1.155151e+003, 1.225801e-002
1.157080e+003, 1.168291e-002
1.159008e+003, 1.133427e-002
1.160937e+003, 1.095520e-002
1.162865e+003, 1.052791e-002
1.164794e+003, 1.014895e-002
1.166722e+003, 9.788808e-003
1.168651e+003, 9.498357e-003
1.170579e+003, 9.164702e-003
1.172508e+003, 8.954153e-003
1.174436e+003, 8.854408e-003
1.176365e+003, 8.601481e-003
1.178293e+003, 8.352226e-003
1.180222e+003, 8.124293e-003
1.182150e+003, 7.798763e-003
1.184078e+003, 7.550135e-003
1.186007e+003, 7.342880e-003
1.187935e+003, 7.179346e-003
1.189864e+003, 7.136201e-003
1.191792e+003, 6.977329e-003
1.193721e+003, 6.765662e-003
1.195649e+003, 6.634539e-003
1.197578e+003, 6.441364e-003
1.199506e+003, 6.224046e-003
1.201435e+003, 6.032874e-003
1.203363e+003, 5.950448e-003
1.205292e+003, 5.848603e-003
1.207220e+003, 5.598883e-003
1.209149e+003, 5.352629e-003
1.211077e+003, 5.169184e-003
1.213005e+003, 5.001062e-003
1.214934e+003, 4.881921e-003
1.216862e+003, 4.745400e-003
1.218791e+003, 4.560602e-003
1.220719e+003, 4.380893e-003
1.222648e+003, 4.235734e-003
1.224576e+003, 4.119212e-003
1.226505e+003, 4.099828e-003
1.228433e+003, 4.039269e-003
1.230362e+003, 4.036665e-003
1.232290e+003, 3.967067e-003
1.234219e+003, 3.831995e-003
1.236147e+003, 3.774635e-003
1.238076e+003, 3.670458e-003
1.240004e+003, 3.571003e-003
1.241932e+003, 3.577976e-003
1.243861e+003, 3.653580e-003
1.245789e+003, 3.680990e-003
1.247718e+003, 3.666598e-003
1.249646e+003, 3.584494e-003
1.251575e+003, 3.563825e-003
1.253503e+003, 3.671973e-003
1.255432e+003, 3.806175e-003
1.257360e+003, 3.954776e-003
1.259289e+003, 4.078501e-003
1.261217e+003, 4.307436e-003
1.263146e+003, 4.395538e-003
1.265074e+003, 4.228717e-003
1.267003e+003, 3.903067e-003
1.268931e+003, 3.757922e-003
1.270859e+003, 3.708282e-003
1.272788e+003, 3.478475e-003
1.274716e+003, 3.456647e-003
1.276645e+003, 3.506886e-003
1.278573e+003, 3.416540e-003
1.280502e+003, 3.329465e-003
1.282430e+003, 3.407000e-003
1.284359e+003, 3.513710e-003
1.286287e+003, 3.440396e-003
1.288216e+003, 3.261404e-003
1.290144e+003, 3.266090e-003
1.292073e+003, 3.384120e-003
1.294001e+003, 3.510840e-003
1.295930e+003, 3.581077e-003
1.297858e+003, 3.563965e-003
1.299786e+003, 3.594548e-003
1.301715e+003, 3.666055e-003
1.303643e+003, 3.673246e-003
1.305572e+003, 3.680178e-003
1.307500e+003, 3.747076e-003
1.309429e+003, 3.907331e-003
1.311357e+003, 3.913195e-003
1.313286e+003, 4.002836e-003
1.315214e+003, 4.148085e-003
1.317143e+003, 4.153881e-003
1.319071e+003, 4.212857e-003
1.321000e+003, 4.307318e-003
1.322928e+003, 4.375947e-003
1.324857e+003, 4.391060e-003
1.326785e+003, 4.338117e-003
1.328714e+003, 4.301068e-003
1.330642e+003, 4.427854e-003
1.332570e+003, 4.569831e-003
1.334499e+003, 4.723911e-003
1.336427e+003, 4.885022e-003
1.338356e+003, 4.871344e-003
1.340284e+003, 4.935980e-003
1.342213e+003, 4.969256e-003
1.344141e+003, 4.944438e-003
1.346070e+003, 5.000182e-003
1.347998e+003, 5.180785e-003
1.349927e+003, 5.374121e-003
1.351855e+003, 5.387834e-003
1.353784e+003, 5.487540e-003
1.355712e+003, 5.621894e-003
1.357641e+003, 5.692639e-003
1.359569e+003, 5.819159e-003
1.361497e+003, 5.940207e-003
1.363426e+003, 5.997840e-003
1.365354e+003, 6.053010e-003
1.367283e+003, 5.966582e-003
1.369211e+003, 5.993585e-003
1.371140e+003, 6.126842e-003
1.373068e+003, 6.212576e-003
1.374997e+003, 6.150072e-003
1.376925e+003, 6.088622e-003
1.378854e+003, 6.203893e-003
1.380782e+003, 6.276115e-003
1.382711e+003, 6.286160e-003
1.384639e+003, 6.342337e-003
1.386568e+003, 6.480055e-003
1.388496e+003, 6.578948e-003
1.390424e+003, 6.701628e-003
1.392353e+003, 6.734418e-003
1.394281e+003, 6.921972e-003
1.396210e+003, 7.162591e-003
1.398138e+003, 7.249535e-003
1.400067e+003, 7.369853e-003
1.401995e+003, 7.606711e-003
1.403924e+003, 7.939792e-003
1.405852e+003, 8.096286e-003
1.407781e+003, 8.328817e-003
1.409709e+003, 8.724238e-003
1.411638e+003, 9.059094e-003
1.413566e+003, 9.261952e-003
1.415495e+003, 9.542836e-003
1.417423e+003, 9.865559e-003
1.419351e+003, 1.012857e-002
1.421280e+003, 1.031611e-002
1.423208e+003, 1.056947e-002
1.425137e+003, 1.071737e-002
1.427065e+003, 1.080297e-002
1.428994e+003, 1.094240e-002
1.430922e+003, 1.108036e-002
1.432851e+003, 1.106918e-002
1.434779e+003, 1.113841e-002
1.436708e+003, 1.137217e-002
1.438636e+003, 1.142892e-002
1.440565e+003, 1.148940e-002
1.442493e+003, 1.175820e-002
1.444422e+003, 1.198729e-002
1.446350e+003, 1.202262e-002
1.448278e+003, 1.211241e-002
1.450207e+003, 1.224130e-002
1.452135e+003, 1.231629e-002
1.454064e+003, 1.236988e-002
1.455992e+003, 1.232881e-002
1.457921e+003, 1.229277e-002
1.459849e+003, 1.230878e-002
1.461778e+003, 1.232310e-002
1.463706e+003, 1.229252e-002
1.465635e+003, 1.226059e-002
1.467563e+003, 1.223353e-002
1.469492e+003, 1.212384e-002
1.471420e+003, 1.192642e-002
1.473349e+003, 1.180597e-002
1.475277e+003, 1.178840e-002
1.477205e+003, 1.176262e-002
1.479134e+003, 1.163059e-002
1.481062e+003, 1.148486e-002
1.482991e+003, 1.127385e-002
1.484919e+003, 1.104941e-002
1.486848e+003, 1.098798e-002
1.488776e+003, 1.089877e-002
1.490705e+003, 1.086064e-002
1.492633e+003, 1.073654e-002
1.494562e+003, 1.057341e-002
1.496490e+003, 1.041547e-002
1.498419e+003, 1.030771e-002
1.500347e+003, 1.010898e-002
1.502276e+003, 9.868236e-003
1.504204e+003, 9.764126e-003
1.506132e+003, 9.764074e-003
1.508061e+003, 9.692528e-003
1.509989e+003, 9.494276e-003
1.511918e+003, 9.433007e-003
1.513846e+003, 9.368913e-003
1.515775e+003, 9.293784e-003
1.517703e+003, 9.183414e-003
1.519632e+003, 9.145044e-003
1.521560e+003, 9.048481e-003
1.523489e+003, 8.955454e-003
1.525417e+003, 9.051064e-003
1.527346e+003, 9.158291e-003
1.529274e+003, 9.223280e-003
1.531203e+003, 9.325762e-003
1.533131e+003, 9.500260e-003
1.535059e+003, 9.671642e-003
1.536988e+003, 9.936553e-003
1.538916e+003, 1.037069e-002
1.540845e+003, 1.065772e-002
1.542773e+003, 1.074418e-002
1.544702e+003, 1.083028e-002
1.546630e+003, 1.092905e-002
1.548559e+003, 1.125804e-002
1.550487e+003, 1.152877e-002
1.552416e+003, 1.164807e-002
1.554344e+003, 1.185382e-002
1.556273e+003, 1.198934e-002
1.558201e+003, 1.227684e-002
1.560130e+003, 1.261510e-002
1.562058e+003, 1.264661e-002
1.563986e+003, 1.276106e-002
1.565915e+003, 1.313253e-002
1.567843e+003, 1.335592e-002
1.569772e+003, 1.346422e-002
1.571700e+003, 1.379687e-002
1.573629e+003, 1.416407e-002
1.575557e+003, 1.439465e-002
1.577486e+003, 1.464114e-002
1.579414e+003, 1.477822e-002
1.581343e+003, 1.475472e-002
1.583271e+003, 1.478643e-002
1.585200e+003, 1.483154e-002
1.587128e+003, 1.476813e-002
1.589057e+003, 1.479962e-002
1.590985e+003, 1.477288e-002
1.592913e+003, 1.467094e-002
1.594842e+003, 1.442389e-002
1.596770e+003, 1.427756e-002
1.598699e+003, 1.434272e-002
1.600627e+003, 1.422901e-002
1.602556e+003, 1.400599e-002
1.604484e+003, 1.381322e-002
1.606413e+003, 1.354225e-002
1.608341e+003, 1.336489e-002
1.610270e+003, 1.317227e-002
1.612198e+003, 1.303216e-002
1.614127e+003, 1.288720e-002
1.616055e+003, 1.280552e-002
1.617984e+003, 1.266156e-002
1.619912e+003, 1.250802e-002
1.621840e+003, 1.237338e-002
1.623769e+003, 1.214825e-002
1.625697e+003, 1.184830e-002
1.627626e+003, 1.164538e-002
1.629554e+003, 1.150786e-002
1.631483e+003, 1.136843e-002
1.633411e+003, 1.135025e-002
1.635340e+003, 1.133276e-002
1.637268e+003, 1.124785e-002
1.639197e+003, 1.094616e-002
1.641125e+003, 1.055991e-002
1.643054e+003, 1.045563e-002
1.644982e+003, 1.050093e-002
1.646911e+003, 1.043533e-002
1.648839e+003, 1.032838e-002
1.650767e+003, 1.017790e-002
1.652696e+003, 9.997636e-003
1.654624e+003, 9.893899e-003
1.656553e+003, 9.825192e-003
1.658481e+003, 9.627149e-003
1.660410e+003, 9.487488e-003
1.662338e+003, 9.478811e-003
1.664267e+003, 9.205758e-003
1.666195e+003, 8.947808e-003
1.668124e+003, 8.893646e-003
1.670052e+003, 8.953622e-003
1.671981e+003, 8.733429e-003
1.673909e+003, 8.422212e-003
1.675838e+003, 8.288128e-003
1.677766e+003, 8.158522e-003
1.679694e+003, 8.061766e-003
1.681623e+003, 8.001954e-003
1.683551e+003, 7.947072e-003
1.685480e+003, 7.932357e-003
1.687408e+003, 7.868363e-003
1.689337e+003, 7.805339e-003
1.691265e+003, 7.755864e-003
1.693194e+003, 7.706885e-003
1.695122e+003, 7.671223e-003
1.697051e+003, 7.759677e-003
1.698979e+003, 7.726916e-003
1.700908e+003, 7.588034e-003
1.702836e+003, 7.582963e-003
1.704765e+003, 7.581057e-003
1.706693e+003, 7.567472e-003
1.708621e+003, 7.559153e-003
1.710550e+003, 7.599242e-003
1.712478e+003, 7.568549e-003
1.714407e+003, 7.356349e-003
1.716335e+003, 7.225484e-003
1.718264e+003, 7.384873e-003
1.720192e+003, 7.433752e-003
1.722121e+003, 7.237699e-003
1.724049e+003, 7.112469e-003
1.725978e+003, 7.168294e-003
1.727906e+003, 7.189780e-003
1.729835e+003, 7.038635e-003
1.731763e+003, 6.979769e-003
1.733692e+003, 6.951720e-003
1.735620e+003, 6.967290e-003
1.737548e+003, 6.683747e-003
1.739477e+003, 6.404151e-003
1.741405e+003, 6.536729e-003
1.743334e+003, 6.605565e-003
1.745262e+003, 6.553091e-003
1.747191e+003, 6.531378e-003
1.749119e+003, 6.473357e-003
1.751048e+003, 6.415613e-003
1.752976e+003, 6.429424e-003
1.754905e+003, 6.414692e-003
1.756833e+003, 6.629821e-003
1.758762e+003, 6.909852e-003
1.760690e+003, 6.790470e-003
1.762619e+003, 6.618336e-003
1.764547e+003, 6.665100e-003
1.766475e+003, 6.550897e-003
1.768404e+003, 6.456065e-003
1.770332e+003, 6.536174e-003
1.772261e+003, 6.624800e-003
1.774189e+003, 6.748481e-003
1.776118e+003, 6.847846e-003
1.778046e+003, 6.696726e-003
1.779975e+003, 6.524180e-003
1.781903e+003, 6.724317e-003
1.783832e+003, 6.730771e-003
1.785760e+003, 6.790345e-003
1.787689e+003, 6.814476e-003
1.789617e+003, 6.503066e-003
1.791546e+003, 6.611553e-003
1.793474e+003, 6.800057e-003
1.795402e+003, 6.682510e-003
1.797331e+003, 6.561832e-003
1.799259e+003, 6.513697e-003
1.801188e+003, 6.596515e-003
1.803116e+003, 6.497136e-003
1.805045e+003, 6.395373e-003
1.806973e+003, 6.563643e-003
1.808902e+003, 6.674744e-003
1.810830e+003, 6.524377e-003
1.812759e+003, 6.250069e-003
1.814687e+003, 5.780196e-003
1.816616e+003, 5.622535e-003
1.818544e+003, 6.162433e-003
1.820473e+003, 6.478108e-003
1.822401e+003, 6.463128e-003
1.824329e+003, 6.456147e-003
1.826258e+003, 6.325795e-003
1.828186e+003, 6.320333e-003
1.830115e+003, 6.479348e-003
1.832043e+003, 6.396415e-003
1.833972e+003, 6.151002e-003
1.835900e+003, 6.200949e-003
1.837829e+003, 6.419108e-003
1.839757e+003, 6.429852e-003
1.841686e+003, 6.533187e-003
1.843614e+003, 6.684662e-003
1.845543e+003, 6.686490e-003
1.847471e+003, 6.675097e-003
1.849400e+003, 6.715942e-003
1.851328e+003, 6.492267e-003
1.853256e+003, 6.285754e-003
1.855185e+003, 6.410146e-003
1.857113e+003, 6.459065e-003
1.859042e+003, 6.433811e-003
1.860970e+003, 6.561525e-003
1.862899e+003, 6.760275e-003
1.864827e+003, 6.684985e-003
1.866756e+003, 6.772183e-003
1.868684e+003, 6.925179e-003
1.870613e+003, 6.885085e-003
1.872541e+003, 6.672287e-003
1.874470e+003, 6.636907e-003
1.876398e+003, 6.623048e-003
1.878327e+003, 6.813928e-003
1.880255e+003, 6.567803e-003
1.882183e+003, 6.218272e-003
1.884112e+003, 6.521687e-003
1.886040e+003, 6.889842e-003
1.887969e+003, 6.881191e-003
1.889897e+003, 6.869638e-003
1.891826e+003, 7.105091e-003
1.893754e+003, 7.180035e-003
1.895683e+003, 7.094191e-003
1.897611e+003, 7.156335e-003
1.899540e+003, 7.292768e-003
1.901468e+003, 7.573235e-003
1.903397e+003, 7.452914e-003
1.905325e+003, 6.962851e-003
1.907254e+003, 6.650709e-003
1.909182e+003, 6.785292e-003
1.911110e+003, 7.130332e-003
1.913039e+003, 7.520348e-003
1.914967e+003, 7.694013e-003
1.916896e+003, 7.327464e-003
1.918824e+003, 7.211942e-003
1.920753e+003, 7.563729e-003
1.922681e+003, 7.518786e-003
1.924610e+003, 7.183710e-003
1.926538e+003, 7.185860e-003
1.928467e+003, 7.296822e-003
1.930395e+003, 7.308077e-003
1.932324e+003, 7.208694e-003
1.934252e+003, 7.038496e-003
1.936181e+003, 6.583482e-003
1.938109e+003, 6.911494e-003
1.940037e+003, 7.089499e-003
1.941966e+003, 6.559029e-003
1.943894e+003, 6.513333e-003
1.945823e+003, 6.898607e-003
1.947751e+003, 7.055856e-003
1.949680e+003, 7.362904e-003
1.951608e+003, 7.648631e-003
1.953537e+003, 7.709127e-003
1.955465e+003, 7.534544e-003
1.957394e+003, 6.969418e-003
1.959322e+003, 6.962734e-003
1.961251e+003, 7.318835e-003
1.963179e+003, 6.989221e-003
1.965108e+003, 5.966081e-003
1.967036e+003, 6.624269e-003
1.968964e+003, 7.168929e-003
1.970893e+003, 7.387131e-003
1.972821e+003, 6.648686e-003
1.974750e+003, 6.665574e-003
1.976678e+003, 8.266412e-003
1.978607e+003, 9.532413e-003
1.980535e+003, 9.362992e-003
1.982464e+003, 9.171278e-003
1.984392e+003, 9.194638e-003
1.986321e+003, 7.757713e-003
1.988249e+003, 6.512922e-003
1.990178e+003, 6.852954e-003
1.992106e+003, 8.063648e-003
1.994035e+003, 7.799373e-003
1.995963e+003, 6.294183e-003
1.997891e+003, 6.375446e-003
1.999820e+003, 7.064754e-003
2.001748e+003, 6.081727e-003
2.003677e+003, 4.784486e-003
2.005605e+003, 4.620701e-003
2.007534e+003, 5.879481e-003
2.009462e+003, 6.308523e-003
2.011391e+003, 5.301468e-003
2.013319e+003, 5.262567e-003
2.015248e+003, 5.939680e-003
2.017176e+003, 6.121190e-003
2.019105e+003, 5.744646e-003
2.021033e+003, 4.758650e-003
2.022962e+003, 4.321996e-003
2.024890e+003, 4.518125e-003
2.026818e+003, 4.619046e-003
2.028747e+003, 5.724452e-003
2.030675e+003, 6.158217e-003
2.032604e+003, 5.526436e-003
2.034532e+003, 5.506096e-003
2.036461e+003, 5.500935e-003
2.038389e+003, 6.061938e-003
2.040318e+003, 6.748786e-003
2.042246e+003, 7.239176e-003
2.044175e+003, 7.146126e-003
2.046103e+003, 7.065392e-003
2.048031e+003, 7.436993e-003
2.049960e+003, 7.594437e-003
2.051888e+003, 6.804086e-003
2.053817e+003, 5.779536e-003
2.055745e+003, 6.239970e-003
2.057674e+003, 6.375336e-003
2.059602e+003, 5.676487e-003
2.061531e+003, 5.886365e-003
2.063459e+003, 6.730630e-003
2.065388e+003, 6.914549e-003
2.067316e+003, 7.240886e-003
2.069245e+003, 7.629869e-003
2.071173e+003, 8.041594e-003
2.073102e+003, 8.722593e-003
2.075030e+003, 8.847749e-003
2.076958e+003, 8.737006e-003
2.078887e+003, 8.370087e-003
2.080815e+003, 8.180089e-003
2.082744e+003, 8.228055e-003
2.084672e+003, 7.920886e-003
2.086601e+003, 7.771180e-003
2.088529e+003, 8.056425e-003
2.090458e+003, 7.881853e-003
2.092386e+003, 7.237311e-003
2.094315e+003, 6.703634e-003
2.096243e+003, 7.213485e-003
2.098172e+003, 7.656329e-003
2.100100e+003, 8.230652e-003
2.102029e+003, 8.757372e-003
2.103957e+003, 8.734937e-003
2.105885e+003, 8.556690e-003
2.107814e+003, 8.081814e-003
2.109742e+003, 7.611623e-003
2.111671e+003, 7.807046e-003
2.113599e+003, 8.177272e-003
2.115528e+003, 7.910887e-003
2.117456e+003, 7.406634e-003
2.119385e+003, 6.831047e-003
2.121313e+003, 6.539294e-003
2.123242e+003, 6.552970e-003
2.125170e+003, 6.065382e-003
2.127099e+003, 5.459263e-003
2.129027e+003, 5.498175e-003
2.130956e+003, 4.832493e-003
2.132884e+003, 4.179319e-003
2.134813e+003, 4.548132e-003
2.136741e+003, 5.466136e-003
2.138669e+003, 5.291089e-003
2.140598e+003, 4.412605e-003
2.142526e+003, 4.379628e-003
2.144455e+003, 4.710411e-003
2.146383e+003, 5.291197e-003
2.148312e+003, 5.572539e-003
2.150240e+003, 5.145493e-003
2.152169e+003, 3.032763e-003
2.154097e+003, 9.662749e-004
2.156026e+003, 3.694789e-004
2.157954e+003, 2.845807e-003
2.159883e+003, 7.863088e-003
2.161811e+003, 9.248753e-003
2.163740e+003, 9.091413e-003
2.165668e+003, 9.122766e-003
2.167596e+003, 7.968740e-003
2.169525e+003, 6.540388e-003
2.171453e+003, 6.528530e-003
2.173382e+003, 7.371705e-003
2.175310e+003, 8.214144e-003
2.177239e+003, 8.560475e-003
2.179167e+003, 8.447146e-003
2.181096e+003, 8.364161e-003
2.183024e+003, 8.556064e-003
2.184953e+003, 8.663698e-003
2.186881e+003, 9.443714e-003
2.188810e+003, 1.019944e-002
2.190738e+003, 1.005368e-002
2.192667e+003, 1.004398e-002
2.194595e+003, 9.792551e-003
2.196523e+003, 9.379873e-003
2.198452e+003, 9.513095e-003
2.200380e+003, 9.267627e-003
2.202309e+003, 8.715402e-003
2.204237e+003, 9.105179e-003
2.206166e+003, 9.501858e-003
2.208094e+003, 1.015602e-002
2.210023e+003, 1.096459e-002
2.211951e+003, 1.109102e-002
2.213880e+003, 1.055364e-002
2.215808e+003, 1.101911e-002
2.217737e+003, 1.120665e-002
2.219665e+003, 1.146942e-002
2.221594e+003, 1.199907e-002
2.223522e+003, 1.160986e-002
2.225450e+003, 1.137565e-002
2.227379e+003, 1.147334e-002
2.229307e+003, 1.204665e-002
2.231236e+003, 1.281386e-002
2.233164e+003, 1.347620e-002
2.235093e+003, 1.290722e-002
2.237021e+003, 1.251340e-002
2.238950e+003, 1.254557e-002
2.240878e+003, 1.258548e-002
2.242807e+003, 1.247798e-002
2.244735e+003, 1.254760e-002
2.246664e+003, 1.299016e-002
2.248592e+003, 1.318856e-002
2.250521e+003, 1.263974e-002
2.252449e+003, 1.242031e-002
2.254377e+003, 1.295078e-002
2.256306e+003, 1.354740e-002
2.258234e+003, 1.335818e-002
2.260163e+003, 1.310168e-002
2.262091e+003, 1.345514e-002
2.264020e+003, 1.351311e-002
2.265948e+003, 1.332946e-002
2.267877e+003, 1.354101e-002
2.269805e+003, 1.372591e-002
2.271734e+003, 1.383512e-002
2.273662e+003, 1.381253e-002
2.275591e+003, 1.397163e-002
2.277519e+003, 1.464133e-002
2.279448e+003, 1.486124e-002
2.281376e+003, 1.440897e-002
2.283304e+003, 1.462165e-002
2.285233e+003, 1.511491e-002
2.287161e+003, 1.491363e-002
2.289090e+003, 1.429486e-002
2.291018e+003, 1.428957e-002
2.292947e+003, 1.424309e-002
2.294875e+003, 1.396611e-002
2.296804e+003, 1.354669e-002
2.298732e+003, 1.347428e-002
2.300661e+003, 1.405768e-002
2.302589e+003, 1.412449e-002
2.304518e+003, 1.361275e-002
2.306446e+003, 1.363927e-002
2.308375e+003, 1.406621e-002
2.310303e+003, 1.400689e-002
2.312231e+003, 1.389663e-002
2.314160e+003, 1.395310e-002
2.316088e+003, 1.414237e-002
2.318017e+003, 1.443198e-002
2.319945e+003, 1.492756e-002
2.321874e+003, 1.551531e-002
2.323802e+003, 1.559346e-002
2.325731e+003, 1.464741e-002
2.327659e+003, 1.362155e-002
2.329588e+003, 1.345178e-002
2.331516e+003, 1.332099e-002
2.333445e+003, 1.313543e-002
2.335373e+003, 1.311057e-002
2.337302e+003, 1.330241e-002
2.339230e+003, 1.354785e-002
2.341158e+003, 1.368135e-002
2.343087e+003, 1.377738e-002
2.345015e+003, 1.370244e-002
2.346944e+003, 1.356894e-002
2.348872e+003, 1.324735e-002
2.350801e+003, 1.294150e-002
2.352729e+003, 1.316735e-002
2.354658e+003, 1.342406e-002
2.356586e+003, 1.364369e-002
2.358515e+003, 1.369816e-002
2.360443e+003, 1.353023e-002
2.362372e+003, 1.349171e-002
2.364300e+003, 1.334933e-002
2.366229e+003, 1.310208e-002
2.368157e+003, 1.324597e-002
2.370085e+003, 1.306304e-002
2.372014e+003, 1.277406e-002
2.373942e+003, 1.290591e-002
2.375871e+003, 1.315661e-002
2.377799e+003, 1.302363e-002
2.379728e+003, 1.276133e-002
2.381656e+003, 1.262010e-002
2.383585e+003, 1.264076e-002
2.385513e+003, 1.292557e-002
2.387442e+003, 1.300553e-002
2.389370e+003, 1.299836e-002
2.391299e+003, 1.292904e-002
2.393227e+003, 1.302196e-002
2.395156e+003, 1.320446e-002
2.397084e+003, 1.323684e-002
2.399012e+003, 1.348080e-002
2.400941e+003, 1.349308e-002
2.402869e+003, 1.315346e-002
2.404798e+003, 1.289056e-002
2.406726e+003, 1.307705e-002
2.408655e+003, 1.353700e-002
2.410583e+003, 1.367663e-002
2.412512e+003, 1.373821e-002
2.414440e+003, 1.384298e-002
2.416369e+003, 1.377477e-002
2.418297e+003, 1.377271e-002
2.420226e+003, 1.326811e-002
2.422154e+003, 1.346392e-002
2.424083e+003, 1.358191e-002
2.426011e+003, 1.378140e-002
2.427939e+003, 1.394232e-002
2.429868e+003, 1.372741e-002
2.431796e+003, 1.362642e-002
2.433725e+003, 1.387618e-002
2.435653e+003, 1.401094e-002
2.437582e+003, 1.379738e-002
2.439510e+003, 1.379541e-002
2.441439e+003, 1.401799e-002
2.443367e+003, 1.420838e-002
2.445296e+003, 1.442231e-002
2.447224e+003, 1.425926e-002
2.449153e+003, 1.448647e-002
2.451081e+003, 1.459153e-002
2.453010e+003, 1.459227e-002
2.454938e+003, 1.470168e-002
2.456866e+003, 1.446191e-002
2.458795e+003, 1.450197e-002
2.460723e+003, 1.442770e-002
2.462652e+003, 1.409168e-002
2.464580e+003, 1.389427e-002
2.466509e+003, 1.368375e-002
2.468437e+003, 1.350788e-002
2.470366e+003, 1.372607e-002
2.472294e+003, 1.400735e-002
2.474223e+003, 1.380033e-002
2.476151e+003, 1.354458e-002
2.478080e+003, 1.386079e-002
2.480008e+003, 1.412786e-002
2.481937e+003, 1.416890e-002
2.483865e+003, 1.452408e-002
2.485793e+003, 1.432205e-002
2.487722e+003, 1.409243e-002
2.489650e+003, 1.443058e-002
2.491579e+003, 1.461735e-002
2.493507e+003, 1.441051e-002
2.495436e+003, 1.418921e-002
2.497364e+003, 1.423922e-002
2.499293e+003, 1.440810e-002
2.501221e+003, 1.449436e-002
2.503150e+003, 1.420439e-002
2.505078e+003, 1.417788e-002
2.507007e+003, 1.421948e-002
2.508935e+003, 1.418053e-002
2.510864e+003, 1.494052e-002
2.512792e+003, 1.508035e-002
2.514720e+003, 1.453388e-002
2.516649e+003, 1.436451e-002
2.518577e+003, 1.451468e-002
2.520506e+003, 1.469613e-002
2.522434e+003, 1.459969e-002
2.524363e+003, 1.464227e-002
2.526291e+003, 1.482997e-002
2.528220e+003, 1.479881e-002
2.530148e+003, 1.473419e-002
2.532077e+003, 1.474446e-002
2.534005e+003, 1.466351e-002
2.535934e+003, 1.476115e-002
2.537862e+003, 1.477107e-002
2.539791e+003, 1.467115e-002
2.541719e+003, 1.485757e-002
2.543647e+003, 1.493553e-002
2.545576e+003, 1.456551e-002
2.547504e+003, 1.446962e-002
2.549433e+003, 1.449466e-002
2.551361e+003, 1.494644e-002
2.553290e+003, 1.534089e-002
2.555218e+003, 1.535168e-002
2.557147e+003, 1.518903e-002
2.559075e+003, 1.510668e-002
2.561004e+003, 1.525171e-002
2.562932e+003, 1.529442e-002
2.564861e+003, 1.537707e-002
2.566789e+003, 1.574272e-002
2.568718e+003, 1.593373e-002
2.570646e+003, 1.590203e-002
2.572574e+003, 1.572616e-002
2.574503e+003, 1.549519e-002
2.576431e+003, 1.542446e-002
2.578360e+003, 1.586663e-002
2.580288e+003, 1.595079e-002
2.582217e+003, 1.573272e-002
2.584145e+003, 1.591065e-002
2.586074e+003, 1.614266e-002
2.588002e+003, 1.626655e-002
2.589931e+003, 1.606501e-002
2.591859e+003, 1.595360e-002
2.593788e+003, 1.606752e-002
2.595716e+003, 1.638875e-002
2.597645e+003, 1.629776e-002
2.599573e+003, 1.616269e-002
2.601501e+003, 1.630082e-002
2.603430e+003, 1.633931e-002
2.605358e+003, 1.631627e-002
2.607287e+003, 1.646855e-002
2.609215e+003, 1.651623e-002
2.611144e+003, 1.647882e-002
2.613072e+003, 1.665217e-002
2.615001e+003, 1.701337e-002
2.616929e+003, 1.728214e-002
2.618858e+003, 1.718807e-002
2.620786e+003, 1.709024e-002
2.622715e+003, 1.702411e-002
2.624643e+003, 1.681117e-002
2.626572e+003, 1.690828e-002
2.628500e+003, 1.689769e-002
2.630428e+003, 1.696092e-002
2.632357e+003, 1.694447e-002
2.634285e+003, 1.703942e-002
2.636214e+003, 1.709504e-002
2.638142e+003, 1.715145e-002
2.640071e+003, 1.734582e-002
2.641999e+003, 1.742299e-002
2.643928e+003, 1.733758e-002
2.645856e+003, 1.699389e-002
2.647785e+003, 1.676650e-002
2.649713e+003, 1.672577e-002
2.651642e+003, 1.693253e-002
2.653570e+003, 1.695580e-002
2.655499e+003, 1.692085e-002
2.657427e+003, 1.684609e-002
2.659355e+003, 1.664659e-002
2.661284e+003, 1.634897e-002
2.663212e+003, 1.621716e-002
2.665141e+003, 1.635936e-002
2.667069e+003, 1.634374e-002
2.668998e+003, 1.602283e-002
2.670926e+003, 1.610132e-002
2.672855e+003, 1.646319e-002
2.674783e+003, 1.660853e-002
2.676712e+003, 1.653043e-002
2.678640e+003, 1.625382e-002
2.680569e+003, 1.622884e-002
2.682497e+003, 1.636397e-002
2.684426e+003, 1.631717e-002
2.686354e+003, 1.652782e-002
2.688282e+003, 1.662196e-002
2.690211e+003, 1.669815e-002
2.692139e+003, 1.663544e-002
2.694068e+003, 1.643494e-002
2.695996e+003, 1.643091e-002
2.697925e+003, 1.654109e-002
2.699853e+003, 1.660089e-002
2.701782e+003, 1.674574e-002
2.703710e+003, 1.699368e-002
2.705639e+003, 1.692846e-002
2.707567e+003, 1.655704e-002
2.709496e+003, 1.666978e-002
2.711424e+003, 1.659943e-002
2.713353e+003, 1.657729e-002
2.715281e+003, 1.684757e-002
2.717209e+003, 1.703998e-002
2.719138e+003, 1.711886e-002
2.721066e+003, 1.704628e-002
2.722995e+003, 1.713275e-002
2.724923e+003, 1.695663e-002
2.726852e+003, 1.698894e-002
2.728780e+003, 1.701726e-002
2.730709e+003, 1.720082e-002
2.732637e+003, 1.744180e-002
2.734566e+003, 1.732904e-002
2.736494e+003, 1.720094e-002
2.738423e+003, 1.719425e-002
2.740351e+003, 1.701649e-002
2.742280e+003, 1.721787e-002
2.744208e+003, 1.757926e-002
2.746136e+003, 1.749537e-002
2.748065e+003, 1.745607e-002
2.749993e+003, 1.730539e-002
2.751922e+003, 1.724627e-002
2.753850e+003, 1.744496e-002
2.755779e+003, 1.784588e-002
2.757707e+003, 1.790259e-002
2.759636e+003, 1.754537e-002
2.761564e+003, 1.735381e-002
2.763493e+003, 1.741840e-002
2.765421e+003, 1.751485e-002
2.767350e+003, 1.769945e-002
2.769278e+003, 1.807246e-002
2.771207e+003, 1.793217e-002
2.773135e+003, 1.764602e-002
2.775063e+003, 1.763923e-002
2.776992e+003, 1.796877e-002
2.778920e+003, 1.797300e-002
2.780849e+003, 1.784405e-002
2.782777e+003, 1.782776e-002
2.784706e+003, 1.802729e-002
2.786634e+003, 1.808398e-002
2.788563e+003, 1.803655e-002
2.790491e+003, 1.814022e-002
2.792420e+003, 1.803524e-002
2.794348e+003, 1.781238e-002
2.796277e+003, 1.798976e-002
2.798205e+003, 1.790729e-002
2.800134e+003, 1.811556e-002
2.802062e+003, 1.825948e-002
2.803990e+003, 1.806899e-002
2.805919e+003, 1.832948e-002
2.807847e+003, 1.856109e-002
2.809776e+003, 1.838345e-002
2.811704e+003, 1.838204e-002
2.813633e+003, 1.861402e-002
2.815561e+003, 1.862022e-002
2.817490e+003, 1.851163e-002
2.819418e+003, 1.853091e-002
2.821347e+003, 1.886629e-002
2.823275e+003, 1.889597e-002
2.825204e+003, 1.870886e-002
2.827132e+003, 1.873939e-002
2.829061e+003, 1.882934e-002
2.830989e+003, 1.922301e-002
2.832917e+003, 1.923818e-002
2.834846e+003, 1.918494e-002
2.836774e+003, 1.932523e-002
2.838703e+003, 1.950508e-002
2.840631e+003, 1.962904e-002
2.842560e+003, 1.961469e-002
2.844488e+003, 1.972507e-002
2.846417e+003, 2.027154e-002
2.848345e+003, 2.056167e-002
2.850274e+003, 2.044709e-002
2.852202e+003, 2.035551e-002
2.854131e+003, 2.025427e-002
2.856059e+003, 1.985814e-002
2.857988e+003, 1.978521e-002
2.859916e+003, 2.015040e-002
2.861844e+003, 2.019663e-002
2.863773e+003, 1.993809e-002
2.865701e+003, 2.008927e-002
2.867630e+003, 2.024743e-002
2.869558e+003, 2.012574e-002
2.871487e+003, 1.985673e-002
2.873415e+003, 1.969255e-002
2.875344e+003, 1.979895e-002
2.877272e+003, 2.008731e-002
2.879201e+003, 2.023405e-002
2.881129e+003, 2.009827e-002
2.883058e+003, 1.992408e-002
2.884986e+003, 1.994330e-002
2.886915e+003, 1.999198e-002
2.888843e+003, 1.989007e-002
2.890771e+003, 1.981604e-002
2.892700e+003, 1.992670e-002
2.894628e+003, 2.024968e-002
2.896557e+003, 2.043696e-002
2.898485e+003, 2.035059e-002
2.900414e+003, 2.037358e-002
2.902342e+003, 2.052598e-002
2.904271e+003, 2.053275e-002
2.906199e+003, 2.074319e-002
2.908128e+003, 2.111844e-002
2.910056e+003, 2.135157e-002
2.911985e+003, 2.156432e-002
2.913913e+003, 2.187324e-002
2.915842e+003, 2.234219e-002
2.917770e+003, 2.209622e-002
2.919698e+003, 2.163020e-002
2.921627e+003, 2.157317e-002
2.923555e+003, 2.164070e-002
2.925484e+003, 2.183283e-002
2.927412e+003, 2.206272e-002
2.929341e+003, 2.170812e-002
2.931269e+003, 2.127671e-002
2.933198e+003, 2.158432e-002
2.935126e+003, 2.168118e-002
2.937055e+003, 2.102268e-002
2.938983e+003, 2.076455e-002
2.940912e+003, 2.097893e-002
2.942840e+003, 2.101287e-002
2.944769e+003, 2.106828e-002
2.946697e+003, 2.094737e-002
2.948625e+003, 2.040156e-002
2.950554e+003, 2.037236e-002
2.952482e+003, 2.075495e-002
2.954411e+003, 2.069626e-002
2.956339e+003, 2.072507e-002
2.958268e+003, 2.090743e-002
2.960196e+003, 2.081496e-002
2.962125e+003, 2.057726e-002
2.964053e+003, 2.071019e-002
2.965982e+003, 2.074461e-002
2.967910e+003, 2.063077e-002
2.969839e+003, 2.039250e-002
2.971767e+003, 2.039331e-002
2.973696e+003, 2.039361e-002
2.975624e+003, 2.019709e-002
2.977552e+003, 2.004972e-002
2.979481e+003, 2.003120e-002
2.981409e+003, 1.993419e-002
2.983338e+003, 2.014011e-002
2.985266e+003, 2.039675e-002
2.987195e+003, 2.022259e-002
2.989123e+003, 2.012256e-002
2.991052e+003, 1.989901e-002
2.992980e+003, 1.987839e-002
2.994909e+003, 1.994942e-002
2.996837e+003, 1.998330e-002
2.998766e+003, 2.023620e-002
3.000694e+003, 2.011156e-002
3.002623e+003, 1.995534e-002
3.004551e+003, 2.022269e-002
3.006479e+003, 2.028218e-002
3.008408e+003, 1.998794e-002
3.010336e+003, 2.022235e-002
3.012265e+003, 2.052268e-002
3.014193e+003, 2.087671e-002
3.016122e+003, 2.075785e-002
3.018050e+003, 2.070292e-002
3.019979e+003, 2.107757e-002
3.021907e+003, 2.097236e-002
3.023836e+003, 2.060717e-002
3.025764e+003, 2.078844e-002
3.027693e+003, 2.114038e-002
3.029621e+003, 2.094319e-002
3.031550e+003, 2.049150e-002
3.033478e+003, 2.023013e-002
3.035406e+003, 2.032560e-002
3.037335e+003, 2.079039e-002
3.039263e+003, 2.094465e-002
3.041192e+003, 2.105753e-002
3.043120e+003, 2.119617e-002
3.045049e+003, 2.105190e-002
3.046977e+003, 2.082428e-002
3.048906e+003, 2.081794e-002
3.050834e+003, 2.102538e-002
3.052763e+003, 2.107451e-002
3.054691e+003, 2.097983e-002
3.056620e+003, 2.126862e-002
3.058548e+003, 2.138376e-002
3.060477e+003, 2.151903e-002
3.062405e+003, 2.128818e-002
3.064333e+003, 2.093144e-002
3.066262e+003, 2.089020e-002
3.068190e+003, 2.106949e-002
3.070119e+003, 2.111164e-002
3.072047e+003, 2.103191e-002
3.073976e+003, 2.096118e-002
3.075904e+003, 2.107018e-002
3.077833e+003, 2.141669e-002
3.079761e+003, 2.175126e-002
3.081690e+003, 2.181052e-002
3.083618e+003, 2.205336e-002
3.085547e+003, 2.233509e-002
3.087475e+003, 2.192387e-002
3.089404e+003, 2.146097e-002
3.091332e+003, 2.193518e-002
3.093260e+003, 2.213315e-002
3.095189e+003, 2.196344e-002
3.097117e+003, 2.185725e-002
3.099046e+003, 2.215192e-002
3.100974e+003, 2.214793e-002
3.102903e+003, 2.203835e-002
3.104831e+003, 2.180934e-002
3.106760e+003, 2.209866e-002
3.108688e+003, 2.263744e-002
3.110617e+003, 2.259361e-002
3.112545e+003, 2.242072e-002
3.114474e+003, 2.229401e-002
3.116402e+003, 2.196729e-002
3.118331e+003, 2.227326e-002
3.120259e+003, 2.266416e-002
3.122188e+003, 2.238195e-002
3.124116e+003, 2.215299e-002
3.126044e+003, 2.246315e-002
3.127973e+003, 2.255928e-002
3.129901e+003, 2.229409e-002
3.131830e+003, 2.253113e-002
3.133758e+003, 2.307176e-002
3.135687e+003, 2.319689e-002
3.137615e+003, 2.298126e-002
3.139544e+003, 2.300435e-002
3.141472e+003, 2.292849e-002
3.143401e+003, 2.311636e-002
3.145329e+003, 2.307657e-002
3.147258e+003, 2.284816e-002
3.149186e+003, 2.307267e-002
3.151115e+003, 2.304027e-002
3.153043e+003, 2.302906e-002
3.154971e+003, 2.340908e-002
3.156900e+003, 2.348210e-002
3.158828e+003, 2.335791e-002
3.160757e+003, 2.322163e-002
3.162685e+003, 2.331028e-002
3.164614e+003, 2.328491e-002
3.166542e+003, 2.345616e-002
3.168471e+003, 2.362080e-002
3.170399e+003, 2.397267e-002
3.172328e+003, 2.361400e-002
3.174256e+003, 2.304106e-002
3.176185e+003, 2.314183e-002
3.178113e+003, 2.345369e-002
3.180042e+003, 2.365117e-002
3.181970e+003, 2.358495e-002
3.183898e+003, 2.381032e-002
3.185827e+003, 2.387916e-002
3.187755e+003, 2.367342e-002
3.189684e+003, 2.396803e-002
3.191612e+003, 2.418662e-002
3.193541e+003, 2.423933e-002
3.195469e+003, 2.416345e-002
3.197398e+003, 2.379881e-002
3.199326e+003, 2.365290e-002
3.201255e+003, 2.362711e-002
3.203183e+003, 2.361584e-002
3.205112e+003, 2.365823e-002
3.207040e+003, 2.373394e-002
3.208969e+003, 2.385321e-002
3.210897e+003, 2.369145e-002
3.212825e+003, 2.376554e-002
3.214754e+003, 2.408405e-002
3.216682e+003, 2.431449e-002
3.218611e+003, 2.418874e-002
3.220539e+003, 2.377073e-002
3.222468e+003, 2.368602e-002
3.224396e+003, 2.388381e-002
3.226325e+003, 2.382642e-002
3.228253e+003, 2.415531e-002
3.230182e+003, 2.430649e-002
3.232110e+003, 2.397311e-002
3.234039e+003, 2.378400e-002
3.235967e+003, 2.371922e-002
3.237896e+003, 2.420999e-002
3.239824e+003, 2.431373e-002
3.241752e+003, 2.426895e-002
3.243681e+003, 2.431388e-002
3.245609e+003, 2.442252e-002
3.247538e+003, 2.428767e-002
3.249466e+003, 2.436342e-002
3.251395e+003, 2.458228e-002
3.253323e+003, 2.427933e-002
3.255252e+003, 2.461162e-002
3.257180e+003, 2.466319e-002
3.259109e+003, 2.449449e-002
3.261037e+003, 2.466783e-002
3.262966e+003, 2.491861e-002
3.264894e+003, 2.501666e-002
3.266823e+003, 2.476847e-002
3.268751e+003, 2.479002e-002
3.270679e+003, 2.506843e-002
3.272608e+003, 2.490110e-002
3.274536e+003, 2.499039e-002
3.276465e+003, 2.511901e-002
3.278393e+003, 2.507816e-002
3.280322e+003, 2.496225e-002
3.282250e+003, 2.487663e-002
3.284179e+003, 2.441626e-002
3.286107e+003, 2.397021e-002
3.288036e+003, 2.427645e-002
3.289964e+003, 2.481188e-002
3.291893e+003, 2.533424e-002
3.293821e+003, 2.533929e-002
3.295750e+003, 2.499435e-002
3.297678e+003, 2.475835e-002
3.299606e+003, 2.453112e-002
3.301535e+003, 2.468599e-002
3.303463e+003, 2.540779e-002
3.305392e+003, 2.555281e-002
3.307320e+003, 2.508676e-002
3.309249e+003, 2.518204e-002
3.311177e+003, 2.546401e-002
3.313106e+003, 2.481135e-002
3.315034e+003, 2.440956e-002
3.316963e+003, 2.460819e-002
3.318891e+003, 2.494053e-002
3.320820e+003, 2.517859e-002
3.322748e+003, 2.521112e-002
3.324677e+003, 2.526407e-002
3.326605e+003, 2.516709e-002
3.328533e+003, 2.491100e-002
3.330462e+003, 2.484952e-002
3.332390e+003, 2.530349e-002
3.334319e+003, 2.553613e-002
3.336247e+003, 2.556865e-002
3.338176e+003, 2.588458e-002
3.340104e+003, 2.598840e-002
3.342033e+003, 2.550270e-002
3.343961e+003, 2.564527e-002
3.345890e+003, 2.533725e-002
3.347818e+003, 2.504236e-002
3.349747e+003, 2.546163e-002
3.351675e+003, 2.549616e-002
3.353604e+003, 2.537466e-002
3.355532e+003, 2.547692e-002
3.357460e+003, 2.566883e-002
3.359389e+003, 2.591796e-002
3.361317e+003, 2.588565e-002
3.363246e+003, 2.575257e-002
3.365174e+003, 2.554774e-002
3.367103e+003, 2.545372e-002
3.369031e+003, 2.564230e-002
3.370960e+003, 2.564628e-002
3.372888e+003, 2.543906e-002
3.374817e+003, 2.535789e-002
3.376745e+003, 2.517828e-002
3.378674e+003, 2.546520e-002
3.380602e+003, 2.548051e-002
3.382531e+003, 2.567966e-002
3.384459e+003, 2.602365e-002
3.386387e+003, 2.578415e-002
3.388316e+003, 2.550315e-002
3.390244e+003, 2.519776e-002
3.392173e+003, 2.496822e-002
3.394101e+003, 2.540681e-002
3.396030e+003, 2.610597e-002
3.397958e+003, 2.623744e-002
3.399887e+003, 2.527769e-002
3.401815e+003, 2.455974e-002
3.403744e+003, 2.530552e-002
3.405672e+003, 2.550685e-002
3.407601e+003, 2.518496e-002
3.409529e+003, 2.556144e-002
3.411458e+003, 2.584960e-002
3.413386e+003, 2.595316e-002
3.415314e+003, 2.581683e-002
3.417243e+003, 2.576606e-002
3.419171e+003, 2.572595e-002
3.421100e+003, 2.520711e-002
3.423028e+003, 2.521438e-002
3.424957e+003, 2.569113e-002
3.426885e+003, 2.534796e-002
3.428814e+003, 2.535804e-002
3.430742e+003, 2.556319e-002
3.432671e+003, 2.551344e-002
3.434599e+003, 2.529705e-002
3.436528e+003, 2.528471e-002
3.438456e+003, 2.509587e-002
3.440385e+003, 2.538655e-002
3.442313e+003, 2.582217e-002
3.444241e+003, 2.609092e-002
3.446170e+003, 2.563953e-002
3.448098e+003, 2.519415e-002
3.450027e+003, 2.520973e-002
3.451955e+003, 2.525718e-002
3.453884e+003, 2.582199e-002
3.455812e+003, 2.593646e-002
3.457741e+003, 2.620621e-002
3.459669e+003, 2.571533e-002
3.461598e+003, 2.557785e-002
3.463526e+003, 2.565115e-002
3.465455e+003, 2.522899e-002
3.467383e+003, 2.533648e-002
3.469312e+003, 2.604382e-002
3.471240e+003, 2.611363e-002
3.473168e+003, 2.530005e-002
3.475097e+003, 2.514278e-002
3.477025e+003, 2.489048e-002
3.478954e+003, 2.443828e-002
3.480882e+003, 2.516652e-002
3.482811e+003, 2.540586e-002
3.484739e+003, 2.498388e-002
3.486668e+003, 2.489304e-002
3.488596e+003, 2.490526e-002
3.490525e+003, 2.429601e-002
3.492453e+003, 2.442571e-002
3.494382e+003, 2.525538e-002
3.496310e+003, 2.560114e-002
3.498239e+003, 2.526330e-002
3.500167e+003, 2.500378e-002
3.502095e+003, 2.475332e-002
3.504024e+003, 2.474333e-002
3.505952e+003, 2.463272e-002
3.507881e+003, 2.503576e-002
3.509809e+003, 2.524588e-002
3.511738e+003, 2.486997e-002
3.513666e+003, 2.483391e-002
3.515595e+003, 2.460708e-002
3.517523e+003, 2.468108e-002
3.519452e+003, 2.541839e-002
3.521380e+003, 2.579418e-002
3.523309e+003, 2.571426e-002
3.525237e+003, 2.528080e-002
3.527166e+003, 2.466265e-002
3.529094e+003, 2.499152e-002
3.531022e+003, 2.538646e-002
3.532951e+003, 2.512659e-002
3.534879e+003, 2.478744e-002
3.536808e+003, 2.481059e-002
3.538736e+003, 2.469195e-002
3.540665e+003, 2.445649e-002
3.542593e+003, 2.430629e-002
3.544522e+003, 2.443476e-002
3.546450e+003, 2.507148e-002
3.548379e+003, 2.510016e-002
3.550307e+003, 2.458096e-002
3.552236e+003, 2.480777e-002
3.554164e+003, 2.490464e-002
3.556093e+003, 2.482844e-002
3.558021e+003, 2.434803e-002
3.559949e+003, 2.378577e-002
3.561878e+003, 2.387690e-002
3.563806e+003, 2.405255e-002
3.565735e+003, 2.440505e-002
3.567663e+003, 2.398610e-002
3.569592e+003, 2.427221e-002
3.571520e+003, 2.508668e-002
3.573449e+003, 2.520502e-002
3.575377e+003, 2.514227e-002
3.577306e+003, 2.418132e-002
3.579234e+003, 2.302444e-002
3.581163e+003, 2.330445e-002
3.583091e+003, 2.403781e-002
3.585020e+003, 2.407727e-002
3.586948e+003, 2.338450e-002
3.588876e+003, 2.320682e-002
3.590805e+003, 2.405734e-002
3.592733e+003, 2.458351e-002
3.594662e+003, 2.461483e-002
3.596590e+003, 2.385849e-002
3.598519e+003, 2.291041e-002
3.600447e+003, 2.271301e-002
3.602376e+003, 2.253854e-002
3.604304e+003, 2.296148e-002
3.606233e+003, 2.376731e-002
3.608161e+003, 2.360061e-002
3.610090e+003, 2.320488e-002
3.612018e+003, 2.342522e-002
3.613947e+003, 2.352048e-002
3.615875e+003, 2.308662e-002
3.617803e+003, 2.303821e-002
3.619732e+003, 2.317681e-002
3.621660e+003, 2.270281e-002
3.623589e+003, 2.252707e-002
3.625517e+003, 2.232763e-002
3.627446e+003, 2.227353e-002
3.629374e+003, 2.295681e-002
3.631303e+003, 2.297057e-002
3.633231e+003, 2.207446e-002
3.635160e+003, 2.197648e-002
3.637088e+003, 2.239632e-002
3.639017e+003, 2.279419e-002
3.640945e+003, 2.289694e-002
3.642874e+003, 2.266010e-002
3.644802e+003, 2.290743e-002
3.646730e+003, 2.305243e-002
3.648659e+003, 2.283290e-002
3.650587e+003, 2.299307e-002
3.652516e+003, 2.300582e-002
3.654444e+003, 2.242245e-002
3.656373e+003, 2.230747e-002
3.658301e+003, 2.230139e-002
3.660230e+003, 2.231202e-002
3.662158e+003, 2.235919e-002
3.664087e+003, 2.254419e-002
3.666015e+003, 2.234981e-002
3.667944e+003, 2.243266e-002
3.669872e+003, 2.275721e-002
3.671801e+003, 2.285245e-002
3.673729e+003, 2.294433e-002
3.675657e+003, 2.244147e-002
3.677586e+003, 2.218571e-002
3.679514e+003, 2.293131e-002
3.681443e+003, 2.347041e-002
3.683371e+003, 2.302303e-002
3.685300e+003, 2.212147e-002
3.687228e+003, 2.230089e-002
3.689157e+003, 2.282750e-002
3.691085e+003, 2.237886e-002
3.693014e+003, 2.209500e-002
3.694942e+003, 2.217987e-002
3.696871e+003, 2.263587e-002
3.698799e+003, 2.284617e-002
3.700728e+003, 2.275869e-002
3.702656e+003, 2.256709e-002
3.704584e+003, 2.278660e-002
3.706513e+003, 2.362575e-002
3.708441e+003, 2.397273e-002
3.710370e+003, 2.368261e-002
3.712298e+003, 2.421112e-002
3.714227e+003, 2.371281e-002
3.716155e+003, 2.258604e-002
3.718084e+003, 2.269432e-002
3.720012e+003, 2.323280e-002
3.721941e+003, 2.400278e-002
3.723869e+003, 2.399567e-002
3.725798e+003, 2.318609e-002
3.727726e+003, 2.262632e-002
3.729655e+003, 2.200202e-002
3.731583e+003, 2.243881e-002
3.733511e+003, 2.332311e-002
3.735440e+003, 2.417990e-002
3.737368e+003, 2.390224e-002
3.739297e+003, 2.312798e-002
3.741225e+003, 2.386539e-002
3.743154e+003, 2.426608e-002
3.745082e+003, 2.364559e-002
3.747011e+003, 2.331169e-002
3.748939e+003, 2.347081e-002
3.750868e+003, 2.354007e-002
3.752796e+003, 2.335973e-002
3.754725e+003, 2.338493e-002
3.756653e+003, 2.349334e-002
3.758582e+003, 2.344672e-002
3.760510e+003, 2.353870e-002
3.762438e+003, 2.402139e-002
3.764367e+003, 2.404187e-002
3.766295e+003, 2.365322e-002
3.768224e+003, 2.322526e-002
3.770152e+003, 2.311988e-002
3.772081e+003, 2.300464e-002
3.774009e+003, 2.325642e-002
3.775938e+003, 2.367551e-002
3.777866e+003, 2.414822e-002
3.779795e+003, 2.419175e-002
3.781723e+003, 2.355791e-002
3.783652e+003, 2.386431e-002
3.785580e+003, 2.409113e-002
3.787509e+003, 2.364444e-002
3.789437e+003, 2.351237e-002
3.791365e+003, 2.342399e-002
3.793294e+003, 2.332365e-002
3.795222e+003, 2.302504e-002
3.797151e+003, 2.283153e-002
3.799079e+003, 2.313231e-002
3.801008e+003, 2.338285e-002
3.802936e+003, 2.341587e-002
3.804865e+003, 2.331043e-002
3.806793e+003, 2.340623e-002
3.808722e+003, 2.358610e-002
3.810650e+003, 2.389424e-002
3.812579e+003, 2.344983e-002
3.814507e+003, 2.349111e-002
3.816436e+003, 2.367224e-002
3.818364e+003, 2.344046e-002
3.820292e+003, 2.326789e-002
3.822221e+003, 2.316836e-002
3.824149e+003, 2.285841e-002
3.826078e+003, 2.319342e-002
3.828006e+003, 2.404566e-002
3.829935e+003, 2.446655e-002
3.831863e+003, 2.438708e-002
3.833792e+003, 2.428483e-002
3.835720e+003, 2.428371e-002
3.837649e+003, 2.407807e-002
3.839577e+003, 2.416215e-002
3.841506e+003, 2.435800e-002
3.843434e+003, 2.468227e-002
3.845363e+003, 2.443897e-002
3.847291e+003, 2.336597e-002
3.849219e+003, 2.321326e-002
3.851148e+003, 2.317799e-002
3.853076e+003, 2.288550e-002
3.855005e+003, 2.314178e-002
3.856933e+003, 2.338422e-002
3.858862e+003, 2.412767e-002
3.860790e+003, 2.417043e-002
3.862719e+003, 2.381580e-002
3.864647e+003, 2.358919e-002
3.866576e+003, 2.435102e-002
3.868504e+003, 2.513658e-002
3.870433e+003, 2.449036e-002
3.872361e+003, 2.363462e-002
3.874290e+003, 2.371951e-002
3.876218e+003, 2.344967e-002
3.878146e+003, 2.373115e-002
3.880075e+003, 2.391672e-002
3.882003e+003, 2.418872e-002
3.883932e+003, 2.452317e-002
3.885860e+003, 2.412775e-002
3.887789e+003, 2.389520e-002
3.889717e+003, 2.422115e-002
3.891646e+003, 2.414298e-002
3.893574e+003, 2.373512e-002
3.895503e+003, 2.358635e-002
3.897431e+003, 2.394320e-002
3.899360e+003, 2.411854e-002
3.901288e+003, 2.459622e-002
3.903217e+003, 2.479677e-002
3.905145e+003, 2.420050e-002
3.907073e+003, 2.495622e-002
3.909002e+003, 2.554666e-002
3.910930e+003, 2.445376e-002
3.912859e+003, 2.353926e-002
3.914787e+003, 2.352490e-002
3.916716e+003, 2.343828e-002
3.918644e+003, 2.398683e-002
3.920573e+003, 2.392072e-002
3.922501e+003, 2.396526e-002
3.924430e+003, 2.370127e-002
3.926358e+003, 2.311076e-002
3.928287e+003, 2.355065e-002
3.930215e+003, 2.443275e-002
3.932144e+003, 2.487521e-002
3.934072e+003, 2.475021e-002
3.936000e+003, 2.409434e-002
3.937929e+003, 2.458270e-002
3.939857e+003, 2.537662e-002
3.941786e+003, 2.475985e-002
3.943714e+003, 2.409472e-002
3.945643e+003, 2.441170e-002
3.947571e+003, 2.476181e-002
3.949500e+003, 2.432436e-002
3.951428e+003, 2.366650e-002
3.953357e+003, 2.362966e-002
3.955285e+003, 2.357537e-002
3.957214e+003, 2.362124e-002
3.959142e+003, 2.382583e-002
3.961071e+003, 2.398605e-002
3.962999e+003, 2.457806e-002
3.964927e+003, 2.464901e-002
3.966856e+003, 2.411677e-002
3.968784e+003, 2.305913e-002
3.970713e+003, 2.253888e-002
3.972641e+003, 2.280706e-002
3.974570e+003, 2.236309e-002
3.976498e+003, 2.244143e-002
3.978427e+003, 2.353821e-002
3.980355e+003, 2.454602e-002
3.982284e+003, 2.458598e-002
3.984212e+003, 2.441132e-002
3.986141e+003, 2.364392e-002
3.988069e+003, 2.373623e-002
3.989998e+003, 2.471321e-002
3.991926e+003, 2.501454e-002
3.993854e+003, 2.468184e-002
3.995783e+003, 2.463946e-002
3.997711e+003, 2.439404e-002
3.999640e+003, 2.398433e-002
4.001568e+003, 0.000000e+000
##END=



