##NAMES=Calcite
##RRUFFID=R040070
##IDEAL CHEMISTRY=CaCO_3_
##LOCALITY=Pryor Mountain, Big Horn County, Montana, USA
##OWNER=RRUFF
##SOURCE=University of Arizona Mineral Museum
##DESCRIPTION=Orange scalenohedral crystals
##STATUS=The identification of this mineral has been confirmed by X-ray diffraction and chemical analysis
##URL=rruff.info/R040070
##MEASURED CHEMISTRY=(Ca_0.99_Mg_0.01_)CO_3_
3.991926e+002, 0.000000e+000
4.011211e+002, 2.049211e-002
4.030496e+002, 2.057392e-002
4.049780e+002, 2.189416e-002
4.069065e+002, 2.241742e-002
4.088350e+002, 2.115792e-002
4.107634e+002, 2.020606e-002
4.126919e+002, 1.975611e-002
4.146204e+002, 1.878077e-002
4.165488e+002, 1.782739e-002
4.184773e+002, 1.786092e-002
4.204058e+002, 1.796866e-002
4.223342e+002, 1.699551e-002
4.242627e+002, 1.622016e-002
4.261912e+002, 1.558162e-002
4.281196e+002, 1.586275e-002
4.300481e+002, 1.609665e-002
4.319766e+002, 1.523979e-002
4.339050e+002, 1.457273e-002
4.358335e+002, 1.461534e-002
4.377620e+002, 1.348029e-002
4.396904e+002, 1.320402e-002
4.416189e+002, 1.292811e-002
4.435474e+002, 1.205551e-002
4.454758e+002, 1.204027e-002
4.474043e+002, 1.177075e-002
4.493328e+002, 1.120663e-002
4.512612e+002, 1.162064e-002
4.531897e+002, 1.174196e-002
4.551182e+002, 1.121784e-002
4.570466e+002, 1.071639e-002
4.589751e+002, 1.025286e-002
4.609036e+002, 1.041412e-002
4.628320e+002, 1.050744e-002
4.647605e+002, 9.823833e-003
4.666890e+002, 9.440221e-003
4.686174e+002, 9.776813e-003
4.705459e+002, 9.954760e-003
4.724744e+002, 9.926360e-003
4.744028e+002, 9.395747e-003
4.763313e+002, 8.880746e-003
4.782598e+002, 9.397339e-003
4.801882e+002, 9.709734e-003
4.821167e+002, 8.768016e-003
4.840452e+002, 8.832450e-003
4.859736e+002, 9.243038e-003
4.879021e+002, 9.614876e-003
4.898306e+002, 9.140114e-003
4.917590e+002, 8.353394e-003
4.936875e+002, 8.081272e-003
4.956160e+002, 8.325065e-003
4.975444e+002, 8.308633e-003
4.994729e+002, 8.122466e-003
5.014014e+002, 8.095879e-003
5.033298e+002, 8.238407e-003
5.052583e+002, 8.260191e-003
5.071868e+002, 7.575567e-003
5.091152e+002, 7.429036e-003
5.110437e+002, 7.819436e-003
5.129722e+002, 7.833659e-003
5.149006e+002, 7.331356e-003
5.168291e+002, 6.881358e-003
5.187576e+002, 6.763959e-003
5.206860e+002, 6.842907e-003
5.226145e+002, 6.959212e-003
5.245430e+002, 7.224082e-003
5.264714e+002, 7.293518e-003
5.283999e+002, 7.011495e-003
5.303284e+002, 6.709050e-003
5.322568e+002, 6.451634e-003
5.341853e+002, 6.267385e-003
5.361138e+002, 6.265494e-003
5.380422e+002, 6.211024e-003
5.399707e+002, 6.013869e-003
5.418992e+002, 6.263041e-003
5.438276e+002, 6.891259e-003
5.457561e+002, 6.246153e-003
5.476846e+002, 5.866344e-003
5.496130e+002, 6.285269e-003
5.515415e+002, 6.451015e-003
5.534700e+002, 5.570087e-003
5.553984e+002, 5.262494e-003
5.573269e+002, 5.439744e-003
5.592554e+002, 5.888916e-003
5.611838e+002, 6.040425e-003
5.631123e+002, 5.848553e-003
5.650408e+002, 5.584613e-003
5.669692e+002, 5.695459e-003
5.688977e+002, 5.943899e-003
5.708262e+002, 5.938364e-003
5.727546e+002, 6.078075e-003
5.746831e+002, 6.118379e-003
5.766116e+002, 5.786987e-003
5.785400e+002, 5.984607e-003
5.804685e+002, 6.311366e-003
5.823970e+002, 6.563953e-003
5.843254e+002, 6.556245e-003
5.862539e+002, 6.329969e-003
5.881824e+002, 6.225280e-003
5.901108e+002, 6.545001e-003
5.920393e+002, 6.547803e-003
5.939678e+002, 6.395063e-003
5.958962e+002, 6.503242e-003
5.978247e+002, 6.733957e-003
5.997532e+002, 6.776713e-003
6.016816e+002, 6.523658e-003
6.036101e+002, 6.406211e-003
6.055386e+002, 6.576448e-003
6.074670e+002, 6.670852e-003
6.093955e+002, 6.588640e-003
6.113240e+002, 6.495750e-003
6.132524e+002, 6.567334e-003
6.151809e+002, 6.649922e-003
6.171094e+002, 6.725109e-003
6.190378e+002, 6.574861e-003
6.209663e+002, 6.377945e-003
6.228948e+002, 6.365171e-003
6.248232e+002, 6.542836e-003
6.267517e+002, 6.645149e-003
6.286802e+002, 6.826452e-003
6.306086e+002, 6.729589e-003
6.325371e+002, 6.639315e-003
6.344656e+002, 6.615023e-003
6.363940e+002, 6.725511e-003
6.383225e+002, 7.101563e-003
6.402510e+002, 7.205385e-003
6.421794e+002, 7.064558e-003
6.441079e+002, 7.012709e-003
6.460364e+002, 7.064665e-003
6.479648e+002, 7.217836e-003
6.498933e+002, 7.272544e-003
6.518218e+002, 7.333213e-003
6.537502e+002, 7.527886e-003
6.556787e+002, 7.512574e-003
6.576072e+002, 7.490931e-003
6.595356e+002, 7.764299e-003
6.614641e+002, 7.885421e-003
6.633926e+002, 7.866068e-003
6.653210e+002, 7.983864e-003
6.672495e+002, 8.034226e-003
6.691780e+002, 7.915649e-003
6.711064e+002, 8.223045e-003
6.730349e+002, 8.720887e-003
6.749634e+002, 9.298194e-003
6.768918e+002, 1.024532e-002
6.788203e+002, 1.113808e-002
6.807488e+002, 1.130613e-002
6.826772e+002, 1.082309e-002
6.846057e+002, 1.029453e-002
6.865342e+002, 1.018706e-002
6.884626e+002, 1.034817e-002
6.903911e+002, 1.067627e-002
6.923196e+002, 1.115056e-002
6.942480e+002, 1.155191e-002
6.961765e+002, 1.238846e-002
6.981050e+002, 1.340240e-002
7.000334e+002, 1.464785e-002
7.019619e+002, 1.674870e-002
7.038904e+002, 2.012856e-002
7.058188e+002, 2.562293e-002
7.077473e+002, 3.673392e-002
7.096758e+002, 5.828698e-002
7.116042e+002, 7.924388e-002
7.135327e+002, 7.095309e-002
7.154612e+002, 4.379047e-002
7.173896e+002, 2.453021e-002
7.193181e+002, 1.549049e-002
7.212466e+002, 1.176736e-002
7.231750e+002, 1.008594e-002
7.251035e+002, 9.237849e-003
7.270320e+002, 8.839152e-003
7.289604e+002, 8.831574e-003
7.308889e+002, 9.093142e-003
7.328174e+002, 9.620387e-003
7.347458e+002, 9.545713e-003
7.366743e+002, 9.198890e-003
7.386028e+002, 8.951305e-003
7.405313e+002, 8.893979e-003
7.424597e+002, 8.718800e-003
7.443882e+002, 8.816704e-003
7.463167e+002, 8.903565e-003
7.482451e+002, 9.004374e-003
7.501736e+002, 8.969584e-003
7.521021e+002, 9.245743e-003
7.540305e+002, 9.549977e-003
7.559590e+002, 9.750230e-003
7.578875e+002, 9.737199e-003
7.598159e+002, 9.806549e-003
7.617444e+002, 1.019420e-002
7.636729e+002, 1.037843e-002
7.656013e+002, 1.049903e-002
7.675298e+002, 1.076231e-002
7.694583e+002, 1.114339e-002
7.713867e+002, 1.122935e-002
7.733152e+002, 1.156158e-002
7.752437e+002, 1.186612e-002
7.771721e+002, 1.172004e-002
7.791006e+002, 1.163586e-002
7.810291e+002, 1.193772e-002
7.829575e+002, 1.207265e-002
7.848860e+002, 1.191338e-002
7.868145e+002, 1.190012e-002
7.887429e+002, 1.201686e-002
7.906714e+002, 1.224627e-002
7.925999e+002, 1.241753e-002
7.945283e+002, 1.268919e-002
7.964568e+002, 1.282454e-002
7.983853e+002, 1.289184e-002
8.003137e+002, 1.301207e-002
8.022422e+002, 1.306240e-002
8.041707e+002, 1.311295e-002
8.060991e+002, 1.337243e-002
8.080276e+002, 1.366575e-002
8.099561e+002, 1.396817e-002
8.118845e+002, 1.419346e-002
8.138130e+002, 1.445628e-002
8.157415e+002, 1.468952e-002
8.176699e+002, 1.495604e-002
8.195984e+002, 1.513227e-002
8.215269e+002, 1.542125e-002
8.234553e+002, 1.595123e-002
8.253838e+002, 1.647839e-002
8.273123e+002, 1.699706e-002
8.292407e+002, 1.775448e-002
8.311692e+002, 1.842537e-002
8.330977e+002, 1.920913e-002
8.350261e+002, 2.055598e-002
8.369546e+002, 2.238682e-002
8.388831e+002, 2.454858e-002
8.408115e+002, 2.638307e-002
8.427400e+002, 2.785697e-002
8.446685e+002, 3.154027e-002
8.465969e+002, 3.858193e-002
8.485254e+002, 3.938420e-002
8.504539e+002, 3.523675e-002
8.523823e+002, 3.699505e-002
8.543108e+002, 4.245185e-002
8.562393e+002, 4.967386e-002
8.581677e+002, 5.878121e-002
8.600962e+002, 7.094204e-002
8.620247e+002, 8.654293e-002
8.639531e+002, 1.056276e-001
8.658816e+002, 1.281318e-001
8.678101e+002, 1.560069e-001
8.697385e+002, 1.854096e-001
8.716670e+002, 2.018884e-001
8.735955e+002, 1.979271e-001
8.755239e+002, 1.804489e-001
8.774524e+002, 1.564655e-001
8.793809e+002, 1.302757e-001
8.813093e+002, 1.053203e-001
8.832378e+002, 8.136766e-002
8.851663e+002, 5.332724e-002
8.870947e+002, 2.863277e-002
8.890232e+002, 1.699083e-002
8.909517e+002, 1.424768e-002
8.928801e+002, 1.361764e-002
8.948085e+002, 1.320476e-002
8.967370e+002, 1.293280e-002
8.986655e+002, 1.293185e-002
9.005939e+002, 1.299033e-002
9.025224e+002, 1.322464e-002
9.044509e+002, 1.346767e-002
9.063793e+002, 1.362090e-002
9.083078e+002, 1.375354e-002
9.102363e+002, 1.400607e-002
9.121647e+002, 1.411704e-002
9.140932e+002, 1.438508e-002
9.160217e+002, 1.448697e-002
9.179501e+002, 1.477328e-002
9.198786e+002, 1.495420e-002
9.218071e+002, 1.497556e-002
9.237355e+002, 1.505990e-002
9.256640e+002, 1.533890e-002
9.275925e+002, 1.567408e-002
9.295209e+002, 1.591728e-002
9.314494e+002, 1.606466e-002
9.333779e+002, 1.632328e-002
9.353063e+002, 1.633708e-002
9.372348e+002, 1.641994e-002
9.391633e+002, 1.681854e-002
9.410917e+002, 1.720111e-002
9.430202e+002, 1.731833e-002
9.449487e+002, 1.743867e-002
9.468771e+002, 1.767124e-002
9.488056e+002, 1.782262e-002
9.507341e+002, 1.775787e-002
9.526625e+002, 1.794194e-002
9.545910e+002, 1.806657e-002
9.565195e+002, 1.810394e-002
9.584479e+002, 1.817007e-002
9.603764e+002, 1.819498e-002
9.623049e+002, 1.834476e-002
9.642333e+002, 1.881404e-002
9.661618e+002, 1.896852e-002
9.680903e+002, 1.916835e-002
9.700187e+002, 1.938461e-002
9.719472e+002, 1.972270e-002
9.738757e+002, 1.985602e-002
9.758041e+002, 2.003763e-002
9.777326e+002, 2.021318e-002
9.796611e+002, 2.037024e-002
9.815895e+002, 2.044065e-002
9.835180e+002, 2.061990e-002
9.854465e+002, 2.078507e-002
9.873749e+002, 2.125004e-002
9.893034e+002, 2.170446e-002
9.912319e+002, 2.200823e-002
9.931603e+002, 2.218601e-002
9.950888e+002, 2.223865e-002
9.970173e+002, 2.229315e-002
9.989457e+002, 2.263879e-002
1.000874e+003, 2.283784e-002
1.002803e+003, 2.298840e-002
1.004731e+003, 2.318017e-002
1.006660e+003, 2.347255e-002
1.008588e+003, 2.373959e-002
1.010517e+003, 2.400063e-002
1.012445e+003, 2.424030e-002
1.014373e+003, 2.436957e-002
1.016302e+003, 2.440291e-002
1.018230e+003, 2.472118e-002
1.020159e+003, 2.488787e-002
1.022087e+003, 2.502253e-002
1.024016e+003, 2.530574e-002
1.025944e+003, 2.544893e-002
1.027873e+003, 2.563500e-002
1.029801e+003, 2.563640e-002
1.031730e+003, 2.557044e-002
1.033658e+003, 2.585671e-002
1.035587e+003, 2.610983e-002
1.037515e+003, 2.636085e-002
1.039444e+003, 2.666504e-002
1.041372e+003, 2.691596e-002
1.043301e+003, 2.709301e-002
1.045229e+003, 2.750186e-002
1.047157e+003, 2.783334e-002
1.049086e+003, 2.820158e-002
1.051014e+003, 2.887000e-002
1.052943e+003, 2.911593e-002
1.054871e+003, 2.896530e-002
1.056800e+003, 2.909591e-002
1.058728e+003, 2.941477e-002
1.060657e+003, 2.987755e-002
1.062585e+003, 3.006142e-002
1.064514e+003, 3.045205e-002
1.066442e+003, 3.103989e-002
1.068371e+003, 3.143967e-002
1.070299e+003, 3.168656e-002
1.072228e+003, 3.199182e-002
1.074156e+003, 3.246119e-002
1.076084e+003, 3.291826e-002
1.078013e+003, 3.326426e-002
1.079941e+003, 3.406184e-002
1.081870e+003, 3.507325e-002
1.083798e+003, 3.588788e-002
1.085727e+003, 3.626196e-002
1.087655e+003, 3.639547e-002
1.089584e+003, 3.649359e-002
1.091512e+003, 3.663344e-002
1.093441e+003, 3.625290e-002
1.095369e+003, 3.570481e-002
1.097298e+003, 3.550427e-002
1.099226e+003, 3.554825e-002
1.101155e+003, 3.567907e-002
1.103083e+003, 3.607197e-002
1.105011e+003, 3.637030e-002
1.106940e+003, 3.678551e-002
1.108868e+003, 3.722726e-002
1.110797e+003, 3.763010e-002
1.112725e+003, 3.802244e-002
1.114654e+003, 3.867064e-002
1.116582e+003, 3.916096e-002
1.118511e+003, 3.954555e-002
1.120439e+003, 4.009151e-002
1.122368e+003, 4.065176e-002
1.124296e+003, 4.107911e-002
1.126225e+003, 4.142624e-002
1.128153e+003, 4.197966e-002
1.130082e+003, 4.247983e-002
1.132010e+003, 4.292129e-002
1.133938e+003, 4.338227e-002
1.135867e+003, 4.401343e-002
1.137795e+003, 4.479900e-002
1.139724e+003, 4.543494e-002
1.141652e+003, 4.622292e-002
1.143581e+003, 4.691258e-002
1.145509e+003, 4.746951e-002
1.147438e+003, 4.815347e-002
1.149366e+003, 4.905028e-002
1.151295e+003, 4.980946e-002
1.153223e+003, 5.042079e-002
1.155152e+003, 5.090052e-002
1.157080e+003, 5.160927e-002
1.159009e+003, 5.259142e-002
1.160937e+003, 5.336661e-002
1.162865e+003, 5.403299e-002
1.164794e+003, 5.471402e-002
1.166722e+003, 5.512518e-002
1.168651e+003, 5.542218e-002
1.170579e+003, 5.584510e-002
1.172508e+003, 5.655191e-002
1.174436e+003, 5.729412e-002
1.176365e+003, 5.798085e-002
1.178293e+003, 5.850011e-002
1.180222e+003, 5.918134e-002
1.182150e+003, 5.969387e-002
1.184079e+003, 6.015426e-002
1.186007e+003, 6.080749e-002
1.187936e+003, 6.148529e-002
1.189864e+003, 6.205489e-002
1.191792e+003, 6.273000e-002
1.193721e+003, 6.344219e-002
1.195649e+003, 6.420547e-002
1.197578e+003, 6.492925e-002
1.199506e+003, 6.573688e-002
1.201435e+003, 6.655618e-002
1.203363e+003, 6.755093e-002
1.205292e+003, 6.844054e-002
1.207220e+003, 6.916405e-002
1.209149e+003, 6.995036e-002
1.211077e+003, 7.096490e-002
1.213006e+003, 7.189141e-002
1.214934e+003, 7.283983e-002
1.216863e+003, 7.387164e-002
1.218791e+003, 7.501492e-002
1.220719e+003, 7.609130e-002
1.222648e+003, 7.722274e-002
1.224576e+003, 7.837046e-002
1.226505e+003, 7.951519e-002
1.228433e+003, 8.057842e-002
1.230362e+003, 8.165216e-002
1.232290e+003, 8.280733e-002
1.234219e+003, 8.424477e-002
1.236147e+003, 8.574640e-002
1.238076e+003, 8.733744e-002
1.240004e+003, 8.852467e-002
1.241933e+003, 8.962515e-002
1.243861e+003, 9.087747e-002
1.245790e+003, 9.222610e-002
1.247718e+003, 9.362426e-002
1.249646e+003, 9.526072e-002
1.251575e+003, 9.662486e-002
1.253503e+003, 9.809499e-002
1.255432e+003, 9.975114e-002
1.257360e+003, 1.014751e-001
1.259289e+003, 1.031518e-001
1.261217e+003, 1.049247e-001
1.263146e+003, 1.065972e-001
1.265074e+003, 1.083113e-001
1.267003e+003, 1.102047e-001
1.268931e+003, 1.121019e-001
1.270860e+003, 1.138094e-001
1.272788e+003, 1.157188e-001
1.274717e+003, 1.179255e-001
1.276645e+003, 1.203033e-001
1.278573e+003, 1.224549e-001
1.280502e+003, 1.243652e-001
1.282430e+003, 1.264793e-001
1.284359e+003, 1.289085e-001
1.286287e+003, 1.312967e-001
1.288216e+003, 1.338190e-001
1.290144e+003, 1.363250e-001
1.292073e+003, 1.389032e-001
1.294001e+003, 1.415300e-001
1.295930e+003, 1.442697e-001
1.297858e+003, 1.470344e-001
1.299787e+003, 1.499830e-001
1.301715e+003, 1.530926e-001
1.303644e+003, 1.563434e-001
1.305572e+003, 1.596084e-001
1.307500e+003, 1.628553e-001
1.309429e+003, 1.659487e-001
1.311357e+003, 1.693335e-001
1.313286e+003, 1.727200e-001
1.315214e+003, 1.758532e-001
1.317143e+003, 1.792525e-001
1.319071e+003, 1.826988e-001
1.321000e+003, 1.860839e-001
1.322928e+003, 1.899766e-001
1.324857e+003, 1.939517e-001
1.326785e+003, 1.978827e-001
1.328714e+003, 2.022194e-001
1.330642e+003, 2.067690e-001
1.332571e+003, 2.112575e-001
1.334499e+003, 2.158060e-001
1.336427e+003, 2.204651e-001
1.338356e+003, 2.251101e-001
1.340284e+003, 2.300533e-001
1.342213e+003, 2.354477e-001
1.344141e+003, 2.407214e-001
1.346070e+003, 2.460723e-001
1.347998e+003, 2.517976e-001
1.349927e+003, 2.577589e-001
1.351855e+003, 2.640233e-001
1.353784e+003, 2.706803e-001
1.355712e+003, 2.771859e-001
1.357641e+003, 2.839524e-001
1.359569e+003, 2.910262e-001
1.361498e+003, 2.980276e-001
1.363426e+003, 3.053159e-001
1.365354e+003, 3.129429e-001
1.367283e+003, 3.200693e-001
1.369211e+003, 3.275885e-001
1.371140e+003, 3.354803e-001
1.373068e+003, 3.430784e-001
1.374997e+003, 3.504214e-001
1.376925e+003, 3.580268e-001
1.378854e+003, 3.659673e-001
1.380782e+003, 3.741358e-001
1.382711e+003, 3.817843e-001
1.384639e+003, 3.892851e-001
1.386568e+003, 3.964871e-001
1.388496e+003, 4.029462e-001
1.390424e+003, 4.082077e-001
1.392353e+003, 4.123233e-001
1.394281e+003, 4.142129e-001
1.396210e+003, 4.136067e-001
1.398138e+003, 4.117708e-001
1.400067e+003, 4.096331e-001
1.401995e+003, 4.081482e-001
1.403924e+003, 4.073812e-001
1.405852e+003, 4.049638e-001
1.407781e+003, 4.004977e-001
1.409709e+003, 3.946375e-001
1.411638e+003, 3.882059e-001
1.413566e+003, 3.812975e-001
1.415495e+003, 3.743044e-001
1.417423e+003, 3.672355e-001
1.419351e+003, 3.602147e-001
1.421280e+003, 3.533777e-001
1.423208e+003, 3.472343e-001
1.425137e+003, 3.412501e-001
1.427065e+003, 3.350490e-001
1.428994e+003, 3.287470e-001
1.430922e+003, 3.229640e-001
1.432851e+003, 3.170894e-001
1.434779e+003, 3.108464e-001
1.436708e+003, 3.050342e-001
1.438636e+003, 2.996381e-001
1.440565e+003, 2.942609e-001
1.442493e+003, 2.886564e-001
1.444422e+003, 2.829635e-001
1.446350e+003, 2.773657e-001
1.448278e+003, 2.712500e-001
1.450207e+003, 2.651197e-001
1.452135e+003, 2.592325e-001
1.454064e+003, 2.533371e-001
1.455992e+003, 2.473613e-001
1.457921e+003, 2.417728e-001
1.459849e+003, 2.363343e-001
1.461778e+003, 2.306322e-001
1.463706e+003, 2.251692e-001
1.465635e+003, 2.200589e-001
1.467563e+003, 2.149841e-001
1.469492e+003, 2.101130e-001
1.471420e+003, 2.051162e-001
1.473349e+003, 2.001939e-001
1.475277e+003, 1.953204e-001
1.477205e+003, 1.905499e-001
1.479134e+003, 1.860048e-001
1.481062e+003, 1.817053e-001
1.482991e+003, 1.772277e-001
1.484919e+003, 1.727709e-001
1.486848e+003, 1.680849e-001
1.488776e+003, 1.634618e-001
1.490705e+003, 1.589584e-001
1.492633e+003, 1.544798e-001
1.494562e+003, 1.497661e-001
1.496490e+003, 1.452286e-001
1.498419e+003, 1.408813e-001
1.500347e+003, 1.365257e-001
1.502276e+003, 1.320810e-001
1.504204e+003, 1.277222e-001
1.506132e+003, 1.235293e-001
1.508061e+003, 1.195294e-001
1.509989e+003, 1.156889e-001
1.511918e+003, 1.116817e-001
1.513846e+003, 1.076883e-001
1.515775e+003, 1.037725e-001
1.517703e+003, 1.000523e-001
1.519632e+003, 9.648239e-002
1.521560e+003, 9.281041e-002
1.523489e+003, 8.940350e-002
1.525417e+003, 8.589502e-002
1.527346e+003, 8.221227e-002
1.529274e+003, 7.862344e-002
1.531203e+003, 7.485300e-002
1.533131e+003, 7.087990e-002
1.535059e+003, 6.705035e-002
1.536988e+003, 6.311936e-002
1.538916e+003, 5.888411e-002
1.540845e+003, 5.488795e-002
1.542773e+003, 5.102462e-002
1.544702e+003, 4.640871e-002
1.546630e+003, 4.182038e-002
1.548559e+003, 3.773779e-002
1.550487e+003, 3.422346e-002
1.552416e+003, 3.104929e-002
1.554344e+003, 2.850433e-002
1.556273e+003, 2.657831e-002
1.558201e+003, 2.509450e-002
1.560130e+003, 2.378012e-002
1.562058e+003, 2.257671e-002
1.563986e+003, 2.153851e-002
1.565915e+003, 2.079822e-002
1.567843e+003, 1.997210e-002
1.569772e+003, 1.893176e-002
1.571700e+003, 1.812197e-002
1.573629e+003, 1.765320e-002
1.575557e+003, 1.708220e-002
1.577486e+003, 1.681635e-002
1.579414e+003, 1.675080e-002
1.581343e+003, 1.640853e-002
1.583271e+003, 1.596104e-002
1.585200e+003, 1.557568e-002
1.587128e+003, 1.496237e-002
1.589057e+003, 1.457410e-002
1.590985e+003, 1.386127e-002
1.592913e+003, 1.311556e-002
1.594842e+003, 1.236001e-002
1.596770e+003, 1.172465e-002
1.598699e+003, 1.103464e-002
1.600627e+003, 1.060986e-002
1.602556e+003, 1.032397e-002
1.604484e+003, 9.978640e-003
1.606413e+003, 9.448832e-003
1.608341e+003, 9.002620e-003
1.610270e+003, 8.614494e-003
1.612198e+003, 8.582682e-003
1.614127e+003, 8.328027e-003
1.616055e+003, 7.849768e-003
1.617984e+003, 7.669450e-003
1.619912e+003, 7.620411e-003
1.621840e+003, 7.301046e-003
1.623769e+003, 6.975125e-003
1.625697e+003, 6.827167e-003
1.627626e+003, 6.865866e-003
1.629554e+003, 6.741449e-003
1.631483e+003, 6.545154e-003
1.633411e+003, 6.274222e-003
1.635340e+003, 6.169804e-003
1.637268e+003, 6.210179e-003
1.639197e+003, 6.391695e-003
1.641125e+003, 6.330600e-003
1.643054e+003, 6.127943e-003
1.644982e+003, 5.798805e-003
1.646911e+003, 5.474838e-003
1.648839e+003, 5.360691e-003
1.650767e+003, 5.326973e-003
1.652696e+003, 5.230766e-003
1.654624e+003, 5.265730e-003
1.656553e+003, 5.510689e-003
1.658481e+003, 5.733711e-003
1.660410e+003, 5.611287e-003
1.662338e+003, 5.324396e-003
1.664267e+003, 4.983844e-003
1.666195e+003, 4.903505e-003
1.668124e+003, 5.028691e-003
1.670052e+003, 5.020463e-003
1.671981e+003, 5.008266e-003
1.673909e+003, 5.000797e-003
1.675838e+003, 4.728979e-003
1.677766e+003, 4.673359e-003
1.679694e+003, 4.724827e-003
1.681623e+003, 4.700645e-003
1.683551e+003, 4.651689e-003
1.685480e+003, 4.769396e-003
1.687408e+003, 4.699687e-003
1.689337e+003, 4.547775e-003
1.691265e+003, 4.336309e-003
1.693194e+003, 4.366323e-003
1.695122e+003, 4.420274e-003
1.697051e+003, 4.593977e-003
1.698979e+003, 4.611795e-003
1.700908e+003, 4.644913e-003
1.702836e+003, 4.788700e-003
1.704765e+003, 4.712509e-003
1.706693e+003, 4.721249e-003
1.708621e+003, 5.266802e-003
1.710550e+003, 5.252790e-003
1.712478e+003, 4.810949e-003
1.714407e+003, 4.420160e-003
1.716335e+003, 4.402488e-003
1.718264e+003, 4.457437e-003
1.720192e+003, 4.724226e-003
1.722121e+003, 4.942264e-003
1.724049e+003, 4.957503e-003
1.725978e+003, 4.924768e-003
1.727906e+003, 4.670513e-003
1.729835e+003, 4.517358e-003
1.731763e+003, 4.696187e-003
1.733692e+003, 4.798167e-003
1.735620e+003, 4.458699e-003
1.737548e+003, 4.426679e-003
1.739477e+003, 4.734836e-003
1.741405e+003, 4.602264e-003
1.743334e+003, 4.402126e-003
1.745262e+003, 4.287323e-003
1.747191e+003, 4.435495e-003
1.749119e+003, 4.490498e-003
1.751048e+003, 4.439737e-003
1.752976e+003, 4.208382e-003
1.754905e+003, 4.352357e-003
1.756833e+003, 4.554047e-003
1.758762e+003, 4.637294e-003
1.760690e+003, 4.594517e-003
1.762619e+003, 4.677176e-003
1.764547e+003, 4.755278e-003
1.766475e+003, 5.070277e-003
1.768404e+003, 4.967181e-003
1.770332e+003, 4.778083e-003
1.772261e+003, 4.610613e-003
1.774189e+003, 4.989276e-003
1.776118e+003, 5.487703e-003
1.778046e+003, 5.704323e-003
1.779975e+003, 5.904489e-003
1.781903e+003, 6.612842e-003
1.783832e+003, 7.184555e-003
1.785760e+003, 8.196461e-003
1.787689e+003, 1.000603e-002
1.789617e+003, 1.267104e-002
1.791546e+003, 1.552492e-002
1.793474e+003, 1.764662e-002
1.795402e+003, 1.782580e-002
1.797331e+003, 1.721398e-002
1.799259e+003, 1.609962e-002
1.801188e+003, 1.361560e-002
1.803116e+003, 1.080586e-002
1.805045e+003, 8.625362e-003
1.806973e+003, 7.180835e-003
1.808902e+003, 6.205568e-003
1.810830e+003, 5.636981e-003
1.812759e+003, 5.245776e-003
1.814687e+003, 4.517706e-003
1.816616e+003, 4.255521e-003
1.818544e+003, 4.518041e-003
1.820473e+003, 4.541875e-003
1.822401e+003, 4.304166e-003
1.824329e+003, 4.414527e-003
1.826258e+003, 4.376054e-003
1.828186e+003, 4.524733e-003
1.830115e+003, 4.227094e-003
1.832043e+003, 3.898746e-003
1.833972e+003, 4.204825e-003
1.835900e+003, 4.409401e-003
1.837829e+003, 4.038659e-003
1.839757e+003, 4.233600e-003
1.841686e+003, 4.300009e-003
1.843614e+003, 3.685791e-003
1.845543e+003, 3.930433e-003
1.847471e+003, 4.629837e-003
1.849400e+003, 4.286588e-003
1.851328e+003, 4.113578e-003
1.853256e+003, 4.668736e-003
1.855185e+003, 4.804490e-003
1.857113e+003, 4.110068e-003
1.859042e+003, 3.707980e-003
1.860970e+003, 3.735873e-003
1.862899e+003, 4.008517e-003
1.864827e+003, 3.882610e-003
1.866756e+003, 4.236413e-003
1.868684e+003, 4.311648e-003
1.870613e+003, 4.165445e-003
1.872541e+003, 4.549742e-003
1.874470e+003, 4.613633e-003
1.876398e+003, 4.226100e-003
1.878327e+003, 4.692664e-003
1.880255e+003, 4.832880e-003
1.882183e+003, 4.806919e-003
1.884112e+003, 4.366835e-003
1.886040e+003, 3.962236e-003
1.887969e+003, 3.685342e-003
1.889897e+003, 4.318222e-003
1.891826e+003, 4.226959e-003
1.893754e+003, 4.242170e-003
1.895683e+003, 4.695322e-003
1.897611e+003, 4.498309e-003
1.899540e+003, 4.097306e-003
1.901468e+003, 3.999827e-003
1.903397e+003, 4.029708e-003
1.905325e+003, 4.352146e-003
1.907254e+003, 4.615021e-003
1.909182e+003, 4.353592e-003
1.911110e+003, 3.705429e-003
1.913039e+003, 4.578244e-003
1.914967e+003, 5.555022e-003
1.916896e+003, 5.245348e-003
1.918824e+003, 4.691359e-003
1.920753e+003, 4.992404e-003
1.922681e+003, 4.417923e-003
1.924610e+003, 3.977171e-003
1.926538e+003, 3.966199e-003
1.928467e+003, 4.019398e-003
1.930395e+003, 4.152093e-003
1.932324e+003, 4.485166e-003
1.934252e+003, 4.400375e-003
1.936181e+003, 3.853643e-003
1.938109e+003, 3.456094e-003
1.940037e+003, 4.047797e-003
1.941966e+003, 5.273426e-003
1.943894e+003, 6.526745e-003
1.945823e+003, 6.126329e-003
1.947751e+003, 5.072291e-003
1.949680e+003, 5.268109e-003
1.951608e+003, 6.308353e-003
1.953537e+003, 5.419453e-003
1.955465e+003, 4.327451e-003
1.957394e+003, 3.713381e-003
1.959322e+003, 3.553757e-003
1.961251e+003, 4.334844e-003
1.963179e+003, 5.092044e-003
1.965108e+003, 5.071488e-003
1.967036e+003, 6.091843e-003
1.968964e+003, 6.078951e-003
1.970893e+003, 5.188518e-003
1.972821e+003, 5.221449e-003
1.974750e+003, 4.697241e-003
1.976678e+003, 4.188705e-003
1.978607e+003, 7.138151e-003
1.980535e+003, 6.954062e-003
1.982464e+003, 6.423330e-003
1.984392e+003, 5.634729e-003
1.986321e+003, 4.793501e-003
1.988249e+003, 6.169021e-003
1.990178e+003, 6.904637e-003
1.992106e+003, 6.020478e-003
1.994035e+003, 5.205824e-003
1.995963e+003, 4.952988e-003
1.997891e+003, 5.338160e-003
1.999820e+003, 4.683540e-003
2.001748e+003, 3.699655e-003
2.003677e+003, 4.593211e-003
2.005605e+003, 4.564265e-003
2.007534e+003, 4.545691e-003
2.009462e+003, 5.356183e-003
2.011391e+003, 5.490080e-003
2.013319e+003, 4.798876e-003
2.015248e+003, 3.650570e-003
2.017176e+003, 4.207772e-003
2.019105e+003, 4.032115e-003
2.021033e+003, 3.208569e-003
2.022962e+003, 3.165550e-003
2.024890e+003, 4.646660e-003
2.026818e+003, 5.157941e-003
2.028747e+003, 6.082304e-003
2.030675e+003, 6.701414e-003
2.032604e+003, 6.907419e-003
2.034532e+003, 7.020675e-003
2.036461e+003, 6.070459e-003
2.038389e+003, 6.153580e-003
2.040318e+003, 6.792098e-003
2.042246e+003, 6.747713e-003
2.044175e+003, 6.334605e-003
2.046103e+003, 6.462436e-003
2.048032e+003, 6.417406e-003
2.049960e+003, 6.345316e-003
2.051889e+003, 5.778369e-003
2.053817e+003, 5.308254e-003
2.055746e+003, 5.621738e-003
2.057674e+003, 6.039050e-003
2.059603e+003, 6.607193e-003
2.061531e+003, 6.124753e-003
2.063459e+003, 6.402543e-003
2.065388e+003, 6.074951e-003
2.067316e+003, 5.478440e-003
2.069245e+003, 5.414739e-003
2.071173e+003, 5.802275e-003
2.073102e+003, 6.296125e-003
2.075030e+003, 6.585451e-003
2.076959e+003, 5.812206e-003
2.078887e+003, 5.302511e-003
2.080816e+003, 5.767477e-003
2.082744e+003, 6.815342e-003
2.084673e+003, 6.767915e-003
2.086601e+003, 6.174224e-003
2.088530e+003, 6.011503e-003
2.090458e+003, 5.564242e-003
2.092386e+003, 3.833979e-003
2.094315e+003, 3.701635e-003
2.096243e+003, 5.471523e-003
2.098172e+003, 6.431493e-003
2.100100e+003, 5.852937e-003
2.102029e+003, 6.332904e-003
2.103957e+003, 6.733875e-003
2.105886e+003, 6.297079e-003
2.107814e+003, 6.347373e-003
2.109743e+003, 7.320853e-003
2.111671e+003, 7.345865e-003
2.113600e+003, 7.215546e-003
2.115528e+003, 6.847433e-003
2.117457e+003, 6.073280e-003
2.119385e+003, 6.041455e-003
2.121313e+003, 6.607380e-003
2.123242e+003, 6.853309e-003
2.125170e+003, 5.806487e-003
2.127099e+003, 4.845174e-003
2.129027e+003, 4.706776e-003
2.130956e+003, 3.680710e-003
2.132884e+003, 3.153490e-003
2.134813e+003, 3.113572e-003
2.136741e+003, 3.282997e-003
2.138670e+003, 4.386818e-003
2.140598e+003, 4.181568e-003
2.142527e+003, 5.242183e-003
2.144455e+003, 6.539199e-003
2.146384e+003, 5.631132e-003
2.148312e+003, 4.934549e-003
2.150240e+003, 4.829363e-003
2.152169e+003, 5.150382e-003
2.154097e+003, 4.119923e-003
2.156026e+003, 2.051421e-003
2.157954e+003, 2.991056e-003
2.159883e+003, 8.339356e-003
2.161811e+003, 9.042561e-003
2.163740e+003, 8.898660e-003
2.165668e+003, 7.387931e-003
2.167597e+003, 5.376540e-003
2.169525e+003, 5.717702e-003
2.171454e+003, 6.465157e-003
2.173382e+003, 6.145310e-003
2.175311e+003, 5.855280e-003
2.177239e+003, 5.963349e-003
2.179167e+003, 5.342539e-003
2.181096e+003, 4.399071e-003
2.183024e+003, 6.667898e-003
2.184953e+003, 7.706410e-003
2.186881e+003, 7.203093e-003
2.188810e+003, 7.863791e-003
2.190738e+003, 7.274967e-003
2.192667e+003, 5.147938e-003
2.194595e+003, 6.155910e-003
2.196524e+003, 6.950593e-003
2.198452e+003, 7.334819e-003
2.200381e+003, 8.162244e-003
2.202309e+003, 7.788903e-003
2.204238e+003, 6.890145e-003
2.206166e+003, 7.360318e-003
2.208094e+003, 6.928747e-003
2.210023e+003, 6.154871e-003
2.211951e+003, 5.590219e-003
2.213880e+003, 6.717044e-003
2.215808e+003, 7.279137e-003
2.217737e+003, 7.343434e-003
2.219665e+003, 7.622507e-003
2.221594e+003, 7.984237e-003
2.223522e+003, 7.343724e-003
2.225451e+003, 7.323605e-003
2.227379e+003, 7.674100e-003
2.229308e+003, 7.575616e-003
2.231236e+003, 7.101077e-003
2.233165e+003, 7.499734e-003
2.235093e+003, 7.917524e-003
2.237021e+003, 7.739095e-003
2.238950e+003, 7.076947e-003
2.240878e+003, 7.052778e-003
2.242807e+003, 7.470784e-003
2.244735e+003, 7.473050e-003
2.246664e+003, 7.400496e-003
2.248592e+003, 7.269735e-003
2.250521e+003, 6.460262e-003
2.252449e+003, 7.218115e-003
2.254378e+003, 7.905026e-003
2.256306e+003, 7.591336e-003
2.258235e+003, 7.237680e-003
2.260163e+003, 7.419112e-003
2.262092e+003, 7.662948e-003
2.264020e+003, 7.161140e-003
2.265948e+003, 7.202270e-003
2.267877e+003, 8.387793e-003
2.269805e+003, 8.143074e-003
2.271734e+003, 7.769016e-003
2.273662e+003, 7.662551e-003
2.275591e+003, 8.905207e-003
2.277519e+003, 9.046345e-003
2.279448e+003, 8.413872e-003
2.281376e+003, 8.534128e-003
2.283305e+003, 9.710490e-003
2.285233e+003, 9.892691e-003
2.287162e+003, 9.540785e-003
2.289090e+003, 8.963973e-003
2.291019e+003, 8.727495e-003
2.292947e+003, 8.697035e-003
2.294875e+003, 8.022187e-003
2.296804e+003, 8.197517e-003
2.298732e+003, 8.878967e-003
2.300661e+003, 9.155571e-003
2.302589e+003, 9.341095e-003
2.304518e+003, 9.117364e-003
2.306446e+003, 9.246055e-003
2.308375e+003, 9.795009e-003
2.310303e+003, 9.822142e-003
2.312232e+003, 9.694089e-003
2.314160e+003, 9.694834e-003
2.316089e+003, 9.768385e-003
2.318017e+003, 9.865961e-003
2.319946e+003, 1.008051e-002
2.321874e+003, 1.058331e-002
2.323802e+003, 1.090372e-002
2.325731e+003, 1.016022e-002
2.327659e+003, 9.190765e-003
2.329588e+003, 9.186019e-003
2.331516e+003, 9.063752e-003
2.333445e+003, 8.826692e-003
2.335373e+003, 9.121219e-003
2.337302e+003, 9.396038e-003
2.339230e+003, 9.064346e-003
2.341159e+003, 8.972458e-003
2.343087e+003, 8.771189e-003
2.345016e+003, 8.768186e-003
2.346944e+003, 8.601624e-003
2.348873e+003, 8.377350e-003
2.350801e+003, 8.535579e-003
2.352729e+003, 8.741669e-003
2.354658e+003, 8.372871e-003
2.356586e+003, 8.335138e-003
2.358515e+003, 8.593477e-003
2.360443e+003, 9.056546e-003
2.362372e+003, 8.771227e-003
2.364300e+003, 8.177269e-003
2.366229e+003, 8.101387e-003
2.368157e+003, 8.463059e-003
2.370086e+003, 8.027650e-003
2.372014e+003, 7.862059e-003
2.373942e+003, 8.206178e-003
2.375871e+003, 8.431021e-003
2.377799e+003, 8.592046e-003
2.379728e+003, 8.761266e-003
2.381656e+003, 8.670294e-003
2.383585e+003, 8.595989e-003
2.385513e+003, 8.241992e-003
2.387442e+003, 8.000053e-003
2.389370e+003, 8.412256e-003
2.391299e+003, 8.389739e-003
2.393227e+003, 7.751545e-003
2.395156e+003, 7.569261e-003
2.397084e+003, 7.923194e-003
2.399012e+003, 7.946288e-003
2.400941e+003, 8.018749e-003
2.402869e+003, 8.028962e-003
2.404798e+003, 8.015250e-003
2.406726e+003, 8.307671e-003
2.408655e+003, 8.235521e-003
2.410583e+003, 8.752634e-003
2.412512e+003, 8.911752e-003
2.414440e+003, 8.596839e-003
2.416369e+003, 8.642386e-003
2.418297e+003, 8.630032e-003
2.420226e+003, 8.244198e-003
2.422154e+003, 8.223894e-003
2.424083e+003, 8.199208e-003
2.426011e+003, 8.563451e-003
2.427939e+003, 9.353504e-003
2.429868e+003, 9.323224e-003
2.431796e+003, 8.722754e-003
2.433725e+003, 8.577944e-003
2.435653e+003, 8.733415e-003
2.437582e+003, 8.976038e-003
2.439510e+003, 8.872840e-003
2.441439e+003, 8.921326e-003
2.443367e+003, 9.053016e-003
2.445296e+003, 9.166213e-003
2.447224e+003, 9.303475e-003
2.449153e+003, 9.777224e-003
2.451081e+003, 9.719627e-003
2.453010e+003, 9.566314e-003
2.454938e+003, 9.568009e-003
2.456866e+003, 9.499551e-003
2.458795e+003, 9.331052e-003
2.460723e+003, 9.660566e-003
2.462652e+003, 9.231315e-003
2.464580e+003, 9.701996e-003
2.466509e+003, 9.560310e-003
2.468437e+003, 9.239472e-003
2.470366e+003, 8.645970e-003
2.472294e+003, 8.720647e-003
2.474223e+003, 9.028592e-003
2.476151e+003, 9.416343e-003
2.478080e+003, 9.500009e-003
2.480008e+003, 1.043691e-002
2.481937e+003, 1.067105e-002
2.483865e+003, 1.080767e-002
2.485793e+003, 1.129929e-002
2.487722e+003, 1.198880e-002
2.489650e+003, 1.188277e-002
2.491579e+003, 1.284512e-002
2.493507e+003, 1.358662e-002
2.495436e+003, 1.368017e-002
2.497364e+003, 1.373465e-002
2.499293e+003, 1.460829e-002
2.501221e+003, 1.522810e-002
2.503150e+003, 1.568122e-002
2.505078e+003, 1.615588e-002
2.507007e+003, 1.708254e-002
2.508935e+003, 1.695177e-002
2.510864e+003, 1.675495e-002
2.512792e+003, 1.758693e-002
2.514720e+003, 1.790339e-002
2.516649e+003, 1.710050e-002
2.518577e+003, 1.660346e-002
2.520506e+003, 1.639917e-002
2.522434e+003, 1.613467e-002
2.524363e+003, 1.574516e-002
2.526291e+003, 1.542649e-002
2.528220e+003, 1.439208e-002
2.530148e+003, 1.385511e-002
2.532077e+003, 1.290663e-002
2.534005e+003, 1.206700e-002
2.535934e+003, 1.156601e-002
2.537862e+003, 1.082838e-002
2.539791e+003, 1.008716e-002
2.541719e+003, 1.038681e-002
2.543647e+003, 1.037178e-002
2.545576e+003, 9.805727e-003
2.547504e+003, 9.903569e-003
2.549433e+003, 1.015361e-002
2.551361e+003, 1.011691e-002
2.553290e+003, 1.057889e-002
2.555218e+003, 1.025528e-002
2.557147e+003, 1.011655e-002
2.559075e+003, 9.420765e-003
2.561004e+003, 8.754128e-003
2.562932e+003, 8.861125e-003
2.564861e+003, 9.806982e-003
2.566789e+003, 1.042187e-002
2.568718e+003, 1.038035e-002
2.570646e+003, 9.350658e-003
2.572574e+003, 9.531851e-003
2.574503e+003, 9.936922e-003
2.576431e+003, 1.031068e-002
2.578360e+003, 1.013560e-002
2.580288e+003, 9.116196e-003
2.582217e+003, 8.490789e-003
2.584145e+003, 8.742766e-003
2.586074e+003, 9.248789e-003
2.588002e+003, 9.570285e-003
2.589931e+003, 9.359851e-003
2.591859e+003, 9.622379e-003
2.593788e+003, 9.521773e-003
2.595716e+003, 8.939302e-003
2.597645e+003, 9.121064e-003
2.599573e+003, 1.036562e-002
2.601501e+003, 1.046368e-002
2.603430e+003, 1.036660e-002
2.605358e+003, 1.003784e-002
2.607287e+003, 9.537732e-003
2.609215e+003, 9.661586e-003
2.611144e+003, 9.765944e-003
2.613072e+003, 9.758703e-003
2.615001e+003, 9.648693e-003
2.616929e+003, 9.422404e-003
2.618858e+003, 9.373110e-003
2.620786e+003, 8.779642e-003
2.622715e+003, 7.978734e-003
2.624643e+003, 8.003605e-003
2.626572e+003, 8.437601e-003
2.628500e+003, 8.324538e-003
2.630428e+003, 8.380845e-003
2.632357e+003, 8.528547e-003
2.634285e+003, 8.460669e-003
2.636214e+003, 8.226594e-003
2.638142e+003, 8.815411e-003
2.640071e+003, 9.212243e-003
2.641999e+003, 9.294073e-003
2.643928e+003, 9.098629e-003
2.645856e+003, 8.768030e-003
2.647785e+003, 8.443282e-003
2.649713e+003, 8.327823e-003
2.651642e+003, 8.917280e-003
2.653570e+003, 9.435904e-003
2.655499e+003, 8.857802e-003
2.657427e+003, 8.185290e-003
2.659355e+003, 8.133536e-003
2.661284e+003, 8.318463e-003
2.663212e+003, 8.182876e-003
2.665141e+003, 7.906171e-003
2.667069e+003, 7.900657e-003
2.668998e+003, 8.210164e-003
2.670926e+003, 8.273923e-003
2.672855e+003, 8.323341e-003
2.674783e+003, 7.678570e-003
2.676712e+003, 7.583669e-003
2.678640e+003, 7.504356e-003
2.680569e+003, 7.468230e-003
2.682497e+003, 7.787033e-003
2.684426e+003, 8.122453e-003
2.686354e+003, 7.641257e-003
2.688282e+003, 7.388222e-003
2.690211e+003, 7.348774e-003
2.692139e+003, 7.009244e-003
2.694068e+003, 7.306523e-003
2.695996e+003, 8.010476e-003
2.697925e+003, 7.863501e-003
2.699853e+003, 7.832073e-003
2.701782e+003, 7.514076e-003
2.703710e+003, 7.724192e-003
2.705639e+003, 7.651682e-003
2.707567e+003, 7.457613e-003
2.709496e+003, 7.185786e-003
2.711424e+003, 7.106878e-003
2.713353e+003, 7.390203e-003
2.715281e+003, 7.697194e-003
2.717209e+003, 7.342258e-003
2.719138e+003, 7.461840e-003
2.721066e+003, 7.904221e-003
2.722995e+003, 8.665221e-003
2.724923e+003, 8.598576e-003
2.726852e+003, 8.349227e-003
2.728780e+003, 7.903684e-003
2.730709e+003, 7.470116e-003
2.732637e+003, 7.256901e-003
2.734566e+003, 7.194779e-003
2.736494e+003, 7.181728e-003
2.738423e+003, 7.650884e-003
2.740351e+003, 7.597532e-003
2.742280e+003, 7.593566e-003
2.744208e+003, 7.476233e-003
2.746136e+003, 7.453273e-003
2.748065e+003, 7.709591e-003
2.749993e+003, 7.771580e-003
2.751922e+003, 7.616275e-003
2.753850e+003, 7.453472e-003
2.755779e+003, 7.468871e-003
2.757707e+003, 7.500336e-003
2.759636e+003, 7.371431e-003
2.761564e+003, 7.161988e-003
2.763493e+003, 7.237071e-003
2.765421e+003, 8.071893e-003
2.767350e+003, 7.534152e-003
2.769278e+003, 6.800595e-003
2.771207e+003, 7.332871e-003
2.773135e+003, 7.289817e-003
2.775063e+003, 7.182644e-003
2.776992e+003, 7.431453e-003
2.778920e+003, 7.282808e-003
2.780849e+003, 7.104551e-003
2.782777e+003, 7.129193e-003
2.784706e+003, 7.374340e-003
2.786634e+003, 7.204252e-003
2.788563e+003, 6.818305e-003
2.790491e+003, 6.195412e-003
2.792420e+003, 6.403694e-003
2.794348e+003, 7.185590e-003
2.796277e+003, 7.291030e-003
2.798205e+003, 7.223947e-003
2.800134e+003, 7.105180e-003
2.802062e+003, 6.755403e-003
2.803990e+003, 6.572768e-003
2.805919e+003, 6.668487e-003
2.807847e+003, 7.229319e-003
2.809776e+003, 7.404753e-003
2.811704e+003, 7.626984e-003
2.813633e+003, 8.242588e-003
2.815561e+003, 8.858733e-003
2.817490e+003, 8.361084e-003
2.819418e+003, 7.761388e-003
2.821347e+003, 7.114513e-003
2.823275e+003, 7.198737e-003
2.825204e+003, 7.769816e-003
2.827132e+003, 8.467842e-003
2.829061e+003, 8.664098e-003
2.830989e+003, 8.515824e-003
2.832917e+003, 8.845177e-003
2.834846e+003, 9.280103e-003
2.836774e+003, 8.912173e-003
2.838703e+003, 9.149224e-003
2.840631e+003, 9.396332e-003
2.842560e+003, 9.614396e-003
2.844488e+003, 1.031181e-002
2.846417e+003, 1.063601e-002
2.848345e+003, 1.129114e-002
2.850274e+003, 1.184071e-002
2.852202e+003, 1.120031e-002
2.854131e+003, 1.151873e-002
2.856059e+003, 1.192656e-002
2.857988e+003, 1.226764e-002
2.859916e+003, 1.235466e-002
2.861844e+003, 1.242294e-002
2.863773e+003, 1.139083e-002
2.865701e+003, 1.120638e-002
2.867630e+003, 1.130371e-002
2.869558e+003, 1.179663e-002
2.871487e+003, 1.214131e-002
2.873415e+003, 1.201191e-002
2.875344e+003, 1.194873e-002
2.877272e+003, 1.226851e-002
2.879201e+003, 1.246748e-002
2.881129e+003, 1.154741e-002
2.883058e+003, 1.036528e-002
2.884986e+003, 1.049452e-002
2.886915e+003, 1.045580e-002
2.888843e+003, 1.040881e-002
2.890771e+003, 1.074928e-002
2.892700e+003, 1.093047e-002
2.894628e+003, 1.075841e-002
2.896557e+003, 1.145337e-002
2.898485e+003, 1.161309e-002
2.900414e+003, 1.127353e-002
2.902342e+003, 1.092020e-002
2.904271e+003, 1.109994e-002
2.906199e+003, 1.137116e-002
2.908128e+003, 1.111459e-002
2.910056e+003, 1.101155e-002
2.911985e+003, 1.130533e-002
2.913913e+003, 1.153795e-002
2.915842e+003, 1.090166e-002
2.917770e+003, 1.151703e-002
2.919698e+003, 1.282932e-002
2.921627e+003, 1.308882e-002
2.923555e+003, 1.304311e-002
2.925484e+003, 1.281377e-002
2.927412e+003, 1.272945e-002
2.929341e+003, 1.269821e-002
2.931269e+003, 1.257229e-002
2.933198e+003, 1.208482e-002
2.935126e+003, 1.306147e-002
2.937055e+003, 1.325756e-002
2.938983e+003, 1.238771e-002
2.940912e+003, 1.190065e-002
2.942840e+003, 1.181117e-002
2.944769e+003, 1.200685e-002
2.946697e+003, 1.221663e-002
2.948625e+003, 1.164446e-002
2.950554e+003, 1.189722e-002
2.952482e+003, 1.205755e-002
2.954411e+003, 1.219678e-002
2.956339e+003, 1.209877e-002
2.958268e+003, 1.193971e-002
2.960196e+003, 1.162317e-002
2.962125e+003, 1.265202e-002
2.964053e+003, 1.229924e-002
2.965982e+003, 1.164917e-002
2.967910e+003, 1.208012e-002
2.969839e+003, 1.243257e-002
2.971767e+003, 1.183500e-002
2.973696e+003, 1.269499e-002
2.975624e+003, 1.304835e-002
2.977552e+003, 1.172535e-002
2.979481e+003, 1.152200e-002
2.981409e+003, 1.255737e-002
2.983338e+003, 1.248619e-002
2.985266e+003, 1.177867e-002
2.987195e+003, 1.153162e-002
2.989123e+003, 1.135538e-002
2.991052e+003, 1.071250e-002
2.992980e+003, 1.132712e-002
2.994909e+003, 1.195422e-002
2.996837e+003, 1.089465e-002
2.998766e+003, 1.115810e-002
3.000694e+003, 1.175623e-002
3.002623e+003, 1.123509e-002
3.004551e+003, 1.054377e-002
3.006479e+003, 1.100456e-002
3.008408e+003, 1.111453e-002
3.010336e+003, 1.167267e-002
3.012265e+003, 1.244520e-002
3.014193e+003, 1.232255e-002
3.016122e+003, 1.122206e-002
3.018050e+003, 1.022512e-002
3.019979e+003, 1.032939e-002
3.021907e+003, 1.076527e-002
3.023836e+003, 1.147422e-002
3.025764e+003, 1.176969e-002
3.027693e+003, 1.213467e-002
3.029621e+003, 1.281669e-002
3.031550e+003, 1.316211e-002
3.033478e+003, 1.233400e-002
3.035406e+003, 1.205764e-002
3.037335e+003, 1.215145e-002
3.039263e+003, 1.187639e-002
3.041192e+003, 1.119135e-002
3.043120e+003, 1.136662e-002
3.045049e+003, 1.178835e-002
3.046977e+003, 1.183942e-002
3.048906e+003, 1.154494e-002
3.050834e+003, 1.185363e-002
3.052763e+003, 1.237528e-002
3.054691e+003, 1.226883e-002
3.056620e+003, 1.262412e-002
3.058548e+003, 1.226277e-002
3.060477e+003, 1.204016e-002
3.062405e+003, 1.210445e-002
3.064333e+003, 1.193992e-002
3.066262e+003, 1.248223e-002
3.068190e+003, 1.300223e-002
3.070119e+003, 1.285388e-002
3.072047e+003, 1.267004e-002
3.073976e+003, 1.327354e-002
3.075904e+003, 1.286427e-002
3.077833e+003, 1.250619e-002
3.079761e+003, 1.191313e-002
3.081690e+003, 1.156163e-002
3.083618e+003, 1.225451e-002
3.085547e+003, 1.381307e-002
3.087475e+003, 1.369178e-002
3.089404e+003, 1.359823e-002
3.091332e+003, 1.389132e-002
3.093260e+003, 1.419855e-002
3.095189e+003, 1.439889e-002
3.097117e+003, 1.435853e-002
3.099046e+003, 1.412455e-002
3.100974e+003, 1.395173e-002
3.102903e+003, 1.463863e-002
3.104831e+003, 1.502395e-002
3.106760e+003, 1.433351e-002
3.108688e+003, 1.419570e-002
3.110617e+003, 1.385814e-002
3.112545e+003, 1.401068e-002
3.114474e+003, 1.463371e-002
3.116402e+003, 1.490378e-002
3.118331e+003, 1.482628e-002
3.120259e+003, 1.489939e-002
3.122188e+003, 1.455670e-002
3.124116e+003, 1.496909e-002
3.126044e+003, 1.492615e-002
3.127973e+003, 1.537958e-002
3.129901e+003, 1.546956e-002
3.131830e+003, 1.531511e-002
3.133758e+003, 1.522325e-002
3.135687e+003, 1.617916e-002
3.137615e+003, 1.605913e-002
3.139544e+003, 1.486818e-002
3.141472e+003, 1.482839e-002
3.143401e+003, 1.551877e-002
3.145329e+003, 1.577864e-002
3.147258e+003, 1.550702e-002
3.149186e+003, 1.447622e-002
3.151115e+003, 1.465425e-002
3.153043e+003, 1.517886e-002
3.154971e+003, 1.520455e-002
3.156900e+003, 1.506260e-002
3.158828e+003, 1.489323e-002
3.160757e+003, 1.420438e-002
3.162685e+003, 1.400866e-002
3.164614e+003, 1.452703e-002
3.166542e+003, 1.614804e-002
3.168471e+003, 1.673999e-002
3.170399e+003, 1.615483e-002
3.172328e+003, 1.580672e-002
3.174256e+003, 1.612863e-002
3.176185e+003, 1.587431e-002
3.178113e+003, 1.606635e-002
3.180042e+003, 1.616963e-002
3.181970e+003, 1.495282e-002
3.183898e+003, 1.537221e-002
3.185827e+003, 1.667628e-002
3.187755e+003, 1.686792e-002
3.189684e+003, 1.702444e-002
3.191612e+003, 1.640061e-002
3.193541e+003, 1.617546e-002
3.195469e+003, 1.656639e-002
3.197398e+003, 1.702293e-002
3.199326e+003, 1.626837e-002
3.201255e+003, 1.487101e-002
3.203183e+003, 1.430218e-002
3.205112e+003, 1.523376e-002
3.207040e+003, 1.626217e-002
3.208969e+003, 1.633715e-002
3.210897e+003, 1.635360e-002
3.212825e+003, 1.601253e-002
3.214754e+003, 1.594024e-002
3.216682e+003, 1.683261e-002
3.218611e+003, 1.570874e-002
3.220539e+003, 1.411519e-002
3.222468e+003, 1.447390e-002
3.224396e+003, 1.613407e-002
3.226325e+003, 1.634289e-002
3.228253e+003, 1.621982e-002
3.230182e+003, 1.569655e-002
3.232110e+003, 1.544985e-002
3.234039e+003, 1.569285e-002
3.235967e+003, 1.629747e-002
3.237896e+003, 1.648187e-002
3.239824e+003, 1.561598e-002
3.241752e+003, 1.559743e-002
3.243681e+003, 1.667535e-002
3.245609e+003, 1.681075e-002
3.247538e+003, 1.702183e-002
3.249466e+003, 1.788980e-002
3.251395e+003, 1.761946e-002
3.253323e+003, 1.624685e-002
3.255252e+003, 1.569322e-002
3.257180e+003, 1.663857e-002
3.259109e+003, 1.764276e-002
3.261037e+003, 1.731272e-002
3.262966e+003, 1.707118e-002
3.264894e+003, 1.758734e-002
3.266823e+003, 1.778957e-002
3.268751e+003, 1.640005e-002
3.270679e+003, 1.562763e-002
3.272608e+003, 1.625092e-002
3.274536e+003, 1.704444e-002
3.276465e+003, 1.666595e-002
3.278393e+003, 1.596775e-002
3.280322e+003, 1.610577e-002
3.282250e+003, 1.786200e-002
3.284179e+003, 1.812963e-002
3.286107e+003, 1.836851e-002
3.288036e+003, 1.826465e-002
3.289964e+003, 1.758262e-002
3.291893e+003, 1.744447e-002
3.293821e+003, 1.783245e-002
3.295750e+003, 1.795913e-002
3.297678e+003, 1.796198e-002
3.299606e+003, 1.765563e-002
3.301535e+003, 1.739542e-002
3.303463e+003, 1.665533e-002
3.305392e+003, 1.583377e-002
3.307320e+003, 1.541988e-002
3.309249e+003, 1.628364e-002
3.311177e+003, 1.621484e-002
3.313106e+003, 1.639392e-002
3.315034e+003, 1.672237e-002
3.316963e+003, 1.760719e-002
3.318891e+003, 1.834595e-002
3.320820e+003, 1.846608e-002
3.322748e+003, 1.649897e-002
3.324677e+003, 1.661651e-002
3.326605e+003, 1.803546e-002
3.328533e+003, 1.767718e-002
3.330462e+003, 1.732893e-002
3.332390e+003, 1.789790e-002
3.334319e+003, 1.692793e-002
3.336247e+003, 1.696789e-002
3.338176e+003, 1.742841e-002
3.340104e+003, 1.680761e-002
3.342033e+003, 1.639743e-002
3.343961e+003, 1.771295e-002
3.345890e+003, 1.800561e-002
3.347818e+003, 1.663597e-002
3.349747e+003, 1.625869e-002
3.351675e+003, 1.829480e-002
3.353604e+003, 1.761525e-002
3.355532e+003, 1.645167e-002
3.357460e+003, 1.698312e-002
3.359389e+003, 1.652620e-002
3.361317e+003, 1.652229e-002
3.363246e+003, 1.674743e-002
3.365174e+003, 1.707834e-002
3.367103e+003, 1.750503e-002
3.369031e+003, 1.839156e-002
3.370960e+003, 1.860830e-002
3.372888e+003, 1.766333e-002
3.374817e+003, 1.737626e-002
3.376745e+003, 1.769931e-002
3.378674e+003, 1.794004e-002
3.380602e+003, 1.714748e-002
3.382531e+003, 1.732361e-002
3.384459e+003, 1.755506e-002
3.386387e+003, 1.772821e-002
3.388316e+003, 1.714771e-002
3.390244e+003, 1.723719e-002
3.392173e+003, 1.719346e-002
3.394101e+003, 1.780472e-002
3.396030e+003, 1.904314e-002
3.397958e+003, 1.951234e-002
3.399887e+003, 1.768411e-002
3.401815e+003, 1.714164e-002
3.403744e+003, 1.719023e-002
3.405672e+003, 1.593136e-002
3.407601e+003, 1.541678e-002
3.409529e+003, 1.673237e-002
3.411458e+003, 1.860988e-002
3.413386e+003, 1.883790e-002
3.415314e+003, 1.748791e-002
3.417243e+003, 1.592452e-002
3.419171e+003, 1.646806e-002
3.421100e+003, 1.860111e-002
3.423028e+003, 1.890573e-002
3.424957e+003, 1.801543e-002
3.426885e+003, 1.738402e-002
3.428814e+003, 1.791665e-002
3.430742e+003, 1.740155e-002
3.432671e+003, 1.774716e-002
3.434599e+003, 1.899975e-002
3.436528e+003, 1.897224e-002
3.438456e+003, 1.788714e-002
3.440385e+003, 1.729750e-002
3.442313e+003, 1.765450e-002
3.444241e+003, 1.876708e-002
3.446170e+003, 1.782369e-002
3.448098e+003, 1.700242e-002
3.450027e+003, 1.774065e-002
3.451955e+003, 1.830621e-002
3.453884e+003, 1.826524e-002
3.455812e+003, 1.792853e-002
3.457741e+003, 1.707133e-002
3.459669e+003, 1.627987e-002
3.461598e+003, 1.731428e-002
3.463526e+003, 1.854833e-002
3.465455e+003, 1.872274e-002
3.467383e+003, 1.904306e-002
3.469312e+003, 1.848857e-002
3.471240e+003, 1.928794e-002
3.473168e+003, 1.895486e-002
3.475097e+003, 1.861571e-002
3.477025e+003, 1.898724e-002
3.478954e+003, 1.870199e-002
3.480882e+003, 1.791170e-002
3.482811e+003, 1.792564e-002
3.484739e+003, 1.822903e-002
3.486668e+003, 1.788380e-002
3.488596e+003, 1.700200e-002
3.490525e+003, 1.751218e-002
3.492453e+003, 1.642032e-002
3.494382e+003, 1.665492e-002
3.496310e+003, 1.771855e-002
3.498239e+003, 1.767239e-002
3.500167e+003, 1.745851e-002
3.502095e+003, 1.762887e-002
3.504024e+003, 1.743346e-002
3.505952e+003, 1.763157e-002
3.507881e+003, 1.846945e-002
3.509809e+003, 1.898489e-002
3.511738e+003, 1.844475e-002
3.513666e+003, 1.811908e-002
3.515595e+003, 1.800408e-002
3.517523e+003, 1.789266e-002
3.519452e+003, 1.709479e-002
3.521380e+003, 1.649520e-002
3.523309e+003, 1.516999e-002
3.525237e+003, 1.756415e-002
3.527166e+003, 1.858023e-002
3.529094e+003, 1.709579e-002
3.531022e+003, 1.648634e-002
3.532951e+003, 1.665575e-002
3.534879e+003, 1.798510e-002
3.536808e+003, 1.972527e-002
3.538736e+003, 1.883343e-002
3.540665e+003, 1.788278e-002
3.542593e+003, 1.734933e-002
3.544522e+003, 1.857637e-002
3.546450e+003, 1.939869e-002
3.548379e+003, 1.850105e-002
3.550307e+003, 1.764691e-002
3.552236e+003, 1.721173e-002
3.554164e+003, 1.730140e-002
3.556093e+003, 1.846504e-002
3.558021e+003, 1.972310e-002
3.559949e+003, 1.932450e-002
3.561878e+003, 1.833975e-002
3.563806e+003, 1.822870e-002
3.565735e+003, 1.638835e-002
3.567663e+003, 1.691045e-002
3.569592e+003, 1.871723e-002
3.571520e+003, 1.931429e-002
3.573449e+003, 1.960923e-002
3.575377e+003, 2.029668e-002
3.577306e+003, 1.925453e-002
3.579234e+003, 1.779888e-002
3.581163e+003, 1.721849e-002
3.583091e+003, 1.775746e-002
3.585020e+003, 1.701072e-002
3.586948e+003, 1.658201e-002
3.588876e+003, 1.700412e-002
3.590805e+003, 1.833306e-002
3.592733e+003, 1.850690e-002
3.594662e+003, 1.807354e-002
3.596590e+003, 1.726084e-002
3.598519e+003, 1.642504e-002
3.600447e+003, 1.628483e-002
3.602376e+003, 1.933603e-002
3.604304e+003, 2.008424e-002
3.606233e+003, 1.784825e-002
3.608161e+003, 1.770621e-002
3.610090e+003, 1.673531e-002
3.612018e+003, 1.544088e-002
3.613947e+003, 1.719493e-002
3.615875e+003, 1.747075e-002
3.617803e+003, 1.604552e-002
3.619732e+003, 1.570342e-002
3.621660e+003, 1.681669e-002
3.623589e+003, 1.774933e-002
3.625517e+003, 1.821729e-002
3.627446e+003, 1.799664e-002
3.629374e+003, 1.869117e-002
3.631303e+003, 1.732752e-002
3.633231e+003, 1.808047e-002
3.635160e+003, 1.835366e-002
3.637088e+003, 1.634302e-002
3.639017e+003, 1.742527e-002
3.640945e+003, 2.012477e-002
3.642874e+003, 1.823167e-002
3.644802e+003, 1.682376e-002
3.646730e+003, 1.736056e-002
3.648659e+003, 1.705578e-002
3.650587e+003, 1.597533e-002
3.652516e+003, 1.610665e-002
3.654444e+003, 1.764599e-002
3.656373e+003, 1.942323e-002
3.658301e+003, 1.924406e-002
3.660230e+003, 1.710357e-002
3.662158e+003, 1.574281e-002
3.664087e+003, 1.734412e-002
3.666015e+003, 1.927576e-002
3.667944e+003, 1.884561e-002
3.669872e+003, 1.718015e-002
3.671801e+003, 1.663560e-002
3.673729e+003, 1.749207e-002
3.675657e+003, 1.846722e-002
3.677586e+003, 1.944616e-002
3.679514e+003, 2.040047e-002
3.681443e+003, 1.816135e-002
3.683371e+003, 1.566858e-002
3.685300e+003, 1.698272e-002
3.687228e+003, 1.901088e-002
3.689157e+003, 1.933637e-002
3.691085e+003, 2.079881e-002
3.693014e+003, 2.013168e-002
3.694942e+003, 1.886536e-002
3.696871e+003, 1.846536e-002
3.698799e+003, 1.752383e-002
3.700728e+003, 1.805690e-002
3.702656e+003, 1.836766e-002
3.704584e+003, 1.689754e-002
3.706513e+003, 1.672963e-002
3.708441e+003, 1.877242e-002
3.710370e+003, 2.047802e-002
3.712298e+003, 1.880629e-002
3.714227e+003, 1.757552e-002
3.716155e+003, 1.782251e-002
3.718084e+003, 1.874405e-002
3.720012e+003, 1.933794e-002
3.721941e+003, 1.841542e-002
3.723869e+003, 1.565954e-002
3.725798e+003, 1.599563e-002
3.727726e+003, 1.647022e-002
3.729655e+003, 1.633118e-002
3.731583e+003, 1.815329e-002
3.733511e+003, 1.990117e-002
3.735440e+003, 1.951340e-002
3.737368e+003, 1.804965e-002
3.739297e+003, 1.787726e-002
3.741225e+003, 1.945854e-002
3.743154e+003, 1.842174e-002
3.745082e+003, 1.735489e-002
3.747011e+003, 1.892421e-002
3.748939e+003, 1.901253e-002
3.750868e+003, 1.893043e-002
3.752796e+003, 2.025515e-002
3.754725e+003, 2.045809e-002
3.756653e+003, 1.945752e-002
3.758582e+003, 1.820012e-002
3.760510e+003, 1.863781e-002
3.762438e+003, 1.802876e-002
3.764367e+003, 1.768363e-002
3.766295e+003, 1.898320e-002
3.768224e+003, 1.847138e-002
3.770152e+003, 1.809829e-002
3.772081e+003, 1.916470e-002
3.774009e+003, 1.843330e-002
3.775938e+003, 1.694328e-002
3.777866e+003, 1.916107e-002
3.779795e+003, 2.104421e-002
3.781723e+003, 2.030528e-002
3.783652e+003, 2.134231e-002
3.785580e+003, 2.165489e-002
3.787509e+003, 1.983567e-002
3.789437e+003, 1.922354e-002
3.791365e+003, 1.937441e-002
3.793294e+003, 1.956106e-002
3.795222e+003, 1.992898e-002
3.797151e+003, 1.912758e-002
3.799079e+003, 2.045954e-002
3.801008e+003, 2.131693e-002
3.802936e+003, 2.015460e-002
3.804865e+003, 1.870491e-002
3.806793e+003, 1.847473e-002
3.808722e+003, 1.829856e-002
3.810650e+003, 2.091169e-002
3.812579e+003, 2.147884e-002
3.814507e+003, 2.083151e-002
3.816436e+003, 2.129531e-002
3.818364e+003, 2.178451e-002
3.820292e+003, 2.101147e-002
3.822221e+003, 2.074793e-002
3.824149e+003, 2.066419e-002
3.826078e+003, 2.040132e-002
3.828006e+003, 2.057836e-002
3.829935e+003, 1.947653e-002
3.831863e+003, 1.956026e-002
3.833792e+003, 2.033576e-002
3.835720e+003, 2.039870e-002
3.837649e+003, 2.041448e-002
3.839577e+003, 2.001929e-002
3.841506e+003, 2.155908e-002
3.843434e+003, 2.316986e-002
3.845363e+003, 2.074961e-002
3.847291e+003, 1.971590e-002
3.849219e+003, 2.196747e-002
3.851148e+003, 2.266952e-002
3.853076e+003, 2.045137e-002
3.855005e+003, 1.989577e-002
3.856933e+003, 2.166808e-002
3.858862e+003, 2.144749e-002
3.860790e+003, 2.064789e-002
3.862719e+003, 1.947054e-002
3.864647e+003, 1.880235e-002
3.866576e+003, 1.680789e-002
3.868504e+003, 1.753350e-002
3.870433e+003, 1.926368e-002
3.872361e+003, 2.032755e-002
3.874290e+003, 2.017536e-002
3.876218e+003, 2.003302e-002
3.878146e+003, 2.007918e-002
3.880075e+003, 1.946104e-002
3.882003e+003, 2.030195e-002
3.883932e+003, 2.219832e-002
3.885860e+003, 2.092702e-002
3.887789e+003, 2.029548e-002
3.889717e+003, 1.964393e-002
3.891646e+003, 1.812444e-002
3.893574e+003, 1.770715e-002
3.895503e+003, 1.936709e-002
3.897431e+003, 2.097908e-002
3.899360e+003, 2.249965e-002
3.901288e+003, 2.296841e-002
3.903217e+003, 2.199982e-002
3.905145e+003, 2.194194e-002
3.907073e+003, 2.235142e-002
3.909002e+003, 1.907339e-002
3.910930e+003, 1.917056e-002
3.912859e+003, 2.064404e-002
3.914787e+003, 2.152969e-002
3.916716e+003, 2.157476e-002
3.918644e+003, 2.150635e-002
3.920573e+003, 2.005757e-002
3.922501e+003, 1.897326e-002
3.924430e+003, 2.201409e-002
3.926358e+003, 2.431316e-002
3.928287e+003, 2.095100e-002
3.930215e+003, 2.019552e-002
3.932144e+003, 2.304296e-002
3.934072e+003, 2.297087e-002
3.936000e+003, 2.166167e-002
3.937929e+003, 2.032566e-002
3.939857e+003, 2.016797e-002
3.941786e+003, 2.261607e-002
3.943714e+003, 2.220744e-002
3.945643e+003, 2.210846e-002
3.947571e+003, 2.037621e-002
3.949500e+003, 1.831240e-002
3.951428e+003, 1.822609e-002
3.953357e+003, 1.987994e-002
3.955285e+003, 2.091788e-002
3.957214e+003, 2.218834e-002
3.959142e+003, 2.334719e-002
3.961071e+003, 2.289162e-002
3.962999e+003, 2.155117e-002
3.964927e+003, 2.073820e-002
3.966856e+003, 2.199342e-002
3.968784e+003, 2.304936e-002
3.970713e+003, 2.245988e-002
3.972641e+003, 2.247287e-002
3.974570e+003, 2.212965e-002
3.976498e+003, 2.182829e-002
3.978427e+003, 1.910811e-002
3.980355e+003, 1.750980e-002
3.982284e+003, 1.870278e-002
3.984212e+003, 2.088433e-002
3.986141e+003, 2.153182e-002
3.988069e+003, 2.084795e-002
3.989998e+003, 2.080661e-002
3.991926e+003, 2.211281e-002
3.993854e+003, 2.201791e-002
3.995783e+003, 1.961155e-002
3.997711e+003, 1.960849e-002
3.999640e+003, 1.961795e-002
##END=



