##NAMES=Calcite
##RRUFFID=R050048
##IDEAL CHEMISTRY=CaCO_3_
##LOCALITY=Magdalena, New Mexico, USA
##OWNER=RRUFF
##SOURCE=University of Arizona Mineral Museum
##DESCRIPTION=Colorless massive
##STATUS=The identification of this mineral has been confirmed by X-ray diffraction and chemical analysis
##URL=rruff.info/R050048
##MEASURED CHEMISTRY=(Ca_0.99_Zn_0.01_)CO_3_
3.991926e+002, 0.000000e+000
4.011211e+002, 2.434231e-002
4.030496e+002, 2.440185e-002
4.049780e+002, 2.255727e-002
4.069065e+002, 2.278228e-002
4.088350e+002, 2.249368e-002
4.107634e+002, 2.111479e-002
4.126919e+002, 1.951397e-002
4.146204e+002, 1.826734e-002
4.165488e+002, 1.825847e-002
4.184773e+002, 1.905932e-002
4.204058e+002, 1.933332e-002
4.223342e+002, 1.951917e-002
4.242627e+002, 1.940669e-002
4.261912e+002, 1.804936e-002
4.281196e+002, 1.738705e-002
4.300481e+002, 1.737799e-002
4.319766e+002, 1.654604e-002
4.339050e+002, 1.624589e-002
4.358335e+002, 1.695562e-002
4.377620e+002, 1.613787e-002
4.396904e+002, 1.387455e-002
4.416189e+002, 1.313391e-002
4.435474e+002, 1.330926e-002
4.454758e+002, 1.357739e-002
4.474043e+002, 1.380680e-002
4.493328e+002, 1.415990e-002
4.512612e+002, 1.413919e-002
4.531897e+002, 1.357980e-002
4.551182e+002, 1.310901e-002
4.570466e+002, 1.293910e-002
4.589751e+002, 1.254541e-002
4.609036e+002, 1.283910e-002
4.628320e+002, 1.189815e-002
4.647605e+002, 1.075356e-002
4.666890e+002, 1.077895e-002
4.686174e+002, 1.139046e-002
4.705459e+002, 1.125280e-002
4.724744e+002, 1.101195e-002
4.744028e+002, 1.095085e-002
4.763313e+002, 1.117867e-002
4.782598e+002, 1.078749e-002
4.801882e+002, 1.002523e-002
4.821167e+002, 1.012754e-002
4.840452e+002, 1.018910e-002
4.859736e+002, 1.020709e-002
4.879021e+002, 9.957687e-003
4.898306e+002, 9.872616e-003
4.917590e+002, 9.848861e-003
4.936875e+002, 9.992152e-003
4.956160e+002, 9.760048e-003
4.975444e+002, 9.225936e-003
4.994729e+002, 9.147253e-003
5.014014e+002, 9.405622e-003
5.033298e+002, 9.302309e-003
5.052583e+002, 9.047052e-003
5.071868e+002, 8.714561e-003
5.091152e+002, 8.450563e-003
5.110437e+002, 7.844264e-003
5.129722e+002, 7.619322e-003
5.149006e+002, 8.059639e-003
5.168291e+002, 8.000906e-003
5.187576e+002, 7.956871e-003
5.206860e+002, 7.640194e-003
5.226145e+002, 7.478654e-003
5.245430e+002, 7.657160e-003
5.264714e+002, 7.505050e-003
5.283999e+002, 7.103025e-003
5.303284e+002, 6.889085e-003
5.322568e+002, 6.933276e-003
5.341853e+002, 6.942258e-003
5.361138e+002, 6.612904e-003
5.380422e+002, 6.808931e-003
5.399707e+002, 7.014930e-003
5.418992e+002, 6.689576e-003
5.438276e+002, 6.334151e-003
5.457561e+002, 6.284888e-003
5.476846e+002, 6.222567e-003
5.496130e+002, 6.000008e-003
5.515415e+002, 6.234237e-003
5.534700e+002, 6.384329e-003
5.553984e+002, 6.205503e-003
5.573269e+002, 5.991469e-003
5.592554e+002, 5.887432e-003
5.611838e+002, 5.894056e-003
5.631123e+002, 6.107069e-003
5.650408e+002, 6.445557e-003
5.669692e+002, 6.207827e-003
5.688977e+002, 6.116650e-003
5.708262e+002, 5.733868e-003
5.727546e+002, 5.750965e-003
5.746831e+002, 5.938346e-003
5.766116e+002, 5.740911e-003
5.785400e+002, 5.851724e-003
5.804685e+002, 6.177192e-003
5.823970e+002, 6.310977e-003
5.843254e+002, 6.359582e-003
5.862539e+002, 6.171251e-003
5.881824e+002, 6.182405e-003
5.901108e+002, 6.485523e-003
5.920393e+002, 6.799746e-003
5.939678e+002, 6.723958e-003
5.958962e+002, 6.568696e-003
5.978247e+002, 6.404656e-003
5.997532e+002, 6.364922e-003
6.016816e+002, 6.422956e-003
6.036101e+002, 6.640292e-003
6.055386e+002, 6.741215e-003
6.074670e+002, 6.353921e-003
6.093955e+002, 6.001902e-003
6.113240e+002, 5.712411e-003
6.132524e+002, 5.953481e-003
6.151809e+002, 5.983764e-003
6.171094e+002, 5.755566e-003
6.190378e+002, 5.982317e-003
6.209663e+002, 6.208340e-003
6.228948e+002, 6.028353e-003
6.248232e+002, 5.900107e-003
6.267517e+002, 5.979928e-003
6.286802e+002, 5.901834e-003
6.306086e+002, 5.897511e-003
6.325371e+002, 5.828926e-003
6.344656e+002, 5.902696e-003
6.363940e+002, 5.980353e-003
6.383225e+002, 5.946254e-003
6.402510e+002, 6.047256e-003
6.421794e+002, 6.156744e-003
6.441079e+002, 6.241451e-003
6.460364e+002, 6.435120e-003
6.479648e+002, 6.241835e-003
6.498933e+002, 6.260533e-003
6.518218e+002, 6.710719e-003
6.537502e+002, 6.798645e-003
6.556787e+002, 6.398139e-003
6.576072e+002, 6.121112e-003
6.595356e+002, 6.174934e-003
6.614641e+002, 6.429880e-003
6.633926e+002, 6.484649e-003
6.653210e+002, 6.426633e-003
6.672495e+002, 6.458089e-003
6.691780e+002, 6.596478e-003
6.711064e+002, 6.581834e-003
6.730349e+002, 6.758530e-003
6.749634e+002, 6.938691e-003
6.768918e+002, 7.069332e-003
6.788203e+002, 7.089114e-003
6.807488e+002, 7.149422e-003
6.826772e+002, 7.466157e-003
6.846057e+002, 7.961216e-003
6.865342e+002, 8.135050e-003
6.884626e+002, 8.548634e-003
6.903911e+002, 9.031556e-003
6.923196e+002, 9.572805e-003
6.942480e+002, 1.002760e-002
6.961765e+002, 1.025093e-002
6.981050e+002, 1.119868e-002
7.000334e+002, 1.296725e-002
7.019619e+002, 1.539251e-002
7.038904e+002, 1.912855e-002
7.058188e+002, 2.555684e-002
7.077473e+002, 3.847377e-002
7.096758e+002, 6.311299e-002
7.116042e+002, 8.964456e-002
7.135327e+002, 8.815169e-002
7.154612e+002, 6.191597e-002
7.173896e+002, 3.731205e-002
7.193181e+002, 2.221182e-002
7.212466e+002, 1.451427e-002
7.231750e+002, 1.085762e-002
7.251035e+002, 8.902052e-003
7.270320e+002, 7.823182e-003
7.289604e+002, 7.455598e-003
7.308889e+002, 7.312144e-003
7.328174e+002, 7.306594e-003
7.347458e+002, 7.407295e-003
7.366743e+002, 7.331295e-003
7.386028e+002, 7.274527e-003
7.405313e+002, 7.295384e-003
7.424597e+002, 7.293146e-003
7.443882e+002, 7.499954e-003
7.463167e+002, 7.548241e-003
7.482451e+002, 7.136929e-003
7.501736e+002, 6.960755e-003
7.521021e+002, 7.477517e-003
7.540305e+002, 7.721059e-003
7.559590e+002, 7.564052e-003
7.578875e+002, 7.802831e-003
7.598159e+002, 8.096382e-003
7.617444e+002, 8.082558e-003
7.636729e+002, 8.286500e-003
7.656013e+002, 8.619638e-003
7.675298e+002, 8.613636e-003
7.694583e+002, 8.811117e-003
7.713867e+002, 9.025562e-003
7.733152e+002, 9.088298e-003
7.752437e+002, 9.248336e-003
7.771721e+002, 9.352161e-003
7.791006e+002, 9.411304e-003
7.810291e+002, 9.459270e-003
7.829575e+002, 9.457284e-003
7.848860e+002, 9.425873e-003
7.868145e+002, 9.443912e-003
7.887429e+002, 9.393317e-003
7.906714e+002, 9.621450e-003
7.925999e+002, 9.760559e-003
7.945283e+002, 9.594612e-003
7.964568e+002, 9.735113e-003
7.983853e+002, 1.004532e-002
8.003137e+002, 1.028953e-002
8.022422e+002, 1.034907e-002
8.041707e+002, 1.035688e-002
8.060991e+002, 1.031632e-002
8.080276e+002, 1.068637e-002
8.099561e+002, 1.098506e-002
8.118845e+002, 1.099767e-002
8.138130e+002, 1.111385e-002
8.157415e+002, 1.134607e-002
8.176699e+002, 1.143945e-002
8.195984e+002, 1.162133e-002
8.215269e+002, 1.180829e-002
8.234553e+002, 1.230194e-002
8.253838e+002, 1.280903e-002
8.273123e+002, 1.321075e-002
8.292407e+002, 1.354235e-002
8.311692e+002, 1.406033e-002
8.330977e+002, 1.455299e-002
8.350261e+002, 1.510834e-002
8.369546e+002, 1.579051e-002
8.388831e+002, 1.701736e-002
8.408115e+002, 1.833569e-002
8.427400e+002, 2.052391e-002
8.446685e+002, 2.567619e-002
8.465969e+002, 3.477079e-002
8.485254e+002, 3.660588e-002
8.504539e+002, 3.041310e-002
8.523823e+002, 3.013430e-002
8.543108e+002, 3.501414e-002
8.562393e+002, 4.261542e-002
8.581677e+002, 5.363733e-002
8.600962e+002, 6.968655e-002
8.620247e+002, 9.245038e-002
8.639531e+002, 1.242721e-001
8.658816e+002, 1.671588e-001
8.678101e+002, 2.222626e-001
8.697385e+002, 2.771690e-001
8.716670e+002, 2.998987e-001
8.735955e+002, 2.823793e-001
8.755239e+002, 2.470233e-001
8.774524e+002, 2.082450e-001
8.793809e+002, 1.705106e-001
8.813093e+002, 1.357917e-001
8.832378e+002, 1.023185e-001
8.851663e+002, 6.386103e-002
8.870947e+002, 3.170391e-002
8.890232e+002, 1.702668e-002
8.909517e+002, 1.323067e-002
8.928801e+002, 1.215133e-002
8.948085e+002, 1.165384e-002
8.967370e+002, 1.161894e-002
8.986655e+002, 1.152527e-002
9.005939e+002, 1.122538e-002
9.025224e+002, 1.127213e-002
9.044509e+002, 1.138245e-002
9.063793e+002, 1.145628e-002
9.083078e+002, 1.152505e-002
9.102363e+002, 1.160929e-002
9.121647e+002, 1.168197e-002
9.140932e+002, 1.180001e-002
9.160217e+002, 1.189269e-002
9.179501e+002, 1.198287e-002
9.198786e+002, 1.206509e-002
9.218071e+002, 1.211748e-002
9.237355e+002, 1.250111e-002
9.256640e+002, 1.287893e-002
9.275925e+002, 1.298421e-002
9.295209e+002, 1.299129e-002
9.314494e+002, 1.298435e-002
9.333779e+002, 1.317729e-002
9.353063e+002, 1.334521e-002
9.372348e+002, 1.347507e-002
9.391633e+002, 1.365454e-002
9.410917e+002, 1.374455e-002
9.430202e+002, 1.369764e-002
9.449487e+002, 1.390699e-002
9.468771e+002, 1.423607e-002
9.488056e+002, 1.437120e-002
9.507341e+002, 1.429446e-002
9.526625e+002, 1.422471e-002
9.545910e+002, 1.423555e-002
9.565195e+002, 1.424325e-002
9.584479e+002, 1.445196e-002
9.603764e+002, 1.481787e-002
9.623049e+002, 1.503551e-002
9.642333e+002, 1.522325e-002
9.661618e+002, 1.527862e-002
9.680903e+002, 1.533784e-002
9.700187e+002, 1.538739e-002
9.719472e+002, 1.555938e-002
9.738757e+002, 1.579921e-002
9.758041e+002, 1.606023e-002
9.777326e+002, 1.623512e-002
9.796611e+002, 1.652311e-002
9.815895e+002, 1.658815e-002
9.835180e+002, 1.661182e-002
9.854465e+002, 1.688877e-002
9.873749e+002, 1.712221e-002
9.893034e+002, 1.716826e-002
9.912319e+002, 1.734739e-002
9.931603e+002, 1.762883e-002
9.950888e+002, 1.774446e-002
9.970173e+002, 1.773957e-002
9.989457e+002, 1.801301e-002
1.000874e+003, 1.834115e-002
1.002803e+003, 1.853254e-002
1.004731e+003, 1.863907e-002
1.006660e+003, 1.875038e-002
1.008588e+003, 1.898643e-002
1.010517e+003, 1.912718e-002
1.012445e+003, 1.917852e-002
1.014373e+003, 1.945844e-002
1.016302e+003, 1.965496e-002
1.018230e+003, 1.979402e-002
1.020159e+003, 2.000552e-002
1.022087e+003, 2.022788e-002
1.024016e+003, 2.043834e-002
1.025944e+003, 2.061849e-002
1.027873e+003, 2.064389e-002
1.029801e+003, 2.055337e-002
1.031730e+003, 2.062062e-002
1.033658e+003, 2.067127e-002
1.035587e+003, 2.082798e-002
1.037515e+003, 2.104073e-002
1.039444e+003, 2.124716e-002
1.041372e+003, 2.137475e-002
1.043301e+003, 2.133662e-002
1.045229e+003, 2.150374e-002
1.047157e+003, 2.175594e-002
1.049086e+003, 2.208674e-002
1.051014e+003, 2.236159e-002
1.052943e+003, 2.251408e-002
1.054871e+003, 2.284482e-002
1.056800e+003, 2.334806e-002
1.058728e+003, 2.354556e-002
1.060657e+003, 2.368794e-002
1.062585e+003, 2.409891e-002
1.064514e+003, 2.450675e-002
1.066442e+003, 2.506668e-002
1.068371e+003, 2.541462e-002
1.070299e+003, 2.563005e-002
1.072228e+003, 2.613550e-002
1.074156e+003, 2.647122e-002
1.076084e+003, 2.680410e-002
1.078013e+003, 2.759402e-002
1.079941e+003, 2.869446e-002
1.081870e+003, 2.942978e-002
1.083798e+003, 2.970517e-002
1.085727e+003, 2.975207e-002
1.087655e+003, 2.976893e-002
1.089584e+003, 2.970481e-002
1.091512e+003, 2.955573e-002
1.093441e+003, 2.924321e-002
1.095369e+003, 2.905104e-002
1.097298e+003, 2.898411e-002
1.099226e+003, 2.881317e-002
1.101155e+003, 2.889560e-002
1.103083e+003, 2.913996e-002
1.105011e+003, 2.950419e-002
1.106940e+003, 2.986603e-002
1.108868e+003, 3.030490e-002
1.110797e+003, 3.059207e-002
1.112725e+003, 3.094196e-002
1.114654e+003, 3.139346e-002
1.116582e+003, 3.184272e-002
1.118511e+003, 3.243282e-002
1.120439e+003, 3.284958e-002
1.122368e+003, 3.321959e-002
1.124296e+003, 3.373493e-002
1.126225e+003, 3.437319e-002
1.128153e+003, 3.480885e-002
1.130082e+003, 3.503049e-002
1.132010e+003, 3.541537e-002
1.133938e+003, 3.615491e-002
1.135867e+003, 3.703120e-002
1.137795e+003, 3.774527e-002
1.139724e+003, 3.819197e-002
1.141652e+003, 3.864467e-002
1.143581e+003, 3.946442e-002
1.145509e+003, 4.039844e-002
1.147438e+003, 4.104905e-002
1.149366e+003, 4.163028e-002
1.151295e+003, 4.228254e-002
1.153223e+003, 4.302693e-002
1.155152e+003, 4.395525e-002
1.157080e+003, 4.480028e-002
1.159009e+003, 4.548103e-002
1.160937e+003, 4.632474e-002
1.162865e+003, 4.716110e-002
1.164794e+003, 4.774348e-002
1.166722e+003, 4.828996e-002
1.168651e+003, 4.897717e-002
1.170579e+003, 4.940827e-002
1.172508e+003, 4.972436e-002
1.174436e+003, 5.036610e-002
1.176365e+003, 5.121539e-002
1.178293e+003, 5.169463e-002
1.180222e+003, 5.234250e-002
1.182150e+003, 5.292400e-002
1.184079e+003, 5.346951e-002
1.186007e+003, 5.416956e-002
1.187936e+003, 5.478207e-002
1.189864e+003, 5.532331e-002
1.191792e+003, 5.584724e-002
1.193721e+003, 5.661403e-002
1.195649e+003, 5.725776e-002
1.197578e+003, 5.779445e-002
1.199506e+003, 5.849026e-002
1.201435e+003, 5.931762e-002
1.203363e+003, 6.012448e-002
1.205292e+003, 6.098235e-002
1.207220e+003, 6.196782e-002
1.209149e+003, 6.293039e-002
1.211077e+003, 6.385922e-002
1.213006e+003, 6.481908e-002
1.214934e+003, 6.602350e-002
1.216863e+003, 6.713264e-002
1.218791e+003, 6.811466e-002
1.220719e+003, 6.943663e-002
1.222648e+003, 7.085038e-002
1.224576e+003, 7.216149e-002
1.226505e+003, 7.340614e-002
1.228433e+003, 7.475330e-002
1.230362e+003, 7.594606e-002
1.232290e+003, 7.725271e-002
1.234219e+003, 7.884482e-002
1.236147e+003, 8.048939e-002
1.238076e+003, 8.201986e-002
1.240004e+003, 8.345543e-002
1.241933e+003, 8.499653e-002
1.243861e+003, 8.655481e-002
1.245790e+003, 8.821084e-002
1.247718e+003, 8.992124e-002
1.249646e+003, 9.157034e-002
1.251575e+003, 9.342881e-002
1.253503e+003, 9.536269e-002
1.255432e+003, 9.740064e-002
1.257360e+003, 9.965927e-002
1.259289e+003, 1.020091e-001
1.261217e+003, 1.042462e-001
1.263146e+003, 1.064055e-001
1.265074e+003, 1.085746e-001
1.267003e+003, 1.108380e-001
1.268931e+003, 1.132394e-001
1.270860e+003, 1.157360e-001
1.272788e+003, 1.182125e-001
1.274717e+003, 1.209232e-001
1.276645e+003, 1.240444e-001
1.278573e+003, 1.270021e-001
1.280502e+003, 1.298130e-001
1.282430e+003, 1.327379e-001
1.284359e+003, 1.356908e-001
1.286287e+003, 1.386365e-001
1.288216e+003, 1.419547e-001
1.290144e+003, 1.454091e-001
1.292073e+003, 1.488534e-001
1.294001e+003, 1.526047e-001
1.295930e+003, 1.567491e-001
1.297858e+003, 1.608373e-001
1.299787e+003, 1.650090e-001
1.301715e+003, 1.695560e-001
1.303644e+003, 1.741423e-001
1.305572e+003, 1.787463e-001
1.307500e+003, 1.834575e-001
1.309429e+003, 1.885112e-001
1.311357e+003, 1.936179e-001
1.313286e+003, 1.986442e-001
1.315214e+003, 2.040402e-001
1.317143e+003, 2.096210e-001
1.319071e+003, 2.152676e-001
1.321000e+003, 2.211359e-001
1.322928e+003, 2.271582e-001
1.324857e+003, 2.332720e-001
1.326785e+003, 2.395340e-001
1.328714e+003, 2.463303e-001
1.330642e+003, 2.535222e-001
1.332571e+003, 2.610901e-001
1.334499e+003, 2.689908e-001
1.336427e+003, 2.770233e-001
1.338356e+003, 2.854289e-001
1.340284e+003, 2.944155e-001
1.342213e+003, 3.037451e-001
1.344141e+003, 3.132198e-001
1.346070e+003, 3.227117e-001
1.347998e+003, 3.325320e-001
1.349927e+003, 3.428279e-001
1.351855e+003, 3.538707e-001
1.353784e+003, 3.654690e-001
1.355712e+003, 3.773499e-001
1.357641e+003, 3.897257e-001
1.359569e+003, 4.025579e-001
1.361498e+003, 4.160812e-001
1.363426e+003, 4.298646e-001
1.365354e+003, 4.436813e-001
1.367283e+003, 4.581343e-001
1.369211e+003, 4.726958e-001
1.371140e+003, 4.868777e-001
1.373068e+003, 5.011647e-001
1.374997e+003, 5.152007e-001
1.376925e+003, 5.291536e-001
1.378854e+003, 5.438549e-001
1.380782e+003, 5.586070e-001
1.382711e+003, 5.728702e-001
1.384639e+003, 5.865608e-001
1.386568e+003, 5.993574e-001
1.388496e+003, 6.108121e-001
1.390424e+003, 6.196634e-001
1.392353e+003, 6.256471e-001
1.394281e+003, 6.287872e-001
1.396210e+003, 6.281342e-001
1.398138e+003, 6.237098e-001
1.400067e+003, 6.175073e-001
1.401995e+003, 6.106237e-001
1.403924e+003, 6.043306e-001
1.405852e+003, 5.981661e-001
1.407781e+003, 5.904022e-001
1.409709e+003, 5.811933e-001
1.411638e+003, 5.705967e-001
1.413566e+003, 5.593542e-001
1.415495e+003, 5.475492e-001
1.417423e+003, 5.353044e-001
1.419351e+003, 5.233616e-001
1.421280e+003, 5.116283e-001
1.423208e+003, 5.001709e-001
1.425137e+003, 4.894895e-001
1.427065e+003, 4.792335e-001
1.428994e+003, 4.694403e-001
1.430922e+003, 4.596440e-001
1.432851e+003, 4.498544e-001
1.434779e+003, 4.401111e-001
1.436708e+003, 4.308540e-001
1.438636e+003, 4.220774e-001
1.440565e+003, 4.134134e-001
1.442493e+003, 4.047387e-001
1.444422e+003, 3.960569e-001
1.446350e+003, 3.872700e-001
1.448278e+003, 3.781776e-001
1.450207e+003, 3.686479e-001
1.452135e+003, 3.594374e-001
1.454064e+003, 3.499406e-001
1.455992e+003, 3.407511e-001
1.457921e+003, 3.326481e-001
1.459849e+003, 3.239930e-001
1.461778e+003, 3.153847e-001
1.463706e+003, 3.070454e-001
1.465635e+003, 2.990439e-001
1.467563e+003, 2.909696e-001
1.469492e+003, 2.834131e-001
1.471420e+003, 2.759472e-001
1.473349e+003, 2.686631e-001
1.475277e+003, 2.613369e-001
1.477205e+003, 2.544356e-001
1.479134e+003, 2.475338e-001
1.481062e+003, 2.408268e-001
1.482991e+003, 2.340600e-001
1.484919e+003, 2.272007e-001
1.486848e+003, 2.204757e-001
1.488776e+003, 2.140443e-001
1.490705e+003, 2.076242e-001
1.492633e+003, 2.011358e-001
1.494562e+003, 1.946407e-001
1.496490e+003, 1.883459e-001
1.498419e+003, 1.820188e-001
1.500347e+003, 1.761179e-001
1.502276e+003, 1.699627e-001
1.504204e+003, 1.636131e-001
1.506132e+003, 1.577838e-001
1.508061e+003, 1.520561e-001
1.509989e+003, 1.460261e-001
1.511918e+003, 1.403751e-001
1.513846e+003, 1.347750e-001
1.515775e+003, 1.288062e-001
1.517703e+003, 1.234100e-001
1.519632e+003, 1.179914e-001
1.521560e+003, 1.129376e-001
1.523489e+003, 1.076958e-001
1.525417e+003, 1.025136e-001
1.527346e+003, 9.728411e-002
1.529274e+003, 9.208902e-002
1.531203e+003, 8.680245e-002
1.533131e+003, 8.152487e-002
1.535059e+003, 7.649197e-002
1.536988e+003, 7.098530e-002
1.538916e+003, 6.555864e-002
1.540845e+003, 6.051411e-002
1.542773e+003, 5.524288e-002
1.544702e+003, 4.991619e-002
1.546630e+003, 4.482040e-002
1.548559e+003, 3.967000e-002
1.550487e+003, 3.523122e-002
1.552416e+003, 3.131622e-002
1.554344e+003, 2.845031e-002
1.556273e+003, 2.598219e-002
1.558201e+003, 2.424008e-002
1.560130e+003, 2.329189e-002
1.562058e+003, 2.192461e-002
1.563986e+003, 2.063575e-002
1.565915e+003, 1.981189e-002
1.567843e+003, 1.892135e-002
1.569772e+003, 1.840306e-002
1.571700e+003, 1.764172e-002
1.573629e+003, 1.684397e-002
1.575557e+003, 1.625765e-002
1.577486e+003, 1.636680e-002
1.579414e+003, 1.599620e-002
1.581343e+003, 1.572642e-002
1.583271e+003, 1.532120e-002
1.585200e+003, 1.498841e-002
1.587128e+003, 1.464075e-002
1.589057e+003, 1.417102e-002
1.590985e+003, 1.333189e-002
1.592913e+003, 1.243606e-002
1.594842e+003, 1.186052e-002
1.596770e+003, 1.138310e-002
1.598699e+003, 1.079731e-002
1.600627e+003, 9.960833e-003
1.602556e+003, 9.449506e-003
1.604484e+003, 9.234589e-003
1.606413e+003, 8.729739e-003
1.608341e+003, 8.284603e-003
1.610270e+003, 7.783382e-003
1.612198e+003, 7.347519e-003
1.614127e+003, 7.138989e-003
1.616055e+003, 6.685403e-003
1.617984e+003, 6.677029e-003
1.619912e+003, 6.401154e-003
1.621840e+003, 6.260653e-003
1.623769e+003, 6.108745e-003
1.625697e+003, 5.709740e-003
1.627626e+003, 5.496050e-003
1.629554e+003, 5.246654e-003
1.631483e+003, 5.042261e-003
1.633411e+003, 4.557167e-003
1.635340e+003, 4.296455e-003
1.637268e+003, 4.319015e-003
1.639197e+003, 4.268650e-003
1.641125e+003, 4.251927e-003
1.643054e+003, 4.109955e-003
1.644982e+003, 3.902643e-003
1.646911e+003, 4.115299e-003
1.648839e+003, 3.772126e-003
1.650767e+003, 3.040809e-003
1.652696e+003, 3.022038e-003
1.654624e+003, 3.809656e-003
1.656553e+003, 3.550937e-003
1.658481e+003, 3.348454e-003
1.660410e+003, 3.150305e-003
1.662338e+003, 3.164351e-003
1.664267e+003, 3.365203e-003
1.666195e+003, 3.385556e-003
1.668124e+003, 3.106924e-003
1.670052e+003, 3.337362e-003
1.671981e+003, 3.160611e-003
1.673909e+003, 2.793597e-003
1.675838e+003, 3.067245e-003
1.677766e+003, 3.036498e-003
1.679694e+003, 2.985409e-003
1.681623e+003, 2.922721e-003
1.683551e+003, 2.996920e-003
1.685480e+003, 3.516186e-003
1.687408e+003, 2.972609e-003
1.689337e+003, 2.845371e-003
1.691265e+003, 2.906010e-003
1.693194e+003, 2.890172e-003
1.695122e+003, 2.671642e-003
1.697051e+003, 3.028745e-003
1.698979e+003, 2.545493e-003
1.700908e+003, 3.142856e-003
1.702836e+003, 2.570000e-003
1.704765e+003, 2.596183e-003
1.706693e+003, 2.790487e-003
1.708621e+003, 2.601148e-003
1.710550e+003, 2.587432e-003
1.712478e+003, 2.683169e-003
1.714407e+003, 2.737160e-003
1.716335e+003, 2.568369e-003
1.718264e+003, 2.745135e-003
1.720192e+003, 2.671874e-003
1.722121e+003, 2.754601e-003
1.724049e+003, 2.699049e-003
1.725978e+003, 2.589071e-003
1.727906e+003, 2.489029e-003
1.729835e+003, 2.332618e-003
1.731763e+003, 2.094048e-003
1.733692e+003, 1.994507e-003
1.735620e+003, 2.310690e-003
1.737548e+003, 1.823115e-003
1.739477e+003, 1.829019e-003
1.741405e+003, 1.725788e-003
1.743334e+003, 1.519948e-003
1.745262e+003, 1.721117e-003
1.747191e+003, 1.738542e-003
1.749119e+003, 1.758117e-003
1.751048e+003, 1.986675e-003
1.752976e+003, 1.969175e-003
1.754905e+003, 1.669864e-003
1.756833e+003, 1.841331e-003
1.758762e+003, 1.982427e-003
1.760690e+003, 1.991036e-003
1.762619e+003, 2.362106e-003
1.764547e+003, 2.258230e-003
1.766475e+003, 2.358595e-003
1.768404e+003, 2.772217e-003
1.770332e+003, 2.733588e-003
1.772261e+003, 3.137420e-003
1.774189e+003, 3.505452e-003
1.776118e+003, 3.601573e-003
1.778046e+003, 4.032280e-003
1.779975e+003, 4.430597e-003
1.781903e+003, 5.036454e-003
1.783832e+003, 6.110171e-003
1.785760e+003, 7.623218e-003
1.787689e+003, 9.386323e-003
1.789617e+003, 1.208652e-002
1.791546e+003, 1.538688e-002
1.793474e+003, 1.813553e-002
1.795402e+003, 1.888493e-002
1.797331e+003, 1.840007e-002
1.799259e+003, 1.706201e-002
1.801188e+003, 1.460937e-002
1.803116e+003, 1.149166e-002
1.805045e+003, 8.347239e-003
1.806973e+003, 6.149325e-003
1.808902e+003, 4.816527e-003
1.810830e+003, 3.840798e-003
1.812759e+003, 3.021539e-003
1.814687e+003, 2.541177e-003
1.816616e+003, 2.273584e-003
1.818544e+003, 2.313204e-003
1.820473e+003, 2.246098e-003
1.822401e+003, 2.441210e-003
1.824329e+003, 2.329633e-003
1.826258e+003, 2.175335e-003
1.828186e+003, 1.801249e-003
1.830115e+003, 1.991771e-003
1.832043e+003, 1.738714e-003
1.833972e+003, 1.611227e-003
1.835900e+003, 1.382731e-003
1.837829e+003, 1.020283e-003
1.839757e+003, 1.487971e-003
1.841686e+003, 2.215612e-003
1.843614e+003, 2.073461e-003
1.845543e+003, 2.098423e-003
1.847471e+003, 1.903764e-003
1.849400e+003, 1.594998e-003
1.851328e+003, 1.298053e-003
1.853256e+003, 1.229666e-003
1.855185e+003, 1.507158e-003
1.857113e+003, 1.635991e-003
1.859042e+003, 1.986374e-003
1.860970e+003, 1.874355e-003
1.862899e+003, 1.836873e-003
1.864827e+003, 1.967958e-003
1.866756e+003, 1.556610e-003
1.868684e+003, 1.067563e-003
1.870613e+003, 1.354740e-003
1.872541e+003, 1.658305e-003
1.874470e+003, 1.592425e-003
1.876398e+003, 1.612720e-003
1.878327e+003, 1.064722e-003
1.880255e+003, 7.648205e-004
1.882183e+003, 1.047866e-003
1.884112e+003, 1.081927e-003
1.886040e+003, 1.368337e-003
1.887969e+003, 1.772087e-003
1.889897e+003, 1.983881e-003
1.891826e+003, 1.138955e-003
1.893754e+003, 1.068148e-003
1.895683e+003, 1.538513e-003
1.897611e+003, 1.685980e-003
1.899540e+003, 1.155530e-003
1.901468e+003, 8.211139e-004
1.903397e+003, 3.320010e-004
1.905325e+003, 1.048155e-004
1.907254e+003, 1.548712e-004
1.909182e+003, 9.703801e-004
1.911110e+003, 1.611729e-003
1.913039e+003, 1.437529e-003
1.914967e+003, 1.485311e-003
1.916896e+003, 2.123159e-003
1.918824e+003, 2.703455e-003
1.920753e+003, 1.557917e-003
1.922681e+003, 5.301965e-004
1.924610e+003, 9.396623e-004
1.926538e+003, 1.101519e-003
1.928467e+003, 7.770715e-004
1.930395e+003, 5.424912e-004
1.932324e+003, 5.334308e-004
1.934252e+003, 7.107973e-004
1.936181e+003, 5.393973e-004
1.938109e+003, 2.726720e-004
1.940037e+003, 1.064661e-003
1.941966e+003, 1.683942e-003
1.943894e+003, 2.022724e-003
1.945823e+003, 1.809751e-003
1.947751e+003, 1.015575e-003
1.949680e+003, 1.026905e-003
1.951608e+003, 3.360402e-004
1.953537e+003, 2.288438e-004
1.955465e+003, 6.052731e-004
1.957394e+003, 9.949175e-004
1.959322e+003, 6.669389e-004
1.961251e+003, 6.252055e-004
1.963179e+003, 4.263712e-004
1.965108e+003, 1.228409e-003
1.967036e+003, 2.028359e-003
1.968964e+003, 1.156452e-003
1.970893e+003, 1.033204e-003
1.972821e+003, 1.157334e-003
1.974750e+003, 1.769064e-003
1.976678e+003, 3.065495e-003
1.978607e+003, 3.284744e-003
1.980535e+003, 1.960225e-003
1.982464e+003, 1.260837e-003
1.984392e+003, 2.404728e-003
1.986321e+003, 2.534905e-003
1.988249e+003, 2.782242e-003
1.990178e+003, 3.574494e-003
1.992106e+003, 4.045769e-003
1.994035e+003, 3.062333e-003
1.995963e+003, 6.771195e-004
1.997891e+003, 1.044866e-003
1.999820e+003, 1.024794e-003
2.001748e+003, 8.665273e-004
2.003677e+003, 6.096847e-004
2.005605e+003, -6.700542e-005
2.007534e+003, 8.645281e-004
2.009462e+003, 2.311674e-003
2.011391e+003, 1.431636e-003
2.013319e+003, 8.520829e-004
2.015248e+003, 7.581240e-004
2.017176e+003, 9.536028e-004
2.019105e+003, 4.484532e-004
2.021033e+003, 2.328331e-004
2.022962e+003, 1.034557e-003
2.024890e+003, 1.359474e-003
2.026818e+003, 1.916600e-003
2.028747e+003, 2.094167e-003
2.030675e+003, 1.306930e-003
2.032604e+003, 2.814636e-003
2.034532e+003, 4.544280e-003
2.036461e+003, 4.020257e-003
2.038389e+003, 2.511684e-003
2.040318e+003, 2.769689e-003
2.042246e+003, 3.301676e-003
2.044175e+003, 2.186570e-003
2.046103e+003, 1.686229e-003
2.048032e+003, 2.109644e-003
2.049960e+003, 3.096487e-003
2.051889e+003, 3.032468e-003
2.053817e+003, 2.452253e-003
2.055746e+003, 2.680254e-003
2.057674e+003, 2.349166e-003
2.059603e+003, 1.867254e-003
2.061531e+003, 1.916810e-003
2.063459e+003, 2.003567e-003
2.065388e+003, 2.329463e-003
2.067316e+003, 2.479113e-003
2.069245e+003, 1.831044e-003
2.071173e+003, 1.942099e-003
2.073102e+003, 2.493414e-003
2.075030e+003, 3.227541e-003
2.076959e+003, 3.387888e-003
2.078887e+003, 3.115343e-003
2.080816e+003, 2.890994e-003
2.082744e+003, 2.124499e-003
2.084673e+003, 2.619428e-003
2.086601e+003, 3.211143e-003
2.088530e+003, 3.014683e-003
2.090458e+003, 2.970005e-003
2.092386e+003, 2.458174e-003
2.094315e+003, 2.498992e-003
2.096243e+003, 3.407176e-003
2.098172e+003, 3.005041e-003
2.100100e+003, 2.783238e-003
2.102029e+003, 3.865243e-003
2.103957e+003, 4.253150e-003
2.105886e+003, 3.573038e-003
2.107814e+003, 3.584727e-003
2.109743e+003, 4.958084e-003
2.111671e+003, 4.858159e-003
2.113600e+003, 3.705386e-003
2.115528e+003, 3.679986e-003
2.117457e+003, 3.572615e-003
2.119385e+003, 3.782453e-003
2.121313e+003, 3.887041e-003
2.123242e+003, 2.979368e-003
2.125170e+003, 2.214712e-003
2.127099e+003, 1.496456e-003
2.129027e+003, 7.455433e-004
2.130956e+003, 6.460957e-004
2.132884e+003, 1.245104e-003
2.134813e+003, 1.971395e-003
2.136741e+003, 1.624100e-003
2.138670e+003, 1.301214e-003
2.140598e+003, 2.190858e-003
2.142527e+003, 1.189473e-003
2.144455e+003, 2.692392e-004
2.146384e+003, 3.572031e-004
2.148312e+003, 2.535665e-004
2.150240e+003, -7.741458e-004
2.152169e+003, -1.402001e-004
2.154097e+003, -1.059248e-004
2.156026e+003, -1.835527e-003
2.157954e+003, -1.911736e-003
2.159883e+003, 1.744394e-003
2.161811e+003, 4.296506e-003
2.163740e+003, 5.542256e-003
2.165668e+003, 5.256928e-003
2.167597e+003, 3.562340e-003
2.169525e+003, 2.930664e-003
2.171454e+003, 3.226775e-003
2.173382e+003, 4.089641e-003
2.175311e+003, 3.174510e-003
2.177239e+003, 2.581144e-003
2.179167e+003, 3.144211e-003
2.181096e+003, 3.449409e-003
2.183024e+003, 4.404391e-003
2.184953e+003, 3.314781e-003
2.186881e+003, 2.729634e-003
2.188810e+003, 3.523129e-003
2.190738e+003, 3.311548e-003
2.192667e+003, 3.756595e-003
2.194595e+003, 4.955428e-003
2.196524e+003, 3.368579e-003
2.198452e+003, 2.423078e-003
2.200381e+003, 4.227114e-003
2.202309e+003, 4.364882e-003
2.204238e+003, 3.170736e-003
2.206166e+003, 2.404591e-003
2.208094e+003, 4.027690e-003
2.210023e+003, 5.297694e-003
2.211951e+003, 4.963152e-003
2.213880e+003, 3.626494e-003
2.215808e+003, 3.621085e-003
2.217737e+003, 4.861136e-003
2.219665e+003, 4.653061e-003
2.221594e+003, 4.056512e-003
2.223522e+003, 4.490886e-003
2.225451e+003, 5.049234e-003
2.227379e+003, 4.246025e-003
2.229308e+003, 4.098501e-003
2.231236e+003, 4.294008e-003
2.233165e+003, 4.338963e-003
2.235093e+003, 3.680160e-003
2.237021e+003, 3.239147e-003
2.238950e+003, 4.482208e-003
2.240878e+003, 5.374356e-003
2.242807e+003, 3.888161e-003
2.244735e+003, 3.443945e-003
2.246664e+003, 3.669974e-003
2.248592e+003, 4.118302e-003
2.250521e+003, 4.392988e-003
2.252449e+003, 3.920526e-003
2.254378e+003, 4.375339e-003
2.256306e+003, 4.266873e-003
2.258235e+003, 5.181066e-003
2.260163e+003, 5.505156e-003
2.262092e+003, 4.757300e-003
2.264020e+003, 4.547267e-003
2.265948e+003, 4.961662e-003
2.267877e+003, 6.298965e-003
2.269805e+003, 6.412051e-003
2.271734e+003, 5.609939e-003
2.273662e+003, 5.709461e-003
2.275591e+003, 6.117229e-003
2.277519e+003, 6.345607e-003
2.279448e+003, 6.433839e-003
2.281376e+003, 6.785145e-003
2.283305e+003, 7.118427e-003
2.285233e+003, 7.678975e-003
2.287162e+003, 7.672025e-003
2.289090e+003, 6.816182e-003
2.291019e+003, 6.012409e-003
2.292947e+003, 5.813647e-003
2.294875e+003, 5.993368e-003
2.296804e+003, 6.270350e-003
2.298732e+003, 6.518977e-003
2.300661e+003, 6.218626e-003
2.302589e+003, 6.090689e-003
2.304518e+003, 5.651940e-003
2.306446e+003, 5.886857e-003
2.308375e+003, 6.593804e-003
2.310303e+003, 6.338187e-003
2.312232e+003, 5.904098e-003
2.314160e+003, 5.892246e-003
2.316089e+003, 6.326492e-003
2.318017e+003, 6.655378e-003
2.319946e+003, 6.884854e-003
2.321874e+003, 7.346613e-003
2.323802e+003, 7.833498e-003
2.325731e+003, 6.975089e-003
2.327659e+003, 5.790178e-003
2.329588e+003, 5.315939e-003
2.331516e+003, 5.421828e-003
2.333445e+003, 5.635618e-003
2.335373e+003, 6.039187e-003
2.337302e+003, 6.100156e-003
2.339230e+003, 5.545990e-003
2.341159e+003, 5.238557e-003
2.343087e+003, 5.558612e-003
2.345016e+003, 5.963470e-003
2.346944e+003, 5.826193e-003
2.348873e+003, 5.511820e-003
2.350801e+003, 5.455365e-003
2.352729e+003, 5.503682e-003
2.354658e+003, 5.559429e-003
2.356586e+003, 5.686423e-003
2.358515e+003, 5.411862e-003
2.360443e+003, 5.553204e-003
2.362372e+003, 5.855585e-003
2.364300e+003, 5.293461e-003
2.366229e+003, 4.863385e-003
2.368157e+003, 4.874025e-003
2.370086e+003, 5.022067e-003
2.372014e+003, 5.037406e-003
2.373942e+003, 4.759052e-003
2.375871e+003, 4.641884e-003
2.377799e+003, 4.867659e-003
2.379728e+003, 5.461191e-003
2.381656e+003, 5.187123e-003
2.383585e+003, 4.780757e-003
2.385513e+003, 4.684527e-003
2.387442e+003, 4.841315e-003
2.389370e+003, 4.582009e-003
2.391299e+003, 4.654653e-003
2.393227e+003, 5.241849e-003
2.395156e+003, 5.422218e-003
2.397084e+003, 5.535352e-003
2.399012e+003, 5.386840e-003
2.400941e+003, 4.806108e-003
2.402869e+003, 4.754235e-003
2.404798e+003, 4.979814e-003
2.406726e+003, 5.552538e-003
2.408655e+003, 6.111230e-003
2.410583e+003, 6.124317e-003
2.412512e+003, 5.657181e-003
2.414440e+003, 5.059747e-003
2.416369e+003, 5.276203e-003
2.418297e+003, 6.129970e-003
2.420226e+003, 6.083317e-003
2.422154e+003, 5.617822e-003
2.424083e+003, 5.724367e-003
2.426011e+003, 5.427901e-003
2.427939e+003, 5.127080e-003
2.429868e+003, 5.350830e-003
2.431796e+003, 5.016046e-003
2.433725e+003, 4.942081e-003
2.435653e+003, 4.939754e-003
2.437582e+003, 5.378126e-003
2.439510e+003, 5.657992e-003
2.441439e+003, 6.096929e-003
2.443367e+003, 6.613956e-003
2.445296e+003, 6.630508e-003
2.447224e+003, 6.454531e-003
2.449153e+003, 6.719280e-003
2.451081e+003, 6.901857e-003
2.453010e+003, 6.936083e-003
2.454938e+003, 6.319966e-003
2.456866e+003, 5.917850e-003
2.458795e+003, 6.379561e-003
2.460723e+003, 6.445509e-003
2.462652e+003, 6.495219e-003
2.464580e+003, 7.036612e-003
2.466509e+003, 7.008472e-003
2.468437e+003, 6.627991e-003
2.470366e+003, 7.110641e-003
2.472294e+003, 7.672710e-003
2.474223e+003, 7.731540e-003
2.476151e+003, 7.843430e-003
2.478080e+003, 8.155528e-003
2.480008e+003, 8.164275e-003
2.481937e+003, 8.975274e-003
2.483865e+003, 9.637561e-003
2.485793e+003, 9.698481e-003
2.487722e+003, 9.590817e-003
2.489650e+003, 1.006826e-002
2.491579e+003, 1.019723e-002
2.493507e+003, 1.012697e-002
2.495436e+003, 1.091236e-002
2.497364e+003, 1.197641e-002
2.499293e+003, 1.283243e-002
2.501221e+003, 1.391704e-002
2.503150e+003, 1.473381e-002
2.505078e+003, 1.571602e-002
2.507007e+003, 1.648173e-002
2.508935e+003, 1.683451e-002
2.510864e+003, 1.745384e-002
2.512792e+003, 1.774494e-002
2.514720e+003, 1.787739e-002
2.516649e+003, 1.797637e-002
2.518577e+003, 1.728599e-002
2.520506e+003, 1.640820e-002
2.522434e+003, 1.570713e-002
2.524363e+003, 1.546759e-002
2.526291e+003, 1.476227e-002
2.528220e+003, 1.351502e-002
2.530148e+003, 1.278473e-002
2.532077e+003, 1.247766e-002
2.534005e+003, 1.193056e-002
2.535934e+003, 1.104574e-002
2.537862e+003, 1.011546e-002
2.539791e+003, 1.005461e-002
2.541719e+003, 1.002460e-002
2.543647e+003, 8.501754e-003
2.545576e+003, 7.807279e-003
2.547504e+003, 8.748164e-003
2.549433e+003, 9.351809e-003
2.551361e+003, 8.842872e-003
2.553290e+003, 8.721899e-003
2.555218e+003, 8.762962e-003
2.557147e+003, 8.508024e-003
2.559075e+003, 8.085674e-003
2.561004e+003, 8.342925e-003
2.562932e+003, 8.457532e-003
2.564861e+003, 8.663009e-003
2.566789e+003, 8.620154e-003
2.568718e+003, 8.550294e-003
2.570646e+003, 8.333572e-003
2.572574e+003, 8.487975e-003
2.574503e+003, 8.309979e-003
2.576431e+003, 7.906895e-003
2.578360e+003, 8.358407e-003
2.580288e+003, 8.514717e-003
2.582217e+003, 8.375735e-003
2.584145e+003, 8.192741e-003
2.586074e+003, 7.927165e-003
2.588002e+003, 7.979021e-003
2.589931e+003, 8.074077e-003
2.591859e+003, 8.267025e-003
2.593788e+003, 8.802805e-003
2.595716e+003, 8.828505e-003
2.597645e+003, 8.892666e-003
2.599573e+003, 8.598141e-003
2.601501e+003, 7.448947e-003
2.603430e+003, 7.016133e-003
2.605358e+003, 7.242506e-003
2.607287e+003, 6.930387e-003
2.609215e+003, 6.953432e-003
2.611144e+003, 6.837402e-003
2.613072e+003, 7.283728e-003
2.615001e+003, 6.983408e-003
2.616929e+003, 6.612682e-003
2.618858e+003, 6.465087e-003
2.620786e+003, 6.266206e-003
2.622715e+003, 6.432658e-003
2.624643e+003, 6.712826e-003
2.626572e+003, 6.627768e-003
2.628500e+003, 6.085872e-003
2.630428e+003, 5.557887e-003
2.632357e+003, 5.355047e-003
2.634285e+003, 5.652960e-003
2.636214e+003, 6.070098e-003
2.638142e+003, 6.176832e-003
2.640071e+003, 5.936962e-003
2.641999e+003, 5.642066e-003
2.643928e+003, 5.288283e-003
2.645856e+003, 5.209531e-003
2.647785e+003, 5.688804e-003
2.649713e+003, 6.152461e-003
2.651642e+003, 5.930215e-003
2.653570e+003, 5.949110e-003
2.655499e+003, 6.202251e-003
2.657427e+003, 5.444792e-003
2.659355e+003, 4.607815e-003
2.661284e+003, 4.708899e-003
2.663212e+003, 4.881114e-003
2.665141e+003, 4.864340e-003
2.667069e+003, 4.744424e-003
2.668998e+003, 4.392094e-003
2.670926e+003, 4.252252e-003
2.672855e+003, 4.223322e-003
2.674783e+003, 4.441827e-003
2.676712e+003, 4.453932e-003
2.678640e+003, 4.116221e-003
2.680569e+003, 4.275625e-003
2.682497e+003, 4.187978e-003
2.684426e+003, 4.160549e-003
2.686354e+003, 4.144422e-003
2.688282e+003, 3.919650e-003
2.690211e+003, 3.656415e-003
2.692139e+003, 3.863787e-003
2.694068e+003, 4.080267e-003
2.695996e+003, 4.118417e-003
2.697925e+003, 4.067360e-003
2.699853e+003, 3.864984e-003
2.701782e+003, 3.584136e-003
2.703710e+003, 3.599365e-003
2.705639e+003, 3.611733e-003
2.707567e+003, 3.982692e-003
2.709496e+003, 4.145434e-003
2.711424e+003, 3.697951e-003
2.713353e+003, 3.489921e-003
2.715281e+003, 3.867841e-003
2.717209e+003, 3.898771e-003
2.719138e+003, 3.249700e-003
2.721066e+003, 2.926216e-003
2.722995e+003, 3.159135e-003
2.724923e+003, 3.437340e-003
2.726852e+003, 3.720712e-003
2.728780e+003, 3.802709e-003
2.730709e+003, 3.347364e-003
2.732637e+003, 3.192836e-003
2.734566e+003, 3.332011e-003
2.736494e+003, 3.241710e-003
2.738423e+003, 2.958704e-003
2.740351e+003, 2.867490e-003
2.742280e+003, 3.129121e-003
2.744208e+003, 3.474066e-003
2.746136e+003, 3.348207e-003
2.748065e+003, 3.002257e-003
2.749993e+003, 2.888539e-003
2.751922e+003, 2.597743e-003
2.753850e+003, 2.448963e-003
2.755779e+003, 2.632040e-003
2.757707e+003, 2.588827e-003
2.759636e+003, 2.742763e-003
2.761564e+003, 2.883906e-003
2.763493e+003, 2.987899e-003
2.765421e+003, 3.548797e-003
2.767350e+003, 3.575275e-003
2.769278e+003, 3.217610e-003
2.771207e+003, 3.545630e-003
2.773135e+003, 3.598140e-003
2.775063e+003, 3.299197e-003
2.776992e+003, 3.206921e-003
2.778920e+003, 3.163725e-003
2.780849e+003, 3.016639e-003
2.782777e+003, 2.972606e-003
2.784706e+003, 3.290490e-003
2.786634e+003, 3.385078e-003
2.788563e+003, 3.473779e-003
2.790491e+003, 3.528943e-003
2.792420e+003, 3.319922e-003
2.794348e+003, 3.295754e-003
2.796277e+003, 3.103223e-003
2.798205e+003, 2.822910e-003
2.800134e+003, 2.899254e-003
2.802062e+003, 2.977753e-003
2.803990e+003, 2.827628e-003
2.805919e+003, 2.803015e-003
2.807847e+003, 3.146191e-003
2.809776e+003, 3.658376e-003
2.811704e+003, 3.443276e-003
2.813633e+003, 3.291294e-003
2.815561e+003, 3.177281e-003
2.817490e+003, 3.352439e-003
2.819418e+003, 3.770349e-003
2.821347e+003, 4.092824e-003
2.823275e+003, 3.726525e-003
2.825204e+003, 3.253016e-003
2.827132e+003, 3.745615e-003
2.829061e+003, 4.448951e-003
2.830989e+003, 4.384674e-003
2.832917e+003, 4.146056e-003
2.834846e+003, 4.551003e-003
2.836774e+003, 4.995229e-003
2.838703e+003, 4.914482e-003
2.840631e+003, 4.903078e-003
2.842560e+003, 5.362938e-003
2.844488e+003, 5.463323e-003
2.846417e+003, 5.343975e-003
2.848345e+003, 4.991533e-003
2.850274e+003, 5.391623e-003
2.852202e+003, 5.754873e-003
2.854131e+003, 5.526581e-003
2.856059e+003, 5.397148e-003
2.857988e+003, 6.109756e-003
2.859916e+003, 6.819248e-003
2.861844e+003, 7.115356e-003
2.863773e+003, 7.261210e-003
2.865701e+003, 7.530209e-003
2.867630e+003, 8.085348e-003
2.869558e+003, 7.806587e-003
2.871487e+003, 7.608397e-003
2.873415e+003, 8.038412e-003
2.875344e+003, 8.184004e-003
2.877272e+003, 7.311547e-003
2.879201e+003, 6.686436e-003
2.881129e+003, 6.982139e-003
2.883058e+003, 7.324806e-003
2.884986e+003, 7.135107e-003
2.886915e+003, 6.725699e-003
2.888843e+003, 6.174464e-003
2.890771e+003, 5.776781e-003
2.892700e+003, 6.148611e-003
2.894628e+003, 5.895589e-003
2.896557e+003, 5.521968e-003
2.898485e+003, 5.299462e-003
2.900414e+003, 4.804041e-003
2.902342e+003, 5.606696e-003
2.904271e+003, 6.018875e-003
2.906199e+003, 5.789809e-003
2.908128e+003, 5.226715e-003
2.910056e+003, 5.039454e-003
2.911985e+003, 5.400107e-003
2.913913e+003, 5.546325e-003
2.915842e+003, 5.375144e-003
2.917770e+003, 5.139881e-003
2.919698e+003, 4.890266e-003
2.921627e+003, 4.778441e-003
2.923555e+003, 5.001463e-003
2.925484e+003, 4.854221e-003
2.927412e+003, 4.639626e-003
2.929341e+003, 4.884687e-003
2.931269e+003, 5.265085e-003
2.933198e+003, 5.135440e-003
2.935126e+003, 5.266739e-003
2.937055e+003, 5.222121e-003
2.938983e+003, 5.580738e-003
2.940912e+003, 5.632358e-003
2.942840e+003, 5.645062e-003
2.944769e+003, 6.210745e-003
2.946697e+003, 6.182238e-003
2.948625e+003, 5.710427e-003
2.950554e+003, 5.732427e-003
2.952482e+003, 5.896457e-003
2.954411e+003, 5.588401e-003
2.956339e+003, 5.572667e-003
2.958268e+003, 6.508534e-003
2.960196e+003, 7.103023e-003
2.962125e+003, 7.056628e-003
2.964053e+003, 6.970176e-003
2.965982e+003, 6.802597e-003
2.967910e+003, 6.506321e-003
2.969839e+003, 7.108448e-003
2.971767e+003, 7.553343e-003
2.973696e+003, 7.110843e-003
2.975624e+003, 7.525361e-003
2.977552e+003, 8.087662e-003
2.979481e+003, 7.291159e-003
2.981409e+003, 7.565230e-003
2.983338e+003, 7.411940e-003
2.985266e+003, 6.888788e-003
2.987195e+003, 7.387477e-003
2.989123e+003, 7.715016e-003
2.991052e+003, 6.949265e-003
2.992980e+003, 6.352581e-003
2.994909e+003, 6.606997e-003
2.996837e+003, 6.615342e-003
2.998766e+003, 6.506453e-003
3.000694e+003, 6.568395e-003
3.002623e+003, 6.526220e-003
3.004551e+003, 6.237790e-003
3.006479e+003, 6.579355e-003
3.008408e+003, 6.698292e-003
3.010336e+003, 6.341005e-003
3.012265e+003, 6.254104e-003
3.014193e+003, 6.533802e-003
3.016122e+003, 6.327785e-003
3.018050e+003, 6.493622e-003
3.019979e+003, 6.148667e-003
3.021907e+003, 6.006933e-003
3.023836e+003, 6.259300e-003
3.025764e+003, 6.650172e-003
3.027693e+003, 6.244805e-003
3.029621e+003, 5.635583e-003
3.031550e+003, 6.174443e-003
3.033478e+003, 6.611766e-003
3.035406e+003, 6.799042e-003
3.037335e+003, 7.717459e-003
3.039263e+003, 7.080508e-003
3.041192e+003, 6.664228e-003
3.043120e+003, 7.362724e-003
3.045049e+003, 7.654449e-003
3.046977e+003, 6.983582e-003
3.048906e+003, 6.466200e-003
3.050834e+003, 6.368814e-003
3.052763e+003, 6.856828e-003
3.054691e+003, 7.039725e-003
3.056620e+003, 6.806853e-003
3.058548e+003, 7.342371e-003
3.060477e+003, 8.365037e-003
3.062405e+003, 8.793319e-003
3.064333e+003, 7.958766e-003
3.066262e+003, 7.770516e-003
3.068190e+003, 8.472774e-003
3.070119e+003, 8.522529e-003
3.072047e+003, 8.018739e-003
3.073976e+003, 7.880528e-003
3.075904e+003, 7.965135e-003
3.077833e+003, 8.257826e-003
3.079761e+003, 8.360547e-003
3.081690e+003, 8.881583e-003
3.083618e+003, 8.893825e-003
3.085547e+003, 8.362775e-003
3.087475e+003, 9.032551e-003
3.089404e+003, 9.697197e-003
3.091332e+003, 9.746686e-003
3.093260e+003, 9.561478e-003
3.095189e+003, 9.294162e-003
3.097117e+003, 8.784009e-003
3.099046e+003, 9.178984e-003
3.100974e+003, 9.727926e-003
3.102903e+003, 9.540545e-003
3.104831e+003, 9.275568e-003
3.106760e+003, 9.654937e-003
3.108688e+003, 9.441946e-003
3.110617e+003, 9.564053e-003
3.112545e+003, 1.007486e-002
3.114474e+003, 1.003130e-002
3.116402e+003, 9.966566e-003
3.118331e+003, 9.947233e-003
3.120259e+003, 9.931304e-003
3.122188e+003, 9.765503e-003
3.124116e+003, 9.997182e-003
3.126044e+003, 1.005312e-002
3.127973e+003, 9.487783e-003
3.129901e+003, 9.073038e-003
3.131830e+003, 8.774667e-003
3.133758e+003, 9.119967e-003
3.135687e+003, 1.019153e-002
3.137615e+003, 1.050609e-002
3.139544e+003, 9.799880e-003
3.141472e+003, 9.873313e-003
3.143401e+003, 1.078474e-002
3.145329e+003, 1.100167e-002
3.147258e+003, 9.823957e-003
3.149186e+003, 9.684318e-003
3.151115e+003, 9.707388e-003
3.153043e+003, 9.379094e-003
3.154971e+003, 9.360515e-003
3.156900e+003, 9.486306e-003
3.158828e+003, 1.011384e-002
3.160757e+003, 1.007033e-002
3.162685e+003, 9.555924e-003
3.164614e+003, 1.004945e-002
3.166542e+003, 1.064757e-002
3.168471e+003, 1.081403e-002
3.170399e+003, 1.135561e-002
3.172328e+003, 1.155966e-002
3.174256e+003, 1.135055e-002
3.176185e+003, 1.094251e-002
3.178113e+003, 1.056423e-002
3.180042e+003, 1.038473e-002
3.181970e+003, 1.092153e-002
3.183898e+003, 1.084563e-002
3.185827e+003, 1.015030e-002
3.187755e+003, 1.010708e-002
3.189684e+003, 1.122095e-002
3.191612e+003, 1.111313e-002
3.193541e+003, 9.769027e-003
3.195469e+003, 9.592498e-003
3.197398e+003, 1.059790e-002
3.199326e+003, 1.080278e-002
3.201255e+003, 1.046811e-002
3.203183e+003, 1.012980e-002
3.205112e+003, 1.136087e-002
3.207040e+003, 1.146627e-002
3.208969e+003, 1.082526e-002
3.210897e+003, 1.041924e-002
3.212825e+003, 1.090329e-002
3.214754e+003, 1.142609e-002
3.216682e+003, 1.123470e-002
3.218611e+003, 1.070550e-002
3.220539e+003, 9.964025e-003
3.222468e+003, 9.780307e-003
3.224396e+003, 1.090831e-002
3.226325e+003, 1.166586e-002
3.228253e+003, 1.126788e-002
3.230182e+003, 1.071972e-002
3.232110e+003, 1.117641e-002
3.234039e+003, 1.189918e-002
3.235967e+003, 1.100948e-002
3.237896e+003, 9.846036e-003
3.239824e+003, 1.003244e-002
3.241752e+003, 1.059545e-002
3.243681e+003, 1.044831e-002
3.245609e+003, 1.018738e-002
3.247538e+003, 1.026898e-002
3.249466e+003, 1.101906e-002
3.251395e+003, 1.187558e-002
3.253323e+003, 1.185903e-002
3.255252e+003, 1.161080e-002
3.257180e+003, 1.107295e-002
3.259109e+003, 1.114928e-002
3.261037e+003, 1.202336e-002
3.262966e+003, 1.172040e-002
3.264894e+003, 1.033410e-002
3.266823e+003, 1.053376e-002
3.268751e+003, 1.055460e-002
3.270679e+003, 1.014829e-002
3.272608e+003, 1.138465e-002
3.274536e+003, 1.221375e-002
3.276465e+003, 1.183665e-002
3.278393e+003, 1.135868e-002
3.280322e+003, 1.081043e-002
3.282250e+003, 1.035770e-002
3.284179e+003, 1.048119e-002
3.286107e+003, 1.087678e-002
3.288036e+003, 1.105169e-002
3.289964e+003, 1.096600e-002
3.291893e+003, 1.116534e-002
3.293821e+003, 1.105243e-002
3.295750e+003, 1.145062e-002
3.297678e+003, 1.059648e-002
3.299606e+003, 1.066491e-002
3.301535e+003, 1.113961e-002
3.303463e+003, 1.129229e-002
3.305392e+003, 1.100672e-002
3.307320e+003, 1.064833e-002
3.309249e+003, 1.058053e-002
3.311177e+003, 1.016875e-002
3.313106e+003, 9.707096e-003
3.315034e+003, 1.028668e-002
3.316963e+003, 1.107792e-002
3.318891e+003, 1.159920e-002
3.320820e+003, 1.131602e-002
3.322748e+003, 1.090920e-002
3.324677e+003, 1.084882e-002
3.326605e+003, 1.088998e-002
3.328533e+003, 1.065940e-002
3.330462e+003, 1.075741e-002
3.332390e+003, 1.104110e-002
3.334319e+003, 1.154965e-002
3.336247e+003, 1.133550e-002
3.338176e+003, 1.064482e-002
3.340104e+003, 1.033672e-002
3.342033e+003, 1.072070e-002
3.343961e+003, 1.103399e-002
3.345890e+003, 1.106862e-002
3.347818e+003, 1.128459e-002
3.349747e+003, 1.137901e-002
3.351675e+003, 1.127658e-002
3.353604e+003, 1.042208e-002
3.355532e+003, 9.845831e-003
3.357460e+003, 9.603147e-003
3.359389e+003, 1.042295e-002
3.361317e+003, 1.123965e-002
3.363246e+003, 1.092753e-002
3.365174e+003, 1.118811e-002
3.367103e+003, 1.124924e-002
3.369031e+003, 1.091217e-002
3.370960e+003, 1.124087e-002
3.372888e+003, 1.119841e-002
3.374817e+003, 1.104434e-002
3.376745e+003, 1.223546e-002
3.378674e+003, 1.254275e-002
3.380602e+003, 1.183867e-002
3.382531e+003, 1.188798e-002
3.384459e+003, 1.117825e-002
3.386387e+003, 1.155689e-002
3.388316e+003, 1.172315e-002
3.390244e+003, 1.146980e-002
3.392173e+003, 1.133725e-002
3.394101e+003, 1.179666e-002
3.396030e+003, 1.168812e-002
3.397958e+003, 1.136550e-002
3.399887e+003, 1.132874e-002
3.401815e+003, 1.172102e-002
3.403744e+003, 1.239802e-002
3.405672e+003, 1.269958e-002
3.407601e+003, 1.232648e-002
3.409529e+003, 1.118447e-002
3.411458e+003, 1.066175e-002
3.413386e+003, 1.138480e-002
3.415314e+003, 1.199703e-002
3.417243e+003, 1.131332e-002
3.419171e+003, 1.163688e-002
3.421100e+003, 1.234699e-002
3.423028e+003, 1.174302e-002
3.424957e+003, 1.139201e-002
3.426885e+003, 1.103317e-002
3.428814e+003, 1.125553e-002
3.430742e+003, 1.205987e-002
3.432671e+003, 1.204666e-002
3.434599e+003, 1.198219e-002
3.436528e+003, 1.120893e-002
3.438456e+003, 1.094911e-002
3.440385e+003, 1.172568e-002
3.442313e+003, 1.163423e-002
3.444241e+003, 1.126240e-002
3.446170e+003, 1.106513e-002
3.448098e+003, 1.067997e-002
3.450027e+003, 1.120102e-002
3.451955e+003, 1.214675e-002
3.453884e+003, 1.202982e-002
3.455812e+003, 1.215440e-002
3.457741e+003, 1.268857e-002
3.459669e+003, 1.201687e-002
3.461598e+003, 1.133476e-002
3.463526e+003, 1.133415e-002
3.465455e+003, 1.193049e-002
3.467383e+003, 1.260824e-002
3.469312e+003, 1.299232e-002
3.471240e+003, 1.316034e-002
3.473168e+003, 1.206385e-002
3.475097e+003, 1.050351e-002
3.477025e+003, 1.063275e-002
3.478954e+003, 1.209273e-002
3.480882e+003, 1.192146e-002
3.482811e+003, 1.108886e-002
3.484739e+003, 1.258534e-002
3.486668e+003, 1.237520e-002
3.488596e+003, 1.156230e-002
3.490525e+003, 1.179261e-002
3.492453e+003, 1.200186e-002
3.494382e+003, 1.271786e-002
3.496310e+003, 1.158575e-002
3.498239e+003, 1.114618e-002
3.500167e+003, 1.190428e-002
3.502095e+003, 1.229614e-002
3.504024e+003, 1.193309e-002
3.505952e+003, 1.204149e-002
3.507881e+003, 1.282689e-002
3.509809e+003, 1.237931e-002
3.511738e+003, 1.231070e-002
3.513666e+003, 1.331368e-002
3.515595e+003, 1.266556e-002
3.517523e+003, 1.281822e-002
3.519452e+003, 1.343233e-002
3.521380e+003, 1.314417e-002
3.523309e+003, 1.345343e-002
3.525237e+003, 1.360704e-002
3.527166e+003, 1.276406e-002
3.529094e+003, 1.198991e-002
3.531022e+003, 1.151529e-002
3.532951e+003, 1.192921e-002
3.534879e+003, 1.347429e-002
3.536808e+003, 1.318861e-002
3.538736e+003, 1.272331e-002
3.540665e+003, 1.232847e-002
3.542593e+003, 1.169164e-002
3.544522e+003, 1.170828e-002
3.546450e+003, 1.201295e-002
3.548379e+003, 1.212832e-002
3.550307e+003, 1.160218e-002
3.552236e+003, 1.168926e-002
3.554164e+003, 1.219103e-002
3.556093e+003, 1.278055e-002
3.558021e+003, 1.388354e-002
3.559949e+003, 1.333948e-002
3.561878e+003, 1.332318e-002
3.563806e+003, 1.443971e-002
3.565735e+003, 1.492439e-002
3.567663e+003, 1.450005e-002
3.569592e+003, 1.330831e-002
3.571520e+003, 1.426744e-002
3.573449e+003, 1.392907e-002
3.575377e+003, 1.311823e-002
3.577306e+003, 1.378627e-002
3.579234e+003, 1.267959e-002
3.581163e+003, 1.174172e-002
3.583091e+003, 1.156939e-002
3.585020e+003, 1.160572e-002
3.586948e+003, 1.198553e-002
3.588876e+003, 1.200691e-002
3.590805e+003, 1.256736e-002
3.592733e+003, 1.281166e-002
3.594662e+003, 1.136888e-002
3.596590e+003, 1.132123e-002
3.598519e+003, 1.108921e-002
3.600447e+003, 1.110273e-002
3.602376e+003, 1.163565e-002
3.604304e+003, 1.072766e-002
3.606233e+003, 1.148752e-002
3.608161e+003, 1.176365e-002
3.610090e+003, 1.186621e-002
3.612018e+003, 1.194710e-002
3.613947e+003, 1.195991e-002
3.615875e+003, 1.192120e-002
3.617803e+003, 1.185470e-002
3.619732e+003, 1.211467e-002
3.621660e+003, 1.301945e-002
3.623589e+003, 1.403243e-002
3.625517e+003, 1.314333e-002
3.627446e+003, 1.354151e-002
3.629374e+003, 1.437504e-002
3.631303e+003, 1.400154e-002
3.633231e+003, 1.373282e-002
3.635160e+003, 1.433041e-002
3.637088e+003, 1.441865e-002
3.639017e+003, 1.384442e-002
3.640945e+003, 1.273230e-002
3.642874e+003, 1.270191e-002
3.644802e+003, 1.371055e-002
3.646730e+003, 1.309174e-002
3.648659e+003, 1.231497e-002
3.650587e+003, 1.247343e-002
3.652516e+003, 1.198526e-002
3.654444e+003, 1.258834e-002
3.656373e+003, 1.378215e-002
3.658301e+003, 1.276374e-002
3.660230e+003, 1.072589e-002
3.662158e+003, 1.080877e-002
3.664087e+003, 1.106263e-002
3.666015e+003, 1.146340e-002
3.667944e+003, 1.264875e-002
3.669872e+003, 1.367011e-002
3.671801e+003, 1.286044e-002
3.673729e+003, 1.074576e-002
3.675657e+003, 1.165768e-002
3.677586e+003, 1.213845e-002
3.679514e+003, 1.247855e-002
3.681443e+003, 1.316094e-002
3.683371e+003, 1.388478e-002
3.685300e+003, 1.334151e-002
3.687228e+003, 1.157050e-002
3.689157e+003, 1.325230e-002
3.691085e+003, 1.413130e-002
3.693014e+003, 1.339989e-002
3.694942e+003, 1.299323e-002
3.696871e+003, 1.388672e-002
3.698799e+003, 1.391119e-002
3.700728e+003, 1.257790e-002
3.702656e+003, 1.291852e-002
3.704584e+003, 1.247603e-002
3.706513e+003, 1.251777e-002
3.708441e+003, 1.393030e-002
3.710370e+003, 1.404423e-002
3.712298e+003, 1.222913e-002
3.714227e+003, 1.215023e-002
3.716155e+003, 1.342020e-002
3.718084e+003, 1.427592e-002
3.720012e+003, 1.402167e-002
3.721941e+003, 1.339259e-002
3.723869e+003, 1.213874e-002
3.725798e+003, 1.225990e-002
3.727726e+003, 1.320352e-002
3.729655e+003, 1.307770e-002
3.731583e+003, 1.314161e-002
3.733511e+003, 1.275519e-002
3.735440e+003, 1.185956e-002
3.737368e+003, 1.237621e-002
3.739297e+003, 1.177274e-002
3.741225e+003, 1.100268e-002
3.743154e+003, 1.080852e-002
3.745082e+003, 1.226047e-002
3.747011e+003, 1.201157e-002
3.748939e+003, 1.167219e-002
3.750868e+003, 1.293409e-002
3.752796e+003, 1.466273e-002
3.754725e+003, 1.502164e-002
3.756653e+003, 1.388946e-002
3.758582e+003, 1.229634e-002
3.760510e+003, 1.176570e-002
3.762438e+003, 1.234429e-002
3.764367e+003, 1.350024e-002
3.766295e+003, 1.436138e-002
3.768224e+003, 1.436379e-002
3.770152e+003, 1.323803e-002
3.772081e+003, 1.227419e-002
3.774009e+003, 1.277561e-002
3.775938e+003, 1.456081e-002
3.777866e+003, 1.456673e-002
3.779795e+003, 1.478905e-002
3.781723e+003, 1.404655e-002
3.783652e+003, 1.333754e-002
3.785580e+003, 1.386553e-002
3.787509e+003, 1.358378e-002
3.789437e+003, 1.312561e-002
3.791365e+003, 1.343283e-002
3.793294e+003, 1.361183e-002
3.795222e+003, 1.354547e-002
3.797151e+003, 1.307455e-002
3.799079e+003, 1.213040e-002
3.801008e+003, 1.376987e-002
3.802936e+003, 1.412559e-002
3.804865e+003, 1.322475e-002
3.806793e+003, 1.419649e-002
3.808722e+003, 1.575410e-002
3.810650e+003, 1.516257e-002
3.812579e+003, 1.505975e-002
3.814507e+003, 1.448541e-002
3.816436e+003, 1.309942e-002
3.818364e+003, 1.295335e-002
3.820292e+003, 1.289315e-002
3.822221e+003, 1.193603e-002
3.824149e+003, 1.335768e-002
3.826078e+003, 1.420820e-002
3.828006e+003, 1.403767e-002
3.829935e+003, 1.293874e-002
3.831863e+003, 1.208683e-002
3.833792e+003, 1.261875e-002
3.835720e+003, 1.330931e-002
3.837649e+003, 1.400815e-002
3.839577e+003, 1.347225e-002
3.841506e+003, 1.277030e-002
3.843434e+003, 1.310441e-002
3.845363e+003, 1.370810e-002
3.847291e+003, 1.313069e-002
3.849219e+003, 1.223705e-002
3.851148e+003, 1.254602e-002
3.853076e+003, 1.299343e-002
3.855005e+003, 1.268102e-002
3.856933e+003, 1.253855e-002
3.858862e+003, 1.257000e-002
3.860790e+003, 1.160938e-002
3.862719e+003, 1.167914e-002
3.864647e+003, 1.192187e-002
3.866576e+003, 1.342860e-002
3.868504e+003, 1.351117e-002
3.870433e+003, 1.339810e-002
3.872361e+003, 1.375609e-002
3.874290e+003, 1.447519e-002
3.876218e+003, 1.515613e-002
3.878146e+003, 1.446522e-002
3.880075e+003, 1.349256e-002
3.882003e+003, 1.411296e-002
3.883932e+003, 1.434246e-002
3.885860e+003, 1.442300e-002
3.887789e+003, 1.348682e-002
3.889717e+003, 1.271009e-002
3.891646e+003, 1.383308e-002
3.893574e+003, 1.447031e-002
3.895503e+003, 1.467887e-002
3.897431e+003, 1.539452e-002
3.899360e+003, 1.564927e-002
3.901288e+003, 1.546570e-002
3.903217e+003, 1.362895e-002
3.905145e+003, 1.339579e-002
3.907073e+003, 1.408029e-002
3.909002e+003, 1.399335e-002
3.910930e+003, 1.605740e-002
3.912859e+003, 1.599164e-002
3.914787e+003, 1.318064e-002
3.916716e+003, 1.222347e-002
3.918644e+003, 1.399575e-002
3.920573e+003, 1.545861e-002
3.922501e+003, 1.458905e-002
3.924430e+003, 1.504728e-002
3.926358e+003, 1.502263e-002
3.928287e+003, 1.484615e-002
3.930215e+003, 1.521801e-002
3.932144e+003, 1.313439e-002
3.934072e+003, 1.284899e-002
3.936000e+003, 1.526464e-002
3.937929e+003, 1.519089e-002
3.939857e+003, 1.445886e-002
3.941786e+003, 1.587440e-002
3.943714e+003, 1.524806e-002
3.945643e+003, 1.426512e-002
3.947571e+003, 1.408886e-002
3.949500e+003, 1.417719e-002
3.951428e+003, 1.430932e-002
3.953357e+003, 1.415461e-002
3.955285e+003, 1.405942e-002
3.957214e+003, 1.264234e-002
3.959142e+003, 1.164464e-002
3.961071e+003, 1.213503e-002
3.962999e+003, 1.340905e-002
3.964927e+003, 1.487372e-002
3.966856e+003, 1.609984e-002
3.968784e+003, 1.556134e-002
3.970713e+003, 1.425554e-002
3.972641e+003, 1.508090e-002
3.974570e+003, 1.617657e-002
3.976498e+003, 1.497604e-002
3.978427e+003, 1.313769e-002
3.980355e+003, 1.370571e-002
3.982284e+003, 1.569226e-002
3.984212e+003, 1.606782e-002
3.986141e+003, 1.407843e-002
3.988069e+003, 1.287508e-002
3.989998e+003, 1.307805e-002
3.991926e+003, 1.367570e-002
3.993854e+003, 1.453167e-002
3.995783e+003, 1.535754e-002
3.997711e+003, 1.492984e-002
3.999640e+003, 1.493618e-002
##END=



