##NAMES=Calcite
##RRUFFID=R050128
##IDEAL CHEMISTRY=CaCO_3_
##LOCALITY=Tie Siding, Albany County, Wyoming, USA
##OWNER=RRUFF
##SOURCE=Dave Bunk Minerals
##DESCRIPTION=Pseudomorph after aragonite, not single crystal. Trace of aragonite still present.
##STATUS=The identification of this mineral has been confirmed by X-ray diffraction and chemical analysis
##URL=rruff.info/R050128
##MEASURED CHEMISTRY=Ca_1.00_CO_3_
5.014013e+001, 2.030872e-002
5.206860e+001, 2.282178e-002
5.399707e+001, 2.167287e-002
5.592553e+001, 2.471086e-002
5.785400e+001, 2.816250e-002
5.978246e+001, 2.747298e-002
6.171093e+001, 2.397017e-002
6.363940e+001, 2.707863e-002
6.556786e+001, 2.735129e-002
6.749633e+001, 2.953001e-002
6.942480e+001, 3.403546e-002
7.135326e+001, 4.157539e-002
7.328172e+001, 3.883878e-002
7.521019e+001, 3.819420e-002
7.713866e+001, 4.065773e-002
7.906712e+001, 4.288166e-002
8.099559e+001, 4.120947e-002
8.292406e+001, 4.434983e-002
8.485252e+001, 4.926913e-002
8.678099e+001, 4.973900e-002
8.870946e+001, 4.816141e-002
9.063792e+001, 4.725935e-002
9.256638e+001, 4.813169e-002
9.449485e+001, 5.164881e-002
9.642332e+001, 5.183028e-002
9.835178e+001, 5.220707e-002
1.002803e+002, 5.082444e-002
1.022087e+002, 4.880668e-002
1.041372e+002, 4.593058e-002
1.060657e+002, 4.348456e-002
1.079941e+002, 4.213341e-002
1.099226e+002, 4.077631e-002
1.118510e+002, 3.758500e-002
1.137795e+002, 3.441653e-002
1.157080e+002, 3.152728e-002
1.176364e+002, 2.927919e-002
1.195649e+002, 2.813107e-002
1.214934e+002, 2.647327e-002
1.234218e+002, 2.523210e-002
1.253503e+002, 2.544562e-002
1.272788e+002, 2.455959e-002
1.292072e+002, 2.294919e-002
1.311357e+002, 2.195875e-002
1.330642e+002, 2.042246e-002
1.349926e+002, 1.918208e-002
1.369211e+002, 1.934632e-002
1.388496e+002, 2.006413e-002
1.407780e+002, 2.070755e-002
1.427065e+002, 2.130582e-002
1.446350e+002, 2.228396e-002
1.465634e+002, 2.366885e-002
1.484919e+002, 2.550964e-002
1.504204e+002, 2.782308e-002
1.523488e+002, 2.964650e-002
1.542773e+002, 3.085618e-002
1.562058e+002, 3.284946e-002
1.581342e+002, 3.541347e-002
1.600627e+002, 3.743223e-002
1.619912e+002, 3.885885e-002
1.639196e+002, 4.110495e-002
1.658481e+002, 4.372373e-002
1.677766e+002, 4.578358e-002
1.697050e+002, 4.781401e-002
1.716335e+002, 4.996792e-002
1.735620e+002, 5.144456e-002
1.754904e+002, 5.292685e-002
1.774189e+002, 5.456575e-002
1.793474e+002, 5.662523e-002
1.812758e+002, 5.839386e-002
1.832043e+002, 6.006092e-002
1.851328e+002, 6.258633e-002
1.870612e+002, 6.465030e-002
1.889897e+002, 6.619184e-002
1.909182e+002, 6.888421e-002
1.928466e+002, 7.136869e-002
1.947751e+002, 7.378341e-002
1.967036e+002, 7.604489e-002
1.986320e+002, 7.906950e-002
2.005605e+002, 8.161511e-002
2.024890e+002, 8.460820e-002
2.044174e+002, 8.701222e-002
2.063459e+002, 8.940128e-002
2.082744e+002, 9.210581e-002
2.102028e+002, 9.486849e-002
2.121313e+002, 9.752816e-002
2.140598e+002, 1.010976e-001
2.159882e+002, 1.040150e-001
2.179167e+002, 1.066851e-001
2.198452e+002, 1.083539e-001
2.217736e+002, 1.097426e-001
2.237021e+002, 1.091860e-001
2.256305e+002, 1.066725e-001
2.275590e+002, 1.020481e-001
2.294875e+002, 9.544291e-002
2.314159e+002, 8.843795e-002
2.333444e+002, 8.134998e-002
2.352729e+002, 7.470063e-002
2.372013e+002, 6.971080e-002
2.391298e+002, 6.751554e-002
2.410583e+002, 6.828225e-002
2.429867e+002, 7.085418e-002
2.449152e+002, 7.455543e-002
2.468437e+002, 7.831842e-002
2.487721e+002, 8.300340e-002
2.507006e+002, 8.744454e-002
2.526291e+002, 9.159893e-002
2.545575e+002, 9.608129e-002
2.564860e+002, 1.002929e-001
2.584145e+002, 1.038650e-001
2.603429e+002, 1.072277e-001
2.622714e+002, 1.105378e-001
2.641999e+002, 1.143421e-001
2.661283e+002, 1.173393e-001
2.680568e+002, 1.203329e-001
2.699853e+002, 1.232281e-001
2.719137e+002, 1.259693e-001
2.738422e+002, 1.284931e-001
2.757707e+002, 1.316256e-001
2.776991e+002, 1.346591e-001
2.796276e+002, 1.375324e-001
2.815561e+002, 1.393149e-001
2.834845e+002, 1.413183e-001
2.854130e+002, 1.433161e-001
2.873415e+002, 1.451432e-001
2.892699e+002, 1.464564e-001
2.911984e+002, 1.479879e-001
2.931269e+002, 1.485938e-001
2.950553e+002, 1.487235e-001
2.969838e+002, 1.479281e-001
2.989123e+002, 1.461423e-001
3.008407e+002, 1.440003e-001
3.027692e+002, 1.415779e-001
3.046977e+002, 1.385272e-001
3.066261e+002, 1.356871e-001
3.085546e+002, 1.321496e-001
3.104831e+002, 1.283635e-001
3.124115e+002, 1.243541e-001
3.143400e+002, 1.205903e-001
3.162685e+002, 1.167064e-001
3.181969e+002, 1.128285e-001
3.201254e+002, 1.094748e-001
3.220539e+002, 1.060996e-001
3.239823e+002, 1.026885e-001
3.259108e+002, 9.970685e-002
3.278392e+002, 9.651256e-002
3.297677e+002, 9.308210e-002
3.316962e+002, 8.981941e-002
3.336246e+002, 8.712397e-002
3.355531e+002, 8.457625e-002
3.374816e+002, 8.183855e-002
3.394100e+002, 7.929578e-002
3.413385e+002, 7.681268e-002
3.432670e+002, 7.443094e-002
3.451954e+002, 7.225477e-002
3.471239e+002, 7.010093e-002
3.490524e+002, 6.803277e-002
3.509808e+002, 6.612404e-002
3.529093e+002, 6.398284e-002
3.548378e+002, 6.203692e-002
3.567662e+002, 6.017328e-002
3.586947e+002, 5.844301e-002
3.606232e+002, 5.656347e-002
3.625516e+002, 5.481274e-002
3.644801e+002, 5.327746e-002
3.664086e+002, 5.167694e-002
3.683370e+002, 5.023794e-002
3.702655e+002, 4.917676e-002
3.721940e+002, 4.788649e-002
3.741224e+002, 4.643457e-002
3.760509e+002, 4.488454e-002
3.779794e+002, 4.317619e-002
3.799078e+002, 4.156438e-002
3.818363e+002, 4.027179e-002
3.837648e+002, 3.893894e-002
3.856932e+002, 3.758685e-002
3.876217e+002, 3.653346e-002
3.895502e+002, 3.569613e-002
3.914786e+002, 3.481079e-002
3.934071e+002, 3.388658e-002
3.953356e+002, 3.310046e-002
3.972640e+002, 3.230320e-002
3.991925e+002, 3.135791e-002
4.011210e+002, 3.051266e-002
4.030494e+002, 3.003973e-002
4.049779e+002, 2.976458e-002
4.069064e+002, 2.946365e-002
4.088348e+002, 2.928431e-002
4.107633e+002, 2.906117e-002
4.126917e+002, 2.880250e-002
4.146202e+002, 2.869724e-002
4.165487e+002, 2.860660e-002
4.184771e+002, 2.840902e-002
4.204056e+002, 2.816110e-002
4.223341e+002, 2.787020e-002
4.242625e+002, 2.769042e-002
4.261910e+002, 2.756454e-002
4.281195e+002, 2.759018e-002
4.300479e+002, 2.736315e-002
4.319764e+002, 2.715221e-002
4.339049e+002, 2.690773e-002
4.358333e+002, 2.660603e-002
4.377618e+002, 2.631512e-002
4.396903e+002, 2.614427e-002
4.416187e+002, 2.599895e-002
4.435472e+002, 2.616744e-002
4.454757e+002, 2.603282e-002
4.474041e+002, 2.560810e-002
4.493326e+002, 2.554517e-002
4.512611e+002, 2.578252e-002
4.531895e+002, 2.576196e-002
4.551180e+002, 2.579900e-002
4.570465e+002, 2.577772e-002
4.589749e+002, 2.561305e-002
4.609034e+002, 2.544048e-002
4.628319e+002, 2.511109e-002
4.647603e+002, 2.511568e-002
4.666888e+002, 2.530327e-002
4.686173e+002, 2.516045e-002
4.705457e+002, 2.493622e-002
4.724742e+002, 2.486654e-002
4.744027e+002, 2.493844e-002
4.763311e+002, 2.476786e-002
4.782596e+002, 2.469686e-002
4.801881e+002, 2.479433e-002
4.821165e+002, 2.469549e-002
4.840450e+002, 2.487345e-002
4.859735e+002, 2.468253e-002
4.879019e+002, 2.463107e-002
4.898304e+002, 2.462208e-002
4.917589e+002, 2.438373e-002
4.936873e+002, 2.444248e-002
4.956158e+002, 2.451598e-002
4.975443e+002, 2.437211e-002
4.994727e+002, 2.397685e-002
5.014012e+002, 2.385506e-002
5.033297e+002, 2.383314e-002
5.052581e+002, 2.399862e-002
5.071866e+002, 2.408000e-002
5.091151e+002, 2.363953e-002
5.110435e+002, 2.316809e-002
5.129720e+002, 2.283414e-002
5.149005e+002, 2.268859e-002
5.168289e+002, 2.268562e-002
5.187574e+002, 2.281601e-002
5.206859e+002, 2.294942e-002
5.226143e+002, 2.289285e-002
5.245428e+002, 2.301960e-002
5.264713e+002, 2.309439e-002
5.283997e+002, 2.321771e-002
5.303282e+002, 2.324630e-002
5.322567e+002, 2.327820e-002
5.341851e+002, 2.303220e-002
5.361136e+002, 2.268212e-002
5.380421e+002, 2.282161e-002
5.399705e+002, 2.304630e-002
5.418990e+002, 2.284142e-002
5.438275e+002, 2.261834e-002
5.457559e+002, 2.248213e-002
5.476844e+002, 2.251153e-002
5.496129e+002, 2.283815e-002
5.515413e+002, 2.298581e-002
5.534698e+002, 2.289387e-002
5.553983e+002, 2.295041e-002
5.573267e+002, 2.285913e-002
5.592552e+002, 2.258894e-002
5.611837e+002, 2.254328e-002
5.631121e+002, 2.279856e-002
5.650406e+002, 2.283671e-002
5.669691e+002, 2.292849e-002
5.688975e+002, 2.305382e-002
5.708260e+002, 2.331368e-002
5.727545e+002, 2.368846e-002
5.746829e+002, 2.385626e-002
5.766114e+002, 2.397010e-002
5.785399e+002, 2.394943e-002
5.804683e+002, 2.424833e-002
5.823968e+002, 2.453206e-002
5.843253e+002, 2.436039e-002
5.862537e+002, 2.423820e-002
5.881822e+002, 2.438291e-002
5.901107e+002, 2.421427e-002
5.920391e+002, 2.372793e-002
5.939676e+002, 2.347430e-002
5.958961e+002, 2.320667e-002
5.978245e+002, 2.315368e-002
5.997530e+002, 2.273620e-002
6.016815e+002, 2.218451e-002
6.036099e+002, 2.214484e-002
6.055384e+002, 2.231717e-002
6.074669e+002, 2.208612e-002
6.093953e+002, 2.169455e-002
6.113238e+002, 2.142807e-002
6.132523e+002, 2.151275e-002
6.151807e+002, 2.150283e-002
6.171091e+002, 2.109975e-002
6.190376e+002, 2.120106e-002
6.209661e+002, 2.181423e-002
6.228945e+002, 2.236920e-002
6.248230e+002, 2.288029e-002
6.267515e+002, 2.366905e-002
6.286799e+002, 2.484109e-002
6.306084e+002, 2.596669e-002
6.325369e+002, 2.654102e-002
6.344653e+002, 2.670515e-002
6.363938e+002, 2.675407e-002
6.383223e+002, 2.670556e-002
6.402507e+002, 2.697914e-002
6.421792e+002, 2.740720e-002
6.441077e+002, 2.733407e-002
6.460361e+002, 2.748016e-002
6.479646e+002, 2.767076e-002
6.498931e+002, 2.765809e-002
6.518215e+002, 2.780423e-002
6.537500e+002, 2.810576e-002
6.556785e+002, 2.835738e-002
6.576069e+002, 2.870820e-002
6.595354e+002, 2.901640e-002
6.614639e+002, 2.909219e-002
6.633923e+002, 2.929184e-002
6.653208e+002, 2.932404e-002
6.672493e+002, 2.954177e-002
6.691777e+002, 2.978443e-002
6.711062e+002, 2.981966e-002
6.730347e+002, 2.963158e-002
6.749631e+002, 2.999044e-002
6.768916e+002, 3.064569e-002
6.788201e+002, 3.159898e-002
6.807485e+002, 3.177943e-002
6.826770e+002, 3.167754e-002
6.846055e+002, 3.216705e-002
6.865339e+002, 3.234478e-002
6.884624e+002, 3.248439e-002
6.903909e+002, 3.377913e-002
6.923193e+002, 3.468599e-002
6.942478e+002, 3.446039e-002
6.961763e+002, 3.503998e-002
6.981047e+002, 3.672236e-002
7.000332e+002, 3.818604e-002
##END=



