##NAMES=Calcite
##RRUFFID=R050127
##IDEAL CHEMISTRY=CaCO_3_
##LOCALITY=Rodeo, Durango, Mexico
##OWNER=RRUFF
##SOURCE=Dave Bunk Minerals
##DESCRIPTION=Group of colorless crystals
##STATUS=The identification of this mineral has been confirmed by X-ray diffraction and chemical analysis
##URL=rruff.info/R050127
##MEASURED CHEMISTRY=Ca_1.00_CO_3_
3.741225e+002, 4.307688e-002
3.760510e+002, 3.740668e-002
3.779795e+002, 3.900431e-002
3.799079e+002, 4.242237e-002
3.818364e+002, 3.939548e-002
3.837649e+002, 3.313230e-002
3.856933e+002, 3.373322e-002
3.876218e+002, 2.936795e-002
3.895503e+002, 2.180218e-002
3.914787e+002, 1.963950e-002
3.934072e+002, 2.331490e-002
3.953357e+002, 2.586329e-002
3.972641e+002, 2.824252e-002
3.991926e+002, 2.471569e-002
4.011211e+002, 2.679207e-002
4.030495e+002, 2.341839e-002
4.049780e+002, 1.954525e-002
4.069065e+002, 2.038409e-002
4.088349e+002, 2.121240e-002
4.107634e+002, 1.974191e-002
4.126919e+002, 1.910790e-002
4.146203e+002, 1.875147e-002
4.165488e+002, 2.021815e-002
4.184773e+002, 1.934478e-002
4.204057e+002, 1.922702e-002
4.223342e+002, 1.992024e-002
4.242627e+002, 1.941608e-002
4.261911e+002, 1.841795e-002
4.281196e+002, 1.820429e-002
4.300481e+002, 1.734991e-002
4.319765e+002, 1.637706e-002
4.339050e+002, 1.632752e-002
4.358335e+002, 1.601102e-002
4.377619e+002, 1.507217e-002
4.396904e+002, 1.544631e-002
4.416189e+002, 1.545372e-002
4.435473e+002, 1.611222e-002
4.454758e+002, 1.594032e-002
4.474043e+002, 1.478724e-002
4.493327e+002, 1.421214e-002
4.512612e+002, 1.528843e-002
4.531897e+002, 1.507154e-002
4.551181e+002, 1.438029e-002
4.570466e+002, 1.459376e-002
4.589751e+002, 1.578755e-002
4.609035e+002, 1.498542e-002
4.628320e+002, 1.335453e-002
4.647605e+002, 1.327591e-002
4.666889e+002, 1.358102e-002
4.686174e+002, 1.319168e-002
4.705459e+002, 1.243685e-002
4.724743e+002, 1.203509e-002
4.744028e+002, 1.300917e-002
4.763313e+002, 1.419770e-002
4.782597e+002, 1.402813e-002
4.801882e+002, 1.345575e-002
4.821167e+002, 1.385836e-002
4.840451e+002, 1.400764e-002
4.859736e+002, 1.334307e-002
4.879021e+002, 1.249592e-002
4.898305e+002, 1.230571e-002
4.917590e+002, 1.209275e-002
4.936875e+002, 1.194206e-002
4.956159e+002, 1.176018e-002
4.975444e+002, 1.171025e-002
4.994729e+002, 1.128206e-002
5.014013e+002, 1.079020e-002
5.033298e+002, 1.065956e-002
5.052583e+002, 1.040727e-002
5.071867e+002, 9.753647e-003
5.091152e+002, 9.484100e-003
5.110437e+002, 9.541680e-003
5.129721e+002, 9.919099e-003
5.149006e+002, 9.818244e-003
5.168290e+002, 8.979834e-003
5.187575e+002, 8.399115e-003
5.206860e+002, 8.577140e-003
5.226144e+002, 8.676867e-003
5.245429e+002, 8.361742e-003
5.264714e+002, 8.364073e-003
5.283998e+002, 8.144198e-003
5.303283e+002, 7.873653e-003
5.322568e+002, 7.817768e-003
5.341852e+002, 8.107797e-003
5.361137e+002, 8.028468e-003
5.380422e+002, 7.748538e-003
5.399706e+002, 7.780934e-003
5.418991e+002, 7.528896e-003
5.438276e+002, 7.277819e-003
5.457560e+002, 7.393644e-003
5.476845e+002, 7.342237e-003
5.496130e+002, 7.253360e-003
5.515414e+002, 7.213054e-003
5.534699e+002, 7.152281e-003
5.553984e+002, 6.374853e-003
5.573268e+002, 6.086927e-003
5.592553e+002, 6.879395e-003
5.611838e+002, 7.258611e-003
5.631122e+002, 7.105602e-003
5.650407e+002, 6.948211e-003
5.669692e+002, 6.856076e-003
5.688976e+002, 7.026667e-003
5.708261e+002, 7.405368e-003
5.727546e+002, 7.494313e-003
5.746830e+002, 7.393945e-003
5.766115e+002, 7.289966e-003
5.785400e+002, 7.172862e-003
5.804684e+002, 7.174192e-003
5.823969e+002, 7.417411e-003
5.843254e+002, 7.506995e-003
5.862538e+002, 7.259646e-003
5.881823e+002, 7.380839e-003
5.901108e+002, 7.486624e-003
5.920392e+002, 7.696193e-003
5.939677e+002, 7.670915e-003
5.958962e+002, 7.361599e-003
5.978246e+002, 7.347071e-003
5.997531e+002, 7.486154e-003
6.016816e+002, 7.045611e-003
6.036100e+002, 6.866646e-003
6.055385e+002, 7.063403e-003
6.074670e+002, 6.916845e-003
6.093954e+002, 6.823207e-003
6.113239e+002, 6.996529e-003
6.132524e+002, 7.141089e-003
6.151808e+002, 7.372225e-003
6.171093e+002, 7.231329e-003
6.190378e+002, 7.020106e-003
6.209662e+002, 7.012642e-003
6.228947e+002, 7.212647e-003
6.248232e+002, 7.263470e-003
6.267516e+002, 7.101359e-003
6.286801e+002, 6.942578e-003
6.306086e+002, 7.090615e-003
6.325370e+002, 7.116148e-003
6.344655e+002, 6.833881e-003
6.363940e+002, 6.675905e-003
6.383224e+002, 6.837766e-003
6.402509e+002, 6.759094e-003
6.421794e+002, 6.825959e-003
6.441078e+002, 6.821307e-003
6.460363e+002, 6.791176e-003
6.479648e+002, 6.927126e-003
6.498932e+002, 7.379877e-003
6.518217e+002, 7.610136e-003
6.537502e+002, 7.491655e-003
6.556786e+002, 7.289710e-003
6.576071e+002, 7.271251e-003
6.595356e+002, 7.348396e-003
6.614641e+002, 7.592204e-003
6.633925e+002, 7.495444e-003
6.653210e+002, 7.385131e-003
6.672495e+002, 7.763938e-003
6.691779e+002, 7.844641e-003
6.711064e+002, 7.787461e-003
6.730349e+002, 8.021413e-003
6.749633e+002, 8.151234e-003
6.768918e+002, 8.406397e-003
6.788203e+002, 8.634065e-003
6.807487e+002, 8.941719e-003
6.826772e+002, 9.410938e-003
6.846057e+002, 9.660848e-003
6.865341e+002, 9.487379e-003
6.884626e+002, 9.501430e-003
6.903911e+002, 9.910245e-003
6.923195e+002, 1.077155e-002
6.942480e+002, 1.136084e-002
6.961765e+002, 1.221284e-002
6.981049e+002, 1.342783e-002
7.000334e+002, 1.507322e-002
7.019619e+002, 1.733874e-002
7.038903e+002, 2.115197e-002
7.058188e+002, 2.823007e-002
7.077473e+002, 4.572827e-002
7.096757e+002, 8.557122e-002
7.116042e+002, 1.287893e-001
7.135327e+002, 1.106846e-001
7.154611e+002, 5.947120e-002
7.173896e+002, 2.917355e-002
7.193181e+002, 1.724242e-002
7.212465e+002, 1.278858e-002
7.231750e+002, 1.080144e-002
7.251035e+002, 9.643186e-003
7.270319e+002, 9.003215e-003
7.289604e+002, 8.534589e-003
7.308889e+002, 8.343826e-003
7.328173e+002, 8.540585e-003
7.347458e+002, 8.566185e-003
7.366743e+002, 8.394937e-003
7.386027e+002, 8.187592e-003
7.405312e+002, 8.003741e-003
7.424597e+002, 7.931861e-003
7.443881e+002, 7.952261e-003
7.463166e+002, 7.910344e-003
7.482451e+002, 7.887091e-003
7.501735e+002, 7.933982e-003
7.521020e+002, 8.024120e-003
7.540305e+002, 8.142726e-003
7.559589e+002, 8.100260e-003
7.578874e+002, 8.226496e-003
7.598159e+002, 8.453790e-003
7.617443e+002, 8.571277e-003
7.636728e+002, 8.711048e-003
7.656013e+002, 8.983592e-003
7.675297e+002, 9.066815e-003
7.694582e+002, 9.247111e-003
7.713867e+002, 9.315064e-003
7.733151e+002, 9.531757e-003
7.752436e+002, 9.629001e-003
7.771721e+002, 9.704392e-003
7.791005e+002, 9.764395e-003
7.810290e+002, 9.723417e-003
7.829575e+002, 9.683012e-003
7.848859e+002, 9.815915e-003
7.868144e+002, 9.680153e-003
7.887429e+002, 9.771475e-003
7.906713e+002, 9.790433e-003
7.925998e+002, 9.676340e-003
7.945283e+002, 9.756830e-003
7.964567e+002, 1.003953e-002
7.983852e+002, 1.010592e-002
8.003137e+002, 1.025974e-002
8.022421e+002, 1.027362e-002
8.041706e+002, 1.043399e-002
8.060991e+002, 1.044421e-002
8.080275e+002, 1.049250e-002
8.099560e+002, 1.077148e-002
8.118845e+002, 1.136298e-002
8.138129e+002, 1.158972e-002
8.157414e+002, 1.180898e-002
8.176699e+002, 1.182802e-002
8.195983e+002, 1.206683e-002
8.215268e+002, 1.245745e-002
8.234553e+002, 1.280070e-002
8.253837e+002, 1.301735e-002
8.273122e+002, 1.347076e-002
8.292407e+002, 1.400931e-002
8.311691e+002, 1.474378e-002
8.330976e+002, 1.544211e-002
8.350261e+002, 1.643882e-002
8.369545e+002, 1.732108e-002
8.388830e+002, 1.863957e-002
8.408115e+002, 2.015344e-002
8.427399e+002, 2.297397e-002
8.446684e+002, 2.897719e-002
8.465969e+002, 4.136575e-002
8.485253e+002, 4.433755e-002
8.504538e+002, 3.536475e-002
8.523823e+002, 3.461010e-002
8.543107e+002, 4.051321e-002
8.562392e+002, 5.004865e-002
8.581677e+002, 6.344461e-002
8.600961e+002, 8.357111e-002
8.620246e+002, 1.131758e-001
8.639531e+002, 1.541778e-001
8.658815e+002, 2.071326e-001
8.678100e+002, 2.750001e-001
8.697385e+002, 3.461195e-001
8.716669e+002, 3.786033e-001
8.735954e+002, 3.546301e-001
8.755239e+002, 3.064039e-001
8.774523e+002, 2.543283e-001
8.793808e+002, 2.034389e-001
8.813093e+002, 1.572195e-001
8.832377e+002, 1.146187e-001
8.851662e+002, 7.011212e-002
8.870947e+002, 3.558269e-002
8.890231e+002, 2.101666e-002
8.909516e+002, 1.765220e-002
8.928801e+002, 1.686225e-002
8.948085e+002, 1.662267e-002
8.967370e+002, 1.672859e-002
8.986655e+002, 1.677777e-002
9.005939e+002, 1.667929e-002
9.025224e+002, 1.668171e-002
9.044509e+002, 1.675350e-002
9.063793e+002, 1.679170e-002
9.083078e+002, 1.679046e-002
9.102363e+002, 1.672331e-002
9.121647e+002, 1.687967e-002
9.140932e+002, 1.678757e-002
9.160217e+002, 1.662799e-002
9.179501e+002, 1.676024e-002
9.198786e+002, 1.705136e-002
9.218071e+002, 1.742711e-002
9.237355e+002, 1.767308e-002
9.256640e+002, 1.763492e-002
9.275925e+002, 1.777315e-002
9.295209e+002, 1.796186e-002
9.314494e+002, 1.802688e-002
9.333779e+002, 1.800290e-002
9.353063e+002, 1.810259e-002
9.372348e+002, 1.827274e-002
9.391633e+002, 1.817617e-002
9.410917e+002, 1.816280e-002
9.430202e+002, 1.845773e-002
9.449487e+002, 1.837503e-002
9.468771e+002, 1.832749e-002
9.488056e+002, 1.828416e-002
9.507341e+002, 1.828220e-002
9.526625e+002, 1.824430e-002
9.545910e+002, 1.816737e-002
9.565195e+002, 1.832041e-002
9.584479e+002, 1.853096e-002
9.603764e+002, 1.842571e-002
9.623049e+002, 1.842556e-002
9.642333e+002, 1.839114e-002
9.661618e+002, 1.826876e-002
9.680903e+002, 1.836011e-002
9.700187e+002, 1.849621e-002
9.719472e+002, 1.857384e-002
9.738757e+002, 1.867487e-002
9.758041e+002, 1.859551e-002
9.777326e+002, 1.864804e-002
9.796611e+002, 1.869581e-002
9.815895e+002, 1.867977e-002
9.835180e+002, 1.873070e-002
9.854465e+002, 1.874576e-002
9.873749e+002, 1.856856e-002
9.893034e+002, 1.854521e-002
9.912319e+002, 1.864954e-002
9.931603e+002, 1.884685e-002
9.950888e+002, 1.912975e-002
9.970173e+002, 1.925799e-002
9.989457e+002, 1.919054e-002
1.000874e+003, 1.926281e-002
1.002803e+003, 1.945886e-002
1.004731e+003, 1.977726e-002
1.006660e+003, 1.990165e-002
1.008588e+003, 2.005769e-002
1.010517e+003, 2.040268e-002
1.012445e+003, 2.071532e-002
1.014373e+003, 2.084448e-002
1.016302e+003, 2.103203e-002
1.018230e+003, 2.100182e-002
1.020159e+003, 2.101604e-002
1.022087e+003, 2.112196e-002
1.024016e+003, 2.138629e-002
1.025944e+003, 2.153587e-002
1.027873e+003, 2.163351e-002
1.029801e+003, 2.164949e-002
1.031730e+003, 2.158678e-002
1.033658e+003, 2.156287e-002
1.035587e+003, 2.183292e-002
1.037515e+003, 2.206564e-002
1.039443e+003, 2.218707e-002
1.041372e+003, 2.244969e-002
1.043300e+003, 2.263897e-002
1.045229e+003, 2.274766e-002
1.047157e+003, 2.325662e-002
1.049086e+003, 2.366482e-002
1.051014e+003, 2.388733e-002
1.052943e+003, 2.389774e-002
1.054871e+003, 2.412469e-002
1.056800e+003, 2.455551e-002
1.058728e+003, 2.478676e-002
1.060657e+003, 2.500538e-002
1.062585e+003, 2.543547e-002
1.064514e+003, 2.579250e-002
1.066442e+003, 2.606764e-002
1.068370e+003, 2.634286e-002
1.070299e+003, 2.660362e-002
1.072227e+003, 2.690718e-002
1.074156e+003, 2.747284e-002
1.076084e+003, 2.804347e-002
1.078013e+003, 2.864317e-002
1.079941e+003, 2.934150e-002
1.081870e+003, 3.019523e-002
1.083798e+003, 3.090140e-002
1.085727e+003, 3.150343e-002
1.087655e+003, 3.179794e-002
1.089584e+003, 3.195551e-002
1.091512e+003, 3.202758e-002
1.093441e+003, 3.172803e-002
1.095369e+003, 3.119348e-002
1.097297e+003, 3.100373e-002
1.099226e+003, 3.096824e-002
1.101154e+003, 3.093226e-002
1.103083e+003, 3.123605e-002
1.105011e+003, 3.179944e-002
1.106940e+003, 3.213730e-002
1.108868e+003, 3.253594e-002
1.110797e+003, 3.295281e-002
1.112725e+003, 3.339316e-002
1.114654e+003, 3.377546e-002
1.116582e+003, 3.424554e-002
1.118511e+003, 3.474500e-002
1.120439e+003, 3.520796e-002
1.122368e+003, 3.569104e-002
1.124296e+003, 3.632328e-002
1.126224e+003, 3.678941e-002
1.128153e+003, 3.733118e-002
1.130081e+003, 3.793050e-002
1.132010e+003, 3.854115e-002
1.133938e+003, 3.916286e-002
1.135867e+003, 3.980516e-002
1.137795e+003, 4.021071e-002
1.139724e+003, 4.085566e-002
1.141652e+003, 4.165137e-002
1.143581e+003, 4.241136e-002
1.145509e+003, 4.306548e-002
1.147438e+003, 4.399343e-002
1.149366e+003, 4.495307e-002
1.151295e+003, 4.590308e-002
1.153223e+003, 4.678665e-002
1.155151e+003, 4.775210e-002
1.157080e+003, 4.877092e-002
1.159008e+003, 5.017197e-002
1.160937e+003, 5.142122e-002
1.162865e+003, 5.221892e-002
1.164794e+003, 5.273077e-002
1.166722e+003, 5.349098e-002
1.168651e+003, 5.411363e-002
1.170579e+003, 5.472285e-002
1.172508e+003, 5.532552e-002
1.174436e+003, 5.599657e-002
1.176365e+003, 5.691178e-002
1.178293e+003, 5.763605e-002
1.180222e+003, 5.811262e-002
1.182150e+003, 5.874353e-002
1.184078e+003, 5.938745e-002
1.186007e+003, 6.003245e-002
1.187935e+003, 6.068205e-002
1.189864e+003, 6.149524e-002
1.191792e+003, 6.219381e-002
1.193721e+003, 6.276964e-002
1.195649e+003, 6.348200e-002
1.197578e+003, 6.441231e-002
1.199506e+003, 6.529040e-002
1.201435e+003, 6.628299e-002
1.203363e+003, 6.733000e-002
1.205292e+003, 6.847696e-002
1.207220e+003, 6.948350e-002
1.209149e+003, 7.051072e-002
1.211077e+003, 7.150648e-002
1.213005e+003, 7.270844e-002
1.214934e+003, 7.412618e-002
1.216862e+003, 7.576343e-002
1.218791e+003, 7.719243e-002
1.220719e+003, 7.853121e-002
1.222648e+003, 8.017563e-002
1.224576e+003, 8.187551e-002
1.226505e+003, 8.355440e-002
1.228433e+003, 8.540451e-002
1.230362e+003, 8.728196e-002
1.232290e+003, 8.904605e-002
1.234219e+003, 9.077918e-002
1.236147e+003, 9.280950e-002
1.238076e+003, 9.471238e-002
1.240004e+003, 9.673570e-002
1.241932e+003, 9.863224e-002
1.243861e+003, 1.006508e-001
1.245789e+003, 1.027512e-001
1.247718e+003, 1.049335e-001
1.249646e+003, 1.071854e-001
1.251575e+003, 1.095913e-001
1.253503e+003, 1.120713e-001
1.255432e+003, 1.147128e-001
1.257360e+003, 1.174201e-001
1.259289e+003, 1.202955e-001
1.261217e+003, 1.231883e-001
1.263146e+003, 1.261399e-001
1.265074e+003, 1.290674e-001
1.267003e+003, 1.321184e-001
1.268931e+003, 1.351562e-001
1.270859e+003, 1.382076e-001
1.272788e+003, 1.415327e-001
1.274716e+003, 1.452055e-001
1.276645e+003, 1.489638e-001
1.278573e+003, 1.528140e-001
1.280502e+003, 1.568624e-001
1.282430e+003, 1.610295e-001
1.284359e+003, 1.650477e-001
1.286287e+003, 1.691133e-001
1.288216e+003, 1.735082e-001
1.290144e+003, 1.780351e-001
1.292073e+003, 1.829359e-001
1.294001e+003, 1.882973e-001
1.295930e+003, 1.936547e-001
1.297858e+003, 1.992942e-001
1.299786e+003, 2.051494e-001
1.301715e+003, 2.114570e-001
1.303643e+003, 2.178397e-001
1.305572e+003, 2.242771e-001
1.307500e+003, 2.306152e-001
1.309429e+003, 2.371741e-001
1.311357e+003, 2.438402e-001
1.313286e+003, 2.506160e-001
1.315214e+003, 2.575444e-001
1.317143e+003, 2.647559e-001
1.319071e+003, 2.721821e-001
1.321000e+003, 2.801865e-001
1.322928e+003, 2.883370e-001
1.324857e+003, 2.966157e-001
1.326785e+003, 3.052536e-001
1.328714e+003, 3.142464e-001
1.330642e+003, 3.236516e-001
1.332570e+003, 3.336368e-001
1.334499e+003, 3.438028e-001
1.336427e+003, 3.547440e-001
1.338356e+003, 3.660044e-001
1.340284e+003, 3.775950e-001
1.342213e+003, 3.896852e-001
1.344141e+003, 4.020385e-001
1.346070e+003, 4.146559e-001
1.347998e+003, 4.278203e-001
1.349927e+003, 4.416203e-001
1.351855e+003, 4.560481e-001
1.353784e+003, 4.709603e-001
1.355712e+003, 4.863831e-001
1.357641e+003, 5.024076e-001
1.359569e+003, 5.193285e-001
1.361497e+003, 5.370570e-001
1.363426e+003, 5.549367e-001
1.365354e+003, 5.730608e-001
1.367283e+003, 5.921161e-001
1.369211e+003, 6.112005e-001
1.371140e+003, 6.301944e-001
1.373068e+003, 6.493251e-001
1.374997e+003, 6.685995e-001
1.376925e+003, 6.879592e-001
1.378854e+003, 7.075440e-001
1.380782e+003, 7.269333e-001
1.382711e+003, 7.463953e-001
1.384639e+003, 7.655110e-001
1.386568e+003, 7.836007e-001
1.388496e+003, 7.999280e-001
1.390424e+003, 8.136942e-001
1.392353e+003, 8.226672e-001
1.394281e+003, 8.263089e-001
1.396210e+003, 8.238025e-001
1.398138e+003, 8.168144e-001
1.400067e+003, 8.092298e-001
1.401995e+003, 8.057305e-001
1.403924e+003, 8.033556e-001
1.405852e+003, 7.953843e-001
1.407781e+003, 7.790000e-001
1.409709e+003, 7.580622e-001
1.411638e+003, 7.355159e-001
1.413566e+003, 7.131327e-001
1.415495e+003, 6.915267e-001
1.417423e+003, 6.713424e-001
1.419351e+003, 6.518854e-001
1.421280e+003, 6.333957e-001
1.423208e+003, 6.165105e-001
1.425137e+003, 6.007375e-001
1.427065e+003, 5.849063e-001
1.428994e+003, 5.696552e-001
1.430922e+003, 5.545571e-001
1.432851e+003, 5.398880e-001
1.434779e+003, 5.259252e-001
1.436708e+003, 5.129318e-001
1.438636e+003, 4.997624e-001
1.440565e+003, 4.862724e-001
1.442493e+003, 4.731202e-001
1.444422e+003, 4.607414e-001
1.446350e+003, 4.483739e-001
1.448278e+003, 4.361279e-001
1.450207e+003, 4.239117e-001
1.452135e+003, 4.120658e-001
1.454064e+003, 4.008428e-001
1.455992e+003, 3.902365e-001
1.457921e+003, 3.793366e-001
1.459849e+003, 3.685284e-001
1.461778e+003, 3.582757e-001
1.463706e+003, 3.487499e-001
1.465635e+003, 3.391631e-001
1.467563e+003, 3.297682e-001
1.469492e+003, 3.208836e-001
1.471420e+003, 3.124528e-001
1.473349e+003, 3.039759e-001
1.475277e+003, 2.956396e-001
1.477205e+003, 2.871530e-001
1.479134e+003, 2.790059e-001
1.481062e+003, 2.712757e-001
1.482991e+003, 2.636361e-001
1.484919e+003, 2.559638e-001
1.486848e+003, 2.485160e-001
1.488776e+003, 2.408765e-001
1.490705e+003, 2.331539e-001
1.492633e+003, 2.257736e-001
1.494562e+003, 2.184861e-001
1.496490e+003, 2.112005e-001
1.498419e+003, 2.037310e-001
1.500347e+003, 1.962629e-001
1.502276e+003, 1.891804e-001
1.504204e+003, 1.826646e-001
1.506132e+003, 1.762094e-001
1.508061e+003, 1.690016e-001
1.509989e+003, 1.618668e-001
1.511918e+003, 1.550136e-001
1.513846e+003, 1.483843e-001
1.515775e+003, 1.420648e-001
1.517703e+003, 1.358965e-001
1.519632e+003, 1.297378e-001
1.521560e+003, 1.238744e-001
1.523489e+003, 1.177402e-001
1.525417e+003, 1.118127e-001
1.527346e+003, 1.057249e-001
1.529274e+003, 9.960483e-002
1.531203e+003, 9.359869e-002
1.533131e+003, 8.785956e-002
1.535059e+003, 8.174244e-002
1.536988e+003, 7.588661e-002
1.538916e+003, 7.039248e-002
1.540845e+003, 6.417240e-002
1.542773e+003, 5.754535e-002
1.544702e+003, 5.132707e-002
1.546630e+003, 4.550713e-002
1.548559e+003, 4.042321e-002
1.550487e+003, 3.589300e-002
1.552416e+003, 3.223037e-002
1.554344e+003, 2.941359e-002
1.556273e+003, 2.739068e-002
1.558201e+003, 2.629957e-002
1.560130e+003, 2.498255e-002
1.562058e+003, 2.312058e-002
1.563986e+003, 2.188925e-002
1.565915e+003, 2.108550e-002
1.567843e+003, 2.032797e-002
1.569772e+003, 1.953617e-002
1.571700e+003, 1.892055e-002
1.573629e+003, 1.849705e-002
1.575557e+003, 1.858489e-002
1.577486e+003, 1.842941e-002
1.579414e+003, 1.806406e-002
1.581343e+003, 1.772843e-002
1.583271e+003, 1.733109e-002
1.585200e+003, 1.688928e-002
1.587128e+003, 1.627105e-002
1.589057e+003, 1.541330e-002
1.590985e+003, 1.456040e-002
1.592913e+003, 1.357176e-002
1.594842e+003, 1.259494e-002
1.596770e+003, 1.173122e-002
1.598699e+003, 1.101205e-002
1.600627e+003, 1.018801e-002
1.602556e+003, 9.474912e-003
1.604484e+003, 8.778481e-003
1.606413e+003, 8.367540e-003
1.608341e+003, 7.985273e-003
1.610270e+003, 7.657737e-003
1.612198e+003, 7.139028e-003
1.614127e+003, 6.771723e-003
1.616055e+003, 6.619688e-003
1.617984e+003, 6.245182e-003
1.619912e+003, 5.836526e-003
1.621840e+003, 5.668963e-003
1.623769e+003, 5.366242e-003
1.625697e+003, 5.109311e-003
1.627626e+003, 4.910772e-003
1.629554e+003, 4.605010e-003
1.631483e+003, 4.287770e-003
1.633411e+003, 4.409099e-003
1.635340e+003, 4.688173e-003
1.637268e+003, 4.214945e-003
1.639197e+003, 3.627245e-003
1.641125e+003, 3.483304e-003
1.643054e+003, 3.454135e-003
1.644982e+003, 3.630515e-003
1.646911e+003, 3.681722e-003
1.648839e+003, 3.410524e-003
1.650767e+003, 3.451830e-003
1.652696e+003, 3.986057e-003
1.654624e+003, 3.511626e-003
1.656553e+003, 2.823608e-003
1.658481e+003, 2.496623e-003
1.660410e+003, 2.339333e-003
1.662338e+003, 2.345255e-003
1.664267e+003, 2.198950e-003
1.666195e+003, 2.050227e-003
1.668124e+003, 2.259211e-003
1.670052e+003, 2.096205e-003
1.671981e+003, 1.864979e-003
1.673909e+003, 2.039251e-003
1.675838e+003, 1.985306e-003
1.677766e+003, 1.573427e-003
1.679694e+003, 1.533126e-003
1.681623e+003, 1.692361e-003
1.683551e+003, 2.166298e-003
1.685480e+003, 1.725799e-003
1.687408e+003, 1.082279e-003
1.689337e+003, 8.960839e-004
1.691265e+003, 8.623214e-004
1.693194e+003, 1.127118e-003
1.695122e+003, 1.553343e-003
1.697051e+003, 1.358535e-003
1.698979e+003, 1.505486e-003
1.700908e+003, 1.234989e-003
1.702836e+003, 6.390841e-004
1.704765e+003, 7.403332e-004
1.706693e+003, 8.288588e-004
1.708621e+003, 8.267348e-004
1.710550e+003, 7.726884e-004
1.712478e+003, 7.337435e-004
1.714407e+003, 9.549399e-004
1.716335e+003, 1.381892e-003
1.718264e+003, 1.424970e-003
1.720192e+003, 9.324243e-004
1.722121e+003, 6.831017e-004
1.724049e+003, 5.156138e-004
1.725978e+003, 6.451936e-004
1.727906e+003, 5.752073e-004
1.729835e+003, 3.711008e-004
1.731763e+003, 3.806999e-004
1.733692e+003, 9.343351e-004
1.735620e+003, 5.218941e-004
1.737548e+003, 5.129840e-005
1.739477e+003, 1.087091e-004
1.741405e+003, 1.047901e-004
1.743334e+003, -2.876577e-005
1.745262e+003, -4.032401e-004
1.747191e+003, -5.049352e-004
1.749119e+003, -3.446404e-004
1.751048e+003, -1.453824e-004
1.752976e+003, -2.399038e-004
1.754905e+003, -5.068158e-004
1.756833e+003, -4.810785e-004
1.758762e+003, -3.994281e-004
1.760690e+003, -2.017089e-004
1.762619e+003, -1.283583e-004
1.764547e+003, -2.531185e-004
1.766475e+003, -4.690953e-004
1.768404e+003, -5.456713e-004
1.770332e+003, -2.363565e-004
1.772261e+003, 3.907777e-004
1.774189e+003, 6.793960e-004
1.776118e+003, 8.757724e-004
1.778046e+003, 1.027257e-003
1.779975e+003, 1.386512e-003
1.781903e+003, 1.921888e-003
1.783832e+003, 3.128381e-003
1.785760e+003, 4.656087e-003
1.787689e+003, 7.571159e-003
1.789617e+003, 1.281635e-002
1.791546e+003, 1.894658e-002
1.793474e+003, 2.231610e-002
1.795402e+003, 2.285162e-002
1.797331e+003, 2.196353e-002
1.799259e+003, 1.916427e-002
1.801188e+003, 1.396924e-002
1.803116e+003, 8.420095e-003
1.805045e+003, 4.447687e-003
1.806973e+003, 2.260799e-003
1.808902e+003, 1.274318e-003
1.810830e+003, 7.065187e-004
1.812759e+003, 6.006631e-005
1.814687e+003, -4.167566e-004
1.816616e+003, -8.365837e-004
1.818544e+003, -6.403188e-004
1.820473e+003, -3.927037e-004
1.822401e+003, -7.252961e-004
1.824329e+003, -1.157206e-003
1.826258e+003, -1.412044e-003
1.828186e+003, -1.397390e-003
1.830115e+003, -1.102866e-003
1.832043e+003, -1.342952e-003
1.833972e+003, -1.393502e-003
1.835900e+003, -1.242717e-003
1.837829e+003, -1.418742e-003
1.839757e+003, -1.414693e-003
1.841686e+003, -1.349654e-003
1.843614e+003, -1.587222e-003
1.845543e+003, -1.742295e-003
1.847471e+003, -1.755965e-003
1.849400e+003, -1.961015e-003
1.851328e+003, -2.032266e-003
1.853256e+003, -1.618810e-003
1.855185e+003, -1.690181e-003
1.857113e+003, -1.914807e-003
1.859042e+003, -1.877404e-003
1.860970e+003, -1.970270e-003
1.862899e+003, -2.130483e-003
1.864827e+003, -1.438227e-003
1.866756e+003, -9.506203e-004
1.868684e+003, -1.377043e-003
1.870613e+003, -1.939361e-003
1.872541e+003, -1.593487e-003
1.874470e+003, -1.311363e-003
1.876398e+003, -1.354735e-003
1.878327e+003, -1.278705e-003
1.880255e+003, -1.002920e-003
1.882183e+003, -1.314518e-003
1.884112e+003, -1.408105e-003
1.886040e+003, -1.522143e-003
1.887969e+003, -1.366086e-003
1.889897e+003, -1.623881e-003
1.891826e+003, -1.833836e-003
1.893754e+003, -1.686059e-003
1.895683e+003, -1.360004e-003
1.897611e+003, -1.536000e-003
1.899540e+003, -1.863293e-003
1.901468e+003, -1.430385e-003
1.903397e+003, -1.032081e-003
1.905325e+003, -1.565055e-003
1.907254e+003, -1.771483e-003
1.909182e+003, -1.592784e-003
1.911110e+003, -1.484858e-003
1.913039e+003, -1.316133e-003
1.914967e+003, -1.196959e-003
1.916896e+003, -1.321260e-003
1.918824e+003, -6.475487e-004
1.920753e+003, -5.406570e-004
1.922681e+003, -8.740374e-004
1.924610e+003, -1.147966e-003
1.926538e+003, -1.159570e-003
1.928467e+003, -1.562761e-003
1.930395e+003, -1.358662e-003
1.932324e+003, -1.464909e-003
1.934252e+003, -1.493753e-003
1.936181e+003, -1.308610e-003
1.938109e+003, -7.875145e-004
1.940037e+003, -3.109354e-004
1.941966e+003, 6.035794e-005
1.943894e+003, -5.133774e-004
1.945823e+003, -1.008014e-003
1.947751e+003, -1.369203e-003
1.949680e+003, -1.567249e-003
1.951608e+003, -1.786224e-003
1.953537e+003, -1.869630e-003
1.955465e+003, -1.371714e-003
1.957394e+003, -1.136172e-003
1.959322e+003, -1.553616e-003
1.961251e+003, -1.213235e-003
1.963179e+003, -1.161097e-003
1.965108e+003, -9.780719e-004
1.967036e+003, -1.792317e-005
1.968964e+003, 1.149710e-003
1.970893e+003, -6.530115e-005
1.972821e+003, -4.318399e-004
1.974750e+003, -9.307804e-004
1.976678e+003, -1.053755e-004
1.978607e+003, 8.560398e-004
1.980535e+003, 1.068614e-003
1.982464e+003, 3.455174e-004
1.984392e+003, -3.997564e-005
1.986321e+003, -8.170331e-004
1.988249e+003, -5.322020e-004
1.990178e+003, -5.302798e-004
1.992106e+003, -6.646284e-004
1.994035e+003, -6.358925e-004
1.995963e+003, -4.730620e-004
1.997891e+003, -1.452430e-003
1.999820e+003, -1.329724e-003
2.001748e+003, -5.168575e-004
2.003677e+003, -1.360527e-003
2.005605e+003, -1.649482e-003
2.007534e+003, 1.981122e-004
2.009462e+003, 3.716045e-004
2.011391e+003, 4.245017e-004
2.013319e+003, 4.247752e-004
2.015248e+003, -2.373469e-004
2.017176e+003, -1.680612e-003
2.019105e+003, -2.014351e-003
2.021033e+003, -1.444184e-003
2.022962e+003, -4.052302e-004
2.024890e+003, -5.644717e-004
2.026818e+003, -9.891992e-004
2.028747e+003, -1.851124e-003
2.030675e+003, -2.059862e-003
2.032604e+003, -8.703853e-004
2.034532e+003, -1.095382e-004
2.036461e+003, -1.151069e-004
2.038389e+003, 2.971586e-004
2.040318e+003, -6.988170e-004
2.042246e+003, -1.013356e-003
2.044175e+003, -5.565806e-004
2.046103e+003, -1.958401e-004
2.048031e+003, 5.632521e-005
2.049960e+003, 3.966255e-004
2.051888e+003, -8.402840e-005
2.053817e+003, -7.156120e-004
2.055745e+003, -1.594173e-003
2.057674e+003, -2.444486e-003
2.059602e+003, -2.294385e-003
2.061531e+003, -1.254055e-003
2.063459e+003, -4.130008e-004
2.065388e+003, -5.607834e-004
2.067316e+003, -1.172614e-003
2.069245e+003, -1.713797e-003
2.071173e+003, -1.421500e-003
2.073102e+003, -3.456516e-004
2.075030e+003, -3.595123e-004
2.076958e+003, -3.071514e-004
2.078887e+003, 1.651940e-004
2.080815e+003, -6.666670e-004
2.082744e+003, -1.966019e-003
2.084672e+003, -2.309912e-003
2.086601e+003, -2.446513e-003
2.088529e+003, -2.469616e-003
2.090458e+003, -2.406410e-003
2.092386e+003, -2.124534e-003
2.094315e+003, -2.087653e-003
2.096243e+003, -1.310613e-003
2.098172e+003, -1.203654e-003
2.100100e+003, -9.731112e-004
2.102029e+003, -9.631512e-004
2.103957e+003, -1.066120e-003
2.105885e+003, -1.201111e-003
2.107814e+003, -5.808179e-004
2.109742e+003, -8.237312e-004
2.111671e+003, -1.216080e-003
2.113599e+003, -1.038059e-003
2.115528e+003, -1.095788e-003
2.117456e+003, -2.031059e-003
2.119385e+003, -1.468681e-003
2.121313e+003, -1.207734e-003
2.123242e+003, -2.158391e-003
2.125170e+003, -2.176649e-003
2.127099e+003, -1.555157e-003
2.129027e+003, -2.352515e-003
2.130956e+003, -2.896218e-003
2.132884e+003, -3.239544e-003
2.134813e+003, -2.483641e-003
2.136741e+003, -2.077813e-003
2.138669e+003, -1.522160e-003
2.140598e+003, -1.548882e-003
2.142526e+003, -1.117997e-003
2.144455e+003, -1.114036e-003
2.146383e+003, -7.300284e-004
2.148312e+003, -2.812698e-004
2.150240e+003, 7.514503e-004
2.152169e+003, 3.215923e-004
2.154097e+003, -1.330392e-003
2.156026e+003, -2.655861e-003
2.157954e+003, -1.039559e-003
2.159883e+003, 2.123320e-003
2.161811e+003, 3.494064e-003
2.163740e+003, 2.465974e-003
2.165668e+003, 1.932903e-003
2.167596e+003, 6.801054e-004
2.169525e+003, 3.195117e-004
2.171453e+003, 1.379364e-004
2.173382e+003, -8.929697e-004
2.175310e+003, 1.443088e-004
2.177239e+003, -6.492662e-007
2.179167e+003, -1.324244e-003
2.181096e+003, 1.931934e-004
2.183024e+003, 1.294549e-003
2.184953e+003, 1.288660e-003
2.186881e+003, 1.759005e-003
2.188810e+003, 2.485238e-003
2.190738e+003, 2.206255e-003
2.192667e+003, 1.546488e-003
2.194595e+003, 5.065274e-004
2.196523e+003, 4.815592e-004
2.198452e+003, 1.254827e-003
2.200380e+003, 9.398751e-004
2.202309e+003, 2.904702e-004
2.204237e+003, 6.105945e-005
2.206166e+003, -1.347854e-004
2.208094e+003, -2.306555e-004
2.210023e+003, 1.592819e-004
2.211951e+003, 1.189734e-003
2.213880e+003, 8.561378e-004
2.215808e+003, -5.858632e-005
2.217737e+003, -8.065010e-004
2.219665e+003, -1.142823e-003
2.221594e+003, -7.023552e-004
2.223522e+003, 4.151700e-004
2.225450e+003, 1.180827e-003
2.227379e+003, 7.854251e-004
2.229307e+003, -6.151081e-004
2.231236e+003, 8.591030e-005
2.233164e+003, 7.387390e-004
2.235093e+003, 6.250998e-004
2.237021e+003, 5.381974e-004
2.238950e+003, 1.868169e-004
2.240878e+003, -3.243414e-004
2.242807e+003, 2.475689e-004
2.244735e+003, 6.850376e-005
2.246664e+003, 9.156678e-005
2.248592e+003, 5.081369e-005
2.250521e+003, -1.934870e-004
2.252449e+003, -3.345213e-004
2.254377e+003, 4.997332e-005
2.256306e+003, -1.034631e-004
2.258234e+003, 4.500974e-004
2.260163e+003, 5.552293e-004
2.262091e+003, 6.118756e-004
2.264020e+003, 7.021765e-004
2.265948e+003, 6.672370e-004
2.267877e+003, 9.556930e-004
2.269805e+003, 5.088369e-004
2.271734e+003, -2.619421e-005
2.273662e+003, 3.071910e-004
2.275591e+003, 4.700015e-004
2.277519e+003, 5.554912e-004
2.279448e+003, 6.055365e-004
2.281376e+003, 7.248067e-004
2.283304e+003, 1.022022e-003
2.285233e+003, 1.135602e-003
2.287161e+003, 6.847829e-004
2.289090e+003, 9.004816e-004
2.291018e+003, 8.106768e-004
2.292947e+003, 1.967936e-004
2.294875e+003, 3.799607e-004
2.296804e+003, 9.252251e-004
2.298732e+003, 6.066203e-004
2.300661e+003, 1.242629e-004
2.302589e+003, -6.713653e-005
2.304518e+003, 3.134986e-004
2.306446e+003, 7.092932e-004
2.308375e+003, 7.011607e-004
2.310303e+003, 4.783964e-004
2.312231e+003, 8.351287e-004
2.314160e+003, 1.190893e-003
2.316088e+003, 1.434321e-003
2.318017e+003, 1.679288e-003
2.319945e+003, 1.795802e-003
2.321874e+003, 2.063608e-003
2.323802e+003, 2.476718e-003
2.325731e+003, 1.736054e-003
2.327659e+003, 1.069206e-003
2.329588e+003, 1.062828e-003
2.331516e+003, 1.552189e-003
2.333445e+003, 1.561448e-003
2.335373e+003, 1.431618e-003
2.337302e+003, 1.454670e-003
2.339230e+003, 1.765929e-003
2.341158e+003, 1.755884e-003
2.343087e+003, 1.324399e-003
2.345015e+003, 7.921470e-004
2.346944e+003, 7.141212e-004
2.348872e+003, 6.061460e-004
2.350801e+003, 5.972132e-004
2.352729e+003, 9.804479e-004
2.354658e+003, 1.569236e-003
2.356586e+003, 1.914673e-003
2.358515e+003, 2.116142e-003
2.360443e+003, 1.984177e-003
2.362372e+003, 1.898435e-003
2.364300e+003, 1.818286e-003
2.366229e+003, 1.345801e-003
2.368157e+003, 9.143854e-004
2.370085e+003, 1.258199e-003
2.372014e+003, 1.075025e-003
2.373942e+003, 5.428852e-004
2.375871e+003, 3.295050e-004
2.377799e+003, 3.452984e-004
2.379728e+003, 2.034530e-004
2.381656e+003, 3.269130e-004
2.383585e+003, 3.213315e-004
2.385513e+003, -6.781556e-005
2.387442e+003, -1.577245e-004
2.389370e+003, -2.273499e-004
2.391299e+003, -3.160139e-004
2.393227e+003, -1.219521e-004
2.395156e+003, 3.729982e-006
2.397084e+003, 1.144578e-004
2.399012e+003, -1.921071e-004
2.400941e+003, -1.959998e-004
2.402869e+003, 6.925772e-004
2.404798e+003, 7.805247e-004
2.406726e+003, 1.153170e-004
2.408655e+003, 3.013204e-004
2.410583e+003, 2.274213e-004
2.412512e+003, 6.156101e-004
2.414440e+003, 6.216254e-004
2.416369e+003, 2.799413e-004
2.418297e+003, 1.044119e-004
2.420226e+003, 2.559234e-004
2.422154e+003, 3.834516e-004
2.424083e+003, 4.756801e-004
2.426011e+003, 9.630389e-005
2.427939e+003, 8.986361e-005
2.429868e+003, 3.052627e-004
2.431796e+003, 4.622001e-004
2.433725e+003, 4.679718e-004
2.435653e+003, 8.716287e-005
2.437582e+003, -3.384080e-005
2.439510e+003, 4.693269e-004
2.441439e+003, 1.088269e-003
2.443367e+003, 1.712198e-003
2.445296e+003, 1.638404e-003
2.447224e+003, 1.304508e-003
2.449153e+003, 1.131594e-003
2.451081e+003, 1.058260e-003
2.453010e+003, 1.213360e-003
2.454938e+003, 1.616840e-003
2.456866e+003, 1.446505e-003
2.458795e+003, 1.174789e-003
2.460723e+003, 1.470248e-003
2.462652e+003, 1.891472e-003
2.464580e+003, 2.064432e-003
2.466509e+003, 2.008240e-003
2.468437e+003, 1.637199e-003
2.470366e+003, 2.035244e-003
2.472294e+003, 2.259355e-003
2.474223e+003, 2.042118e-003
2.476151e+003, 2.076920e-003
2.478080e+003, 3.315070e-003
2.480008e+003, 3.845472e-003
2.481937e+003, 4.560442e-003
2.483865e+003, 4.817088e-003
2.485793e+003, 4.696322e-003
2.487722e+003, 4.858763e-003
2.489650e+003, 5.305031e-003
2.491579e+003, 6.073657e-003
2.493507e+003, 7.537566e-003
2.495436e+003, 8.952594e-003
2.497364e+003, 1.022069e-002
2.499293e+003, 1.157305e-002
2.501221e+003, 1.284922e-002
2.503150e+003, 1.378330e-002
2.505078e+003, 1.486422e-002
2.507007e+003, 1.610920e-002
2.508935e+003, 1.692340e-002
2.510864e+003, 1.715723e-002
2.512792e+003, 1.770101e-002
2.514720e+003, 1.755142e-002
2.516649e+003, 1.671258e-002
2.518577e+003, 1.592738e-002
2.520506e+003, 1.509674e-002
2.522434e+003, 1.430534e-002
2.524363e+003, 1.337639e-002
2.526291e+003, 1.200335e-002
2.528220e+003, 1.045690e-002
2.530148e+003, 9.503747e-003
2.532077e+003, 8.970612e-003
2.534005e+003, 7.910362e-003
2.535934e+003, 7.020665e-003
2.537862e+003, 6.078077e-003
2.539791e+003, 5.199205e-003
2.541719e+003, 4.449995e-003
2.543647e+003, 3.842486e-003
2.545576e+003, 3.913113e-003
2.547504e+003, 4.483769e-003
2.549433e+003, 4.626271e-003
2.551361e+003, 4.645899e-003
2.553290e+003, 4.176730e-003
2.555218e+003, 3.472532e-003
2.557147e+003, 3.238809e-003
2.559075e+003, 3.151708e-003
2.561004e+003, 2.985007e-003
2.562932e+003, 3.286933e-003
2.564861e+003, 3.328359e-003
2.566789e+003, 3.382215e-003
2.568718e+003, 3.241685e-003
2.570646e+003, 3.525881e-003
2.572574e+003, 3.470467e-003
2.574503e+003, 3.174387e-003
2.576431e+003, 2.743233e-003
2.578360e+003, 2.442157e-003
2.580288e+003, 2.213951e-003
2.582217e+003, 2.184401e-003
2.584145e+003, 2.086005e-003
2.586074e+003, 2.414685e-003
2.588002e+003, 2.860086e-003
2.589931e+003, 2.691024e-003
2.591859e+003, 2.197032e-003
2.593788e+003, 1.833273e-003
2.595716e+003, 1.898214e-003
2.597645e+003, 2.235656e-003
2.599573e+003, 2.002073e-003
2.601501e+003, 2.058046e-003
2.603430e+003, 2.215397e-003
2.605358e+003, 1.890133e-003
2.607287e+003, 1.340788e-003
2.609215e+003, 1.072362e-003
2.611144e+003, 8.937343e-004
2.613072e+003, 5.180496e-004
2.615001e+003, -1.585602e-005
2.616929e+003, 2.082084e-004
2.618858e+003, 6.588004e-004
2.620786e+003, 3.809319e-004
2.622715e+003, 5.170734e-005
2.624643e+003, 1.716819e-004
2.626572e+003, 1.253285e-004
2.628500e+003, -3.309480e-005
2.630428e+003, -3.406449e-004
2.632357e+003, -8.732681e-004
2.634285e+003, -1.064812e-003
2.636214e+003, -7.080893e-004
2.638142e+003, -7.097429e-004
2.640071e+003, -9.572024e-004
2.641999e+003, -1.106061e-003
2.643928e+003, -1.159379e-003
2.645856e+003, -1.390360e-003
2.647785e+003, -1.321797e-003
2.649713e+003, -1.187263e-003
2.651642e+003, -1.086223e-003
2.653570e+003, -1.244149e-003
2.655499e+003, -1.489632e-003
2.657427e+003, -1.503465e-003
2.659355e+003, -1.386981e-003
2.661284e+003, -1.683259e-003
2.663212e+003, -1.507267e-003
2.665141e+003, -1.290239e-003
2.667069e+003, -1.448198e-003
2.668998e+003, -1.651579e-003
2.670926e+003, -1.946573e-003
2.672855e+003, -2.461639e-003
2.674783e+003, -2.403452e-003
2.676712e+003, -1.919269e-003
2.678640e+003, -1.868726e-003
2.680569e+003, -2.059467e-003
2.682497e+003, -2.000082e-003
2.684426e+003, -2.067225e-003
2.686354e+003, -2.146187e-003
2.688282e+003, -2.095002e-003
2.690211e+003, -1.905810e-003
2.692139e+003, -2.070316e-003
2.694068e+003, -2.348267e-003
2.695996e+003, -2.653999e-003
2.697925e+003, -2.427012e-003
2.699853e+003, -2.243225e-003
2.701782e+003, -2.311569e-003
2.703710e+003, -2.303742e-003
2.705639e+003, -2.327753e-003
2.707567e+003, -2.552513e-003
2.709496e+003, -2.241021e-003
2.711424e+003, -2.171417e-003
2.713353e+003, -2.333403e-003
2.715281e+003, -2.216712e-003
2.717209e+003, -2.346693e-003
2.719138e+003, -2.751028e-003
2.721066e+003, -2.530062e-003
2.722995e+003, -2.656632e-003
2.724923e+003, -2.312175e-003
2.726852e+003, -1.883597e-003
2.728780e+003, -2.308590e-003
2.730709e+003, -2.787559e-003
2.732637e+003, -2.506397e-003
2.734566e+003, -2.683199e-003
2.736494e+003, -2.908793e-003
2.738423e+003, -2.918808e-003
2.740351e+003, -2.756275e-003
2.742280e+003, -2.378411e-003
2.744208e+003, -2.282800e-003
2.746136e+003, -2.840798e-003
2.748065e+003, -2.940531e-003
2.749993e+003, -2.891056e-003
2.751922e+003, -2.718424e-003
2.753850e+003, -2.993232e-003
2.755779e+003, -3.117281e-003
2.757707e+003, -2.865986e-003
2.759636e+003, -2.859689e-003
2.761564e+003, -2.681844e-003
2.763493e+003, -2.605327e-003
2.765421e+003, -2.857182e-003
2.767350e+003, -3.015679e-003
2.769278e+003, -3.069218e-003
2.771207e+003, -2.565963e-003
2.773135e+003, -2.521628e-003
2.775063e+003, -2.703395e-003
2.776992e+003, -2.892177e-003
2.778920e+003, -2.919446e-003
2.780849e+003, -3.013570e-003
2.782777e+003, -3.156465e-003
2.784706e+003, -3.302852e-003
2.786634e+003, -3.247772e-003
2.788563e+003, -3.166346e-003
2.790491e+003, -3.024850e-003
2.792420e+003, -2.670173e-003
2.794348e+003, -2.825458e-003
2.796277e+003, -3.289318e-003
2.798205e+003, -3.195789e-003
2.800134e+003, -2.669588e-003
2.802062e+003, -2.526621e-003
2.803990e+003, -2.634700e-003
2.805919e+003, -2.345734e-003
2.807847e+003, -2.235171e-003
2.809776e+003, -2.201392e-003
2.811704e+003, -2.315515e-003
2.813633e+003, -2.361302e-003
2.815561e+003, -2.191677e-003
2.817490e+003, -1.879935e-003
2.819418e+003, -1.934854e-003
2.821347e+003, -1.728489e-003
2.823275e+003, -1.524328e-003
2.825204e+003, -1.559400e-003
2.827132e+003, -1.523042e-003
2.829061e+003, -1.091097e-003
2.830989e+003, -5.808730e-004
2.832917e+003, -3.037129e-004
2.834846e+003, 5.458537e-004
2.836774e+003, 1.588203e-003
2.838703e+003, 1.628932e-003
2.840631e+003, 1.701479e-003
2.842560e+003, 2.011651e-003
2.844488e+003, 2.645300e-003
2.846417e+003, 3.363634e-003
2.848345e+003, 4.448530e-003
2.850274e+003, 5.146294e-003
2.852202e+003, 5.619709e-003
2.854131e+003, 5.617429e-003
2.856059e+003, 5.345953e-003
2.857988e+003, 5.329877e-003
2.859916e+003, 5.573415e-003
2.861844e+003, 5.899354e-003
2.863773e+003, 6.117481e-003
2.865701e+003, 6.092879e-003
2.867630e+003, 5.917867e-003
2.869558e+003, 5.645024e-003
2.871487e+003, 6.142182e-003
2.873415e+003, 6.003851e-003
2.875344e+003, 5.614487e-003
2.877272e+003, 5.535705e-003
2.879201e+003, 5.381221e-003
2.881129e+003, 4.494463e-003
2.883058e+003, 4.358561e-003
2.884986e+003, 4.454143e-003
2.886915e+003, 3.619645e-003
2.888843e+003, 3.003235e-003
2.890771e+003, 3.250480e-003
2.892700e+003, 3.253032e-003
2.894628e+003, 3.244047e-003
2.896557e+003, 3.227733e-003
2.898485e+003, 3.481116e-003
2.900414e+003, 3.865495e-003
2.902342e+003, 4.323930e-003
2.904271e+003, 4.331341e-003
2.906199e+003, 4.471819e-003
2.908128e+003, 4.964764e-003
2.910056e+003, 5.515782e-003
2.911985e+003, 5.626815e-003
2.913913e+003, 6.137753e-003
2.915842e+003, 6.886663e-003
2.917770e+003, 7.258608e-003
2.919698e+003, 7.837977e-003
2.921627e+003, 8.459980e-003
2.923555e+003, 8.481264e-003
2.925484e+003, 7.914664e-003
2.927412e+003, 7.581244e-003
2.929341e+003, 7.130530e-003
2.931269e+003, 6.813537e-003
2.933198e+003, 6.407703e-003
2.935126e+003, 6.225436e-003
2.937055e+003, 5.981547e-003
2.938983e+003, 4.935517e-003
2.940912e+003, 4.211853e-003
2.942840e+003, 3.725361e-003
2.944769e+003, 3.872345e-003
2.946697e+003, 3.740918e-003
2.948625e+003, 3.410257e-003
2.950554e+003, 3.756992e-003
2.952482e+003, 4.223418e-003
2.954411e+003, 4.170392e-003
2.956339e+003, 4.445658e-003
2.958268e+003, 4.448952e-003
2.960196e+003, 4.033521e-003
2.962125e+003, 3.733533e-003
2.964053e+003, 3.587734e-003
2.965982e+003, 3.348252e-003
2.967910e+003, 3.361077e-003
2.969839e+003, 3.383486e-003
2.971767e+003, 3.436232e-003
2.973696e+003, 2.990216e-003
2.975624e+003, 2.981482e-003
2.977552e+003, 3.223433e-003
2.979481e+003, 3.573542e-003
2.981409e+003, 3.391914e-003
2.983338e+003, 2.756497e-003
2.985266e+003, 2.674422e-003
2.987195e+003, 2.847449e-003
2.989123e+003, 2.634507e-003
2.991052e+003, 2.287786e-003
2.992980e+003, 1.938424e-003
2.994909e+003, 1.392097e-003
2.996837e+003, 5.962183e-004
2.998766e+003, -7.511492e-005
3.000694e+003, -4.982234e-004
3.002623e+003, -2.083134e-004
3.004551e+003, 1.957357e-004
3.006479e+003, -5.807531e-005
3.008408e+003, -1.816056e-004
3.010336e+003, 3.050546e-004
3.012265e+003, 6.638950e-004
3.014193e+003, 1.211713e-003
3.016122e+003, 2.162807e-003
3.018050e+003, 1.755779e-003
3.019979e+003, 4.304463e-004
3.021907e+003, 2.230040e-004
3.023836e+003, -1.855423e-004
3.025764e+003, -2.135275e-004
3.027693e+003, -2.096665e-005
3.029621e+003, 1.786949e-004
3.031550e+003, 5.042561e-005
3.033478e+003, 3.753630e-004
3.035406e+003, 5.155491e-004
3.037335e+003, 5.559473e-004
3.039263e+003, 6.624904e-004
3.041192e+003, 1.147529e-003
3.043120e+003, 9.771098e-004
3.045049e+003, 8.547539e-004
3.046977e+003, 1.029977e-003
3.048906e+003, 1.067835e-003
3.050834e+003, 1.049997e-003
3.052763e+003, 1.222561e-003
3.054691e+003, 1.587179e-003
3.056620e+003, 1.695871e-003
3.058548e+003, 8.870391e-004
3.060477e+003, 7.869403e-004
3.062405e+003, 1.120191e-003
3.064333e+003, 1.184614e-003
3.066262e+003, 1.285526e-003
3.068190e+003, 1.364997e-003
3.070119e+003, 1.692055e-003
3.072047e+003, 1.757227e-003
3.073976e+003, 1.709784e-003
3.075904e+003, 2.539231e-003
3.077833e+003, 2.305126e-003
3.079761e+003, 2.044399e-003
3.081690e+003, 2.164721e-003
3.083618e+003, 2.764580e-003
3.085547e+003, 3.389952e-003
3.087475e+003, 3.085453e-003
3.089404e+003, 2.314305e-003
3.091332e+003, 2.594351e-003
3.093260e+003, 2.890005e-003
3.095189e+003, 3.149082e-003
3.097117e+003, 3.305241e-003
3.099046e+003, 2.536525e-003
3.100974e+003, 1.482439e-003
3.102903e+003, 2.262007e-003
3.104831e+003, 2.949066e-003
3.106760e+003, 3.489938e-003
3.108688e+003, 3.351974e-003
3.110617e+003, 3.150315e-003
3.112545e+003, 3.150407e-003
3.114474e+003, 3.266247e-003
3.116402e+003, 2.897966e-003
3.118331e+003, 3.421102e-003
3.120259e+003, 3.913770e-003
3.122188e+003, 4.357509e-003
3.124116e+003, 4.275256e-003
3.126044e+003, 4.185734e-003
3.127973e+003, 3.482387e-003
3.129901e+003, 2.973294e-003
3.131830e+003, 3.372454e-003
3.133758e+003, 3.769720e-003
3.135687e+003, 3.828198e-003
3.137615e+003, 4.340034e-003
3.139544e+003, 3.811521e-003
3.141472e+003, 3.078905e-003
3.143401e+003, 3.233837e-003
3.145329e+003, 3.770994e-003
3.147258e+003, 3.773411e-003
3.149186e+003, 4.775655e-003
3.151115e+003, 4.636302e-003
3.153043e+003, 3.542349e-003
3.154971e+003, 3.622704e-003
3.156900e+003, 4.243312e-003
3.158828e+003, 4.161076e-003
3.160757e+003, 4.364901e-003
3.162685e+003, 4.254663e-003
3.164614e+003, 4.431239e-003
3.166542e+003, 4.508886e-003
3.168471e+003, 4.428003e-003
3.170399e+003, 4.112256e-003
3.172328e+003, 4.158299e-003
3.174256e+003, 4.338596e-003
3.176185e+003, 4.314206e-003
3.178113e+003, 4.268235e-003
3.180042e+003, 4.467429e-003
3.181970e+003, 4.575387e-003
3.183898e+003, 4.953432e-003
3.185827e+003, 4.574472e-003
3.187755e+003, 4.392542e-003
3.189684e+003, 4.453090e-003
3.191612e+003, 4.615352e-003
3.193541e+003, 4.586929e-003
3.195469e+003, 4.618806e-003
3.197398e+003, 4.449723e-003
3.199326e+003, 4.445388e-003
3.201255e+003, 4.570019e-003
3.203183e+003, 4.540295e-003
3.205112e+003, 4.727471e-003
3.207040e+003, 4.940806e-003
3.208969e+003, 5.167660e-003
3.210897e+003, 5.285779e-003
3.212825e+003, 5.476716e-003
3.214754e+003, 5.350829e-003
3.216682e+003, 4.738014e-003
3.218611e+003, 5.142085e-003
3.220539e+003, 5.138632e-003
3.222468e+003, 4.824747e-003
3.224396e+003, 4.576044e-003
3.226325e+003, 5.424067e-003
3.228253e+003, 5.314887e-003
3.230182e+003, 4.137198e-003
3.232110e+003, 4.368791e-003
3.234039e+003, 4.514475e-003
3.235967e+003, 4.260324e-003
3.237896e+003, 4.480360e-003
3.239824e+003, 4.939173e-003
3.241752e+003, 5.216682e-003
3.243681e+003, 4.660131e-003
3.245609e+003, 4.774040e-003
3.247538e+003, 4.469954e-003
3.249466e+003, 4.137494e-003
3.251395e+003, 4.785793e-003
3.253323e+003, 5.328570e-003
3.255252e+003, 4.738657e-003
3.257180e+003, 4.944081e-003
3.259109e+003, 5.100571e-003
3.261037e+003, 4.783073e-003
3.262966e+003, 4.685451e-003
3.264894e+003, 4.515765e-003
3.266823e+003, 3.958336e-003
3.268751e+003, 3.699382e-003
3.270679e+003, 3.502199e-003
3.272608e+003, 3.663196e-003
3.274536e+003, 4.057229e-003
3.276465e+003, 4.314730e-003
3.278393e+003, 5.038634e-003
3.280322e+003, 5.553473e-003
3.282250e+003, 5.108847e-003
3.284179e+003, 4.499100e-003
3.286107e+003, 4.350253e-003
3.288036e+003, 4.787036e-003
3.289964e+003, 4.433979e-003
3.291893e+003, 4.591405e-003
3.293821e+003, 4.544388e-003
3.295750e+003, 4.223587e-003
3.297678e+003, 4.688048e-003
3.299606e+003, 4.991146e-003
3.301535e+003, 4.564798e-003
3.303463e+003, 4.419673e-003
3.305392e+003, 4.227267e-003
3.307320e+003, 3.725453e-003
3.309249e+003, 3.614508e-003
3.311177e+003, 3.765877e-003
3.313106e+003, 4.201460e-003
3.315034e+003, 4.810143e-003
3.316963e+003, 4.798164e-003
3.318891e+003, 4.396963e-003
3.320820e+003, 4.614752e-003
3.322748e+003, 4.208608e-003
3.324677e+003, 4.046001e-003
3.326605e+003, 5.150009e-003
3.328533e+003, 5.428618e-003
3.330462e+003, 4.599036e-003
3.332390e+003, 4.022724e-003
3.334319e+003, 4.677624e-003
3.336247e+003, 5.176586e-003
3.338176e+003, 5.269049e-003
3.340104e+003, 5.117708e-003
3.342033e+003, 4.734883e-003
3.343961e+003, 4.575329e-003
3.345890e+003, 4.647811e-003
3.347818e+003, 4.403910e-003
3.349747e+003, 4.783005e-003
3.351675e+003, 4.932729e-003
3.353604e+003, 5.208311e-003
3.355532e+003, 5.671090e-003
3.357460e+003, 4.969038e-003
3.359389e+003, 4.006986e-003
3.361317e+003, 4.160509e-003
3.363246e+003, 4.770304e-003
3.365174e+003, 5.367283e-003
3.367103e+003, 4.912112e-003
3.369031e+003, 4.372472e-003
3.370960e+003, 4.580001e-003
3.372888e+003, 5.080800e-003
3.374817e+003, 4.786379e-003
3.376745e+003, 4.159632e-003
3.378674e+003, 3.766207e-003
3.380602e+003, 4.764804e-003
3.382531e+003, 4.242066e-003
3.384459e+003, 4.011812e-003
3.386387e+003, 4.403664e-003
3.388316e+003, 4.414504e-003
3.390244e+003, 4.195862e-003
3.392173e+003, 4.489990e-003
3.394101e+003, 4.542516e-003
3.396030e+003, 4.542952e-003
3.397958e+003, 4.233863e-003
3.399887e+003, 4.784413e-003
3.401815e+003, 4.857577e-003
3.403744e+003, 5.000419e-003
3.405672e+003, 4.425799e-003
3.407601e+003, 4.711221e-003
3.409529e+003, 4.262216e-003
3.411458e+003, 3.417380e-003
3.413386e+003, 4.025234e-003
3.415314e+003, 4.819519e-003
3.417243e+003, 4.611081e-003
3.419171e+003, 4.950447e-003
3.421100e+003, 4.795955e-003
3.423028e+003, 4.696141e-003
3.424957e+003, 4.466909e-003
3.426885e+003, 4.431501e-003
3.428814e+003, 3.395253e-003
3.430742e+003, 2.983868e-003
3.432671e+003, 3.826854e-003
3.434599e+003, 4.705622e-003
3.436528e+003, 4.550070e-003
3.438456e+003, 4.023954e-003
3.440385e+003, 4.195501e-003
3.442313e+003, 4.984754e-003
3.444241e+003, 4.993272e-003
3.446170e+003, 4.827434e-003
3.448098e+003, 3.850582e-003
3.450027e+003, 4.108906e-003
3.451955e+003, 4.521624e-003
3.453884e+003, 4.925728e-003
3.455812e+003, 4.564004e-003
3.457741e+003, 4.083054e-003
3.459669e+003, 4.197866e-003
3.461598e+003, 4.019754e-003
3.463526e+003, 4.072394e-003
3.465455e+003, 4.515005e-003
3.467383e+003, 3.913700e-003
3.469312e+003, 2.832442e-003
3.471240e+003, 2.007218e-003
3.473168e+003, 2.847812e-003
3.475097e+003, 3.257136e-003
3.477025e+003, 3.343114e-003
3.478954e+003, 3.690781e-003
3.480882e+003, 3.476984e-003
3.482811e+003, 2.860227e-003
3.484739e+003, 3.512315e-003
3.486668e+003, 4.481463e-003
3.488596e+003, 4.529968e-003
3.490525e+003, 3.953735e-003
3.492453e+003, 3.102359e-003
3.494382e+003, 2.579056e-003
3.496310e+003, 3.145835e-003
3.498239e+003, 3.576925e-003
3.500167e+003, 3.764906e-003
3.502095e+003, 2.734352e-003
3.504024e+003, 1.959910e-003
3.505952e+003, 2.665562e-003
3.507881e+003, 4.153916e-003
3.509809e+003, 4.081687e-003
3.511738e+003, 3.183852e-003
3.513666e+003, 2.657082e-003
3.515595e+003, 2.475000e-003
3.517523e+003, 2.511146e-003
3.519452e+003, 3.836269e-003
3.521380e+003, 4.762602e-003
3.523309e+003, 4.719422e-003
3.525237e+003, 4.200939e-003
3.527166e+003, 4.191987e-003
3.529094e+003, 3.548699e-003
3.531022e+003, 3.763026e-003
3.532951e+003, 3.990876e-003
3.534879e+003, 3.997752e-003
3.536808e+003, 3.463783e-003
3.538736e+003, 2.968888e-003
3.540665e+003, 2.717691e-003
3.542593e+003, 2.721170e-003
3.544522e+003, 2.827483e-003
3.546450e+003, 2.960643e-003
3.548379e+003, 3.446362e-003
3.550307e+003, 4.034543e-003
3.552236e+003, 3.829880e-003
3.554164e+003, 4.189003e-003
3.556093e+003, 4.086128e-003
3.558021e+003, 3.229476e-003
3.559949e+003, 2.610080e-003
3.561878e+003, 2.975533e-003
3.563806e+003, 3.699836e-003
3.565735e+003, 3.385070e-003
3.567663e+003, 2.690692e-003
3.569592e+003, 2.511356e-003
3.571520e+003, 1.997426e-003
3.573449e+003, 1.324664e-003
3.575377e+003, 1.589452e-003
3.577306e+003, 2.479860e-003
3.579234e+003, 2.790066e-003
3.581163e+003, 3.254405e-003
3.583091e+003, 3.256752e-003
3.585020e+003, 3.909048e-003
3.586948e+003, 3.271096e-003
3.588876e+003, 2.217777e-003
3.590805e+003, 1.718749e-003
3.592733e+003, 2.488528e-003
3.594662e+003, 2.793740e-003
3.596590e+003, 2.340575e-003
3.598519e+003, 2.210243e-003
3.600447e+003, 3.013849e-003
3.602376e+003, 3.026465e-003
3.604304e+003, 2.694878e-003
3.606233e+003, 2.309035e-003
3.608161e+003, 2.220475e-003
3.610090e+003, 2.303478e-003
3.612018e+003, 2.705081e-003
3.613947e+003, 2.932050e-003
3.615875e+003, 2.912129e-003
3.617803e+003, 3.111131e-003
3.619732e+003, 3.380921e-003
3.621660e+003, 3.182624e-003
3.623589e+003, 3.792831e-003
3.625517e+003, 3.913586e-003
3.627446e+003, 4.226324e-003
3.629374e+003, 4.288861e-003
3.631303e+003, 3.055831e-003
3.633231e+003, 1.801365e-003
3.635160e+003, 2.922834e-003
3.637088e+003, 3.149571e-003
3.639017e+003, 2.268323e-003
3.640945e+003, 2.109577e-003
3.642874e+003, 2.543326e-003
3.644802e+003, 3.083526e-003
3.646730e+003, 3.721612e-003
3.648659e+003, 4.088735e-003
3.650587e+003, 4.126792e-003
3.652516e+003, 3.083868e-003
3.654444e+003, 3.206216e-003
3.656373e+003, 3.236922e-003
3.658301e+003, 2.574980e-003
3.660230e+003, 2.980050e-003
3.662158e+003, 2.767793e-003
3.664087e+003, 2.299269e-003
3.666015e+003, 2.599268e-003
3.667944e+003, 3.234013e-003
3.669872e+003, 3.430677e-003
3.671801e+003, 2.682703e-003
3.673729e+003, 2.543655e-003
3.675657e+003, 2.595736e-003
3.677586e+003, 2.735266e-003
3.679514e+003, 1.952233e-003
3.681443e+003, 4.984924e-004
3.683371e+003, 4.841036e-004
3.685300e+003, 7.592087e-004
3.687228e+003, 2.206616e-003
3.689157e+003, 3.954833e-003
3.691085e+003, 3.878804e-003
3.693014e+003, 2.533353e-003
3.694942e+003, 1.536232e-003
3.696871e+003, 1.720713e-003
3.698799e+003, 2.020383e-003
3.700728e+003, 2.637022e-003
3.702656e+003, 3.468701e-003
3.704584e+003, 3.752478e-003
3.706513e+003, 3.311584e-003
3.708441e+003, 3.171838e-003
3.710370e+003, 2.953008e-003
3.712298e+003, 3.173535e-003
3.714227e+003, 3.288140e-003
3.716155e+003, 2.661335e-003
3.718084e+003, 2.393360e-003
3.720012e+003, 2.924501e-003
3.721941e+003, 3.557215e-003
3.723869e+003, 4.082590e-003
3.725798e+003, 2.790787e-003
3.727726e+003, 2.328442e-003
3.729655e+003, 2.858792e-003
3.731583e+003, 3.332868e-003
3.733511e+003, 4.499622e-003
3.735440e+003, 5.058321e-003
3.737368e+003, 3.379109e-003
3.739297e+003, 2.627275e-003
3.741225e+003, 3.252916e-003
3.743154e+003, 5.024476e-003
3.745082e+003, 5.409494e-003
3.747011e+003, 4.481655e-003
3.748939e+003, 4.246069e-003
3.750868e+003, 3.628332e-003
3.752796e+003, 3.687649e-003
3.754725e+003, 3.235358e-003
3.756653e+003, 3.148471e-003
3.758582e+003, 2.262412e-003
3.760510e+003, 7.937760e-004
3.762438e+003, 1.485308e-003
3.764367e+003, 2.009117e-003
3.766295e+003, 2.222068e-003
3.768224e+003, 3.464812e-003
3.770152e+003, 3.705205e-003
3.772081e+003, 2.324481e-003
3.774009e+003, 2.070730e-003
3.775938e+003, 2.218987e-003
3.777866e+003, 3.255801e-003
3.779795e+003, 3.443573e-003
3.781723e+003, 2.065929e-003
3.783652e+003, 1.180133e-003
3.785580e+003, 1.020954e-003
3.787509e+003, 2.816394e-003
3.789437e+003, 3.361516e-003
3.791365e+003, 2.412854e-003
3.793294e+003, 2.210560e-003
3.795222e+003, 2.095338e-003
3.797151e+003, 2.178036e-003
3.799079e+003, 2.502228e-003
3.801008e+003, 3.382002e-003
3.802936e+003, 3.337758e-003
3.804865e+003, 2.985777e-003
3.806793e+003, 3.685464e-003
3.808722e+003, 3.391522e-003
3.810650e+003, 3.078863e-003
3.812579e+003, 3.190027e-003
3.814507e+003, 4.056268e-003
3.816436e+003, 4.007107e-003
3.818364e+003, 3.584326e-003
3.820292e+003, 5.186811e-003
3.822221e+003, 5.179393e-003
3.824149e+003, 3.282738e-003
3.826078e+003, 3.091836e-003
3.828006e+003, 3.267621e-003
3.829935e+003, 2.839807e-003
3.831863e+003, 2.996534e-003
3.833792e+003, 3.087761e-003
3.835720e+003, 3.055954e-003
3.837649e+003, 3.323503e-003
3.839577e+003, 4.090706e-003
3.841506e+003, 4.237846e-003
3.843434e+003, 3.563829e-003
3.845363e+003, 2.789347e-003
3.847291e+003, 2.508704e-003
3.849219e+003, 2.782563e-003
3.851148e+003, 3.557939e-003
3.853076e+003, 4.108928e-003
3.855005e+003, 3.780915e-003
3.856933e+003, 2.064919e-003
3.858862e+003, 1.612831e-003
3.860790e+003, 2.403487e-003
3.862719e+003, 3.210436e-003
3.864647e+003, 3.276189e-003
3.866576e+003, 3.244449e-003
3.868504e+003, 3.862630e-003
3.870433e+003, 4.178861e-003
3.872361e+003, 3.883971e-003
3.874290e+003, 3.723406e-003
3.876218e+003, 3.269654e-003
3.878146e+003, 3.473686e-003
3.880075e+003, 2.722839e-003
3.882003e+003, 2.676267e-003
3.883932e+003, 3.962393e-003
3.885860e+003, 4.322920e-003
3.887789e+003, 2.480153e-003
3.889717e+003, 2.349606e-003
3.891646e+003, 3.566408e-003
3.893574e+003, 3.289465e-003
3.895503e+003, 2.918421e-003
3.897431e+003, 3.416424e-003
3.899360e+003, 3.847338e-003
3.901288e+003, 3.723961e-003
3.903217e+003, 2.486368e-003
3.905145e+003, 2.543319e-003
3.907073e+003, 3.383237e-003
3.909002e+003, 3.513394e-003
3.910930e+003, 3.671608e-003
3.912859e+003, 3.316020e-003
3.914787e+003, 2.454119e-003
3.916716e+003, 2.716576e-003
3.918644e+003, 3.359041e-003
3.920573e+003, 2.620108e-003
3.922501e+003, 1.511682e-003
3.924430e+003, 2.312240e-003
3.926358e+003, 3.375560e-003
3.928287e+003, 3.710860e-003
3.930215e+003, 3.928815e-003
3.932144e+003, 3.659925e-003
3.934072e+003, 3.240486e-003
3.936000e+003, 2.720938e-003
3.937929e+003, 2.277339e-003
3.939857e+003, 3.743900e-003
3.941786e+003, 4.498142e-003
3.943714e+003, 3.158882e-003
3.945643e+003, 1.878254e-003
3.947571e+003, 1.582220e-003
3.949500e+003, 1.848256e-003
3.951428e+003, 3.907241e-003
3.953357e+003, 4.405362e-003
3.955285e+003, 3.085566e-003
3.957214e+003, 2.662324e-003
3.959142e+003, 2.813670e-003
3.961071e+003, 2.990025e-003
3.962999e+003, 4.022789e-003
3.964927e+003, 3.825392e-003
3.966856e+003, 3.715681e-003
3.968784e+003, 3.412694e-003
3.970713e+003, 3.824777e-003
3.972641e+003, 3.729278e-003
3.974570e+003, 2.946127e-003
3.976498e+003, 2.473540e-003
3.978427e+003, 2.497182e-003
3.980355e+003, 2.542242e-003
3.982284e+003, 2.951184e-003
3.984212e+003, 3.709580e-003
3.986141e+003, 4.369861e-003
3.988069e+003, 3.576117e-003
3.989998e+003, 2.221935e-003
3.991926e+003, 2.190826e-003
3.993854e+003, 2.934043e-003
3.995783e+003, 3.255237e-003
3.997711e+003, 3.371207e-003
3.999640e+003, 3.226514e-003
##END=



