##NAMES=Calcite
##RRUFFID=R050127
##IDEAL CHEMISTRY=CaCO_3_
##LOCALITY=Rodeo, Durango, Mexico
##OWNER=RRUFF
##SOURCE=Dave Bunk Minerals
##DESCRIPTION=Group of colorless crystals
##STATUS=The identification of this mineral has been confirmed by X-ray diffraction and chemical analysis
##URL=rruff.info/R050127
##MEASURED CHEMISTRY=Ca_1.00_CO_3_
5.014013e+001, 8.130831e-003
5.206860e+001, 3.175569e-003
5.399707e+001, 1.099427e-003
5.592553e+001, 4.191442e-003
5.785400e+001, 9.618496e-003
5.978246e+001, 1.143549e-002
6.171093e+001, 9.657901e-003
6.363940e+001, 1.157692e-002
6.556786e+001, 1.426859e-002
6.749633e+001, 1.448382e-002
6.942480e+001, 1.347637e-002
7.135326e+001, 1.430708e-002
7.328172e+001, 1.530381e-002
7.521019e+001, 1.527106e-002
7.713866e+001, 1.545150e-002
7.906712e+001, 1.527846e-002
8.099559e+001, 1.589145e-002
8.292406e+001, 1.710725e-002
8.485252e+001, 1.718882e-002
8.678099e+001, 1.810541e-002
8.870946e+001, 1.786014e-002
9.063792e+001, 1.722458e-002
9.256638e+001, 1.850357e-002
9.449485e+001, 2.000224e-002
9.642332e+001, 2.034493e-002
9.835178e+001, 2.039363e-002
1.002803e+002, 2.024892e-002
1.022087e+002, 2.005233e-002
1.041372e+002, 2.047557e-002
1.060657e+002, 2.055241e-002
1.079941e+002, 2.018466e-002
1.099226e+002, 2.006951e-002
1.118510e+002, 1.919627e-002
1.137795e+002, 1.766421e-002
1.157080e+002, 1.610796e-002
1.176364e+002, 1.483843e-002
1.195649e+002, 1.397354e-002
1.214934e+002, 1.302255e-002
1.234218e+002, 1.252288e-002
1.253503e+002, 1.252847e-002
1.272788e+002, 1.198976e-002
1.292072e+002, 1.159617e-002
1.311357e+002, 1.122942e-002
1.330642e+002, 1.013390e-002
1.349926e+002, 9.634038e-003
1.369211e+002, 9.852522e-003
1.388496e+002, 1.007407e-002
1.407780e+002, 9.634114e-003
1.427065e+002, 9.741471e-003
1.446350e+002, 9.823832e-003
1.465634e+002, 9.612635e-003
1.484919e+002, 1.012086e-002
1.504204e+002, 1.133550e-002
1.523488e+002, 1.183185e-002
1.542773e+002, 1.205381e-002
1.562058e+002, 1.287377e-002
1.581342e+002, 1.324654e-002
1.600627e+002, 1.314848e-002
1.619912e+002, 1.350650e-002
1.639196e+002, 1.423248e-002
1.658481e+002, 1.502741e-002
1.677766e+002, 1.565739e-002
1.697050e+002, 1.643534e-002
1.716335e+002, 1.712118e-002
1.735620e+002, 1.791340e-002
1.754904e+002, 1.839460e-002
1.774189e+002, 1.887356e-002
1.793474e+002, 1.931737e-002
1.812758e+002, 1.966299e-002
1.832043e+002, 2.027253e-002
1.851328e+002, 2.112698e-002
1.870612e+002, 2.185373e-002
1.889897e+002, 2.230276e-002
1.909182e+002, 2.259289e-002
1.928466e+002, 2.314931e-002
1.947751e+002, 2.404753e-002
1.967036e+002, 2.481372e-002
1.986320e+002, 2.552532e-002
2.005605e+002, 2.638063e-002
2.024890e+002, 2.732687e-002
2.044174e+002, 2.786905e-002
2.063459e+002, 2.843083e-002
2.082744e+002, 2.936570e-002
2.102028e+002, 3.037234e-002
2.121313e+002, 3.131315e-002
2.140598e+002, 3.272136e-002
2.159882e+002, 3.414361e-002
2.179167e+002, 3.530719e-002
2.198452e+002, 3.602442e-002
2.217736e+002, 3.675876e-002
2.237021e+002, 3.737582e-002
2.256305e+002, 3.749020e-002
2.275590e+002, 3.709716e-002
2.294875e+002, 3.551794e-002
2.314159e+002, 3.348964e-002
2.333444e+002, 3.084035e-002
2.352729e+002, 2.787398e-002
2.372013e+002, 2.522407e-002
2.391298e+002, 2.364538e-002
2.410583e+002, 2.288392e-002
2.429867e+002, 2.279030e-002
2.449152e+002, 2.326452e-002
2.468437e+002, 2.416332e-002
2.487721e+002, 2.544532e-002
2.507006e+002, 2.670441e-002
2.526291e+002, 2.801384e-002
2.545575e+002, 2.907730e-002
2.564860e+002, 2.984744e-002
2.584145e+002, 3.119974e-002
2.603429e+002, 3.294947e-002
2.622714e+002, 3.434916e-002
2.641999e+002, 3.555797e-002
2.661283e+002, 3.702534e-002
2.680568e+002, 3.810409e-002
2.699853e+002, 3.928430e-002
2.719137e+002, 4.076645e-002
2.738422e+002, 4.181043e-002
2.757707e+002, 4.281934e-002
2.776991e+002, 4.428675e-002
2.796276e+002, 4.520969e-002
2.815561e+002, 4.580921e-002
2.834845e+002, 4.700276e-002
2.854130e+002, 4.851170e-002
2.873415e+002, 4.966271e-002
2.892699e+002, 5.064566e-002
2.911984e+002, 5.153399e-002
2.931269e+002, 5.265536e-002
2.950553e+002, 5.368788e-002
2.969838e+002, 5.408365e-002
2.989123e+002, 5.409522e-002
3.008407e+002, 5.457693e-002
3.027692e+002, 5.535141e-002
3.046977e+002, 5.524827e-002
3.066261e+002, 5.491730e-002
3.085546e+002, 5.454670e-002
3.104831e+002, 5.406307e-002
3.124115e+002, 5.376967e-002
3.143400e+002, 5.337830e-002
3.162685e+002, 5.273763e-002
3.181969e+002, 5.166378e-002
3.201254e+002, 5.070162e-002
3.220539e+002, 5.000340e-002
3.239823e+002, 4.907043e-002
3.259108e+002, 4.799354e-002
3.278392e+002, 4.718056e-002
3.297677e+002, 4.641171e-002
3.316962e+002, 4.544041e-002
3.336246e+002, 4.433648e-002
3.355531e+002, 4.333166e-002
3.374816e+002, 4.252625e-002
3.394100e+002, 4.166067e-002
3.413385e+002, 4.019616e-002
3.432670e+002, 3.914315e-002
3.451954e+002, 3.867635e-002
3.471239e+002, 3.804445e-002
3.490524e+002, 3.700029e-002
3.509808e+002, 3.617070e-002
3.529093e+002, 3.552343e-002
3.548378e+002, 3.476983e-002
3.567662e+002, 3.379106e-002
3.586947e+002, 3.299386e-002
3.606232e+002, 3.202631e-002
3.625516e+002, 3.123564e-002
3.644801e+002, 3.050024e-002
3.664086e+002, 2.971474e-002
3.683370e+002, 2.892633e-002
3.702655e+002, 2.830469e-002
3.721940e+002, 2.762440e-002
3.741224e+002, 2.723676e-002
3.760509e+002, 2.669153e-002
3.779794e+002, 2.605593e-002
3.799078e+002, 2.517468e-002
3.818363e+002, 2.441822e-002
3.837648e+002, 2.376280e-002
3.856932e+002, 2.309076e-002
3.876217e+002, 2.257467e-002
3.895502e+002, 2.227158e-002
3.914786e+002, 2.193971e-002
3.934071e+002, 2.159515e-002
3.953356e+002, 2.110874e-002
3.972640e+002, 2.086447e-002
3.991925e+002, 2.070310e-002
4.011210e+002, 2.040722e-002
4.030494e+002, 2.031370e-002
4.049779e+002, 2.034242e-002
4.069064e+002, 2.017620e-002
4.088348e+002, 2.002225e-002
4.107633e+002, 2.007223e-002
4.126917e+002, 2.024119e-002
4.146202e+002, 2.033466e-002
4.165487e+002, 2.033927e-002
4.184771e+002, 2.018129e-002
4.204056e+002, 1.996899e-002
4.223341e+002, 2.003494e-002
4.242625e+002, 1.998362e-002
4.261910e+002, 1.961387e-002
4.281195e+002, 1.926544e-002
4.300479e+002, 1.901610e-002
4.319764e+002, 1.891523e-002
4.339049e+002, 1.865766e-002
4.358333e+002, 1.825875e-002
4.377618e+002, 1.790139e-002
4.396903e+002, 1.778838e-002
4.416187e+002, 1.760434e-002
4.435472e+002, 1.719784e-002
4.454757e+002, 1.699774e-002
4.474041e+002, 1.722803e-002
4.493326e+002, 1.731659e-002
4.512611e+002, 1.741501e-002
4.531895e+002, 1.759190e-002
4.551180e+002, 1.792034e-002
4.570465e+002, 1.839210e-002
4.589749e+002, 1.869011e-002
4.609034e+002, 1.879157e-002
4.628319e+002, 1.923780e-002
4.647603e+002, 1.947021e-002
4.666888e+002, 1.946626e-002
4.686173e+002, 1.960898e-002
4.705457e+002, 1.944634e-002
4.724742e+002, 1.950130e-002
4.744027e+002, 1.967589e-002
4.763311e+002, 1.953657e-002
4.782596e+002, 1.892204e-002
4.801881e+002, 1.861681e-002
4.821165e+002, 1.861749e-002
4.840450e+002, 1.829050e-002
4.859735e+002, 1.776265e-002
4.879019e+002, 1.734202e-002
4.898304e+002, 1.723469e-002
4.917589e+002, 1.724325e-002
4.936873e+002, 1.779216e-002
4.956158e+002, 1.806181e-002
4.975443e+002, 1.810448e-002
4.994727e+002, 1.838986e-002
5.014012e+002, 1.881927e-002
5.033297e+002, 1.933514e-002
5.052581e+002, 1.970080e-002
5.071866e+002, 1.950069e-002
5.091151e+002, 1.903623e-002
5.110435e+002, 1.860557e-002
5.129720e+002, 1.806726e-002
5.149005e+002, 1.791207e-002
5.168289e+002, 1.792608e-002
5.187574e+002, 1.795777e-002
5.206859e+002, 1.787591e-002
5.226143e+002, 1.773342e-002
5.245428e+002, 1.770854e-002
5.264713e+002, 1.768910e-002
5.283997e+002, 1.789267e-002
5.303282e+002, 1.774638e-002
5.322567e+002, 1.738159e-002
5.341851e+002, 1.737967e-002
5.361136e+002, 1.751349e-002
5.380421e+002, 1.770382e-002
5.399705e+002, 1.787051e-002
5.418990e+002, 1.793046e-002
5.438275e+002, 1.835513e-002
5.457559e+002, 1.851000e-002
5.476844e+002, 1.843704e-002
5.496129e+002, 1.837873e-002
5.515413e+002, 1.870978e-002
5.534698e+002, 1.882285e-002
5.553983e+002, 1.857326e-002
5.573267e+002, 1.856682e-002
5.592552e+002, 1.898330e-002
5.611837e+002, 1.917346e-002
5.631121e+002, 1.917626e-002
5.650406e+002, 1.914611e-002
5.669691e+002, 1.929710e-002
5.688975e+002, 1.931754e-002
5.708260e+002, 1.944028e-002
5.727545e+002, 1.968815e-002
5.746829e+002, 1.968165e-002
5.766114e+002, 1.963066e-002
5.785399e+002, 1.972171e-002
5.804683e+002, 1.972319e-002
5.823968e+002, 1.915968e-002
5.843253e+002, 1.857448e-002
5.862537e+002, 1.844524e-002
5.881822e+002, 1.831605e-002
5.901107e+002, 1.796473e-002
5.920391e+002, 1.774503e-002
5.939676e+002, 1.765225e-002
5.958961e+002, 1.722833e-002
5.978245e+002, 1.707675e-002
5.997530e+002, 1.736013e-002
6.016815e+002, 1.768995e-002
6.036099e+002, 1.800840e-002
6.055384e+002, 1.824945e-002
6.074669e+002, 1.767019e-002
6.093953e+002, 1.757889e-002
6.113238e+002, 1.846380e-002
6.132523e+002, 1.884724e-002
6.151807e+002, 1.844541e-002
6.171091e+002, 1.822166e-002
6.190376e+002, 1.874478e-002
6.209661e+002, 1.935367e-002
6.228945e+002, 1.985703e-002
6.248230e+002, 2.023712e-002
6.267515e+002, 2.090701e-002
6.286799e+002, 2.241534e-002
6.306084e+002, 2.355426e-002
6.325369e+002, 2.405409e-002
6.344653e+002, 2.432451e-002
6.363938e+002, 2.427159e-002
6.383223e+002, 2.437310e-002
6.402507e+002, 2.427020e-002
6.421792e+002, 2.383282e-002
6.441077e+002, 2.374092e-002
6.460361e+002, 2.398031e-002
6.479646e+002, 2.398827e-002
6.498931e+002, 2.394347e-002
6.518215e+002, 2.382002e-002
6.537500e+002, 2.384196e-002
6.556785e+002, 2.440199e-002
6.576069e+002, 2.468451e-002
6.595354e+002, 2.469616e-002
6.614639e+002, 2.453961e-002
6.633923e+002, 2.420564e-002
6.653208e+002, 2.431777e-002
6.672493e+002, 2.499483e-002
6.691777e+002, 2.484960e-002
6.711062e+002, 2.446780e-002
6.730347e+002, 2.424487e-002
6.749631e+002, 2.407789e-002
6.768916e+002, 2.429590e-002
6.788201e+002, 2.446674e-002
6.807485e+002, 2.441753e-002
6.826770e+002, 2.429018e-002
6.846055e+002, 2.502600e-002
6.865339e+002, 2.648660e-002
6.884624e+002, 2.703126e-002
6.903909e+002, 2.620430e-002
6.923193e+002, 2.626453e-002
6.942478e+002, 2.791365e-002
6.961763e+002, 2.997147e-002
6.981047e+002, 2.981677e-002
7.000332e+002, 2.938446e-002
##END=



