##NAMES=Carletonite
##RRUFFID=R050255
##IDEAL CHEMISTRY=KNa_4_Ca_4_Si_8_O_18_(CO_3_)_4_(F,OH)&#183;H_2_O
##LOCALITY=Mont Saint-Hilaire, Rouville County, Quebec, Canada
##OWNER=RRUFF
##SOURCE=Marcus Origlieri
##DESCRIPTION=Group of blue prismatic single crystals
##STATUS=The identification of this mineral has been confirmed by X-ray diffraction and chemical analysis
##URL=rruff.info/R050255
##MEASURED CHEMISTRY=(K_0.86_Na_0.14_)_Σ=1_Na_4.00_Ca_4.00_Si_8.00_O_18_(CO_3_)_4_(F_0.51_(OH)_0.49_)_Σ=1_·H_2_O
5.014013e+001, 5.071807e-003
5.206860e+001, 6.567323e-003
5.399707e+001, 1.483161e-002
5.592553e+001, 1.570372e-002
5.785400e+001, 1.724857e-002
5.978246e+001, 1.986842e-002
6.171093e+001, 1.927578e-002
6.363940e+001, 1.868774e-002
6.556786e+001, 2.007049e-002
6.749633e+001, 2.025880e-002
6.942480e+001, 1.775947e-002
7.135326e+001, 1.773069e-002
7.328172e+001, 1.851129e-002
7.521019e+001, 1.710903e-002
7.713866e+001, 1.652599e-002
7.906712e+001, 1.825401e-002
8.099559e+001, 1.872124e-002
8.292406e+001, 1.852313e-002
8.485252e+001, 1.813104e-002
8.678099e+001, 1.855360e-002
8.870946e+001, 2.006010e-002
9.063792e+001, 2.056073e-002
9.256638e+001, 2.125287e-002
9.449485e+001, 2.247449e-002
9.642332e+001, 2.285726e-002
9.835178e+001, 2.317062e-002
1.002803e+002, 2.333043e-002
1.022087e+002, 2.305462e-002
1.041372e+002, 2.293586e-002
1.060657e+002, 2.384190e-002
1.079941e+002, 2.403305e-002
1.099226e+002, 2.311010e-002
1.118510e+002, 2.338615e-002
1.137795e+002, 2.359664e-002
1.157080e+002, 2.333146e-002
1.176364e+002, 2.381669e-002
1.195649e+002, 2.477273e-002
1.214934e+002, 2.554511e-002
1.234218e+002, 2.645778e-002
1.253503e+002, 2.623493e-002
1.272788e+002, 2.633171e-002
1.292072e+002, 2.693198e-002
1.311357e+002, 2.767912e-002
1.330642e+002, 2.800127e-002
1.349926e+002, 2.781005e-002
1.369211e+002, 2.847846e-002
1.388496e+002, 3.010179e-002
1.407780e+002, 3.023723e-002
1.427065e+002, 2.999274e-002
1.446350e+002, 3.002220e-002
1.465634e+002, 3.016851e-002
1.484919e+002, 3.154016e-002
1.504204e+002, 3.231158e-002
1.523488e+002, 3.122142e-002
1.542773e+002, 3.095548e-002
1.562058e+002, 3.185304e-002
1.581342e+002, 3.248243e-002
1.600627e+002, 3.264958e-002
1.619912e+002, 3.280513e-002
1.639196e+002, 3.344575e-002
1.658481e+002, 3.434467e-002
1.677766e+002, 3.472277e-002
1.697050e+002, 3.611857e-002
1.716335e+002, 3.746141e-002
1.735620e+002, 3.785676e-002
1.754904e+002, 3.806100e-002
1.774189e+002, 3.759392e-002
1.793474e+002, 3.624095e-002
1.812758e+002, 3.534978e-002
1.832043e+002, 3.462606e-002
1.851328e+002, 3.454763e-002
1.870612e+002, 3.550387e-002
1.889897e+002, 3.663550e-002
1.909182e+002, 3.775759e-002
1.928466e+002, 3.859982e-002
1.947751e+002, 3.943498e-002
1.967036e+002, 4.038509e-002
1.986320e+002, 4.172050e-002
2.005605e+002, 4.305265e-002
2.024890e+002, 4.455677e-002
2.044174e+002, 4.508425e-002
2.063459e+002, 4.533210e-002
2.082744e+002, 4.550558e-002
2.102028e+002, 4.474299e-002
2.121313e+002, 4.415349e-002
2.140598e+002, 4.437422e-002
2.159882e+002, 4.548090e-002
2.179167e+002, 4.686977e-002
2.198452e+002, 4.763517e-002
2.217736e+002, 4.706006e-002
2.237021e+002, 4.485321e-002
2.256305e+002, 4.251333e-002
2.275590e+002, 4.012804e-002
2.294875e+002, 3.815559e-002
2.314159e+002, 3.734398e-002
2.333444e+002, 3.722726e-002
2.352729e+002, 3.812417e-002
2.372013e+002, 3.899685e-002
2.391298e+002, 3.995802e-002
2.410583e+002, 4.128504e-002
2.429867e+002, 4.250522e-002
2.449152e+002, 4.427931e-002
2.468437e+002, 4.676524e-002
2.487721e+002, 4.897580e-002
2.507006e+002, 5.088193e-002
2.526291e+002, 5.295210e-002
2.545575e+002, 5.434348e-002
2.564860e+002, 5.412195e-002
2.584145e+002, 5.348650e-002
2.603429e+002, 5.243609e-002
2.622714e+002, 5.092554e-002
2.641999e+002, 4.962024e-002
2.661283e+002, 4.894948e-002
2.680568e+002, 4.883362e-002
2.699853e+002, 4.968849e-002
2.719137e+002, 5.074013e-002
2.738422e+002, 5.081725e-002
2.757707e+002, 4.994529e-002
2.776991e+002, 4.883226e-002
2.796276e+002, 4.695026e-002
2.815561e+002, 4.474968e-002
2.834845e+002, 4.312968e-002
2.854130e+002, 4.150837e-002
2.873415e+002, 4.020038e-002
2.892699e+002, 3.944925e-002
2.911984e+002, 3.884672e-002
2.931269e+002, 3.861329e-002
2.950553e+002, 3.862252e-002
2.969838e+002, 3.877720e-002
2.989123e+002, 3.913338e-002
3.008407e+002, 3.973204e-002
3.027692e+002, 4.055284e-002
3.046977e+002, 4.108912e-002
3.066261e+002, 4.150698e-002
3.085546e+002, 4.186131e-002
3.104831e+002, 4.238284e-002
3.124115e+002, 4.321299e-002
3.143400e+002, 4.393227e-002
3.162685e+002, 4.412767e-002
3.181969e+002, 4.443198e-002
3.201254e+002, 4.503438e-002
3.220539e+002, 4.564851e-002
3.239823e+002, 4.580407e-002
3.259108e+002, 4.551440e-002
3.278392e+002, 4.579444e-002
3.297677e+002, 4.560093e-002
3.316962e+002, 4.493556e-002
3.336246e+002, 4.445922e-002
3.355531e+002, 4.422325e-002
3.374816e+002, 4.388952e-002
3.394100e+002, 4.371453e-002
3.413385e+002, 4.372331e-002
3.432670e+002, 4.361231e-002
3.451954e+002, 4.333532e-002
3.471239e+002, 4.324612e-002
3.490524e+002, 4.312043e-002
3.509808e+002, 4.266972e-002
3.529093e+002, 4.199765e-002
3.548378e+002, 4.117589e-002
3.567662e+002, 4.056592e-002
3.586947e+002, 4.027591e-002
3.606232e+002, 3.965820e-002
3.625516e+002, 3.905141e-002
3.644801e+002, 3.916801e-002
3.664086e+002, 3.942005e-002
3.683370e+002, 3.952977e-002
3.702655e+002, 3.998882e-002
3.721940e+002, 4.077161e-002
3.741224e+002, 4.201706e-002
3.760509e+002, 4.358911e-002
3.779794e+002, 4.514744e-002
3.799078e+002, 4.637213e-002
3.818363e+002, 4.698026e-002
3.837648e+002, 4.705494e-002
3.856932e+002, 4.659827e-002
3.876217e+002, 4.587863e-002
3.895502e+002, 4.565022e-002
3.914786e+002, 4.565189e-002
3.934071e+002, 4.532126e-002
3.953356e+002, 4.438540e-002
3.972640e+002, 4.323772e-002
3.991925e+002, 4.204150e-002
4.011210e+002, 4.152251e-002
4.030494e+002, 4.202176e-002
4.049779e+002, 4.303217e-002
4.069064e+002, 4.400515e-002
4.088348e+002, 4.526080e-002
4.107633e+002, 4.671414e-002
4.126917e+002, 4.828129e-002
4.146202e+002, 5.032577e-002
4.165487e+002, 5.237154e-002
4.184771e+002, 5.459223e-002
4.204056e+002, 5.712369e-002
4.223341e+002, 6.002574e-002
4.242625e+002, 6.298824e-002
4.261910e+002, 6.637837e-002
4.281195e+002, 6.986833e-002
4.300479e+002, 7.359171e-002
4.319764e+002, 7.705851e-002
4.339049e+002, 7.979417e-002
4.358333e+002, 8.156390e-002
4.377618e+002, 8.136757e-002
4.396903e+002, 7.905832e-002
4.416187e+002, 7.499497e-002
4.435472e+002, 6.986541e-002
4.454757e+002, 6.575591e-002
4.474041e+002, 6.427173e-002
4.493326e+002, 6.614322e-002
4.512611e+002, 6.996764e-002
4.531895e+002, 7.303257e-002
4.551180e+002, 7.312953e-002
4.570465e+002, 7.119777e-002
4.589749e+002, 6.795397e-002
4.609034e+002, 6.441120e-002
4.628319e+002, 6.102373e-002
4.647603e+002, 5.748410e-002
4.666888e+002, 5.364861e-002
4.686173e+002, 5.048255e-002
4.705457e+002, 4.771577e-002
4.724742e+002, 4.579930e-002
4.744027e+002, 4.519967e-002
4.763311e+002, 4.584037e-002
4.782596e+002, 4.720806e-002
4.801881e+002, 4.866255e-002
4.821165e+002, 4.958818e-002
4.840450e+002, 4.898389e-002
4.859735e+002, 4.763476e-002
4.879019e+002, 4.742026e-002
4.898304e+002, 4.840041e-002
4.917589e+002, 5.064657e-002
4.936873e+002, 5.299915e-002
4.956158e+002, 5.295632e-002
4.975443e+002, 5.067036e-002
4.994727e+002, 4.889483e-002
5.014012e+002, 4.768672e-002
5.033297e+002, 4.588185e-002
5.052581e+002, 4.349142e-002
5.071866e+002, 4.085522e-002
5.091151e+002, 3.810176e-002
5.110435e+002, 3.575296e-002
5.129720e+002, 3.461048e-002
5.149005e+002, 3.453666e-002
5.168289e+002, 3.538609e-002
5.187574e+002, 3.838724e-002
5.206859e+002, 4.235550e-002
5.226143e+002, 4.538162e-002
5.245428e+002, 4.641059e-002
5.264713e+002, 4.488937e-002
5.283997e+002, 4.125767e-002
5.303282e+002, 3.745129e-002
5.322567e+002, 3.444872e-002
5.341851e+002, 3.218080e-002
5.361136e+002, 3.090684e-002
5.380421e+002, 3.027460e-002
5.399705e+002, 2.926074e-002
5.418990e+002, 2.877109e-002
5.438275e+002, 2.923935e-002
5.457559e+002, 2.940948e-002
5.476844e+002, 2.890091e-002
5.496129e+002, 2.845233e-002
5.515413e+002, 2.868679e-002
5.534698e+002, 2.870055e-002
5.553983e+002, 2.846585e-002
5.573267e+002, 2.837864e-002
5.592552e+002, 2.819229e-002
5.611837e+002, 2.821849e-002
5.631121e+002, 2.832665e-002
5.650406e+002, 2.834776e-002
5.669691e+002, 2.809721e-002
5.688975e+002, 2.864955e-002
5.708260e+002, 2.906048e-002
5.727545e+002, 2.916156e-002
5.746829e+002, 2.976299e-002
5.766114e+002, 3.067253e-002
5.785399e+002, 3.102098e-002
5.804683e+002, 3.149302e-002
5.823968e+002, 3.284006e-002
5.843253e+002, 3.428990e-002
5.862537e+002, 3.572571e-002
5.881822e+002, 3.670703e-002
5.901107e+002, 3.662856e-002
5.920391e+002, 3.491072e-002
5.939676e+002, 3.306689e-002
5.958961e+002, 3.203902e-002
5.978245e+002, 3.104160e-002
5.997530e+002, 2.964137e-002
6.016815e+002, 2.837765e-002
6.036099e+002, 2.784531e-002
6.055384e+002, 2.745630e-002
6.074669e+002, 2.720272e-002
6.093953e+002, 2.716536e-002
6.113238e+002, 2.760168e-002
6.132523e+002, 2.860944e-002
6.151807e+002, 2.907175e-002
6.171091e+002, 2.858128e-002
6.190376e+002, 2.807334e-002
6.209661e+002, 2.831917e-002
6.228945e+002, 2.941578e-002
6.248230e+002, 3.089823e-002
6.267515e+002, 3.286470e-002
6.286799e+002, 3.491018e-002
6.306084e+002, 3.679787e-002
6.325369e+002, 3.797394e-002
6.344653e+002, 3.815145e-002
6.363938e+002, 3.865426e-002
6.383223e+002, 3.946182e-002
6.402507e+002, 4.034471e-002
6.421792e+002, 4.156970e-002
6.441077e+002, 4.268716e-002
6.460361e+002, 4.422342e-002
6.479646e+002, 4.610821e-002
6.498931e+002, 4.866980e-002
6.518215e+002, 5.203134e-002
6.537500e+002, 5.638268e-002
6.556785e+002, 6.090256e-002
6.576069e+002, 6.449427e-002
6.595354e+002, 6.600579e-002
6.614639e+002, 6.491232e-002
6.633923e+002, 6.166730e-002
6.653208e+002, 5.757634e-002
6.672493e+002, 5.388895e-002
6.691777e+002, 5.052872e-002
6.711062e+002, 4.783620e-002
6.730347e+002, 4.654036e-002
6.749631e+002, 4.598540e-002
6.768916e+002, 4.588362e-002
6.788201e+002, 4.651842e-002
6.807485e+002, 4.698347e-002
6.826770e+002, 4.796554e-002
6.846055e+002, 4.947723e-002
6.865339e+002, 5.072113e-002
6.884624e+002, 5.252120e-002
6.903909e+002, 5.580328e-002
6.923193e+002, 5.849309e-002
6.942478e+002, 5.470742e-002
6.961763e+002, 4.885780e-002
6.981047e+002, 4.641188e-002
7.000332e+002, 4.591168e-002
##END=



