##NAMES=Carnallite
##RRUFFID=R050353
##IDEAL CHEMISTRY=KMgCl_3_&#183;6H_2_O
##LOCALITY=Strassfurt, Germany
##OWNER=RRUFF
##SOURCE=California Institute of Technology
##DESCRIPTION=Colorless single crystals and grains associated with halite, sylvite, and anhydrite.
##STATUS=The identification of this mineral has been confirmed by X-ray diffraction.
##URL=rruff.info/R050353
399.1926, 4.3157831E-02
401.1211, 4.0313661E-02
403.0496, 4.0507469E-02
404.9780, 3.7913289E-02
406.9065, 3.8117860E-02
408.8350, 4.0659979E-02
410.7634, 4.0122371E-02
412.6919, 3.8401209E-02
414.6204, 4.0030759E-02
416.5488, 4.0015891E-02
418.4773, 3.8626190E-02
420.4058, 3.8530961E-02
422.3342, 3.9769989E-02
424.2627, 4.2143870E-02
426.1912, 4.2353678E-02
428.1196, 4.0977430E-02
430.0481, 4.0530849E-02
431.9766, 4.1496951E-02
433.9050, 4.3680329E-02
435.8335, 4.5508441E-02
437.7620, 4.4615742E-02
439.6904, 4.5192041E-02
441.6189, 4.5661170E-02
443.5474, 4.6695311E-02
445.4758, 4.8420612E-02
447.4043, 4.8379961E-02
449.3328, 4.7263831E-02
451.2612, 4.6269421E-02
453.1897, 4.6230111E-02
455.1182, 4.5389932E-02
457.0466, 4.5270119E-02
458.9751, 4.5323469E-02
460.9036, 4.5471471E-02
462.8320, 4.5910452E-02
464.7605, 4.5673359E-02
466.6890, 4.5308329E-02
468.6174, 4.5120880E-02
470.5459, 4.5059770E-02
472.4744, 4.5017499E-02
474.4028, 4.4181991E-02
476.3313, 4.3825861E-02
478.2598, 4.4370219E-02
480.1882, 4.5476370E-02
482.1167, 4.5343649E-02
484.0452, 4.5256440E-02
485.9736, 4.5152780E-02
487.9021, 4.3744300E-02
489.8306, 4.2962540E-02
491.7590, 4.3482359E-02
493.6875, 4.3648768E-02
495.6160, 4.3393329E-02
497.5444, 4.3384161E-02
499.4729, 4.2963762E-02
501.4014, 4.2476829E-02
503.3298, 4.2254161E-02
505.2583, 4.2202320E-02
507.1868, 4.2331379E-02
509.1152, 4.1450910E-02
511.0437, 4.0460221E-02
512.9722, 4.0040500E-02
514.9006, 3.9488118E-02
516.8291, 3.9114490E-02
518.7576, 3.8821619E-02
520.6860, 3.8526859E-02
522.6145, 3.7783019E-02
524.5430, 3.7305791E-02
526.4714, 3.7031371E-02
528.3999, 3.6867309E-02
530.3284, 3.6275379E-02
532.2568, 3.5394300E-02
534.1853, 3.5242211E-02
536.1138, 3.4979511E-02
538.0422, 3.4203131E-02
539.9707, 3.3832561E-02
541.8992, 3.3372041E-02
543.8276, 3.3054650E-02
545.7561, 3.2795589E-02
547.6846, 3.1986099E-02
549.6130, 3.1694438E-02
551.5415, 3.1606801E-02
553.4700, 3.1116540E-02
555.3984, 3.1464029E-02
557.3269, 3.1482618E-02
559.2554, 3.1396549E-02
561.1838, 3.1027669E-02
563.1123, 3.0605540E-02
565.0408, 3.0339491E-02
566.9692, 3.0571969E-02
568.8977, 3.0901210E-02
570.8262, 3.1175690E-02
572.7546, 3.1183260E-02
574.6831, 3.1792250E-02
576.6116, 3.2532040E-02
578.5400, 3.3556491E-02
580.4685, 3.4354150E-02
582.3970, 3.4743831E-02
584.3254, 3.5388332E-02
586.2539, 3.6680829E-02
588.1824, 3.8615599E-02
590.1108, 4.2326380E-02
592.0393, 4.6697650E-02
593.9678, 4.9363319E-02
595.8962, 4.9076430E-02
597.8247, 4.7004409E-02
599.7532, 4.5148458E-02
601.6816, 4.4306960E-02
603.6101, 4.4814110E-02
605.5386, 4.6471290E-02
607.4670, 4.8551090E-02
609.3955, 5.0629720E-02
611.3240, 5.2159149E-02
613.2524, 5.3328872E-02
615.1809, 5.2941851E-02
617.1094, 5.0919771E-02
619.0378, 4.9432602E-02
620.9663, 4.8512869E-02
622.8948, 4.6900291E-02
624.8232, 4.4868369E-02
626.7517, 4.3451700E-02
628.6802, 4.2953029E-02
630.6086, 4.2155869E-02
632.5371, 4.1234959E-02
634.4656, 4.0479209E-02
636.3940, 4.0047418E-02
638.3225, 3.9525811E-02
640.2510, 3.8892500E-02
642.1794, 3.7962560E-02
644.1079, 3.6707051E-02
646.0364, 3.5632931E-02
647.9648, 3.4669019E-02
649.8933, 3.3877712E-02
651.8218, 3.3037551E-02
653.7502, 3.2499220E-02
655.6787, 3.2062810E-02
657.6072, 3.1395789E-02
659.5356, 3.0328561E-02
661.4641, 2.9618250E-02
663.3926, 2.9694580E-02
665.3210, 3.0234581E-02
667.2495, 3.0993359E-02
669.1780, 3.1483460E-02
671.1064, 3.2380480E-02
673.0349, 3.3454120E-02
674.9634, 3.3942688E-02
676.8918, 3.3252891E-02
678.8203, 3.1562518E-02
680.7488, 2.8784649E-02
682.6772, 2.5137080E-02
684.6057, 2.1737611E-02
686.5342, 1.9181119E-02
688.4626, 1.7322060E-02
690.3911, 1.6233919E-02
692.3196, 1.5081820E-02
694.2480, 1.3782390E-02
696.1765, 1.3115990E-02
698.1050, 1.2799190E-02
700.0334, 1.2187030E-02
701.9619, 1.1663140E-02
703.8904, 1.1523010E-02
705.8188, 1.1060470E-02
707.7473, 1.0923680E-02
709.6758, 1.1014510E-02
711.6042, 1.0910490E-02
713.5327, 1.0758970E-02
715.4612, 1.0580740E-02
717.3896, 1.0550200E-02
719.3181, 1.0469920E-02
721.2466, 1.0646700E-02
723.1750, 1.1033070E-02
725.1035, 1.0811430E-02
727.0320, 1.0406580E-02
728.9604, 1.0534800E-02
730.8889, 1.0622840E-02
732.8174, 1.0518630E-02
734.7458, 1.0634590E-02
736.6743, 1.0729110E-02
738.6028, 1.0652920E-02
740.5313, 1.1051970E-02
742.4597, 1.1460270E-02
744.3882, 1.1367280E-02
746.3167, 1.1272090E-02
748.2451, 1.1288180E-02
750.1736, 1.1566400E-02
752.1021, 1.1690530E-02
754.0305, 1.1322850E-02
755.9590, 1.1145290E-02
757.8875, 1.0998800E-02
759.8159, 1.1269210E-02
761.7444, 1.1191630E-02
763.6729, 1.0749090E-02
765.6013, 1.0636650E-02
767.5298, 1.0724730E-02
769.4583, 1.0862440E-02
771.3867, 1.0643200E-02
773.3152, 1.0437810E-02
775.2437, 1.0322950E-02
777.1721, 1.0120840E-02
779.1006, 1.0081370E-02
781.0291, 9.8284418E-03
782.9575, 9.4240392E-03
784.8860, 9.4282143E-03
786.8145, 9.4131082E-03
788.7429, 9.3639223E-03
790.6714, 9.3232840E-03
792.5999, 9.3673961E-03
794.5283, 9.4098002E-03
796.4568, 9.3266461E-03
798.3853, 9.3473531E-03
800.3137, 9.3799857E-03
802.2422, 9.4690081E-03
804.1707, 9.5766289E-03
806.0991, 9.5830141E-03
808.0276, 9.7417859E-03
809.9561, 9.8124454E-03
811.8845, 9.7189546E-03
813.8130, 9.9464683E-03
815.7415, 1.0077140E-02
817.6699, 9.8897368E-03
819.5984, 1.0059830E-02
821.5269, 1.0411290E-02
823.4553, 1.0165860E-02
825.3838, 1.0075060E-02
827.3123, 1.0333300E-02
829.2407, 1.0473630E-02
831.1692, 1.0411350E-02
833.0977, 1.0209590E-02
835.0261, 1.0215920E-02
836.9546, 1.0613520E-02
838.8831, 1.0606000E-02
840.8115, 1.0664720E-02
842.7400, 1.1035340E-02
844.6685, 1.0906970E-02
846.5969, 1.0747320E-02
848.5254, 1.0722620E-02
850.4539, 1.0569920E-02
852.3823, 1.0873550E-02
854.3108, 1.1195860E-02
856.2393, 1.1055590E-02
858.1677, 1.0868290E-02
860.0962, 1.1034320E-02
862.0247, 1.1300160E-02
863.9531, 1.1246500E-02
865.8816, 1.1132770E-02
867.8101, 1.1299430E-02
869.7385, 1.1434990E-02
871.6670, 1.1435350E-02
873.5955, 1.1690130E-02
875.5239, 1.1868490E-02
877.4524, 1.1911400E-02
879.3809, 1.2123890E-02
881.3093, 1.2082480E-02
883.2378, 1.2148760E-02
885.1663, 1.2127670E-02
887.0947, 1.2182430E-02
889.0232, 1.2069780E-02
890.9517, 1.1884370E-02
892.8801, 1.2309510E-02
894.8085, 1.2428940E-02
896.7370, 1.2481620E-02
898.6655, 1.2662830E-02
900.5939, 1.2979710E-02
902.5224, 1.3274930E-02
904.4509, 1.3410540E-02
906.3793, 1.3491320E-02
908.3078, 1.3485790E-02
910.2363, 1.3491050E-02
912.1647, 1.3610080E-02
914.0932, 1.3604160E-02
916.0217, 1.3651680E-02
917.9501, 1.3766740E-02
919.8786, 1.4006820E-02
921.8071, 1.4293000E-02
923.7355, 1.4516810E-02
925.6640, 1.4281040E-02
927.5925, 1.4435610E-02
929.5209, 1.4785770E-02
931.4494, 1.5063700E-02
933.3779, 1.5429350E-02
935.3063, 1.5451190E-02
937.2348, 1.5441010E-02
939.1633, 1.5673840E-02
941.0917, 1.5930220E-02
943.0202, 1.6058620E-02
944.9487, 1.6024260E-02
946.8771, 1.6101170E-02
948.8056, 1.6260181E-02
950.7341, 1.6414849E-02
952.6625, 1.6357761E-02
954.5910, 1.6349681E-02
956.5195, 1.6703190E-02
958.4479, 1.7078809E-02
960.3764, 1.7224720E-02
962.3049, 1.7175309E-02
964.2333, 1.7303349E-02
966.1618, 1.7577849E-02
968.0903, 1.7704990E-02
970.0187, 1.8095991E-02
971.9472, 1.8478710E-02
973.8757, 1.8690171E-02
975.8041, 1.8899700E-02
977.7326, 1.9102961E-02
979.6611, 1.9469069E-02
981.5895, 1.9875050E-02
983.5180, 2.0436950E-02
985.4465, 2.1536071E-02
987.3749, 2.2972710E-02
989.3034, 2.3896700E-02
991.2319, 2.3208279E-02
993.1603, 2.1740090E-02
995.0888, 2.0846929E-02
997.0173, 2.0529879E-02
998.9457, 2.0650949E-02
1000.874, 2.0731989E-02
1002.803, 2.0513151E-02
1004.731, 2.0424969E-02
1006.660, 2.0600650E-02
1008.588, 2.0741859E-02
1010.517, 2.0866901E-02
1012.445, 2.1173639E-02
1014.373, 2.1510441E-02
1016.302, 2.1648230E-02
1018.230, 2.1707909E-02
1020.159, 2.1823689E-02
1022.087, 2.2023750E-02
1024.016, 2.2113020E-02
1025.944, 2.2105960E-02
1027.873, 2.2358401E-02
1029.801, 2.2976249E-02
1031.730, 2.3305180E-02
1033.658, 2.3775240E-02
1035.587, 2.4148479E-02
1037.515, 2.4106439E-02
1039.444, 2.4510261E-02
1041.372, 2.5087880E-02
1043.301, 2.5537390E-02
1045.229, 2.5892330E-02
1047.157, 2.6122371E-02
1049.086, 2.6635511E-02
1051.014, 2.7508950E-02
1052.943, 2.8122021E-02
1054.871, 2.8588900E-02
1056.800, 2.9276811E-02
1058.728, 3.0196941E-02
1060.657, 3.1442821E-02
1062.585, 3.2389920E-02
1064.514, 3.3273939E-02
1066.442, 3.4046780E-02
1068.371, 3.4915891E-02
1070.299, 3.6273289E-02
1072.228, 3.7924781E-02
1074.156, 3.9509289E-02
1076.084, 4.1189332E-02
1078.013, 4.2840712E-02
1079.941, 4.4403698E-02
1081.870, 4.5975350E-02
1083.798, 4.7695730E-02
1085.727, 4.9073871E-02
1087.655, 5.0065469E-02
1089.584, 5.0992679E-02
1091.512, 5.1768079E-02
1093.441, 5.2485801E-02
1095.369, 5.3232901E-02
1097.298, 5.4260869E-02
1099.226, 5.5133559E-02
1101.155, 5.5695601E-02
1103.083, 5.6309760E-02
1105.011, 5.6877151E-02
1106.940, 5.7267081E-02
1108.868, 5.7795040E-02
1110.797, 5.8444381E-02
1112.725, 5.9000649E-02
1114.654, 5.9642479E-02
1116.582, 6.0088269E-02
1118.511, 6.0547199E-02
1120.439, 6.0802121E-02
1122.368, 6.0874108E-02
1124.296, 6.1250441E-02
1126.225, 6.1860990E-02
1128.153, 6.2374279E-02
1130.082, 6.2792979E-02
1132.010, 6.3273519E-02
1133.938, 6.4200960E-02
1135.867, 6.4905509E-02
1137.795, 6.5347306E-02
1139.724, 6.6037796E-02
1141.652, 6.6297218E-02
1143.581, 6.6393793E-02
1145.509, 6.6377662E-02
1147.438, 6.6388883E-02
1149.366, 6.6900350E-02
1151.295, 6.7532100E-02
1153.223, 6.7889489E-02
1155.152, 6.7882903E-02
1157.080, 6.7361489E-02
1159.009, 6.6374101E-02
1160.937, 6.4889818E-02
1162.865, 6.2908143E-02
1164.794, 6.0781170E-02
1166.722, 5.8634080E-02
1168.651, 5.6549281E-02
1170.579, 5.4717451E-02
1172.508, 5.2722231E-02
1174.436, 5.0849970E-02
1176.365, 4.9213652E-02
1178.293, 4.7477461E-02
1180.222, 4.5524999E-02
1182.150, 4.3384548E-02
1184.079, 4.1411679E-02
1186.007, 3.9759889E-02
1187.936, 3.8519729E-02
1189.864, 3.7595209E-02
1191.792, 3.6812339E-02
1193.721, 3.5918899E-02
1195.649, 3.4542829E-02
1197.578, 3.2841109E-02
1199.506, 3.0798480E-02
1201.435, 2.8774731E-02
1203.363, 2.6857300E-02
1205.292, 2.4845069E-02
1207.220, 2.3031561E-02
1209.149, 2.1310780E-02
1211.077, 1.9738400E-02
1213.006, 1.8501760E-02
1214.934, 1.7585341E-02
1216.863, 1.6921850E-02
1218.791, 1.6048100E-02
1220.719, 1.5472290E-02
1222.648, 1.5239820E-02
1224.576, 1.4418410E-02
1226.505, 1.3648350E-02
1228.433, 1.3393350E-02
1230.362, 1.3053780E-02
1232.290, 1.2836970E-02
1234.219, 1.2547560E-02
1236.147, 1.2265990E-02
1238.076, 1.2014440E-02
1240.004, 1.1532110E-02
1241.933, 1.0950370E-02
1243.861, 1.0887300E-02
1245.790, 1.0999380E-02
1247.718, 1.0870530E-02
1249.646, 1.0669390E-02
1251.575, 1.0476880E-02
1253.503, 1.0404710E-02
1255.432, 1.0264450E-02
1257.360, 9.9636074E-03
1259.289, 9.8380409E-03
1261.217, 9.6484050E-03
1263.146, 9.5251184E-03
1265.074, 9.4813164E-03
1267.003, 9.3773017E-03
1268.931, 9.4698016E-03
1270.860, 9.4962306E-03
1272.788, 9.3066664E-03
1274.717, 9.2403218E-03
1276.645, 9.2588617E-03
1278.573, 9.1170566E-03
1280.502, 8.9037716E-03
1282.430, 8.6989589E-03
1284.359, 8.3057787E-03
1286.287, 8.3066579E-03
1288.216, 8.5021807E-03
1290.144, 8.4011201E-03
1292.073, 8.3820401E-03
1294.001, 8.3371932E-03
1295.930, 8.1416434E-03
1297.858, 8.2180304E-03
1299.787, 8.1134001E-03
1301.715, 8.0146166E-03
1303.644, 7.8604678E-03
1305.572, 7.8894207E-03
1307.500, 7.8740157E-03
1309.429, 8.0816057E-03
1311.357, 8.0053704E-03
1313.286, 7.9903984E-03
1315.214, 8.0074361E-03
1317.143, 7.7870451E-03
1319.071, 7.7964980E-03
1321.000, 8.1772590E-03
1322.928, 8.4347306E-03
1324.857, 8.3721476E-03
1326.785, 8.1609897E-03
1328.714, 7.9669030E-03
1330.642, 7.7464161E-03
1332.571, 7.5798370E-03
1334.499, 7.4769352E-03
1336.427, 7.5240741E-03
1338.356, 7.2791022E-03
1340.284, 7.3120748E-03
1342.213, 7.6297270E-03
1344.141, 7.4586892E-03
1346.070, 7.2491621E-03
1347.998, 7.2576031E-03
1349.927, 7.3181652E-03
1351.855, 7.4248258E-03
1353.784, 7.4736690E-03
1355.712, 7.3347921E-03
1357.641, 7.2423881E-03
1359.569, 7.0086028E-03
1361.498, 7.0020650E-03
1363.426, 7.2578369E-03
1365.354, 7.4415179E-03
1367.283, 7.6230769E-03
1369.211, 7.5711068E-03
1371.140, 7.2366311E-03
1373.068, 7.1551730E-03
1374.997, 7.4304091E-03
1376.925, 7.4209198E-03
1378.854, 6.8435320E-03
1380.782, 6.8574529E-03
1382.711, 7.0491810E-03
1384.639, 7.3349061E-03
1386.568, 7.5683468E-03
1388.496, 7.6277931E-03
1390.424, 7.7168681E-03
1392.353, 7.7009369E-03
1394.281, 7.7450601E-03
1396.210, 7.8851134E-03
1398.138, 7.8078709E-03
1400.067, 7.7860299E-03
1401.995, 7.8058359E-03
1403.924, 7.9228813E-03
1405.852, 7.9423999E-03
1407.781, 7.7974629E-03
1409.709, 8.1173386E-03
1411.638, 8.0248881E-03
1413.566, 7.8540333E-03
1415.495, 7.6935170E-03
1417.423, 7.6150750E-03
1419.351, 7.7925362E-03
1421.280, 7.7915820E-03
1423.208, 7.5983191E-03
1425.137, 7.7029420E-03
1427.065, 8.0761826E-03
1428.994, 8.4847948E-03
1430.922, 8.2539497E-03
1432.851, 7.9325708E-03
1434.779, 8.0520771E-03
1436.708, 8.1750760E-03
1438.636, 7.8169806E-03
1440.565, 7.2374982E-03
1442.493, 7.1301381E-03
1444.422, 7.2619109E-03
1446.350, 7.3700799E-03
1448.278, 7.1408260E-03
1450.207, 6.6943401E-03
1452.135, 6.6489261E-03
1454.064, 6.5996721E-03
1455.992, 6.5114689E-03
1457.921, 6.1736600E-03
1459.849, 5.7339319E-03
1461.778, 5.5923099E-03
1463.706, 5.6939288E-03
1465.635, 5.7818941E-03
1467.563, 5.7628560E-03
1469.492, 6.2126759E-03
1471.420, 6.8569151E-03
1473.349, 7.4906130E-03
1475.277, 7.9901852E-03
1477.205, 8.4039774E-03
1479.134, 8.4749348E-03
1481.062, 8.3312588E-03
1482.991, 8.2486300E-03
1484.919, 8.1122089E-03
1486.848, 8.1414031E-03
1488.776, 8.4741032E-03
1490.705, 8.5775191E-03
1492.633, 8.2514174E-03
1494.562, 8.2359482E-03
1496.490, 8.4625492E-03
1498.419, 8.3327824E-03
1500.347, 8.1635676E-03
1502.276, 8.0864653E-03
1504.204, 8.3514750E-03
1506.132, 8.7758843E-03
1508.061, 8.7104514E-03
1509.989, 8.4279394E-03
1511.918, 8.2756327E-03
1513.846, 8.2342764E-03
1515.775, 8.4297080E-03
1517.703, 8.5353320E-03
1519.632, 8.5382722E-03
1521.560, 8.9483038E-03
1523.489, 9.1133192E-03
1525.417, 9.1582667E-03
1527.346, 9.1384426E-03
1529.274, 8.8451989E-03
1531.203, 8.6545274E-03
1533.131, 8.7137539E-03
1535.059, 8.6482950E-03
1536.988, 8.8315504E-03
1538.916, 9.0838177E-03
1540.845, 9.1912095E-03
1542.773, 9.0077212E-03
1544.702, 9.3744192E-03
1546.630, 9.6363407E-03
1548.559, 9.2447139E-03
1550.487, 9.0234466E-03
1552.416, 9.3347020E-03
1554.344, 9.6205594E-03
1556.273, 9.5630381E-03
1558.201, 9.6800458E-03
1560.130, 9.5665520E-03
1562.058, 9.4386544E-03
1563.986, 9.3811061E-03
1565.915, 9.3745776E-03
1567.843, 9.1266138E-03
1569.772, 8.7439632E-03
1571.700, 8.7522790E-03
1573.629, 9.3094334E-03
1575.557, 9.7819893E-03
1577.486, 9.6351299E-03
1579.414, 9.3168179E-03
1581.343, 9.3087535E-03
1583.271, 9.3003782E-03
1585.200, 9.6749468E-03
1587.128, 9.9499626E-03
1589.057, 1.0000620E-02
1590.985, 9.9452091E-03
1592.913, 1.0245070E-02
1594.842, 1.0354820E-02
1596.770, 1.0857520E-02
1598.699, 1.1549960E-02
1600.627, 1.1653300E-02
1602.556, 1.2154290E-02
1604.484, 1.2918820E-02
1606.413, 1.3533660E-02
1608.341, 1.4416110E-02
1610.270, 1.5490580E-02
1612.198, 1.6766461E-02
1614.127, 1.8414291E-02
1616.055, 2.0586450E-02
1617.984, 2.3082130E-02
1619.912, 2.6994690E-02
1621.840, 3.2907721E-02
1623.769, 3.9993841E-02
1625.697, 4.8564941E-02
1627.626, 5.8953941E-02
1629.554, 6.9739372E-02
1631.483, 8.0796763E-02
1633.411, 9.0545252E-02
1635.340, 9.5441192E-02
1637.268, 9.3342863E-02
1639.197, 8.6053029E-02
1641.125, 7.6440752E-02
1643.054, 6.6590577E-02
1644.982, 5.8652151E-02
1646.911, 5.1185880E-02
1648.839, 4.2530771E-02
1650.767, 3.3642020E-02
1652.696, 2.5984820E-02
1654.624, 2.0174081E-02
1656.553, 1.6644491E-02
1658.481, 1.4095600E-02
1660.410, 1.2044070E-02
1662.338, 1.0890910E-02
1664.267, 1.0153550E-02
1666.195, 9.4859833E-03
1668.124, 9.0784766E-03
1670.052, 8.3722668E-03
1671.981, 8.2574179E-03
1673.909, 8.6625936E-03
1675.838, 8.6639216E-03
1677.766, 8.4410813E-03
1679.694, 8.1985313E-03
1681.623, 8.2209036E-03
1683.551, 8.6334664E-03
1685.480, 8.7242266E-03
1687.408, 8.2511082E-03
1689.337, 8.0858096E-03
1691.265, 8.2310354E-03
1693.194, 8.5178493E-03
1695.122, 8.5113561E-03
1697.051, 8.5136443E-03
1698.979, 8.3308034E-03
1700.908, 8.0011999E-03
1702.836, 7.4509569E-03
1704.765, 7.3053539E-03
1706.693, 6.9818818E-03
1708.621, 6.7116790E-03
1710.550, 6.8466892E-03
1712.478, 7.0774951E-03
1714.407, 7.6335729E-03
1716.335, 8.3203241E-03
1718.264, 8.9006620E-03
1720.192, 9.4032912E-03
1722.121, 1.0032200E-02
1724.049, 1.0061380E-02
1725.978, 9.8343911E-03
1727.906, 9.6598323E-03
1729.835, 8.8916346E-03
1731.763, 8.3334362E-03
1733.692, 7.9629989E-03
1735.620, 6.9372249E-03
1737.548, 5.9461431E-03
1739.477, 5.4674251E-03
1741.405, 4.6743089E-03
1743.334, 3.9433809E-03
1745.262, 3.7908680E-03
1747.191, 3.8755259E-03
1749.119, 4.5057489E-03
1751.048, 5.2481000E-03
1752.976, 5.6914180E-03
1754.905, 6.4300299E-03
1756.833, 6.6608498E-03
1758.762, 6.4377571E-03
1760.690, 6.7331502E-03
1762.619, 7.2912038E-03
1764.547, 7.5543351E-03
1766.475, 7.8759994E-03
1768.404, 8.0480622E-03
1770.332, 7.8490451E-03
1772.261, 7.7365818E-03
1774.189, 7.6095080E-03
1776.118, 7.7451570E-03
1778.046, 7.7623129E-03
1779.975, 7.5815502E-03
1781.903, 7.7811200E-03
1783.832, 8.3952844E-03
1785.760, 8.3881496E-03
1787.689, 8.2256189E-03
1789.617, 8.5048191E-03
1791.546, 8.5906256E-03
1793.474, 8.4048612E-03
1795.402, 8.1348661E-03
1797.331, 7.9767490E-03
1799.259, 8.3272438E-03
1801.188, 8.4445104E-03
1803.116, 8.3344663E-03
1805.045, 8.3806161E-03
1806.973, 7.8071398E-03
1808.902, 8.3742319E-03
1810.830, 8.5142208E-03
1812.759, 7.9902438E-03
1814.687, 7.7609778E-03
1816.616, 8.1089186E-03
1818.544, 8.0939671E-03
1820.473, 8.2242591E-03
1822.401, 8.7727709E-03
1824.329, 8.4486473E-03
1826.258, 7.9975436E-03
1828.186, 8.0854157E-03
1830.115, 8.9353034E-03
1832.043, 9.6046207E-03
1833.972, 9.4847810E-03
1835.900, 9.0653077E-03
1837.829, 9.2712063E-03
1839.757, 1.0249690E-02
1841.686, 1.0513100E-02
1843.614, 9.4085494E-03
1845.543, 9.2553720E-03
1847.471, 9.6467175E-03
1849.400, 9.0717226E-03
1851.328, 8.6893188E-03
1853.256, 9.8085050E-03
1855.185, 1.0077420E-02
1857.113, 9.2461742E-03
1859.042, 9.8226629E-03
1860.970, 1.0248030E-02
1862.899, 9.7151548E-03
1864.827, 9.0271132E-03
1866.756, 9.0781674E-03
1868.684, 9.8316818E-03
1870.613, 1.0019890E-02
1872.541, 8.9669619E-03
1874.470, 8.5916528E-03
1876.398, 9.0723736E-03
1878.327, 9.0935295E-03
1880.255, 9.1488566E-03
1882.183, 9.8847160E-03
1884.112, 1.0095240E-02
1886.040, 9.6418206E-03
1887.969, 8.7785861E-03
1889.897, 8.9463713E-03
1891.826, 9.2235403E-03
1893.754, 9.2957038E-03
1895.683, 8.5486090E-03
1897.611, 8.5946629E-03
1899.540, 8.2711577E-03
1901.468, 7.8927269E-03
1903.397, 8.0752131E-03
1905.325, 8.5055344E-03
1907.254, 9.4319535E-03
1909.182, 1.0573490E-02
1911.110, 9.6152639E-03
1913.039, 9.2712622E-03
1914.967, 8.5478723E-03
1916.896, 8.1304321E-03
1918.824, 8.1361718E-03
1920.753, 8.2063042E-03
1922.681, 8.8478504E-03
1924.610, 8.5769966E-03
1926.538, 7.6620532E-03
1928.467, 7.2045228E-03
1930.395, 7.3250220E-03
1932.324, 7.8557916E-03
1934.252, 7.1865120E-03
1936.181, 7.5056758E-03
1938.109, 7.1068672E-03
1940.037, 6.5417159E-03
1941.966, 7.1118609E-03
1943.894, 7.4203010E-03
1945.823, 7.6076528E-03
1947.751, 7.4731121E-03
1949.680, 7.8228731E-03
1951.608, 7.3107411E-03
1953.537, 7.0214081E-03
1955.465, 8.0186790E-03
1957.394, 6.5244241E-03
1959.322, 5.0723762E-03
1961.251, 6.0893511E-03
1963.179, 5.9134890E-03
1965.108, 4.2520319E-03
1967.036, 4.0337262E-03
1968.964, 5.0915629E-03
1970.893, 3.8420639E-03
1972.821, 3.6976391E-03
1974.750, 3.6915280E-03
1976.678, 4.6302131E-03
1978.607, 8.6455056E-03
1980.535, 8.6030914E-03
1982.464, 7.4844998E-03
1984.392, 7.7232202E-03
1986.321, 7.1791899E-03
1988.249, 6.9701588E-03
1990.178, 8.9727361E-03
1992.106, 9.6313544E-03
1994.035, 8.9540100E-03
1995.963, 7.9948967E-03
1997.891, 9.3193408E-03
1999.820, 8.9031318E-03
2001.748, 5.4006889E-03
2003.677, 5.0481651E-03
2005.605, 6.8057380E-03
2007.534, 7.3384992E-03
2009.462, 7.8465901E-03
2011.391, 5.8906190E-03
2013.319, 6.2647220E-03
2015.248, 7.7266921E-03
2017.176, 9.8911226E-03
2019.105, 1.1450570E-02
2021.033, 8.9709163E-03
2022.962, 7.5247558E-03
2024.890, 8.2673347E-03
2026.818, 7.8262072E-03
2028.747, 7.8404350E-03
2030.675, 8.7598646E-03
2032.604, 5.7825730E-03
2034.532, 5.6122639E-03
2036.461, 8.1859194E-03
2038.389, 1.0451890E-02
2040.318, 1.0191950E-02
2042.246, 8.3521996E-03
2044.175, 7.3512760E-03
2046.103, 8.2375426E-03
2048.032, 1.0277440E-02
2049.960, 1.2106980E-02
2051.889, 1.1503560E-02
2053.817, 1.1603160E-02
2055.746, 1.2103180E-02
2057.674, 1.1801520E-02
2059.603, 1.0685450E-02
2061.531, 1.0143920E-02
2063.459, 9.0878876E-03
2065.388, 8.8903205E-03
2067.316, 1.0010770E-02
2069.245, 1.0870650E-02
2071.173, 1.0539170E-02
2073.102, 1.0928600E-02
2075.030, 1.0036170E-02
2076.959, 8.6361002E-03
2078.887, 1.0288750E-02
2080.816, 1.2488980E-02
2082.744, 1.2105730E-02
2084.673, 1.1153140E-02
2086.601, 1.1268320E-02
2088.530, 1.1157530E-02
2090.458, 9.5403409E-03
2092.386, 9.2110168E-03
2094.315, 9.8117637E-03
2096.243, 1.0674750E-02
2098.172, 8.5975528E-03
2100.100, 8.5809398E-03
2102.029, 9.3957391E-03
2103.957, 1.1026690E-02
2105.886, 1.1714260E-02
2107.814, 1.0940450E-02
2109.743, 1.0691580E-02
2111.671, 1.0090640E-02
2113.600, 9.9018989E-03
2115.528, 9.9230502E-03
2117.457, 1.0225690E-02
2119.385, 1.0831880E-02
2121.313, 1.0532560E-02
2123.242, 9.1444664E-03
2125.170, 8.0897547E-03
2127.099, 8.3472589E-03
2129.027, 9.0988521E-03
2130.956, 7.9051666E-03
2132.884, 5.7030078E-03
2134.813, 5.7923640E-03
2136.741, 7.3885238E-03
2138.670, 7.6885992E-03
2140.598, 7.7880071E-03
2142.527, 8.6565511E-03
2144.455, 8.2182167E-03
2146.384, 6.5047252E-03
2148.312, 6.6646961E-03
2150.240, 8.7559652E-03
2152.169, 9.0924716E-03
2154.097, 7.5294808E-03
2156.026, 3.3714990E-03
2157.954, 3.1850170E-03
2159.883, 6.1785998E-03
2161.811, 7.1789422E-03
2163.740, 6.5438962E-03
2165.668, 6.1315149E-03
2167.597, 7.9388153E-03
2169.525, 1.1138480E-02
2171.454, 8.5686557E-03
2173.382, 3.5294630E-03
2175.311, 2.6625900E-03
2177.239, 4.9241390E-03
2179.167, 6.7063882E-03
2181.096, 6.5196138E-03
2183.024, 6.5355022E-03
2184.953, 6.9726328E-03
2186.881, 5.6696548E-03
2188.810, 5.0789178E-03
2190.738, 5.6486940E-03
2192.667, 5.8666579E-03
2194.595, 8.2687940E-03
2196.524, 7.1942601E-03
2198.452, 6.7311092E-03
2200.381, 9.3158130E-03
2202.309, 1.0006700E-02
2204.238, 9.6156094E-03
2206.166, 9.4628483E-03
2208.094, 8.3367052E-03
2210.023, 9.2484634E-03
2211.951, 9.2573464E-03
2213.880, 8.3655771E-03
2215.808, 9.2591066E-03
2217.737, 9.0775471E-03
2219.665, 8.3869938E-03
2221.594, 8.8948049E-03
2223.522, 1.0155950E-02
2225.451, 1.1548580E-02
2227.379, 1.1161770E-02
2229.308, 9.9368934E-03
2231.236, 1.0219650E-02
2233.165, 9.8293982E-03
2235.093, 9.4449054E-03
2237.021, 1.0007070E-02
2238.950, 1.1164590E-02
2240.878, 1.2934570E-02
2242.807, 1.2552530E-02
2244.735, 1.1230610E-02
2246.664, 1.1022650E-02
2248.592, 1.1529180E-02
2250.521, 1.1977110E-02
2252.449, 1.1905100E-02
2254.378, 1.0758210E-02
2256.306, 1.1235640E-02
2258.235, 1.1703330E-02
2260.163, 1.1458640E-02
2262.092, 1.1507390E-02
2264.020, 1.2329970E-02
2265.948, 1.2829070E-02
2267.877, 1.1214970E-02
2269.805, 1.0324480E-02
2271.734, 1.0851090E-02
2273.662, 1.1377620E-02
2275.591, 1.2949970E-02
2277.519, 1.3736390E-02
2279.448, 1.2773510E-02
2281.376, 1.2206590E-02
2283.305, 1.2959150E-02
2285.233, 1.4020800E-02
2287.162, 1.4251860E-02
2289.090, 1.3389890E-02
2291.019, 1.3085840E-02
2292.947, 1.3518030E-02
2294.875, 1.3523230E-02
2296.804, 1.3352320E-02
2298.732, 1.2920550E-02
2300.661, 1.2441290E-02
2302.589, 1.2485940E-02
2304.518, 1.2960410E-02
2306.446, 1.3378090E-02
2308.375, 1.2799180E-02
2310.303, 1.2594200E-02
2312.232, 1.3484870E-02
2314.160, 1.4527450E-02
2316.089, 1.5112370E-02
2318.017, 1.4747110E-02
2319.946, 1.4757200E-02
2321.874, 1.6161291E-02
2323.802, 1.6844589E-02
2325.731, 1.6105991E-02
2327.659, 1.5042410E-02
2329.588, 1.4665180E-02
2331.516, 1.4654900E-02
2333.445, 1.4866840E-02
2335.373, 1.4979250E-02
2337.302, 1.4722070E-02
2339.230, 1.4776600E-02
2341.159, 1.4423480E-02
2343.087, 1.3613910E-02
2345.016, 1.3595670E-02
2346.944, 1.2963260E-02
2348.873, 1.2165190E-02
2350.801, 1.2894950E-02
2352.729, 1.4428040E-02
2354.658, 1.4849200E-02
2356.586, 1.4280010E-02
2358.515, 1.4155490E-02
2360.443, 1.4549910E-02
2362.372, 1.4794680E-02
2364.300, 1.4779580E-02
2366.229, 1.4415800E-02
2368.157, 1.3256950E-02
2370.086, 1.2703340E-02
2372.014, 1.1819300E-02
2373.942, 1.1726190E-02
2375.871, 1.1170310E-02
2377.799, 1.0628550E-02
2379.728, 1.1130580E-02
2381.656, 1.0180110E-02
2383.585, 9.2747984E-03
2385.513, 9.5747979E-03
2387.442, 9.4298944E-03
2389.370, 9.4552487E-03
2391.299, 1.0174840E-02
2393.227, 1.0068540E-02
2395.156, 1.0192610E-02
2397.084, 1.0160390E-02
2399.012, 9.6170269E-03
2400.941, 8.7039089E-03
2402.869, 8.3144531E-03
2404.798, 9.0970444E-03
2406.726, 9.7760884E-03
2408.655, 8.5845310E-03
2410.583, 7.9706162E-03
2412.512, 8.7558515E-03
2414.440, 9.5042419E-03
2416.369, 1.0031140E-02
2418.297, 1.1105430E-02
2420.226, 1.0497070E-02
2422.154, 9.8261181E-03
2424.083, 9.8623978E-03
2426.011, 9.6429149E-03
2427.939, 9.6281720E-03
2429.868, 9.9754166E-03
2431.796, 1.0460340E-02
2433.725, 1.0428570E-02
2435.653, 1.0115100E-02
2437.582, 9.4070015E-03
2439.510, 9.1128247E-03
2441.439, 9.3885874E-03
2443.367, 9.2615681E-03
2445.296, 9.2791757E-03
2447.224, 9.2356177E-03
2449.153, 9.6523492E-03
2451.081, 1.1229390E-02
2453.010, 1.0772340E-02
2454.938, 1.0442000E-02
2456.866, 1.0485390E-02
2458.795, 9.3048438E-03
2460.723, 8.9596873E-03
2462.652, 9.6896589E-03
2464.580, 8.5115228E-03
2466.509, 8.6743832E-03
2468.437, 1.0094130E-02
2470.366, 1.0206130E-02
2472.294, 1.0169600E-02
2474.223, 1.1301520E-02
2476.151, 1.0502900E-02
2478.080, 9.3112309E-03
2480.008, 9.5245531E-03
2481.937, 9.6622268E-03
2483.865, 8.7636327E-03
2485.793, 8.3291056E-03
2487.722, 8.7737506E-03
2489.650, 8.1578270E-03
2491.579, 8.0173407E-03
2493.507, 8.8478802E-03
2495.436, 9.1406098E-03
2497.364, 7.6688039E-03
2499.293, 7.8240214E-03
2501.221, 9.0253279E-03
2503.150, 9.0768645E-03
2505.078, 9.5113916E-03
2507.007, 9.7661102E-03
2508.935, 9.3948860E-03
2510.864, 9.0739625E-03
2512.792, 9.3967319E-03
2514.720, 9.3021700E-03
2516.649, 7.7820220E-03
2518.577, 7.2155241E-03
2520.506, 8.8713560E-03
2522.434, 9.3739489E-03
2524.363, 8.9154560E-03
2526.291, 8.0184042E-03
2528.220, 7.4953069E-03
2530.148, 8.1232060E-03
2532.077, 8.8267419E-03
2534.005, 8.9730434E-03
2535.934, 8.4198881E-03
2537.862, 9.5971022E-03
2539.791, 1.0442150E-02
2541.719, 8.7625589E-03
2543.647, 8.7184925E-03
2545.576, 8.7874187E-03
2547.504, 9.2814518E-03
2549.433, 9.9262688E-03
2551.361, 9.5188785E-03
2553.290, 9.4600301E-03
2555.218, 8.0942689E-03
2557.147, 7.1762642E-03
2559.075, 9.3885101E-03
2561.004, 1.0138980E-02
2562.932, 9.6621821E-03
2564.861, 9.8970747E-03
2566.789, 9.8232608E-03
2568.718, 9.5715299E-03
2570.646, 9.2659611E-03
2572.574, 9.4774058E-03
2574.503, 9.0422304E-03
2576.431, 1.0338940E-02
2578.360, 1.0599080E-02
2580.288, 1.0643860E-02
2582.217, 1.0333310E-02
2584.145, 9.6113980E-03
2586.074, 9.9310381E-03
2588.002, 9.7707948E-03
2589.931, 9.0365522E-03
2591.859, 8.4064668E-03
2593.788, 9.0579791E-03
2595.716, 1.0340290E-02
2597.645, 1.0475400E-02
2599.573, 1.0941790E-02
2601.501, 1.1386570E-02
2603.430, 1.1077350E-02
2605.358, 1.0061440E-02
2607.287, 9.8040393E-03
2609.215, 1.0309690E-02
2611.144, 1.0067290E-02
2613.072, 9.5617240E-03
2615.001, 9.7700329E-03
2616.929, 1.0295640E-02
2618.858, 1.0506740E-02
2620.786, 1.0518680E-02
2622.715, 1.0515890E-02
2624.643, 1.0656700E-02
2626.572, 1.0665850E-02
2628.500, 1.0145980E-02
2630.428, 1.0239520E-02
2632.357, 1.1048600E-02
2634.285, 1.0765100E-02
2636.214, 1.0911250E-02
2638.142, 1.1139430E-02
2640.071, 1.0293730E-02
2641.999, 9.3007376E-03
2643.928, 1.0016580E-02
2645.856, 1.1527400E-02
2647.785, 1.1547670E-02
2649.713, 1.0848090E-02
2651.642, 1.0324220E-02
2653.570, 1.0375380E-02
2655.499, 1.0927460E-02
2657.427, 1.1160140E-02
2659.355, 1.0678370E-02
2661.284, 1.0190240E-02
2663.212, 1.0289410E-02
2665.141, 1.0226030E-02
2667.069, 1.1110780E-02
2668.998, 1.1347410E-02
2670.926, 1.0439130E-02
2672.855, 9.6746497E-03
2674.783, 9.9680014E-03
2676.712, 1.0646020E-02
2678.640, 1.0707790E-02
2680.569, 1.0623540E-02
2682.497, 1.0698900E-02
2684.426, 1.0205180E-02
2686.354, 1.0021810E-02
2688.282, 9.7696548E-03
2690.211, 9.6395947E-03
2692.139, 1.0667140E-02
2694.068, 1.0924160E-02
2695.996, 1.0035880E-02
2697.925, 9.9365851E-03
2699.853, 1.0655820E-02
2701.782, 1.0490810E-02
2703.710, 1.0183780E-02
2705.639, 1.0118800E-02
2707.567, 1.0859560E-02
2709.496, 1.1804290E-02
2711.424, 1.1608080E-02
2713.353, 1.0904540E-02
2715.281, 1.1053040E-02
2717.209, 1.1134510E-02
2719.138, 1.1380820E-02
2721.066, 1.1980750E-02
2722.995, 1.2561940E-02
2724.923, 1.2077090E-02
2726.852, 1.0743870E-02
2728.780, 1.0921000E-02
2730.709, 1.0964700E-02
2732.637, 1.1601980E-02
2734.566, 1.2546090E-02
2736.494, 1.2437470E-02
2738.423, 1.1149900E-02
2740.351, 1.0830410E-02
2742.280, 1.1453270E-02
2744.208, 1.1482810E-02
2746.136, 1.0480540E-02
2748.065, 1.0247620E-02
2749.993, 1.1040570E-02
2751.922, 1.1121480E-02
2753.850, 1.1479390E-02
2755.779, 1.1599080E-02
2757.707, 1.0984120E-02
2759.636, 1.0304690E-02
2761.564, 1.0295560E-02
2763.493, 1.1464580E-02
2765.421, 1.2044520E-02
2767.350, 1.1170410E-02
2769.278, 1.1055950E-02
2771.207, 1.1520320E-02
2773.135, 1.1507740E-02
2775.063, 1.1311250E-02
2776.992, 1.1542320E-02
2778.920, 1.1951170E-02
2780.849, 1.1546450E-02
2782.777, 1.1423950E-02
2784.706, 1.0967530E-02
2786.634, 1.0456820E-02
2788.563, 1.0544770E-02
2790.491, 1.0133550E-02
2792.420, 1.0652040E-02
2794.348, 1.0300490E-02
2796.277, 9.7118719E-03
2798.205, 1.0298160E-02
2800.134, 1.0573830E-02
2802.062, 1.0755980E-02
2803.990, 1.1311280E-02
2805.919, 1.1037480E-02
2807.847, 1.0563080E-02
2809.776, 1.0674860E-02
2811.704, 1.0850140E-02
2813.633, 1.1084380E-02
2815.561, 1.1274910E-02
2817.490, 1.0995950E-02
2819.418, 1.0299260E-02
2821.347, 9.7759506E-03
2823.275, 9.6667483E-03
2825.204, 9.5251342E-03
2827.132, 8.8152224E-03
2829.061, 8.7070940E-03
2830.989, 8.9698238E-03
2832.917, 8.5574174E-03
2834.846, 8.8349227E-03
2836.774, 8.2438951E-03
2838.703, 6.5130810E-03
2840.631, 5.5867000E-03
2842.560, 5.1811701E-03
2844.488, 3.5044460E-03
2846.417, 1.3322330E-03
2848.345, -1.1853760E-03
2850.274, -3.0223881E-03
2852.202, -4.8815678E-03
2854.131, -5.6870729E-03
2856.059, -4.4942861E-03
2857.988, -2.8502201E-03
2859.916, -6.5045571E-04
2861.844, 1.8873010E-03
2863.773, 3.0059931E-03
2865.701, 3.9101932E-03
2867.630, 4.8884721E-03
2869.558, 5.3031379E-03
2871.487, 4.9437620E-03
2873.415, 4.4165971E-03
2875.344, 4.6680751E-03
2877.272, 5.0586299E-03
2879.201, 4.2561400E-03
2881.129, 3.9230091E-03
2883.058, 5.3773010E-03
2884.986, 5.9511880E-03
2886.915, 5.1444471E-03
2888.843, 5.0394731E-03
2890.771, 4.4341432E-03
2892.700, 3.1722190E-03
2894.628, 3.3080899E-03
2896.557, 3.0999579E-03
2898.485, 2.6075521E-03
2900.414, 2.7477760E-03
2902.342, 2.0530911E-03
2904.271, -9.3342969E-06
2906.199, -1.2221510E-03
2908.128, -1.8305350E-03
2910.056, -3.0558661E-03
2911.985, -4.9392930E-03
2913.913, -7.0424969E-03
2915.842, -8.7729730E-03
2917.770, -1.1235590E-02
2919.698, -1.3197230E-02
2921.627, -1.4853750E-02
2923.555, -1.5650781E-02
2925.484, -1.4340280E-02
2927.412, -1.3957690E-02
2929.341, -1.2198760E-02
2931.269, -8.7255379E-03
2933.198, -6.2785391E-03
2935.126, -4.9372758E-03
2937.055, -2.3704690E-03
2938.983, 5.4232922E-04
2940.912, 2.0060029E-03
2942.840, 2.8436719E-03
2944.769, 3.3549240E-03
2946.697, 4.1299220E-03
2948.625, 3.4414090E-03
2950.554, 3.5417881E-03
2952.482, 3.9987718E-03
2954.411, 4.3009212E-03
2956.339, 5.2380641E-03
2958.268, 6.2181791E-03
2960.196, 6.6378252E-03
2962.125, 5.9271958E-03
2964.053, 6.3748271E-03
2965.982, 7.8606755E-03
2967.910, 8.3492044E-03
2969.839, 9.0755597E-03
2971.767, 1.0134190E-02
2973.696, 1.0079100E-02
2975.624, 9.8882066E-03
2977.552, 1.1353470E-02
2979.481, 1.3817420E-02
2981.409, 1.3020060E-02
2983.338, 1.1883520E-02
2985.266, 1.2250820E-02
2987.195, 1.3450300E-02
2989.123, 1.4286960E-02
2991.052, 1.4295170E-02
2992.980, 1.2532580E-02
2994.909, 1.1476220E-02
2996.837, 1.3452180E-02
2998.766, 1.4399650E-02
3000.694, 1.5389050E-02
3002.623, 1.5105520E-02
3004.551, 1.3752380E-02
3006.479, 1.3907390E-02
3008.408, 1.5074320E-02
3010.336, 1.5698720E-02
3012.265, 1.6586080E-02
3014.193, 1.6844230E-02
3016.122, 1.6943680E-02
3018.050, 1.6134130E-02
3019.979, 1.5353800E-02
3021.907, 1.5751461E-02
3023.836, 1.6474260E-02
3025.764, 1.8360190E-02
3027.693, 1.9578870E-02
3029.621, 1.8142460E-02
3031.550, 1.5861601E-02
3033.478, 1.5288400E-02
3035.406, 1.6694659E-02
3037.335, 1.7696720E-02
3039.263, 1.7982030E-02
3041.192, 1.7524660E-02
3043.120, 1.7460059E-02
3045.049, 1.7382380E-02
3046.977, 1.8110771E-02
3048.906, 1.8143440E-02
3050.834, 1.8108491E-02
3052.763, 1.9405929E-02
3054.691, 1.8822409E-02
3056.620, 1.8480040E-02
3058.548, 1.9138550E-02
3060.477, 1.9111520E-02
3062.405, 1.8844940E-02
3064.333, 1.9746659E-02
3066.262, 1.9163519E-02
3068.190, 1.8133800E-02
3070.119, 1.9412311E-02
3072.047, 2.1190351E-02
3073.976, 1.9271770E-02
3075.904, 1.8682310E-02
3077.833, 2.1472840E-02
3079.761, 2.1112930E-02
3081.690, 1.9144960E-02
3083.618, 1.8270450E-02
3085.547, 1.9387670E-02
3087.475, 2.2091821E-02
3089.404, 2.1753410E-02
3091.332, 2.2169510E-02
3093.260, 2.3286421E-02
3095.189, 2.3068890E-02
3097.117, 2.1807199E-02
3099.046, 2.1049760E-02
3100.974, 2.2570459E-02
3102.903, 2.4285121E-02
3104.831, 2.4285030E-02
3106.760, 2.4179580E-02
3108.688, 2.3476349E-02
3110.617, 2.3002589E-02
3112.545, 2.2297731E-02
3114.474, 2.2757180E-02
3116.402, 2.5440341E-02
3118.331, 2.6349811E-02
3120.259, 2.4952659E-02
3122.188, 2.4666330E-02
3124.116, 2.5807761E-02
3126.044, 2.7339010E-02
3127.973, 2.7465111E-02
3129.901, 2.7121451E-02
3131.830, 2.8929770E-02
3133.758, 2.9309640E-02
3135.687, 2.8291531E-02
3137.615, 3.0399971E-02
3139.544, 3.3117879E-02
3141.472, 3.1257909E-02
3143.401, 2.8175781E-02
3145.329, 2.9250471E-02
3147.258, 3.1488020E-02
3149.186, 3.1377371E-02
3151.115, 3.1415600E-02
3153.043, 3.1622231E-02
3154.971, 3.2238331E-02
3156.900, 3.3179648E-02
3158.828, 3.5523709E-02
3160.757, 3.6096741E-02
3162.685, 3.6437038E-02
3164.614, 3.6304329E-02
3166.542, 3.6596440E-02
3168.471, 3.5975441E-02
3170.399, 3.5592601E-02
3172.328, 3.7684321E-02
3174.256, 3.9314739E-02
3176.185, 3.9926630E-02
3178.113, 4.0952500E-02
3180.042, 4.2126939E-02
3181.970, 4.2088039E-02
3183.898, 4.2267989E-02
3185.827, 4.2859539E-02
3187.755, 4.3508802E-02
3189.684, 4.3988671E-02
3191.612, 4.5315020E-02
3193.541, 4.6992980E-02
3195.469, 4.7576770E-02
3197.398, 4.8629221E-02
3199.326, 5.0110221E-02
3201.255, 5.1152591E-02
3203.183, 5.3067159E-02
3205.112, 5.5516832E-02
3207.040, 5.6968000E-02
3208.969, 5.7782929E-02
3210.897, 5.8980200E-02
3212.825, 6.0381569E-02
3214.754, 6.3802592E-02
3216.682, 6.6563137E-02
3218.611, 6.7761406E-02
3220.539, 7.0300259E-02
3222.468, 7.5567260E-02
3224.396, 7.7134281E-02
3226.325, 7.7110037E-02
3228.253, 7.9539768E-02
3230.182, 8.2197331E-02
3232.110, 8.4293596E-02
3234.039, 8.6095959E-02
3235.967, 8.8816613E-02
3237.896, 9.1076709E-02
3239.824, 9.1948718E-02
3241.752, 9.3150243E-02
3243.681, 9.2540838E-02
3245.609, 9.2483893E-02
3247.538, 9.2229448E-02
3249.466, 9.0288132E-02
3251.395, 8.8342339E-02
3253.323, 8.6774401E-02
3255.252, 8.4895067E-02
3257.180, 8.4487937E-02
3259.109, 8.3501942E-02
3261.037, 8.0940813E-02
3262.966, 8.0109112E-02
3264.894, 7.9994597E-02
3266.823, 7.9013899E-02
3268.751, 7.9652570E-02
3270.679, 7.9763293E-02
3272.608, 7.8254618E-02
3274.536, 8.0117203E-02
3276.465, 8.3922900E-02
3278.393, 8.6702183E-02
3280.322, 8.8623330E-02
3282.250, 8.8189311E-02
3284.179, 8.9895412E-02
3286.107, 9.2194714E-02
3288.036, 9.2604592E-02
3289.964, 9.2879221E-02
3291.893, 9.6089832E-02
3293.821, 9.9293813E-02
3295.750, 9.9925838E-02
3297.678, 0.1013175
3299.606, 0.1037260
3301.535, 0.1058723
3303.463, 0.1083950
3305.392, 0.1111647
3307.320, 0.1136834
3309.249, 0.1167297
3311.177, 0.1183580
3313.106, 0.1218624
3315.034, 0.1249528
3316.963, 0.1269334
3318.891, 0.1312806
3320.820, 0.1356405
3322.748, 0.1377562
3324.677, 0.1391326
3326.605, 0.1416850
3328.533, 0.1455564
3330.462, 0.1505123
3332.390, 0.1532650
3334.319, 0.1560641
3336.247, 0.1604749
3338.176, 0.1629797
3340.104, 0.1668940
3342.033, 0.1719634
3343.961, 0.1756930
3345.890, 0.1785337
3347.818, 0.1816537
3349.747, 0.1859443
3351.675, 0.1901645
3353.604, 0.1927979
3355.532, 0.1959753
3357.460, 0.1990268
3359.389, 0.2045109
3361.317, 0.2093235
3363.246, 0.2117655
3365.174, 0.2167592
3367.103, 0.2192820
3369.031, 0.2201398
3370.960, 0.2261313
3372.888, 0.2318895
3374.817, 0.2324104
3376.745, 0.2324018
3378.674, 0.2341928
3380.602, 0.2364213
3382.531, 0.2377937
3384.459, 0.2371383
3386.387, 0.2371844
3388.316, 0.2362962
3390.244, 0.2321975
3392.173, 0.2273361
3394.101, 0.2270656
3396.030, 0.2276540
3397.958, 0.2278678
3399.887, 0.2256501
3401.815, 0.2229258
3403.744, 0.2202745
3405.672, 0.2157613
3407.601, 0.2137176
3409.529, 0.2115795
3411.458, 0.2072347
3413.386, 0.2028338
3415.314, 0.2001278
3417.243, 0.1973135
3419.171, 0.1900947
3421.100, 0.1841508
3423.028, 0.1818467
3424.957, 0.1776146
3426.885, 0.1731977
3428.814, 0.1683818
3430.742, 0.1643971
3432.671, 0.1605219
3434.599, 0.1565135
3436.528, 0.1519354
3438.456, 0.1481152
3440.385, 0.1451135
3442.313, 0.1405298
3444.241, 0.1362951
3446.170, 0.1336199
3448.098, 0.1293086
3450.027, 0.1260521
3451.955, 0.1232042
3453.884, 0.1192988
3455.812, 0.1176117
3457.741, 0.1169370
3459.669, 0.1150368
3461.598, 0.1110838
3463.526, 0.1056682
3465.455, 0.1041447
3467.383, 0.1033779
3469.312, 9.9914670E-02
3471.240, 9.6064173E-02
3473.168, 9.0463594E-02
3475.097, 8.7744698E-02
3477.025, 8.7426513E-02
3478.954, 8.5241333E-02
3480.882, 8.2374997E-02
3482.811, 8.0086946E-02
3484.739, 7.9619452E-02
3486.668, 7.9211697E-02
3488.596, 7.5694278E-02
3490.525, 7.2954983E-02
3492.453, 7.3004268E-02
3494.382, 7.0521943E-02
3496.310, 6.6255882E-02
3498.239, 6.3613817E-02
3500.167, 6.3238382E-02
3502.095, 6.2823407E-02
3504.024, 6.1279550E-02
3505.952, 5.8829870E-02
3507.881, 5.5742148E-02
3509.809, 5.3117432E-02
3511.738, 5.2529618E-02
3513.666, 5.2559670E-02
3515.595, 5.3329471E-02
3517.523, 5.4533631E-02
3519.452, 5.2946672E-02
3521.380, 5.0604839E-02
3523.309, 4.8875049E-02
3525.237, 4.7656432E-02
3527.166, 4.5757689E-02
3529.094, 4.3720782E-02
3531.022, 4.4548191E-02
3532.951, 4.4063572E-02
3534.879, 4.0345650E-02
3536.808, 3.9127041E-02
3538.736, 3.9872620E-02
3540.665, 4.0080979E-02
3542.593, 3.9718531E-02
3544.522, 3.7860531E-02
3546.450, 3.7401270E-02
3548.379, 3.7510268E-02
3550.307, 3.6784612E-02
3552.236, 3.6366850E-02
3554.164, 3.5635360E-02
3556.093, 3.3697490E-02
3558.021, 3.2200471E-02
3559.949, 3.3109911E-02
3561.878, 3.3784389E-02
3563.806, 3.4330320E-02
3565.735, 3.2021549E-02
3567.663, 2.8058860E-02
3569.592, 2.8178090E-02
3571.520, 2.7282771E-02
3573.449, 2.7829859E-02
3575.377, 2.9191229E-02
3577.306, 2.9378731E-02
3579.234, 2.7283641E-02
3581.163, 2.4302170E-02
3583.091, 2.4706500E-02
3585.020, 2.5309110E-02
3586.948, 2.5854930E-02
3588.876, 2.5304060E-02
3590.805, 2.2592939E-02
3592.733, 2.1983670E-02
3594.662, 2.2632429E-02
3596.590, 2.1987209E-02
3598.519, 2.1430761E-02
3600.447, 2.2733981E-02
3602.376, 2.3186810E-02
3604.304, 2.2154029E-02
3606.233, 2.1516191E-02
3608.161, 2.0563429E-02
3610.090, 2.0887980E-02
3612.018, 2.0570859E-02
3613.947, 1.8857419E-02
3615.875, 2.0283060E-02
3617.803, 2.3217009E-02
3619.732, 2.2571130E-02
3621.660, 1.7557429E-02
3623.589, 1.4728060E-02
3625.517, 1.5788401E-02
3627.446, 1.6839510E-02
3629.374, 1.3983380E-02
3631.303, 1.3233390E-02
3633.231, 1.3690260E-02
3635.160, 1.5850710E-02
3637.088, 1.7663540E-02
3639.017, 1.8652311E-02
3640.945, 1.6982660E-02
3642.874, 1.4222450E-02
3644.802, 1.1853110E-02
3646.730, 1.1954460E-02
3648.659, 1.2832090E-02
3650.587, 1.0505890E-02
3652.516, 1.1040010E-02
3654.444, 1.3885250E-02
3656.373, 1.4785980E-02
3658.301, 1.5080100E-02
3660.230, 1.4483820E-02
3662.158, 1.0405070E-02
3664.087, 1.0091390E-02
3666.015, 1.0419700E-02
3667.944, 1.0275330E-02
3669.872, 1.3869660E-02
3671.801, 1.2006120E-02
3673.729, 9.1932165E-03
3675.657, 9.1573754E-03
3677.586, 1.1486400E-02
3679.514, 1.3786200E-02
3681.443, 1.4960740E-02
3683.371, 1.5705680E-02
3685.300, 1.3768210E-02
3687.228, 9.2630014E-03
3689.157, 1.0854880E-02
3691.085, 1.4355520E-02
3693.014, 1.3503310E-02
3694.942, 1.3753860E-02
3696.871, 1.3797360E-02
3698.799, 1.1995370E-02
3700.728, 1.5078350E-02
3702.656, 1.5160760E-02
3704.584, 1.2379370E-02
3706.513, 1.0937480E-02
3708.441, 1.0774180E-02
3710.370, 1.1594240E-02
3712.298, 1.2186630E-02
3714.227, 1.2211060E-02
3716.155, 1.2036520E-02
3718.084, 9.8243318E-03
3720.012, 1.2027660E-02
3721.941, 1.6250780E-02
3723.869, 1.4890680E-02
3725.798, 1.5894439E-02
3727.726, 1.7259590E-02
3729.655, 1.7336721E-02
3731.583, 1.7047150E-02
3733.511, 1.3758810E-02
3735.440, 1.5446930E-02
3737.368, 1.3975610E-02
3739.297, 1.4003690E-02
3741.225, 1.6658070E-02
3743.154, 1.4875540E-02
3745.082, 1.4218870E-02
3747.011, 1.4483590E-02
3748.939, 1.2549620E-02
3750.868, 1.0184190E-02
3752.796, 1.3909140E-02
3754.725, 1.3699730E-02
3756.653, 1.2634770E-02
3758.582, 1.3468170E-02
3760.510, 1.4855240E-02
3762.438, 1.6532630E-02
3764.367, 1.5535320E-02
3766.295, 1.4855430E-02
3768.224, 1.4778240E-02
3770.152, 1.4224580E-02
3772.081, 1.4387440E-02
3774.009, 1.2549360E-02
3775.938, 1.1544850E-02
3777.866, 1.2756830E-02
3779.795, 1.5424650E-02
3781.723, 1.3762220E-02
3783.652, 1.1487000E-02
3785.580, 9.4375387E-03
3787.509, 1.2757770E-02
3789.437, 1.7772369E-02
3791.365, 1.6568240E-02
3793.294, 1.3817770E-02
3795.222, 1.3821750E-02
3797.151, 1.2660800E-02
3799.079, 1.0497630E-02
3801.008, 1.2478350E-02
3802.936, 1.2698750E-02
3804.865, 1.2758550E-02
3806.793, 1.6010070E-02
3808.722, 1.5609570E-02
3810.650, 1.2488000E-02
3812.579, 1.1160800E-02
3814.507, 1.2843110E-02
3816.436, 1.5531280E-02
3818.364, 1.7719150E-02
3820.292, 1.8105820E-02
3822.221, 1.6936820E-02
3824.149, 1.6749009E-02
3826.078, 1.5708730E-02
3828.006, 1.4558400E-02
3829.935, 1.3880470E-02
3831.863, 1.2700800E-02
3833.792, 1.0491410E-02
3835.720, 1.1665810E-02
3837.649, 1.3247060E-02
3839.577, 1.5820280E-02
3841.506, 1.8766729E-02
3843.434, 1.5674699E-02
3845.363, 1.3592860E-02
3847.291, 1.5269580E-02
3849.219, 1.4299310E-02
3851.148, 1.3555300E-02
3853.076, 1.3222720E-02
3855.005, 1.5229040E-02
3856.933, 1.7289599E-02
3858.862, 1.7284811E-02
3860.790, 1.5309340E-02
3862.719, 1.1953770E-02
3864.647, 1.3362710E-02
3866.576, 1.2297610E-02
3868.504, 1.0976380E-02
3870.433, 1.2357290E-02
3872.361, 1.4146800E-02
3874.290, 1.3609050E-02
3876.218, 1.1881720E-02
3878.146, 1.1100490E-02
3880.075, 1.0225590E-02
3882.003, 1.2267510E-02
3883.932, 1.4188290E-02
3885.860, 1.3712650E-02
3887.789, 1.7234910E-02
3889.717, 1.7623561E-02
3891.646, 1.5339570E-02
3893.574, 1.6912470E-02
3895.503, 1.3965050E-02
3897.431, 1.1512680E-02
3899.360, 1.2394850E-02
3901.288, 1.0547340E-02
3903.217, 1.0436740E-02
3905.145, 1.0814810E-02
3907.073, 1.2386510E-02
3909.002, 1.5035000E-02
3910.930, 1.6285660E-02
3912.859, 1.7114099E-02
3914.787, 1.7649470E-02
3916.716, 1.7779199E-02
3918.644, 1.6631911E-02
3920.573, 1.7469751E-02
3922.501, 1.7119380E-02
3924.430, 1.7891740E-02
3926.358, 1.7176030E-02
3928.287, 1.4381300E-02
3930.215, 1.4162490E-02
3932.144, 1.4718670E-02
3934.072, 1.3997650E-02
3936.000, 1.2003500E-02
3937.929, 1.2180480E-02
3939.857, 1.1395270E-02
3941.786, 1.1783230E-02
3943.714, 1.4651270E-02
3945.643, 1.3431410E-02
3947.571, 1.1359640E-02
3949.500, 1.2962270E-02
3951.428, 1.5461850E-02
3953.357, 1.4866780E-02
3955.285, 1.1975350E-02
3957.214, 1.3866100E-02
3959.142, 1.7199930E-02
3961.071, 1.5631231E-02
3962.999, 1.4196030E-02
3964.927, 1.6976541E-02
3966.856, 1.5740139E-02
3968.784, 1.2772110E-02
3970.713, 1.5375620E-02
3972.641, 1.3661820E-02
3974.570, 1.3662610E-02
3976.498, 1.4954740E-02
3978.427, 1.5564440E-02
3980.355, 1.5985509E-02
3982.284, 1.4619570E-02
3984.212, 1.4919830E-02
3986.141, 1.4192230E-02
3988.069, 1.4677050E-02
3989.998, 1.7540960E-02
3991.926, 1.7326320E-02
3993.854, 1.7523300E-02
3995.783, 1.7563449E-02
3997.711, 1.3215400E-02
3999.640, 1.3221780E-02
##END=



