##NAMES=Carrollite
##RRUFFID=R040165
##IDEAL CHEMISTRY=Cu^1+^Co^3+^_2_S_4_
##LOCALITY=Katanga, Democratic Republic of the Congo
##OWNER=RRUFF
##SOURCE=University of Arizona Mineral Museum
##DESCRIPTION=Steel gray octahedral crystals that have a tarnished exterior
##STATUS=The identification of this mineral has been confirmed by X-ray diffraction and chemical analysis
##URL=rruff.info/R040165
##MEASURED CHEMISTRY=(Cu_0.97_Fe_0.03_)Co_1.98_S_4_
3.991926e+002, 0.000000e+000
4.011211e+002, 2.316159e-001
4.030496e+002, 2.327419e-001
4.049780e+002, 2.326988e-001
4.069065e+002, 2.334233e-001
4.088350e+002, 2.338995e-001
4.107634e+002, 2.336998e-001
4.126919e+002, 2.306122e-001
4.146204e+002, 2.298672e-001
4.165488e+002, 2.324162e-001
4.184773e+002, 2.365540e-001
4.204058e+002, 2.400172e-001
4.223342e+002, 2.381596e-001
4.242627e+002, 2.368037e-001
4.261912e+002, 2.339545e-001
4.281196e+002, 2.368998e-001
4.300481e+002, 2.420107e-001
4.319766e+002, 2.436725e-001
4.339050e+002, 2.437188e-001
4.358335e+002, 2.412693e-001
4.377620e+002, 2.406588e-001
4.396904e+002, 2.429292e-001
4.416189e+002, 2.440781e-001
4.435474e+002, 2.444371e-001
4.454758e+002, 2.427410e-001
4.474043e+002, 2.429203e-001
4.493328e+002, 2.457228e-001
4.512612e+002, 2.482781e-001
4.531897e+002, 2.481634e-001
4.551182e+002, 2.476911e-001
4.570466e+002, 2.498450e-001
4.589751e+002, 2.524691e-001
4.609036e+002, 2.525620e-001
4.628320e+002, 2.529907e-001
4.647605e+002, 2.542950e-001
4.666890e+002, 2.551856e-001
4.686174e+002, 2.565599e-001
4.705459e+002, 2.576101e-001
4.724744e+002, 2.577195e-001
4.744028e+002, 2.589611e-001
4.763313e+002, 2.608674e-001
4.782598e+002, 2.624296e-001
4.801882e+002, 2.631311e-001
4.821167e+002, 2.626835e-001
4.840452e+002, 2.642001e-001
4.859736e+002, 2.645027e-001
4.879021e+002, 2.642151e-001
4.898306e+002, 2.651449e-001
4.917590e+002, 2.667404e-001
4.936875e+002, 2.673095e-001
4.956160e+002, 2.672263e-001
4.975444e+002, 2.680607e-001
4.994729e+002, 2.690024e-001
5.014014e+002, 2.698595e-001
5.033298e+002, 2.708049e-001
5.052583e+002, 2.710866e-001
5.071868e+002, 2.710284e-001
5.091152e+002, 2.717816e-001
5.110437e+002, 2.722943e-001
5.129722e+002, 2.725825e-001
5.149006e+002, 2.729797e-001
5.168291e+002, 2.726948e-001
5.187576e+002, 2.724842e-001
5.206860e+002, 2.733896e-001
5.226145e+002, 2.730798e-001
5.245430e+002, 2.729860e-001
5.264714e+002, 2.739491e-001
5.283999e+002, 2.746716e-001
5.303284e+002, 2.748111e-001
5.322568e+002, 2.745716e-001
5.341853e+002, 2.750327e-001
5.361138e+002, 2.752372e-001
5.380422e+002, 2.751392e-001
5.399707e+002, 2.754713e-001
5.418992e+002, 2.756584e-001
5.438276e+002, 2.764797e-001
5.457561e+002, 2.767490e-001
5.476846e+002, 2.767908e-001
5.496130e+002, 2.774902e-001
5.515415e+002, 2.783584e-001
5.534700e+002, 2.792004e-001
5.553984e+002, 2.803814e-001
5.573269e+002, 2.808190e-001
5.592554e+002, 2.812536e-001
5.611838e+002, 2.820840e-001
5.631123e+002, 2.827205e-001
5.650408e+002, 2.834234e-001
5.669692e+002, 2.847815e-001
5.688977e+002, 2.851883e-001
5.708262e+002, 2.844944e-001
5.727546e+002, 2.857393e-001
5.746831e+002, 2.877951e-001
5.766116e+002, 2.884290e-001
5.785400e+002, 2.893200e-001
5.804685e+002, 2.905825e-001
5.823970e+002, 2.921675e-001
5.843254e+002, 2.928755e-001
5.862539e+002, 2.934158e-001
5.881824e+002, 2.947366e-001
5.901108e+002, 2.966443e-001
5.920393e+002, 2.979700e-001
5.939678e+002, 2.991769e-001
5.958962e+002, 2.997983e-001
5.978247e+002, 2.998541e-001
5.997532e+002, 2.990693e-001
6.016816e+002, 2.972722e-001
6.036101e+002, 2.943108e-001
6.055386e+002, 2.923744e-001
6.074670e+002, 2.922793e-001
6.093955e+002, 2.931329e-001
6.113240e+002, 2.946150e-001
6.132524e+002, 2.968886e-001
6.151809e+002, 2.988282e-001
6.171094e+002, 3.009134e-001
6.190378e+002, 3.029436e-001
6.209663e+002, 3.050490e-001
6.228948e+002, 3.063359e-001
6.248232e+002, 3.063533e-001
6.267517e+002, 3.046049e-001
6.286802e+002, 3.005950e-001
6.306086e+002, 2.965253e-001
6.325371e+002, 2.944270e-001
6.344656e+002, 2.943436e-001
6.363940e+002, 2.960587e-001
6.383225e+002, 2.982463e-001
6.402510e+002, 3.005115e-001
6.421794e+002, 3.025841e-001
6.441079e+002, 3.045499e-001
6.460364e+002, 3.066541e-001
6.479648e+002, 3.080201e-001
6.498933e+002, 3.096614e-001
6.518218e+002, 3.115518e-001
6.537502e+002, 3.132511e-001
6.556787e+002, 3.149845e-001
6.576072e+002, 3.162383e-001
6.595356e+002, 3.174138e-001
6.614641e+002, 3.184845e-001
6.633926e+002, 3.189338e-001
6.653210e+002, 3.187090e-001
6.672495e+002, 3.175103e-001
6.691780e+002, 3.150185e-001
6.711064e+002, 3.114333e-001
6.730349e+002, 3.076467e-001
6.749634e+002, 3.035973e-001
6.768918e+002, 3.002632e-001
6.788203e+002, 2.991397e-001
6.807488e+002, 3.000137e-001
6.826772e+002, 3.020293e-001
6.846057e+002, 3.049012e-001
6.865342e+002, 3.072969e-001
6.884626e+002, 3.087074e-001
6.903911e+002, 3.100376e-001
6.923196e+002, 3.120975e-001
6.942480e+002, 3.138161e-001
6.961765e+002, 3.150265e-001
6.981050e+002, 3.161952e-001
7.000334e+002, 3.173784e-001
7.019619e+002, 3.189059e-001
7.038904e+002, 3.200133e-001
7.058188e+002, 3.212173e-001
7.077473e+002, 3.225995e-001
7.096758e+002, 3.237115e-001
7.116042e+002, 3.245920e-001
7.135327e+002, 3.252276e-001
7.154612e+002, 3.261678e-001
7.173896e+002, 3.274254e-001
7.193181e+002, 3.287827e-001
7.212466e+002, 3.298042e-001
7.231750e+002, 3.305779e-001
7.251035e+002, 3.320814e-001
7.270320e+002, 3.331037e-001
7.289604e+002, 3.337164e-001
7.308889e+002, 3.350624e-001
7.328174e+002, 3.361811e-001
7.347458e+002, 3.367291e-001
7.366743e+002, 3.376736e-001
7.386028e+002, 3.390940e-001
7.405313e+002, 3.400416e-001
7.424597e+002, 3.406777e-001
7.443882e+002, 3.417749e-001
7.463167e+002, 3.428655e-001
7.482451e+002, 3.442031e-001
7.501736e+002, 3.456260e-001
7.521021e+002, 3.466970e-001
7.540305e+002, 3.473482e-001
7.559590e+002, 3.481995e-001
7.578875e+002, 3.491399e-001
7.598159e+002, 3.498696e-001
7.617444e+002, 3.509625e-001
7.636729e+002, 3.521577e-001
7.656013e+002, 3.535115e-001
7.675298e+002, 3.548984e-001
7.694583e+002, 3.559249e-001
7.713867e+002, 3.568642e-001
7.733152e+002, 3.581642e-001
7.752437e+002, 3.589306e-001
7.771721e+002, 3.592300e-001
7.791006e+002, 3.596213e-001
7.810291e+002, 3.604726e-001
7.829575e+002, 3.612351e-001
7.848860e+002, 3.616983e-001
7.868145e+002, 3.615836e-001
7.887429e+002, 3.614018e-001
7.906714e+002, 3.618334e-001
7.925999e+002, 3.625541e-001
7.945283e+002, 3.626440e-001
7.964568e+002, 3.623987e-001
7.983853e+002, 3.619598e-001
8.003137e+002, 3.609656e-001
8.022422e+002, 3.603006e-001
8.041707e+002, 3.598433e-001
8.060991e+002, 3.596435e-001
8.080276e+002, 3.589380e-001
8.099561e+002, 3.585482e-001
8.118845e+002, 3.578062e-001
8.138130e+002, 3.565341e-001
8.157415e+002, 3.559742e-001
8.176699e+002, 3.556265e-001
8.195984e+002, 3.552470e-001
8.215269e+002, 3.550881e-001
8.234553e+002, 3.549267e-001
8.253838e+002, 3.547463e-001
8.273123e+002, 3.544133e-001
8.292407e+002, 3.541726e-001
8.311692e+002, 3.543773e-001
8.330977e+002, 3.548895e-001
8.350261e+002, 3.556468e-001
8.369546e+002, 3.561336e-001
8.388831e+002, 3.568122e-001
8.408115e+002, 3.579682e-001
8.427400e+002, 3.592518e-001
8.446685e+002, 3.601887e-001
8.465969e+002, 3.609876e-001
8.485254e+002, 3.613406e-001
8.504539e+002, 3.619444e-001
8.523823e+002, 3.623902e-001
8.543108e+002, 3.630517e-001
8.562393e+002, 3.637279e-001
8.581677e+002, 3.639123e-001
8.600962e+002, 3.639692e-001
8.620247e+002, 3.641732e-001
8.639531e+002, 3.648295e-001
8.658816e+002, 3.648581e-001
8.678101e+002, 3.643964e-001
8.697385e+002, 3.643653e-001
8.716670e+002, 3.642675e-001
8.735955e+002, 3.638431e-001
8.755239e+002, 3.636803e-001
8.774524e+002, 3.634614e-001
8.793809e+002, 3.633938e-001
8.813093e+002, 3.631109e-001
8.832378e+002, 3.626790e-001
8.851663e+002, 3.626530e-001
8.870947e+002, 3.626403e-001
8.890232e+002, 3.626879e-001
8.909517e+002, 3.628806e-001
8.928801e+002, 3.631468e-001
8.948085e+002, 3.632554e-001
8.967370e+002, 3.637506e-001
8.986655e+002, 3.651593e-001
9.005939e+002, 3.661207e-001
9.025224e+002, 3.669668e-001
9.044509e+002, 3.678453e-001
9.063793e+002, 3.688544e-001
9.083078e+002, 3.700703e-001
9.102363e+002, 3.711144e-001
9.121647e+002, 3.720629e-001
9.140932e+002, 3.729990e-001
9.160217e+002, 3.740909e-001
9.179501e+002, 3.753050e-001
9.198786e+002, 3.764952e-001
9.218071e+002, 3.777222e-001
9.237355e+002, 3.790274e-001
9.256640e+002, 3.803110e-001
9.275925e+002, 3.815759e-001
9.295209e+002, 3.824087e-001
9.314494e+002, 3.836565e-001
9.333779e+002, 3.848826e-001
9.353063e+002, 3.856439e-001
9.372348e+002, 3.863895e-001
9.391633e+002, 3.876356e-001
9.410917e+002, 3.892820e-001
9.430202e+002, 3.902063e-001
9.449487e+002, 3.909474e-001
9.468771e+002, 3.919001e-001
9.488056e+002, 3.929107e-001
9.507341e+002, 3.938436e-001
9.526625e+002, 3.952044e-001
9.545910e+002, 3.964148e-001
9.565195e+002, 3.971745e-001
9.584479e+002, 3.986432e-001
9.603764e+002, 4.001465e-001
9.623049e+002, 4.007357e-001
9.642333e+002, 4.016289e-001
9.661618e+002, 4.028326e-001
9.680903e+002, 4.039890e-001
9.700187e+002, 4.045351e-001
9.719472e+002, 4.056930e-001
9.738757e+002, 4.072610e-001
9.758041e+002, 4.081261e-001
9.777326e+002, 4.089389e-001
9.796611e+002, 4.103449e-001
9.815895e+002, 4.116898e-001
9.835180e+002, 4.128437e-001
9.854465e+002, 4.136572e-001
9.873749e+002, 4.148810e-001
9.893034e+002, 4.161228e-001
9.912319e+002, 4.176235e-001
9.931603e+002, 4.190313e-001
9.950888e+002, 4.202709e-001
9.970173e+002, 4.215471e-001
9.989457e+002, 4.229473e-001
1.000874e+003, 4.243111e-001
1.002803e+003, 4.259022e-001
1.004731e+003, 4.275257e-001
1.006660e+003, 4.288277e-001
1.008588e+003, 4.298870e-001
1.010517e+003, 4.310586e-001
1.012445e+003, 4.321005e-001
1.014373e+003, 4.328310e-001
1.016302e+003, 4.325746e-001
1.018230e+003, 4.310007e-001
1.020159e+003, 4.283344e-001
1.022087e+003, 4.240131e-001
1.024016e+003, 4.187896e-001
1.025944e+003, 4.159550e-001
1.027873e+003, 4.175965e-001
1.029801e+003, 4.219279e-001
1.031730e+003, 4.258898e-001
1.033658e+003, 4.293710e-001
1.035587e+003, 4.323041e-001
1.037515e+003, 4.344502e-001
1.039444e+003, 4.361910e-001
1.041372e+003, 4.379156e-001
1.043301e+003, 4.397105e-001
1.045229e+003, 4.414358e-001
1.047157e+003, 4.430449e-001
1.049086e+003, 4.445077e-001
1.051014e+003, 4.458100e-001
1.052943e+003, 4.472851e-001
1.054871e+003, 4.490908e-001
1.056800e+003, 4.507301e-001
1.058728e+003, 4.519115e-001
1.060657e+003, 4.528850e-001
1.062585e+003, 4.542728e-001
1.064514e+003, 4.556913e-001
1.066442e+003, 4.563493e-001
1.068371e+003, 4.567921e-001
1.070299e+003, 4.573535e-001
1.072228e+003, 4.579841e-001
1.074156e+003, 4.582610e-001
1.076084e+003, 4.582787e-001
1.078013e+003, 4.580594e-001
1.079941e+003, 4.571857e-001
1.081870e+003, 4.561428e-001
1.083798e+003, 4.554780e-001
1.085727e+003, 4.550747e-001
1.087655e+003, 4.541575e-001
1.089584e+003, 4.531752e-001
1.091512e+003, 4.523001e-001
1.093441e+003, 4.511652e-001
1.095369e+003, 4.497920e-001
1.097298e+003, 4.484749e-001
1.099226e+003, 4.473321e-001
1.101155e+003, 4.460524e-001
1.103083e+003, 4.446194e-001
1.105011e+003, 4.431201e-001
1.106940e+003, 4.419358e-001
1.108868e+003, 4.407268e-001
1.110797e+003, 4.389289e-001
1.112725e+003, 4.367118e-001
1.114654e+003, 4.345602e-001
1.116582e+003, 4.321883e-001
1.118511e+003, 4.300193e-001
1.120439e+003, 4.280259e-001
1.122368e+003, 4.258980e-001
1.124296e+003, 4.238301e-001
1.126225e+003, 4.218544e-001
1.128153e+003, 4.199128e-001
1.130082e+003, 4.181734e-001
1.132010e+003, 4.167356e-001
1.133938e+003, 4.155743e-001
1.135867e+003, 4.146501e-001
1.137795e+003, 4.141485e-001
1.139724e+003, 4.133595e-001
1.141652e+003, 4.119692e-001
1.143581e+003, 4.099671e-001
1.145509e+003, 4.077114e-001
1.147438e+003, 4.046972e-001
1.149366e+003, 4.010277e-001
1.151295e+003, 3.968946e-001
1.153223e+003, 3.922145e-001
1.155152e+003, 3.877121e-001
1.157080e+003, 3.833618e-001
1.159009e+003, 3.790293e-001
1.160937e+003, 3.748894e-001
1.162865e+003, 3.707966e-001
1.164794e+003, 3.667262e-001
1.166722e+003, 3.631163e-001
1.168651e+003, 3.593723e-001
1.170579e+003, 3.554643e-001
1.172508e+003, 3.518750e-001
1.174436e+003, 3.483429e-001
1.176365e+003, 3.448197e-001
1.178293e+003, 3.409235e-001
1.180222e+003, 3.371108e-001
1.182150e+003, 3.337638e-001
1.184079e+003, 3.307473e-001
1.186007e+003, 3.276657e-001
1.187936e+003, 3.247842e-001
1.189864e+003, 3.219386e-001
1.191792e+003, 3.193022e-001
1.193721e+003, 3.171856e-001
1.195649e+003, 3.156075e-001
1.197578e+003, 3.144281e-001
1.199506e+003, 3.133954e-001
1.201435e+003, 3.124517e-001
1.203363e+003, 3.115413e-001
1.205292e+003, 3.106964e-001
1.207220e+003, 3.102977e-001
1.209149e+003, 3.097286e-001
1.211077e+003, 3.089478e-001
1.213006e+003, 3.083657e-001
1.214934e+003, 3.081365e-001
1.216863e+003, 3.080411e-001
1.218791e+003, 3.078042e-001
1.220719e+003, 3.077520e-001
1.222648e+003, 3.081196e-001
1.224576e+003, 3.088766e-001
1.226505e+003, 3.097938e-001
1.228433e+003, 3.107788e-001
1.230362e+003, 3.120087e-001
1.232290e+003, 3.136976e-001
1.234219e+003, 3.156217e-001
1.236147e+003, 3.173873e-001
1.238076e+003, 3.196195e-001
1.240004e+003, 3.220356e-001
1.241933e+003, 3.243875e-001
1.243861e+003, 3.265510e-001
1.245790e+003, 3.286934e-001
1.247718e+003, 3.310372e-001
1.249646e+003, 3.334354e-001
1.251575e+003, 3.352373e-001
1.253503e+003, 3.368646e-001
1.255432e+003, 3.387764e-001
1.257360e+003, 3.407336e-001
1.259289e+003, 3.422503e-001
1.261217e+003, 3.439097e-001
1.263146e+003, 3.458961e-001
1.265074e+003, 3.476464e-001
1.267003e+003, 3.492381e-001
1.268931e+003, 3.510320e-001
1.270860e+003, 3.526894e-001
1.272788e+003, 3.540064e-001
1.274717e+003, 3.553421e-001
1.276645e+003, 3.569963e-001
1.278573e+003, 3.584416e-001
1.280502e+003, 3.596786e-001
1.282430e+003, 3.610940e-001
1.284359e+003, 3.623980e-001
1.286287e+003, 3.636820e-001
1.288216e+003, 3.649696e-001
1.290144e+003, 3.662664e-001
1.292073e+003, 3.673780e-001
1.294001e+003, 3.683269e-001
1.295930e+003, 3.694053e-001
1.297858e+003, 3.706656e-001
1.299787e+003, 3.715193e-001
1.301715e+003, 3.722258e-001
1.303644e+003, 3.732166e-001
1.305572e+003, 3.745318e-001
1.307500e+003, 3.755789e-001
1.309429e+003, 3.764461e-001
1.311357e+003, 3.773006e-001
1.313286e+003, 3.780762e-001
1.315214e+003, 3.787543e-001
1.317143e+003, 3.796101e-001
1.319071e+003, 3.807388e-001
1.321000e+003, 3.818554e-001
1.322928e+003, 3.827655e-001
1.324857e+003, 3.835125e-001
1.326785e+003, 3.841337e-001
1.328714e+003, 3.849191e-001
1.330642e+003, 3.857624e-001
1.332571e+003, 3.865522e-001
1.334499e+003, 3.876452e-001
1.336427e+003, 3.885697e-001
1.338356e+003, 3.893892e-001
1.340284e+003, 3.899940e-001
1.342213e+003, 3.903337e-001
1.344141e+003, 3.911427e-001
1.346070e+003, 3.923254e-001
1.347998e+003, 3.930998e-001
1.349927e+003, 3.936040e-001
1.351855e+003, 3.945400e-001
1.353784e+003, 3.955244e-001
1.355712e+003, 3.960388e-001
1.357641e+003, 3.967600e-001
1.359569e+003, 3.978378e-001
1.361498e+003, 3.987526e-001
1.363426e+003, 3.991244e-001
1.365354e+003, 3.995338e-001
1.367283e+003, 4.000035e-001
1.369211e+003, 4.006481e-001
1.371140e+003, 4.014583e-001
1.373068e+003, 4.023599e-001
1.374997e+003, 4.031842e-001
1.376925e+003, 4.037412e-001
1.378854e+003, 4.043768e-001
1.380782e+003, 4.050435e-001
1.382711e+003, 4.056804e-001
1.384639e+003, 4.066194e-001
1.386568e+003, 4.072961e-001
1.388496e+003, 4.080971e-001
1.390424e+003, 4.089003e-001
1.392353e+003, 4.094913e-001
1.394281e+003, 4.102409e-001
1.396210e+003, 4.108512e-001
1.398138e+003, 4.113798e-001
1.400067e+003, 4.120688e-001
1.401995e+003, 4.125592e-001
1.403924e+003, 4.132773e-001
1.405852e+003, 4.141162e-001
1.407781e+003, 4.146262e-001
1.409709e+003, 4.150967e-001
1.411638e+003, 4.157038e-001
1.413566e+003, 4.162546e-001
1.415495e+003, 4.170624e-001
1.417423e+003, 4.178852e-001
1.419351e+003, 4.185715e-001
1.421280e+003, 4.190886e-001
1.423208e+003, 4.196464e-001
1.425137e+003, 4.202774e-001
1.427065e+003, 4.210471e-001
1.428994e+003, 4.218392e-001
1.430922e+003, 4.225118e-001
1.432851e+003, 4.227789e-001
1.434779e+003, 4.232538e-001
1.436708e+003, 4.241091e-001
1.438636e+003, 4.245943e-001
1.440565e+003, 4.243956e-001
1.442493e+003, 4.248318e-001
1.444422e+003, 4.257628e-001
1.446350e+003, 4.265248e-001
1.448278e+003, 4.272239e-001
1.450207e+003, 4.279227e-001
1.452135e+003, 4.283836e-001
1.454064e+003, 4.288447e-001
1.455992e+003, 4.292492e-001
1.457921e+003, 4.300271e-001
1.459849e+003, 4.305430e-001
1.461778e+003, 4.307226e-001
1.463706e+003, 4.311987e-001
1.465635e+003, 4.320938e-001
1.467563e+003, 4.328773e-001
1.469492e+003, 4.334091e-001
1.471420e+003, 4.341165e-001
1.473349e+003, 4.344293e-001
1.475277e+003, 4.347909e-001
1.477205e+003, 4.353018e-001
1.479134e+003, 4.356601e-001
1.481062e+003, 4.363013e-001
1.482991e+003, 4.368456e-001
1.484919e+003, 4.370653e-001
1.486848e+003, 4.373854e-001
1.488776e+003, 4.376067e-001
1.490705e+003, 4.377785e-001
1.492633e+003, 4.380064e-001
1.494562e+003, 4.380291e-001
1.496490e+003, 4.379703e-001
1.498419e+003, 4.378006e-001
1.500347e+003, 4.373383e-001
1.502276e+003, 4.369766e-001
1.504204e+003, 4.364532e-001
1.506132e+003, 4.361098e-001
1.508061e+003, 4.358031e-001
1.509989e+003, 4.352388e-001
1.511918e+003, 4.348468e-001
1.513846e+003, 4.349549e-001
1.515775e+003, 4.352063e-001
1.517703e+003, 4.352987e-001
1.519632e+003, 4.352644e-001
1.521560e+003, 4.354000e-001
1.523489e+003, 4.359788e-001
1.525417e+003, 4.364023e-001
1.527346e+003, 4.364188e-001
1.529274e+003, 4.366670e-001
1.531203e+003, 4.371479e-001
1.533131e+003, 4.379580e-001
1.535059e+003, 4.385450e-001
1.536988e+003, 4.384668e-001
1.538916e+003, 4.385899e-001
1.540845e+003, 4.391651e-001
1.542773e+003, 4.398851e-001
1.544702e+003, 4.404452e-001
1.546630e+003, 4.407291e-001
1.548559e+003, 4.410129e-001
1.550487e+003, 4.416459e-001
1.552416e+003, 4.420276e-001
1.554344e+003, 4.424688e-001
1.556273e+003, 4.430243e-001
1.558201e+003, 4.434073e-001
1.560130e+003, 4.438204e-001
1.562058e+003, 4.443473e-001
1.563986e+003, 4.451382e-001
1.565915e+003, 4.456202e-001
1.567843e+003, 4.459886e-001
1.569772e+003, 4.463772e-001
1.571700e+003, 4.467022e-001
1.573629e+003, 4.473257e-001
1.575557e+003, 4.479915e-001
1.577486e+003, 4.480685e-001
1.579414e+003, 4.482091e-001
1.581343e+003, 4.487697e-001
1.583271e+003, 4.490098e-001
1.585200e+003, 4.494763e-001
1.587128e+003, 4.501592e-001
1.589057e+003, 4.506784e-001
1.590985e+003, 4.511632e-001
1.592913e+003, 4.520044e-001
1.594842e+003, 4.527780e-001
1.596770e+003, 4.529363e-001
1.598699e+003, 4.529992e-001
1.600627e+003, 4.532873e-001
1.602556e+003, 4.540680e-001
1.604484e+003, 4.548081e-001
1.606413e+003, 4.550248e-001
1.608341e+003, 4.553699e-001
1.610270e+003, 4.556300e-001
1.612198e+003, 4.557297e-001
1.614127e+003, 4.560410e-001
1.616055e+003, 4.563927e-001
1.617984e+003, 4.567874e-001
1.619912e+003, 4.572191e-001
1.621840e+003, 4.575518e-001
1.623769e+003, 4.576824e-001
1.625697e+003, 4.577650e-001
1.627626e+003, 4.582806e-001
1.629554e+003, 4.586209e-001
1.631483e+003, 4.586457e-001
1.633411e+003, 4.586288e-001
1.635340e+003, 4.587504e-001
1.637268e+003, 4.589556e-001
1.639197e+003, 4.593337e-001
1.641125e+003, 4.598921e-001
1.643054e+003, 4.604214e-001
1.644982e+003, 4.602985e-001
1.646911e+003, 4.603633e-001
1.648839e+003, 4.608604e-001
1.650767e+003, 4.611313e-001
1.652696e+003, 4.611919e-001
1.654624e+003, 4.611886e-001
1.656553e+003, 4.617001e-001
1.658481e+003, 4.619342e-001
1.660410e+003, 4.618798e-001
1.662338e+003, 4.621451e-001
1.664267e+003, 4.628053e-001
1.666195e+003, 4.628432e-001
1.668124e+003, 4.627361e-001
1.670052e+003, 4.629604e-001
1.671981e+003, 4.632635e-001
1.673909e+003, 4.635988e-001
1.675838e+003, 4.634365e-001
1.677766e+003, 4.633416e-001
1.679694e+003, 4.635105e-001
1.681623e+003, 4.636590e-001
1.683551e+003, 4.641092e-001
1.685480e+003, 4.643466e-001
1.687408e+003, 4.643748e-001
1.689337e+003, 4.644192e-001
1.691265e+003, 4.647196e-001
1.693194e+003, 4.652269e-001
1.695122e+003, 4.652494e-001
1.697051e+003, 4.650409e-001
1.698979e+003, 4.652148e-001
1.700908e+003, 4.653359e-001
1.702836e+003, 4.656136e-001
1.704765e+003, 4.656686e-001
1.706693e+003, 4.656334e-001
1.708621e+003, 4.660995e-001
1.710550e+003, 4.663492e-001
1.712478e+003, 4.661506e-001
1.714407e+003, 4.661326e-001
1.716335e+003, 4.664535e-001
1.718264e+003, 4.666850e-001
1.720192e+003, 4.670152e-001
1.722121e+003, 4.673142e-001
1.724049e+003, 4.673744e-001
1.725978e+003, 4.674410e-001
1.727906e+003, 4.675790e-001
1.729835e+003, 4.673919e-001
1.731763e+003, 4.671760e-001
1.733692e+003, 4.673759e-001
1.735620e+003, 4.674312e-001
1.737548e+003, 4.674765e-001
1.739477e+003, 4.676546e-001
1.741405e+003, 4.676645e-001
1.743334e+003, 4.675137e-001
1.745262e+003, 4.678404e-001
1.747191e+003, 4.682762e-001
1.749119e+003, 4.682086e-001
1.751048e+003, 4.686728e-001
1.752976e+003, 4.687684e-001
1.754905e+003, 4.684701e-001
1.756833e+003, 4.688411e-001
1.758762e+003, 4.692354e-001
1.760690e+003, 4.692632e-001
1.762619e+003, 4.693871e-001
1.764547e+003, 4.695614e-001
1.766475e+003, 4.701777e-001
1.768404e+003, 4.710048e-001
1.770332e+003, 4.714012e-001
1.772261e+003, 4.712335e-001
1.774189e+003, 4.711550e-001
1.776118e+003, 4.713115e-001
1.778046e+003, 4.718968e-001
1.779975e+003, 4.720922e-001
1.781903e+003, 4.723512e-001
1.783832e+003, 4.728300e-001
1.785760e+003, 4.727955e-001
1.787689e+003, 4.724684e-001
1.789617e+003, 4.724256e-001
1.791546e+003, 4.727224e-001
1.793474e+003, 4.730813e-001
1.795402e+003, 4.730972e-001
1.797331e+003, 4.731570e-001
1.799259e+003, 4.732379e-001
1.801188e+003, 4.732758e-001
1.803116e+003, 4.737709e-001
1.805045e+003, 4.740767e-001
1.806973e+003, 4.746594e-001
1.808902e+003, 4.754232e-001
1.810830e+003, 4.757132e-001
1.812759e+003, 4.754333e-001
1.814687e+003, 4.750172e-001
1.816616e+003, 4.746649e-001
1.818544e+003, 4.746829e-001
1.820473e+003, 4.751698e-001
1.822401e+003, 4.753514e-001
1.824329e+003, 4.756018e-001
1.826258e+003, 4.763460e-001
1.828186e+003, 4.764910e-001
1.830115e+003, 4.759912e-001
1.832043e+003, 4.762087e-001
1.833972e+003, 4.761985e-001
1.835900e+003, 4.765140e-001
1.837829e+003, 4.763724e-001
1.839757e+003, 4.763667e-001
1.841686e+003, 4.770176e-001
1.843614e+003, 4.770083e-001
1.845543e+003, 4.770213e-001
1.847471e+003, 4.772188e-001
1.849400e+003, 4.774407e-001
1.851328e+003, 4.780276e-001
1.853256e+003, 4.783112e-001
1.855185e+003, 4.782836e-001
1.857113e+003, 4.778379e-001
1.859042e+003, 4.778214e-001
1.860970e+003, 4.781539e-001
1.862899e+003, 4.780461e-001
1.864827e+003, 4.777288e-001
1.866756e+003, 4.781697e-001
1.868684e+003, 4.791239e-001
1.870613e+003, 4.799657e-001
1.872541e+003, 4.803892e-001
1.874470e+003, 4.801305e-001
1.876398e+003, 4.802057e-001
1.878327e+003, 4.804251e-001
1.880255e+003, 4.806230e-001
1.882183e+003, 4.797468e-001
1.884112e+003, 4.793001e-001
1.886040e+003, 4.802270e-001
1.887969e+003, 4.801797e-001
1.889897e+003, 4.795250e-001
1.891826e+003, 4.799916e-001
1.893754e+003, 4.803192e-001
1.895683e+003, 4.804625e-001
1.897611e+003, 4.804659e-001
1.899540e+003, 4.804200e-001
1.901468e+003, 4.805563e-001
1.903397e+003, 4.807501e-001
1.905325e+003, 4.814610e-001
1.907254e+003, 4.812897e-001
1.909182e+003, 4.806412e-001
1.911110e+003, 4.801452e-001
1.913039e+003, 4.805001e-001
1.914967e+003, 4.806673e-001
1.916896e+003, 4.809707e-001
1.918824e+003, 4.803320e-001
1.920753e+003, 4.785696e-001
1.922681e+003, 4.790103e-001
1.924610e+003, 4.803072e-001
1.926538e+003, 4.788513e-001
1.928467e+003, 4.777632e-001
1.930395e+003, 4.789281e-001
1.932324e+003, 4.789838e-001
1.934252e+003, 4.787150e-001
1.936181e+003, 4.787079e-001
1.938109e+003, 4.780664e-001
1.940037e+003, 4.782692e-001
1.941966e+003, 4.773953e-001
1.943894e+003, 4.767667e-001
1.945823e+003, 4.772032e-001
1.947751e+003, 4.769994e-001
1.949680e+003, 4.759519e-001
1.951608e+003, 4.767995e-001
1.953537e+003, 4.770831e-001
1.955465e+003, 4.749967e-001
1.957394e+003, 4.730218e-001
1.959322e+003, 4.721309e-001
1.961251e+003, 4.721250e-001
1.963179e+003, 4.713902e-001
1.965108e+003, 4.716097e-001
1.967036e+003, 4.706079e-001
1.968964e+003, 4.681139e-001
1.970893e+003, 4.676000e-001
1.972821e+003, 4.688038e-001
1.974750e+003, 4.696316e-001
1.976678e+003, 4.668632e-001
1.978607e+003, 4.671266e-001
1.980535e+003, 4.718084e-001
1.982464e+003, 4.743885e-001
1.984392e+003, 4.763382e-001
1.986321e+003, 4.764463e-001
1.988249e+003, 4.745102e-001
1.990178e+003, 4.748930e-001
1.992106e+003, 4.769190e-001
1.994035e+003, 4.772646e-001
1.995963e+003, 4.759973e-001
1.997891e+003, 4.766684e-001
1.999820e+003, 4.768089e-001
2.001748e+003, 4.756925e-001
2.003677e+003, 4.744546e-001
2.005605e+003, 4.738750e-001
2.007534e+003, 4.731254e-001
2.009462e+003, 4.748882e-001
2.011391e+003, 4.753181e-001
2.013319e+003, 4.731575e-001
2.015248e+003, 4.722877e-001
2.017176e+003, 4.720653e-001
2.019105e+003, 4.722338e-001
2.021033e+003, 4.717001e-001
2.022962e+003, 4.704608e-001
2.024890e+003, 4.700843e-001
2.026818e+003, 4.731625e-001
2.028747e+003, 4.771018e-001
2.030675e+003, 4.759961e-001
2.032604e+003, 4.741943e-001
2.034532e+003, 4.759551e-001
2.036461e+003, 4.773086e-001
2.038389e+003, 4.784169e-001
2.040318e+003, 4.786798e-001
2.042246e+003, 4.779600e-001
2.044175e+003, 4.784754e-001
2.046103e+003, 4.788483e-001
2.048032e+003, 4.810653e-001
2.049960e+003, 4.859186e-001
2.051889e+003, 4.893698e-001
2.053817e+003, 4.912533e-001
2.055746e+003, 4.907057e-001
2.057674e+003, 4.902019e-001
2.059603e+003, 4.925305e-001
2.061531e+003, 4.933792e-001
2.063459e+003, 4.915144e-001
2.065388e+003, 4.908358e-001
2.067316e+003, 4.927094e-001
2.069245e+003, 4.937251e-001
2.071173e+003, 4.941795e-001
2.073102e+003, 4.945347e-001
2.075030e+003, 4.960472e-001
2.076959e+003, 4.959658e-001
2.078887e+003, 4.970173e-001
2.080816e+003, 4.993454e-001
2.082744e+003, 4.986183e-001
2.084673e+003, 4.977872e-001
2.086601e+003, 4.978387e-001
2.088530e+003, 4.985051e-001
2.090458e+003, 4.993230e-001
2.092386e+003, 4.991696e-001
2.094315e+003, 4.973059e-001
2.096243e+003, 4.976691e-001
2.098172e+003, 4.986011e-001
2.100100e+003, 4.983649e-001
2.102029e+003, 4.984012e-001
2.103957e+003, 4.991987e-001
2.105886e+003, 5.005527e-001
2.107814e+003, 5.008564e-001
2.109743e+003, 5.008659e-001
2.111671e+003, 5.001122e-001
2.113600e+003, 5.007086e-001
2.115528e+003, 5.015371e-001
2.117457e+003, 5.016108e-001
2.119385e+003, 5.015807e-001
2.121313e+003, 5.017159e-001
2.123242e+003, 5.015116e-001
2.125170e+003, 5.009786e-001
2.127099e+003, 5.006193e-001
2.129027e+003, 4.993791e-001
2.130956e+003, 4.984633e-001
2.132884e+003, 4.980494e-001
2.134813e+003, 4.961689e-001
2.136741e+003, 4.934505e-001
2.138670e+003, 4.934917e-001
2.140598e+003, 4.933974e-001
2.142527e+003, 4.925644e-001
2.144455e+003, 4.901608e-001
2.146384e+003, 4.868782e-001
2.148312e+003, 4.861782e-001
2.150240e+003, 4.866839e-001
2.152169e+003, 4.839747e-001
2.154097e+003, 4.807011e-001
2.156026e+003, 4.788961e-001
2.157954e+003, 4.793964e-001
2.159883e+003, 4.823819e-001
2.161811e+003, 4.874468e-001
2.163740e+003, 4.899572e-001
2.165668e+003, 4.894592e-001
2.167597e+003, 4.886502e-001
2.169525e+003, 4.899888e-001
2.171454e+003, 4.910194e-001
2.173382e+003, 4.925184e-001
2.175311e+003, 4.932505e-001
2.177239e+003, 4.939742e-001
2.179167e+003, 4.964209e-001
2.181096e+003, 4.954962e-001
2.183024e+003, 4.958471e-001
2.184953e+003, 4.972810e-001
2.186881e+003, 4.996744e-001
2.188810e+003, 5.006781e-001
2.190738e+003, 4.989590e-001
2.192667e+003, 4.983057e-001
2.194595e+003, 4.987292e-001
2.196524e+003, 4.975927e-001
2.198452e+003, 4.988662e-001
2.200381e+003, 5.001304e-001
2.202309e+003, 5.011127e-001
2.204238e+003, 5.047189e-001
2.206166e+003, 5.056300e-001
2.208094e+003, 5.024617e-001
2.210023e+003, 5.011769e-001
2.211951e+003, 5.031155e-001
2.213880e+003, 5.045223e-001
2.215808e+003, 5.054434e-001
2.217737e+003, 5.069536e-001
2.219665e+003, 5.080206e-001
2.221594e+003, 5.090545e-001
2.223522e+003, 5.113309e-001
2.225451e+003, 5.111595e-001
2.227379e+003, 5.084615e-001
2.229308e+003, 5.089498e-001
2.231236e+003, 5.087947e-001
2.233165e+003, 5.108814e-001
2.235093e+003, 5.138030e-001
2.237021e+003, 5.138234e-001
2.238950e+003, 5.137752e-001
2.240878e+003, 5.137498e-001
2.242807e+003, 5.145640e-001
2.244735e+003, 5.152677e-001
2.246664e+003, 5.153642e-001
2.248592e+003, 5.153627e-001
2.250521e+003, 5.163074e-001
2.252449e+003, 5.165762e-001
2.254378e+003, 5.166757e-001
2.256306e+003, 5.177872e-001
2.258235e+003, 5.179508e-001
2.260163e+003, 5.169500e-001
2.262092e+003, 5.163427e-001
2.264020e+003, 5.191522e-001
2.265948e+003, 5.204724e-001
2.267877e+003, 5.212256e-001
2.269805e+003, 5.218320e-001
2.271734e+003, 5.219777e-001
2.273662e+003, 5.232207e-001
2.275591e+003, 5.253226e-001
2.277519e+003, 5.254412e-001
2.279448e+003, 5.248482e-001
2.281376e+003, 5.253618e-001
2.283305e+003, 5.261229e-001
2.285233e+003, 5.275036e-001
2.287162e+003, 5.283458e-001
2.289090e+003, 5.293502e-001
2.291019e+003, 5.299662e-001
2.292947e+003, 5.299897e-001
2.294875e+003, 5.299223e-001
2.296804e+003, 5.303324e-001
2.298732e+003, 5.311421e-001
2.300661e+003, 5.326767e-001
2.302589e+003, 5.333328e-001
2.304518e+003, 5.332217e-001
2.306446e+003, 5.340093e-001
2.308375e+003, 5.340037e-001
2.310303e+003, 5.337956e-001
2.312232e+003, 5.343063e-001
2.314160e+003, 5.348915e-001
2.316089e+003, 5.358909e-001
2.318017e+003, 5.366380e-001
2.319946e+003, 5.369033e-001
2.321874e+003, 5.376170e-001
2.323802e+003, 5.379406e-001
2.325731e+003, 5.380631e-001
2.327659e+003, 5.383448e-001
2.329588e+003, 5.388592e-001
2.331516e+003, 5.386767e-001
2.333445e+003, 5.383372e-001
2.335373e+003, 5.384668e-001
2.337302e+003, 5.387788e-001
2.339230e+003, 5.392349e-001
2.341159e+003, 5.394697e-001
2.343087e+003, 5.398332e-001
2.345016e+003, 5.405360e-001
2.346944e+003, 5.407800e-001
2.348873e+003, 5.405892e-001
2.350801e+003, 5.407225e-001
2.352729e+003, 5.407332e-001
2.354658e+003, 5.406824e-001
2.356586e+003, 5.403246e-001
2.358515e+003, 5.404072e-001
2.360443e+003, 5.407215e-001
2.362372e+003, 5.401810e-001
2.364300e+003, 5.392925e-001
2.366229e+003, 5.396909e-001
2.368157e+003, 5.407695e-001
2.370086e+003, 5.416966e-001
2.372014e+003, 5.416251e-001
2.373942e+003, 5.416169e-001
2.375871e+003, 5.425360e-001
2.377799e+003, 5.426323e-001
2.379728e+003, 5.422485e-001
2.381656e+003, 5.426118e-001
2.383585e+003, 5.432842e-001
2.385513e+003, 5.428727e-001
2.387442e+003, 5.427793e-001
2.389370e+003, 5.431896e-001
2.391299e+003, 5.443122e-001
2.393227e+003, 5.443088e-001
2.395156e+003, 5.430270e-001
2.397084e+003, 5.427713e-001
2.399012e+003, 5.438000e-001
2.400941e+003, 5.442887e-001
2.402869e+003, 5.442077e-001
2.404798e+003, 5.443427e-001
2.406726e+003, 5.448308e-001
2.408655e+003, 5.448651e-001
2.410583e+003, 5.450290e-001
2.412512e+003, 5.453208e-001
2.414440e+003, 5.457166e-001
2.416369e+003, 5.457479e-001
2.418297e+003, 5.451745e-001
2.420226e+003, 5.446566e-001
2.422154e+003, 5.448592e-001
2.424083e+003, 5.456697e-001
2.426011e+003, 5.461597e-001
2.427939e+003, 5.457922e-001
2.429868e+003, 5.458491e-001
2.431796e+003, 5.469539e-001
2.433725e+003, 5.475208e-001
2.435653e+003, 5.473824e-001
2.437582e+003, 5.472836e-001
2.439510e+003, 5.480055e-001
2.441439e+003, 5.484799e-001
2.443367e+003, 5.479284e-001
2.445296e+003, 5.486052e-001
2.447224e+003, 5.500166e-001
2.449153e+003, 5.497519e-001
2.451081e+003, 5.487472e-001
2.453010e+003, 5.486515e-001
2.454938e+003, 5.493512e-001
2.456866e+003, 5.500456e-001
2.458795e+003, 5.503941e-001
2.460723e+003, 5.516652e-001
2.462652e+003, 5.517896e-001
2.464580e+003, 5.498106e-001
2.466509e+003, 5.503444e-001
2.468437e+003, 5.517887e-001
2.470366e+003, 5.517838e-001
2.472294e+003, 5.506074e-001
2.474223e+003, 5.509942e-001
2.476151e+003, 5.513809e-001
2.478080e+003, 5.514795e-001
2.480008e+003, 5.525295e-001
2.481937e+003, 5.533776e-001
2.483865e+003, 5.532991e-001
2.485793e+003, 5.527850e-001
2.487722e+003, 5.527272e-001
2.489650e+003, 5.527735e-001
2.491579e+003, 5.527146e-001
2.493507e+003, 5.535375e-001
2.495436e+003, 5.529248e-001
2.497364e+003, 5.524511e-001
2.499293e+003, 5.532458e-001
2.501221e+003, 5.542508e-001
2.503150e+003, 5.544832e-001
2.505078e+003, 5.550109e-001
2.507007e+003, 5.542394e-001
2.508935e+003, 5.543534e-001
2.510864e+003, 5.555792e-001
2.512792e+003, 5.554439e-001
2.514720e+003, 5.554923e-001
2.516649e+003, 5.564137e-001
2.518577e+003, 5.564169e-001
2.520506e+003, 5.551143e-001
2.522434e+003, 5.552022e-001
2.524363e+003, 5.557086e-001
2.526291e+003, 5.563573e-001
2.528220e+003, 5.560971e-001
2.530148e+003, 5.558602e-001
2.532077e+003, 5.564291e-001
2.534005e+003, 5.565842e-001
2.535934e+003, 5.566448e-001
2.537862e+003, 5.569298e-001
2.539791e+003, 5.581041e-001
2.541719e+003, 5.587152e-001
2.543647e+003, 5.593052e-001
2.545576e+003, 5.593669e-001
2.547504e+003, 5.583161e-001
2.549433e+003, 5.583233e-001
2.551361e+003, 5.590253e-001
2.553290e+003, 5.595981e-001
2.555218e+003, 5.600548e-001
2.557147e+003, 5.606430e-001
2.559075e+003, 5.601395e-001
2.561004e+003, 5.596449e-001
2.562932e+003, 5.611653e-001
2.564861e+003, 5.622653e-001
2.566789e+003, 5.627578e-001
2.568718e+003, 5.620898e-001
2.570646e+003, 5.622883e-001
2.572574e+003, 5.630094e-001
2.574503e+003, 5.631899e-001
2.576431e+003, 5.629377e-001
2.578360e+003, 5.637644e-001
2.580288e+003, 5.644335e-001
2.582217e+003, 5.643975e-001
2.584145e+003, 5.642962e-001
2.586074e+003, 5.650222e-001
2.588002e+003, 5.653870e-001
2.589931e+003, 5.648339e-001
2.591859e+003, 5.654379e-001
2.593788e+003, 5.651556e-001
2.595716e+003, 5.642687e-001
2.597645e+003, 5.656258e-001
2.599573e+003, 5.675438e-001
2.601501e+003, 5.674930e-001
2.603430e+003, 5.675280e-001
2.605358e+003, 5.684984e-001
2.607287e+003, 5.694434e-001
2.609215e+003, 5.695441e-001
2.611144e+003, 5.684150e-001
2.613072e+003, 5.683649e-001
2.615001e+003, 5.694128e-001
2.616929e+003, 5.703294e-001
2.618858e+003, 5.708675e-001
2.620786e+003, 5.714096e-001
2.622715e+003, 5.716634e-001
2.624643e+003, 5.728148e-001
2.626572e+003, 5.736193e-001
2.628500e+003, 5.735322e-001
2.630428e+003, 5.728657e-001
2.632357e+003, 5.725626e-001
2.634285e+003, 5.727854e-001
2.636214e+003, 5.735490e-001
2.638142e+003, 5.741406e-001
2.640071e+003, 5.752721e-001
2.641999e+003, 5.761200e-001
2.643928e+003, 5.760003e-001
2.645856e+003, 5.763080e-001
2.647785e+003, 5.767331e-001
2.649713e+003, 5.765013e-001
2.651642e+003, 5.770236e-001
2.653570e+003, 5.776833e-001
2.655499e+003, 5.775836e-001
2.657427e+003, 5.781207e-001
2.659355e+003, 5.785542e-001
2.661284e+003, 5.786036e-001
2.663212e+003, 5.794506e-001
2.665141e+003, 5.801196e-001
2.667069e+003, 5.796580e-001
2.668998e+003, 5.796066e-001
2.670926e+003, 5.796914e-001
2.672855e+003, 5.802328e-001
2.674783e+003, 5.810812e-001
2.676712e+003, 5.810183e-001
2.678640e+003, 5.811930e-001
2.680569e+003, 5.813074e-001
2.682497e+003, 5.810357e-001
2.684426e+003, 5.814241e-001
2.686354e+003, 5.818413e-001
2.688282e+003, 5.815903e-001
2.690211e+003, 5.821634e-001
2.692139e+003, 5.830567e-001
2.694068e+003, 5.828272e-001
2.695996e+003, 5.830166e-001
2.697925e+003, 5.835882e-001
2.699853e+003, 5.839922e-001
2.701782e+003, 5.847401e-001
2.703710e+003, 5.850309e-001
2.705639e+003, 5.852192e-001
2.707567e+003, 5.853056e-001
2.709496e+003, 5.851819e-001
2.711424e+003, 5.843248e-001
2.713353e+003, 5.837092e-001
2.715281e+003, 5.846050e-001
2.717209e+003, 5.859764e-001
2.719138e+003, 5.866334e-001
2.721066e+003, 5.864694e-001
2.722995e+003, 5.862911e-001
2.724923e+003, 5.861503e-001
2.726852e+003, 5.863032e-001
2.728780e+003, 5.866415e-001
2.730709e+003, 5.870011e-001
2.732637e+003, 5.876809e-001
2.734566e+003, 5.881727e-001
2.736494e+003, 5.881878e-001
2.738423e+003, 5.877015e-001
2.740351e+003, 5.879720e-001
2.742280e+003, 5.885668e-001
2.744208e+003, 5.887496e-001
2.746136e+003, 5.885779e-001
2.748065e+003, 5.891312e-001
2.749993e+003, 5.896340e-001
2.751922e+003, 5.895033e-001
2.753850e+003, 5.892510e-001
2.755779e+003, 5.899575e-001
2.757707e+003, 5.903890e-001
2.759636e+003, 5.910098e-001
2.761564e+003, 5.917204e-001
2.763493e+003, 5.917361e-001
2.765421e+003, 5.918504e-001
2.767350e+003, 5.917086e-001
2.769278e+003, 5.918201e-001
2.771207e+003, 5.928214e-001
2.773135e+003, 5.934684e-001
2.775063e+003, 5.933593e-001
2.776992e+003, 5.931590e-001
2.778920e+003, 5.930687e-001
2.780849e+003, 5.934717e-001
2.782777e+003, 5.935045e-001
2.784706e+003, 5.938286e-001
2.786634e+003, 5.938519e-001
2.788563e+003, 5.943028e-001
2.790491e+003, 5.950911e-001
2.792420e+003, 5.947303e-001
2.794348e+003, 5.945874e-001
2.796277e+003, 5.950878e-001
2.798205e+003, 5.952230e-001
2.800134e+003, 5.951789e-001
2.802062e+003, 5.954112e-001
2.803990e+003, 5.954737e-001
2.805919e+003, 5.957314e-001
2.807847e+003, 5.963961e-001
2.809776e+003, 5.966473e-001
2.811704e+003, 5.970250e-001
2.813633e+003, 5.967576e-001
2.815561e+003, 5.966610e-001
2.817490e+003, 5.975063e-001
2.819418e+003, 5.980851e-001
2.821347e+003, 5.981210e-001
2.823275e+003, 5.986850e-001
2.825204e+003, 5.991210e-001
2.827132e+003, 5.989414e-001
2.829061e+003, 5.987487e-001
2.830989e+003, 5.983325e-001
2.832917e+003, 5.983037e-001
2.834846e+003, 5.990148e-001
2.836774e+003, 5.999554e-001
2.838703e+003, 6.005154e-001
2.840631e+003, 5.998145e-001
2.842560e+003, 5.999174e-001
2.844488e+003, 6.002237e-001
2.846417e+003, 5.997219e-001
2.848345e+003, 5.989834e-001
2.850274e+003, 5.994268e-001
2.852202e+003, 6.007487e-001
2.854131e+003, 6.008093e-001
2.856059e+003, 6.006226e-001
2.857988e+003, 6.007959e-001
2.859916e+003, 6.006748e-001
2.861844e+003, 6.010239e-001
2.863773e+003, 6.018868e-001
2.865701e+003, 6.025385e-001
2.867630e+003, 6.031836e-001
2.869558e+003, 6.024743e-001
2.871487e+003, 6.019198e-001
2.873415e+003, 6.029775e-001
2.875344e+003, 6.040735e-001
2.877272e+003, 6.040129e-001
2.879201e+003, 6.042856e-001
2.881129e+003, 6.046700e-001
2.883058e+003, 6.049174e-001
2.884986e+003, 6.053716e-001
2.886915e+003, 6.056420e-001
2.888843e+003, 6.050398e-001
2.890771e+003, 6.053663e-001
2.892700e+003, 6.059271e-001
2.894628e+003, 6.062104e-001
2.896557e+003, 6.064496e-001
2.898485e+003, 6.064150e-001
2.900414e+003, 6.063449e-001
2.902342e+003, 6.063085e-001
2.904271e+003, 6.062569e-001
2.906199e+003, 6.066678e-001
2.908128e+003, 6.074446e-001
2.910056e+003, 6.076537e-001
2.911985e+003, 6.076103e-001
2.913913e+003, 6.076103e-001
2.915842e+003, 6.078482e-001
2.917770e+003, 6.076061e-001
2.919698e+003, 6.074571e-001
2.921627e+003, 6.077295e-001
2.923555e+003, 6.092721e-001
2.925484e+003, 6.107102e-001
2.927412e+003, 6.097677e-001
2.929341e+003, 6.086266e-001
2.931269e+003, 6.089100e-001
2.933198e+003, 6.080410e-001
2.935126e+003, 6.087304e-001
2.937055e+003, 6.097068e-001
2.938983e+003, 6.103318e-001
2.940912e+003, 6.110550e-001
2.942840e+003, 6.106700e-001
2.944769e+003, 6.107185e-001
2.946697e+003, 6.115871e-001
2.948625e+003, 6.122885e-001
2.950554e+003, 6.125556e-001
2.952482e+003, 6.122409e-001
2.954411e+003, 6.124129e-001
2.956339e+003, 6.135302e-001
2.958268e+003, 6.135905e-001
2.960196e+003, 6.126798e-001
2.962125e+003, 6.134594e-001
2.964053e+003, 6.146374e-001
2.965982e+003, 6.153890e-001
2.967910e+003, 6.152663e-001
2.969839e+003, 6.155784e-001
2.971767e+003, 6.161605e-001
2.973696e+003, 6.162826e-001
2.975624e+003, 6.156707e-001
2.977552e+003, 6.154597e-001
2.979481e+003, 6.156599e-001
2.981409e+003, 6.166351e-001
2.983338e+003, 6.171523e-001
2.985266e+003, 6.187119e-001
2.987195e+003, 6.198549e-001
2.989123e+003, 6.188660e-001
2.991052e+003, 6.188762e-001
2.992980e+003, 6.196778e-001
2.994909e+003, 6.201108e-001
2.996837e+003, 6.203430e-001
2.998766e+003, 6.198978e-001
3.000694e+003, 6.202871e-001
3.002623e+003, 6.209242e-001
3.004551e+003, 6.206039e-001
3.006479e+003, 6.205543e-001
3.008408e+003, 6.214830e-001
3.010336e+003, 6.216929e-001
3.012265e+003, 6.225349e-001
3.014193e+003, 6.231684e-001
3.016122e+003, 6.224226e-001
3.018050e+003, 6.221499e-001
3.019979e+003, 6.229509e-001
3.021907e+003, 6.234733e-001
3.023836e+003, 6.231614e-001
3.025764e+003, 6.234075e-001
3.027693e+003, 6.240901e-001
3.029621e+003, 6.251801e-001
3.031550e+003, 6.259149e-001
3.033478e+003, 6.250390e-001
3.035406e+003, 6.243939e-001
3.037335e+003, 6.242086e-001
3.039263e+003, 6.246289e-001
3.041192e+003, 6.254386e-001
3.043120e+003, 6.256299e-001
3.045049e+003, 6.256190e-001
3.046977e+003, 6.258157e-001
3.048906e+003, 6.258176e-001
3.050834e+003, 6.266864e-001
3.052763e+003, 6.287058e-001
3.054691e+003, 6.293464e-001
3.056620e+003, 6.288012e-001
3.058548e+003, 6.289458e-001
3.060477e+003, 6.293731e-001
3.062405e+003, 6.293943e-001
3.064333e+003, 6.300364e-001
3.066262e+003, 6.308677e-001
3.068190e+003, 6.309606e-001
3.070119e+003, 6.304427e-001
3.072047e+003, 6.302427e-001
3.073976e+003, 6.309580e-001
3.075904e+003, 6.310767e-001
3.077833e+003, 6.307933e-001
3.079761e+003, 6.313300e-001
3.081690e+003, 6.328658e-001
3.083618e+003, 6.329587e-001
3.085547e+003, 6.324393e-001
3.087475e+003, 6.327541e-001
3.089404e+003, 6.341071e-001
3.091332e+003, 6.340715e-001
3.093260e+003, 6.332532e-001
3.095189e+003, 6.339374e-001
3.097117e+003, 6.353943e-001
3.099046e+003, 6.351728e-001
3.100974e+003, 6.340595e-001
3.102903e+003, 6.349254e-001
3.104831e+003, 6.362166e-001
3.106760e+003, 6.357285e-001
3.108688e+003, 6.358528e-001
3.110617e+003, 6.360101e-001
3.112545e+003, 6.361125e-001
3.114474e+003, 6.369146e-001
3.116402e+003, 6.384263e-001
3.118331e+003, 6.393825e-001
3.120259e+003, 6.392615e-001
3.122188e+003, 6.397785e-001
3.124116e+003, 6.395889e-001
3.126044e+003, 6.386309e-001
3.127973e+003, 6.402127e-001
3.129901e+003, 6.414708e-001
3.131830e+003, 6.417992e-001
3.133758e+003, 6.411241e-001
3.135687e+003, 6.405533e-001
3.137615e+003, 6.412185e-001
3.139544e+003, 6.418698e-001
3.141472e+003, 6.425784e-001
3.143401e+003, 6.430624e-001
3.145329e+003, 6.432464e-001
3.147258e+003, 6.427998e-001
3.149186e+003, 6.424257e-001
3.151115e+003, 6.421888e-001
3.153043e+003, 6.435911e-001
3.154971e+003, 6.457667e-001
3.156900e+003, 6.460273e-001
3.158828e+003, 6.455445e-001
3.160757e+003, 6.446693e-001
3.162685e+003, 6.442233e-001
3.164614e+003, 6.461006e-001
3.166542e+003, 6.465386e-001
3.168471e+003, 6.463110e-001
3.170399e+003, 6.457883e-001
3.172328e+003, 6.455857e-001
3.174256e+003, 6.476868e-001
3.176185e+003, 6.478373e-001
3.178113e+003, 6.465748e-001
3.180042e+003, 6.466990e-001
3.181970e+003, 6.486225e-001
3.183898e+003, 6.487874e-001
3.185827e+003, 6.469800e-001
3.187755e+003, 6.464955e-001
3.189684e+003, 6.473109e-001
3.191612e+003, 6.477237e-001
3.193541e+003, 6.484505e-001
3.195469e+003, 6.494426e-001
3.197398e+003, 6.494817e-001
3.199326e+003, 6.496008e-001
3.201255e+003, 6.511409e-001
3.203183e+003, 6.524776e-001
3.205112e+003, 6.515993e-001
3.207040e+003, 6.505447e-001
3.208969e+003, 6.499842e-001
3.210897e+003, 6.496933e-001
3.212825e+003, 6.502389e-001
3.214754e+003, 6.501213e-001
3.216682e+003, 6.500437e-001
3.218611e+003, 6.507214e-001
3.220539e+003, 6.514747e-001
3.222468e+003, 6.519105e-001
3.224396e+003, 6.526234e-001
3.226325e+003, 6.527577e-001
3.228253e+003, 6.543114e-001
3.230182e+003, 6.537070e-001
3.232110e+003, 6.522374e-001
3.234039e+003, 6.527489e-001
3.235967e+003, 6.532877e-001
3.237896e+003, 6.536994e-001
3.239824e+003, 6.546258e-001
3.241752e+003, 6.555890e-001
3.243681e+003, 6.542783e-001
3.245609e+003, 6.527162e-001
3.247538e+003, 6.537927e-001
3.249466e+003, 6.542019e-001
3.251395e+003, 6.554399e-001
3.253323e+003, 6.549734e-001
3.255252e+003, 6.541915e-001
3.257180e+003, 6.541302e-001
3.259109e+003, 6.542695e-001
3.261037e+003, 6.541861e-001
3.262966e+003, 6.537988e-001
3.264894e+003, 6.535004e-001
3.266823e+003, 6.548770e-001
3.268751e+003, 6.548126e-001
3.270679e+003, 6.527871e-001
3.272608e+003, 6.515958e-001
3.274536e+003, 6.516383e-001
3.276465e+003, 6.514471e-001
3.278393e+003, 6.511937e-001
3.280322e+003, 6.518174e-001
3.282250e+003, 6.533976e-001
3.284179e+003, 6.517857e-001
3.286107e+003, 6.501040e-001
3.288036e+003, 6.514781e-001
3.289964e+003, 6.511846e-001
3.291893e+003, 6.501529e-001
3.293821e+003, 6.504467e-001
3.295750e+003, 6.497279e-001
3.297678e+003, 6.497496e-001
3.299606e+003, 6.498199e-001
3.301535e+003, 6.493828e-001
3.303463e+003, 6.500854e-001
3.305392e+003, 6.481240e-001
3.307320e+003, 6.452191e-001
3.309249e+003, 6.443559e-001
3.311177e+003, 6.440024e-001
3.313106e+003, 6.447134e-001
3.315034e+003, 6.447064e-001
3.316963e+003, 6.447703e-001
3.318891e+003, 6.435324e-001
3.320820e+003, 6.424177e-001
3.322748e+003, 6.435046e-001
3.324677e+003, 6.431543e-001
3.326605e+003, 6.407257e-001
3.328533e+003, 6.389360e-001
3.330462e+003, 6.369766e-001
3.332390e+003, 6.352315e-001
3.334319e+003, 6.348601e-001
3.336247e+003, 6.344470e-001
3.338176e+003, 6.345133e-001
3.340104e+003, 6.346002e-001
3.342033e+003, 6.348547e-001
3.343961e+003, 6.360908e-001
3.345890e+003, 6.352240e-001
3.347818e+003, 6.334305e-001
3.349747e+003, 6.316962e-001
3.351675e+003, 6.321573e-001
3.353604e+003, 6.326221e-001
3.355532e+003, 6.328006e-001
3.357460e+003, 6.316417e-001
3.359389e+003, 6.287333e-001
3.361317e+003, 6.286864e-001
3.363246e+003, 6.289055e-001
3.365174e+003, 6.287557e-001
3.367103e+003, 6.282176e-001
3.369031e+003, 6.276206e-001
3.370960e+003, 6.277100e-001
3.372888e+003, 6.271769e-001
3.374817e+003, 6.284308e-001
3.376745e+003, 6.280912e-001
3.378674e+003, 6.262769e-001
3.380602e+003, 6.244522e-001
3.382531e+003, 6.230082e-001
3.384459e+003, 6.244010e-001
3.386387e+003, 6.259200e-001
3.388316e+003, 6.261078e-001
3.390244e+003, 6.260804e-001
3.392173e+003, 6.252426e-001
3.394101e+003, 6.251084e-001
3.396030e+003, 6.245031e-001
3.397958e+003, 6.240388e-001
3.399887e+003, 6.240567e-001
3.401815e+003, 6.247352e-001
3.403744e+003, 6.246572e-001
3.405672e+003, 6.246752e-001
3.407601e+003, 6.235529e-001
3.409529e+003, 6.223459e-001
3.411458e+003, 6.228437e-001
3.413386e+003, 6.229404e-001
3.415314e+003, 6.237097e-001
3.417243e+003, 6.233581e-001
3.419171e+003, 6.225502e-001
3.421100e+003, 6.226933e-001
3.423028e+003, 6.221843e-001
3.424957e+003, 6.220614e-001
3.426885e+003, 6.224366e-001
3.428814e+003, 6.235062e-001
3.430742e+003, 6.219432e-001
3.432671e+003, 6.193623e-001
3.434599e+003, 6.196959e-001
3.436528e+003, 6.219994e-001
3.438456e+003, 6.224749e-001
3.440385e+003, 6.202096e-001
3.442313e+003, 6.196749e-001
3.444241e+003, 6.207164e-001
3.446170e+003, 6.203506e-001
3.448098e+003, 6.209959e-001
3.450027e+003, 6.212467e-001
3.451955e+003, 6.204042e-001
3.453884e+003, 6.201943e-001
3.455812e+003, 6.199860e-001
3.457741e+003, 6.180655e-001
3.459669e+003, 6.196080e-001
3.461598e+003, 6.221529e-001
3.463526e+003, 6.222193e-001
3.465455e+003, 6.208336e-001
3.467383e+003, 6.212587e-001
3.469312e+003, 6.218035e-001
3.471240e+003, 6.205912e-001
3.473168e+003, 6.194837e-001
3.475097e+003, 6.199804e-001
3.477025e+003, 6.182362e-001
3.478954e+003, 6.182054e-001
3.480882e+003, 6.197422e-001
3.482811e+003, 6.192380e-001
3.484739e+003, 6.189480e-001
3.486668e+003, 6.195042e-001
3.488596e+003, 6.183930e-001
3.490525e+003, 6.197747e-001
3.492453e+003, 6.207877e-001
3.494382e+003, 6.193319e-001
3.496310e+003, 6.194696e-001
3.498239e+003, 6.187681e-001
3.500167e+003, 6.177733e-001
3.502095e+003, 6.175278e-001
3.504024e+003, 6.194123e-001
3.505952e+003, 6.217563e-001
3.507881e+003, 6.217852e-001
3.509809e+003, 6.207044e-001
3.511738e+003, 6.201863e-001
3.513666e+003, 6.186678e-001
3.515595e+003, 6.202643e-001
3.517523e+003, 6.229983e-001
3.519452e+003, 6.220776e-001
3.521380e+003, 6.215995e-001
3.523309e+003, 6.235028e-001
3.525237e+003, 6.233423e-001
3.527166e+003, 6.220471e-001
3.529094e+003, 6.204600e-001
3.531022e+003, 6.207157e-001
3.532951e+003, 6.210169e-001
3.534879e+003, 6.220045e-001
3.536808e+003, 6.217818e-001
3.538736e+003, 6.218223e-001
3.540665e+003, 6.243081e-001
3.542593e+003, 6.265777e-001
3.544522e+003, 6.269308e-001
3.546450e+003, 6.254852e-001
3.548379e+003, 6.246058e-001
3.550307e+003, 6.239669e-001
3.552236e+003, 6.244913e-001
3.554164e+003, 6.244704e-001
3.556093e+003, 6.235263e-001
3.558021e+003, 6.240040e-001
3.559949e+003, 6.238853e-001
3.561878e+003, 6.237620e-001
3.563806e+003, 6.246391e-001
3.565735e+003, 6.252204e-001
3.567663e+003, 6.262556e-001
3.569592e+003, 6.271585e-001
3.571520e+003, 6.264371e-001
3.573449e+003, 6.258005e-001
3.575377e+003, 6.281918e-001
3.577306e+003, 6.292540e-001
3.579234e+003, 6.285870e-001
3.581163e+003, 6.277677e-001
3.583091e+003, 6.271842e-001
3.585020e+003, 6.269988e-001
3.586948e+003, 6.262360e-001
3.588876e+003, 6.270422e-001
3.590805e+003, 6.292655e-001
3.592733e+003, 6.298196e-001
3.594662e+003, 6.297254e-001
3.596590e+003, 6.307788e-001
3.598519e+003, 6.319712e-001
3.600447e+003, 6.313117e-001
3.602376e+003, 6.286348e-001
3.604304e+003, 6.263925e-001
3.606233e+003, 6.280131e-001
3.608161e+003, 6.308722e-001
3.610090e+003, 6.318874e-001
3.612018e+003, 6.318451e-001
3.613947e+003, 6.311994e-001
3.615875e+003, 6.311845e-001
3.617803e+003, 6.336387e-001
3.619732e+003, 6.343209e-001
3.621660e+003, 6.339551e-001
3.623589e+003, 6.334149e-001
3.625517e+003, 6.324302e-001
3.627446e+003, 6.314281e-001
3.629374e+003, 6.341168e-001
3.631303e+003, 6.363517e-001
3.633231e+003, 6.340475e-001
3.635160e+003, 6.335910e-001
3.637088e+003, 6.359501e-001
3.639017e+003, 6.340286e-001
3.640945e+003, 6.339721e-001
3.642874e+003, 6.363150e-001
3.644802e+003, 6.376198e-001
3.646730e+003, 6.381589e-001
3.648659e+003, 6.378146e-001
3.650587e+003, 6.377938e-001
3.652516e+003, 6.393332e-001
3.654444e+003, 6.399939e-001
3.656373e+003, 6.403955e-001
3.658301e+003, 6.392442e-001
3.660230e+003, 6.393402e-001
3.662158e+003, 6.394551e-001
3.664087e+003, 6.389887e-001
3.666015e+003, 6.368487e-001
3.667944e+003, 6.382182e-001
3.669872e+003, 6.415094e-001
3.671801e+003, 6.415358e-001
3.673729e+003, 6.390070e-001
3.675657e+003, 6.418311e-001
3.677586e+003, 6.430513e-001
3.679514e+003, 6.434016e-001
3.681443e+003, 6.434585e-001
3.683371e+003, 6.431832e-001
3.685300e+003, 6.453280e-001
3.687228e+003, 6.458461e-001
3.689157e+003, 6.468722e-001
3.691085e+003, 6.469228e-001
3.693014e+003, 6.469721e-001
3.694942e+003, 6.480103e-001
3.696871e+003, 6.447498e-001
3.698799e+003, 6.429842e-001
3.700728e+003, 6.451690e-001
3.702656e+003, 6.469692e-001
3.704584e+003, 6.485231e-001
3.706513e+003, 6.518924e-001
3.708441e+003, 6.508085e-001
3.710370e+003, 6.518282e-001
3.712298e+003, 6.519713e-001
3.714227e+003, 6.489842e-001
3.716155e+003, 6.490787e-001
3.718084e+003, 6.502578e-001
3.720012e+003, 6.484239e-001
3.721941e+003, 6.478525e-001
3.723869e+003, 6.496900e-001
3.725798e+003, 6.540676e-001
3.727726e+003, 6.551209e-001
3.729655e+003, 6.521490e-001
3.731583e+003, 6.519856e-001
3.733511e+003, 6.541346e-001
3.735440e+003, 6.534500e-001
3.737368e+003, 6.534783e-001
3.739297e+003, 6.564295e-001
3.741225e+003, 6.588690e-001
3.743154e+003, 6.561284e-001
3.745082e+003, 6.558380e-001
3.747011e+003, 6.546917e-001
3.748939e+003, 6.553734e-001
3.750868e+003, 6.537831e-001
3.752796e+003, 6.550331e-001
3.754725e+003, 6.566840e-001
3.756653e+003, 6.561348e-001
3.758582e+003, 6.551050e-001
3.760510e+003, 6.577683e-001
3.762438e+003, 6.583342e-001
3.764367e+003, 6.575670e-001
3.766295e+003, 6.579419e-001
3.768224e+003, 6.586694e-001
3.770152e+003, 6.597625e-001
3.772081e+003, 6.610800e-001
3.774009e+003, 6.623065e-001
3.775938e+003, 6.609315e-001
3.777866e+003, 6.594241e-001
3.779795e+003, 6.612604e-001
3.781723e+003, 6.618683e-001
3.783652e+003, 6.625048e-001
3.785580e+003, 6.644146e-001
3.787509e+003, 6.653490e-001
3.789437e+003, 6.630734e-001
3.791365e+003, 6.619933e-001
3.793294e+003, 6.609478e-001
3.795222e+003, 6.608868e-001
3.797151e+003, 6.647015e-001
3.799079e+003, 6.670110e-001
3.801008e+003, 6.669958e-001
3.802936e+003, 6.675507e-001
3.804865e+003, 6.691293e-001
3.806793e+003, 6.689036e-001
3.808722e+003, 6.657618e-001
3.810650e+003, 6.646458e-001
3.812579e+003, 6.649431e-001
3.814507e+003, 6.656878e-001
3.816436e+003, 6.679310e-001
3.818364e+003, 6.656598e-001
3.820292e+003, 6.647874e-001
3.822221e+003, 6.662593e-001
3.824149e+003, 6.677374e-001
3.826078e+003, 6.675550e-001
3.828006e+003, 6.667007e-001
3.829935e+003, 6.667386e-001
3.831863e+003, 6.677125e-001
3.833792e+003, 6.706948e-001
3.835720e+003, 6.747610e-001
3.837649e+003, 6.710357e-001
3.839577e+003, 6.686831e-001
3.841506e+003, 6.710575e-001
3.843434e+003, 6.717235e-001
3.845363e+003, 6.710463e-001
3.847291e+003, 6.697645e-001
3.849219e+003, 6.710135e-001
3.851148e+003, 6.693277e-001
3.853076e+003, 6.674213e-001
3.855005e+003, 6.693752e-001
3.856933e+003, 6.677505e-001
3.858862e+003, 6.692581e-001
3.860790e+003, 6.711451e-001
3.862719e+003, 6.726568e-001
3.864647e+003, 6.728727e-001
3.866576e+003, 6.719738e-001
3.868504e+003, 6.727924e-001
3.870433e+003, 6.749932e-001
3.872361e+003, 6.756299e-001
3.874290e+003, 6.745169e-001
3.876218e+003, 6.742355e-001
3.878146e+003, 6.751800e-001
3.880075e+003, 6.747219e-001
3.882003e+003, 6.738475e-001
3.883932e+003, 6.725727e-001
3.885860e+003, 6.728896e-001
3.887789e+003, 6.736283e-001
3.889717e+003, 6.745928e-001
3.891646e+003, 6.761671e-001
3.893574e+003, 6.763666e-001
3.895503e+003, 6.774471e-001
3.897431e+003, 6.783605e-001
3.899360e+003, 6.810156e-001
3.901288e+003, 6.789408e-001
3.903217e+003, 6.765392e-001
3.905145e+003, 6.775061e-001
3.907073e+003, 6.777197e-001
3.909002e+003, 6.770816e-001
3.910930e+003, 6.763286e-001
3.912859e+003, 6.761786e-001
3.914787e+003, 6.781651e-001
3.916716e+003, 6.786870e-001
3.918644e+003, 6.775750e-001
3.920573e+003, 6.771625e-001
3.922501e+003, 6.769879e-001
3.924430e+003, 6.788061e-001
3.926358e+003, 6.785491e-001
3.928287e+003, 6.768361e-001
3.930215e+003, 6.781446e-001
3.932144e+003, 6.784977e-001
3.934072e+003, 6.811609e-001
3.936000e+003, 6.818181e-001
3.937929e+003, 6.795899e-001
3.939857e+003, 6.791034e-001
3.941786e+003, 6.811547e-001
3.943714e+003, 6.817684e-001
3.945643e+003, 6.828796e-001
3.947571e+003, 6.848080e-001
3.949500e+003, 6.852657e-001
3.951428e+003, 6.847210e-001
3.953357e+003, 6.827707e-001
3.955285e+003, 6.806425e-001
3.957214e+003, 6.822435e-001
3.959142e+003, 6.846320e-001
3.961071e+003, 6.853196e-001
3.962999e+003, 6.834632e-001
3.964927e+003, 6.834275e-001
3.966856e+003, 6.852055e-001
3.968784e+003, 6.857716e-001
3.970713e+003, 6.861046e-001
3.972641e+003, 6.863729e-001
3.974570e+003, 6.864750e-001
3.976498e+003, 6.857902e-001
3.978427e+003, 6.835199e-001
3.980355e+003, 6.835701e-001
3.982284e+003, 6.828785e-001
3.984212e+003, 6.839775e-001
3.986141e+003, 6.873109e-001
3.988069e+003, 6.864205e-001
3.989998e+003, 6.847162e-001
3.991926e+003, 6.882570e-001
3.993854e+003, 6.904464e-001
3.995783e+003, 6.888562e-001
3.997711e+003, 6.890658e-001
3.999640e+003, 6.893952e-001
##END=



