##NAMES=Carrollite
##RRUFFID=R050089
##IDEAL CHEMISTRY=Cu^1+^Co^3+^_2_S_4_
##LOCALITY=Kambove, Katanga, Democratic Republic of the Congo
##OWNER=RRUFF
##SOURCE=Rock Currier
##DESCRIPTION=Steel-gray octahedral crystal associated with calcite
##STATUS=The identification of this mineral has been confirmed by X-ray diffraction and chemical analysis
##URL=rruff.info/R050089
##MEASURED CHEMISTRY=(Cu_0.96_Fe^2+^_0.04_)_Σ=1_Co_2.00_S_4.00_ ; the vein is pyrite: (Fe_0.99_Co_0.01_)_Σ=1_S_2.00_
3.991926e+002, 0.000000e+000
4.011211e+002, 2.972615e-001
4.030496e+002, 2.986744e-001
4.049780e+002, 2.933595e-001
4.069065e+002, 2.991912e-001
4.088350e+002, 2.954632e-001
4.107634e+002, 2.957897e-001
4.126919e+002, 2.986455e-001
4.146204e+002, 2.956806e-001
4.165488e+002, 2.965537e-001
4.184773e+002, 2.984345e-001
4.204058e+002, 3.027016e-001
4.223342e+002, 3.044335e-001
4.242627e+002, 3.046495e-001
4.261912e+002, 3.022372e-001
4.281196e+002, 3.019491e-001
4.300481e+002, 3.024763e-001
4.319766e+002, 3.030564e-001
4.339050e+002, 3.064539e-001
4.358335e+002, 3.071291e-001
4.377620e+002, 3.084528e-001
4.396904e+002, 3.095939e-001
4.416189e+002, 3.086997e-001
4.435474e+002, 3.111465e-001
4.454758e+002, 3.122686e-001
4.474043e+002, 3.124095e-001
4.493328e+002, 3.149400e-001
4.512612e+002, 3.174229e-001
4.531897e+002, 3.166644e-001
4.551182e+002, 3.172425e-001
4.570466e+002, 3.195833e-001
4.589751e+002, 3.200118e-001
4.609036e+002, 3.194528e-001
4.628320e+002, 3.207568e-001
4.647605e+002, 3.222506e-001
4.666890e+002, 3.226525e-001
4.686174e+002, 3.230751e-001
4.705459e+002, 3.246947e-001
4.724744e+002, 3.271862e-001
4.744028e+002, 3.278988e-001
4.763313e+002, 3.274700e-001
4.782598e+002, 3.283769e-001
4.801882e+002, 3.289676e-001
4.821167e+002, 3.297174e-001
4.840452e+002, 3.309332e-001
4.859736e+002, 3.315980e-001
4.879021e+002, 3.335860e-001
4.898306e+002, 3.360650e-001
4.917590e+002, 3.370706e-001
4.936875e+002, 3.364154e-001
4.956160e+002, 3.359736e-001
4.975444e+002, 3.349710e-001
4.994729e+002, 3.332371e-001
5.014014e+002, 3.343651e-001
5.033298e+002, 3.358613e-001
5.052583e+002, 3.357994e-001
5.071868e+002, 3.363576e-001
5.091152e+002, 3.372593e-001
5.110437e+002, 3.376637e-001
5.129722e+002, 3.383087e-001
5.149006e+002, 3.369273e-001
5.168291e+002, 3.363158e-001
5.187576e+002, 3.365905e-001
5.206860e+002, 3.359253e-001
5.226145e+002, 3.353722e-001
5.245430e+002, 3.340929e-001
5.264714e+002, 3.334788e-001
5.283999e+002, 3.329981e-001
5.303284e+002, 3.325409e-001
5.322568e+002, 3.325549e-001
5.341853e+002, 3.314107e-001
5.361138e+002, 3.295099e-001
5.380422e+002, 3.279330e-001
5.399707e+002, 3.263164e-001
5.418992e+002, 3.254105e-001
5.438276e+002, 3.248656e-001
5.457561e+002, 3.255078e-001
5.476846e+002, 3.266343e-001
5.496130e+002, 3.264427e-001
5.515415e+002, 3.253648e-001
5.534700e+002, 3.261883e-001
5.553984e+002, 3.271379e-001
5.573269e+002, 3.266664e-001
5.592554e+002, 3.275106e-001
5.611838e+002, 3.279309e-001
5.631123e+002, 3.293224e-001
5.650408e+002, 3.301962e-001
5.669692e+002, 3.298762e-001
5.688977e+002, 3.293527e-001
5.708262e+002, 3.293592e-001
5.727546e+002, 3.302191e-001
5.746831e+002, 3.309902e-001
5.766116e+002, 3.329822e-001
5.785400e+002, 3.347239e-001
5.804685e+002, 3.357176e-001
5.823970e+002, 3.370542e-001
5.843254e+002, 3.388916e-001
5.862539e+002, 3.402967e-001
5.881824e+002, 3.427591e-001
5.901108e+002, 3.460101e-001
5.920393e+002, 3.482436e-001
5.939678e+002, 3.501279e-001
5.958962e+002, 3.515462e-001
5.978247e+002, 3.515306e-001
5.997532e+002, 3.512171e-001
6.016816e+002, 3.482719e-001
6.036101e+002, 3.410704e-001
6.055386e+002, 3.340425e-001
6.074670e+002, 3.308854e-001
6.093955e+002, 3.309504e-001
6.113240e+002, 3.329617e-001
6.132524e+002, 3.357059e-001
6.151809e+002, 3.395597e-001
6.171094e+002, 3.434756e-001
6.190378e+002, 3.471193e-001
6.209663e+002, 3.516150e-001
6.228948e+002, 3.550757e-001
6.248232e+002, 3.551771e-001
6.267517e+002, 3.508559e-001
6.286802e+002, 3.423893e-001
6.306086e+002, 3.334764e-001
6.325371e+002, 3.270715e-001
6.344656e+002, 3.238812e-001
6.363940e+002, 3.245031e-001
6.383225e+002, 3.282872e-001
6.402510e+002, 3.329152e-001
6.421794e+002, 3.365861e-001
6.441079e+002, 3.399624e-001
6.460364e+002, 3.438204e-001
6.479648e+002, 3.476593e-001
6.498933e+002, 3.512255e-001
6.518218e+002, 3.537299e-001
6.537502e+002, 3.567772e-001
6.556787e+002, 3.610122e-001
6.576072e+002, 3.649508e-001
6.595356e+002, 3.676083e-001
6.614641e+002, 3.690922e-001
6.633926e+002, 3.702368e-001
6.653210e+002, 3.697391e-001
6.672495e+002, 3.662360e-001
6.691780e+002, 3.598909e-001
6.711064e+002, 3.518618e-001
6.730349e+002, 3.431773e-001
6.749634e+002, 3.339286e-001
6.768918e+002, 3.269160e-001
6.788203e+002, 3.241419e-001
6.807488e+002, 3.249939e-001
6.826772e+002, 3.277499e-001
6.846057e+002, 3.314171e-001
6.865342e+002, 3.354156e-001
6.884626e+002, 3.385614e-001
6.903911e+002, 3.406634e-001
6.923196e+002, 3.428008e-001
6.942480e+002, 3.449463e-001
6.961765e+002, 3.468268e-001
6.981050e+002, 3.489793e-001
7.000334e+002, 3.514630e-001
7.019619e+002, 3.531378e-001
7.038904e+002, 3.541763e-001
7.058188e+002, 3.559245e-001
7.077473e+002, 3.580012e-001
7.096758e+002, 3.591424e-001
7.116042e+002, 3.605275e-001
7.135327e+002, 3.622427e-001
7.154612e+002, 3.637281e-001
7.173896e+002, 3.655699e-001
7.193181e+002, 3.666361e-001
7.212466e+002, 3.675801e-001
7.231750e+002, 3.693968e-001
7.251035e+002, 3.709113e-001
7.270320e+002, 3.723295e-001
7.289604e+002, 3.736177e-001
7.308889e+002, 3.743188e-001
7.328174e+002, 3.757131e-001
7.347458e+002, 3.773607e-001
7.366743e+002, 3.785602e-001
7.386028e+002, 3.798467e-001
7.405313e+002, 3.814879e-001
7.424597e+002, 3.828652e-001
7.443882e+002, 3.842345e-001
7.463167e+002, 3.856544e-001
7.482451e+002, 3.868953e-001
7.501736e+002, 3.886672e-001
7.521021e+002, 3.901521e-001
7.540305e+002, 3.917283e-001
7.559590e+002, 3.935002e-001
7.578875e+002, 3.951565e-001
7.598159e+002, 3.968455e-001
7.617444e+002, 3.982026e-001
7.636729e+002, 3.996083e-001
7.656013e+002, 4.015008e-001
7.675298e+002, 4.033973e-001
7.694583e+002, 4.046637e-001
7.713867e+002, 4.059137e-001
7.733152e+002, 4.075410e-001
7.752437e+002, 4.094431e-001
7.771721e+002, 4.111910e-001
7.791006e+002, 4.121763e-001
7.810291e+002, 4.125913e-001
7.829575e+002, 4.131991e-001
7.848860e+002, 4.137928e-001
7.868145e+002, 4.141087e-001
7.887429e+002, 4.140032e-001
7.906714e+002, 4.138340e-001
7.925999e+002, 4.133889e-001
7.945283e+002, 4.130004e-001
7.964568e+002, 4.123834e-001
7.983853e+002, 4.114642e-001
8.003137e+002, 4.097925e-001
8.022422e+002, 4.086035e-001
8.041707e+002, 4.079969e-001
8.060991e+002, 4.062879e-001
8.080276e+002, 4.042991e-001
8.099561e+002, 4.031033e-001
8.118845e+002, 4.020475e-001
8.138130e+002, 4.003042e-001
8.157415e+002, 3.985265e-001
8.176699e+002, 3.968814e-001
8.195984e+002, 3.954583e-001
8.215269e+002, 3.943214e-001
8.234553e+002, 3.930025e-001
8.253838e+002, 3.919525e-001
8.273123e+002, 3.911942e-001
8.292407e+002, 3.906640e-001
8.311692e+002, 3.904909e-001
8.330977e+002, 3.903809e-001
8.350261e+002, 3.909119e-001
8.369546e+002, 3.918802e-001
8.388831e+002, 3.928895e-001
8.408115e+002, 3.940938e-001
8.427400e+002, 3.956160e-001
8.446685e+002, 3.962800e-001
8.465969e+002, 3.969660e-001
8.485254e+002, 3.983253e-001
8.504539e+002, 3.991758e-001
8.523823e+002, 3.993528e-001
8.543108e+002, 3.994896e-001
8.562393e+002, 3.997107e-001
8.581677e+002, 3.997999e-001
8.600962e+002, 3.996036e-001
8.620247e+002, 3.991489e-001
8.639531e+002, 3.984570e-001
8.658816e+002, 3.972724e-001
8.678101e+002, 3.960688e-001
8.697385e+002, 3.951527e-001
8.716670e+002, 3.942656e-001
8.735955e+002, 3.928645e-001
8.755239e+002, 3.915307e-001
8.774524e+002, 3.904884e-001
8.793809e+002, 3.886721e-001
8.813093e+002, 3.866960e-001
8.832378e+002, 3.853327e-001
8.851663e+002, 3.846824e-001
8.870947e+002, 3.834644e-001
8.890232e+002, 3.828255e-001
8.909517e+002, 3.823730e-001
8.928801e+002, 3.817092e-001
8.948085e+002, 3.813313e-001
8.967370e+002, 3.815080e-001
8.986655e+002, 3.822216e-001
9.005939e+002, 3.829792e-001
9.025224e+002, 3.835219e-001
9.044509e+002, 3.846052e-001
9.063793e+002, 3.861784e-001
9.083078e+002, 3.875485e-001
9.102363e+002, 3.887397e-001
9.121647e+002, 3.903148e-001
9.140932e+002, 3.919490e-001
9.160217e+002, 3.935760e-001
9.179501e+002, 3.947923e-001
9.198786e+002, 3.962222e-001
9.218071e+002, 3.981237e-001
9.237355e+002, 3.997544e-001
9.256640e+002, 4.013908e-001
9.275925e+002, 4.026963e-001
9.295209e+002, 4.038063e-001
9.314494e+002, 4.051824e-001
9.333779e+002, 4.066601e-001
9.353063e+002, 4.086868e-001
9.372348e+002, 4.104699e-001
9.391633e+002, 4.120333e-001
9.410917e+002, 4.137112e-001
9.430202e+002, 4.152529e-001
9.449487e+002, 4.169175e-001
9.468771e+002, 4.187358e-001
9.488056e+002, 4.197409e-001
9.507341e+002, 4.210398e-001
9.526625e+002, 4.226585e-001
9.545910e+002, 4.241177e-001
9.565195e+002, 4.254963e-001
9.584479e+002, 4.273869e-001
9.603764e+002, 4.292021e-001
9.623049e+002, 4.303122e-001
9.642333e+002, 4.315210e-001
9.661618e+002, 4.329285e-001
9.680903e+002, 4.344939e-001
9.700187e+002, 4.360920e-001
9.719472e+002, 4.378562e-001
9.738757e+002, 4.394845e-001
9.758041e+002, 4.411649e-001
9.777326e+002, 4.432453e-001
9.796611e+002, 4.449537e-001
9.815895e+002, 4.463306e-001
9.835180e+002, 4.482046e-001
9.854465e+002, 4.504567e-001
9.873749e+002, 4.527001e-001
9.893034e+002, 4.547506e-001
9.912319e+002, 4.565558e-001
9.931603e+002, 4.584081e-001
9.950888e+002, 4.604887e-001
9.970173e+002, 4.626736e-001
9.989457e+002, 4.650553e-001
1.000874e+003, 4.675013e-001
1.002803e+003, 4.699734e-001
1.004731e+003, 4.724879e-001
1.006660e+003, 4.749145e-001
1.008588e+003, 4.776500e-001
1.010517e+003, 4.802116e-001
1.012445e+003, 4.816149e-001
1.014373e+003, 4.821448e-001
1.016302e+003, 4.812999e-001
1.018230e+003, 4.783393e-001
1.020159e+003, 4.730672e-001
1.022087e+003, 4.652717e-001
1.024016e+003, 4.560195e-001
1.025944e+003, 4.497761e-001
1.027873e+003, 4.490808e-001
1.029801e+003, 4.523014e-001
1.031730e+003, 4.570908e-001
1.033658e+003, 4.616360e-001
1.035587e+003, 4.654888e-001
1.037515e+003, 4.689654e-001
1.039444e+003, 4.716624e-001
1.041372e+003, 4.738873e-001
1.043301e+003, 4.759978e-001
1.045229e+003, 4.783368e-001
1.047157e+003, 4.805806e-001
1.049086e+003, 4.829139e-001
1.051014e+003, 4.855112e-001
1.052943e+003, 4.882095e-001
1.054871e+003, 4.909227e-001
1.056800e+003, 4.934686e-001
1.058728e+003, 4.961055e-001
1.060657e+003, 4.983196e-001
1.062585e+003, 5.005670e-001
1.064514e+003, 5.033653e-001
1.066442e+003, 5.058688e-001
1.068371e+003, 5.081048e-001
1.070299e+003, 5.097996e-001
1.072228e+003, 5.111889e-001
1.074156e+003, 5.122529e-001
1.076084e+003, 5.122002e-001
1.078013e+003, 5.116923e-001
1.079941e+003, 5.111212e-001
1.081870e+003, 5.102523e-001
1.083798e+003, 5.092139e-001
1.085727e+003, 5.082845e-001
1.087655e+003, 5.068262e-001
1.089584e+003, 5.050239e-001
1.091512e+003, 5.033606e-001
1.093441e+003, 5.015240e-001
1.095369e+003, 4.989367e-001
1.097298e+003, 4.965391e-001
1.099226e+003, 4.938959e-001
1.101155e+003, 4.908797e-001
1.103083e+003, 4.881417e-001
1.105011e+003, 4.856301e-001
1.106940e+003, 4.833030e-001
1.108868e+003, 4.810231e-001
1.110797e+003, 4.786264e-001
1.112725e+003, 4.758589e-001
1.114654e+003, 4.728958e-001
1.116582e+003, 4.700121e-001
1.118511e+003, 4.669196e-001
1.120439e+003, 4.636532e-001
1.122368e+003, 4.603442e-001
1.124296e+003, 4.576562e-001
1.126225e+003, 4.552422e-001
1.128153e+003, 4.524113e-001
1.130082e+003, 4.496102e-001
1.132010e+003, 4.470697e-001
1.133938e+003, 4.449734e-001
1.135867e+003, 4.433341e-001
1.137795e+003, 4.414579e-001
1.139724e+003, 4.394035e-001
1.141652e+003, 4.367897e-001
1.143581e+003, 4.332147e-001
1.145509e+003, 4.292060e-001
1.147438e+003, 4.241400e-001
1.149366e+003, 4.180425e-001
1.151295e+003, 4.117496e-001
1.153223e+003, 4.053955e-001
1.155152e+003, 3.992052e-001
1.157080e+003, 3.929792e-001
1.159009e+003, 3.870881e-001
1.160937e+003, 3.815760e-001
1.162865e+003, 3.758107e-001
1.164794e+003, 3.699296e-001
1.166722e+003, 3.646165e-001
1.168651e+003, 3.596266e-001
1.170579e+003, 3.545715e-001
1.172508e+003, 3.494740e-001
1.174436e+003, 3.444892e-001
1.176365e+003, 3.395135e-001
1.178293e+003, 3.346211e-001
1.180222e+003, 3.298386e-001
1.182150e+003, 3.254392e-001
1.184079e+003, 3.213946e-001
1.186007e+003, 3.171896e-001
1.187936e+003, 3.126661e-001
1.189864e+003, 3.087935e-001
1.191792e+003, 3.051874e-001
1.193721e+003, 3.016914e-001
1.195649e+003, 2.987480e-001
1.197578e+003, 2.961673e-001
1.199506e+003, 2.940565e-001
1.201435e+003, 2.921999e-001
1.203363e+003, 2.904264e-001
1.205292e+003, 2.889356e-001
1.207220e+003, 2.876377e-001
1.209149e+003, 2.862928e-001
1.211077e+003, 2.847959e-001
1.213006e+003, 2.833710e-001
1.214934e+003, 2.818852e-001
1.216863e+003, 2.803867e-001
1.218791e+003, 2.793257e-001
1.220719e+003, 2.781672e-001
1.222648e+003, 2.770281e-001
1.224576e+003, 2.765070e-001
1.226505e+003, 2.765681e-001
1.228433e+003, 2.765444e-001
1.230362e+003, 2.766440e-001
1.232290e+003, 2.771099e-001
1.234219e+003, 2.778818e-001
1.236147e+003, 2.789060e-001
1.238076e+003, 2.804925e-001
1.240004e+003, 2.823419e-001
1.241933e+003, 2.843804e-001
1.243861e+003, 2.862312e-001
1.245790e+003, 2.879205e-001
1.247718e+003, 2.895870e-001
1.249646e+003, 2.912734e-001
1.251575e+003, 2.928437e-001
1.253503e+003, 2.944339e-001
1.255432e+003, 2.961760e-001
1.257360e+003, 2.976698e-001
1.259289e+003, 2.989781e-001
1.261217e+003, 3.007691e-001
1.263146e+003, 3.024304e-001
1.265074e+003, 3.039176e-001
1.267003e+003, 3.054709e-001
1.268931e+003, 3.071380e-001
1.270860e+003, 3.086191e-001
1.272788e+003, 3.099572e-001
1.274717e+003, 3.117807e-001
1.276645e+003, 3.133220e-001
1.278573e+003, 3.145906e-001
1.280502e+003, 3.160639e-001
1.282430e+003, 3.176184e-001
1.284359e+003, 3.188080e-001
1.286287e+003, 3.197950e-001
1.288216e+003, 3.212492e-001
1.290144e+003, 3.224986e-001
1.292073e+003, 3.233322e-001
1.294001e+003, 3.243217e-001
1.295930e+003, 3.256128e-001
1.297858e+003, 3.266650e-001
1.299787e+003, 3.275697e-001
1.301715e+003, 3.286253e-001
1.303644e+003, 3.298929e-001
1.305572e+003, 3.310869e-001
1.307500e+003, 3.319093e-001
1.309429e+003, 3.326926e-001
1.311357e+003, 3.337227e-001
1.313286e+003, 3.350139e-001
1.315214e+003, 3.363446e-001
1.317143e+003, 3.371556e-001
1.319071e+003, 3.375884e-001
1.321000e+003, 3.382638e-001
1.322928e+003, 3.391413e-001
1.324857e+003, 3.397901e-001
1.326785e+003, 3.406215e-001
1.328714e+003, 3.416238e-001
1.330642e+003, 3.425601e-001
1.332571e+003, 3.435008e-001
1.334499e+003, 3.442891e-001
1.336427e+003, 3.452392e-001
1.338356e+003, 3.460441e-001
1.340284e+003, 3.466691e-001
1.342213e+003, 3.473860e-001
1.344141e+003, 3.482685e-001
1.346070e+003, 3.490905e-001
1.347998e+003, 3.499120e-001
1.349927e+003, 3.507893e-001
1.351855e+003, 3.514903e-001
1.353784e+003, 3.521491e-001
1.355712e+003, 3.530093e-001
1.357641e+003, 3.539514e-001
1.359569e+003, 3.549619e-001
1.361498e+003, 3.556905e-001
1.363426e+003, 3.560442e-001
1.365354e+003, 3.562474e-001
1.367283e+003, 3.566391e-001
1.369211e+003, 3.571985e-001
1.371140e+003, 3.578232e-001
1.373068e+003, 3.587528e-001
1.374997e+003, 3.597378e-001
1.376925e+003, 3.602100e-001
1.378854e+003, 3.609147e-001
1.380782e+003, 3.618479e-001
1.382711e+003, 3.621981e-001
1.384639e+003, 3.626206e-001
1.386568e+003, 3.635922e-001
1.388496e+003, 3.646026e-001
1.390424e+003, 3.651796e-001
1.392353e+003, 3.656286e-001
1.394281e+003, 3.661303e-001
1.396210e+003, 3.669242e-001
1.398138e+003, 3.677391e-001
1.400067e+003, 3.686360e-001
1.401995e+003, 3.691663e-001
1.403924e+003, 3.697666e-001
1.405852e+003, 3.706923e-001
1.407781e+003, 3.712584e-001
1.409709e+003, 3.719073e-001
1.411638e+003, 3.728271e-001
1.413566e+003, 3.734742e-001
1.415495e+003, 3.735588e-001
1.417423e+003, 3.739559e-001
1.419351e+003, 3.749504e-001
1.421280e+003, 3.756033e-001
1.423208e+003, 3.761961e-001
1.425137e+003, 3.770132e-001
1.427065e+003, 3.775212e-001
1.428994e+003, 3.780343e-001
1.430922e+003, 3.786125e-001
1.432851e+003, 3.793177e-001
1.434779e+003, 3.801180e-001
1.436708e+003, 3.808607e-001
1.438636e+003, 3.811724e-001
1.440565e+003, 3.814958e-001
1.442493e+003, 3.818975e-001
1.444422e+003, 3.824549e-001
1.446350e+003, 3.831071e-001
1.448278e+003, 3.838816e-001
1.450207e+003, 3.846409e-001
1.452135e+003, 3.852912e-001
1.454064e+003, 3.858154e-001
1.455992e+003, 3.861359e-001
1.457921e+003, 3.871313e-001
1.459849e+003, 3.876912e-001
1.461778e+003, 3.882516e-001
1.463706e+003, 3.886203e-001
1.465635e+003, 3.891370e-001
1.467563e+003, 3.895324e-001
1.469492e+003, 3.902683e-001
1.471420e+003, 3.909110e-001
1.473349e+003, 3.916889e-001
1.475277e+003, 3.925627e-001
1.477205e+003, 3.932041e-001
1.479134e+003, 3.935885e-001
1.481062e+003, 3.943168e-001
1.482991e+003, 3.948765e-001
1.484919e+003, 3.952467e-001
1.486848e+003, 3.955729e-001
1.488776e+003, 3.959396e-001
1.490705e+003, 3.962629e-001
1.492633e+003, 3.965822e-001
1.494562e+003, 3.968765e-001
1.496490e+003, 3.968757e-001
1.498419e+003, 3.963222e-001
1.500347e+003, 3.959945e-001
1.502276e+003, 3.954669e-001
1.504204e+003, 3.945587e-001
1.506132e+003, 3.937741e-001
1.508061e+003, 3.930964e-001
1.509989e+003, 3.919959e-001
1.511918e+003, 3.912151e-001
1.513846e+003, 3.909024e-001
1.515775e+003, 3.905129e-001
1.517703e+003, 3.900667e-001
1.519632e+003, 3.897648e-001
1.521560e+003, 3.899111e-001
1.523489e+003, 3.898606e-001
1.525417e+003, 3.901450e-001
1.527346e+003, 3.904606e-001
1.529274e+003, 3.904765e-001
1.531203e+003, 3.906214e-001
1.533131e+003, 3.911542e-001
1.535059e+003, 3.915463e-001
1.536988e+003, 3.913609e-001
1.538916e+003, 3.914805e-001
1.540845e+003, 3.922624e-001
1.542773e+003, 3.932011e-001
1.544702e+003, 3.936381e-001
1.546630e+003, 3.938348e-001
1.548559e+003, 3.939556e-001
1.550487e+003, 3.944413e-001
1.552416e+003, 3.949818e-001
1.554344e+003, 3.956178e-001
1.556273e+003, 3.959801e-001
1.558201e+003, 3.963739e-001
1.560130e+003, 3.972403e-001
1.562058e+003, 3.976660e-001
1.563986e+003, 3.979492e-001
1.565915e+003, 3.983547e-001
1.567843e+003, 3.988582e-001
1.569772e+003, 3.994122e-001
1.571700e+003, 3.995483e-001
1.573629e+003, 3.998515e-001
1.575557e+003, 4.000932e-001
1.577486e+003, 4.009227e-001
1.579414e+003, 4.013988e-001
1.581343e+003, 4.021511e-001
1.583271e+003, 4.023464e-001
1.585200e+003, 4.024405e-001
1.587128e+003, 4.030052e-001
1.589057e+003, 4.036166e-001
1.590985e+003, 4.043923e-001
1.592913e+003, 4.050183e-001
1.594842e+003, 4.055503e-001
1.596770e+003, 4.060920e-001
1.598699e+003, 4.064510e-001
1.600627e+003, 4.069797e-001
1.602556e+003, 4.074778e-001
1.604484e+003, 4.076705e-001
1.606413e+003, 4.077689e-001
1.608341e+003, 4.083480e-001
1.610270e+003, 4.084813e-001
1.612198e+003, 4.086112e-001
1.614127e+003, 4.089693e-001
1.616055e+003, 4.095748e-001
1.617984e+003, 4.102885e-001
1.619912e+003, 4.102449e-001
1.621840e+003, 4.102742e-001
1.623769e+003, 4.104651e-001
1.625697e+003, 4.106676e-001
1.627626e+003, 4.112898e-001
1.629554e+003, 4.115846e-001
1.631483e+003, 4.116603e-001
1.633411e+003, 4.117822e-001
1.635340e+003, 4.119235e-001
1.637268e+003, 4.119433e-001
1.639197e+003, 4.118012e-001
1.641125e+003, 4.120803e-001
1.643054e+003, 4.128082e-001
1.644982e+003, 4.129745e-001
1.646911e+003, 4.128106e-001
1.648839e+003, 4.128518e-001
1.650767e+003, 4.128546e-001
1.652696e+003, 4.127436e-001
1.654624e+003, 4.130735e-001
1.656553e+003, 4.131770e-001
1.658481e+003, 4.135799e-001
1.660410e+003, 4.138383e-001
1.662338e+003, 4.140733e-001
1.664267e+003, 4.141825e-001
1.666195e+003, 4.141779e-001
1.668124e+003, 4.140519e-001
1.670052e+003, 4.143797e-001
1.671981e+003, 4.146089e-001
1.673909e+003, 4.145304e-001
1.675838e+003, 4.146924e-001
1.677766e+003, 4.150727e-001
1.679694e+003, 4.155405e-001
1.681623e+003, 4.153227e-001
1.683551e+003, 4.150150e-001
1.685480e+003, 4.150881e-001
1.687408e+003, 4.151881e-001
1.689337e+003, 4.154631e-001
1.691265e+003, 4.155086e-001
1.693194e+003, 4.154692e-001
1.695122e+003, 4.151837e-001
1.697051e+003, 4.152459e-001
1.698979e+003, 4.150043e-001
1.700908e+003, 4.151728e-001
1.702836e+003, 4.146174e-001
1.704765e+003, 4.148962e-001
1.706693e+003, 4.151994e-001
1.708621e+003, 4.148530e-001
1.710550e+003, 4.143181e-001
1.712478e+003, 4.142242e-001
1.714407e+003, 4.142573e-001
1.716335e+003, 4.142517e-001
1.718264e+003, 4.144628e-001
1.720192e+003, 4.142943e-001
1.722121e+003, 4.141621e-001
1.724049e+003, 4.140655e-001
1.725978e+003, 4.137919e-001
1.727906e+003, 4.134662e-001
1.729835e+003, 4.135609e-001
1.731763e+003, 4.135042e-001
1.733692e+003, 4.130743e-001
1.735620e+003, 4.134053e-001
1.737548e+003, 4.133762e-001
1.739477e+003, 4.129218e-001
1.741405e+003, 4.126559e-001
1.743334e+003, 4.129034e-001
1.745262e+003, 4.129614e-001
1.747191e+003, 4.129902e-001
1.749119e+003, 4.135132e-001
1.751048e+003, 4.136940e-001
1.752976e+003, 4.139143e-001
1.754905e+003, 4.141280e-001
1.756833e+003, 4.143990e-001
1.758762e+003, 4.145524e-001
1.760690e+003, 4.145258e-001
1.762619e+003, 4.144727e-001
1.764547e+003, 4.146138e-001
1.766475e+003, 4.148896e-001
1.768404e+003, 4.152854e-001
1.770332e+003, 4.153439e-001
1.772261e+003, 4.154607e-001
1.774189e+003, 4.157094e-001
1.776118e+003, 4.157384e-001
1.778046e+003, 4.157749e-001
1.779975e+003, 4.159933e-001
1.781903e+003, 4.162665e-001
1.783832e+003, 4.165623e-001
1.785760e+003, 4.162834e-001
1.787689e+003, 4.163488e-001
1.789617e+003, 4.166122e-001
1.791546e+003, 4.163694e-001
1.793474e+003, 4.166182e-001
1.795402e+003, 4.167688e-001
1.797331e+003, 4.173155e-001
1.799259e+003, 4.177442e-001
1.801188e+003, 4.174443e-001
1.803116e+003, 4.172834e-001
1.805045e+003, 4.178262e-001
1.806973e+003, 4.183272e-001
1.808902e+003, 4.180375e-001
1.810830e+003, 4.176114e-001
1.812759e+003, 4.172857e-001
1.814687e+003, 4.178729e-001
1.816616e+003, 4.183413e-001
1.818544e+003, 4.181336e-001
1.820473e+003, 4.180996e-001
1.822401e+003, 4.182353e-001
1.824329e+003, 4.179550e-001
1.826258e+003, 4.183007e-001
1.828186e+003, 4.188409e-001
1.830115e+003, 4.189665e-001
1.832043e+003, 4.188109e-001
1.833972e+003, 4.191187e-001
1.835900e+003, 4.196394e-001
1.837829e+003, 4.200105e-001
1.839757e+003, 4.203395e-001
1.841686e+003, 4.202161e-001
1.843614e+003, 4.195866e-001
1.845543e+003, 4.201906e-001
1.847471e+003, 4.202051e-001
1.849400e+003, 4.200039e-001
1.851328e+003, 4.200763e-001
1.853256e+003, 4.200811e-001
1.855185e+003, 4.199709e-001
1.857113e+003, 4.202097e-001
1.859042e+003, 4.205575e-001
1.860970e+003, 4.208124e-001
1.862899e+003, 4.212624e-001
1.864827e+003, 4.218860e-001
1.866756e+003, 4.212656e-001
1.868684e+003, 4.207959e-001
1.870613e+003, 4.213168e-001
1.872541e+003, 4.215378e-001
1.874470e+003, 4.210508e-001
1.876398e+003, 4.213740e-001
1.878327e+003, 4.214325e-001
1.880255e+003, 4.218540e-001
1.882183e+003, 4.223665e-001
1.884112e+003, 4.225082e-001
1.886040e+003, 4.221563e-001
1.887969e+003, 4.222198e-001
1.889897e+003, 4.226669e-001
1.891826e+003, 4.226986e-001
1.893754e+003, 4.221062e-001
1.895683e+003, 4.212069e-001
1.897611e+003, 4.210520e-001
1.899540e+003, 4.215758e-001
1.901468e+003, 4.218593e-001
1.903397e+003, 4.219874e-001
1.905325e+003, 4.217592e-001
1.907254e+003, 4.219168e-001
1.909182e+003, 4.226048e-001
1.911110e+003, 4.226052e-001
1.913039e+003, 4.232360e-001
1.914967e+003, 4.235116e-001
1.916896e+003, 4.236147e-001
1.918824e+003, 4.238359e-001
1.920753e+003, 4.235172e-001
1.922681e+003, 4.227969e-001
1.924610e+003, 4.219399e-001
1.926538e+003, 4.218794e-001
1.928467e+003, 4.223413e-001
1.930395e+003, 4.225977e-001
1.932324e+003, 4.218594e-001
1.934252e+003, 4.215207e-001
1.936181e+003, 4.221636e-001
1.938109e+003, 4.217658e-001
1.940037e+003, 4.201626e-001
1.941966e+003, 4.198240e-001
1.943894e+003, 4.206528e-001
1.945823e+003, 4.199939e-001
1.947751e+003, 4.191091e-001
1.949680e+003, 4.194229e-001
1.951608e+003, 4.184459e-001
1.953537e+003, 4.177522e-001
1.955465e+003, 4.167749e-001
1.957394e+003, 4.157528e-001
1.959322e+003, 4.154418e-001
1.961251e+003, 4.142712e-001
1.963179e+003, 4.132366e-001
1.965108e+003, 4.143514e-001
1.967036e+003, 4.149486e-001
1.968964e+003, 4.151424e-001
1.970893e+003, 4.157425e-001
1.972821e+003, 4.147512e-001
1.974750e+003, 4.129832e-001
1.976678e+003, 4.132103e-001
1.978607e+003, 4.159628e-001
1.980535e+003, 4.195869e-001
1.982464e+003, 4.207962e-001
1.984392e+003, 4.181416e-001
1.986321e+003, 4.168440e-001
1.988249e+003, 4.190443e-001
1.990178e+003, 4.206614e-001
1.992106e+003, 4.220140e-001
1.994035e+003, 4.220020e-001
1.995963e+003, 4.197427e-001
1.997891e+003, 4.184179e-001
1.999820e+003, 4.187284e-001
2.001748e+003, 4.180722e-001
2.003677e+003, 4.176579e-001
2.005605e+003, 4.172791e-001
2.007534e+003, 4.160977e-001
2.009462e+003, 4.178820e-001
2.011391e+003, 4.216527e-001
2.013319e+003, 4.220169e-001
2.015248e+003, 4.196649e-001
2.017176e+003, 4.183789e-001
2.019105e+003, 4.178595e-001
2.021033e+003, 4.162793e-001
2.022962e+003, 4.153005e-001
2.024890e+003, 4.170061e-001
2.026818e+003, 4.181070e-001
2.028747e+003, 4.176964e-001
2.030675e+003, 4.189548e-001
2.032604e+003, 4.192566e-001
2.034532e+003, 4.192647e-001
2.036461e+003, 4.198028e-001
2.038389e+003, 4.205988e-001
2.040318e+003, 4.210771e-001
2.042246e+003, 4.220912e-001
2.044175e+003, 4.234082e-001
2.046103e+003, 4.243459e-001
2.048032e+003, 4.267847e-001
2.049960e+003, 4.277111e-001
2.051889e+003, 4.267536e-001
2.053817e+003, 4.256642e-001
2.055746e+003, 4.268391e-001
2.057674e+003, 4.286793e-001
2.059603e+003, 4.289691e-001
2.061531e+003, 4.284585e-001
2.063459e+003, 4.284927e-001
2.065388e+003, 4.290034e-001
2.067316e+003, 4.308724e-001
2.069245e+003, 4.327688e-001
2.071173e+003, 4.332957e-001
2.073102e+003, 4.321207e-001
2.075030e+003, 4.329627e-001
2.076959e+003, 4.337399e-001
2.078887e+003, 4.323871e-001
2.080816e+003, 4.323062e-001
2.082744e+003, 4.332602e-001
2.084673e+003, 4.344869e-001
2.086601e+003, 4.349490e-001
2.088530e+003, 4.337361e-001
2.090458e+003, 4.334641e-001
2.092386e+003, 4.342116e-001
2.094315e+003, 4.344256e-001
2.096243e+003, 4.344190e-001
2.098172e+003, 4.336222e-001
2.100100e+003, 4.335124e-001
2.102029e+003, 4.339910e-001
2.103957e+003, 4.357096e-001
2.105886e+003, 4.366657e-001
2.107814e+003, 4.356962e-001
2.109743e+003, 4.360058e-001
2.111671e+003, 4.371558e-001
2.113600e+003, 4.370373e-001
2.115528e+003, 4.362139e-001
2.117457e+003, 4.355634e-001
2.119385e+003, 4.356281e-001
2.121313e+003, 4.367282e-001
2.123242e+003, 4.362468e-001
2.125170e+003, 4.344859e-001
2.127099e+003, 4.341642e-001
2.129027e+003, 4.341514e-001
2.130956e+003, 4.332224e-001
2.132884e+003, 4.315608e-001
2.134813e+003, 4.300510e-001
2.136741e+003, 4.296818e-001
2.138670e+003, 4.297636e-001
2.140598e+003, 4.289935e-001
2.142527e+003, 4.277459e-001
2.144455e+003, 4.291305e-001
2.146384e+003, 4.286959e-001
2.148312e+003, 4.258686e-001
2.150240e+003, 4.232944e-001
2.152169e+003, 4.228494e-001
2.154097e+003, 4.222247e-001
2.156026e+003, 4.190147e-001
2.157954e+003, 4.166626e-001
2.159883e+003, 4.220120e-001
2.161811e+003, 4.245966e-001
2.163740e+003, 4.277304e-001
2.165668e+003, 4.277171e-001
2.167597e+003, 4.246500e-001
2.169525e+003, 4.242528e-001
2.171454e+003, 4.275209e-001
2.173382e+003, 4.292911e-001
2.175311e+003, 4.294693e-001
2.177239e+003, 4.308889e-001
2.179167e+003, 4.302705e-001
2.181096e+003, 4.299882e-001
2.183024e+003, 4.305132e-001
2.184953e+003, 4.306930e-001
2.186881e+003, 4.312952e-001
2.188810e+003, 4.328527e-001
2.190738e+003, 4.330056e-001
2.192667e+003, 4.329568e-001
2.194595e+003, 4.324807e-001
2.196524e+003, 4.312911e-001
2.198452e+003, 4.327897e-001
2.200381e+003, 4.357145e-001
2.202309e+003, 4.361212e-001
2.204238e+003, 4.373528e-001
2.206166e+003, 4.371448e-001
2.208094e+003, 4.360647e-001
2.210023e+003, 4.364690e-001
2.211951e+003, 4.376160e-001
2.213880e+003, 4.371232e-001
2.215808e+003, 4.373962e-001
2.217737e+003, 4.381571e-001
2.219665e+003, 4.390838e-001
2.221594e+003, 4.384174e-001
2.223522e+003, 4.384443e-001
2.225451e+003, 4.405825e-001
2.227379e+003, 4.405455e-001
2.229308e+003, 4.385942e-001
2.231236e+003, 4.386525e-001
2.233165e+003, 4.414748e-001
2.235093e+003, 4.420530e-001
2.237021e+003, 4.411765e-001
2.238950e+003, 4.405977e-001
2.240878e+003, 4.405146e-001
2.242807e+003, 4.428426e-001
2.244735e+003, 4.437042e-001
2.246664e+003, 4.423187e-001
2.248592e+003, 4.422085e-001
2.250521e+003, 4.425730e-001
2.252449e+003, 4.430720e-001
2.254378e+003, 4.439727e-001
2.256306e+003, 4.454893e-001
2.258235e+003, 4.463074e-001
2.260163e+003, 4.450574e-001
2.262092e+003, 4.445029e-001
2.264020e+003, 4.450003e-001
2.265948e+003, 4.457712e-001
2.267877e+003, 4.459684e-001
2.269805e+003, 4.465356e-001
2.271734e+003, 4.474413e-001
2.273662e+003, 4.477821e-001
2.275591e+003, 4.486950e-001
2.277519e+003, 4.485352e-001
2.279448e+003, 4.466956e-001
2.281376e+003, 4.478473e-001
2.283305e+003, 4.503101e-001
2.285233e+003, 4.508418e-001
2.287162e+003, 4.508170e-001
2.289090e+003, 4.510728e-001
2.291019e+003, 4.506724e-001
2.292947e+003, 4.510088e-001
2.294875e+003, 4.517127e-001
2.296804e+003, 4.518694e-001
2.298732e+003, 4.520923e-001
2.300661e+003, 4.524811e-001
2.302589e+003, 4.529352e-001
2.304518e+003, 4.534706e-001
2.306446e+003, 4.540156e-001
2.308375e+003, 4.539379e-001
2.310303e+003, 4.538693e-001
2.312232e+003, 4.550169e-001
2.314160e+003, 4.562397e-001
2.316089e+003, 4.555832e-001
2.318017e+003, 4.549317e-001
2.319946e+003, 4.557569e-001
2.321874e+003, 4.569395e-001
2.323802e+003, 4.571887e-001
2.325731e+003, 4.566648e-001
2.327659e+003, 4.565872e-001
2.329588e+003, 4.570802e-001
2.331516e+003, 4.569385e-001
2.333445e+003, 4.564970e-001
2.335373e+003, 4.569920e-001
2.337302e+003, 4.571967e-001
2.339230e+003, 4.569851e-001
2.341159e+003, 4.569180e-001
2.343087e+003, 4.573001e-001
2.345016e+003, 4.575521e-001
2.346944e+003, 4.572779e-001
2.348873e+003, 4.567264e-001
2.350801e+003, 4.569425e-001
2.352729e+003, 4.575893e-001
2.354658e+003, 4.578298e-001
2.356586e+003, 4.579789e-001
2.358515e+003, 4.580407e-001
2.360443e+003, 4.580804e-001
2.362372e+003, 4.580132e-001
2.364300e+003, 4.580504e-001
2.366229e+003, 4.581991e-001
2.368157e+003, 4.579099e-001
2.370086e+003, 4.578424e-001
2.372014e+003, 4.578181e-001
2.373942e+003, 4.576679e-001
2.375871e+003, 4.578518e-001
2.377799e+003, 4.583876e-001
2.379728e+003, 4.589959e-001
2.381656e+003, 4.592838e-001
2.383585e+003, 4.589168e-001
2.385513e+003, 4.586209e-001
2.387442e+003, 4.586244e-001
2.389370e+003, 4.588776e-001
2.391299e+003, 4.588099e-001
2.393227e+003, 4.585194e-001
2.395156e+003, 4.581412e-001
2.397084e+003, 4.586491e-001
2.399012e+003, 4.591358e-001
2.400941e+003, 4.594270e-001
2.402869e+003, 4.591996e-001
2.404798e+003, 4.589186e-001
2.406726e+003, 4.587819e-001
2.408655e+003, 4.599045e-001
2.410583e+003, 4.610254e-001
2.412512e+003, 4.604501e-001
2.414440e+003, 4.595252e-001
2.416369e+003, 4.599010e-001
2.418297e+003, 4.603269e-001
2.420226e+003, 4.609997e-001
2.422154e+003, 4.608994e-001
2.424083e+003, 4.603949e-001
2.426011e+003, 4.598359e-001
2.427939e+003, 4.600789e-001
2.429868e+003, 4.609391e-001
2.431796e+003, 4.604744e-001
2.433725e+003, 4.598487e-001
2.435653e+003, 4.598241e-001
2.437582e+003, 4.605451e-001
2.439510e+003, 4.617810e-001
2.441439e+003, 4.622394e-001
2.443367e+003, 4.614126e-001
2.445296e+003, 4.620080e-001
2.447224e+003, 4.635328e-001
2.449153e+003, 4.635251e-001
2.451081e+003, 4.621697e-001
2.453010e+003, 4.617426e-001
2.454938e+003, 4.623888e-001
2.456866e+003, 4.634179e-001
2.458795e+003, 4.638059e-001
2.460723e+003, 4.632555e-001
2.462652e+003, 4.626679e-001
2.464580e+003, 4.624862e-001
2.466509e+003, 4.630809e-001
2.468437e+003, 4.637634e-001
2.470366e+003, 4.634671e-001
2.472294e+003, 4.631070e-001
2.474223e+003, 4.641152e-001
2.476151e+003, 4.647711e-001
2.478080e+003, 4.632566e-001
2.480008e+003, 4.628538e-001
2.481937e+003, 4.639492e-001
2.483865e+003, 4.636483e-001
2.485793e+003, 4.636643e-001
2.487722e+003, 4.635961e-001
2.489650e+003, 4.637261e-001
2.491579e+003, 4.640363e-001
2.493507e+003, 4.645813e-001
2.495436e+003, 4.646087e-001
2.497364e+003, 4.641759e-001
2.499293e+003, 4.638762e-001
2.501221e+003, 4.632735e-001
2.503150e+003, 4.636198e-001
2.505078e+003, 4.644903e-001
2.507007e+003, 4.649925e-001
2.508935e+003, 4.653233e-001
2.510864e+003, 4.656549e-001
2.512792e+003, 4.659391e-001
2.514720e+003, 4.662162e-001
2.516649e+003, 4.663449e-001
2.518577e+003, 4.662511e-001
2.520506e+003, 4.660081e-001
2.522434e+003, 4.659984e-001
2.524363e+003, 4.670658e-001
2.526291e+003, 4.665772e-001
2.528220e+003, 4.651473e-001
2.530148e+003, 4.656747e-001
2.532077e+003, 4.665208e-001
2.534005e+003, 4.666586e-001
2.535934e+003, 4.667693e-001
2.537862e+003, 4.664757e-001
2.539791e+003, 4.660095e-001
2.541719e+003, 4.661225e-001
2.543647e+003, 4.669176e-001
2.545576e+003, 4.673675e-001
2.547504e+003, 4.669311e-001
2.549433e+003, 4.667073e-001
2.551361e+003, 4.675593e-001
2.553290e+003, 4.679252e-001
2.555218e+003, 4.684678e-001
2.557147e+003, 4.687746e-001
2.559075e+003, 4.680574e-001
2.561004e+003, 4.678891e-001
2.562932e+003, 4.680339e-001
2.564861e+003, 4.684285e-001
2.566789e+003, 4.687485e-001
2.568718e+003, 4.694540e-001
2.570646e+003, 4.696106e-001
2.572574e+003, 4.694778e-001
2.574503e+003, 4.695726e-001
2.576431e+003, 4.695996e-001
2.578360e+003, 4.696458e-001
2.580288e+003, 4.697624e-001
2.582217e+003, 4.697399e-001
2.584145e+003, 4.699579e-001
2.586074e+003, 4.706047e-001
2.588002e+003, 4.707366e-001
2.589931e+003, 4.708837e-001
2.591859e+003, 4.712212e-001
2.593788e+003, 4.709008e-001
2.595716e+003, 4.709246e-001
2.597645e+003, 4.707983e-001
2.599573e+003, 4.709935e-001
2.601501e+003, 4.715188e-001
2.603430e+003, 4.714512e-001
2.605358e+003, 4.713488e-001
2.607287e+003, 4.720209e-001
2.609215e+003, 4.726103e-001
2.611144e+003, 4.724439e-001
2.613072e+003, 4.724014e-001
2.615001e+003, 4.736603e-001
2.616929e+003, 4.743982e-001
2.618858e+003, 4.736130e-001
2.620786e+003, 4.734630e-001
2.622715e+003, 4.742195e-001
2.624643e+003, 4.747310e-001
2.626572e+003, 4.749293e-001
2.628500e+003, 4.742797e-001
2.630428e+003, 4.742717e-001
2.632357e+003, 4.746590e-001
2.634285e+003, 4.749071e-001
2.636214e+003, 4.747775e-001
2.638142e+003, 4.748911e-001
2.640071e+003, 4.752507e-001
2.641999e+003, 4.756271e-001
2.643928e+003, 4.764443e-001
2.645856e+003, 4.769970e-001
2.647785e+003, 4.768219e-001
2.649713e+003, 4.764109e-001
2.651642e+003, 4.766846e-001
2.653570e+003, 4.772823e-001
2.655499e+003, 4.776917e-001
2.657427e+003, 4.771515e-001
2.659355e+003, 4.765640e-001
2.661284e+003, 4.768886e-001
2.663212e+003, 4.775520e-001
2.665141e+003, 4.779150e-001
2.667069e+003, 4.781422e-001
2.668998e+003, 4.779446e-001
2.670926e+003, 4.777811e-001
2.672855e+003, 4.774197e-001
2.674783e+003, 4.769249e-001
2.676712e+003, 4.776262e-001
2.678640e+003, 4.782840e-001
2.680569e+003, 4.783207e-001
2.682497e+003, 4.788293e-001
2.684426e+003, 4.788493e-001
2.686354e+003, 4.788021e-001
2.688282e+003, 4.789659e-001
2.690211e+003, 4.795332e-001
2.692139e+003, 4.791885e-001
2.694068e+003, 4.785848e-001
2.695996e+003, 4.791262e-001
2.697925e+003, 4.796367e-001
2.699853e+003, 4.799685e-001
2.701782e+003, 4.802451e-001
2.703710e+003, 4.804107e-001
2.705639e+003, 4.802273e-001
2.707567e+003, 4.804169e-001
2.709496e+003, 4.805363e-001
2.711424e+003, 4.804624e-001
2.713353e+003, 4.803355e-001
2.715281e+003, 4.804280e-001
2.717209e+003, 4.809307e-001
2.719138e+003, 4.808331e-001
2.721066e+003, 4.803023e-001
2.722995e+003, 4.810320e-001
2.724923e+003, 4.814927e-001
2.726852e+003, 4.807582e-001
2.728780e+003, 4.808576e-001
2.730709e+003, 4.813600e-001
2.732637e+003, 4.819606e-001
2.734566e+003, 4.826859e-001
2.736494e+003, 4.827119e-001
2.738423e+003, 4.826795e-001
2.740351e+003, 4.820680e-001
2.742280e+003, 4.815069e-001
2.744208e+003, 4.815684e-001
2.746136e+003, 4.820536e-001
2.748065e+003, 4.821281e-001
2.749993e+003, 4.823001e-001
2.751922e+003, 4.831175e-001
2.753850e+003, 4.834718e-001
2.755779e+003, 4.834752e-001
2.757707e+003, 4.835790e-001
2.759636e+003, 4.838999e-001
2.761564e+003, 4.843625e-001
2.763493e+003, 4.844526e-001
2.765421e+003, 4.844458e-001
2.767350e+003, 4.842542e-001
2.769278e+003, 4.844564e-001
2.771207e+003, 4.846281e-001
2.773135e+003, 4.842978e-001
2.775063e+003, 4.843748e-001
2.776992e+003, 4.848970e-001
2.778920e+003, 4.850224e-001
2.780849e+003, 4.844721e-001
2.782777e+003, 4.845193e-001
2.784706e+003, 4.852335e-001
2.786634e+003, 4.853581e-001
2.788563e+003, 4.854181e-001
2.790491e+003, 4.860156e-001
2.792420e+003, 4.861230e-001
2.794348e+003, 4.856114e-001
2.796277e+003, 4.855239e-001
2.798205e+003, 4.860900e-001
2.800134e+003, 4.862584e-001
2.802062e+003, 4.860659e-001
2.803990e+003, 4.862687e-001
2.805919e+003, 4.869148e-001
2.807847e+003, 4.867943e-001
2.809776e+003, 4.866927e-001
2.811704e+003, 4.869409e-001
2.813633e+003, 4.873801e-001
2.815561e+003, 4.872299e-001
2.817490e+003, 4.866225e-001
2.819418e+003, 4.867468e-001
2.821347e+003, 4.873702e-001
2.823275e+003, 4.876121e-001
2.825204e+003, 4.877886e-001
2.827132e+003, 4.880766e-001
2.829061e+003, 4.884158e-001
2.830989e+003, 4.885932e-001
2.832917e+003, 4.887307e-001
2.834846e+003, 4.889222e-001
2.836774e+003, 4.890604e-001
2.838703e+003, 4.890088e-001
2.840631e+003, 4.892072e-001
2.842560e+003, 4.890245e-001
2.844488e+003, 4.889485e-001
2.846417e+003, 4.885675e-001
2.848345e+003, 4.885311e-001
2.850274e+003, 4.888875e-001
2.852202e+003, 4.890530e-001
2.854131e+003, 4.892710e-001
2.856059e+003, 4.893846e-001
2.857988e+003, 4.894084e-001
2.859916e+003, 4.896475e-001
2.861844e+003, 4.899608e-001
2.863773e+003, 4.897088e-001
2.865701e+003, 4.902197e-001
2.867630e+003, 4.899779e-001
2.869558e+003, 4.893552e-001
2.871487e+003, 4.898221e-001
2.873415e+003, 4.902575e-001
2.875344e+003, 4.905681e-001
2.877272e+003, 4.902358e-001
2.879201e+003, 4.904367e-001
2.881129e+003, 4.916596e-001
2.883058e+003, 4.921216e-001
2.884986e+003, 4.912441e-001
2.886915e+003, 4.910040e-001
2.888843e+003, 4.920636e-001
2.890771e+003, 4.921891e-001
2.892700e+003, 4.921535e-001
2.894628e+003, 4.925719e-001
2.896557e+003, 4.920646e-001
2.898485e+003, 4.912895e-001
2.900414e+003, 4.911613e-001
2.902342e+003, 4.916204e-001
2.904271e+003, 4.922294e-001
2.906199e+003, 4.935145e-001
2.908128e+003, 4.934721e-001
2.910056e+003, 4.930850e-001
2.911985e+003, 4.938990e-001
2.913913e+003, 4.938361e-001
2.915842e+003, 4.938775e-001
2.917770e+003, 4.942431e-001
2.919698e+003, 4.940324e-001
2.921627e+003, 4.943464e-001
2.923555e+003, 4.950036e-001
2.925484e+003, 4.946643e-001
2.927412e+003, 4.937157e-001
2.929341e+003, 4.927236e-001
2.931269e+003, 4.922142e-001
2.933198e+003, 4.934909e-001
2.935126e+003, 4.933842e-001
2.937055e+003, 4.929725e-001
2.938983e+003, 4.941778e-001
2.940912e+003, 4.948809e-001
2.942840e+003, 4.949425e-001
2.944769e+003, 4.947129e-001
2.946697e+003, 4.944272e-001
2.948625e+003, 4.943559e-001
2.950554e+003, 4.949574e-001
2.952482e+003, 4.949077e-001
2.954411e+003, 4.945465e-001
2.956339e+003, 4.950364e-001
2.958268e+003, 4.948389e-001
2.960196e+003, 4.946937e-001
2.962125e+003, 4.947111e-001
2.964053e+003, 4.949811e-001
2.965982e+003, 4.961629e-001
2.967910e+003, 4.964707e-001
2.969839e+003, 4.971891e-001
2.971767e+003, 4.976558e-001
2.973696e+003, 4.972054e-001
2.975624e+003, 4.972720e-001
2.977552e+003, 4.983391e-001
2.979481e+003, 4.988637e-001
2.981409e+003, 4.985565e-001
2.983338e+003, 4.979847e-001
2.985266e+003, 4.977701e-001
2.987195e+003, 4.988028e-001
2.989123e+003, 4.997969e-001
2.991052e+003, 4.994162e-001
2.992980e+003, 4.993487e-001
2.994909e+003, 4.996428e-001
2.996837e+003, 5.003231e-001
2.998766e+003, 5.003882e-001
3.000694e+003, 5.001417e-001
3.002623e+003, 5.002715e-001
3.004551e+003, 5.001993e-001
3.006479e+003, 4.999411e-001
3.008408e+003, 4.999256e-001
3.010336e+003, 5.003073e-001
3.012265e+003, 5.008152e-001
3.014193e+003, 5.017051e-001
3.016122e+003, 5.017338e-001
3.018050e+003, 5.015246e-001
3.019979e+003, 5.020036e-001
3.021907e+003, 5.027249e-001
3.023836e+003, 5.022432e-001
3.025764e+003, 5.015928e-001
3.027693e+003, 5.018038e-001
3.029621e+003, 5.024272e-001
3.031550e+003, 5.031618e-001
3.033478e+003, 5.035572e-001
3.035406e+003, 5.030321e-001
3.037335e+003, 5.030148e-001
3.039263e+003, 5.028777e-001
3.041192e+003, 5.039222e-001
3.043120e+003, 5.045443e-001
3.045049e+003, 5.048044e-001
3.046977e+003, 5.043499e-001
3.048906e+003, 5.042122e-001
3.050834e+003, 5.044295e-001
3.052763e+003, 5.045624e-001
3.054691e+003, 5.053690e-001
3.056620e+003, 5.055363e-001
3.058548e+003, 5.058178e-001
3.060477e+003, 5.063550e-001
3.062405e+003, 5.064197e-001
3.064333e+003, 5.059830e-001
3.066262e+003, 5.063211e-001
3.068190e+003, 5.070732e-001
3.070119e+003, 5.076744e-001
3.072047e+003, 5.072097e-001
3.073976e+003, 5.070780e-001
3.075904e+003, 5.069145e-001
3.077833e+003, 5.073937e-001
3.079761e+003, 5.081693e-001
3.081690e+003, 5.073782e-001
3.083618e+003, 5.074523e-001
3.085547e+003, 5.088749e-001
3.087475e+003, 5.096658e-001
3.089404e+003, 5.097576e-001
3.091332e+003, 5.094989e-001
3.093260e+003, 5.100212e-001
3.095189e+003, 5.097517e-001
3.097117e+003, 5.089917e-001
3.099046e+003, 5.102039e-001
3.100974e+003, 5.109272e-001
3.102903e+003, 5.103863e-001
3.104831e+003, 5.103667e-001
3.106760e+003, 5.109170e-001
3.108688e+003, 5.120985e-001
3.110617e+003, 5.126510e-001
3.112545e+003, 5.122966e-001
3.114474e+003, 5.123826e-001
3.116402e+003, 5.116735e-001
3.118331e+003, 5.113050e-001
3.120259e+003, 5.125378e-001
3.122188e+003, 5.141120e-001
3.124116e+003, 5.143122e-001
3.126044e+003, 5.133737e-001
3.127973e+003, 5.135201e-001
3.129901e+003, 5.143248e-001
3.131830e+003, 5.152937e-001
3.133758e+003, 5.150014e-001
3.135687e+003, 5.147053e-001
3.137615e+003, 5.156687e-001
3.139544e+003, 5.164539e-001
3.141472e+003, 5.164847e-001
3.143401e+003, 5.166920e-001
3.145329e+003, 5.167727e-001
3.147258e+003, 5.171142e-001
3.149186e+003, 5.165784e-001
3.151115e+003, 5.166151e-001
3.153043e+003, 5.175492e-001
3.154971e+003, 5.188313e-001
3.156900e+003, 5.193455e-001
3.158828e+003, 5.188720e-001
3.160757e+003, 5.193089e-001
3.162685e+003, 5.191657e-001
3.164614e+003, 5.195595e-001
3.166542e+003, 5.207255e-001
3.168471e+003, 5.211667e-001
3.170399e+003, 5.210235e-001
3.172328e+003, 5.213625e-001
3.174256e+003, 5.207732e-001
3.176185e+003, 5.200966e-001
3.178113e+003, 5.205737e-001
3.180042e+003, 5.216416e-001
3.181970e+003, 5.221760e-001
3.183898e+003, 5.220150e-001
3.185827e+003, 5.224473e-001
3.187755e+003, 5.231255e-001
3.189684e+003, 5.235907e-001
3.191612e+003, 5.231155e-001
3.193541e+003, 5.222514e-001
3.195469e+003, 5.232540e-001
3.197398e+003, 5.228780e-001
3.199326e+003, 5.221868e-001
3.201255e+003, 5.227104e-001
3.203183e+003, 5.238221e-001
3.205112e+003, 5.241013e-001
3.207040e+003, 5.241401e-001
3.208969e+003, 5.233295e-001
3.210897e+003, 5.232942e-001
3.212825e+003, 5.240215e-001
3.214754e+003, 5.245232e-001
3.216682e+003, 5.246659e-001
3.218611e+003, 5.243154e-001
3.220539e+003, 5.241048e-001
3.222468e+003, 5.246553e-001
3.224396e+003, 5.254205e-001
3.226325e+003, 5.253159e-001
3.228253e+003, 5.251461e-001
3.230182e+003, 5.254628e-001
3.232110e+003, 5.266661e-001
3.234039e+003, 5.264652e-001
3.235967e+003, 5.254692e-001
3.237896e+003, 5.260655e-001
3.239824e+003, 5.261605e-001
3.241752e+003, 5.256876e-001
3.243681e+003, 5.249624e-001
3.245609e+003, 5.257943e-001
3.247538e+003, 5.261497e-001
3.249466e+003, 5.253425e-001
3.251395e+003, 5.259261e-001
3.253323e+003, 5.257078e-001
3.255252e+003, 5.254554e-001
3.257180e+003, 5.251287e-001
3.259109e+003, 5.260054e-001
3.261037e+003, 5.267596e-001
3.262966e+003, 5.258311e-001
3.264894e+003, 5.253261e-001
3.266823e+003, 5.257934e-001
3.268751e+003, 5.253400e-001
3.270679e+003, 5.235972e-001
3.272608e+003, 5.239143e-001
3.274536e+003, 5.244016e-001
3.276465e+003, 5.234004e-001
3.278393e+003, 5.232552e-001
3.280322e+003, 5.243363e-001
3.282250e+003, 5.243835e-001
3.284179e+003, 5.235476e-001
3.286107e+003, 5.225396e-001
3.288036e+003, 5.219489e-001
3.289964e+003, 5.224113e-001
3.291893e+003, 5.222511e-001
3.293821e+003, 5.199647e-001
3.295750e+003, 5.190170e-001
3.297678e+003, 5.193971e-001
3.299606e+003, 5.179374e-001
3.301535e+003, 5.173348e-001
3.303463e+003, 5.185546e-001
3.305392e+003, 5.162597e-001
3.307320e+003, 5.138611e-001
3.309249e+003, 5.137644e-001
3.311177e+003, 5.132973e-001
3.313106e+003, 5.133283e-001
3.315034e+003, 5.136192e-001
3.316963e+003, 5.129961e-001
3.318891e+003, 5.128568e-001
3.320820e+003, 5.124009e-001
3.322748e+003, 5.108971e-001
3.324677e+003, 5.097548e-001
3.326605e+003, 5.086436e-001
3.328533e+003, 5.071818e-001
3.330462e+003, 5.055472e-001
3.332390e+003, 5.041849e-001
3.334319e+003, 5.039262e-001
3.336247e+003, 5.041828e-001
3.338176e+003, 5.040748e-001
3.340104e+003, 5.024785e-001
3.342033e+003, 5.012223e-001
3.343961e+003, 5.008216e-001
3.345890e+003, 5.005302e-001
3.347818e+003, 4.993217e-001
3.349747e+003, 4.982398e-001
3.351675e+003, 4.979476e-001
3.353604e+003, 4.975724e-001
3.355532e+003, 4.969243e-001
3.357460e+003, 4.968935e-001
3.359389e+003, 4.965768e-001
3.361317e+003, 4.951247e-001
3.363246e+003, 4.941028e-001
3.365174e+003, 4.946489e-001
3.367103e+003, 4.942332e-001
3.369031e+003, 4.938718e-001
3.370960e+003, 4.927114e-001
3.372888e+003, 4.914838e-001
3.374817e+003, 4.914868e-001
3.376745e+003, 4.925403e-001
3.378674e+003, 4.924493e-001
3.380602e+003, 4.901647e-001
3.382531e+003, 4.888389e-001
3.384459e+003, 4.896811e-001
3.386387e+003, 4.895074e-001
3.388316e+003, 4.883572e-001
3.390244e+003, 4.880922e-001
3.392173e+003, 4.878543e-001
3.394101e+003, 4.874382e-001
3.396030e+003, 4.875413e-001
3.397958e+003, 4.860859e-001
3.399887e+003, 4.852552e-001
3.401815e+003, 4.850647e-001
3.403744e+003, 4.870685e-001
3.405672e+003, 4.877816e-001
3.407601e+003, 4.859278e-001
3.409529e+003, 4.844450e-001
3.411458e+003, 4.844284e-001
3.413386e+003, 4.842332e-001
3.415314e+003, 4.834797e-001
3.417243e+003, 4.827044e-001
3.419171e+003, 4.828036e-001
3.421100e+003, 4.824949e-001
3.423028e+003, 4.817882e-001
3.424957e+003, 4.820205e-001
3.426885e+003, 4.824656e-001
3.428814e+003, 4.818423e-001
3.430742e+003, 4.804835e-001
3.432671e+003, 4.794708e-001
3.434599e+003, 4.787892e-001
3.436528e+003, 4.787908e-001
3.438456e+003, 4.795600e-001
3.440385e+003, 4.800959e-001
3.442313e+003, 4.786071e-001
3.444241e+003, 4.771603e-001
3.446170e+003, 4.765761e-001
3.448098e+003, 4.779231e-001
3.450027e+003, 4.788371e-001
3.451955e+003, 4.784829e-001
3.453884e+003, 4.778172e-001
3.455812e+003, 4.776483e-001
3.457741e+003, 4.777720e-001
3.459669e+003, 4.775001e-001
3.461598e+003, 4.764405e-001
3.463526e+003, 4.761479e-001
3.465455e+003, 4.759826e-001
3.467383e+003, 4.761589e-001
3.469312e+003, 4.763679e-001
3.471240e+003, 4.761947e-001
3.473168e+003, 4.757411e-001
3.475097e+003, 4.751185e-001
3.477025e+003, 4.749553e-001
3.478954e+003, 4.732463e-001
3.480882e+003, 4.719281e-001
3.482811e+003, 4.724032e-001
3.484739e+003, 4.730514e-001
3.486668e+003, 4.735250e-001
3.488596e+003, 4.737980e-001
3.490525e+003, 4.732382e-001
3.492453e+003, 4.726821e-001
3.494382e+003, 4.726629e-001
3.496310e+003, 4.727544e-001
3.498239e+003, 4.717675e-001
3.500167e+003, 4.707217e-001
3.502095e+003, 4.707839e-001
3.504024e+003, 4.709276e-001
3.505952e+003, 4.700446e-001
3.507881e+003, 4.699404e-001
3.509809e+003, 4.701053e-001
3.511738e+003, 4.701466e-001
3.513666e+003, 4.709282e-001
3.515595e+003, 4.712955e-001
3.517523e+003, 4.702986e-001
3.519452e+003, 4.711704e-001
3.521380e+003, 4.717090e-001
3.523309e+003, 4.701817e-001
3.525237e+003, 4.697827e-001
3.527166e+003, 4.692062e-001
3.529094e+003, 4.697752e-001
3.531022e+003, 4.707966e-001
3.532951e+003, 4.707139e-001
3.534879e+003, 4.710863e-001
3.536808e+003, 4.708827e-001
3.538736e+003, 4.694386e-001
3.540665e+003, 4.687712e-001
3.542593e+003, 4.693154e-001
3.544522e+003, 4.697277e-001
3.546450e+003, 4.703911e-001
3.548379e+003, 4.713645e-001
3.550307e+003, 4.722543e-001
3.552236e+003, 4.714787e-001
3.554164e+003, 4.717224e-001
3.556093e+003, 4.712551e-001
3.558021e+003, 4.710575e-001
3.559949e+003, 4.707338e-001
3.561878e+003, 4.688313e-001
3.563806e+003, 4.680063e-001
3.565735e+003, 4.686948e-001
3.567663e+003, 4.682454e-001
3.569592e+003, 4.685817e-001
3.571520e+003, 4.700502e-001
3.573449e+003, 4.707698e-001
3.575377e+003, 4.703859e-001
3.577306e+003, 4.689761e-001
3.579234e+003, 4.675710e-001
3.581163e+003, 4.682605e-001
3.583091e+003, 4.698027e-001
3.585020e+003, 4.708149e-001
3.586948e+003, 4.704995e-001
3.588876e+003, 4.695395e-001
3.590805e+003, 4.699575e-001
3.592733e+003, 4.696124e-001
3.594662e+003, 4.699226e-001
3.596590e+003, 4.715853e-001
3.598519e+003, 4.727303e-001
3.600447e+003, 4.724653e-001
3.602376e+003, 4.711463e-001
3.604304e+003, 4.703937e-001
3.606233e+003, 4.698097e-001
3.608161e+003, 4.713910e-001
3.610090e+003, 4.721226e-001
3.612018e+003, 4.702526e-001
3.613947e+003, 4.700940e-001
3.615875e+003, 4.709995e-001
3.617803e+003, 4.711883e-001
3.619732e+003, 4.707610e-001
3.621660e+003, 4.696174e-001
3.623589e+003, 4.693294e-001
3.625517e+003, 4.702930e-001
3.627446e+003, 4.693624e-001
3.629374e+003, 4.694636e-001
3.631303e+003, 4.711182e-001
3.633231e+003, 4.700365e-001
3.635160e+003, 4.690961e-001
3.637088e+003, 4.709358e-001
3.639017e+003, 4.717710e-001
3.640945e+003, 4.722738e-001
3.642874e+003, 4.721875e-001
3.644802e+003, 4.709313e-001
3.646730e+003, 4.710290e-001
3.648659e+003, 4.709834e-001
3.650587e+003, 4.704828e-001
3.652516e+003, 4.722729e-001
3.654444e+003, 4.736324e-001
3.656373e+003, 4.740257e-001
3.658301e+003, 4.747122e-001
3.660230e+003, 4.743343e-001
3.662158e+003, 4.733803e-001
3.664087e+003, 4.738438e-001
3.666015e+003, 4.746152e-001
3.667944e+003, 4.747374e-001
3.669872e+003, 4.743904e-001
3.671801e+003, 4.748099e-001
3.673729e+003, 4.760270e-001
3.675657e+003, 4.775068e-001
3.677586e+003, 4.766374e-001
3.679514e+003, 4.747643e-001
3.681443e+003, 4.749272e-001
3.683371e+003, 4.752660e-001
3.685300e+003, 4.755501e-001
3.687228e+003, 4.759356e-001
3.689157e+003, 4.757474e-001
3.691085e+003, 4.769064e-001
3.693014e+003, 4.760739e-001
3.694942e+003, 4.762709e-001
3.696871e+003, 4.779594e-001
3.698799e+003, 4.778120e-001
3.700728e+003, 4.763207e-001
3.702656e+003, 4.762682e-001
3.704584e+003, 4.775523e-001
3.706513e+003, 4.776286e-001
3.708441e+003, 4.760147e-001
3.710370e+003, 4.763446e-001
3.712298e+003, 4.779902e-001
3.714227e+003, 4.794406e-001
3.716155e+003, 4.788728e-001
3.718084e+003, 4.778817e-001
3.720012e+003, 4.780621e-001
3.721941e+003, 4.778363e-001
3.723869e+003, 4.786342e-001
3.725798e+003, 4.791682e-001
3.727726e+003, 4.783215e-001
3.729655e+003, 4.779998e-001
3.731583e+003, 4.791174e-001
3.733511e+003, 4.786162e-001
3.735440e+003, 4.782067e-001
3.737368e+003, 4.794420e-001
3.739297e+003, 4.820215e-001
3.741225e+003, 4.826729e-001
3.743154e+003, 4.810851e-001
3.745082e+003, 4.786618e-001
3.747011e+003, 4.793544e-001
3.748939e+003, 4.790335e-001
3.750868e+003, 4.793653e-001
3.752796e+003, 4.811209e-001
3.754725e+003, 4.807262e-001
3.756653e+003, 4.803463e-001
3.758582e+003, 4.822654e-001
3.760510e+003, 4.814170e-001
3.762438e+003, 4.809361e-001
3.764367e+003, 4.825845e-001
3.766295e+003, 4.834359e-001
3.768224e+003, 4.819809e-001
3.770152e+003, 4.816242e-001
3.772081e+003, 4.827000e-001
3.774009e+003, 4.839955e-001
3.775938e+003, 4.847473e-001
3.777866e+003, 4.845173e-001
3.779795e+003, 4.841850e-001
3.781723e+003, 4.843845e-001
3.783652e+003, 4.834087e-001
3.785580e+003, 4.844881e-001
3.787509e+003, 4.858235e-001
3.789437e+003, 4.854303e-001
3.791365e+003, 4.851109e-001
3.793294e+003, 4.834730e-001
3.795222e+003, 4.832166e-001
3.797151e+003, 4.831595e-001
3.799079e+003, 4.848110e-001
3.801008e+003, 4.857030e-001
3.802936e+003, 4.851922e-001
3.804865e+003, 4.857826e-001
3.806793e+003, 4.845634e-001
3.808722e+003, 4.851020e-001
3.810650e+003, 4.868933e-001
3.812579e+003, 4.867530e-001
3.814507e+003, 4.853357e-001
3.816436e+003, 4.852063e-001
3.818364e+003, 4.881601e-001
3.820292e+003, 4.877057e-001
3.822221e+003, 4.850869e-001
3.824149e+003, 4.865630e-001
3.826078e+003, 4.873995e-001
3.828006e+003, 4.874513e-001
3.829935e+003, 4.875475e-001
3.831863e+003, 4.866453e-001
3.833792e+003, 4.857561e-001
3.835720e+003, 4.868877e-001
3.837649e+003, 4.887750e-001
3.839577e+003, 4.877444e-001
3.841506e+003, 4.872591e-001
3.843434e+003, 4.872734e-001
3.845363e+003, 4.857981e-001
3.847291e+003, 4.860873e-001
3.849219e+003, 4.869693e-001
3.851148e+003, 4.873095e-001
3.853076e+003, 4.853298e-001
3.855005e+003, 4.847206e-001
3.856933e+003, 4.874344e-001
3.858862e+003, 4.890498e-001
3.860790e+003, 4.872925e-001
3.862719e+003, 4.869931e-001
3.864647e+003, 4.875657e-001
3.866576e+003, 4.867852e-001
3.868504e+003, 4.864868e-001
3.870433e+003, 4.857980e-001
3.872361e+003, 4.870718e-001
3.874290e+003, 4.877598e-001
3.876218e+003, 4.887944e-001
3.878146e+003, 4.893394e-001
3.880075e+003, 4.874571e-001
3.882003e+003, 4.871601e-001
3.883932e+003, 4.891603e-001
3.885860e+003, 4.885549e-001
3.887789e+003, 4.885332e-001
3.889717e+003, 4.886600e-001
3.891646e+003, 4.891295e-001
3.893574e+003, 4.891186e-001
3.895503e+003, 4.892682e-001
3.897431e+003, 4.895193e-001
3.899360e+003, 4.897778e-001
3.901288e+003, 4.907486e-001
3.903217e+003, 4.908231e-001
3.905145e+003, 4.888854e-001
3.907073e+003, 4.890475e-001
3.909002e+003, 4.896471e-001
3.910930e+003, 4.880026e-001
3.912859e+003, 4.873982e-001
3.914787e+003, 4.881408e-001
3.916716e+003, 4.884406e-001
3.918644e+003, 4.874170e-001
3.920573e+003, 4.872701e-001
3.922501e+003, 4.896916e-001
3.924430e+003, 4.928998e-001
3.926358e+003, 4.923806e-001
3.928287e+003, 4.910899e-001
3.930215e+003, 4.915641e-001
3.932144e+003, 4.921521e-001
3.934072e+003, 4.915341e-001
3.936000e+003, 4.917893e-001
3.937929e+003, 4.927042e-001
3.939857e+003, 4.916432e-001
3.941786e+003, 4.904961e-001
3.943714e+003, 4.904069e-001
3.945643e+003, 4.900238e-001
3.947571e+003, 4.916840e-001
3.949500e+003, 4.932536e-001
3.951428e+003, 4.924040e-001
3.953357e+003, 4.909908e-001
3.955285e+003, 4.925782e-001
3.957214e+003, 4.935929e-001
3.959142e+003, 4.925656e-001
3.961071e+003, 4.909407e-001
3.962999e+003, 4.910387e-001
3.964927e+003, 4.915187e-001
3.966856e+003, 4.907603e-001
3.968784e+003, 4.899771e-001
3.970713e+003, 4.918253e-001
3.972641e+003, 4.942130e-001
3.974570e+003, 4.945725e-001
3.976498e+003, 4.927981e-001
3.978427e+003, 4.902231e-001
3.980355e+003, 4.903500e-001
3.982284e+003, 4.915669e-001
3.984212e+003, 4.914802e-001
3.986141e+003, 4.925197e-001
3.988069e+003, 4.942393e-001
3.989998e+003, 4.936589e-001
3.991926e+003, 4.932727e-001
3.993854e+003, 4.940380e-001
3.995783e+003, 4.939339e-001
3.997711e+003, 4.926932e-001
3.999640e+003, 4.929318e-001
4.001568e+003, 0.000000e+000
##END=



