##NAMES=Cerussite
##RRUFFID=R050174
##IDEAL CHEMISTRY=Pb^2+^CO_3_
##LOCALITY=Tsumeb mine, Tsumeb, Otavi District, Oshikoto, Namibia
##OWNER=RRUFF
##SOURCE=Marcus Origlieri
##DESCRIPTION=Colorless single crystal
##STATUS=The identification of this mineral has been confirmed by X-ray diffraction and chemical analysis
##URL=rruff.info/R050174
##MEASURED CHEMISTRY=Pb_1.00_CO_3_ ; C not measured but estimated by difference and stoichiometry
5.014013e+001, 1.704836e-002
5.206860e+001, 2.000530e-002
5.399707e+001, 1.989493e-002
5.592553e+001, 2.499091e-002
5.785400e+001, 2.994313e-002
5.978246e+001, 3.642748e-002
6.171093e+001, 2.872179e-002
6.363940e+001, 3.014765e-002
6.556786e+001, 3.045110e-002
6.749633e+001, 2.789827e-002
6.942480e+001, 2.914918e-002
7.135326e+001, 3.304988e-002
7.328172e+001, 3.387846e-002
7.521019e+001, 3.227073e-002
7.713866e+001, 3.295479e-002
7.906712e+001, 3.496851e-002
8.099559e+001, 3.584635e-002
8.292406e+001, 3.607967e-002
8.485252e+001, 3.751495e-002
8.678099e+001, 3.802450e-002
8.870946e+001, 3.962294e-002
9.063792e+001, 4.069648e-002
9.256638e+001, 3.998836e-002
9.449485e+001, 3.885546e-002
9.642332e+001, 3.950820e-002
9.835178e+001, 4.152720e-002
1.002803e+002, 4.136452e-002
1.022087e+002, 4.159936e-002
1.041372e+002, 4.241889e-002
1.060657e+002, 4.345106e-002
1.079941e+002, 4.453524e-002
1.099226e+002, 4.505279e-002
1.118510e+002, 4.548574e-002
1.137795e+002, 4.504788e-002
1.157080e+002, 4.442050e-002
1.176364e+002, 4.513885e-002
1.195649e+002, 4.609161e-002
1.214934e+002, 4.696651e-002
1.234218e+002, 4.736901e-002
1.253503e+002, 4.827806e-002
1.272788e+002, 4.839782e-002
1.292072e+002, 4.823418e-002
1.311357e+002, 4.970189e-002
1.330642e+002, 5.053445e-002
1.349926e+002, 5.007605e-002
1.369211e+002, 4.986517e-002
1.388496e+002, 5.039588e-002
1.407780e+002, 5.073540e-002
1.427065e+002, 5.116716e-002
1.446350e+002, 5.086270e-002
1.465634e+002, 5.017269e-002
1.484919e+002, 5.067031e-002
1.504204e+002, 5.149365e-002
1.523488e+002, 5.136680e-002
1.542773e+002, 5.060960e-002
1.562058e+002, 5.051698e-002
1.581342e+002, 5.143156e-002
1.600627e+002, 5.124799e-002
1.619912e+002, 5.119535e-002
1.639196e+002, 5.104418e-002
1.658481e+002, 5.011302e-002
1.677766e+002, 4.935055e-002
1.697050e+002, 4.921475e-002
1.716335e+002, 4.841822e-002
1.735620e+002, 4.790073e-002
1.754904e+002, 4.805611e-002
1.774189e+002, 4.754299e-002
1.793474e+002, 4.689065e-002
1.812758e+002, 4.676425e-002
1.832043e+002, 4.652446e-002
1.851328e+002, 4.590475e-002
1.870612e+002, 4.574042e-002
1.889897e+002, 4.573903e-002
1.909182e+002, 4.554760e-002
1.928466e+002, 4.567377e-002
1.947751e+002, 4.535938e-002
1.967036e+002, 4.478157e-002
1.986320e+002, 4.447381e-002
2.005605e+002, 4.420690e-002
2.024890e+002, 4.377706e-002
2.044174e+002, 4.306633e-002
2.063459e+002, 4.277944e-002
2.082744e+002, 4.279666e-002
2.102028e+002, 4.185302e-002
2.121313e+002, 4.102143e-002
2.140598e+002, 4.036113e-002
2.159882e+002, 3.993554e-002
2.179167e+002, 3.942981e-002
2.198452e+002, 3.927220e-002
2.217736e+002, 3.910102e-002
2.237021e+002, 3.855184e-002
2.256305e+002, 3.803701e-002
2.275590e+002, 3.804547e-002
2.294875e+002, 3.711056e-002
2.314159e+002, 3.626627e-002
2.333444e+002, 3.584675e-002
2.352729e+002, 3.533438e-002
2.372013e+002, 3.465272e-002
2.391298e+002, 3.434574e-002
2.410583e+002, 3.363556e-002
2.429867e+002, 3.266903e-002
2.449152e+002, 3.197469e-002
2.468437e+002, 3.153371e-002
2.487721e+002, 3.048838e-002
2.507006e+002, 2.929431e-002
2.526291e+002, 2.914494e-002
2.545575e+002, 2.873936e-002
2.564860e+002, 2.732784e-002
2.584145e+002, 2.641680e-002
2.603429e+002, 2.593963e-002
2.622714e+002, 2.558940e-002
2.641999e+002, 2.503173e-002
2.661283e+002, 2.463323e-002
2.680568e+002, 2.446546e-002
2.699853e+002, 2.455564e-002
2.719137e+002, 2.417550e-002
2.738422e+002, 2.396361e-002
2.757707e+002, 2.428517e-002
2.776991e+002, 2.467594e-002
2.796276e+002, 2.443774e-002
2.815561e+002, 2.447624e-002
2.834845e+002, 2.423780e-002
2.854130e+002, 2.404792e-002
2.873415e+002, 2.428365e-002
2.892699e+002, 2.476628e-002
2.911984e+002, 2.453844e-002
2.931269e+002, 2.407983e-002
2.950553e+002, 2.400381e-002
2.969838e+002, 2.400309e-002
2.989123e+002, 2.413216e-002
3.008407e+002, 2.467105e-002
3.027692e+002, 2.510764e-002
3.046977e+002, 2.468991e-002
3.066261e+002, 2.427483e-002
3.085546e+002, 2.423157e-002
3.104831e+002, 2.395663e-002
3.124115e+002, 2.371620e-002
3.143400e+002, 2.355131e-002
3.162685e+002, 2.363610e-002
3.181969e+002, 2.365870e-002
3.201254e+002, 2.360651e-002
3.220539e+002, 2.351388e-002
3.239823e+002, 2.356840e-002
3.259108e+002, 2.353427e-002
3.278392e+002, 2.369826e-002
3.297677e+002, 2.344312e-002
3.316962e+002, 2.322530e-002
3.336246e+002, 2.328345e-002
3.355531e+002, 2.353649e-002
3.374816e+002, 2.343799e-002
3.394100e+002, 2.343086e-002
3.413385e+002, 2.356108e-002
3.432670e+002, 2.367674e-002
3.451954e+002, 2.356729e-002
3.471239e+002, 2.390102e-002
3.490524e+002, 2.434777e-002
3.509808e+002, 2.460754e-002
3.529093e+002, 2.457306e-002
3.548378e+002, 2.464742e-002
3.567662e+002, 2.486835e-002
3.586947e+002, 2.495903e-002
3.606232e+002, 2.480783e-002
3.625516e+002, 2.508851e-002
3.644801e+002, 2.503468e-002
3.664086e+002, 2.496367e-002
3.683370e+002, 2.521074e-002
3.702655e+002, 2.554059e-002
3.721940e+002, 2.551927e-002
3.741224e+002, 2.577112e-002
3.760509e+002, 2.575404e-002
3.779794e+002, 2.556602e-002
3.799078e+002, 2.547223e-002
3.818363e+002, 2.552815e-002
3.837648e+002, 2.543820e-002
3.856932e+002, 2.567501e-002
3.876217e+002, 2.576163e-002
3.895502e+002, 2.596174e-002
3.914786e+002, 2.606300e-002
3.934071e+002, 2.627533e-002
3.953356e+002, 2.654815e-002
3.972640e+002, 2.706934e-002
3.991925e+002, 2.746998e-002
4.011210e+002, 2.758279e-002
4.030494e+002, 2.743522e-002
4.049779e+002, 2.759516e-002
4.069064e+002, 2.766828e-002
4.088348e+002, 2.774703e-002
4.107633e+002, 2.794665e-002
4.126917e+002, 2.831761e-002
4.146202e+002, 2.843537e-002
4.165487e+002, 2.884222e-002
4.184771e+002, 2.943394e-002
4.204056e+002, 2.974047e-002
4.223341e+002, 2.985529e-002
4.242625e+002, 2.993318e-002
4.261910e+002, 3.015438e-002
4.281195e+002, 3.071449e-002
4.300479e+002, 3.097294e-002
4.319764e+002, 3.123254e-002
4.339049e+002, 3.154437e-002
4.358333e+002, 3.207860e-002
4.377618e+002, 3.249244e-002
4.396903e+002, 3.268803e-002
4.416187e+002, 3.279488e-002
4.435472e+002, 3.309907e-002
4.454757e+002, 3.342010e-002
4.474041e+002, 3.381694e-002
4.493326e+002, 3.404405e-002
4.512611e+002, 3.460239e-002
4.531895e+002, 3.533981e-002
4.551180e+002, 3.579264e-002
4.570465e+002, 3.630977e-002
4.589749e+002, 3.699847e-002
4.609034e+002, 3.725630e-002
4.628319e+002, 3.762070e-002
4.647603e+002, 3.827293e-002
4.666888e+002, 3.882762e-002
4.686173e+002, 3.912301e-002
4.705457e+002, 3.942109e-002
4.724742e+002, 3.970946e-002
4.744027e+002, 3.977605e-002
4.763311e+002, 3.974713e-002
4.782596e+002, 4.008651e-002
4.801881e+002, 4.019918e-002
4.821165e+002, 4.010153e-002
4.840450e+002, 4.018171e-002
4.859735e+002, 4.030916e-002
4.879019e+002, 4.028459e-002
4.898304e+002, 4.057541e-002
4.917589e+002, 4.073802e-002
4.936873e+002, 4.087572e-002
4.956158e+002, 4.121969e-002
4.975443e+002, 4.152176e-002
4.994727e+002, 4.152400e-002
5.014012e+002, 4.191798e-002
5.033297e+002, 4.249343e-002
5.052581e+002, 4.296101e-002
5.071866e+002, 4.319784e-002
5.091151e+002, 4.330916e-002
5.110435e+002, 4.351824e-002
5.129720e+002, 4.380215e-002
5.149005e+002, 4.410768e-002
5.168289e+002, 4.429219e-002
5.187574e+002, 4.475924e-002
5.206859e+002, 4.517040e-002
5.226143e+002, 4.527778e-002
5.245428e+002, 4.563271e-002
5.264713e+002, 4.582460e-002
5.283997e+002, 4.588188e-002
5.303282e+002, 4.590962e-002
5.322567e+002, 4.616521e-002
5.341851e+002, 4.632104e-002
5.361136e+002, 4.623171e-002
5.380421e+002, 4.620425e-002
5.399705e+002, 4.654439e-002
5.418990e+002, 4.672779e-002
5.438275e+002, 4.694919e-002
5.457559e+002, 4.701514e-002
5.476844e+002, 4.722606e-002
5.496129e+002, 4.740806e-002
5.515413e+002, 4.744908e-002
5.534698e+002, 4.751250e-002
5.553983e+002, 4.763681e-002
5.573267e+002, 4.792375e-002
5.592552e+002, 4.861637e-002
5.611837e+002, 4.915174e-002
5.631121e+002, 4.942993e-002
5.650406e+002, 4.993041e-002
5.669691e+002, 5.033315e-002
5.688975e+002, 5.020396e-002
5.708260e+002, 5.036839e-002
5.727545e+002, 5.075898e-002
5.746829e+002, 5.139102e-002
5.766114e+002, 5.216694e-002
5.785399e+002, 5.224055e-002
5.804683e+002, 5.218397e-002
5.823968e+002, 5.256461e-002
5.843253e+002, 5.291266e-002
5.862537e+002, 5.334750e-002
5.881822e+002, 5.349131e-002
5.901107e+002, 5.356289e-002
5.920391e+002, 5.375621e-002
5.939676e+002, 5.371200e-002
5.958961e+002, 5.342620e-002
5.978245e+002, 5.358371e-002
5.997530e+002, 5.366805e-002
6.016815e+002, 5.324378e-002
6.036099e+002, 5.274439e-002
6.055384e+002, 5.320442e-002
6.074669e+002, 5.347188e-002
6.093953e+002, 5.341660e-002
6.113238e+002, 5.388224e-002
6.132523e+002, 5.505032e-002
6.151807e+002, 5.576615e-002
6.171091e+002, 5.612289e-002
6.190376e+002, 5.677983e-002
6.209661e+002, 5.769581e-002
6.228945e+002, 5.820518e-002
6.248230e+002, 5.907079e-002
6.267515e+002, 6.119252e-002
6.286799e+002, 6.366449e-002
6.306084e+002, 6.552093e-002
6.325369e+002, 6.676826e-002
6.344653e+002, 6.747112e-002
6.363938e+002, 6.821065e-002
6.383223e+002, 6.868054e-002
6.402507e+002, 6.934726e-002
6.421792e+002, 7.055048e-002
6.441077e+002, 7.153805e-002
6.460361e+002, 7.256201e-002
6.479646e+002, 7.369293e-002
6.498931e+002, 7.452744e-002
6.518215e+002, 7.570473e-002
6.537500e+002, 7.710160e-002
6.556785e+002, 7.863073e-002
6.576069e+002, 8.052853e-002
6.595354e+002, 8.256833e-002
6.614639e+002, 8.521902e-002
6.633923e+002, 8.870955e-002
6.653208e+002, 9.249380e-002
6.672493e+002, 9.744987e-002
6.691777e+002, 1.039019e-001
6.711062e+002, 1.122802e-001
6.730347e+002, 1.241912e-001
6.749631e+002, 1.390004e-001
6.768916e+002, 1.440665e-001
6.788201e+002, 1.293250e-001
6.807485e+002, 1.012992e-001
6.826770e+002, 7.215849e-002
6.846055e+002, 5.583138e-002
6.865339e+002, 5.121255e-002
6.884624e+002, 5.072886e-002
6.903909e+002, 5.232163e-002
6.923193e+002, 5.513832e-002
6.942478e+002, 5.831380e-002
6.961763e+002, 6.070898e-002
6.981047e+002, 6.367791e-002
7.000332e+002, 6.497401e-002
##END=



