##NAMES=Cerussite
##RRUFFID=R060017
##IDEAL CHEMISTRY=Pb^2+^CO_3_
##LOCALITY=Gonessa, Sardinia, Italy
##OWNER=RRUFF
##SOURCE=American Museum of Natural History
##DESCRIPTION=White reticulated composite
##STATUS=The identification of this mineral has been confirmed by X-ray diffraction and chemical analysis
##URL=rruff.info/R060017
##MEASURED CHEMISTRY=Pb_1.00_CO_3_ C not measured but estimated by difference and stoichiometry
3.721941e+002, 0.000000e+000
3.741225e+002, 0.000000e+000
3.760510e+002, 0.000000e+000
3.779795e+002, 0.000000e+000
3.799079e+002, 0.000000e+000
3.818364e+002, 0.000000e+000
3.837649e+002, 0.000000e+000
3.856933e+002, 0.000000e+000
3.876218e+002, 0.000000e+000
3.895503e+002, 0.000000e+000
3.914787e+002, 0.000000e+000
3.934072e+002, 0.000000e+000
3.953357e+002, 0.000000e+000
3.972641e+002, 0.000000e+000
3.991926e+002, 1.324310e-002
4.011211e+002, 1.198719e-002
4.030495e+002, 1.433909e-002
4.049780e+002, 1.362504e-002
4.069065e+002, 9.974217e-003
4.088349e+002, 1.146317e-002
4.107634e+002, 1.633069e-002
4.126919e+002, 1.490672e-002
4.146203e+002, 1.255224e-002
4.165488e+002, 1.275360e-002
4.184773e+002, 1.505210e-002
4.204057e+002, 1.818989e-002
4.223342e+002, 1.752301e-002
4.242627e+002, 1.201380e-002
4.261911e+002, 9.973162e-003
4.281196e+002, 9.874042e-003
4.300481e+002, 1.226326e-002
4.319765e+002, 1.530647e-002
4.339050e+002, 1.413938e-002
4.358335e+002, 1.504968e-002
4.377619e+002, 1.512393e-002
4.396904e+002, 1.330698e-002
4.416189e+002, 1.259421e-002
4.435473e+002, 1.269039e-002
4.454758e+002, 1.388871e-002
4.474043e+002, 1.442221e-002
4.493327e+002, 1.605101e-002
4.512612e+002, 1.774811e-002
4.531897e+002, 1.703420e-002
4.551181e+002, 1.533037e-002
4.570466e+002, 1.587230e-002
4.589751e+002, 1.886266e-002
4.609035e+002, 2.021974e-002
4.628320e+002, 1.991856e-002
4.647605e+002, 1.943619e-002
4.666889e+002, 2.012497e-002
4.686174e+002, 1.877774e-002
4.705459e+002, 1.855280e-002
4.724743e+002, 1.949889e-002
4.744028e+002, 1.816162e-002
4.763313e+002, 1.765806e-002
4.782597e+002, 1.789298e-002
4.801882e+002, 1.819484e-002
4.821167e+002, 1.900454e-002
4.840451e+002, 1.765888e-002
4.859736e+002, 1.724211e-002
4.879021e+002, 1.725670e-002
4.898305e+002, 1.660705e-002
4.917590e+002, 1.587250e-002
4.936875e+002, 1.725741e-002
4.956159e+002, 1.822355e-002
4.975444e+002, 1.899662e-002
4.994729e+002, 2.019309e-002
5.014013e+002, 1.987352e-002
5.033298e+002, 1.947145e-002
5.052583e+002, 1.993918e-002
5.071867e+002, 1.997053e-002
5.091152e+002, 1.969270e-002
5.110437e+002, 1.965517e-002
5.129721e+002, 2.046129e-002
5.149006e+002, 2.141312e-002
5.168290e+002, 2.196508e-002
5.187575e+002, 2.309800e-002
5.206860e+002, 2.373414e-002
5.226144e+002, 2.291220e-002
5.245429e+002, 2.276369e-002
5.264714e+002, 2.294422e-002
5.283998e+002, 2.279414e-002
5.303283e+002, 2.279169e-002
5.322568e+002, 2.317827e-002
5.341852e+002, 2.439784e-002
5.361137e+002, 2.502462e-002
5.380422e+002, 2.406846e-002
5.399706e+002, 2.480114e-002
5.418991e+002, 2.631292e-002
5.438276e+002, 2.627998e-002
5.457560e+002, 2.559020e-002
5.476845e+002, 2.581350e-002
5.496130e+002, 2.698459e-002
5.515414e+002, 2.781064e-002
5.534699e+002, 2.754057e-002
5.553984e+002, 2.833117e-002
5.573268e+002, 2.963379e-002
5.592553e+002, 3.004366e-002
5.611838e+002, 2.921265e-002
5.631122e+002, 2.917349e-002
5.650407e+002, 2.977635e-002
5.669692e+002, 3.062339e-002
5.688976e+002, 3.042799e-002
5.708261e+002, 3.073077e-002
5.727546e+002, 3.154672e-002
5.746830e+002, 3.192960e-002
5.766115e+002, 3.239141e-002
5.785400e+002, 3.323776e-002
5.804684e+002, 3.361004e-002
5.823969e+002, 3.524337e-002
5.843254e+002, 3.523148e-002
5.862538e+002, 3.458916e-002
5.881823e+002, 3.552203e-002
5.901108e+002, 3.569138e-002
5.920392e+002, 3.608797e-002
5.939677e+002, 3.674757e-002
5.958962e+002, 3.664800e-002
5.978246e+002, 3.753399e-002
5.997531e+002, 3.898213e-002
6.016816e+002, 3.945554e-002
6.036100e+002, 3.994189e-002
6.055385e+002, 4.028781e-002
6.074670e+002, 4.128490e-002
6.093954e+002, 4.289457e-002
6.113239e+002, 4.352027e-002
6.132524e+002, 4.396935e-002
6.151808e+002, 4.521701e-002
6.171093e+002, 4.662795e-002
6.190378e+002, 4.853253e-002
6.209662e+002, 5.048414e-002
6.228947e+002, 5.164397e-002
6.248232e+002, 5.222934e-002
6.267516e+002, 5.244729e-002
6.286801e+002, 5.400443e-002
6.306086e+002, 5.652535e-002
6.325370e+002, 5.795794e-002
6.344655e+002, 5.910268e-002
6.363940e+002, 6.046353e-002
6.383224e+002, 6.217387e-002
6.402509e+002, 6.441030e-002
6.421794e+002, 6.770525e-002
6.441078e+002, 7.119286e-002
6.460363e+002, 7.430788e-002
6.479648e+002, 7.742940e-002
6.498932e+002, 8.112449e-002
6.518217e+002, 8.572032e-002
6.537502e+002, 9.170512e-002
6.556786e+002, 9.863106e-002
6.576071e+002, 1.073841e-001
6.595356e+002, 1.193029e-001
6.614641e+002, 1.351900e-001
6.633925e+002, 1.569441e-001
6.653210e+002, 1.854364e-001
6.672495e+002, 2.206665e-001
6.691779e+002, 2.698614e-001
6.711064e+002, 3.373504e-001
6.730349e+002, 4.265418e-001
6.749633e+002, 5.051591e-001
6.768918e+002, 4.551838e-001
6.788203e+002, 3.188455e-001
6.807487e+002, 1.914818e-001
6.826772e+002, 9.539533e-002
6.846057e+002, 4.546145e-002
6.865341e+002, 2.854667e-002
6.884626e+002, 2.312278e-002
6.903911e+002, 2.142470e-002
6.923195e+002, 2.119726e-002
6.942480e+002, 2.195001e-002
6.961765e+002, 2.424211e-002
6.981049e+002, 2.816149e-002
7.000334e+002, 2.807246e-002
7.019619e+002, 2.556464e-002
7.038903e+002, 2.530123e-002
7.058188e+002, 2.647540e-002
7.077473e+002, 2.768715e-002
7.096757e+002, 2.837319e-002
7.116042e+002, 2.930192e-002
7.135327e+002, 3.085766e-002
7.154611e+002, 3.239805e-002
7.173896e+002, 3.341557e-002
7.193181e+002, 3.461041e-002
7.212465e+002, 3.659694e-002
7.231750e+002, 3.821333e-002
7.251035e+002, 3.916225e-002
7.270319e+002, 3.998800e-002
7.289604e+002, 4.123690e-002
7.308889e+002, 4.251463e-002
7.328173e+002, 4.334426e-002
7.347458e+002, 4.430486e-002
7.366743e+002, 4.499804e-002
7.386027e+002, 4.474092e-002
7.405312e+002, 4.459432e-002
7.424597e+002, 4.490234e-002
7.443881e+002, 4.422190e-002
7.463166e+002, 4.410535e-002
7.482451e+002, 4.464496e-002
7.501735e+002, 4.514282e-002
7.521020e+002, 4.598436e-002
7.540305e+002, 4.661286e-002
7.559589e+002, 4.717833e-002
7.578874e+002, 4.782273e-002
7.598159e+002, 4.848312e-002
7.617443e+002, 4.928048e-002
7.636728e+002, 5.050617e-002
7.656013e+002, 5.192718e-002
7.675297e+002, 5.304818e-002
7.694582e+002, 5.398582e-002
7.713867e+002, 5.492181e-002
7.733151e+002, 5.609066e-002
7.752436e+002, 5.711286e-002
7.771721e+002, 5.802913e-002
7.791005e+002, 5.922120e-002
7.810290e+002, 6.038060e-002
7.829575e+002, 6.131110e-002
7.848859e+002, 6.222442e-002
7.868144e+002, 6.334273e-002
7.887429e+002, 6.468198e-002
7.906713e+002, 6.563620e-002
7.925998e+002, 6.668984e-002
7.945283e+002, 6.823500e-002
7.964567e+002, 6.951866e-002
7.983852e+002, 7.090545e-002
8.003137e+002, 7.260363e-002
8.022421e+002, 7.453442e-002
8.041706e+002, 7.697447e-002
8.060991e+002, 7.961977e-002
8.080275e+002, 8.281317e-002
8.099560e+002, 8.732562e-002
8.118845e+002, 9.215787e-002
8.138129e+002, 9.775913e-002
8.157414e+002, 1.055293e-001
8.176699e+002, 1.169134e-001
8.195983e+002, 1.348376e-001
8.215268e+002, 1.626758e-001
8.234553e+002, 1.806962e-001
8.253837e+002, 1.777997e-001
8.273122e+002, 1.961152e-001
8.292407e+002, 2.449591e-001
8.311691e+002, 3.119476e-001
8.330976e+002, 3.917710e-001
8.350261e+002, 4.679210e-001
8.369545e+002, 4.887480e-001
8.388830e+002, 4.163585e-001
8.408115e+002, 2.959724e-001
8.427399e+002, 1.912369e-001
8.446684e+002, 1.269832e-001
8.465969e+002, 9.612717e-002
8.485253e+002, 8.231660e-002
8.504538e+002, 7.459147e-002
8.523823e+002, 6.933515e-002
8.543107e+002, 6.696180e-002
8.562392e+002, 6.572825e-002
8.581677e+002, 6.441545e-002
8.600961e+002, 6.336152e-002
8.620246e+002, 6.319428e-002
8.639531e+002, 6.323270e-002
8.658815e+002, 6.314952e-002
8.678100e+002, 6.328104e-002
8.697385e+002, 6.448058e-002
8.716669e+002, 6.539503e-002
8.735954e+002, 6.527828e-002
8.755239e+002, 6.493473e-002
8.774523e+002, 6.495272e-002
8.793808e+002, 6.525123e-002
8.813093e+002, 6.573348e-002
8.832377e+002, 6.631644e-002
8.851662e+002, 6.629112e-002
8.870947e+002, 6.667883e-002
8.890231e+002, 6.728643e-002
8.909516e+002, 6.760908e-002
8.928801e+002, 6.823023e-002
8.948085e+002, 6.866955e-002
8.967370e+002, 6.894900e-002
8.986655e+002, 6.968949e-002
9.005939e+002, 7.035189e-002
9.025224e+002, 7.117492e-002
9.044509e+002, 7.197791e-002
9.063793e+002, 7.267568e-002
9.083078e+002, 7.355469e-002
9.102363e+002, 7.456971e-002
9.121647e+002, 7.591856e-002
9.140932e+002, 7.670745e-002
9.160217e+002, 7.714453e-002
9.179501e+002, 7.779500e-002
9.198786e+002, 7.883292e-002
9.218071e+002, 7.940412e-002
9.237355e+002, 8.065074e-002
9.256640e+002, 8.184566e-002
9.275925e+002, 8.235324e-002
9.295209e+002, 8.316316e-002
9.314494e+002, 8.458979e-002
9.333779e+002, 8.566413e-002
9.353063e+002, 8.673979e-002
9.372348e+002, 8.809681e-002
9.391633e+002, 8.931836e-002
9.410917e+002, 9.001333e-002
9.430202e+002, 9.069740e-002
9.449487e+002, 9.147708e-002
9.468771e+002, 9.291913e-002
9.488056e+002, 9.430677e-002
9.507341e+002, 9.532031e-002
9.526625e+002, 9.616093e-002
9.545910e+002, 9.738640e-002
9.565195e+002, 9.855563e-002
9.584479e+002, 9.920432e-002
9.603764e+002, 1.003813e-001
9.623049e+002, 1.013981e-001
9.642333e+002, 1.020131e-001
9.661618e+002, 1.029041e-001
9.680903e+002, 1.036795e-001
9.700187e+002, 1.046598e-001
9.719472e+002, 1.057253e-001
9.738757e+002, 1.069959e-001
9.758041e+002, 1.079946e-001
9.777326e+002, 1.093239e-001
9.796611e+002, 1.116307e-001
9.815895e+002, 1.140565e-001
9.835180e+002, 1.164863e-001
9.854465e+002, 1.187874e-001
9.873749e+002, 1.204144e-001
9.893034e+002, 1.213781e-001
9.912319e+002, 1.222276e-001
9.931603e+002, 1.227277e-001
9.950888e+002, 1.230948e-001
9.970173e+002, 1.229451e-001
9.989457e+002, 1.221212e-001
1.000874e+003, 1.219264e-001
1.002803e+003, 1.218394e-001
1.004731e+003, 1.215862e-001
1.006660e+003, 1.215837e-001
1.008588e+003, 1.219386e-001
1.010517e+003, 1.223977e-001
1.012445e+003, 1.235391e-001
1.014373e+003, 1.248823e-001
1.016302e+003, 1.261538e-001
1.018230e+003, 1.271882e-001
1.020159e+003, 1.282536e-001
1.022087e+003, 1.290930e-001
1.024016e+003, 1.310392e-001
1.025944e+003, 1.334662e-001
1.027873e+003, 1.358415e-001
1.029801e+003, 1.389994e-001
1.031730e+003, 1.407023e-001
1.033658e+003, 1.417802e-001
1.035587e+003, 1.452861e-001
1.037515e+003, 1.494115e-001
1.039443e+003, 1.548322e-001
1.041372e+003, 1.611267e-001
1.043300e+003, 1.712049e-001
1.045229e+003, 1.896435e-001
1.047157e+003, 2.314771e-001
1.049086e+003, 3.243429e-001
1.051014e+003, 3.812543e-001
1.052943e+003, 2.562124e-001
1.054871e+003, 1.525215e-001
1.056800e+003, 1.287886e-001
1.058728e+003, 1.277730e-001
1.060657e+003, 1.300559e-001
1.062585e+003, 1.324442e-001
1.064514e+003, 1.347982e-001
1.066442e+003, 1.371642e-001
1.068370e+003, 1.390679e-001
1.070299e+003, 1.406808e-001
1.072227e+003, 1.435557e-001
1.074156e+003, 1.459575e-001
1.076084e+003, 1.476093e-001
1.078013e+003, 1.496687e-001
1.079941e+003, 1.523418e-001
1.081870e+003, 1.547966e-001
1.083798e+003, 1.567918e-001
1.085727e+003, 1.590456e-001
1.087655e+003, 1.622555e-001
1.089584e+003, 1.658205e-001
1.091512e+003, 1.701071e-001
1.093441e+003, 1.740183e-001
1.095369e+003, 1.777518e-001
1.097297e+003, 1.809243e-001
1.099226e+003, 1.835272e-001
1.101154e+003, 1.866669e-001
1.103083e+003, 1.891014e-001
1.105011e+003, 1.896013e-001
1.106940e+003, 1.892372e-001
1.108868e+003, 1.884082e-001
1.110797e+003, 1.862687e-001
1.112725e+003, 1.828253e-001
1.114654e+003, 1.801535e-001
1.116582e+003, 1.784527e-001
1.118511e+003, 1.774408e-001
1.120439e+003, 1.780953e-001
1.122368e+003, 1.803058e-001
1.124296e+003, 1.825780e-001
1.126224e+003, 1.841084e-001
1.128153e+003, 1.863245e-001
1.130081e+003, 1.888723e-001
1.132010e+003, 1.911867e-001
1.133938e+003, 1.933880e-001
1.135867e+003, 1.953998e-001
1.137795e+003, 1.974912e-001
1.139724e+003, 1.992137e-001
1.141652e+003, 2.007414e-001
1.143581e+003, 2.025178e-001
1.145509e+003, 2.044231e-001
1.147438e+003, 2.064338e-001
1.149366e+003, 2.088225e-001
1.151295e+003, 2.117038e-001
1.153223e+003, 2.143729e-001
1.155151e+003, 2.161374e-001
1.157080e+003, 2.177763e-001
1.159008e+003, 2.194500e-001
1.160937e+003, 2.217644e-001
1.162865e+003, 2.243088e-001
1.164794e+003, 2.267864e-001
1.166722e+003, 2.290242e-001
1.168651e+003, 2.320639e-001
1.170579e+003, 2.356281e-001
1.172508e+003, 2.383366e-001
1.174436e+003, 2.409800e-001
1.176365e+003, 2.437054e-001
1.178293e+003, 2.461249e-001
1.180222e+003, 2.490752e-001
1.182150e+003, 2.526014e-001
1.184078e+003, 2.558933e-001
1.186007e+003, 2.593470e-001
1.187935e+003, 2.631739e-001
1.189864e+003, 2.667636e-001
1.191792e+003, 2.703373e-001
1.193721e+003, 2.741663e-001
1.195649e+003, 2.778310e-001
1.197578e+003, 2.813469e-001
1.199506e+003, 2.853098e-001
1.201435e+003, 2.892402e-001
1.203363e+003, 2.932341e-001
1.205292e+003, 2.970714e-001
1.207220e+003, 3.004430e-001
1.209149e+003, 3.039720e-001
1.211077e+003, 3.077824e-001
1.213005e+003, 3.119968e-001
1.214934e+003, 3.165633e-001
1.216862e+003, 3.209533e-001
1.218791e+003, 3.253372e-001
1.220719e+003, 3.294256e-001
1.222648e+003, 3.340282e-001
1.224576e+003, 3.391342e-001
1.226505e+003, 3.438693e-001
1.228433e+003, 3.487357e-001
1.230362e+003, 3.540686e-001
1.232290e+003, 3.593602e-001
1.234219e+003, 3.650958e-001
1.236147e+003, 3.710794e-001
1.238076e+003, 3.774766e-001
1.240004e+003, 3.839882e-001
1.241932e+003, 3.902487e-001
1.243861e+003, 3.960262e-001
1.245789e+003, 4.024556e-001
1.247718e+003, 4.094679e-001
1.249646e+003, 4.166786e-001
1.251575e+003, 4.240365e-001
1.253503e+003, 4.313810e-001
1.255432e+003, 4.389324e-001
1.257360e+003, 4.469573e-001
1.259289e+003, 4.547518e-001
1.261217e+003, 4.622688e-001
1.263146e+003, 4.707879e-001
1.265074e+003, 4.794772e-001
1.267003e+003, 4.881780e-001
1.268931e+003, 4.972111e-001
1.270859e+003, 5.053830e-001
1.272788e+003, 5.137352e-001
1.274716e+003, 5.230691e-001
1.276645e+003, 5.322315e-001
1.278573e+003, 5.405573e-001
1.280502e+003, 5.479183e-001
1.282430e+003, 5.556524e-001
1.284359e+003, 5.629964e-001
1.286287e+003, 5.709242e-001
1.288216e+003, 5.803152e-001
1.290144e+003, 5.883967e-001
1.292073e+003, 5.957522e-001
1.294001e+003, 6.040983e-001
1.295930e+003, 6.118705e-001
1.297858e+003, 6.187022e-001
1.299786e+003, 6.255413e-001
1.301715e+003, 6.322513e-001
1.303643e+003, 6.383423e-001
1.305572e+003, 6.433176e-001
1.307500e+003, 6.497503e-001
1.309429e+003, 6.558433e-001
1.311357e+003, 6.609876e-001
1.313286e+003, 6.676735e-001
1.315214e+003, 6.748908e-001
1.317143e+003, 6.822621e-001
1.319071e+003, 6.907020e-001
1.321000e+003, 6.988809e-001
1.322928e+003, 7.077180e-001
1.324857e+003, 7.180795e-001
1.326785e+003, 7.287714e-001
1.328714e+003, 7.386638e-001
1.330642e+003, 7.492025e-001
1.332570e+003, 7.613245e-001
1.334499e+003, 7.725973e-001
1.336427e+003, 7.828848e-001
1.338356e+003, 7.936035e-001
1.340284e+003, 8.063433e-001
1.342213e+003, 8.203966e-001
1.344141e+003, 8.335767e-001
1.346070e+003, 8.470812e-001
1.347998e+003, 8.614349e-001
1.349927e+003, 8.760327e-001
1.351855e+003, 8.904015e-001
1.353784e+003, 9.045141e-001
1.355712e+003, 9.176338e-001
1.357641e+003, 9.293004e-001
1.359569e+003, 9.404801e-001
1.361497e+003, 9.524306e-001
1.363426e+003, 9.631356e-001
1.365354e+003, 9.721839e-001
1.367283e+003, 9.791825e-001
1.369211e+003, 9.822726e-001
1.371140e+003, 9.834219e-001
1.373068e+003, 9.813970e-001
1.374997e+003, 9.757028e-001
1.376925e+003, 9.647898e-001
1.378854e+003, 9.488397e-001
1.380782e+003, 9.310568e-001
1.382711e+003, 9.096772e-001
1.384639e+003, 8.847939e-001
1.386568e+003, 8.594784e-001
1.388496e+003, 8.336427e-001
1.390424e+003, 8.061557e-001
1.392353e+003, 7.786703e-001
1.394281e+003, 7.510800e-001
1.396210e+003, 7.236724e-001
1.398138e+003, 6.970106e-001
1.400067e+003, 6.713067e-001
1.401995e+003, 6.473522e-001
1.403924e+003, 6.253790e-001
1.405852e+003, 6.056379e-001
1.407781e+003, 5.880568e-001
1.409709e+003, 5.731505e-001
1.411638e+003, 5.610331e-001
1.413566e+003, 5.516930e-001
1.415495e+003, 5.455482e-001
1.417423e+003, 5.411928e-001
1.419351e+003, 5.379505e-001
1.421280e+003, 5.359913e-001
1.423208e+003, 5.336277e-001
1.425137e+003, 5.304824e-001
1.427065e+003, 5.259647e-001
1.428994e+003, 5.196400e-001
1.430922e+003, 5.109086e-001
1.432851e+003, 4.996817e-001
1.434779e+003, 4.861444e-001
1.436708e+003, 4.715768e-001
1.438636e+003, 4.561962e-001
1.440565e+003, 4.398719e-001
1.442493e+003, 4.237524e-001
1.444422e+003, 4.081469e-001
1.446350e+003, 3.932636e-001
1.448278e+003, 3.792690e-001
1.450207e+003, 3.654872e-001
1.452135e+003, 3.519207e-001
1.454064e+003, 3.389711e-001
1.455992e+003, 3.265257e-001
1.457921e+003, 3.148351e-001
1.459849e+003, 3.036608e-001
1.461778e+003, 2.926382e-001
1.463706e+003, 2.819779e-001
1.465635e+003, 2.710384e-001
1.467563e+003, 2.596229e-001
1.469492e+003, 2.487310e-001
1.471420e+003, 2.389678e-001
1.473349e+003, 2.288812e-001
1.475277e+003, 2.183184e-001
1.477205e+003, 2.075068e-001
1.479134e+003, 1.972974e-001
1.481062e+003, 1.862762e-001
1.482991e+003, 1.755674e-001
1.484919e+003, 1.654293e-001
1.486848e+003, 1.555475e-001
1.488776e+003, 1.458980e-001
1.490705e+003, 1.366380e-001
1.492633e+003, 1.284022e-001
1.494562e+003, 1.206577e-001
1.496490e+003, 1.130661e-001
1.498419e+003, 1.063814e-001
1.500347e+003, 9.996006e-002
1.502276e+003, 9.381483e-002
1.504204e+003, 8.816442e-002
1.506132e+003, 8.358265e-002
1.508061e+003, 7.938004e-002
1.509989e+003, 7.504538e-002
1.511918e+003, 7.137375e-002
1.513846e+003, 6.845593e-002
1.515775e+003, 6.582815e-002
1.517703e+003, 6.335912e-002
1.519632e+003, 6.065220e-002
1.521560e+003, 5.821780e-002
1.523489e+003, 5.623574e-002
1.525417e+003, 5.442367e-002
1.527346e+003, 5.205180e-002
1.529274e+003, 5.033167e-002
1.531203e+003, 4.907496e-002
1.533131e+003, 4.764268e-002
1.535059e+003, 4.594267e-002
1.536988e+003, 4.410668e-002
1.538916e+003, 4.296865e-002
1.540845e+003, 4.163157e-002
1.542773e+003, 4.006246e-002
1.544702e+003, 3.867906e-002
1.546630e+003, 3.766790e-002
1.548559e+003, 3.668280e-002
1.550487e+003, 3.539878e-002
1.552416e+003, 3.448818e-002
1.554344e+003, 3.389896e-002
1.556273e+003, 3.297804e-002
1.558201e+003, 3.171865e-002
1.560130e+003, 3.103101e-002
1.562058e+003, 3.062749e-002
1.563986e+003, 2.997458e-002
1.565915e+003, 2.957110e-002
1.567843e+003, 2.914811e-002
1.569772e+003, 2.822223e-002
1.571700e+003, 2.699133e-002
1.573629e+003, 2.618099e-002
1.575557e+003, 2.570181e-002
1.577486e+003, 2.525207e-002
1.579414e+003, 2.469830e-002
1.581343e+003, 2.434508e-002
1.583271e+003, 2.401847e-002
1.585200e+003, 2.339920e-002
1.587128e+003, 2.252723e-002
1.589057e+003, 2.164513e-002
1.590985e+003, 2.131526e-002
1.592913e+003, 2.114744e-002
1.594842e+003, 2.087154e-002
1.596770e+003, 2.057706e-002
1.598699e+003, 2.024340e-002
1.600627e+003, 2.032351e-002
1.602556e+003, 2.028485e-002
1.604484e+003, 1.982218e-002
1.606413e+003, 1.951510e-002
1.608341e+003, 1.948723e-002
1.610270e+003, 1.905389e-002
1.612198e+003, 1.859913e-002
1.614127e+003, 1.850506e-002
1.616055e+003, 1.817276e-002
1.617984e+003, 1.791545e-002
1.619912e+003, 1.784657e-002
1.621840e+003, 1.790877e-002
1.623769e+003, 1.738298e-002
1.625697e+003, 1.682642e-002
1.627626e+003, 1.660048e-002
1.629554e+003, 1.653508e-002
1.631483e+003, 1.579784e-002
1.633411e+003, 1.547431e-002
1.635340e+003, 1.533914e-002
1.637268e+003, 1.555610e-002
1.639197e+003, 1.601606e-002
1.641125e+003, 1.545675e-002
1.643054e+003, 1.492690e-002
1.644982e+003, 1.501811e-002
1.646911e+003, 1.485769e-002
1.648839e+003, 1.474859e-002
1.650767e+003, 1.501698e-002
1.652696e+003, 1.506913e-002
1.654624e+003, 1.490411e-002
1.656553e+003, 1.488545e-002
1.658481e+003, 1.520573e-002
1.660410e+003, 1.551684e-002
1.662338e+003, 1.503467e-002
1.664267e+003, 1.448596e-002
1.666195e+003, 1.453536e-002
1.668124e+003, 1.444533e-002
1.670052e+003, 1.428677e-002
1.671981e+003, 1.408865e-002
1.673909e+003, 1.429494e-002
1.675838e+003, 1.458951e-002
1.677766e+003, 1.492903e-002
1.679694e+003, 1.535100e-002
1.681623e+003, 1.527326e-002
1.683551e+003, 1.505806e-002
1.685480e+003, 1.514886e-002
1.687408e+003, 1.589860e-002
1.689337e+003, 1.636526e-002
1.691265e+003, 1.621578e-002
1.693194e+003, 1.648031e-002
1.695122e+003, 1.686672e-002
1.697051e+003, 1.719591e-002
1.698979e+003, 1.705597e-002
1.700908e+003, 1.743156e-002
1.702836e+003, 1.801456e-002
1.704765e+003, 1.800717e-002
1.706693e+003, 1.805773e-002
1.708621e+003, 1.827099e-002
1.710550e+003, 1.876886e-002
1.712478e+003, 1.950754e-002
1.714407e+003, 2.073153e-002
1.716335e+003, 2.245753e-002
1.718264e+003, 2.421902e-002
1.720192e+003, 2.837161e-002
1.722121e+003, 3.670185e-002
1.724049e+003, 4.974661e-002
1.725978e+003, 6.304999e-002
1.727906e+003, 6.927474e-002
1.729835e+003, 6.799778e-002
1.731763e+003, 6.018854e-002
1.733692e+003, 5.046268e-002
1.735620e+003, 4.587322e-002
1.737548e+003, 4.620441e-002
1.739477e+003, 4.691813e-002
1.741405e+003, 4.466513e-002
1.743334e+003, 3.838337e-002
1.745262e+003, 3.178640e-002
1.747191e+003, 2.616436e-002
1.749119e+003, 2.196551e-002
1.751048e+003, 1.973263e-002
1.752976e+003, 1.864511e-002
1.754905e+003, 1.828500e-002
1.756833e+003, 1.814204e-002
1.758762e+003, 1.814763e-002
1.760690e+003, 1.843904e-002
1.762619e+003, 1.905967e-002
1.764547e+003, 1.946154e-002
1.766475e+003, 1.982389e-002
1.768404e+003, 2.059600e-002
1.770332e+003, 2.053200e-002
1.772261e+003, 2.038594e-002
1.774189e+003, 2.042242e-002
1.776118e+003, 2.029537e-002
1.778046e+003, 2.017317e-002
1.779975e+003, 2.006423e-002
1.781903e+003, 2.038470e-002
1.783832e+003, 2.131274e-002
1.785760e+003, 2.230038e-002
1.787689e+003, 2.270123e-002
1.789617e+003, 2.213992e-002
1.791546e+003, 2.148252e-002
1.793474e+003, 2.146875e-002
1.795402e+003, 2.195801e-002
1.797331e+003, 2.249084e-002
1.799259e+003, 2.322535e-002
1.801188e+003, 2.360328e-002
1.803116e+003, 2.291055e-002
1.805045e+003, 2.221553e-002
1.806973e+003, 2.276545e-002
1.808902e+003, 2.307349e-002
1.810830e+003, 2.291917e-002
1.812759e+003, 2.281150e-002
1.814687e+003, 2.223196e-002
1.816616e+003, 2.254571e-002
1.818544e+003, 2.347645e-002
1.820473e+003, 2.401261e-002
1.822401e+003, 2.438670e-002
1.824329e+003, 2.388336e-002
1.826258e+003, 2.305806e-002
1.828186e+003, 2.301368e-002
1.830115e+003, 2.495577e-002
1.832043e+003, 2.541239e-002
1.833972e+003, 2.492855e-002
1.835900e+003, 2.522231e-002
1.837829e+003, 2.534490e-002
1.839757e+003, 2.554570e-002
1.841686e+003, 2.570725e-002
1.843614e+003, 2.686154e-002
1.845543e+003, 2.684809e-002
1.847471e+003, 2.657110e-002
1.849400e+003, 2.625180e-002
1.851328e+003, 2.549561e-002
1.853256e+003, 2.555925e-002
1.855185e+003, 2.645378e-002
1.857113e+003, 2.706701e-002
1.859042e+003, 2.772892e-002
1.860970e+003, 2.750215e-002
1.862899e+003, 2.712503e-002
1.864827e+003, 2.803235e-002
1.866756e+003, 2.872299e-002
1.868684e+003, 2.909844e-002
1.870613e+003, 2.861051e-002
1.872541e+003, 2.837667e-002
1.874470e+003, 2.861276e-002
1.876398e+003, 2.831423e-002
1.878327e+003, 2.923207e-002
1.880255e+003, 2.947353e-002
1.882183e+003, 2.905051e-002
1.884112e+003, 2.912866e-002
1.886040e+003, 2.957516e-002
1.887969e+003, 2.902832e-002
1.889897e+003, 2.950256e-002
1.891826e+003, 3.085682e-002
1.893754e+003, 3.048503e-002
1.895683e+003, 3.013028e-002
1.897611e+003, 3.114770e-002
1.899540e+003, 3.293310e-002
1.901468e+003, 3.247773e-002
1.903397e+003, 3.243431e-002
1.905325e+003, 3.308268e-002
1.907254e+003, 3.266817e-002
1.909182e+003, 3.262034e-002
1.911110e+003, 3.433122e-002
1.913039e+003, 3.363525e-002
1.914967e+003, 3.215853e-002
1.916896e+003, 3.182084e-002
1.918824e+003, 3.053938e-002
1.920753e+003, 3.121195e-002
1.922681e+003, 3.249914e-002
1.924610e+003, 3.309761e-002
1.926538e+003, 3.320403e-002
1.928467e+003, 3.399866e-002
1.930395e+003, 3.479151e-002
1.932324e+003, 3.310252e-002
1.934252e+003, 3.218094e-002
1.936181e+003, 3.154157e-002
1.938109e+003, 3.265069e-002
1.940037e+003, 3.335831e-002
1.941966e+003, 3.107157e-002
1.943894e+003, 3.242877e-002
1.945823e+003, 3.498295e-002
1.947751e+003, 3.510641e-002
1.949680e+003, 3.546951e-002
1.951608e+003, 3.484127e-002
1.953537e+003, 3.398218e-002
1.955465e+003, 3.314585e-002
1.957394e+003, 3.504544e-002
1.959322e+003, 3.435592e-002
1.961251e+003, 3.106263e-002
1.963179e+003, 3.304484e-002
1.965108e+003, 3.320084e-002
1.967036e+003, 3.447761e-002
1.968964e+003, 3.392038e-002
1.970893e+003, 3.351981e-002
1.972821e+003, 3.554587e-002
1.974750e+003, 3.517123e-002
1.976678e+003, 3.554710e-002
1.978607e+003, 3.809853e-002
1.980535e+003, 3.823116e-002
1.982464e+003, 3.749130e-002
1.984392e+003, 3.730267e-002
1.986321e+003, 3.535269e-002
1.988249e+003, 3.333946e-002
1.990178e+003, 3.400876e-002
1.992106e+003, 3.573525e-002
1.994035e+003, 3.863564e-002
1.995963e+003, 3.950488e-002
1.997891e+003, 3.991588e-002
1.999820e+003, 3.992839e-002
2.001748e+003, 3.756321e-002
2.003677e+003, 3.893472e-002
2.005605e+003, 3.982253e-002
2.007534e+003, 3.694009e-002
2.009462e+003, 3.521785e-002
2.011391e+003, 3.659565e-002
2.013319e+003, 3.576573e-002
2.015248e+003, 4.064384e-002
2.017176e+003, 4.393933e-002
2.019105e+003, 4.002075e-002
2.021033e+003, 3.481273e-002
2.022962e+003, 3.834077e-002
2.024890e+003, 4.089011e-002
2.026818e+003, 3.959870e-002
2.028747e+003, 4.061392e-002
2.030675e+003, 4.105001e-002
2.032604e+003, 4.153701e-002
2.034532e+003, 4.364394e-002
2.036461e+003, 4.339838e-002
2.038389e+003, 4.257666e-002
2.040318e+003, 4.168422e-002
2.042246e+003, 4.120437e-002
2.044175e+003, 4.662671e-002
2.046103e+003, 5.012379e-002
2.048031e+003, 4.723363e-002
2.049960e+003, 4.453076e-002
2.051888e+003, 4.365797e-002
2.053817e+003, 4.366254e-002
2.055745e+003, 4.429173e-002
2.057674e+003, 4.463260e-002
2.059602e+003, 4.450522e-002
2.061531e+003, 4.380423e-002
2.063459e+003, 4.470239e-002
2.065388e+003, 4.625954e-002
2.067316e+003, 4.594982e-002
2.069245e+003, 4.403460e-002
2.071173e+003, 4.398677e-002
2.073102e+003, 4.446705e-002
2.075030e+003, 4.828598e-002
2.076958e+003, 5.079549e-002
2.078887e+003, 4.963459e-002
2.080815e+003, 4.664784e-002
2.082744e+003, 4.569806e-002
2.084672e+003, 4.674485e-002
2.086601e+003, 4.560534e-002
2.088529e+003, 4.472490e-002
2.090458e+003, 4.466899e-002
2.092386e+003, 4.499302e-002
2.094315e+003, 4.543788e-002
2.096243e+003, 4.715022e-002
2.098172e+003, 4.898638e-002
2.100100e+003, 4.732742e-002
2.102029e+003, 4.602039e-002
2.103957e+003, 4.457754e-002
2.105885e+003, 4.516072e-002
2.107814e+003, 4.730111e-002
2.109742e+003, 4.631515e-002
2.111671e+003, 4.570978e-002
2.113599e+003, 4.814272e-002
2.115528e+003, 4.960162e-002
2.117456e+003, 4.941619e-002
2.119385e+003, 4.821752e-002
2.121313e+003, 4.859306e-002
2.123242e+003, 5.186498e-002
2.125170e+003, 5.253861e-002
2.127099e+003, 4.861176e-002
2.129027e+003, 4.665058e-002
2.130956e+003, 4.530854e-002
2.132884e+003, 4.368686e-002
2.134813e+003, 4.409631e-002
2.136741e+003, 4.536738e-002
2.138669e+003, 4.587003e-002
2.140598e+003, 4.872652e-002
2.142526e+003, 5.100687e-002
2.144455e+003, 4.798204e-002
2.146383e+003, 4.955659e-002
2.148312e+003, 5.002948e-002
2.150240e+003, 4.821104e-002
2.152169e+003, 4.671623e-002
2.154097e+003, 4.872547e-002
2.156026e+003, 4.905941e-002
2.157954e+003, 4.867691e-002
2.159883e+003, 5.290547e-002
2.161811e+003, 5.281940e-002
2.163740e+003, 5.034995e-002
2.165668e+003, 5.180737e-002
2.167596e+003, 5.609152e-002
2.169525e+003, 5.378773e-002
2.171453e+003, 5.052095e-002
2.173382e+003, 4.994492e-002
2.175310e+003, 5.057746e-002
2.177239e+003, 5.384830e-002
2.179167e+003, 5.528211e-002
2.181096e+003, 5.519283e-002
2.183024e+003, 5.757196e-002
2.184953e+003, 5.433136e-002
2.186881e+003, 5.338579e-002
2.188810e+003, 5.577218e-002
2.190738e+003, 5.453149e-002
2.192667e+003, 5.537420e-002
2.194595e+003, 5.372642e-002
2.196523e+003, 5.195954e-002
2.198452e+003, 5.140051e-002
2.200380e+003, 5.249279e-002
2.202309e+003, 5.428290e-002
2.204237e+003, 5.455927e-002
2.206166e+003, 5.461667e-002
2.208094e+003, 5.265858e-002
2.210023e+003, 5.481682e-002
2.211951e+003, 5.482578e-002
2.213880e+003, 5.592929e-002
2.215808e+003, 5.819949e-002
2.217737e+003, 5.741186e-002
2.219665e+003, 5.409143e-002
2.221594e+003, 5.252421e-002
2.223522e+003, 5.266697e-002
2.225450e+003, 5.747351e-002
2.227379e+003, 6.159917e-002
2.229307e+003, 6.139739e-002
2.231236e+003, 5.965927e-002
2.233164e+003, 5.946142e-002
2.235093e+003, 5.940585e-002
2.237021e+003, 5.894102e-002
2.238950e+003, 5.751789e-002
2.240878e+003, 5.740162e-002
2.242807e+003, 5.928314e-002
2.244735e+003, 6.051156e-002
2.246664e+003, 6.091902e-002
2.248592e+003, 6.010600e-002
2.250521e+003, 5.913619e-002
2.252449e+003, 6.005029e-002
2.254377e+003, 6.083087e-002
2.256306e+003, 6.127533e-002
2.258234e+003, 5.983058e-002
2.260163e+003, 5.898047e-002
2.262091e+003, 5.972048e-002
2.264020e+003, 5.976940e-002
2.265948e+003, 6.252004e-002
2.267877e+003, 6.091074e-002
2.269805e+003, 5.989496e-002
2.271734e+003, 6.111307e-002
2.273662e+003, 6.290331e-002
2.275591e+003, 6.369722e-002
2.277519e+003, 6.478857e-002
2.279448e+003, 6.408281e-002
2.281376e+003, 6.392898e-002
2.283304e+003, 6.376282e-002
2.285233e+003, 6.326750e-002
2.287161e+003, 6.445209e-002
2.289090e+003, 6.559207e-002
2.291018e+003, 6.562220e-002
2.292947e+003, 6.403542e-002
2.294875e+003, 6.341533e-002
2.296804e+003, 6.415919e-002
2.298732e+003, 6.406321e-002
2.300661e+003, 6.449962e-002
2.302589e+003, 6.586227e-002
2.304518e+003, 6.584958e-002
2.306446e+003, 6.552922e-002
2.308375e+003, 6.586323e-002
2.310303e+003, 6.540730e-002
2.312231e+003, 6.648885e-002
2.314160e+003, 6.666090e-002
2.316088e+003, 6.667627e-002
2.318017e+003, 6.744102e-002
2.319945e+003, 6.863659e-002
2.321874e+003, 7.018153e-002
2.323802e+003, 7.079947e-002
2.325731e+003, 7.010596e-002
2.327659e+003, 6.893953e-002
2.329588e+003, 6.833899e-002
2.331516e+003, 6.879899e-002
2.333445e+003, 6.929258e-002
2.335373e+003, 6.964122e-002
2.337302e+003, 6.903783e-002
2.339230e+003, 6.908219e-002
2.341158e+003, 7.027654e-002
2.343087e+003, 7.163405e-002
2.345015e+003, 7.155397e-002
2.346944e+003, 7.103485e-002
2.348872e+003, 7.133190e-002
2.350801e+003, 7.230857e-002
2.352729e+003, 7.211129e-002
2.354658e+003, 7.153411e-002
2.356586e+003, 7.310392e-002
2.358515e+003, 7.348517e-002
2.360443e+003, 7.271170e-002
2.362372e+003, 7.338764e-002
2.364300e+003, 7.372224e-002
2.366229e+003, 7.383166e-002
2.368157e+003, 7.441874e-002
2.370085e+003, 7.392719e-002
2.372014e+003, 7.472365e-002
2.373942e+003, 7.607338e-002
2.375871e+003, 7.596509e-002
2.377799e+003, 7.623225e-002
2.379728e+003, 7.723587e-002
2.381656e+003, 7.803762e-002
2.383585e+003, 7.841733e-002
2.385513e+003, 7.882725e-002
2.387442e+003, 7.929625e-002
2.389370e+003, 8.053813e-002
2.391299e+003, 8.321172e-002
2.393227e+003, 8.536773e-002
2.395156e+003, 8.600814e-002
2.397084e+003, 8.840596e-002
2.399012e+003, 9.121949e-002
2.400941e+003, 9.312589e-002
2.402869e+003, 9.430330e-002
2.404798e+003, 9.560020e-002
2.406726e+003, 9.666282e-002
2.408655e+003, 9.689926e-002
2.410583e+003, 9.702363e-002
2.412512e+003, 9.539541e-002
2.414440e+003, 9.370731e-002
2.416369e+003, 9.155109e-002
2.418297e+003, 8.848364e-002
2.420226e+003, 8.661933e-002
2.422154e+003, 8.568121e-002
2.424083e+003, 8.457061e-002
2.426011e+003, 8.206832e-002
2.427939e+003, 8.016217e-002
2.429868e+003, 8.063127e-002
2.431796e+003, 7.913630e-002
2.433725e+003, 7.771491e-002
2.435653e+003, 7.638771e-002
2.437582e+003, 7.664720e-002
2.439510e+003, 7.780647e-002
2.441439e+003, 7.671221e-002
2.443367e+003, 7.496466e-002
2.445296e+003, 7.641913e-002
2.447224e+003, 7.725171e-002
2.449153e+003, 7.609694e-002
2.451081e+003, 7.677755e-002
2.453010e+003, 7.752839e-002
2.454938e+003, 7.770386e-002
2.456866e+003, 7.633792e-002
2.458795e+003, 7.477529e-002
2.460723e+003, 7.470304e-002
2.462652e+003, 7.495411e-002
2.464580e+003, 7.446463e-002
2.466509e+003, 7.515005e-002
2.468437e+003, 7.697975e-002
2.470366e+003, 7.761496e-002
2.472294e+003, 7.662187e-002
2.474223e+003, 7.631200e-002
2.476151e+003, 7.601921e-002
2.478080e+003, 7.637066e-002
2.480008e+003, 7.722671e-002
2.481937e+003, 7.569712e-002
2.483865e+003, 7.553020e-002
2.485793e+003, 7.551906e-002
2.487722e+003, 7.598330e-002
2.489650e+003, 7.601265e-002
2.491579e+003, 7.531816e-002
2.493507e+003, 7.554282e-002
2.495436e+003, 7.558722e-002
2.497364e+003, 7.602838e-002
2.499293e+003, 7.802600e-002
2.501221e+003, 7.809467e-002
2.503150e+003, 7.668447e-002
2.505078e+003, 7.464655e-002
2.507007e+003, 7.497620e-002
2.508935e+003, 7.502052e-002
2.510864e+003, 7.423726e-002
2.512792e+003, 7.379965e-002
2.514720e+003, 7.511326e-002
2.516649e+003, 7.723449e-002
2.518577e+003, 7.727864e-002
2.520506e+003, 7.707343e-002
2.522434e+003, 7.670330e-002
2.524363e+003, 7.602792e-002
2.526291e+003, 7.587438e-002
2.528220e+003, 7.533747e-002
2.530148e+003, 7.595895e-002
2.532077e+003, 7.647400e-002
2.534005e+003, 7.566293e-002
2.535934e+003, 7.632939e-002
2.537862e+003, 7.652939e-002
2.539791e+003, 7.710598e-002
2.541719e+003, 7.727038e-002
2.543647e+003, 7.724956e-002
2.545576e+003, 7.538005e-002
2.547504e+003, 7.387720e-002
2.549433e+003, 7.549120e-002
2.551361e+003, 7.688563e-002
2.553290e+003, 7.602083e-002
2.555218e+003, 7.492522e-002
2.557147e+003, 7.593397e-002
2.559075e+003, 7.707056e-002
2.561004e+003, 7.625014e-002
2.562932e+003, 7.544363e-002
2.564861e+003, 7.605556e-002
2.566789e+003, 7.708503e-002
2.568718e+003, 7.575521e-002
2.570646e+003, 7.575119e-002
2.572574e+003, 7.761105e-002
2.574503e+003, 7.807384e-002
2.576431e+003, 7.718261e-002
2.578360e+003, 7.593250e-002
2.580288e+003, 7.568704e-002
2.582217e+003, 7.671808e-002
2.584145e+003, 7.767169e-002
2.586074e+003, 7.670332e-002
2.588002e+003, 7.665511e-002
2.589931e+003, 7.686081e-002
2.591859e+003, 7.595827e-002
2.593788e+003, 7.651332e-002
2.595716e+003, 7.857567e-002
2.597645e+003, 7.883340e-002
2.599573e+003, 7.815341e-002
2.601501e+003, 7.892152e-002
2.603430e+003, 7.941108e-002
2.605358e+003, 7.969301e-002
2.607287e+003, 7.984869e-002
2.609215e+003, 8.103538e-002
2.611144e+003, 8.113263e-002
2.613072e+003, 8.142266e-002
2.615001e+003, 8.088629e-002
2.616929e+003, 8.030022e-002
2.618858e+003, 7.943764e-002
2.620786e+003, 8.071049e-002
2.622715e+003, 8.277134e-002
2.624643e+003, 8.279956e-002
2.626572e+003, 8.220362e-002
2.628500e+003, 8.215661e-002
2.630428e+003, 8.263452e-002
2.632357e+003, 8.263011e-002
2.634285e+003, 8.232366e-002
2.636214e+003, 8.278226e-002
2.638142e+003, 8.286537e-002
2.640071e+003, 8.290207e-002
2.641999e+003, 8.325796e-002
2.643928e+003, 8.284398e-002
2.645856e+003, 8.354259e-002
2.647785e+003, 8.460032e-002
2.649713e+003, 8.423026e-002
2.651642e+003, 8.476829e-002
2.653570e+003, 8.557301e-002
2.655499e+003, 8.548082e-002
2.657427e+003, 8.552688e-002
2.659355e+003, 8.468421e-002
2.661284e+003, 8.484259e-002
2.663212e+003, 8.592311e-002
2.665141e+003, 8.554731e-002
2.667069e+003, 8.481146e-002
2.668998e+003, 8.514105e-002
2.670926e+003, 8.651892e-002
2.672855e+003, 8.619586e-002
2.674783e+003, 8.613138e-002
2.676712e+003, 8.623685e-002
2.678640e+003, 8.655069e-002
2.680569e+003, 8.674006e-002
2.682497e+003, 8.728403e-002
2.684426e+003, 8.740287e-002
2.686354e+003, 8.691970e-002
2.688282e+003, 8.678097e-002
2.690211e+003, 8.741342e-002
2.692139e+003, 8.833946e-002
2.694068e+003, 8.796797e-002
2.695996e+003, 8.884239e-002
2.697925e+003, 9.002189e-002
2.699853e+003, 9.011108e-002
2.701782e+003, 8.972136e-002
2.703710e+003, 8.965534e-002
2.705639e+003, 8.926488e-002
2.707567e+003, 8.886912e-002
2.709496e+003, 8.946826e-002
2.711424e+003, 9.035349e-002
2.713353e+003, 9.171363e-002
2.715281e+003, 9.267278e-002
2.717209e+003, 9.286376e-002
2.719138e+003, 9.321529e-002
2.721066e+003, 9.328325e-002
2.722995e+003, 9.392495e-002
2.724923e+003, 9.434422e-002
2.726852e+003, 9.504719e-002
2.728780e+003, 9.569404e-002
2.730709e+003, 9.524427e-002
2.732637e+003, 9.553653e-002
2.734566e+003, 9.701508e-002
2.736494e+003, 9.709777e-002
2.738423e+003, 9.650788e-002
2.740351e+003, 9.689899e-002
2.742280e+003, 9.769543e-002
2.744208e+003, 9.766514e-002
2.746136e+003, 9.733061e-002
2.748065e+003, 9.688937e-002
2.749993e+003, 9.685112e-002
2.751922e+003, 9.651784e-002
2.753850e+003, 9.591310e-002
2.755779e+003, 9.646228e-002
2.757707e+003, 9.665002e-002
2.759636e+003, 9.663703e-002
2.761564e+003, 9.681545e-002
2.763493e+003, 9.654284e-002
2.765421e+003, 9.633496e-002
2.767350e+003, 9.635972e-002
2.769278e+003, 9.737976e-002
2.771207e+003, 9.865990e-002
2.773135e+003, 9.797897e-002
2.775063e+003, 9.754542e-002
2.776992e+003, 9.825899e-002
2.778920e+003, 9.838885e-002
2.780849e+003, 9.829780e-002
2.782777e+003, 9.823014e-002
2.784706e+003, 9.819514e-002
2.786634e+003, 9.868872e-002
2.788563e+003, 9.871040e-002
2.790491e+003, 9.846292e-002
2.792420e+003, 9.879122e-002
2.794348e+003, 9.992374e-002
2.796277e+003, 1.001233e-001
2.798205e+003, 9.928813e-002
2.800134e+003, 9.853046e-002
2.802062e+003, 9.849171e-002
2.803990e+003, 9.904527e-002
2.805919e+003, 9.823844e-002
2.807847e+003, 9.808360e-002
2.809776e+003, 9.920871e-002
2.811704e+003, 1.000557e-001
2.813633e+003, 1.000829e-001
2.815561e+003, 9.941320e-002
2.817490e+003, 9.907611e-002
2.819418e+003, 9.868573e-002
2.821347e+003, 9.804526e-002
2.823275e+003, 9.720471e-002
2.825204e+003, 9.641048e-002
2.827132e+003, 9.756152e-002
2.829061e+003, 9.850089e-002
2.830989e+003, 9.884115e-002
2.832917e+003, 9.904256e-002
2.834846e+003, 9.729971e-002
2.836774e+003, 9.736539e-002
2.838703e+003, 9.953713e-002
2.840631e+003, 9.978852e-002
2.842560e+003, 9.885845e-002
2.844488e+003, 9.826741e-002
2.846417e+003, 9.752120e-002
2.848345e+003, 9.749619e-002
2.850274e+003, 9.852649e-002
2.852202e+003, 9.844211e-002
2.854131e+003, 9.766997e-002
2.856059e+003, 9.808505e-002
2.857988e+003, 9.847099e-002
2.859916e+003, 9.845711e-002
2.861844e+003, 9.862205e-002
2.863773e+003, 9.920060e-002
2.865701e+003, 9.939625e-002
2.867630e+003, 9.903056e-002
2.869558e+003, 9.858796e-002
2.871487e+003, 9.854868e-002
2.873415e+003, 9.768984e-002
2.875344e+003, 9.793375e-002
2.877272e+003, 9.908126e-002
2.879201e+003, 1.003475e-001
2.881129e+003, 1.011868e-001
2.883058e+003, 1.000738e-001
2.884986e+003, 9.777974e-002
2.886915e+003, 9.780911e-002
2.888843e+003, 9.913957e-002
2.890771e+003, 9.963954e-002
2.892700e+003, 1.010767e-001
2.894628e+003, 1.010471e-001
2.896557e+003, 1.004895e-001
2.898485e+003, 1.007007e-001
2.900414e+003, 1.006757e-001
2.902342e+003, 1.018130e-001
2.904271e+003, 1.034145e-001
2.906199e+003, 1.042186e-001
2.908128e+003, 1.032891e-001
2.910056e+003, 1.033455e-001
2.911985e+003, 1.041007e-001
2.913913e+003, 1.040061e-001
2.915842e+003, 1.037009e-001
2.917770e+003, 1.034293e-001
2.919698e+003, 1.026266e-001
2.921627e+003, 1.030135e-001
2.923555e+003, 1.046469e-001
2.925484e+003, 1.055647e-001
2.927412e+003, 1.061792e-001
2.929341e+003, 1.072559e-001
2.931269e+003, 1.072205e-001
2.933198e+003, 1.062617e-001
2.935126e+003, 1.063267e-001
2.937055e+003, 1.062397e-001
2.938983e+003, 1.047563e-001
2.940912e+003, 1.054500e-001
2.942840e+003, 1.070074e-001
2.944769e+003, 1.068805e-001
2.946697e+003, 1.066819e-001
2.948625e+003, 1.081532e-001
2.950554e+003, 1.080510e-001
2.952482e+003, 1.071847e-001
2.954411e+003, 1.092714e-001
2.956339e+003, 1.100422e-001
2.958268e+003, 1.085221e-001
2.960196e+003, 1.080800e-001
2.962125e+003, 1.087898e-001
2.964053e+003, 1.087879e-001
2.965982e+003, 1.095850e-001
2.967910e+003, 1.101489e-001
2.969839e+003, 1.092809e-001
2.971767e+003, 1.078554e-001
2.973696e+003, 1.067405e-001
2.975624e+003, 1.064479e-001
2.977552e+003, 1.069488e-001
2.979481e+003, 1.072208e-001
2.981409e+003, 1.069503e-001
2.983338e+003, 1.068284e-001
2.985266e+003, 1.073807e-001
2.987195e+003, 1.080035e-001
2.989123e+003, 1.077151e-001
2.991052e+003, 1.085600e-001
2.992980e+003, 1.087089e-001
2.994909e+003, 1.093634e-001
2.996837e+003, 1.101920e-001
2.998766e+003, 1.104077e-001
3.000694e+003, 1.107612e-001
3.002623e+003, 1.094922e-001
3.004551e+003, 1.082487e-001
3.006479e+003, 1.085600e-001
3.008408e+003, 1.087420e-001
3.010336e+003, 1.087392e-001
3.012265e+003, 1.088914e-001
3.014193e+003, 1.096749e-001
3.016122e+003, 1.094312e-001
3.018050e+003, 1.098214e-001
3.019979e+003, 1.108826e-001
3.021907e+003, 1.117404e-001
3.023836e+003, 1.119309e-001
3.025764e+003, 1.135474e-001
3.027693e+003, 1.146156e-001
3.029621e+003, 1.137448e-001
3.031550e+003, 1.123227e-001
3.033478e+003, 1.127167e-001
3.035406e+003, 1.142864e-001
3.037335e+003, 1.146436e-001
3.039263e+003, 1.139854e-001
3.041192e+003, 1.135625e-001
3.043120e+003, 1.131294e-001
3.045049e+003, 1.120090e-001
3.046977e+003, 1.136662e-001
3.048906e+003, 1.173885e-001
3.050834e+003, 1.172044e-001
3.052763e+003, 1.152141e-001
3.054691e+003, 1.146464e-001
3.056620e+003, 1.149237e-001
3.058548e+003, 1.162423e-001
3.060477e+003, 1.164975e-001
3.062405e+003, 1.149339e-001
3.064333e+003, 1.152967e-001
3.066262e+003, 1.179200e-001
3.068190e+003, 1.189132e-001
3.070119e+003, 1.168329e-001
3.072047e+003, 1.166554e-001
3.073976e+003, 1.171901e-001
3.075904e+003, 1.166144e-001
3.077833e+003, 1.175443e-001
3.079761e+003, 1.189761e-001
3.081690e+003, 1.181438e-001
3.083618e+003, 1.168933e-001
3.085547e+003, 1.175662e-001
3.087475e+003, 1.175977e-001
3.089404e+003, 1.157799e-001
3.091332e+003, 1.164862e-001
3.093260e+003, 1.200107e-001
3.095189e+003, 1.196332e-001
3.097117e+003, 1.183916e-001
3.099046e+003, 1.186857e-001
3.100974e+003, 1.182081e-001
3.102903e+003, 1.205717e-001
3.104831e+003, 1.207641e-001
3.106760e+003, 1.196103e-001
3.108688e+003, 1.197522e-001
3.110617e+003, 1.212861e-001
3.112545e+003, 1.209550e-001
3.114474e+003, 1.201044e-001
3.116402e+003, 1.203023e-001
3.118331e+003, 1.205691e-001
3.120259e+003, 1.210982e-001
3.122188e+003, 1.214160e-001
3.124116e+003, 1.223226e-001
3.126044e+003, 1.217469e-001
3.127973e+003, 1.209278e-001
3.129901e+003, 1.218951e-001
3.131830e+003, 1.225946e-001
3.133758e+003, 1.229528e-001
3.135687e+003, 1.234282e-001
3.137615e+003, 1.235285e-001
3.139544e+003, 1.226583e-001
3.141472e+003, 1.224958e-001
3.143401e+003, 1.225575e-001
3.145329e+003, 1.221779e-001
3.147258e+003, 1.216288e-001
3.149186e+003, 1.212665e-001
3.151115e+003, 1.229747e-001
3.153043e+003, 1.244707e-001
3.154971e+003, 1.236513e-001
3.156900e+003, 1.223843e-001
3.158828e+003, 1.224049e-001
3.160757e+003, 1.235295e-001
3.162685e+003, 1.252916e-001
3.164614e+003, 1.249959e-001
3.166542e+003, 1.250693e-001
3.168471e+003, 1.253894e-001
3.170399e+003, 1.270685e-001
3.172328e+003, 1.257219e-001
3.174256e+003, 1.249378e-001
3.176185e+003, 1.267673e-001
3.178113e+003, 1.281194e-001
3.180042e+003, 1.293877e-001
3.181970e+003, 1.304475e-001
3.183898e+003, 1.302050e-001
3.185827e+003, 1.296050e-001
3.187755e+003, 1.275468e-001
3.189684e+003, 1.277218e-001
3.191612e+003, 1.282385e-001
3.193541e+003, 1.271920e-001
3.195469e+003, 1.287572e-001
3.197398e+003, 1.280634e-001
3.199326e+003, 1.251029e-001
3.201255e+003, 1.275173e-001
3.203183e+003, 1.310130e-001
3.205112e+003, 1.316999e-001
3.207040e+003, 1.310487e-001
3.208969e+003, 1.312956e-001
3.210897e+003, 1.320839e-001
3.212825e+003, 1.309291e-001
3.214754e+003, 1.290100e-001
3.216682e+003, 1.274401e-001
3.218611e+003, 1.277490e-001
3.220539e+003, 1.280553e-001
3.222468e+003, 1.289558e-001
3.224396e+003, 1.293333e-001
3.226325e+003, 1.289939e-001
3.228253e+003, 1.303317e-001
3.230182e+003, 1.317057e-001
3.232110e+003, 1.317226e-001
3.234039e+003, 1.303266e-001
3.235967e+003, 1.283520e-001
3.237896e+003, 1.279721e-001
3.239824e+003, 1.288531e-001
3.241752e+003, 1.295069e-001
3.243681e+003, 1.297598e-001
3.245609e+003, 1.288642e-001
3.247538e+003, 1.301593e-001
3.249466e+003, 1.332826e-001
3.251395e+003, 1.315491e-001
3.253323e+003, 1.289311e-001
3.255252e+003, 1.292988e-001
3.257180e+003, 1.312904e-001
3.259109e+003, 1.320443e-001
3.261037e+003, 1.327490e-001
3.262966e+003, 1.326006e-001
3.264894e+003, 1.320227e-001
3.266823e+003, 1.320522e-001
3.268751e+003, 1.305147e-001
3.270679e+003, 1.309932e-001
3.272608e+003, 1.308221e-001
3.274536e+003, 1.315149e-001
3.276465e+003, 1.318814e-001
3.278393e+003, 1.321254e-001
3.280322e+003, 1.325455e-001
3.282250e+003, 1.325662e-001
3.284179e+003, 1.338657e-001
3.286107e+003, 1.356199e-001
3.288036e+003, 1.348726e-001
3.289964e+003, 1.324140e-001
3.291893e+003, 1.305139e-001
3.293821e+003, 1.321426e-001
3.295750e+003, 1.357627e-001
3.297678e+003, 1.362674e-001
3.299606e+003, 1.352789e-001
3.301535e+003, 1.349555e-001
3.303463e+003, 1.345474e-001
3.305392e+003, 1.341351e-001
3.307320e+003, 1.341773e-001
3.309249e+003, 1.328595e-001
3.311177e+003, 1.331401e-001
3.313106e+003, 1.356166e-001
3.315034e+003, 1.380766e-001
3.316963e+003, 1.362284e-001
3.318891e+003, 1.357802e-001
3.320820e+003, 1.378912e-001
3.322748e+003, 1.371533e-001
3.324677e+003, 1.369550e-001
3.326605e+003, 1.362861e-001
3.328533e+003, 1.351043e-001
3.330462e+003, 1.352742e-001
3.332390e+003, 1.355440e-001
3.334319e+003, 1.359665e-001
3.336247e+003, 1.366489e-001
3.338176e+003, 1.367746e-001
3.340104e+003, 1.357107e-001
3.342033e+003, 1.373406e-001
3.343961e+003, 1.385390e-001
3.345890e+003, 1.381181e-001
3.347818e+003, 1.368247e-001
3.349747e+003, 1.350987e-001
3.351675e+003, 1.362992e-001
3.353604e+003, 1.374190e-001
3.355532e+003, 1.365275e-001
3.357460e+003, 1.381487e-001
3.359389e+003, 1.392006e-001
3.361317e+003, 1.371367e-001
3.363246e+003, 1.371941e-001
3.365174e+003, 1.378294e-001
3.367103e+003, 1.356830e-001
3.369031e+003, 1.346598e-001
3.370960e+003, 1.345766e-001
3.372888e+003, 1.342853e-001
3.374817e+003, 1.352873e-001
3.376745e+003, 1.361991e-001
3.378674e+003, 1.379453e-001
3.380602e+003, 1.394146e-001
3.382531e+003, 1.408186e-001
3.384459e+003, 1.416869e-001
3.386387e+003, 1.396924e-001
3.388316e+003, 1.401069e-001
3.390244e+003, 1.402446e-001
3.392173e+003, 1.397189e-001
3.394101e+003, 1.404887e-001
3.396030e+003, 1.382410e-001
3.397958e+003, 1.351527e-001
3.399887e+003, 1.373277e-001
3.401815e+003, 1.409403e-001
3.403744e+003, 1.435267e-001
3.405672e+003, 1.433788e-001
3.407601e+003, 1.409713e-001
3.409529e+003, 1.417185e-001
3.411458e+003, 1.417591e-001
3.413386e+003, 1.411926e-001
3.415314e+003, 1.431471e-001
3.417243e+003, 1.433530e-001
3.419171e+003, 1.426501e-001
3.421100e+003, 1.438422e-001
3.423028e+003, 1.451742e-001
3.424957e+003, 1.429113e-001
3.426885e+003, 1.397536e-001
3.428814e+003, 1.400788e-001
3.430742e+003, 1.409031e-001
3.432671e+003, 1.406884e-001
3.434599e+003, 1.393202e-001
3.436528e+003, 1.364285e-001
3.438456e+003, 1.376069e-001
3.440385e+003, 1.417953e-001
3.442313e+003, 1.422839e-001
3.444241e+003, 1.412199e-001
3.446170e+003, 1.394801e-001
3.448098e+003, 1.386470e-001
3.450027e+003, 1.399422e-001
3.451955e+003, 1.416971e-001
3.453884e+003, 1.410247e-001
3.455812e+003, 1.376394e-001
3.457741e+003, 1.350531e-001
3.459669e+003, 1.373657e-001
3.461598e+003, 1.394968e-001
3.463526e+003, 1.397680e-001
3.465455e+003, 1.410567e-001
3.467383e+003, 1.422725e-001
3.469312e+003, 1.426442e-001
3.471240e+003, 1.428658e-001
3.473168e+003, 1.427573e-001
3.475097e+003, 1.422748e-001
3.477025e+003, 1.440202e-001
3.478954e+003, 1.458926e-001
3.480882e+003, 1.443952e-001
3.482811e+003, 1.456210e-001
3.484739e+003, 1.466205e-001
3.486668e+003, 1.433761e-001
3.488596e+003, 1.444722e-001
3.490525e+003, 1.462091e-001
3.492453e+003, 1.447363e-001
3.494382e+003, 1.419222e-001
3.496310e+003, 1.393332e-001
3.498239e+003, 1.418594e-001
3.500167e+003, 1.417214e-001
3.502095e+003, 1.395547e-001
3.504024e+003, 1.420872e-001
3.505952e+003, 1.445127e-001
3.507881e+003, 1.440680e-001
3.509809e+003, 1.431412e-001
3.511738e+003, 1.430828e-001
3.513666e+003, 1.447326e-001
3.515595e+003, 1.460696e-001
3.517523e+003, 1.459207e-001
3.519452e+003, 1.456891e-001
3.521380e+003, 1.447800e-001
3.523309e+003, 1.425779e-001
3.525237e+003, 1.428784e-001
3.527166e+003, 1.457439e-001
3.529094e+003, 1.472453e-001
3.531022e+003, 1.460127e-001
3.532951e+003, 1.448131e-001
3.534879e+003, 1.444925e-001
3.536808e+003, 1.449977e-001
3.538736e+003, 1.473173e-001
3.540665e+003, 1.482269e-001
3.542593e+003, 1.481189e-001
3.544522e+003, 1.448290e-001
3.546450e+003, 1.414632e-001
3.548379e+003, 1.423127e-001
3.550307e+003, 1.441816e-001
3.552236e+003, 1.439522e-001
3.554164e+003, 1.464875e-001
3.556093e+003, 1.487613e-001
3.558021e+003, 1.477150e-001
3.559949e+003, 1.468500e-001
3.561878e+003, 1.476161e-001
3.563806e+003, 1.468674e-001
3.565735e+003, 1.459469e-001
3.567663e+003, 1.452553e-001
3.569592e+003, 1.450565e-001
3.571520e+003, 1.460302e-001
3.573449e+003, 1.477688e-001
3.575377e+003, 1.478450e-001
3.577306e+003, 1.462873e-001
3.579234e+003, 1.461986e-001
3.581163e+003, 1.469623e-001
3.583091e+003, 1.478557e-001
3.585020e+003, 1.478372e-001
3.586948e+003, 1.447480e-001
3.588876e+003, 1.444990e-001
3.590805e+003, 1.461049e-001
3.592733e+003, 1.467815e-001
3.594662e+003, 1.471300e-001
3.596590e+003, 1.444173e-001
3.598519e+003, 1.437788e-001
3.600447e+003, 1.470755e-001
3.602376e+003, 1.497529e-001
3.604304e+003, 1.525427e-001
3.606233e+003, 1.522159e-001
3.608161e+003, 1.506364e-001
3.610090e+003, 1.501207e-001
3.612018e+003, 1.479990e-001
3.613947e+003, 1.501748e-001
3.615875e+003, 1.533774e-001
3.617803e+003, 1.492822e-001
3.619732e+003, 1.448292e-001
3.621660e+003, 1.462799e-001
3.623589e+003, 1.477010e-001
3.625517e+003, 1.477352e-001
3.627446e+003, 1.470026e-001
3.629374e+003, 1.501250e-001
3.631303e+003, 1.507217e-001
3.633231e+003, 1.499403e-001
3.635160e+003, 1.506756e-001
3.637088e+003, 1.531790e-001
3.639017e+003, 1.531356e-001
3.640945e+003, 1.506616e-001
3.642874e+003, 1.471935e-001
3.644802e+003, 1.456558e-001
3.646730e+003, 1.451246e-001
3.648659e+003, 1.471472e-001
3.650587e+003, 1.513605e-001
3.652516e+003, 1.498404e-001
3.654444e+003, 1.485796e-001
3.656373e+003, 1.505480e-001
3.658301e+003, 1.537745e-001
3.660230e+003, 1.560028e-001
3.662158e+003, 1.566601e-001
3.664087e+003, 1.522240e-001
3.666015e+003, 1.482707e-001
3.667944e+003, 1.504003e-001
3.669872e+003, 1.543028e-001
3.671801e+003, 1.520991e-001
3.673729e+003, 1.492881e-001
3.675657e+003, 1.459743e-001
3.677586e+003, 1.437474e-001
3.679514e+003, 1.452201e-001
3.681443e+003, 1.504508e-001
3.683371e+003, 1.549270e-001
3.685300e+003, 1.526886e-001
3.687228e+003, 1.506383e-001
3.689157e+003, 1.538527e-001
3.691085e+003, 1.562753e-001
3.693014e+003, 1.530090e-001
3.694942e+003, 1.496132e-001
3.696871e+003, 1.483022e-001
3.698799e+003, 1.517646e-001
3.700728e+003, 1.555374e-001
3.702656e+003, 1.556216e-001
3.704584e+003, 1.544288e-001
3.706513e+003, 1.536206e-001
3.708441e+003, 1.515167e-001
3.710370e+003, 1.541122e-001
3.712298e+003, 1.594599e-001
3.714227e+003, 1.578586e-001
3.716155e+003, 1.540623e-001
3.718084e+003, 1.523443e-001
3.720012e+003, 1.518531e-001
3.721941e+003, 1.547800e-001
3.723869e+003, 1.536712e-001
3.725798e+003, 1.532438e-001
3.727726e+003, 1.528551e-001
3.729655e+003, 1.538386e-001
3.731583e+003, 1.558248e-001
3.733511e+003, 1.553285e-001
3.735440e+003, 1.551875e-001
3.737368e+003, 1.551743e-001
3.739297e+003, 1.559828e-001
3.741225e+003, 1.569576e-001
3.743154e+003, 1.564968e-001
3.745082e+003, 1.565543e-001
3.747011e+003, 1.546237e-001
3.748939e+003, 1.556763e-001
3.750868e+003, 1.585351e-001
3.752796e+003, 1.571398e-001
3.754725e+003, 1.574222e-001
3.756653e+003, 1.573644e-001
3.758582e+003, 1.587035e-001
3.760510e+003, 1.575059e-001
3.762438e+003, 1.583805e-001
3.764367e+003, 1.582098e-001
3.766295e+003, 1.584998e-001
3.768224e+003, 1.567729e-001
3.770152e+003, 1.531202e-001
3.772081e+003, 1.548812e-001
3.774009e+003, 1.570810e-001
3.775938e+003, 1.565590e-001
3.777866e+003, 1.546022e-001
3.779795e+003, 1.548629e-001
3.781723e+003, 1.570946e-001
3.783652e+003, 1.576169e-001
3.785580e+003, 1.590667e-001
3.787509e+003, 1.583428e-001
3.789437e+003, 1.585698e-001
3.791365e+003, 1.608118e-001
3.793294e+003, 1.597846e-001
3.795222e+003, 1.589588e-001
3.797151e+003, 1.608652e-001
3.799079e+003, 1.588930e-001
3.801008e+003, 1.575533e-001
3.802936e+003, 1.589110e-001
3.804865e+003, 1.627637e-001
3.806793e+003, 1.624945e-001
3.808722e+003, 1.601462e-001
3.810650e+003, 1.577250e-001
3.812579e+003, 1.551103e-001
3.814507e+003, 1.581856e-001
3.816436e+003, 1.601710e-001
3.818364e+003, 1.579063e-001
3.820292e+003, 1.586671e-001
3.822221e+003, 1.612048e-001
3.824149e+003, 1.573828e-001
3.826078e+003, 1.560065e-001
3.828006e+003, 1.568068e-001
3.829935e+003, 1.555541e-001
3.831863e+003, 1.554649e-001
3.833792e+003, 1.579539e-001
3.835720e+003, 1.592535e-001
3.837649e+003, 1.591875e-001
3.839577e+003, 1.611482e-001
3.841506e+003, 1.619551e-001
3.843434e+003, 1.602625e-001
3.845363e+003, 1.606240e-001
3.847291e+003, 1.598603e-001
3.849219e+003, 1.598775e-001
3.851148e+003, 1.604770e-001
3.853076e+003, 1.611168e-001
3.855005e+003, 1.581417e-001
3.856933e+003, 1.560227e-001
3.858862e+003, 1.555896e-001
3.860790e+003, 1.569632e-001
3.862719e+003, 1.612183e-001
3.864647e+003, 1.612664e-001
3.866576e+003, 1.603311e-001
3.868504e+003, 1.601020e-001
3.870433e+003, 1.601031e-001
3.872361e+003, 1.618249e-001
3.874290e+003, 1.642679e-001
3.876218e+003, 1.624891e-001
3.878146e+003, 1.629960e-001
3.880075e+003, 1.622819e-001
3.882003e+003, 1.616595e-001
3.883932e+003, 1.619504e-001
3.885860e+003, 1.602048e-001
3.887789e+003, 1.620603e-001
3.889717e+003, 1.614351e-001
3.891646e+003, 1.593309e-001
3.893574e+003, 1.593993e-001
3.895503e+003, 1.600208e-001
3.897431e+003, 1.614224e-001
3.899360e+003, 1.621038e-001
3.901288e+003, 1.595489e-001
3.903217e+003, 1.594917e-001
3.905145e+003, 1.624954e-001
3.907073e+003, 1.647424e-001
3.909002e+003, 1.640122e-001
3.910930e+003, 1.675953e-001
3.912859e+003, 1.673230e-001
3.914787e+003, 1.653590e-001
3.916716e+003, 1.637215e-001
3.918644e+003, 1.616563e-001
3.920573e+003, 1.628096e-001
3.922501e+003, 1.663443e-001
3.924430e+003, 1.660866e-001
3.926358e+003, 1.649525e-001
3.928287e+003, 1.625975e-001
3.930215e+003, 1.627321e-001
3.932144e+003, 1.676320e-001
3.934072e+003, 1.670997e-001
3.936000e+003, 1.649392e-001
3.937929e+003, 1.676789e-001
3.939857e+003, 1.658596e-001
3.941786e+003, 1.618760e-001
3.943714e+003, 1.641706e-001
3.945643e+003, 1.669587e-001
3.947571e+003, 1.656805e-001
3.949500e+003, 1.634823e-001
3.951428e+003, 1.651310e-001
3.953357e+003, 1.658637e-001
3.955285e+003, 1.653448e-001
3.957214e+003, 1.670643e-001
3.959142e+003, 1.716426e-001
3.961071e+003, 1.710789e-001
3.962999e+003, 1.663111e-001
3.964927e+003, 1.647547e-001
3.966856e+003, 1.660976e-001
3.968784e+003, 1.636810e-001
3.970713e+003, 1.616014e-001
3.972641e+003, 1.641630e-001
3.974570e+003, 1.645372e-001
3.976498e+003, 1.649563e-001
3.978427e+003, 1.637674e-001
3.980355e+003, 1.622749e-001
3.982284e+003, 1.673442e-001
3.984212e+003, 1.689504e-001
3.986141e+003, 1.653317e-001
3.988069e+003, 1.629876e-001
3.989998e+003, 1.641664e-001
3.991926e+003, 1.672548e-001
3.993854e+003, 1.672264e-001
3.995783e+003, 1.672927e-001
3.997711e+003, 1.683150e-001
3.999640e+003, 1.693381e-001
4.001568e+003, 0.000000e+000
##END=



