##NAMES=Cerussite
##RRUFFID=R050011
##IDEAL CHEMISTRY=Pb^2+^CO_3_
##LOCALITY=Daoping Lead and Zinc mine, Gongcheng, Guangxi, China
##OWNER=RRUFF
##SOURCE=Eugene Schlepp
##DESCRIPTION=Colorless hexagonal bipyramidal crystals
##STATUS=The identification of this mineral has been confirmed by X-ray diffraction and chemical analysis
##URL=rruff.info/R050011
##MEASURED CHEMISTRY=Pb_1.00_CO_3_ ; CO_2_ not measured but estimated by difference and stoichiometry
3.991926e+002, 0.000000e+000
4.011211e+002, 1.226061e-002
4.030496e+002, 1.235448e-002
4.049780e+002, 1.177569e-002
4.069065e+002, 1.273669e-002
4.088350e+002, 1.159023e-002
4.107634e+002, 1.030781e-002
4.126919e+002, 1.078669e-002
4.146204e+002, 1.296649e-002
4.165488e+002, 1.307617e-002
4.184773e+002, 1.254265e-002
4.204058e+002, 1.374333e-002
4.223342e+002, 1.441457e-002
4.242627e+002, 1.518677e-002
4.261912e+002, 1.516158e-002
4.281196e+002, 1.454040e-002
4.300481e+002, 1.468436e-002
4.319766e+002, 1.382809e-002
4.339050e+002, 1.373717e-002
4.358335e+002, 1.372838e-002
4.377620e+002, 1.383678e-002
4.396904e+002, 1.450709e-002
4.416189e+002, 1.539872e-002
4.435474e+002, 1.488777e-002
4.454758e+002, 1.407447e-002
4.474043e+002, 1.388483e-002
4.493328e+002, 1.496456e-002
4.512612e+002, 1.600030e-002
4.531897e+002, 1.644269e-002
4.551182e+002, 1.664675e-002
4.570466e+002, 1.688652e-002
4.589751e+002, 1.745607e-002
4.609036e+002, 1.739804e-002
4.628320e+002, 1.688936e-002
4.647605e+002, 1.701030e-002
4.666890e+002, 1.712587e-002
4.686174e+002, 1.765102e-002
4.705459e+002, 1.791091e-002
4.724744e+002, 1.777305e-002
4.744028e+002, 1.821639e-002
4.763313e+002, 1.849203e-002
4.782598e+002, 1.895451e-002
4.801882e+002, 1.914206e-002
4.821167e+002, 1.861650e-002
4.840452e+002, 1.910643e-002
4.859736e+002, 2.007230e-002
4.879021e+002, 2.050771e-002
4.898306e+002, 2.060807e-002
4.917590e+002, 2.103759e-002
4.936875e+002, 2.191420e-002
4.956160e+002, 2.223358e-002
4.975444e+002, 2.222165e-002
4.994729e+002, 2.234078e-002
5.014014e+002, 2.278331e-002
5.033298e+002, 2.271372e-002
5.052583e+002, 2.340405e-002
5.071868e+002, 2.400452e-002
5.091152e+002, 2.420605e-002
5.110437e+002, 2.533810e-002
5.129722e+002, 2.594355e-002
5.149006e+002, 2.571806e-002
5.168291e+002, 2.623681e-002
5.187576e+002, 2.657022e-002
5.206860e+002, 2.674359e-002
5.226145e+002, 2.709034e-002
5.245430e+002, 2.812048e-002
5.264714e+002, 2.931405e-002
5.283999e+002, 2.985565e-002
5.303284e+002, 2.956260e-002
5.322568e+002, 2.953004e-002
5.341853e+002, 3.039344e-002
5.361138e+002, 3.047545e-002
5.380422e+002, 3.035267e-002
5.399707e+002, 3.061558e-002
5.418992e+002, 3.136934e-002
5.438276e+002, 3.220918e-002
5.457561e+002, 3.291616e-002
5.476846e+002, 3.343190e-002
5.496130e+002, 3.370234e-002
5.515415e+002, 3.412154e-002
5.534700e+002, 3.466477e-002
5.553984e+002, 3.503219e-002
5.573269e+002, 3.550334e-002
5.592554e+002, 3.659966e-002
5.611838e+002, 3.754996e-002
5.631123e+002, 3.765154e-002
5.650408e+002, 3.805105e-002
5.669692e+002, 3.893211e-002
5.688977e+002, 3.964904e-002
5.708262e+002, 4.007564e-002
5.727546e+002, 4.066425e-002
5.746831e+002, 4.130481e-002
5.766116e+002, 4.196182e-002
5.785400e+002, 4.252821e-002
5.804685e+002, 4.285973e-002
5.823970e+002, 4.349684e-002
5.843254e+002, 4.376819e-002
5.862539e+002, 4.401328e-002
5.881824e+002, 4.500037e-002
5.901108e+002, 4.578108e-002
5.920393e+002, 4.597859e-002
5.939678e+002, 4.624532e-002
5.958962e+002, 4.690474e-002
5.978247e+002, 4.764319e-002
5.997532e+002, 4.856782e-002
6.016816e+002, 4.913871e-002
6.036101e+002, 4.951285e-002
6.055386e+002, 5.044968e-002
6.074670e+002, 5.169459e-002
6.093955e+002, 5.282559e-002
6.113240e+002, 5.366896e-002
6.132524e+002, 5.455016e-002
6.151809e+002, 5.612024e-002
6.171094e+002, 5.755818e-002
6.190378e+002, 5.847219e-002
6.209663e+002, 5.942250e-002
6.228948e+002, 6.060744e-002
6.248232e+002, 6.193750e-002
6.267517e+002, 6.335488e-002
6.286802e+002, 6.471979e-002
6.306086e+002, 6.598699e-002
6.325371e+002, 6.729586e-002
6.344656e+002, 6.864175e-002
6.363940e+002, 7.055324e-002
6.383225e+002, 7.258368e-002
6.402510e+002, 7.449446e-002
6.421794e+002, 7.680735e-002
6.441079e+002, 7.975872e-002
6.460364e+002, 8.259729e-002
6.479648e+002, 8.563262e-002
6.498933e+002, 8.871363e-002
6.518218e+002, 9.223132e-002
6.537502e+002, 9.692043e-002
6.556787e+002, 1.024431e-001
6.576072e+002, 1.090008e-001
6.595356e+002, 1.175872e-001
6.614641e+002, 1.284027e-001
6.633926e+002, 1.419621e-001
6.653210e+002, 1.590410e-001
6.672495e+002, 1.797279e-001
6.691780e+002, 2.077873e-001
6.711064e+002, 2.455326e-001
6.730349e+002, 2.956155e-001
6.749634e+002, 3.442949e-001
6.768918e+002, 3.283856e-001
6.788203e+002, 2.456086e-001
6.807488e+002, 1.525029e-001
6.826772e+002, 7.730882e-002
6.846057e+002, 3.774019e-002
6.865342e+002, 2.479162e-002
6.884626e+002, 2.106829e-002
6.903911e+002, 2.036106e-002
6.923196e+002, 2.123028e-002
6.942480e+002, 2.294594e-002
6.961765e+002, 2.569503e-002
6.981050e+002, 2.979665e-002
7.000334e+002, 3.045365e-002
7.019619e+002, 2.894293e-002
7.038904e+002, 2.945814e-002
7.058188e+002, 3.093549e-002
7.077473e+002, 3.283181e-002
7.096758e+002, 3.459477e-002
7.116042e+002, 3.617040e-002
7.135327e+002, 3.774122e-002
7.154612e+002, 3.950608e-002
7.173896e+002, 4.121218e-002
7.193181e+002, 4.283998e-002
7.212466e+002, 4.456958e-002
7.231750e+002, 4.593226e-002
7.251035e+002, 4.694530e-002
7.270320e+002, 4.815052e-002
7.289604e+002, 4.938569e-002
7.308889e+002, 5.043836e-002
7.328174e+002, 5.136024e-002
7.347458e+002, 5.206799e-002
7.366743e+002, 5.248242e-002
7.386028e+002, 5.289192e-002
7.405313e+002, 5.308419e-002
7.424597e+002, 5.330027e-002
7.443882e+002, 5.378722e-002
7.463167e+002, 5.421758e-002
7.482451e+002, 5.483232e-002
7.501736e+002, 5.553578e-002
7.521021e+002, 5.637548e-002
7.540305e+002, 5.742698e-002
7.559590e+002, 5.835668e-002
7.578875e+002, 5.944308e-002
7.598159e+002, 6.048819e-002
7.617444e+002, 6.148932e-002
7.636729e+002, 6.255662e-002
7.656013e+002, 6.381439e-002
7.675298e+002, 6.509421e-002
7.694583e+002, 6.608854e-002
7.713867e+002, 6.730834e-002
7.733152e+002, 6.881516e-002
7.752437e+002, 7.022996e-002
7.771721e+002, 7.151891e-002
7.791006e+002, 7.254590e-002
7.810291e+002, 7.358254e-002
7.829575e+002, 7.466255e-002
7.848860e+002, 7.570283e-002
7.868145e+002, 7.672503e-002
7.887429e+002, 7.761092e-002
7.906714e+002, 7.863062e-002
7.925999e+002, 8.000863e-002
7.945283e+002, 8.130378e-002
7.964568e+002, 8.253709e-002
7.983853e+002, 8.420618e-002
8.003137e+002, 8.622459e-002
8.022422e+002, 8.830197e-002
8.041707e+002, 9.051199e-002
8.060991e+002, 9.347281e-002
8.080276e+002, 9.691712e-002
8.099561e+002, 1.007547e-001
8.118845e+002, 1.051148e-001
8.138130e+002, 1.103475e-001
8.157415e+002, 1.169088e-001
8.176699e+002, 1.257107e-001
8.195984e+002, 1.388685e-001
8.215269e+002, 1.571319e-001
8.234553e+002, 1.674964e-001
8.253838e+002, 1.669839e-001
8.273123e+002, 1.800149e-001
8.292407e+002, 2.091778e-001
8.311692e+002, 2.463371e-001
8.330977e+002, 2.889468e-001
8.350261e+002, 3.304787e-001
8.369546e+002, 3.450819e-001
8.388831e+002, 3.078999e-001
8.408115e+002, 2.342731e-001
8.427400e+002, 1.624861e-001
8.446685e+002, 1.158360e-001
8.465969e+002, 9.329543e-002
8.485254e+002, 8.312289e-002
8.504539e+002, 7.821204e-002
8.523823e+002, 7.579228e-002
8.543108e+002, 7.423960e-002
8.562393e+002, 7.325079e-002
8.581677e+002, 7.304259e-002
8.600962e+002, 7.321459e-002
8.620247e+002, 7.347642e-002
8.639531e+002, 7.380547e-002
8.658816e+002, 7.428297e-002
8.678101e+002, 7.505205e-002
8.697385e+002, 7.620012e-002
8.716670e+002, 7.698721e-002
8.735955e+002, 7.697806e-002
8.755239e+002, 7.755521e-002
8.774524e+002, 7.828306e-002
8.793809e+002, 7.864466e-002
8.813093e+002, 7.879703e-002
8.832378e+002, 7.906877e-002
8.851663e+002, 7.949093e-002
8.870947e+002, 7.984102e-002
8.890232e+002, 8.028524e-002
8.909517e+002, 8.080155e-002
8.928801e+002, 8.134644e-002
8.948085e+002, 8.186909e-002
8.967370e+002, 8.232009e-002
8.986655e+002, 8.305460e-002
9.005939e+002, 8.396112e-002
9.025224e+002, 8.448815e-002
9.044509e+002, 8.502704e-002
9.063793e+002, 8.587725e-002
9.083078e+002, 8.656141e-002
9.102363e+002, 8.730352e-002
9.121647e+002, 8.804025e-002
9.140932e+002, 8.883700e-002
9.160217e+002, 8.999141e-002
9.179501e+002, 9.089965e-002
9.198786e+002, 9.167521e-002
9.218071e+002, 9.228703e-002
9.237355e+002, 9.304437e-002
9.256640e+002, 9.405043e-002
9.275925e+002, 9.514738e-002
9.295209e+002, 9.620002e-002
9.314494e+002, 9.707347e-002
9.333779e+002, 9.793717e-002
9.353063e+002, 9.888784e-002
9.372348e+002, 9.949763e-002
9.391633e+002, 1.002540e-001
9.410917e+002, 1.012964e-001
9.430202e+002, 1.022567e-001
9.449487e+002, 1.030560e-001
9.468771e+002, 1.038501e-001
9.488056e+002, 1.045982e-001
9.507341e+002, 1.055331e-001
9.526625e+002, 1.063019e-001
9.545910e+002, 1.072839e-001
9.565195e+002, 1.084944e-001
9.584479e+002, 1.093023e-001
9.603764e+002, 1.097466e-001
9.623049e+002, 1.103984e-001
9.642333e+002, 1.112565e-001
9.661618e+002, 1.119866e-001
9.680903e+002, 1.126724e-001
9.700187e+002, 1.132269e-001
9.719472e+002, 1.139270e-001
9.738757e+002, 1.148087e-001
9.758041e+002, 1.157194e-001
9.777326e+002, 1.170294e-001
9.796611e+002, 1.183469e-001
9.815895e+002, 1.199028e-001
9.835180e+002, 1.216262e-001
9.854465e+002, 1.234790e-001
9.873749e+002, 1.252177e-001
9.893034e+002, 1.261759e-001
9.912319e+002, 1.265165e-001
9.931603e+002, 1.270156e-001
9.950888e+002, 1.272737e-001
9.970173e+002, 1.274337e-001
9.989457e+002, 1.272213e-001
1.000874e+003, 1.270370e-001
1.002803e+003, 1.271409e-001
1.004731e+003, 1.271806e-001
1.006660e+003, 1.272559e-001
1.008588e+003, 1.276240e-001
1.010517e+003, 1.281363e-001
1.012445e+003, 1.289967e-001
1.014373e+003, 1.299069e-001
1.016302e+003, 1.312079e-001
1.018230e+003, 1.323528e-001
1.020159e+003, 1.336318e-001
1.022087e+003, 1.346979e-001
1.024016e+003, 1.359211e-001
1.025944e+003, 1.375700e-001
1.027873e+003, 1.397912e-001
1.029801e+003, 1.420854e-001
1.031730e+003, 1.436002e-001
1.033658e+003, 1.447235e-001
1.035587e+003, 1.469937e-001
1.037515e+003, 1.499438e-001
1.039444e+003, 1.540026e-001
1.041372e+003, 1.589902e-001
1.043301e+003, 1.669090e-001
1.045229e+003, 1.803162e-001
1.047157e+003, 2.083766e-001
1.049086e+003, 2.664866e-001
1.051014e+003, 2.978055e-001
1.052943e+003, 2.170365e-001
1.054871e+003, 1.471567e-001
1.056800e+003, 1.316143e-001
1.058728e+003, 1.316146e-001
1.060657e+003, 1.334954e-001
1.062585e+003, 1.355900e-001
1.064514e+003, 1.381659e-001
1.066442e+003, 1.400908e-001
1.068371e+003, 1.421267e-001
1.070299e+003, 1.439580e-001
1.072228e+003, 1.458214e-001
1.074156e+003, 1.474319e-001
1.076084e+003, 1.492257e-001
1.078013e+003, 1.510059e-001
1.079941e+003, 1.527326e-001
1.081870e+003, 1.543531e-001
1.083798e+003, 1.562518e-001
1.085727e+003, 1.583029e-001
1.087655e+003, 1.606754e-001
1.089584e+003, 1.631229e-001
1.091512e+003, 1.658290e-001
1.093441e+003, 1.683073e-001
1.095369e+003, 1.705541e-001
1.097298e+003, 1.722697e-001
1.099226e+003, 1.737141e-001
1.101155e+003, 1.754875e-001
1.103083e+003, 1.774268e-001
1.105011e+003, 1.780823e-001
1.106940e+003, 1.778583e-001
1.108868e+003, 1.770203e-001
1.110797e+003, 1.757247e-001
1.112725e+003, 1.740399e-001
1.114654e+003, 1.727113e-001
1.116582e+003, 1.719186e-001
1.118511e+003, 1.720896e-001
1.120439e+003, 1.731661e-001
1.122368e+003, 1.746510e-001
1.124296e+003, 1.763778e-001
1.126225e+003, 1.781043e-001
1.128153e+003, 1.797121e-001
1.130082e+003, 1.813151e-001
1.132010e+003, 1.828198e-001
1.133938e+003, 1.844677e-001
1.135867e+003, 1.860695e-001
1.137795e+003, 1.874328e-001
1.139724e+003, 1.888326e-001
1.141652e+003, 1.902084e-001
1.143581e+003, 1.915593e-001
1.145509e+003, 1.930183e-001
1.147438e+003, 1.943958e-001
1.149366e+003, 1.958577e-001
1.151295e+003, 1.972658e-001
1.153223e+003, 1.987161e-001
1.155152e+003, 2.000872e-001
1.157080e+003, 2.015411e-001
1.159009e+003, 2.029302e-001
1.160937e+003, 2.039953e-001
1.162865e+003, 2.055134e-001
1.164794e+003, 2.073618e-001
1.166722e+003, 2.091508e-001
1.168651e+003, 2.106101e-001
1.170579e+003, 2.120173e-001
1.172508e+003, 2.140059e-001
1.174436e+003, 2.159962e-001
1.176365e+003, 2.177643e-001
1.178293e+003, 2.195306e-001
1.180222e+003, 2.214814e-001
1.182150e+003, 2.232193e-001
1.184079e+003, 2.251200e-001
1.186007e+003, 2.273163e-001
1.187936e+003, 2.294719e-001
1.189864e+003, 2.320007e-001
1.191792e+003, 2.344408e-001
1.193721e+003, 2.364929e-001
1.195649e+003, 2.387779e-001
1.197578e+003, 2.410796e-001
1.199506e+003, 2.434332e-001
1.201435e+003, 2.458922e-001
1.203363e+003, 2.482607e-001
1.205292e+003, 2.504257e-001
1.207220e+003, 2.526943e-001
1.209149e+003, 2.549363e-001
1.211077e+003, 2.572008e-001
1.213006e+003, 2.595202e-001
1.214934e+003, 2.621227e-001
1.216863e+003, 2.648311e-001
1.218791e+003, 2.674660e-001
1.220719e+003, 2.700621e-001
1.222648e+003, 2.727246e-001
1.224576e+003, 2.755854e-001
1.226505e+003, 2.784269e-001
1.228433e+003, 2.811852e-001
1.230362e+003, 2.839968e-001
1.232290e+003, 2.870374e-001
1.234219e+003, 2.905558e-001
1.236147e+003, 2.939218e-001
1.238076e+003, 2.971037e-001
1.240004e+003, 3.003358e-001
1.241933e+003, 3.039670e-001
1.243861e+003, 3.074956e-001
1.245790e+003, 3.112276e-001
1.247718e+003, 3.153051e-001
1.249646e+003, 3.191581e-001
1.251575e+003, 3.228400e-001
1.253503e+003, 3.269140e-001
1.255432e+003, 3.311349e-001
1.257360e+003, 3.350368e-001
1.259289e+003, 3.388433e-001
1.261217e+003, 3.431535e-001
1.263146e+003, 3.476231e-001
1.265074e+003, 3.520114e-001
1.267003e+003, 3.564879e-001
1.268931e+003, 3.613258e-001
1.270860e+003, 3.663431e-001
1.272788e+003, 3.710583e-001
1.274717e+003, 3.756189e-001
1.276645e+003, 3.805052e-001
1.278573e+003, 3.853231e-001
1.280502e+003, 3.897427e-001
1.282430e+003, 3.940117e-001
1.284359e+003, 3.983471e-001
1.286287e+003, 4.027995e-001
1.288216e+003, 4.072865e-001
1.290144e+003, 4.117545e-001
1.292073e+003, 4.162911e-001
1.294001e+003, 4.207376e-001
1.295930e+003, 4.249979e-001
1.297858e+003, 4.288088e-001
1.299787e+003, 4.323391e-001
1.301715e+003, 4.359115e-001
1.303644e+003, 4.394346e-001
1.305572e+003, 4.428113e-001
1.307500e+003, 4.461808e-001
1.309429e+003, 4.491518e-001
1.311357e+003, 4.521383e-001
1.313286e+003, 4.557803e-001
1.315214e+003, 4.598325e-001
1.317143e+003, 4.638954e-001
1.319071e+003, 4.682882e-001
1.321000e+003, 4.727688e-001
1.322928e+003, 4.775660e-001
1.324857e+003, 4.829814e-001
1.326785e+003, 4.886113e-001
1.328714e+003, 4.940138e-001
1.330642e+003, 4.999733e-001
1.332571e+003, 5.061672e-001
1.334499e+003, 5.121238e-001
1.336427e+003, 5.178265e-001
1.338356e+003, 5.238830e-001
1.340284e+003, 5.298640e-001
1.342213e+003, 5.367327e-001
1.344141e+003, 5.444294e-001
1.346070e+003, 5.523096e-001
1.347998e+003, 5.601417e-001
1.349927e+003, 5.677935e-001
1.351855e+003, 5.757098e-001
1.353784e+003, 5.836207e-001
1.355712e+003, 5.915924e-001
1.357641e+003, 5.993167e-001
1.359569e+003, 6.066790e-001
1.361498e+003, 6.140578e-001
1.363426e+003, 6.215335e-001
1.365354e+003, 6.284507e-001
1.367283e+003, 6.337315e-001
1.369211e+003, 6.380607e-001
1.371140e+003, 6.414458e-001
1.373068e+003, 6.430312e-001
1.374997e+003, 6.426475e-001
1.376925e+003, 6.402647e-001
1.378854e+003, 6.360126e-001
1.380782e+003, 6.297416e-001
1.382711e+003, 6.212120e-001
1.384639e+003, 6.107721e-001
1.386568e+003, 5.981882e-001
1.388496e+003, 5.837819e-001
1.390424e+003, 5.686297e-001
1.392353e+003, 5.522804e-001
1.394281e+003, 5.353098e-001
1.396210e+003, 5.184501e-001
1.398138e+003, 5.018871e-001
1.400067e+003, 4.854395e-001
1.401995e+003, 4.698961e-001
1.403924e+003, 4.551498e-001
1.405852e+003, 4.419524e-001
1.407781e+003, 4.305836e-001
1.409709e+003, 4.203115e-001
1.411638e+003, 4.120857e-001
1.413566e+003, 4.058297e-001
1.415495e+003, 4.004515e-001
1.417423e+003, 3.969991e-001
1.419351e+003, 3.951021e-001
1.421280e+003, 3.933720e-001
1.423208e+003, 3.917517e-001
1.425137e+003, 3.894249e-001
1.427065e+003, 3.862353e-001
1.428994e+003, 3.821532e-001
1.430922e+003, 3.766710e-001
1.432851e+003, 3.698210e-001
1.434779e+003, 3.615315e-001
1.436708e+003, 3.519109e-001
1.438636e+003, 3.416338e-001
1.440565e+003, 3.311938e-001
1.442493e+003, 3.204565e-001
1.444422e+003, 3.097291e-001
1.446350e+003, 2.996373e-001
1.448278e+003, 2.896958e-001
1.450207e+003, 2.799993e-001
1.452135e+003, 2.707451e-001
1.454064e+003, 2.616356e-001
1.455992e+003, 2.527757e-001
1.457921e+003, 2.443697e-001
1.459849e+003, 2.365492e-001
1.461778e+003, 2.282479e-001
1.463706e+003, 2.200379e-001
1.465635e+003, 2.120999e-001
1.467563e+003, 2.045293e-001
1.469492e+003, 1.966911e-001
1.471420e+003, 1.890535e-001
1.473349e+003, 1.811188e-001
1.475277e+003, 1.735679e-001
1.477205e+003, 1.657725e-001
1.479134e+003, 1.581724e-001
1.481062e+003, 1.501891e-001
1.482991e+003, 1.420964e-001
1.484919e+003, 1.340488e-001
1.486848e+003, 1.259360e-001
1.488776e+003, 1.180229e-001
1.490705e+003, 1.106214e-001
1.492633e+003, 1.039324e-001
1.494562e+003, 9.715455e-002
1.496490e+003, 9.044390e-002
1.498419e+003, 8.466078e-002
1.500347e+003, 7.951496e-002
1.502276e+003, 7.485760e-002
1.504204e+003, 7.014462e-002
1.506132e+003, 6.564199e-002
1.508061e+003, 6.203236e-002
1.509989e+003, 5.915436e-002
1.511918e+003, 5.633726e-002
1.513846e+003, 5.383521e-002
1.515775e+003, 5.146289e-002
1.517703e+003, 4.914974e-002
1.519632e+003, 4.752029e-002
1.521560e+003, 4.533559e-002
1.523489e+003, 4.397895e-002
1.525417e+003, 4.266558e-002
1.527346e+003, 4.126168e-002
1.529274e+003, 3.987770e-002
1.531203e+003, 3.851592e-002
1.533131e+003, 3.719051e-002
1.535059e+003, 3.612895e-002
1.536988e+003, 3.525999e-002
1.538916e+003, 3.366459e-002
1.540845e+003, 3.229339e-002
1.542773e+003, 3.166317e-002
1.544702e+003, 3.123691e-002
1.546630e+003, 3.056459e-002
1.548559e+003, 3.007028e-002
1.550487e+003, 2.922679e-002
1.552416e+003, 2.870475e-002
1.554344e+003, 2.818150e-002
1.556273e+003, 2.807607e-002
1.558201e+003, 2.717575e-002
1.560130e+003, 2.631531e-002
1.562058e+003, 2.643352e-002
1.563986e+003, 2.634436e-002
1.565915e+003, 2.617616e-002
1.567843e+003, 2.583248e-002
1.569772e+003, 2.478940e-002
1.571700e+003, 2.433478e-002
1.573629e+003, 2.387510e-002
1.575557e+003, 2.322630e-002
1.577486e+003, 2.262943e-002
1.579414e+003, 2.284382e-002
1.581343e+003, 2.235247e-002
1.583271e+003, 2.182440e-002
1.585200e+003, 2.161414e-002
1.587128e+003, 2.135599e-002
1.589057e+003, 2.098775e-002
1.590985e+003, 2.067367e-002
1.592913e+003, 2.056401e-002
1.594842e+003, 2.014075e-002
1.596770e+003, 1.969329e-002
1.598699e+003, 1.957878e-002
1.600627e+003, 1.928477e-002
1.602556e+003, 1.909498e-002
1.604484e+003, 1.905147e-002
1.606413e+003, 1.891031e-002
1.608341e+003, 1.870960e-002
1.610270e+003, 1.874143e-002
1.612198e+003, 1.890208e-002
1.614127e+003, 1.884131e-002
1.616055e+003, 1.874711e-002
1.617984e+003, 1.825356e-002
1.619912e+003, 1.813054e-002
1.621840e+003, 1.786957e-002
1.623769e+003, 1.777952e-002
1.625697e+003, 1.796671e-002
1.627626e+003, 1.798150e-002
1.629554e+003, 1.746635e-002
1.631483e+003, 1.732331e-002
1.633411e+003, 1.722848e-002
1.635340e+003, 1.670966e-002
1.637268e+003, 1.676036e-002
1.639197e+003, 1.722974e-002
1.641125e+003, 1.707563e-002
1.643054e+003, 1.687564e-002
1.644982e+003, 1.698129e-002
1.646911e+003, 1.664049e-002
1.648839e+003, 1.661148e-002
1.650767e+003, 1.677641e-002
1.652696e+003, 1.640256e-002
1.654624e+003, 1.643534e-002
1.656553e+003, 1.761331e-002
1.658481e+003, 1.778370e-002
1.660410e+003, 1.774351e-002
1.662338e+003, 1.770107e-002
1.664267e+003, 1.793969e-002
1.666195e+003, 1.841754e-002
1.668124e+003, 1.844495e-002
1.670052e+003, 1.824911e-002
1.671981e+003, 1.860822e-002
1.673909e+003, 1.858854e-002
1.675838e+003, 1.826416e-002
1.677766e+003, 1.892985e-002
1.679694e+003, 1.908762e-002
1.681623e+003, 1.929311e-002
1.683551e+003, 1.941136e-002
1.685480e+003, 1.912992e-002
1.687408e+003, 2.016218e-002
1.689337e+003, 2.067400e-002
1.691265e+003, 2.100031e-002
1.693194e+003, 2.144813e-002
1.695122e+003, 2.170626e-002
1.697051e+003, 2.166524e-002
1.698979e+003, 2.217611e-002
1.700908e+003, 2.141645e-002
1.702836e+003, 2.259549e-002
1.704765e+003, 2.324056e-002
1.706693e+003, 2.373725e-002
1.708621e+003, 2.424509e-002
1.710550e+003, 2.485072e-002
1.712478e+003, 2.548307e-002
1.714407e+003, 2.605397e-002
1.716335e+003, 2.698381e-002
1.718264e+003, 2.857005e-002
1.720192e+003, 3.273894e-002
1.722121e+003, 4.039621e-002
1.724049e+003, 5.094869e-002
1.725978e+003, 6.056011e-002
1.727906e+003, 6.426143e-002
1.729835e+003, 6.218790e-002
1.731763e+003, 5.560697e-002
1.733692e+003, 4.761649e-002
1.735620e+003, 4.383036e-002
1.737548e+003, 4.474028e-002
1.739477e+003, 4.511245e-002
1.741405e+003, 4.264415e-002
1.743334e+003, 3.781540e-002
1.745262e+003, 3.265726e-002
1.747191e+003, 2.827544e-002
1.749119e+003, 2.518522e-002
1.751048e+003, 2.382162e-002
1.752976e+003, 2.343961e-002
1.754905e+003, 2.380643e-002
1.756833e+003, 2.397708e-002
1.758762e+003, 2.426481e-002
1.760690e+003, 2.440156e-002
1.762619e+003, 2.430512e-002
1.764547e+003, 2.498335e-002
1.766475e+003, 2.539483e-002
1.768404e+003, 2.548091e-002
1.770332e+003, 2.575504e-002
1.772261e+003, 2.587294e-002
1.774189e+003, 2.627580e-002
1.776118e+003, 2.646853e-002
1.778046e+003, 2.663840e-002
1.779975e+003, 2.696530e-002
1.781903e+003, 2.720350e-002
1.783832e+003, 2.766882e-002
1.785760e+003, 2.784332e-002
1.787689e+003, 2.826392e-002
1.789617e+003, 2.818633e-002
1.791546e+003, 2.808122e-002
1.793474e+003, 2.806785e-002
1.795402e+003, 2.834398e-002
1.797331e+003, 2.863071e-002
1.799259e+003, 2.904219e-002
1.801188e+003, 2.930978e-002
1.803116e+003, 2.942666e-002
1.805045e+003, 2.961187e-002
1.806973e+003, 3.000776e-002
1.808902e+003, 3.004687e-002
1.810830e+003, 2.984937e-002
1.812759e+003, 3.032313e-002
1.814687e+003, 3.058752e-002
1.816616e+003, 3.088615e-002
1.818544e+003, 3.178009e-002
1.820473e+003, 3.163308e-002
1.822401e+003, 3.117334e-002
1.824329e+003, 3.155557e-002
1.826258e+003, 3.182478e-002
1.828186e+003, 3.219973e-002
1.830115e+003, 3.215460e-002
1.832043e+003, 3.264891e-002
1.833972e+003, 3.284517e-002
1.835900e+003, 3.326664e-002
1.837829e+003, 3.328919e-002
1.839757e+003, 3.345734e-002
1.841686e+003, 3.382634e-002
1.843614e+003, 3.362221e-002
1.845543e+003, 3.370409e-002
1.847471e+003, 3.401283e-002
1.849400e+003, 3.413270e-002
1.851328e+003, 3.452124e-002
1.853256e+003, 3.487786e-002
1.855185e+003, 3.551071e-002
1.857113e+003, 3.564852e-002
1.859042e+003, 3.529706e-002
1.860970e+003, 3.536114e-002
1.862899e+003, 3.590907e-002
1.864827e+003, 3.612211e-002
1.866756e+003, 3.583559e-002
1.868684e+003, 3.614936e-002
1.870613e+003, 3.668977e-002
1.872541e+003, 3.700836e-002
1.874470e+003, 3.682441e-002
1.876398e+003, 3.704645e-002
1.878327e+003, 3.731900e-002
1.880255e+003, 3.716067e-002
1.882183e+003, 3.697164e-002
1.884112e+003, 3.669334e-002
1.886040e+003, 3.719309e-002
1.887969e+003, 3.806756e-002
1.889897e+003, 3.822378e-002
1.891826e+003, 3.802307e-002
1.893754e+003, 3.846828e-002
1.895683e+003, 3.862714e-002
1.897611e+003, 3.856338e-002
1.899540e+003, 3.901082e-002
1.901468e+003, 3.957082e-002
1.903397e+003, 3.952707e-002
1.905325e+003, 3.965066e-002
1.907254e+003, 4.021981e-002
1.909182e+003, 4.057146e-002
1.911110e+003, 4.045713e-002
1.913039e+003, 4.068447e-002
1.914967e+003, 4.052275e-002
1.916896e+003, 4.058816e-002
1.918824e+003, 4.035546e-002
1.920753e+003, 4.030871e-002
1.922681e+003, 4.119563e-002
1.924610e+003, 4.146086e-002
1.926538e+003, 4.056263e-002
1.928467e+003, 3.966074e-002
1.930395e+003, 3.968100e-002
1.932324e+003, 3.960619e-002
1.934252e+003, 4.033545e-002
1.936181e+003, 4.176430e-002
1.938109e+003, 4.206853e-002
1.940037e+003, 4.250935e-002
1.941966e+003, 4.274911e-002
1.943894e+003, 4.323172e-002
1.945823e+003, 4.308978e-002
1.947751e+003, 4.197682e-002
1.949680e+003, 4.168215e-002
1.951608e+003, 4.213515e-002
1.953537e+003, 4.243912e-002
1.955465e+003, 4.202194e-002
1.957394e+003, 4.164765e-002
1.959322e+003, 4.197108e-002
1.961251e+003, 4.239042e-002
1.963179e+003, 4.236424e-002
1.965108e+003, 4.363682e-002
1.967036e+003, 4.379626e-002
1.968964e+003, 4.198771e-002
1.970893e+003, 4.128449e-002
1.972821e+003, 4.228455e-002
1.974750e+003, 4.311606e-002
1.976678e+003, 4.431594e-002
1.978607e+003, 4.771094e-002
1.980535e+003, 4.910070e-002
1.982464e+003, 4.843090e-002
1.984392e+003, 4.656792e-002
1.986321e+003, 4.642009e-002
1.988249e+003, 4.644635e-002
1.990178e+003, 4.593175e-002
1.992106e+003, 4.611109e-002
1.994035e+003, 4.638640e-002
1.995963e+003, 4.592022e-002
1.997891e+003, 4.663740e-002
1.999820e+003, 4.724495e-002
2.001748e+003, 4.644182e-002
2.003677e+003, 4.676815e-002
2.005605e+003, 4.711211e-002
2.007534e+003, 4.664346e-002
2.009462e+003, 4.713048e-002
2.011391e+003, 4.742412e-002
2.013319e+003, 4.753128e-002
2.015248e+003, 4.733323e-002
2.017176e+003, 4.712207e-002
2.019105e+003, 4.740956e-002
2.021033e+003, 4.745763e-002
2.022962e+003, 4.872275e-002
2.024890e+003, 5.013812e-002
2.026818e+003, 4.979743e-002
2.028747e+003, 4.918540e-002
2.030675e+003, 4.870427e-002
2.032604e+003, 4.988449e-002
2.034532e+003, 5.211935e-002
2.036461e+003, 5.223769e-002
2.038389e+003, 5.121870e-002
2.040318e+003, 5.214386e-002
2.042246e+003, 5.400281e-002
2.044175e+003, 5.541066e-002
2.046103e+003, 5.603797e-002
2.048032e+003, 5.575246e-002
2.049960e+003, 5.617117e-002
2.051889e+003, 5.625698e-002
2.053817e+003, 5.570900e-002
2.055746e+003, 5.539595e-002
2.057674e+003, 5.530543e-002
2.059603e+003, 5.638642e-002
2.061531e+003, 5.534447e-002
2.063459e+003, 5.425550e-002
2.065388e+003, 5.385758e-002
2.067316e+003, 5.430353e-002
2.069245e+003, 5.492357e-002
2.071173e+003, 5.569956e-002
2.073102e+003, 5.669277e-002
2.075030e+003, 5.709286e-002
2.076959e+003, 5.702732e-002
2.078887e+003, 5.734511e-002
2.080816e+003, 5.694323e-002
2.082744e+003, 5.713968e-002
2.084673e+003, 5.794488e-002
2.086601e+003, 5.778061e-002
2.088530e+003, 5.712832e-002
2.090458e+003, 5.699820e-002
2.092386e+003, 5.659230e-002
2.094315e+003, 5.666741e-002
2.096243e+003, 5.695048e-002
2.098172e+003, 5.683614e-002
2.100100e+003, 5.627767e-002
2.102029e+003, 5.604333e-002
2.103957e+003, 5.788752e-002
2.105886e+003, 5.908179e-002
2.107814e+003, 5.889469e-002
2.109743e+003, 5.951656e-002
2.111671e+003, 5.985580e-002
2.113600e+003, 6.041881e-002
2.115528e+003, 6.036303e-002
2.117457e+003, 5.950648e-002
2.119385e+003, 5.963599e-002
2.121313e+003, 5.971837e-002
2.123242e+003, 5.887216e-002
2.125170e+003, 5.842118e-002
2.127099e+003, 5.853959e-002
2.129027e+003, 5.890014e-002
2.130956e+003, 5.783586e-002
2.132884e+003, 5.739924e-002
2.134813e+003, 5.848181e-002
2.136741e+003, 5.925597e-002
2.138670e+003, 5.925233e-002
2.140598e+003, 5.996695e-002
2.142527e+003, 6.081741e-002
2.144455e+003, 5.821344e-002
2.146384e+003, 5.522815e-002
2.148312e+003, 5.680219e-002
2.150240e+003, 5.832622e-002
2.152169e+003, 5.749500e-002
2.154097e+003, 5.642346e-002
2.156026e+003, 5.501480e-002
2.157954e+003, 5.677750e-002
2.159883e+003, 6.112793e-002
2.161811e+003, 6.210456e-002
2.163740e+003, 6.269711e-002
2.165668e+003, 6.334883e-002
2.167597e+003, 6.261729e-002
2.169525e+003, 6.138502e-002
2.171454e+003, 6.197597e-002
2.173382e+003, 6.307772e-002
2.175311e+003, 6.285658e-002
2.177239e+003, 6.149134e-002
2.179167e+003, 6.071321e-002
2.181096e+003, 6.070695e-002
2.183024e+003, 6.121870e-002
2.184953e+003, 6.197329e-002
2.186881e+003, 6.380548e-002
2.188810e+003, 6.316986e-002
2.190738e+003, 6.265349e-002
2.192667e+003, 6.440727e-002
2.194595e+003, 6.470428e-002
2.196524e+003, 6.346673e-002
2.198452e+003, 6.332186e-002
2.200381e+003, 6.333196e-002
2.202309e+003, 6.364356e-002
2.204238e+003, 6.405482e-002
2.206166e+003, 6.530507e-002
2.208094e+003, 6.598469e-002
2.210023e+003, 6.479468e-002
2.211951e+003, 6.443385e-002
2.213880e+003, 6.540045e-002
2.215808e+003, 6.586445e-002
2.217737e+003, 6.619118e-002
2.219665e+003, 6.772994e-002
2.221594e+003, 6.850097e-002
2.223522e+003, 6.859925e-002
2.225451e+003, 6.836392e-002
2.227379e+003, 6.833410e-002
2.229308e+003, 6.825280e-002
2.231236e+003, 6.887691e-002
2.233165e+003, 7.001354e-002
2.235093e+003, 6.951442e-002
2.237021e+003, 6.831279e-002
2.238950e+003, 6.992397e-002
2.240878e+003, 7.085326e-002
2.242807e+003, 6.962704e-002
2.244735e+003, 7.042228e-002
2.246664e+003, 7.089493e-002
2.248592e+003, 7.047032e-002
2.250521e+003, 7.050723e-002
2.252449e+003, 7.117530e-002
2.254378e+003, 7.112606e-002
2.256306e+003, 7.153090e-002
2.258235e+003, 7.170600e-002
2.260163e+003, 7.102456e-002
2.262092e+003, 7.100942e-002
2.264020e+003, 7.203939e-002
2.265948e+003, 7.251812e-002
2.267877e+003, 7.316336e-002
2.269805e+003, 7.383336e-002
2.271734e+003, 7.403241e-002
2.273662e+003, 7.361818e-002
2.275591e+003, 7.406679e-002
2.277519e+003, 7.453727e-002
2.279448e+003, 7.478029e-002
2.281376e+003, 7.529093e-002
2.283305e+003, 7.568288e-002
2.285233e+003, 7.663688e-002
2.287162e+003, 7.711408e-002
2.289090e+003, 7.666320e-002
2.291019e+003, 7.646089e-002
2.292947e+003, 7.661573e-002
2.294875e+003, 7.712685e-002
2.296804e+003, 7.753336e-002
2.298732e+003, 7.727269e-002
2.300661e+003, 7.693048e-002
2.302589e+003, 7.741307e-002
2.304518e+003, 7.751504e-002
2.306446e+003, 7.815773e-002
2.308375e+003, 7.871253e-002
2.310303e+003, 7.851974e-002
2.312232e+003, 7.869381e-002
2.314160e+003, 7.924611e-002
2.316089e+003, 7.912931e-002
2.318017e+003, 7.973707e-002
2.319946e+003, 8.058450e-002
2.321874e+003, 8.099842e-002
2.323802e+003, 8.091970e-002
2.325731e+003, 8.012656e-002
2.327659e+003, 7.967312e-002
2.329588e+003, 7.982469e-002
2.331516e+003, 7.974733e-002
2.333445e+003, 8.003394e-002
2.335373e+003, 8.082712e-002
2.337302e+003, 8.134399e-002
2.339230e+003, 8.157969e-002
2.341159e+003, 8.159839e-002
2.343087e+003, 8.187099e-002
2.345016e+003, 8.217988e-002
2.346944e+003, 8.266441e-002
2.348873e+003, 8.297877e-002
2.350801e+003, 8.285313e-002
2.352729e+003, 8.280862e-002
2.354658e+003, 8.278225e-002
2.356586e+003, 8.309007e-002
2.358515e+003, 8.328521e-002
2.360443e+003, 8.359524e-002
2.362372e+003, 8.371548e-002
2.364300e+003, 8.384165e-002
2.366229e+003, 8.386460e-002
2.368157e+003, 8.424689e-002
2.370086e+003, 8.465359e-002
2.372014e+003, 8.466441e-002
2.373942e+003, 8.560511e-002
2.375871e+003, 8.712460e-002
2.377799e+003, 8.793297e-002
2.379728e+003, 8.828570e-002
2.381656e+003, 8.862829e-002
2.383585e+003, 8.961622e-002
2.385513e+003, 9.045341e-002
2.387442e+003, 9.094808e-002
2.389370e+003, 9.182811e-002
2.391299e+003, 9.357312e-002
2.393227e+003, 9.478216e-002
2.395156e+003, 9.631293e-002
2.397084e+003, 9.845912e-002
2.399012e+003, 1.001889e-001
2.400941e+003, 1.014643e-001
2.402869e+003, 1.020314e-001
2.404798e+003, 1.029172e-001
2.406726e+003, 1.037273e-001
2.408655e+003, 1.038541e-001
2.410583e+003, 1.032436e-001
2.412512e+003, 1.020799e-001
2.414440e+003, 1.009224e-001
2.416369e+003, 9.941926e-002
2.418297e+003, 9.661449e-002
2.420226e+003, 9.456660e-002
2.422154e+003, 9.365847e-002
2.424083e+003, 9.217682e-002
2.426011e+003, 9.103535e-002
2.427939e+003, 9.043129e-002
2.429868e+003, 8.929300e-002
2.431796e+003, 8.806328e-002
2.433725e+003, 8.764863e-002
2.435653e+003, 8.790794e-002
2.437582e+003, 8.815307e-002
2.439510e+003, 8.752809e-002
2.441439e+003, 8.717546e-002
2.443367e+003, 8.728950e-002
2.445296e+003, 8.702908e-002
2.447224e+003, 8.663510e-002
2.449153e+003, 8.654450e-002
2.451081e+003, 8.696507e-002
2.453010e+003, 8.729401e-002
2.454938e+003, 8.670864e-002
2.456866e+003, 8.657112e-002
2.458795e+003, 8.647303e-002
2.460723e+003, 8.682197e-002
2.462652e+003, 8.706092e-002
2.464580e+003, 8.684120e-002
2.466509e+003, 8.689028e-002
2.468437e+003, 8.768596e-002
2.470366e+003, 8.775361e-002
2.472294e+003, 8.713276e-002
2.474223e+003, 8.661865e-002
2.476151e+003, 8.701446e-002
2.478080e+003, 8.746599e-002
2.480008e+003, 8.788319e-002
2.481937e+003, 8.745661e-002
2.483865e+003, 8.707906e-002
2.485793e+003, 8.754288e-002
2.487722e+003, 8.781672e-002
2.489650e+003, 8.781017e-002
2.491579e+003, 8.746014e-002
2.493507e+003, 8.692564e-002
2.495436e+003, 8.689795e-002
2.497364e+003, 8.753840e-002
2.499293e+003, 8.830073e-002
2.501221e+003, 8.756836e-002
2.503150e+003, 8.661515e-002
2.505078e+003, 8.711399e-002
2.507007e+003, 8.759724e-002
2.508935e+003, 8.761325e-002
2.510864e+003, 8.765933e-002
2.512792e+003, 8.740705e-002
2.514720e+003, 8.759952e-002
2.516649e+003, 8.792717e-002
2.518577e+003, 8.852102e-002
2.520506e+003, 8.859774e-002
2.522434e+003, 8.799898e-002
2.524363e+003, 8.823730e-002
2.526291e+003, 8.864602e-002
2.528220e+003, 8.878852e-002
2.530148e+003, 8.896488e-002
2.532077e+003, 8.872746e-002
2.534005e+003, 8.855794e-002
2.535934e+003, 8.815650e-002
2.537862e+003, 8.683532e-002
2.539791e+003, 8.709378e-002
2.541719e+003, 8.823056e-002
2.543647e+003, 8.882483e-002
2.545576e+003, 8.915679e-002
2.547504e+003, 8.857100e-002
2.549433e+003, 8.832099e-002
2.551361e+003, 8.873489e-002
2.553290e+003, 8.817130e-002
2.555218e+003, 8.785821e-002
2.557147e+003, 8.846954e-002
2.559075e+003, 8.924580e-002
2.561004e+003, 8.972628e-002
2.562932e+003, 8.912604e-002
2.564861e+003, 8.857675e-002
2.566789e+003, 8.998798e-002
2.568718e+003, 9.084971e-002
2.570646e+003, 9.030598e-002
2.572574e+003, 8.917800e-002
2.574503e+003, 8.925188e-002
2.576431e+003, 8.982433e-002
2.578360e+003, 8.993707e-002
2.580288e+003, 9.009906e-002
2.582217e+003, 9.031926e-002
2.584145e+003, 9.065232e-002
2.586074e+003, 9.143925e-002
2.588002e+003, 9.185336e-002
2.589931e+003, 9.172449e-002
2.591859e+003, 9.161162e-002
2.593788e+003, 9.127347e-002
2.595716e+003, 9.140928e-002
2.597645e+003, 9.206542e-002
2.599573e+003, 9.275918e-002
2.601501e+003, 9.265468e-002
2.603430e+003, 9.262167e-002
2.605358e+003, 9.254180e-002
2.607287e+003, 9.332561e-002
2.609215e+003, 9.396394e-002
2.611144e+003, 9.373094e-002
2.613072e+003, 9.310289e-002
2.615001e+003, 9.346931e-002
2.616929e+003, 9.431027e-002
2.618858e+003, 9.488256e-002
2.620786e+003, 9.535919e-002
2.622715e+003, 9.496436e-002
2.624643e+003, 9.513148e-002
2.626572e+003, 9.576110e-002
2.628500e+003, 9.580359e-002
2.630428e+003, 9.526791e-002
2.632357e+003, 9.552146e-002
2.634285e+003, 9.657896e-002
2.636214e+003, 9.661524e-002
2.638142e+003, 9.672467e-002
2.640071e+003, 9.787113e-002
2.641999e+003, 9.803770e-002
2.643928e+003, 9.750707e-002
2.645856e+003, 9.753169e-002
2.647785e+003, 9.744329e-002
2.649713e+003, 9.790935e-002
2.651642e+003, 9.884015e-002
2.653570e+003, 9.960479e-002
2.655499e+003, 9.917692e-002
2.657427e+003, 9.856860e-002
2.659355e+003, 9.882790e-002
2.661284e+003, 9.899532e-002
2.663212e+003, 9.896655e-002
2.665141e+003, 9.888901e-002
2.667069e+003, 9.875863e-002
2.668998e+003, 9.899019e-002
2.670926e+003, 9.914196e-002
2.672855e+003, 9.891539e-002
2.674783e+003, 9.915528e-002
2.676712e+003, 9.966987e-002
2.678640e+003, 9.995036e-002
2.680569e+003, 1.003601e-001
2.682497e+003, 1.004941e-001
2.684426e+003, 1.004604e-001
2.686354e+003, 1.008255e-001
2.688282e+003, 1.018187e-001
2.690211e+003, 1.021941e-001
2.692139e+003, 1.019248e-001
2.694068e+003, 1.016672e-001
2.695996e+003, 1.022249e-001
2.697925e+003, 1.026466e-001
2.699853e+003, 1.025806e-001
2.701782e+003, 1.030948e-001
2.703710e+003, 1.034319e-001
2.705639e+003, 1.032570e-001
2.707567e+003, 1.039108e-001
2.709496e+003, 1.043903e-001
2.711424e+003, 1.043302e-001
2.713353e+003, 1.044943e-001
2.715281e+003, 1.047453e-001
2.717209e+003, 1.052085e-001
2.719138e+003, 1.057300e-001
2.721066e+003, 1.060317e-001
2.722995e+003, 1.066006e-001
2.724923e+003, 1.074398e-001
2.726852e+003, 1.083233e-001
2.728780e+003, 1.081768e-001
2.730709e+003, 1.079128e-001
2.732637e+003, 1.079358e-001
2.734566e+003, 1.080031e-001
2.736494e+003, 1.081244e-001
2.738423e+003, 1.083686e-001
2.740351e+003, 1.083181e-001
2.742280e+003, 1.084026e-001
2.744208e+003, 1.087946e-001
2.746136e+003, 1.090629e-001
2.748065e+003, 1.089096e-001
2.749993e+003, 1.083729e-001
2.751922e+003, 1.081849e-001
2.753850e+003, 1.086100e-001
2.755779e+003, 1.085710e-001
2.757707e+003, 1.086365e-001
2.759636e+003, 1.085909e-001
2.761564e+003, 1.083033e-001
2.763493e+003, 1.084914e-001
2.765421e+003, 1.089703e-001
2.767350e+003, 1.092061e-001
2.769278e+003, 1.094396e-001
2.771207e+003, 1.095874e-001
2.773135e+003, 1.094987e-001
2.775063e+003, 1.095021e-001
2.776992e+003, 1.093413e-001
2.778920e+003, 1.090694e-001
2.780849e+003, 1.091017e-001
2.782777e+003, 1.091362e-001
2.784706e+003, 1.097855e-001
2.786634e+003, 1.098632e-001
2.788563e+003, 1.093846e-001
2.790491e+003, 1.093726e-001
2.792420e+003, 1.094266e-001
2.794348e+003, 1.093125e-001
2.796277e+003, 1.095888e-001
2.798205e+003, 1.100562e-001
2.800134e+003, 1.101310e-001
2.802062e+003, 1.101580e-001
2.803990e+003, 1.101955e-001
2.805919e+003, 1.102251e-001
2.807847e+003, 1.097618e-001
2.809776e+003, 1.100570e-001
2.811704e+003, 1.106411e-001
2.813633e+003, 1.103042e-001
2.815561e+003, 1.100746e-001
2.817490e+003, 1.104524e-001
2.819418e+003, 1.105323e-001
2.821347e+003, 1.107024e-001
2.823275e+003, 1.113171e-001
2.825204e+003, 1.111941e-001
2.827132e+003, 1.107351e-001
2.829061e+003, 1.110708e-001
2.830989e+003, 1.114148e-001
2.832917e+003, 1.111028e-001
2.834846e+003, 1.102552e-001
2.836774e+003, 1.096003e-001
2.838703e+003, 1.100451e-001
2.840631e+003, 1.107863e-001
2.842560e+003, 1.111300e-001
2.844488e+003, 1.109081e-001
2.846417e+003, 1.100436e-001
2.848345e+003, 1.097318e-001
2.850274e+003, 1.099922e-001
2.852202e+003, 1.094947e-001
2.854131e+003, 1.088853e-001
2.856059e+003, 1.095020e-001
2.857988e+003, 1.100197e-001
2.859916e+003, 1.095692e-001
2.861844e+003, 1.096604e-001
2.863773e+003, 1.099523e-001
2.865701e+003, 1.101673e-001
2.867630e+003, 1.104364e-001
2.869558e+003, 1.107707e-001
2.871487e+003, 1.102573e-001
2.873415e+003, 1.097464e-001
2.875344e+003, 1.101776e-001
2.877272e+003, 1.112040e-001
2.879201e+003, 1.121700e-001
2.881129e+003, 1.117148e-001
2.883058e+003, 1.111399e-001
2.884986e+003, 1.114213e-001
2.886915e+003, 1.117188e-001
2.888843e+003, 1.120348e-001
2.890771e+003, 1.126796e-001
2.892700e+003, 1.130520e-001
2.894628e+003, 1.129218e-001
2.896557e+003, 1.126585e-001
2.898485e+003, 1.123845e-001
2.900414e+003, 1.118667e-001
2.902342e+003, 1.124999e-001
2.904271e+003, 1.132584e-001
2.906199e+003, 1.136136e-001
2.908128e+003, 1.133542e-001
2.910056e+003, 1.132988e-001
2.911985e+003, 1.141268e-001
2.913913e+003, 1.138674e-001
2.915842e+003, 1.128644e-001
2.917770e+003, 1.130539e-001
2.919698e+003, 1.143023e-001
2.921627e+003, 1.145988e-001
2.923555e+003, 1.144678e-001
2.925484e+003, 1.155956e-001
2.927412e+003, 1.158290e-001
2.929341e+003, 1.150347e-001
2.931269e+003, 1.150198e-001
2.933198e+003, 1.149580e-001
2.935126e+003, 1.148089e-001
2.937055e+003, 1.147988e-001
2.938983e+003, 1.148067e-001
2.940912e+003, 1.157237e-001
2.942840e+003, 1.161573e-001
2.944769e+003, 1.160581e-001
2.946697e+003, 1.160550e-001
2.948625e+003, 1.161435e-001
2.950554e+003, 1.154374e-001
2.952482e+003, 1.147834e-001
2.954411e+003, 1.152459e-001
2.956339e+003, 1.158692e-001
2.958268e+003, 1.153279e-001
2.960196e+003, 1.147822e-001
2.962125e+003, 1.155784e-001
2.964053e+003, 1.167935e-001
2.965982e+003, 1.175997e-001
2.967910e+003, 1.175867e-001
2.969839e+003, 1.176336e-001
2.971767e+003, 1.180802e-001
2.973696e+003, 1.181892e-001
2.975624e+003, 1.175836e-001
2.977552e+003, 1.176369e-001
2.979481e+003, 1.179673e-001
2.981409e+003, 1.184500e-001
2.983338e+003, 1.190154e-001
2.985266e+003, 1.201858e-001
2.987195e+003, 1.205697e-001
2.989123e+003, 1.202161e-001
2.991052e+003, 1.204389e-001
2.992980e+003, 1.211464e-001
2.994909e+003, 1.212071e-001
2.996837e+003, 1.203407e-001
2.998766e+003, 1.202122e-001
3.000694e+003, 1.209933e-001
3.002623e+003, 1.207798e-001
3.004551e+003, 1.206117e-001
3.006479e+003, 1.208847e-001
3.008408e+003, 1.213515e-001
3.010336e+003, 1.218091e-001
3.012265e+003, 1.218382e-001
3.014193e+003, 1.213667e-001
3.016122e+003, 1.212563e-001
3.018050e+003, 1.222597e-001
3.019979e+003, 1.236226e-001
3.021907e+003, 1.239983e-001
3.023836e+003, 1.232612e-001
3.025764e+003, 1.229432e-001
3.027693e+003, 1.229406e-001
3.029621e+003, 1.228450e-001
3.031550e+003, 1.236965e-001
3.033478e+003, 1.244419e-001
3.035406e+003, 1.238202e-001
3.037335e+003, 1.234146e-001
3.039263e+003, 1.235297e-001
3.041192e+003, 1.235047e-001
3.043120e+003, 1.237830e-001
3.045049e+003, 1.239188e-001
3.046977e+003, 1.245634e-001
3.048906e+003, 1.254298e-001
3.050834e+003, 1.254089e-001
3.052763e+003, 1.250780e-001
3.054691e+003, 1.260518e-001
3.056620e+003, 1.269240e-001
3.058548e+003, 1.268904e-001
3.060477e+003, 1.266642e-001
3.062405e+003, 1.267395e-001
3.064333e+003, 1.268027e-001
3.066262e+003, 1.267889e-001
3.068190e+003, 1.275192e-001
3.070119e+003, 1.279472e-001
3.072047e+003, 1.265428e-001
3.073976e+003, 1.257008e-001
3.075904e+003, 1.263514e-001
3.077833e+003, 1.266424e-001
3.079761e+003, 1.270282e-001
3.081690e+003, 1.271016e-001
3.083618e+003, 1.271730e-001
3.085547e+003, 1.277490e-001
3.087475e+003, 1.279518e-001
3.089404e+003, 1.287363e-001
3.091332e+003, 1.288994e-001
3.093260e+003, 1.287394e-001
3.095189e+003, 1.288979e-001
3.097117e+003, 1.290287e-001
3.099046e+003, 1.298953e-001
3.100974e+003, 1.300971e-001
3.102903e+003, 1.291024e-001
3.104831e+003, 1.287514e-001
3.106760e+003, 1.289590e-001
3.108688e+003, 1.290262e-001
3.110617e+003, 1.293781e-001
3.112545e+003, 1.298492e-001
3.114474e+003, 1.302023e-001
3.116402e+003, 1.299744e-001
3.118331e+003, 1.296910e-001
3.120259e+003, 1.306090e-001
3.122188e+003, 1.310057e-001
3.124116e+003, 1.309978e-001
3.126044e+003, 1.304086e-001
3.127973e+003, 1.301838e-001
3.129901e+003, 1.306496e-001
3.131830e+003, 1.312732e-001
3.133758e+003, 1.312582e-001
3.135687e+003, 1.316688e-001
3.137615e+003, 1.322028e-001
3.139544e+003, 1.328096e-001
3.141472e+003, 1.328006e-001
3.143401e+003, 1.332068e-001
3.145329e+003, 1.333363e-001
3.147258e+003, 1.331223e-001
3.149186e+003, 1.324096e-001
3.151115e+003, 1.329614e-001
3.153043e+003, 1.338356e-001
3.154971e+003, 1.335847e-001
3.156900e+003, 1.337042e-001
3.158828e+003, 1.339509e-001
3.160757e+003, 1.335060e-001
3.162685e+003, 1.340334e-001
3.164614e+003, 1.347440e-001
3.166542e+003, 1.337397e-001
3.168471e+003, 1.335275e-001
3.170399e+003, 1.346582e-001
3.172328e+003, 1.351796e-001
3.174256e+003, 1.353382e-001
3.176185e+003, 1.347805e-001
3.178113e+003, 1.344733e-001
3.180042e+003, 1.350527e-001
3.181970e+003, 1.352156e-001
3.183898e+003, 1.348714e-001
3.185827e+003, 1.348092e-001
3.187755e+003, 1.349055e-001
3.189684e+003, 1.358972e-001
3.191612e+003, 1.364940e-001
3.193541e+003, 1.364862e-001
3.195469e+003, 1.367053e-001
3.197398e+003, 1.369159e-001
3.199326e+003, 1.369021e-001
3.201255e+003, 1.373431e-001
3.203183e+003, 1.374629e-001
3.205112e+003, 1.375753e-001
3.207040e+003, 1.378859e-001
3.208969e+003, 1.380036e-001
3.210897e+003, 1.377710e-001
3.212825e+003, 1.385027e-001
3.214754e+003, 1.390205e-001
3.216682e+003, 1.385241e-001
3.218611e+003, 1.388189e-001
3.220539e+003, 1.392350e-001
3.222468e+003, 1.387963e-001
3.224396e+003, 1.382370e-001
3.226325e+003, 1.388189e-001
3.228253e+003, 1.401369e-001
3.230182e+003, 1.404655e-001
3.232110e+003, 1.399534e-001
3.234039e+003, 1.398829e-001
3.235967e+003, 1.401557e-001
3.237896e+003, 1.406920e-001
3.239824e+003, 1.404092e-001
3.241752e+003, 1.400641e-001
3.243681e+003, 1.397272e-001
3.245609e+003, 1.396305e-001
3.247538e+003, 1.393611e-001
3.249466e+003, 1.404328e-001
3.251395e+003, 1.415974e-001
3.253323e+003, 1.416654e-001
3.255252e+003, 1.414476e-001
3.257180e+003, 1.421026e-001
3.259109e+003, 1.416532e-001
3.261037e+003, 1.410673e-001
3.262966e+003, 1.414837e-001
3.264894e+003, 1.419773e-001
3.266823e+003, 1.421072e-001
3.268751e+003, 1.421769e-001
3.270679e+003, 1.426944e-001
3.272608e+003, 1.426182e-001
3.274536e+003, 1.420517e-001
3.276465e+003, 1.420291e-001
3.278393e+003, 1.422898e-001
3.280322e+003, 1.424654e-001
3.282250e+003, 1.421688e-001
3.284179e+003, 1.424633e-001
3.286107e+003, 1.435395e-001
3.288036e+003, 1.438733e-001
3.289964e+003, 1.436529e-001
3.291893e+003, 1.438339e-001
3.293821e+003, 1.437787e-001
3.295750e+003, 1.432782e-001
3.297678e+003, 1.434621e-001
3.299606e+003, 1.437917e-001
3.301535e+003, 1.431741e-001
3.303463e+003, 1.430370e-001
3.305392e+003, 1.436866e-001
3.307320e+003, 1.445730e-001
3.309249e+003, 1.443551e-001
3.311177e+003, 1.440605e-001
3.313106e+003, 1.447183e-001
3.315034e+003, 1.444798e-001
3.316963e+003, 1.443800e-001
3.318891e+003, 1.444991e-001
3.320820e+003, 1.453363e-001
3.322748e+003, 1.464560e-001
3.324677e+003, 1.462340e-001
3.326605e+003, 1.452544e-001
3.328533e+003, 1.451975e-001
3.330462e+003, 1.449809e-001
3.332390e+003, 1.450828e-001
3.334319e+003, 1.457056e-001
3.336247e+003, 1.456571e-001
3.338176e+003, 1.458685e-001
3.340104e+003, 1.467196e-001
3.342033e+003, 1.471916e-001
3.343961e+003, 1.474415e-001
3.345890e+003, 1.487906e-001
3.347818e+003, 1.480241e-001
3.349747e+003, 1.469816e-001
3.351675e+003, 1.481976e-001
3.353604e+003, 1.483409e-001
3.355532e+003, 1.474466e-001
3.357460e+003, 1.474396e-001
3.359389e+003, 1.477117e-001
3.361317e+003, 1.484772e-001
3.363246e+003, 1.496930e-001
3.365174e+003, 1.501419e-001
3.367103e+003, 1.505004e-001
3.369031e+003, 1.499668e-001
3.370960e+003, 1.489541e-001
3.372888e+003, 1.481265e-001
3.374817e+003, 1.484912e-001
3.376745e+003, 1.487879e-001
3.378674e+003, 1.482861e-001
3.380602e+003, 1.486418e-001
3.382531e+003, 1.491230e-001
3.384459e+003, 1.495660e-001
3.386387e+003, 1.489875e-001
3.388316e+003, 1.490978e-001
3.390244e+003, 1.498958e-001
3.392173e+003, 1.509186e-001
3.394101e+003, 1.510913e-001
3.396030e+003, 1.509721e-001
3.397958e+003, 1.502495e-001
3.399887e+003, 1.498972e-001
3.401815e+003, 1.490678e-001
3.403744e+003, 1.502669e-001
3.405672e+003, 1.517258e-001
3.407601e+003, 1.508653e-001
3.409529e+003, 1.501548e-001
3.411458e+003, 1.496705e-001
3.413386e+003, 1.493685e-001
3.415314e+003, 1.499467e-001
3.417243e+003, 1.500661e-001
3.419171e+003, 1.503458e-001
3.421100e+003, 1.501620e-001
3.423028e+003, 1.506855e-001
3.424957e+003, 1.507886e-001
3.426885e+003, 1.495613e-001
3.428814e+003, 1.501108e-001
3.430742e+003, 1.500593e-001
3.432671e+003, 1.494877e-001
3.434599e+003, 1.498493e-001
3.436528e+003, 1.518672e-001
3.438456e+003, 1.526440e-001
3.440385e+003, 1.512771e-001
3.442313e+003, 1.503898e-001
3.444241e+003, 1.508909e-001
3.446170e+003, 1.511110e-001
3.448098e+003, 1.511971e-001
3.450027e+003, 1.509589e-001
3.451955e+003, 1.502537e-001
3.453884e+003, 1.501104e-001
3.455812e+003, 1.499430e-001
3.457741e+003, 1.493967e-001
3.459669e+003, 1.491801e-001
3.461598e+003, 1.503724e-001
3.463526e+003, 1.510781e-001
3.465455e+003, 1.514587e-001
3.467383e+003, 1.518971e-001
3.469312e+003, 1.516843e-001
3.471240e+003, 1.514462e-001
3.473168e+003, 1.512339e-001
3.475097e+003, 1.512010e-001
3.477025e+003, 1.513960e-001
3.478954e+003, 1.506835e-001
3.480882e+003, 1.505296e-001
3.482811e+003, 1.517844e-001
3.484739e+003, 1.516581e-001
3.486668e+003, 1.516519e-001
3.488596e+003, 1.518102e-001
3.490525e+003, 1.517049e-001
3.492453e+003, 1.519264e-001
3.494382e+003, 1.523403e-001
3.496310e+003, 1.525948e-001
3.498239e+003, 1.527549e-001
3.500167e+003, 1.531814e-001
3.502095e+003, 1.530147e-001
3.504024e+003, 1.531192e-001
3.505952e+003, 1.534809e-001
3.507881e+003, 1.540956e-001
3.509809e+003, 1.544743e-001
3.511738e+003, 1.538516e-001
3.513666e+003, 1.526912e-001
3.515595e+003, 1.526420e-001
3.517523e+003, 1.532058e-001
3.519452e+003, 1.534464e-001
3.521380e+003, 1.523761e-001
3.523309e+003, 1.526167e-001
3.525237e+003, 1.547041e-001
3.527166e+003, 1.538854e-001
3.529094e+003, 1.524088e-001
3.531022e+003, 1.526977e-001
3.532951e+003, 1.527677e-001
3.534879e+003, 1.524453e-001
3.536808e+003, 1.532995e-001
3.538736e+003, 1.537800e-001
3.540665e+003, 1.545127e-001
3.542593e+003, 1.544242e-001
3.544522e+003, 1.530602e-001
3.546450e+003, 1.536117e-001
3.548379e+003, 1.559414e-001
3.550307e+003, 1.558010e-001
3.552236e+003, 1.535097e-001
3.554164e+003, 1.519289e-001
3.556093e+003, 1.518110e-001
3.558021e+003, 1.529610e-001
3.559949e+003, 1.549108e-001
3.561878e+003, 1.553701e-001
3.563806e+003, 1.542254e-001
3.565735e+003, 1.540097e-001
3.567663e+003, 1.547222e-001
3.569592e+003, 1.556418e-001
3.571520e+003, 1.558900e-001
3.573449e+003, 1.554134e-001
3.575377e+003, 1.554589e-001
3.577306e+003, 1.560219e-001
3.579234e+003, 1.554420e-001
3.581163e+003, 1.535075e-001
3.583091e+003, 1.525362e-001
3.585020e+003, 1.534512e-001
3.586948e+003, 1.559642e-001
3.588876e+003, 1.564476e-001
3.590805e+003, 1.550400e-001
3.592733e+003, 1.564700e-001
3.594662e+003, 1.576704e-001
3.596590e+003, 1.564612e-001
3.598519e+003, 1.550931e-001
3.600447e+003, 1.555123e-001
3.602376e+003, 1.558354e-001
3.604304e+003, 1.551089e-001
3.606233e+003, 1.558249e-001
3.608161e+003, 1.578471e-001
3.610090e+003, 1.595467e-001
3.612018e+003, 1.574876e-001
3.613947e+003, 1.548673e-001
3.615875e+003, 1.541628e-001
3.617803e+003, 1.553996e-001
3.619732e+003, 1.567101e-001
3.621660e+003, 1.576058e-001
3.623589e+003, 1.578965e-001
3.625517e+003, 1.569580e-001
3.627446e+003, 1.573379e-001
3.629374e+003, 1.595989e-001
3.631303e+003, 1.596050e-001
3.633231e+003, 1.585546e-001
3.635160e+003, 1.583156e-001
3.637088e+003, 1.572558e-001
3.639017e+003, 1.560433e-001
3.640945e+003, 1.568112e-001
3.642874e+003, 1.576167e-001
3.644802e+003, 1.579793e-001
3.646730e+003, 1.574446e-001
3.648659e+003, 1.587791e-001
3.650587e+003, 1.583144e-001
3.652516e+003, 1.564931e-001
3.654444e+003, 1.576220e-001
3.656373e+003, 1.600574e-001
3.658301e+003, 1.593345e-001
3.660230e+003, 1.576351e-001
3.662158e+003, 1.562369e-001
3.664087e+003, 1.574544e-001
3.666015e+003, 1.585649e-001
3.667944e+003, 1.581265e-001
3.669872e+003, 1.604909e-001
3.671801e+003, 1.613186e-001
3.673729e+003, 1.606866e-001
3.675657e+003, 1.624496e-001
3.677586e+003, 1.599211e-001
3.679514e+003, 1.583603e-001
3.681443e+003, 1.593589e-001
3.683371e+003, 1.608645e-001
3.685300e+003, 1.617028e-001
3.687228e+003, 1.611474e-001
3.689157e+003, 1.600354e-001
3.691085e+003, 1.584279e-001
3.693014e+003, 1.603358e-001
3.694942e+003, 1.602080e-001
3.696871e+003, 1.588408e-001
3.698799e+003, 1.595559e-001
3.700728e+003, 1.605387e-001
3.702656e+003, 1.607746e-001
3.704584e+003, 1.627315e-001
3.706513e+003, 1.649921e-001
3.708441e+003, 1.636975e-001
3.710370e+003, 1.627266e-001
3.712298e+003, 1.631789e-001
3.714227e+003, 1.617891e-001
3.716155e+003, 1.617607e-001
3.718084e+003, 1.620145e-001
3.720012e+003, 1.617312e-001
3.721941e+003, 1.614002e-001
3.723869e+003, 1.619239e-001
3.725798e+003, 1.623157e-001
3.727726e+003, 1.622202e-001
3.729655e+003, 1.619942e-001
3.731583e+003, 1.639232e-001
3.733511e+003, 1.655651e-001
3.735440e+003, 1.641541e-001
3.737368e+003, 1.632415e-001
3.739297e+003, 1.643342e-001
3.741225e+003, 1.665890e-001
3.743154e+003, 1.659717e-001
3.745082e+003, 1.663682e-001
3.747011e+003, 1.649000e-001
3.748939e+003, 1.654323e-001
3.750868e+003, 1.651801e-001
3.752796e+003, 1.664097e-001
3.754725e+003, 1.653984e-001
3.756653e+003, 1.659870e-001
3.758582e+003, 1.648400e-001
3.760510e+003, 1.645143e-001
3.762438e+003, 1.638824e-001
3.764367e+003, 1.640301e-001
3.766295e+003, 1.646534e-001
3.768224e+003, 1.625644e-001
3.770152e+003, 1.632873e-001
3.772081e+003, 1.637954e-001
3.774009e+003, 1.645118e-001
3.775938e+003, 1.645994e-001
3.777866e+003, 1.653894e-001
3.779795e+003, 1.674795e-001
3.781723e+003, 1.674520e-001
3.783652e+003, 1.654501e-001
3.785580e+003, 1.652184e-001
3.787509e+003, 1.640457e-001
3.789437e+003, 1.637044e-001
3.791365e+003, 1.659091e-001
3.793294e+003, 1.661862e-001
3.795222e+003, 1.664741e-001
3.797151e+003, 1.689486e-001
3.799079e+003, 1.695054e-001
3.801008e+003, 1.692621e-001
3.802936e+003, 1.691131e-001
3.804865e+003, 1.678230e-001
3.806793e+003, 1.662958e-001
3.808722e+003, 1.654704e-001
3.810650e+003, 1.675605e-001
3.812579e+003, 1.686098e-001
3.814507e+003, 1.683478e-001
3.816436e+003, 1.704261e-001
3.818364e+003, 1.702953e-001
3.820292e+003, 1.700003e-001
3.822221e+003, 1.697176e-001
3.824149e+003, 1.677903e-001
3.826078e+003, 1.662200e-001
3.828006e+003, 1.667294e-001
3.829935e+003, 1.666327e-001
3.831863e+003, 1.668430e-001
3.833792e+003, 1.675638e-001
3.835720e+003, 1.698924e-001
3.837649e+003, 1.694594e-001
3.839577e+003, 1.671663e-001
3.841506e+003, 1.664587e-001
3.843434e+003, 1.667798e-001
3.845363e+003, 1.677980e-001
3.847291e+003, 1.680193e-001
3.849219e+003, 1.692927e-001
3.851148e+003, 1.686371e-001
3.853076e+003, 1.685731e-001
3.855005e+003, 1.705641e-001
3.856933e+003, 1.691223e-001
3.858862e+003, 1.682637e-001
3.860790e+003, 1.666562e-001
3.862719e+003, 1.666259e-001
3.864647e+003, 1.692696e-001
3.866576e+003, 1.694502e-001
3.868504e+003, 1.689245e-001
3.870433e+003, 1.702359e-001
3.872361e+003, 1.680317e-001
3.874290e+003, 1.688973e-001
3.876218e+003, 1.694859e-001
3.878146e+003, 1.700066e-001
3.880075e+003, 1.704354e-001
3.882003e+003, 1.710846e-001
3.883932e+003, 1.706423e-001
3.885860e+003, 1.708124e-001
3.887789e+003, 1.706313e-001
3.889717e+003, 1.709385e-001
3.891646e+003, 1.723295e-001
3.893574e+003, 1.715798e-001
3.895503e+003, 1.707218e-001
3.897431e+003, 1.707602e-001
3.899360e+003, 1.705372e-001
3.901288e+003, 1.691257e-001
3.903217e+003, 1.718898e-001
3.905145e+003, 1.740764e-001
3.907073e+003, 1.728296e-001
3.909002e+003, 1.700854e-001
3.910930e+003, 1.701416e-001
3.912859e+003, 1.717820e-001
3.914787e+003, 1.728768e-001
3.916716e+003, 1.735509e-001
3.918644e+003, 1.732897e-001
3.920573e+003, 1.726566e-001
3.922501e+003, 1.724906e-001
3.924430e+003, 1.736460e-001
3.926358e+003, 1.721170e-001
3.928287e+003, 1.700285e-001
3.930215e+003, 1.711614e-001
3.932144e+003, 1.709727e-001
3.934072e+003, 1.702794e-001
3.936000e+003, 1.698298e-001
3.937929e+003, 1.702604e-001
3.939857e+003, 1.703978e-001
3.941786e+003, 1.719983e-001
3.943714e+003, 1.742019e-001
3.945643e+003, 1.729415e-001
3.947571e+003, 1.715962e-001
3.949500e+003, 1.718068e-001
3.951428e+003, 1.728702e-001
3.953357e+003, 1.733905e-001
3.955285e+003, 1.731371e-001
3.957214e+003, 1.740472e-001
3.959142e+003, 1.755311e-001
3.961071e+003, 1.747862e-001
3.962999e+003, 1.738068e-001
3.964927e+003, 1.736201e-001
3.966856e+003, 1.745322e-001
3.968784e+003, 1.755347e-001
3.970713e+003, 1.752368e-001
3.972641e+003, 1.739816e-001
3.974570e+003, 1.727305e-001
3.976498e+003, 1.726153e-001
3.978427e+003, 1.733831e-001
3.980355e+003, 1.750723e-001
3.982284e+003, 1.761370e-001
3.984212e+003, 1.768694e-001
3.986141e+003, 1.772592e-001
3.988069e+003, 1.777433e-001
3.989998e+003, 1.748186e-001
3.991926e+003, 1.730347e-001
3.993854e+003, 1.738148e-001
3.995783e+003, 1.747715e-001
3.997711e+003, 1.754502e-001
3.999640e+003, 1.755311e-001
4.001568e+003, 0.000000e+000
##END=



