##NAMES=Cerussite
##RRUFFID=R050174
##IDEAL CHEMISTRY=Pb^2+^CO_3_
##LOCALITY=Tsumeb mine, Tsumeb, Otavi District, Oshikoto, Namibia
##OWNER=RRUFF
##SOURCE=Marcus Origlieri
##DESCRIPTION=Colorless single crystal
##STATUS=The identification of this mineral has been confirmed by X-ray diffraction and chemical analysis
##URL=rruff.info/R050174
##MEASURED CHEMISTRY=Pb_1.00_CO_3_ ; C not measured but estimated by difference and stoichiometry
3.741225e+002, 2.616151e-002
3.760510e+002, 1.813416e-002
3.779795e+002, 2.132670e-002
3.799079e+002, 2.065396e-002
3.818364e+002, 1.661442e-002
3.837649e+002, 6.843418e-003
3.856933e+002, 1.368471e-002
3.876218e+002, 2.335650e-002
3.895503e+002, 1.895379e-002
3.914787e+002, 1.356400e-002
3.934072e+002, 1.633010e-002
3.953357e+002, 1.775923e-002
3.972641e+002, 1.823732e-002
3.991926e+002, 1.794229e-002
4.011211e+002, 1.637492e-002
4.030495e+002, 1.330476e-002
4.049780e+002, 1.276221e-002
4.069065e+002, 1.571195e-002
4.088349e+002, 1.766769e-002
4.107634e+002, 1.706413e-002
4.126919e+002, 1.554441e-002
4.146203e+002, 1.466019e-002
4.165488e+002, 1.512510e-002
4.184773e+002, 1.774076e-002
4.204057e+002, 1.741590e-002
4.223342e+002, 1.601452e-002
4.242627e+002, 1.615028e-002
4.261911e+002, 1.723570e-002
4.281196e+002, 1.763358e-002
4.300481e+002, 1.682312e-002
4.319765e+002, 1.723309e-002
4.339050e+002, 1.746192e-002
4.358335e+002, 1.642084e-002
4.377619e+002, 1.667476e-002
4.396904e+002, 1.781354e-002
4.416189e+002, 1.805134e-002
4.435473e+002, 1.834551e-002
4.454758e+002, 1.818820e-002
4.474043e+002, 1.842628e-002
4.493327e+002, 1.888638e-002
4.512612e+002, 1.872058e-002
4.531897e+002, 1.981134e-002
4.551181e+002, 2.151126e-002
4.570466e+002, 2.253417e-002
4.589751e+002, 2.290667e-002
4.609035e+002, 2.273570e-002
4.628320e+002, 2.264819e-002
4.647605e+002, 2.314034e-002
4.666889e+002, 2.454489e-002
4.686174e+002, 2.517865e-002
4.705459e+002, 2.519142e-002
4.724743e+002, 2.613971e-002
4.744028e+002, 2.681472e-002
4.763313e+002, 2.685256e-002
4.782597e+002, 2.697687e-002
4.801882e+002, 2.708807e-002
4.821167e+002, 2.675352e-002
4.840451e+002, 2.655228e-002
4.859736e+002, 2.681296e-002
4.879021e+002, 2.713319e-002
4.898305e+002, 2.725005e-002
4.917590e+002, 2.757780e-002
4.936875e+002, 2.722281e-002
4.956159e+002, 2.737027e-002
4.975444e+002, 2.804741e-002
4.994729e+002, 2.834954e-002
5.014013e+002, 2.853343e-002
5.033298e+002, 2.870918e-002
5.052583e+002, 2.856249e-002
5.071867e+002, 2.902369e-002
5.091152e+002, 3.001650e-002
5.110437e+002, 3.110974e-002
5.129721e+002, 3.147708e-002
5.149006e+002, 3.147408e-002
5.168290e+002, 3.184164e-002
5.187575e+002, 3.236350e-002
5.206860e+002, 3.262220e-002
5.226144e+002, 3.301361e-002
5.245429e+002, 3.333218e-002
5.264714e+002, 3.349392e-002
5.283998e+002, 3.435472e-002
5.303283e+002, 3.489189e-002
5.322568e+002, 3.451101e-002
5.341852e+002, 3.447227e-002
5.361137e+002, 3.488544e-002
5.380422e+002, 3.546559e-002
5.399706e+002, 3.583574e-002
5.418991e+002, 3.597297e-002
5.438276e+002, 3.632498e-002
5.457560e+002, 3.709244e-002
5.476845e+002, 3.768784e-002
5.496130e+002, 3.836884e-002
5.515414e+002, 3.869614e-002
5.534699e+002, 3.901860e-002
5.553984e+002, 3.991062e-002
5.573268e+002, 4.075935e-002
5.592553e+002, 4.141110e-002
5.611838e+002, 4.144675e-002
5.631122e+002, 4.122253e-002
5.650407e+002, 4.171427e-002
5.669692e+002, 4.299242e-002
5.688976e+002, 4.360419e-002
5.708261e+002, 4.412324e-002
5.727546e+002, 4.513452e-002
5.746830e+002, 4.549945e-002
5.766115e+002, 4.551390e-002
5.785400e+002, 4.632102e-002
5.804684e+002, 4.752658e-002
5.823969e+002, 4.818451e-002
5.843254e+002, 4.870629e-002
5.862538e+002, 4.940102e-002
5.881823e+002, 4.999264e-002
5.901108e+002, 5.076104e-002
5.920392e+002, 5.198851e-002
5.939677e+002, 5.266829e-002
5.958962e+002, 5.322811e-002
5.978246e+002, 5.372830e-002
5.997531e+002, 5.425872e-002
6.016816e+002, 5.517541e-002
6.036100e+002, 5.617976e-002
6.055385e+002, 5.708821e-002
6.074670e+002, 5.813165e-002
6.093954e+002, 5.919487e-002
6.113239e+002, 6.020536e-002
6.132524e+002, 6.119741e-002
6.151808e+002, 6.239662e-002
6.171093e+002, 6.372625e-002
6.190378e+002, 6.490391e-002
6.209662e+002, 6.615405e-002
6.228947e+002, 6.749728e-002
6.248232e+002, 6.861314e-002
6.267516e+002, 6.975522e-002
6.286801e+002, 7.083227e-002
6.306086e+002, 7.220461e-002
6.325370e+002, 7.370029e-002
6.344655e+002, 7.540113e-002
6.363940e+002, 7.707799e-002
6.383224e+002, 7.862711e-002
6.402509e+002, 8.083539e-002
6.421794e+002, 8.323874e-002
6.441078e+002, 8.572048e-002
6.460363e+002, 8.840503e-002
6.479648e+002, 9.114271e-002
6.498932e+002, 9.443671e-002
6.518217e+002, 9.806514e-002
6.537502e+002, 1.021389e-001
6.556786e+002, 1.072348e-001
6.576071e+002, 1.136544e-001
6.595356e+002, 1.215033e-001
6.614641e+002, 1.310768e-001
6.633925e+002, 1.434317e-001
6.653210e+002, 1.585496e-001
6.672495e+002, 1.764978e-001
6.691779e+002, 2.005301e-001
6.711064e+002, 2.326708e-001
6.730349e+002, 2.760400e-001
6.749633e+002, 3.194469e-001
6.768918e+002, 3.095157e-001
6.788203e+002, 2.360819e-001
6.807487e+002, 1.484188e-001
6.826772e+002, 7.686812e-002
6.846057e+002, 3.889209e-002
6.865341e+002, 2.664317e-002
6.884626e+002, 2.372679e-002
6.903911e+002, 2.362782e-002
6.923195e+002, 2.464945e-002
6.942480e+002, 2.639852e-002
6.961765e+002, 2.931303e-002
6.981049e+002, 3.345589e-002
7.000334e+002, 3.437446e-002
7.019619e+002, 3.325553e-002
7.038903e+002, 3.412151e-002
7.058188e+002, 3.600515e-002
7.077473e+002, 3.797228e-002
7.096757e+002, 3.987437e-002
7.116042e+002, 4.163800e-002
7.135327e+002, 4.324813e-002
7.154611e+002, 4.512469e-002
7.173896e+002, 4.705141e-002
7.193181e+002, 4.893981e-002
7.212465e+002, 5.060673e-002
7.231750e+002, 5.209787e-002
7.251035e+002, 5.347576e-002
7.270319e+002, 5.472995e-002
7.289604e+002, 5.575448e-002
7.308889e+002, 5.654789e-002
7.328173e+002, 5.740835e-002
7.347458e+002, 5.834177e-002
7.366743e+002, 5.900026e-002
7.386027e+002, 5.938778e-002
7.405312e+002, 5.952030e-002
7.424597e+002, 5.967143e-002
7.443881e+002, 6.015688e-002
7.463166e+002, 6.096942e-002
7.482451e+002, 6.190366e-002
7.501735e+002, 6.279466e-002
7.521020e+002, 6.377726e-002
7.540305e+002, 6.468317e-002
7.559589e+002, 6.557430e-002
7.578874e+002, 6.668792e-002
7.598159e+002, 6.761007e-002
7.617443e+002, 6.863372e-002
7.636728e+002, 6.975223e-002
7.656013e+002, 7.099919e-002
7.675297e+002, 7.222892e-002
7.694582e+002, 7.338458e-002
7.713867e+002, 7.455044e-002
7.733151e+002, 7.573992e-002
7.752436e+002, 7.692811e-002
7.771721e+002, 7.829888e-002
7.791005e+002, 7.976771e-002
7.810290e+002, 8.097165e-002
7.829575e+002, 8.200423e-002
7.848859e+002, 8.282848e-002
7.868144e+002, 8.368407e-002
7.887429e+002, 8.484550e-002
7.906713e+002, 8.633702e-002
7.925998e+002, 8.776442e-002
7.945283e+002, 8.930236e-002
7.964567e+002, 9.127797e-002
7.983852e+002, 9.327901e-002
8.003137e+002, 9.495457e-002
8.022421e+002, 9.630087e-002
8.041706e+002, 9.807754e-002
8.060991e+002, 1.005833e-001
8.080275e+002, 1.031940e-001
8.099560e+002, 1.063745e-001
8.118845e+002, 1.103232e-001
8.138129e+002, 1.147376e-001
8.157414e+002, 1.204289e-001
8.176699e+002, 1.281182e-001
8.195983e+002, 1.391583e-001
8.215268e+002, 1.546988e-001
8.234553e+002, 1.634169e-001
8.253837e+002, 1.628516e-001
8.273122e+002, 1.744943e-001
8.292407e+002, 1.994384e-001
8.311691e+002, 2.304732e-001
8.330976e+002, 2.655952e-001
8.350261e+002, 3.001082e-001
8.369545e+002, 3.142084e-001
8.388830e+002, 2.855276e-001
8.408115e+002, 2.237473e-001
8.427399e+002, 1.607322e-001
8.446684e+002, 1.183750e-001
8.465969e+002, 9.731683e-002
8.485253e+002, 8.804551e-002
8.504538e+002, 8.375996e-002
8.523823e+002, 8.134503e-002
8.543107e+002, 7.998011e-002
8.562392e+002, 7.952645e-002
8.581677e+002, 7.942567e-002
8.600961e+002, 7.923046e-002
8.620246e+002, 7.920764e-002
8.639531e+002, 7.964342e-002
8.658815e+002, 8.036634e-002
8.678100e+002, 8.119646e-002
8.697385e+002, 8.219963e-002
8.716669e+002, 8.269215e-002
8.735954e+002, 8.253004e-002
8.755239e+002, 8.250181e-002
8.774523e+002, 8.312642e-002
8.793808e+002, 8.383368e-002
8.813093e+002, 8.444084e-002
8.832377e+002, 8.505136e-002
8.851662e+002, 8.558545e-002
8.870947e+002, 8.621683e-002
8.890231e+002, 8.702868e-002
8.909516e+002, 8.765057e-002
8.928801e+002, 8.826724e-002
8.948085e+002, 8.883034e-002
8.967370e+002, 8.949240e-002
8.986655e+002, 9.015440e-002
9.005939e+002, 9.086373e-002
9.025224e+002, 9.163857e-002
9.044509e+002, 9.231312e-002
9.063793e+002, 9.305089e-002
9.083078e+002, 9.391584e-002
9.102363e+002, 9.465045e-002
9.121647e+002, 9.543751e-002
9.140932e+002, 9.616529e-002
9.160217e+002, 9.677539e-002
9.179501e+002, 9.762045e-002
9.198786e+002, 9.863802e-002
9.218071e+002, 9.980948e-002
9.237355e+002, 1.005075e-001
9.256640e+002, 1.009747e-001
9.275925e+002, 1.015724e-001
9.295209e+002, 1.022925e-001
9.314494e+002, 1.031272e-001
9.333779e+002, 1.038280e-001
9.353063e+002, 1.047306e-001
9.372348e+002, 1.056124e-001
9.391633e+002, 1.064477e-001
9.410917e+002, 1.071049e-001
9.430202e+002, 1.078475e-001
9.449487e+002, 1.088688e-001
9.468771e+002, 1.097202e-001
9.488056e+002, 1.104853e-001
9.507341e+002, 1.115782e-001
9.526625e+002, 1.125619e-001
9.545910e+002, 1.134159e-001
9.565195e+002, 1.142752e-001
9.584479e+002, 1.150247e-001
9.603764e+002, 1.156398e-001
9.623049e+002, 1.164152e-001
9.642333e+002, 1.170918e-001
9.661618e+002, 1.177871e-001
9.680903e+002, 1.186409e-001
9.700187e+002, 1.193666e-001
9.719472e+002, 1.201609e-001
9.738757e+002, 1.211326e-001
9.758041e+002, 1.219808e-001
9.777326e+002, 1.230898e-001
9.796611e+002, 1.244186e-001
9.815895e+002, 1.259767e-001
9.835180e+002, 1.279146e-001
9.854465e+002, 1.294406e-001
9.873749e+002, 1.302101e-001
9.893034e+002, 1.309884e-001
9.912319e+002, 1.314301e-001
9.931603e+002, 1.319987e-001
9.950888e+002, 1.323926e-001
9.970173e+002, 1.324452e-001
9.989457e+002, 1.323224e-001
1.000874e+003, 1.322931e-001
1.002803e+003, 1.323300e-001
1.004731e+003, 1.326480e-001
1.006660e+003, 1.330635e-001
1.008588e+003, 1.335173e-001
1.010517e+003, 1.341030e-001
1.012445e+003, 1.351046e-001
1.014373e+003, 1.362805e-001
1.016302e+003, 1.373283e-001
1.018230e+003, 1.382446e-001
1.020159e+003, 1.392356e-001
1.022087e+003, 1.405566e-001
1.024016e+003, 1.421181e-001
1.025944e+003, 1.435989e-001
1.027873e+003, 1.455223e-001
1.029801e+003, 1.477573e-001
1.031730e+003, 1.494260e-001
1.033658e+003, 1.507190e-001
1.035587e+003, 1.530286e-001
1.037515e+003, 1.559425e-001
1.039443e+003, 1.599128e-001
1.041372e+003, 1.646971e-001
1.043300e+003, 1.719673e-001
1.045229e+003, 1.838643e-001
1.047157e+003, 2.079780e-001
1.049086e+003, 2.568716e-001
1.051014e+003, 2.834993e-001
1.052943e+003, 2.151016e-001
1.054871e+003, 1.535973e-001
1.056800e+003, 1.401153e-001
1.058728e+003, 1.409499e-001
1.060657e+003, 1.437422e-001
1.062585e+003, 1.462764e-001
1.064514e+003, 1.489638e-001
1.066442e+003, 1.511670e-001
1.068370e+003, 1.531788e-001
1.070299e+003, 1.553541e-001
1.072227e+003, 1.576225e-001
1.074156e+003, 1.592665e-001
1.076084e+003, 1.614003e-001
1.078013e+003, 1.636717e-001
1.079941e+003, 1.657694e-001
1.081870e+003, 1.677525e-001
1.083798e+003, 1.700313e-001
1.085727e+003, 1.719364e-001
1.087655e+003, 1.742135e-001
1.089584e+003, 1.764130e-001
1.091512e+003, 1.785018e-001
1.093441e+003, 1.804073e-001
1.095369e+003, 1.821657e-001
1.097297e+003, 1.834456e-001
1.099226e+003, 1.845625e-001
1.101154e+003, 1.855035e-001
1.103083e+003, 1.862428e-001
1.105011e+003, 1.865514e-001
1.106940e+003, 1.860946e-001
1.108868e+003, 1.849349e-001
1.110797e+003, 1.839559e-001
1.112725e+003, 1.828602e-001
1.114654e+003, 1.815478e-001
1.116582e+003, 1.806595e-001
1.118511e+003, 1.808427e-001
1.120439e+003, 1.816132e-001
1.122368e+003, 1.827483e-001
1.124296e+003, 1.839910e-001
1.126224e+003, 1.854734e-001
1.128153e+003, 1.867597e-001
1.130081e+003, 1.880265e-001
1.132010e+003, 1.891989e-001
1.133938e+003, 1.903800e-001
1.135867e+003, 1.915168e-001
1.137795e+003, 1.927534e-001
1.139724e+003, 1.938448e-001
1.141652e+003, 1.947563e-001
1.143581e+003, 1.957335e-001
1.145509e+003, 1.970289e-001
1.147438e+003, 1.980424e-001
1.149366e+003, 1.992686e-001
1.151295e+003, 2.004322e-001
1.153223e+003, 2.015078e-001
1.155151e+003, 2.025685e-001
1.157080e+003, 2.036915e-001
1.159008e+003, 2.049956e-001
1.160937e+003, 2.062874e-001
1.162865e+003, 2.075976e-001
1.164794e+003, 2.091767e-001
1.166722e+003, 2.104794e-001
1.168651e+003, 2.116841e-001
1.170579e+003, 2.129344e-001
1.172508e+003, 2.145194e-001
1.174436e+003, 2.159875e-001
1.176365e+003, 2.174038e-001
1.178293e+003, 2.189778e-001
1.180222e+003, 2.206798e-001
1.182150e+003, 2.223318e-001
1.184078e+003, 2.239422e-001
1.186007e+003, 2.254111e-001
1.187935e+003, 2.269063e-001
1.189864e+003, 2.284080e-001
1.191792e+003, 2.301568e-001
1.193721e+003, 2.319965e-001
1.195649e+003, 2.339539e-001
1.197578e+003, 2.357711e-001
1.199506e+003, 2.374134e-001
1.201435e+003, 2.391595e-001
1.203363e+003, 2.408177e-001
1.205292e+003, 2.423220e-001
1.207220e+003, 2.440146e-001
1.209149e+003, 2.457977e-001
1.211077e+003, 2.476431e-001
1.213005e+003, 2.495867e-001
1.214934e+003, 2.515557e-001
1.216862e+003, 2.536395e-001
1.218791e+003, 2.555047e-001
1.220719e+003, 2.575970e-001
1.222648e+003, 2.596742e-001
1.224576e+003, 2.618281e-001
1.226505e+003, 2.643435e-001
1.228433e+003, 2.667850e-001
1.230362e+003, 2.690993e-001
1.232290e+003, 2.715957e-001
1.234219e+003, 2.743319e-001
1.236147e+003, 2.768218e-001
1.238076e+003, 2.794375e-001
1.240004e+003, 2.820567e-001
1.241932e+003, 2.849531e-001
1.243861e+003, 2.878468e-001
1.245789e+003, 2.905402e-001
1.247718e+003, 2.933968e-001
1.249646e+003, 2.963971e-001
1.251575e+003, 2.995417e-001
1.253503e+003, 3.027254e-001
1.255432e+003, 3.059353e-001
1.257360e+003, 3.090609e-001
1.259289e+003, 3.121786e-001
1.261217e+003, 3.154548e-001
1.263146e+003, 3.188930e-001
1.265074e+003, 3.221858e-001
1.267003e+003, 3.255065e-001
1.268931e+003, 3.290969e-001
1.270859e+003, 3.327721e-001
1.272788e+003, 3.366402e-001
1.274716e+003, 3.402754e-001
1.276645e+003, 3.438212e-001
1.278573e+003, 3.473123e-001
1.280502e+003, 3.508521e-001
1.282430e+003, 3.545925e-001
1.284359e+003, 3.582048e-001
1.286287e+003, 3.617229e-001
1.288216e+003, 3.652384e-001
1.290144e+003, 3.686064e-001
1.292073e+003, 3.720831e-001
1.294001e+003, 3.753856e-001
1.295930e+003, 3.786909e-001
1.297858e+003, 3.819320e-001
1.299786e+003, 3.846339e-001
1.301715e+003, 3.869943e-001
1.303643e+003, 3.895873e-001
1.305572e+003, 3.921169e-001
1.307500e+003, 3.944467e-001
1.309429e+003, 3.966402e-001
1.311357e+003, 3.990355e-001
1.313286e+003, 4.018017e-001
1.315214e+003, 4.047425e-001
1.317143e+003, 4.078029e-001
1.319071e+003, 4.113388e-001
1.321000e+003, 4.149061e-001
1.322928e+003, 4.187185e-001
1.324857e+003, 4.225875e-001
1.326785e+003, 4.267216e-001
1.328714e+003, 4.310881e-001
1.330642e+003, 4.356379e-001
1.332570e+003, 4.399798e-001
1.334499e+003, 4.443052e-001
1.336427e+003, 4.490385e-001
1.338356e+003, 4.538159e-001
1.340284e+003, 4.585016e-001
1.342213e+003, 4.637663e-001
1.344141e+003, 4.694895e-001
1.346070e+003, 4.753418e-001
1.347998e+003, 4.814319e-001
1.349927e+003, 4.875780e-001
1.351855e+003, 4.937513e-001
1.353784e+003, 4.998986e-001
1.355712e+003, 5.057473e-001
1.357641e+003, 5.115395e-001
1.359569e+003, 5.174826e-001
1.361497e+003, 5.231263e-001
1.363426e+003, 5.283991e-001
1.365354e+003, 5.335000e-001
1.367283e+003, 5.379537e-001
1.369211e+003, 5.414438e-001
1.371140e+003, 5.438839e-001
1.373068e+003, 5.451061e-001
1.374997e+003, 5.447817e-001
1.376925e+003, 5.432428e-001
1.378854e+003, 5.407032e-001
1.380782e+003, 5.364113e-001
1.382711e+003, 5.302886e-001
1.384639e+003, 5.228906e-001
1.386568e+003, 5.143227e-001
1.388496e+003, 5.041665e-001
1.390424e+003, 4.929652e-001
1.392353e+003, 4.808877e-001
1.394281e+003, 4.684610e-001
1.396210e+003, 4.555878e-001
1.398138e+003, 4.425783e-001
1.400067e+003, 4.293870e-001
1.401995e+003, 4.162194e-001
1.403924e+003, 4.039602e-001
1.405852e+003, 3.924318e-001
1.407781e+003, 3.820976e-001
1.409709e+003, 3.734345e-001
1.411638e+003, 3.664177e-001
1.413566e+003, 3.607408e-001
1.415495e+003, 3.561260e-001
1.417423e+003, 3.529730e-001
1.419351e+003, 3.511063e-001
1.421280e+003, 3.494721e-001
1.423208e+003, 3.481180e-001
1.425137e+003, 3.469562e-001
1.427065e+003, 3.449027e-001
1.428994e+003, 3.417705e-001
1.430922e+003, 3.373929e-001
1.432851e+003, 3.316281e-001
1.434779e+003, 3.251043e-001
1.436708e+003, 3.174715e-001
1.438636e+003, 3.084209e-001
1.440565e+003, 2.992518e-001
1.442493e+003, 2.901973e-001
1.444422e+003, 2.813030e-001
1.446350e+003, 2.723922e-001
1.448278e+003, 2.636012e-001
1.450207e+003, 2.550067e-001
1.452135e+003, 2.469577e-001
1.454064e+003, 2.392945e-001
1.455992e+003, 2.318812e-001
1.457921e+003, 2.241187e-001
1.459849e+003, 2.165276e-001
1.461778e+003, 2.094775e-001
1.463706e+003, 2.024217e-001
1.465635e+003, 1.953677e-001
1.467563e+003, 1.884406e-001
1.469492e+003, 1.816471e-001
1.471420e+003, 1.750248e-001
1.473349e+003, 1.682834e-001
1.475277e+003, 1.612058e-001
1.477205e+003, 1.541012e-001
1.479134e+003, 1.470449e-001
1.481062e+003, 1.397677e-001
1.482991e+003, 1.324225e-001
1.484919e+003, 1.253081e-001
1.486848e+003, 1.181816e-001
1.488776e+003, 1.112340e-001
1.490705e+003, 1.044313e-001
1.492633e+003, 9.781009e-002
1.494562e+003, 9.183149e-002
1.496490e+003, 8.623867e-002
1.498419e+003, 8.067570e-002
1.500347e+003, 7.565591e-002
1.502276e+003, 7.126326e-002
1.504204e+003, 6.758604e-002
1.506132e+003, 6.435755e-002
1.508061e+003, 6.082918e-002
1.509989e+003, 5.753864e-002
1.511918e+003, 5.503871e-002
1.513846e+003, 5.273235e-002
1.515775e+003, 5.078560e-002
1.517703e+003, 4.899696e-002
1.519632e+003, 4.746268e-002
1.521560e+003, 4.612365e-002
1.523489e+003, 4.450754e-002
1.525417e+003, 4.304431e-002
1.527346e+003, 4.172067e-002
1.529274e+003, 4.039006e-002
1.531203e+003, 3.926450e-002
1.533131e+003, 3.840962e-002
1.535059e+003, 3.727695e-002
1.536988e+003, 3.649380e-002
1.538916e+003, 3.625093e-002
1.540845e+003, 3.540350e-002
1.542773e+003, 3.415928e-002
1.544702e+003, 3.312565e-002
1.546630e+003, 3.222660e-002
1.548559e+003, 3.168129e-002
1.550487e+003, 3.108672e-002
1.552416e+003, 3.064171e-002
1.554344e+003, 3.043976e-002
1.556273e+003, 3.029722e-002
1.558201e+003, 3.031490e-002
1.560130e+003, 2.967045e-002
1.562058e+003, 2.870397e-002
1.563986e+003, 2.824245e-002
1.565915e+003, 2.775169e-002
1.567843e+003, 2.731676e-002
1.569772e+003, 2.692034e-002
1.571700e+003, 2.638866e-002
1.573629e+003, 2.608235e-002
1.575557e+003, 2.609348e-002
1.577486e+003, 2.554547e-002
1.579414e+003, 2.489814e-002
1.581343e+003, 2.452632e-002
1.583271e+003, 2.430009e-002
1.585200e+003, 2.397169e-002
1.587128e+003, 2.348577e-002
1.589057e+003, 2.323801e-002
1.590985e+003, 2.310500e-002
1.592913e+003, 2.295894e-002
1.594842e+003, 2.275232e-002
1.596770e+003, 2.269378e-002
1.598699e+003, 2.253791e-002
1.600627e+003, 2.237179e-002
1.602556e+003, 2.248281e-002
1.604484e+003, 2.250530e-002
1.606413e+003, 2.240060e-002
1.608341e+003, 2.223227e-002
1.610270e+003, 2.224345e-002
1.612198e+003, 2.224665e-002
1.614127e+003, 2.248353e-002
1.616055e+003, 2.281556e-002
1.617984e+003, 2.237491e-002
1.619912e+003, 2.193196e-002
1.621840e+003, 2.205953e-002
1.623769e+003, 2.209015e-002
1.625697e+003, 2.209938e-002
1.627626e+003, 2.224524e-002
1.629554e+003, 2.219482e-002
1.631483e+003, 2.201411e-002
1.633411e+003, 2.218743e-002
1.635340e+003, 2.245367e-002
1.637268e+003, 2.222739e-002
1.639197e+003, 2.195372e-002
1.641125e+003, 2.208538e-002
1.643054e+003, 2.229228e-002
1.644982e+003, 2.258235e-002
1.646911e+003, 2.279105e-002
1.648839e+003, 2.274425e-002
1.650767e+003, 2.313077e-002
1.652696e+003, 2.400482e-002
1.654624e+003, 2.326590e-002
1.656553e+003, 2.246060e-002
1.658481e+003, 2.242711e-002
1.660410e+003, 2.256518e-002
1.662338e+003, 2.281249e-002
1.664267e+003, 2.288733e-002
1.666195e+003, 2.273671e-002
1.668124e+003, 2.309990e-002
1.670052e+003, 2.337076e-002
1.671981e+003, 2.329631e-002
1.673909e+003, 2.332124e-002
1.675838e+003, 2.346399e-002
1.677766e+003, 2.340603e-002
1.679694e+003, 2.359082e-002
1.681623e+003, 2.392920e-002
1.683551e+003, 2.478588e-002
1.685480e+003, 2.503950e-002
1.687408e+003, 2.474429e-002
1.689337e+003, 2.485264e-002
1.691265e+003, 2.508648e-002
1.693194e+003, 2.562124e-002
1.695122e+003, 2.674046e-002
1.697051e+003, 2.691807e-002
1.698979e+003, 2.700758e-002
1.700908e+003, 2.726076e-002
1.702836e+003, 2.697947e-002
1.704765e+003, 2.721187e-002
1.706693e+003, 2.724647e-002
1.708621e+003, 2.752274e-002
1.710550e+003, 2.824413e-002
1.712478e+003, 2.910484e-002
1.714407e+003, 3.011898e-002
1.716335e+003, 3.173622e-002
1.718264e+003, 3.360322e-002
1.720192e+003, 3.656348e-002
1.722121e+003, 4.264755e-002
1.724049e+003, 5.175880e-002
1.725978e+003, 6.063757e-002
1.727906e+003, 6.460409e-002
1.729835e+003, 6.295669e-002
1.731763e+003, 5.722947e-002
1.733692e+003, 5.072040e-002
1.735620e+003, 4.698417e-002
1.737548e+003, 4.708496e-002
1.739477e+003, 4.792072e-002
1.741405e+003, 4.651041e-002
1.743334e+003, 4.238918e-002
1.745262e+003, 3.716255e-002
1.747191e+003, 3.297893e-002
1.749119e+003, 3.068670e-002
1.751048e+003, 2.950301e-002
1.752976e+003, 2.851961e-002
1.754905e+003, 2.834009e-002
1.756833e+003, 2.862980e-002
1.758762e+003, 2.882824e-002
1.760690e+003, 2.919476e-002
1.762619e+003, 2.949582e-002
1.764547e+003, 2.990060e-002
1.766475e+003, 3.038280e-002
1.768404e+003, 3.038585e-002
1.770332e+003, 3.067515e-002
1.772261e+003, 3.149702e-002
1.774189e+003, 3.164331e-002
1.776118e+003, 3.133802e-002
1.778046e+003, 3.142107e-002
1.779975e+003, 3.202737e-002
1.781903e+003, 3.239457e-002
1.783832e+003, 3.251728e-002
1.785760e+003, 3.272844e-002
1.787689e+003, 3.286605e-002
1.789617e+003, 3.288270e-002
1.791546e+003, 3.338185e-002
1.793474e+003, 3.396942e-002
1.795402e+003, 3.415946e-002
1.797331e+003, 3.413281e-002
1.799259e+003, 3.420705e-002
1.801188e+003, 3.470644e-002
1.803116e+003, 3.499683e-002
1.805045e+003, 3.506147e-002
1.806973e+003, 3.536939e-002
1.808902e+003, 3.556584e-002
1.810830e+003, 3.578402e-002
1.812759e+003, 3.614252e-002
1.814687e+003, 3.623625e-002
1.816616e+003, 3.626455e-002
1.818544e+003, 3.671980e-002
1.820473e+003, 3.742125e-002
1.822401e+003, 3.787575e-002
1.824329e+003, 3.814160e-002
1.826258e+003, 3.795584e-002
1.828186e+003, 3.794643e-002
1.830115e+003, 3.817711e-002
1.832043e+003, 3.869840e-002
1.833972e+003, 3.938182e-002
1.835900e+003, 3.938891e-002
1.837829e+003, 3.918184e-002
1.839757e+003, 3.901105e-002
1.841686e+003, 3.925611e-002
1.843614e+003, 3.999782e-002
1.845543e+003, 4.029728e-002
1.847471e+003, 4.021375e-002
1.849400e+003, 4.037274e-002
1.851328e+003, 4.063018e-002
1.853256e+003, 4.069142e-002
1.855185e+003, 4.116088e-002
1.857113e+003, 4.202711e-002
1.859042e+003, 4.234782e-002
1.860970e+003, 4.228558e-002
1.862899e+003, 4.239503e-002
1.864827e+003, 4.250611e-002
1.866756e+003, 4.263149e-002
1.868684e+003, 4.301385e-002
1.870613e+003, 4.348753e-002
1.872541e+003, 4.318454e-002
1.874470e+003, 4.360105e-002
1.876398e+003, 4.422157e-002
1.878327e+003, 4.421116e-002
1.880255e+003, 4.409734e-002
1.882183e+003, 4.408024e-002
1.884112e+003, 4.447731e-002
1.886040e+003, 4.505463e-002
1.887969e+003, 4.530039e-002
1.889897e+003, 4.566689e-002
1.891826e+003, 4.589589e-002
1.893754e+003, 4.594944e-002
1.895683e+003, 4.603967e-002
1.897611e+003, 4.594602e-002
1.899540e+003, 4.612888e-002
1.901468e+003, 4.619870e-002
1.903397e+003, 4.588640e-002
1.905325e+003, 4.616524e-002
1.907254e+003, 4.633352e-002
1.909182e+003, 4.666072e-002
1.911110e+003, 4.744988e-002
1.913039e+003, 4.723531e-002
1.914967e+003, 4.709906e-002
1.916896e+003, 4.777203e-002
1.918824e+003, 4.829984e-002
1.920753e+003, 4.788096e-002
1.922681e+003, 4.750933e-002
1.924610e+003, 4.741497e-002
1.926538e+003, 4.780197e-002
1.928467e+003, 4.813226e-002
1.930395e+003, 4.836718e-002
1.932324e+003, 4.821353e-002
1.934252e+003, 4.850687e-002
1.936181e+003, 4.948016e-002
1.938109e+003, 4.918188e-002
1.940037e+003, 4.868668e-002
1.941966e+003, 4.953840e-002
1.943894e+003, 5.018562e-002
1.945823e+003, 4.971228e-002
1.947751e+003, 4.964062e-002
1.949680e+003, 4.976143e-002
1.951608e+003, 5.044695e-002
1.953537e+003, 5.055156e-002
1.955465e+003, 5.000687e-002
1.957394e+003, 4.892555e-002
1.959322e+003, 4.826404e-002
1.961251e+003, 4.924101e-002
1.963179e+003, 5.015260e-002
1.965108e+003, 5.022610e-002
1.967036e+003, 5.001649e-002
1.968964e+003, 4.984592e-002
1.970893e+003, 5.015991e-002
1.972821e+003, 5.125902e-002
1.974750e+003, 5.088966e-002
1.976678e+003, 5.085242e-002
1.978607e+003, 5.379022e-002
1.980535e+003, 5.506127e-002
1.982464e+003, 5.389717e-002
1.984392e+003, 5.274975e-002
1.986321e+003, 5.312510e-002
1.988249e+003, 5.388930e-002
1.990178e+003, 5.320217e-002
1.992106e+003, 5.335018e-002
1.994035e+003, 5.425908e-002
1.995963e+003, 5.378139e-002
1.997891e+003, 5.332264e-002
1.999820e+003, 5.347114e-002
2.001748e+003, 5.309118e-002
2.003677e+003, 5.286567e-002
2.005605e+003, 5.341397e-002
2.007534e+003, 5.389105e-002
2.009462e+003, 5.392385e-002
2.011391e+003, 5.406790e-002
2.013319e+003, 5.513298e-002
2.015248e+003, 5.601550e-002
2.017176e+003, 5.570500e-002
2.019105e+003, 5.546836e-002
2.021033e+003, 5.487083e-002
2.022962e+003, 5.540888e-002
2.024890e+003, 5.678056e-002
2.026818e+003, 5.795093e-002
2.028747e+003, 5.709052e-002
2.030675e+003, 5.603376e-002
2.032604e+003, 5.659631e-002
2.034532e+003, 5.782646e-002
2.036461e+003, 5.779187e-002
2.038389e+003, 5.828674e-002
2.040318e+003, 5.825503e-002
2.042246e+003, 5.800019e-002
2.044175e+003, 5.904274e-002
2.046103e+003, 6.062768e-002
2.048031e+003, 6.095244e-002
2.049960e+003, 6.121753e-002
2.051888e+003, 6.199144e-002
2.053817e+003, 6.132374e-002
2.055745e+003, 6.096173e-002
2.057674e+003, 6.105543e-002
2.059602e+003, 6.078558e-002
2.061531e+003, 6.127856e-002
2.063459e+003, 6.221451e-002
2.065388e+003, 6.189738e-002
2.067316e+003, 6.166517e-002
2.069245e+003, 6.192430e-002
2.071173e+003, 6.239280e-002
2.073102e+003, 6.289010e-002
2.075030e+003, 6.324437e-002
2.076958e+003, 6.266770e-002
2.078887e+003, 6.275705e-002
2.080815e+003, 6.320079e-002
2.082744e+003, 6.328149e-002
2.084672e+003, 6.359991e-002
2.086601e+003, 6.368285e-002
2.088529e+003, 6.347619e-002
2.090458e+003, 6.349781e-002
2.092386e+003, 6.342650e-002
2.094315e+003, 6.280854e-002
2.096243e+003, 6.302825e-002
2.098172e+003, 6.401638e-002
2.100100e+003, 6.388995e-002
2.102029e+003, 6.310397e-002
2.103957e+003, 6.330299e-002
2.105885e+003, 6.538161e-002
2.107814e+003, 6.704147e-002
2.109742e+003, 6.710650e-002
2.111671e+003, 6.659080e-002
2.113599e+003, 6.601542e-002
2.115528e+003, 6.557444e-002
2.117456e+003, 6.537649e-002
2.119385e+003, 6.642857e-002
2.121313e+003, 6.752688e-002
2.123242e+003, 6.770615e-002
2.125170e+003, 6.712691e-002
2.127099e+003, 6.663270e-002
2.129027e+003, 6.601372e-002
2.130956e+003, 6.495354e-002
2.132884e+003, 6.498116e-002
2.134813e+003, 6.615231e-002
2.136741e+003, 6.682290e-002
2.138669e+003, 6.717135e-002
2.140598e+003, 6.691630e-002
2.142526e+003, 6.567427e-002
2.144455e+003, 6.458932e-002
2.146383e+003, 6.564528e-002
2.148312e+003, 6.574649e-002
2.150240e+003, 6.559279e-002
2.152169e+003, 6.557810e-002
2.154097e+003, 6.476922e-002
2.156026e+003, 6.285658e-002
2.157954e+003, 6.240306e-002
2.159883e+003, 6.680711e-002
2.161811e+003, 6.879152e-002
2.163740e+003, 6.829677e-002
2.165668e+003, 6.906892e-002
2.167596e+003, 6.973011e-002
2.169525e+003, 6.925057e-002
2.171453e+003, 6.891093e-002
2.173382e+003, 6.868871e-002
2.175310e+003, 6.741714e-002
2.177239e+003, 6.699520e-002
2.179167e+003, 6.809082e-002
2.181096e+003, 6.882625e-002
2.183024e+003, 6.949449e-002
2.184953e+003, 7.121633e-002
2.186881e+003, 7.127037e-002
2.188810e+003, 7.028008e-002
2.190738e+003, 7.099811e-002
2.192667e+003, 7.098821e-002
2.194595e+003, 7.091590e-002
2.196523e+003, 7.089739e-002
2.198452e+003, 7.095728e-002
2.200380e+003, 7.161617e-002
2.202309e+003, 7.210019e-002
2.204237e+003, 7.230336e-002
2.206166e+003, 7.300144e-002
2.208094e+003, 7.251668e-002
2.210023e+003, 7.215946e-002
2.211951e+003, 7.281204e-002
2.213880e+003, 7.289736e-002
2.215808e+003, 7.206480e-002
2.217737e+003, 7.226216e-002
2.219665e+003, 7.333060e-002
2.221594e+003, 7.398845e-002
2.223522e+003, 7.377907e-002
2.225450e+003, 7.422543e-002
2.227379e+003, 7.514874e-002
2.229307e+003, 7.606888e-002
2.231236e+003, 7.734694e-002
2.233164e+003, 7.724896e-002
2.235093e+003, 7.669289e-002
2.237021e+003, 7.669890e-002
2.238950e+003, 7.727638e-002
2.240878e+003, 7.626999e-002
2.242807e+003, 7.589223e-002
2.244735e+003, 7.665598e-002
2.246664e+003, 7.719248e-002
2.248592e+003, 7.691971e-002
2.250521e+003, 7.716029e-002
2.252449e+003, 7.756341e-002
2.254377e+003, 7.761171e-002
2.256306e+003, 7.714953e-002
2.258234e+003, 7.795997e-002
2.260163e+003, 7.845865e-002
2.262091e+003, 7.865413e-002
2.264020e+003, 7.895884e-002
2.265948e+003, 7.928135e-002
2.267877e+003, 8.019657e-002
2.269805e+003, 8.067663e-002
2.271734e+003, 8.065686e-002
2.273662e+003, 8.106542e-002
2.275591e+003, 8.123731e-002
2.277519e+003, 8.133803e-002
2.279448e+003, 8.169303e-002
2.281376e+003, 8.178752e-002
2.283304e+003, 8.239621e-002
2.285233e+003, 8.343306e-002
2.287161e+003, 8.349580e-002
2.289090e+003, 8.337170e-002
2.291018e+003, 8.305814e-002
2.292947e+003, 8.314846e-002
2.294875e+003, 8.349542e-002
2.296804e+003, 8.367052e-002
2.298732e+003, 8.428943e-002
2.300661e+003, 8.454172e-002
2.302589e+003, 8.492509e-002
2.304518e+003, 8.519016e-002
2.306446e+003, 8.535598e-002
2.308375e+003, 8.512072e-002
2.310303e+003, 8.567779e-002
2.312231e+003, 8.629201e-002
2.314160e+003, 8.648146e-002
2.316088e+003, 8.664352e-002
2.318017e+003, 8.731432e-002
2.319945e+003, 8.815173e-002
2.321874e+003, 8.848669e-002
2.323802e+003, 8.871032e-002
2.325731e+003, 8.848368e-002
2.327659e+003, 8.825368e-002
2.329588e+003, 8.851559e-002
2.331516e+003, 8.857302e-002
2.333445e+003, 8.869209e-002
2.335373e+003, 8.897056e-002
2.337302e+003, 8.904732e-002
2.339230e+003, 8.906521e-002
2.341158e+003, 9.026126e-002
2.343087e+003, 9.111995e-002
2.345015e+003, 9.067731e-002
2.346944e+003, 9.023780e-002
2.348872e+003, 9.034214e-002
2.350801e+003, 9.090944e-002
2.352729e+003, 9.152340e-002
2.354658e+003, 9.228250e-002
2.356586e+003, 9.215727e-002
2.358515e+003, 9.174676e-002
2.360443e+003, 9.207380e-002
2.362372e+003, 9.273140e-002
2.364300e+003, 9.324571e-002
2.366229e+003, 9.367083e-002
2.368157e+003, 9.386907e-002
2.370085e+003, 9.391651e-002
2.372014e+003, 9.402918e-002
2.373942e+003, 9.447753e-002
2.375871e+003, 9.488574e-002
2.377799e+003, 9.503894e-002
2.379728e+003, 9.531815e-002
2.381656e+003, 9.580532e-002
2.383585e+003, 9.638962e-002
2.385513e+003, 9.715164e-002
2.387442e+003, 9.802276e-002
2.389370e+003, 9.952586e-002
2.391299e+003, 1.008178e-001
2.393227e+003, 1.017722e-001
2.395156e+003, 1.030576e-001
2.397084e+003, 1.043026e-001
2.399012e+003, 1.057878e-001
2.400941e+003, 1.072294e-001
2.402869e+003, 1.083389e-001
2.404798e+003, 1.092424e-001
2.406726e+003, 1.096228e-001
2.408655e+003, 1.090679e-001
2.410583e+003, 1.082283e-001
2.412512e+003, 1.072412e-001
2.414440e+003, 1.061019e-001
2.416369e+003, 1.046290e-001
2.418297e+003, 1.023099e-001
2.420226e+003, 1.007982e-001
2.422154e+003, 9.920488e-002
2.424083e+003, 9.777820e-002
2.426011e+003, 9.662800e-002
2.427939e+003, 9.584448e-002
2.429868e+003, 9.542599e-002
2.431796e+003, 9.487233e-002
2.433725e+003, 9.395795e-002
2.435653e+003, 9.342018e-002
2.437582e+003, 9.371366e-002
2.439510e+003, 9.363142e-002
2.441439e+003, 9.344849e-002
2.443367e+003, 9.374239e-002
2.445296e+003, 9.346030e-002
2.447224e+003, 9.309835e-002
2.449153e+003, 9.328263e-002
2.451081e+003, 9.372894e-002
2.453010e+003, 9.359502e-002
2.454938e+003, 9.371558e-002
2.456866e+003, 9.415885e-002
2.458795e+003, 9.407366e-002
2.460723e+003, 9.438041e-002
2.462652e+003, 9.430001e-002
2.464580e+003, 9.448097e-002
2.466509e+003, 9.482961e-002
2.468437e+003, 9.499793e-002
2.470366e+003, 9.511617e-002
2.472294e+003, 9.478832e-002
2.474223e+003, 9.440512e-002
2.476151e+003, 9.468189e-002
2.478080e+003, 9.490529e-002
2.480008e+003, 9.481151e-002
2.481937e+003, 9.467395e-002
2.483865e+003, 9.486190e-002
2.485793e+003, 9.488340e-002
2.487722e+003, 9.522182e-002
2.489650e+003, 9.528158e-002
2.491579e+003, 9.492657e-002
2.493507e+003, 9.512281e-002
2.495436e+003, 9.500293e-002
2.497364e+003, 9.495125e-002
2.499293e+003, 9.498291e-002
2.501221e+003, 9.503131e-002
2.503150e+003, 9.476627e-002
2.505078e+003, 9.471793e-002
2.507007e+003, 9.515975e-002
2.508935e+003, 9.531876e-002
2.510864e+003, 9.525339e-002
2.512792e+003, 9.600504e-002
2.514720e+003, 9.606024e-002
2.516649e+003, 9.589810e-002
2.518577e+003, 9.607892e-002
2.520506e+003, 9.587988e-002
2.522434e+003, 9.559732e-002
2.524363e+003, 9.538522e-002
2.526291e+003, 9.554055e-002
2.528220e+003, 9.536766e-002
2.530148e+003, 9.559771e-002
2.532077e+003, 9.595872e-002
2.534005e+003, 9.564186e-002
2.535934e+003, 9.545805e-002
2.537862e+003, 9.569388e-002
2.539791e+003, 9.590108e-002
2.541719e+003, 9.561025e-002
2.543647e+003, 9.541950e-002
2.545576e+003, 9.535612e-002
2.547504e+003, 9.582023e-002
2.549433e+003, 9.606108e-002
2.551361e+003, 9.622852e-002
2.553290e+003, 9.554153e-002
2.555218e+003, 9.556727e-002
2.557147e+003, 9.596941e-002
2.559075e+003, 9.625554e-002
2.561004e+003, 9.729167e-002
2.562932e+003, 9.728616e-002
2.564861e+003, 9.685187e-002
2.566789e+003, 9.689102e-002
2.568718e+003, 9.708674e-002
2.570646e+003, 9.699963e-002
2.572574e+003, 9.763766e-002
2.574503e+003, 9.827700e-002
2.576431e+003, 9.800375e-002
2.578360e+003, 9.797032e-002
2.580288e+003, 9.858840e-002
2.582217e+003, 9.831702e-002
2.584145e+003, 9.763081e-002
2.586074e+003, 9.816729e-002
2.588002e+003, 9.922066e-002
2.589931e+003, 9.935421e-002
2.591859e+003, 9.889454e-002
2.593788e+003, 9.896897e-002
2.595716e+003, 9.948718e-002
2.597645e+003, 9.993730e-002
2.599573e+003, 9.996369e-002
2.601501e+003, 9.976032e-002
2.603430e+003, 1.000760e-001
2.605358e+003, 1.005013e-001
2.607287e+003, 1.002939e-001
2.609215e+003, 1.002248e-001
2.611144e+003, 1.007069e-001
2.613072e+003, 1.009477e-001
2.615001e+003, 1.006867e-001
2.616929e+003, 1.010832e-001
2.618858e+003, 1.018618e-001
2.620786e+003, 1.020674e-001
2.622715e+003, 1.016626e-001
2.624643e+003, 1.021146e-001
2.626572e+003, 1.024280e-001
2.628500e+003, 1.027503e-001
2.630428e+003, 1.032466e-001
2.632357e+003, 1.036554e-001
2.634285e+003, 1.037822e-001
2.636214e+003, 1.038273e-001
2.638142e+003, 1.039569e-001
2.640071e+003, 1.038514e-001
2.641999e+003, 1.042400e-001
2.643928e+003, 1.049199e-001
2.645856e+003, 1.053016e-001
2.647785e+003, 1.049717e-001
2.649713e+003, 1.048614e-001
2.651642e+003, 1.051487e-001
2.653570e+003, 1.055143e-001
2.655499e+003, 1.058749e-001
2.657427e+003, 1.058252e-001
2.659355e+003, 1.052996e-001
2.661284e+003, 1.050810e-001
2.663212e+003, 1.055703e-001
2.665141e+003, 1.061077e-001
2.667069e+003, 1.064516e-001
2.668998e+003, 1.065471e-001
2.670926e+003, 1.063108e-001
2.672855e+003, 1.063798e-001
2.674783e+003, 1.066818e-001
2.676712e+003, 1.069728e-001
2.678640e+003, 1.072877e-001
2.680569e+003, 1.079210e-001
2.682497e+003, 1.081364e-001
2.684426e+003, 1.083338e-001
2.686354e+003, 1.082580e-001
2.688282e+003, 1.079401e-001
2.690211e+003, 1.080691e-001
2.692139e+003, 1.083174e-001
2.694068e+003, 1.084724e-001
2.695996e+003, 1.086517e-001
2.697925e+003, 1.088741e-001
2.699853e+003, 1.092766e-001
2.701782e+003, 1.095704e-001
2.703710e+003, 1.098207e-001
2.705639e+003, 1.105535e-001
2.707567e+003, 1.112352e-001
2.709496e+003, 1.111090e-001
2.711424e+003, 1.110662e-001
2.713353e+003, 1.114260e-001
2.715281e+003, 1.119078e-001
2.717209e+003, 1.121650e-001
2.719138e+003, 1.127391e-001
2.721066e+003, 1.131950e-001
2.722995e+003, 1.130352e-001
2.724923e+003, 1.130231e-001
2.726852e+003, 1.134683e-001
2.728780e+003, 1.142711e-001
2.730709e+003, 1.146405e-001
2.732637e+003, 1.148976e-001
2.734566e+003, 1.152149e-001
2.736494e+003, 1.150947e-001
2.738423e+003, 1.150980e-001
2.740351e+003, 1.151758e-001
2.742280e+003, 1.151181e-001
2.744208e+003, 1.153483e-001
2.746136e+003, 1.151726e-001
2.748065e+003, 1.147800e-001
2.749993e+003, 1.145872e-001
2.751922e+003, 1.146818e-001
2.753850e+003, 1.148970e-001
2.755779e+003, 1.152462e-001
2.757707e+003, 1.152518e-001
2.759636e+003, 1.150928e-001
2.761564e+003, 1.151269e-001
2.763493e+003, 1.153214e-001
2.765421e+003, 1.155905e-001
2.767350e+003, 1.157788e-001
2.769278e+003, 1.159078e-001
2.771207e+003, 1.158258e-001
2.773135e+003, 1.153990e-001
2.775063e+003, 1.154267e-001
2.776992e+003, 1.160424e-001
2.778920e+003, 1.166014e-001
2.780849e+003, 1.167707e-001
2.782777e+003, 1.164521e-001
2.784706e+003, 1.164558e-001
2.786634e+003, 1.165936e-001
2.788563e+003, 1.164775e-001
2.790491e+003, 1.165283e-001
2.792420e+003, 1.167733e-001
2.794348e+003, 1.169473e-001
2.796277e+003, 1.170054e-001
2.798205e+003, 1.172889e-001
2.800134e+003, 1.172894e-001
2.802062e+003, 1.172986e-001
2.803990e+003, 1.172558e-001
2.805919e+003, 1.172923e-001
2.807847e+003, 1.175430e-001
2.809776e+003, 1.178800e-001
2.811704e+003, 1.175026e-001
2.813633e+003, 1.172844e-001
2.815561e+003, 1.174868e-001
2.817490e+003, 1.175803e-001
2.819418e+003, 1.175731e-001
2.821347e+003, 1.174873e-001
2.823275e+003, 1.173069e-001
2.825204e+003, 1.174451e-001
2.827132e+003, 1.180992e-001
2.829061e+003, 1.182725e-001
2.830989e+003, 1.177266e-001
2.832917e+003, 1.177864e-001
2.834846e+003, 1.181934e-001
2.836774e+003, 1.182179e-001
2.838703e+003, 1.185994e-001
2.840631e+003, 1.188567e-001
2.842560e+003, 1.184391e-001
2.844488e+003, 1.181867e-001
2.846417e+003, 1.182761e-001
2.848345e+003, 1.185929e-001
2.850274e+003, 1.189616e-001
2.852202e+003, 1.189938e-001
2.854131e+003, 1.184396e-001
2.856059e+003, 1.180595e-001
2.857988e+003, 1.181922e-001
2.859916e+003, 1.185383e-001
2.861844e+003, 1.185147e-001
2.863773e+003, 1.183483e-001
2.865701e+003, 1.181323e-001
2.867630e+003, 1.177028e-001
2.869558e+003, 1.174628e-001
2.871487e+003, 1.178082e-001
2.873415e+003, 1.180595e-001
2.875344e+003, 1.180650e-001
2.877272e+003, 1.186816e-001
2.879201e+003, 1.192039e-001
2.881129e+003, 1.191377e-001
2.883058e+003, 1.191755e-001
2.884986e+003, 1.196489e-001
2.886915e+003, 1.200503e-001
2.888843e+003, 1.201054e-001
2.890771e+003, 1.198723e-001
2.892700e+003, 1.197237e-001
2.894628e+003, 1.200930e-001
2.896557e+003, 1.201621e-001
2.898485e+003, 1.204372e-001
2.900414e+003, 1.210316e-001
2.902342e+003, 1.214488e-001
2.904271e+003, 1.215717e-001
2.906199e+003, 1.218619e-001
2.908128e+003, 1.223476e-001
2.910056e+003, 1.226146e-001
2.911985e+003, 1.228048e-001
2.913913e+003, 1.230244e-001
2.915842e+003, 1.238734e-001
2.917770e+003, 1.248008e-001
2.919698e+003, 1.246735e-001
2.921627e+003, 1.252407e-001
2.923555e+003, 1.254507e-001
2.925484e+003, 1.250160e-001
2.927412e+003, 1.252159e-001
2.929341e+003, 1.256410e-001
2.931269e+003, 1.254194e-001
2.933198e+003, 1.249105e-001
2.935126e+003, 1.241236e-001
2.937055e+003, 1.236119e-001
2.938983e+003, 1.235558e-001
2.940912e+003, 1.242041e-001
2.942840e+003, 1.245929e-001
2.944769e+003, 1.245246e-001
2.946697e+003, 1.238513e-001
2.948625e+003, 1.240857e-001
2.950554e+003, 1.243732e-001
2.952482e+003, 1.240149e-001
2.954411e+003, 1.242257e-001
2.956339e+003, 1.245860e-001
2.958268e+003, 1.244753e-001
2.960196e+003, 1.248876e-001
2.962125e+003, 1.253354e-001
2.964053e+003, 1.249967e-001
2.965982e+003, 1.246653e-001
2.967910e+003, 1.243097e-001
2.969839e+003, 1.240653e-001
2.971767e+003, 1.248639e-001
2.973696e+003, 1.258330e-001
2.975624e+003, 1.254942e-001
2.977552e+003, 1.249448e-001
2.979481e+003, 1.254410e-001
2.981409e+003, 1.255621e-001
2.983338e+003, 1.261636e-001
2.985266e+003, 1.262221e-001
2.987195e+003, 1.259937e-001
2.989123e+003, 1.263279e-001
2.991052e+003, 1.263950e-001
2.992980e+003, 1.260481e-001
2.994909e+003, 1.261579e-001
2.996837e+003, 1.262079e-001
2.998766e+003, 1.268156e-001
3.000694e+003, 1.272580e-001
3.002623e+003, 1.270347e-001
3.004551e+003, 1.268800e-001
3.006479e+003, 1.267027e-001
3.008408e+003, 1.271841e-001
3.010336e+003, 1.279245e-001
3.012265e+003, 1.282944e-001
3.014193e+003, 1.284460e-001
3.016122e+003, 1.285296e-001
3.018050e+003, 1.286397e-001
3.019979e+003, 1.284693e-001
3.021907e+003, 1.286856e-001
3.023836e+003, 1.289860e-001
3.025764e+003, 1.288584e-001
3.027693e+003, 1.284732e-001
3.029621e+003, 1.285363e-001
3.031550e+003, 1.286843e-001
3.033478e+003, 1.289853e-001
3.035406e+003, 1.293123e-001
3.037335e+003, 1.287339e-001
3.039263e+003, 1.289414e-001
3.041192e+003, 1.296086e-001
3.043120e+003, 1.302530e-001
3.045049e+003, 1.305499e-001
3.046977e+003, 1.305292e-001
3.048906e+003, 1.307632e-001
3.050834e+003, 1.312278e-001
3.052763e+003, 1.311109e-001
3.054691e+003, 1.309090e-001
3.056620e+003, 1.310046e-001
3.058548e+003, 1.305907e-001
3.060477e+003, 1.303313e-001
3.062405e+003, 1.313218e-001
3.064333e+003, 1.322422e-001
3.066262e+003, 1.323904e-001
3.068190e+003, 1.327011e-001
3.070119e+003, 1.321033e-001
3.072047e+003, 1.317308e-001
3.073976e+003, 1.319897e-001
3.075904e+003, 1.325652e-001
3.077833e+003, 1.329949e-001
3.079761e+003, 1.331862e-001
3.081690e+003, 1.329800e-001
3.083618e+003, 1.331265e-001
3.085547e+003, 1.333303e-001
3.087475e+003, 1.337344e-001
3.089404e+003, 1.340150e-001
3.091332e+003, 1.345059e-001
3.093260e+003, 1.341387e-001
3.095189e+003, 1.343288e-001
3.097117e+003, 1.344452e-001
3.099046e+003, 1.338009e-001
3.100974e+003, 1.339193e-001
3.102903e+003, 1.341469e-001
3.104831e+003, 1.344546e-001
3.106760e+003, 1.344675e-001
3.108688e+003, 1.346377e-001
3.110617e+003, 1.346952e-001
3.112545e+003, 1.346572e-001
3.114474e+003, 1.351080e-001
3.116402e+003, 1.350705e-001
3.118331e+003, 1.350346e-001
3.120259e+003, 1.346893e-001
3.122188e+003, 1.353030e-001
3.124116e+003, 1.356313e-001
3.126044e+003, 1.356522e-001
3.127973e+003, 1.360704e-001
3.129901e+003, 1.361216e-001
3.131830e+003, 1.357241e-001
3.133758e+003, 1.363964e-001
3.135687e+003, 1.365360e-001
3.137615e+003, 1.362517e-001
3.139544e+003, 1.372717e-001
3.141472e+003, 1.377890e-001
3.143401e+003, 1.380349e-001
3.145329e+003, 1.376366e-001
3.147258e+003, 1.376094e-001
3.149186e+003, 1.381832e-001
3.151115e+003, 1.378194e-001
3.153043e+003, 1.377338e-001
3.154971e+003, 1.389473e-001
3.156900e+003, 1.392118e-001
3.158828e+003, 1.385606e-001
3.160757e+003, 1.382938e-001
3.162685e+003, 1.380640e-001
3.164614e+003, 1.383143e-001
3.166542e+003, 1.386701e-001
3.168471e+003, 1.382410e-001
3.170399e+003, 1.375674e-001
3.172328e+003, 1.369948e-001
3.174256e+003, 1.379208e-001
3.176185e+003, 1.392806e-001
3.178113e+003, 1.394316e-001
3.180042e+003, 1.398857e-001
3.181970e+003, 1.398503e-001
3.183898e+003, 1.392548e-001
3.185827e+003, 1.387258e-001
3.187755e+003, 1.395721e-001
3.189684e+003, 1.406827e-001
3.191612e+003, 1.405331e-001
3.193541e+003, 1.401637e-001
3.195469e+003, 1.399431e-001
3.197398e+003, 1.405610e-001
3.199326e+003, 1.409849e-001
3.201255e+003, 1.420209e-001
3.203183e+003, 1.416198e-001
3.205112e+003, 1.403024e-001
3.207040e+003, 1.400717e-001
3.208969e+003, 1.409192e-001
3.210897e+003, 1.418247e-001
3.212825e+003, 1.418788e-001
3.214754e+003, 1.420995e-001
3.216682e+003, 1.414168e-001
3.218611e+003, 1.411690e-001
3.220539e+003, 1.416607e-001
3.222468e+003, 1.417755e-001
3.224396e+003, 1.414579e-001
3.226325e+003, 1.420248e-001
3.228253e+003, 1.428843e-001
3.230182e+003, 1.425582e-001
3.232110e+003, 1.420284e-001
3.234039e+003, 1.424462e-001
3.235967e+003, 1.426403e-001
3.237896e+003, 1.419907e-001
3.239824e+003, 1.423526e-001
3.241752e+003, 1.427041e-001
3.243681e+003, 1.430720e-001
3.245609e+003, 1.436488e-001
3.247538e+003, 1.433294e-001
3.249466e+003, 1.434505e-001
3.251395e+003, 1.437874e-001
3.253323e+003, 1.436272e-001
3.255252e+003, 1.433403e-001
3.257180e+003, 1.429298e-001
3.259109e+003, 1.433325e-001
3.261037e+003, 1.438909e-001
3.262966e+003, 1.438608e-001
3.264894e+003, 1.442635e-001
3.266823e+003, 1.452682e-001
3.268751e+003, 1.453068e-001
3.270679e+003, 1.446046e-001
3.272608e+003, 1.449804e-001
3.274536e+003, 1.454218e-001
3.276465e+003, 1.452734e-001
3.278393e+003, 1.452282e-001
3.280322e+003, 1.453500e-001
3.282250e+003, 1.458956e-001
3.284179e+003, 1.460925e-001
3.286107e+003, 1.460672e-001
3.288036e+003, 1.465787e-001
3.289964e+003, 1.467278e-001
3.291893e+003, 1.461474e-001
3.293821e+003, 1.458901e-001
3.295750e+003, 1.462501e-001
3.297678e+003, 1.466247e-001
3.299606e+003, 1.471857e-001
3.301535e+003, 1.466599e-001
3.303463e+003, 1.461077e-001
3.305392e+003, 1.457419e-001
3.307320e+003, 1.462211e-001
3.309249e+003, 1.470301e-001
3.311177e+003, 1.470401e-001
3.313106e+003, 1.467535e-001
3.315034e+003, 1.474600e-001
3.316963e+003, 1.474721e-001
3.318891e+003, 1.472706e-001
3.320820e+003, 1.471516e-001
3.322748e+003, 1.471532e-001
3.324677e+003, 1.466295e-001
3.326605e+003, 1.465468e-001
3.328533e+003, 1.478012e-001
3.330462e+003, 1.478311e-001
3.332390e+003, 1.474758e-001
3.334319e+003, 1.472322e-001
3.336247e+003, 1.473428e-001
3.338176e+003, 1.480058e-001
3.340104e+003, 1.487240e-001
3.342033e+003, 1.496576e-001
3.343961e+003, 1.499609e-001
3.345890e+003, 1.493505e-001
3.347818e+003, 1.489966e-001
3.349747e+003, 1.494038e-001
3.351675e+003, 1.495564e-001
3.353604e+003, 1.486870e-001
3.355532e+003, 1.480796e-001
3.357460e+003, 1.478641e-001
3.359389e+003, 1.484222e-001
3.361317e+003, 1.490262e-001
3.363246e+003, 1.499442e-001
3.365174e+003, 1.505603e-001
3.367103e+003, 1.499507e-001
3.369031e+003, 1.497616e-001
3.370960e+003, 1.502855e-001
3.372888e+003, 1.505162e-001
3.374817e+003, 1.497764e-001
3.376745e+003, 1.495793e-001
3.378674e+003, 1.503592e-001
3.380602e+003, 1.500277e-001
3.382531e+003, 1.498033e-001
3.384459e+003, 1.494438e-001
3.386387e+003, 1.490190e-001
3.388316e+003, 1.491256e-001
3.390244e+003, 1.498841e-001
3.392173e+003, 1.503649e-001
3.394101e+003, 1.509925e-001
3.396030e+003, 1.510012e-001
3.397958e+003, 1.506376e-001
3.399887e+003, 1.502342e-001
3.401815e+003, 1.508531e-001
3.403744e+003, 1.523191e-001
3.405672e+003, 1.519151e-001
3.407601e+003, 1.510939e-001
3.409529e+003, 1.506303e-001
3.411458e+003, 1.507109e-001
3.413386e+003, 1.509160e-001
3.415314e+003, 1.517893e-001
3.417243e+003, 1.518122e-001
3.419171e+003, 1.514029e-001
3.421100e+003, 1.515061e-001
3.423028e+003, 1.515315e-001
3.424957e+003, 1.513182e-001
3.426885e+003, 1.509965e-001
3.428814e+003, 1.515151e-001
3.430742e+003, 1.514446e-001
3.432671e+003, 1.514523e-001
3.434599e+003, 1.522425e-001
3.436528e+003, 1.522570e-001
3.438456e+003, 1.522914e-001
3.440385e+003, 1.526743e-001
3.442313e+003, 1.527727e-001
3.444241e+003, 1.527078e-001
3.446170e+003, 1.519812e-001
3.448098e+003, 1.516529e-001
3.450027e+003, 1.511537e-001
3.451955e+003, 1.501943e-001
3.453884e+003, 1.509481e-001
3.455812e+003, 1.509440e-001
3.457741e+003, 1.511949e-001
3.459669e+003, 1.514269e-001
3.461598e+003, 1.513332e-001
3.463526e+003, 1.519876e-001
3.465455e+003, 1.520732e-001
3.467383e+003, 1.518029e-001
3.469312e+003, 1.523815e-001
3.471240e+003, 1.531221e-001
3.473168e+003, 1.524916e-001
3.475097e+003, 1.527335e-001
3.477025e+003, 1.532724e-001
3.478954e+003, 1.532363e-001
3.480882e+003, 1.527778e-001
3.482811e+003, 1.529274e-001
3.484739e+003, 1.531114e-001
3.486668e+003, 1.540537e-001
3.488596e+003, 1.548369e-001
3.490525e+003, 1.538322e-001
3.492453e+003, 1.532493e-001
3.494382e+003, 1.526015e-001
3.496310e+003, 1.533751e-001
3.498239e+003, 1.544805e-001
3.500167e+003, 1.541034e-001
3.502095e+003, 1.538384e-001
3.504024e+003, 1.545779e-001
3.505952e+003, 1.543644e-001
3.507881e+003, 1.537241e-001
3.509809e+003, 1.535267e-001
3.511738e+003, 1.536313e-001
3.513666e+003, 1.550035e-001
3.515595e+003, 1.557489e-001
3.517523e+003, 1.549947e-001
3.519452e+003, 1.547219e-001
3.521380e+003, 1.553455e-001
3.523309e+003, 1.553275e-001
3.525237e+003, 1.545137e-001
3.527166e+003, 1.539467e-001
3.529094e+003, 1.536109e-001
3.531022e+003, 1.547999e-001
3.532951e+003, 1.552572e-001
3.534879e+003, 1.557395e-001
3.536808e+003, 1.562503e-001
3.538736e+003, 1.564999e-001
3.540665e+003, 1.557906e-001
3.542593e+003, 1.559634e-001
3.544522e+003, 1.553930e-001
3.546450e+003, 1.558380e-001
3.548379e+003, 1.571943e-001
3.550307e+003, 1.572193e-001
3.552236e+003, 1.581022e-001
3.554164e+003, 1.577684e-001
3.556093e+003, 1.571826e-001
3.558021e+003, 1.565301e-001
3.559949e+003, 1.565902e-001
3.561878e+003, 1.571494e-001
3.563806e+003, 1.560788e-001
3.565735e+003, 1.560411e-001
3.567663e+003, 1.569209e-001
3.569592e+003, 1.571456e-001
3.571520e+003, 1.567605e-001
3.573449e+003, 1.566021e-001
3.575377e+003, 1.569159e-001
3.577306e+003, 1.566393e-001
3.579234e+003, 1.563388e-001
3.581163e+003, 1.560401e-001
3.583091e+003, 1.575397e-001
3.585020e+003, 1.586696e-001
3.586948e+003, 1.575922e-001
3.588876e+003, 1.570259e-001
3.590805e+003, 1.572819e-001
3.592733e+003, 1.575801e-001
3.594662e+003, 1.571992e-001
3.596590e+003, 1.583057e-001
3.598519e+003, 1.596220e-001
3.600447e+003, 1.599483e-001
3.602376e+003, 1.593948e-001
3.604304e+003, 1.597198e-001
3.606233e+003, 1.598033e-001
3.608161e+003, 1.596308e-001
3.610090e+003, 1.589658e-001
3.612018e+003, 1.581238e-001
3.613947e+003, 1.580762e-001
3.615875e+003, 1.585619e-001
3.617803e+003, 1.593461e-001
3.619732e+003, 1.601155e-001
3.621660e+003, 1.596045e-001
3.623589e+003, 1.585847e-001
3.625517e+003, 1.582017e-001
3.627446e+003, 1.588634e-001
3.629374e+003, 1.585364e-001
3.631303e+003, 1.580640e-001
3.633231e+003, 1.587134e-001
3.635160e+003, 1.586540e-001
3.637088e+003, 1.579631e-001
3.639017e+003, 1.590402e-001
3.640945e+003, 1.594553e-001
3.642874e+003, 1.590243e-001
3.644802e+003, 1.601205e-001
3.646730e+003, 1.615316e-001
3.648659e+003, 1.620505e-001
3.650587e+003, 1.614848e-001
3.652516e+003, 1.613239e-001
3.654444e+003, 1.620686e-001
3.656373e+003, 1.616966e-001
3.658301e+003, 1.610357e-001
3.660230e+003, 1.615942e-001
3.662158e+003, 1.630119e-001
3.664087e+003, 1.636474e-001
3.666015e+003, 1.625088e-001
3.667944e+003, 1.609045e-001
3.669872e+003, 1.611309e-001
3.671801e+003, 1.608686e-001
3.673729e+003, 1.614050e-001
3.675657e+003, 1.634799e-001
3.677586e+003, 1.638996e-001
3.679514e+003, 1.631932e-001
3.681443e+003, 1.626231e-001
3.683371e+003, 1.624863e-001
3.685300e+003, 1.628589e-001
3.687228e+003, 1.632109e-001
3.689157e+003, 1.625537e-001
3.691085e+003, 1.615354e-001
3.693014e+003, 1.623127e-001
3.694942e+003, 1.633226e-001
3.696871e+003, 1.635118e-001
3.698799e+003, 1.633343e-001
3.700728e+003, 1.637317e-001
3.702656e+003, 1.624714e-001
3.704584e+003, 1.625434e-001
3.706513e+003, 1.632636e-001
3.708441e+003, 1.635086e-001
3.710370e+003, 1.635448e-001
3.712298e+003, 1.635025e-001
3.714227e+003, 1.628890e-001
3.716155e+003, 1.631907e-001
3.718084e+003, 1.630515e-001
3.720012e+003, 1.639129e-001
3.721941e+003, 1.651708e-001
3.723869e+003, 1.657760e-001
3.725798e+003, 1.665864e-001
3.727726e+003, 1.669348e-001
3.729655e+003, 1.653828e-001
3.731583e+003, 1.648612e-001
3.733511e+003, 1.647099e-001
3.735440e+003, 1.652808e-001
3.737368e+003, 1.658635e-001
3.739297e+003, 1.658431e-001
3.741225e+003, 1.649736e-001
3.743154e+003, 1.646895e-001
3.745082e+003, 1.665305e-001
3.747011e+003, 1.667218e-001
3.748939e+003, 1.682418e-001
3.750868e+003, 1.687077e-001
3.752796e+003, 1.664967e-001
3.754725e+003, 1.657280e-001
3.756653e+003, 1.660555e-001
3.758582e+003, 1.659039e-001
3.760510e+003, 1.668072e-001
3.762438e+003, 1.669046e-001
3.764367e+003, 1.665005e-001
3.766295e+003, 1.666719e-001
3.768224e+003, 1.675854e-001
3.770152e+003, 1.680977e-001
3.772081e+003, 1.679188e-001
3.774009e+003, 1.667754e-001
3.775938e+003, 1.668721e-001
3.777866e+003, 1.681664e-001
3.779795e+003, 1.681454e-001
3.781723e+003, 1.675840e-001
3.783652e+003, 1.672612e-001
3.785580e+003, 1.669061e-001
3.787509e+003, 1.661458e-001
3.789437e+003, 1.666703e-001
3.791365e+003, 1.667712e-001
3.793294e+003, 1.655831e-001
3.795222e+003, 1.663034e-001
3.797151e+003, 1.658958e-001
3.799079e+003, 1.657951e-001
3.801008e+003, 1.676352e-001
3.802936e+003, 1.671064e-001
3.804865e+003, 1.674113e-001
3.806793e+003, 1.689987e-001
3.808722e+003, 1.686763e-001
3.810650e+003, 1.678035e-001
3.812579e+003, 1.672115e-001
3.814507e+003, 1.669102e-001
3.816436e+003, 1.680890e-001
3.818364e+003, 1.679334e-001
3.820292e+003, 1.688823e-001
3.822221e+003, 1.698130e-001
3.824149e+003, 1.696240e-001
3.826078e+003, 1.691252e-001
3.828006e+003, 1.688664e-001
3.829935e+003, 1.694229e-001
3.831863e+003, 1.690611e-001
3.833792e+003, 1.681341e-001
3.835720e+003, 1.686494e-001
3.837649e+003, 1.690438e-001
3.839577e+003, 1.674765e-001
3.841506e+003, 1.672648e-001
3.843434e+003, 1.676949e-001
3.845363e+003, 1.692504e-001
3.847291e+003, 1.702768e-001
3.849219e+003, 1.698883e-001
3.851148e+003, 1.699025e-001
3.853076e+003, 1.713389e-001
3.855005e+003, 1.707079e-001
3.856933e+003, 1.701034e-001
3.858862e+003, 1.709452e-001
3.860790e+003, 1.712759e-001
3.862719e+003, 1.706761e-001
3.864647e+003, 1.698344e-001
3.866576e+003, 1.700289e-001
3.868504e+003, 1.709628e-001
3.870433e+003, 1.706643e-001
3.872361e+003, 1.695629e-001
3.874290e+003, 1.696489e-001
3.876218e+003, 1.693385e-001
3.878146e+003, 1.699274e-001
3.880075e+003, 1.699837e-001
3.882003e+003, 1.690627e-001
3.883932e+003, 1.701134e-001
3.885860e+003, 1.707605e-001
3.887789e+003, 1.708324e-001
3.889717e+003, 1.714459e-001
3.891646e+003, 1.708862e-001
3.893574e+003, 1.701779e-001
3.895503e+003, 1.700469e-001
3.897431e+003, 1.707419e-001
3.899360e+003, 1.718221e-001
3.901288e+003, 1.717048e-001
3.903217e+003, 1.708440e-001
3.905145e+003, 1.712139e-001
3.907073e+003, 1.713621e-001
3.909002e+003, 1.715216e-001
3.910930e+003, 1.713866e-001
3.912859e+003, 1.719129e-001
3.914787e+003, 1.726698e-001
3.916716e+003, 1.731634e-001
3.918644e+003, 1.714706e-001
3.920573e+003, 1.703523e-001
3.922501e+003, 1.725435e-001
3.924430e+003, 1.735019e-001
3.926358e+003, 1.735027e-001
3.928287e+003, 1.733457e-001
3.930215e+003, 1.732149e-001
3.932144e+003, 1.737771e-001
3.934072e+003, 1.742439e-001
3.936000e+003, 1.737401e-001
3.937929e+003, 1.734447e-001
3.939857e+003, 1.729183e-001
3.941786e+003, 1.721862e-001
3.943714e+003, 1.722795e-001
3.945643e+003, 1.718802e-001
3.947571e+003, 1.719151e-001
3.949500e+003, 1.727519e-001
3.951428e+003, 1.717454e-001
3.953357e+003, 1.704318e-001
3.955285e+003, 1.708505e-001
3.957214e+003, 1.714597e-001
3.959142e+003, 1.714233e-001
3.961071e+003, 1.723792e-001
3.962999e+003, 1.737158e-001
3.964927e+003, 1.743239e-001
3.966856e+003, 1.743531e-001
3.968784e+003, 1.749667e-001
3.970713e+003, 1.753800e-001
3.972641e+003, 1.743802e-001
3.974570e+003, 1.741299e-001
3.976498e+003, 1.746245e-001
3.978427e+003, 1.747582e-001
3.980355e+003, 1.753716e-001
3.982284e+003, 1.758924e-001
3.984212e+003, 1.760716e-001
3.986141e+003, 1.738089e-001
3.988069e+003, 1.720533e-001
3.989998e+003, 1.734761e-001
3.991926e+003, 1.748544e-001
3.993854e+003, 1.748263e-001
3.995783e+003, 1.743348e-001
3.997711e+003, 1.754460e-001
3.999640e+003, 1.763012e-001
##END=



